Data from JASIL_2992_Reflection_01.txt Node
Date: Mon Nov 09 09:46:48 EST 2015
User: Geneva
Spectrometer: USB4E03002
Autoset integration time: false
Trigger mode: 4
Integration Time (sec): 1.000000E-1
Scans to average: 10
Electric dark correction enabled: false
Nonlinearity correction enabled: false
Boxcar width: 5
Stray light correction enabled: false
XAxis mode: Wavelengths
Stop averaging: false
Number of Pixels in Spectrum: 3648
>>>>>Begin Spectral Data<<<<<
177.575	44.28
177.794	29.56
178.014	22.72
178.233	17.41
178.452	16.82
178.672	14.1
178.891	-9.6
179.11	-42.06
179.33	-59.74
179.549	-73.62
179.768	-134.48
179.987	-112.21
180.207	-50.95
180.426	-36.27
180.645	-74.66
180.864	-63.73
181.084	-24.09
181.303	-14.17
181.522	-14.17
181.741	-5.86
181.96	-9.01
182.179	10.61
182.398	23.72
182.618	20.37
182.837	18.59
183.056	63.46
183.275	43.68
183.494	19.49
183.713	40.13
183.932	57.76
184.151	41.68
184.37	25.82
184.589	9.77
184.808	-0.52
185.027	-8.21
185.246	-48.82
185.465	-41.09
185.684	-24.59
185.903	-42.41
186.122	-48.57
186.341	-109.03
186.56	-184.04
186.779	-108.36
186.998	-80.09
187.216	-33.23
187.435	-38.87
187.654	-22.76
187.873	-38.28
188.092	-69.97
188.311	-36.99
188.53	-34.96
188.748	19.42
188.967	-14.7
189.186	-20.62
189.405	-29.84
189.623	-9.59
189.842	16.67
190.061	-9.89
190.28	-9.09
190.498	-34.66
190.717	-50
190.936	-126.18
191.154	-302.46
191.373	-40.53
191.592	-44.91
191.81	20.36
192.029	-119.31
192.248	-257.43
192.466	-54.62
192.685	-46.96
192.904	-1.75
193.122	-35.63
193.341	-8.44
193.559	-1.93
193.778	-41.72
193.996	-51.33
194.215	-65.51
194.433	-55.73
194.652	-46.15
194.87	-106.96
195.089	-168.85
195.307	-254.76
195.526	-148.71
195.744	-149.88
195.963	-105.95
196.181	-119.59
196.399	-154.81
196.618	-153.2
196.836	-208.7
197.055	-158.78
197.273	-115.61
197.491	-116.95
197.71	-40.58
197.928	-51.73
198.146	-43.04
198.365	-111.44
198.583	-78.67
198.801	-38.83
199.019	-67.78
199.238	-58.8
199.456	-34.74
199.674	-50.96
199.892	-17.66
200.111	-102.15
200.329	-67.38
200.547	-6.42
200.765	0.44
200.983	14.18
201.202	-170.43
201.42	-176.47
201.638	-81.09
201.856	-607.04
202.074	1272.97
202.292	739.02
202.51	-43.35
202.728	-35.71
202.946	-136.36
203.165	-90.04
203.383	-34.77
203.601	-13.99
203.819	-5.23
204.037	53.69
204.255	99.31
204.473	90.11
204.691	38.89
204.909	-42.31
205.127	-54.45
205.345	-51.97
205.562	-14.61
205.78	-58.59
205.998	-69.21
206.216	-98.86
206.434	-157.24
206.652	-190.57
206.87	-251.48
207.088	-167.41
207.306	-133.55
207.523	-166.15
207.741	-125.77
207.959	-96.53
208.177	-195.65
208.395	-123.32
208.612	-43.87
208.83	-20.41
209.048	29.37
209.266	48.44
209.483	44.27
209.701	83.85
209.919	77.37
210.136	48.5
210.354	25
210.572	51.72
210.79	-4.65
211.007	18.53
211.225	37.34
211.442	15.87
211.66	-2.42
211.878	-21.72
212.095	-5.21
212.313	-11.13
212.53	7.16
212.748	11.11
212.966	16.14
213.183	24.05
213.401	18.76
213.618	16.27
213.836	19.78
214.053	20.18
214.271	22.39
214.488	38.94
214.705	27.51
214.923	28.12
215.14	13.99
215.358	6.74
215.575	12.85
215.793	-3.11
216.01	-6.34
216.227	-15.56
216.445	-18.57
216.662	-38.42
216.879	-23.26
217.097	-24.49
217.314	-29.38
217.531	-18.31
217.749	-24.85
217.966	-10.12
218.183	-38.99
218.4	-183.26
218.618	-175
218.835	-113.99
219.052	-431.43
219.269	-1024.56
219.487	-325.73
219.704	-1011.11
219.921	1250.88
220.138	1482.05
220.355	878.08
220.572	0
220.79	-1624.24
221.007	-309.85
221.224	-233.82
221.441	-46.24
221.658	-94.37
221.875	-130.12
222.092	-74.35
222.309	-43.95
222.526	-47.49
222.743	-71.78
222.96	-46.65
223.177	-26.28
223.394	-47.36
223.611	-124.15
223.828	-232.26
224.045	-162.99
224.262	-71.49
224.479	-65.22
224.696	-56.5
224.913	-74.25
225.13	-71.38
225.347	-92.07
225.564	-91.44
225.781	-61.76
225.997	-41.68
226.214	-19.31
226.431	-18.46
226.648	-33.6
226.865	-27.15
227.082	-33.61
227.298	-32.21
227.515	-32.67
227.732	-24.82
227.949	-27.26
228.165	-23.7
228.382	-19.06
228.599	-20.69
228.816	-17.37
229.032	-26.04
229.249	-30.71
229.466	-22.64
229.682	-18.56
229.899	-9.75
230.116	-14.04
230.332	-15.76
230.549	-22.33
230.765	-48.4
230.982	-58.15
231.199	-47.08
231.415	-11.08
231.632	-6.08
231.848	-19.12
232.065	-15.36
232.281	-25.6
232.498	-17.57
232.714	-1.9
232.931	-12.17
233.147	6.55
233.364	16.85
233.58	4.76
233.797	-8.55
234.013	-28.01
234.23	-28.23
234.446	-26.29
234.662	-22.65
234.879	-24.04
235.095	-26.28
235.312	-26.47
235.528	-34.04
235.744	-39.4
235.961	-30.04
236.177	-32.27
236.393	-17.48
236.61	-20.57
236.826	-33.66
237.042	-19.01
237.258	-21.25
237.475	-23.04
237.691	-28.4
237.907	-24.75
238.123	-40.39
238.339	-58.54
238.556	-49.34
238.772	-72.21
238.988	-45.1
239.204	-34.02
239.42	-41.13
239.636	-21.63
239.853	-10.77
240.069	-9.26
240.285	-13.06
240.501	1.1
240.717	2.21
240.933	5.31
241.149	9.51
241.365	6.46
241.581	7.06
241.797	5.94
242.013	2.23
242.229	-3.39
242.445	5.58
242.661	9.86
242.877	8.64
243.093	8.32
243.309	-0.78
243.525	-0.67
243.741	-0.63
243.957	2.68
244.173	6.05
244.388	4.92
244.604	7.3
244.82	2.81
245.036	0.3
245.252	0.77
245.468	2.41
245.683	2.51
245.899	5.38
246.115	3.62
246.331	0.84
246.547	-1.28
246.762	-1.52
246.978	-0.86
247.194	-3.9
247.409	-4.95
247.625	-7.93
247.841	-5.1
248.057	-0.6
248.272	-1.45
248.488	2.13
248.703	5.28
248.919	9.33
249.135	8.22
249.35	5.54
249.566	10.37
249.782	13.18
249.997	15.78
250.213	7.2
250.428	4.29
250.644	0.62
250.859	4.92
251.075	5.14
251.29	4.61
251.506	9.16
251.721	11.49
251.937	13.03
252.152	15.09
252.368	13.05
252.583	16.37
252.798	22.03
253.014	21.32
253.229	14.71
253.445	13.13
253.66	2.02
253.875	-3.15
254.091	-0.16
254.306	-2.77
254.521	-0
254.737	5.6
254.952	6
255.167	4.65
255.383	5.11
255.598	6.01
255.813	11.64
256.028	16.65
256.244	9.85
256.459	2.89
256.674	7.17
256.889	3.23
257.104	-1.22
257.32	2.94
257.535	3.5
257.75	2.25
257.965	2.34
258.18	1.21
258.395	1.46
258.61	2.93
258.826	3.17
259.041	1.58
259.256	-0.21
259.471	1.77
259.686	0.73
259.901	-3.15
260.116	-2.61
260.331	-5.55
260.546	-6.32
260.761	-4.81
260.976	-7.19
261.191	-6.2
261.406	-10.61
261.621	-4.12
261.836	-7.6
262.05	-9.07
262.265	-2
262.48	-3.5
262.695	-1.94
262.91	-3.64
263.125	-8.82
263.34	-7.34
263.555	-7.86
263.769	-2.36
263.984	-3.64
264.199	-5.41
264.414	-7.21
264.629	-5.47
264.843	-3.1
265.058	-3.56
265.273	-0.51
265.488	3.04
265.702	1.73
265.917	1.39
266.132	0.78
266.346	-0.81
266.561	1.92
266.776	3.88
266.99	1.76
267.205	4.16
267.42	5.99
267.634	1.8
267.849	0.75
268.063	3.83
268.278	5.46
268.492	7.88
268.707	8.24
268.922	10.17
269.136	5.42
269.351	3.09
269.565	1.43
269.78	-0.66
269.994	3.28
270.209	3.57
270.423	1.38
270.637	2.35
270.852	2.52
271.066	3.34
271.281	3.05
271.495	4.73
271.709	4.88
271.924	3.01
272.138	2.3
272.353	1.61
272.567	2.45
272.781	2.23
272.996	0.93
273.21	-3.32
273.424	-8.06
273.638	-11.23
273.853	-7.07
274.067	-2.32
274.281	-1.05
274.495	1.27
274.71	1.04
274.924	0.23
275.138	0.97
275.352	2.78
275.566	5.58
275.781	9.24
275.995	11.37
276.209	10.93
276.423	5.91
276.637	5.81
276.851	7.02
277.065	6.32
277.279	3.02
277.493	4.99
277.707	3.87
277.921	1.5
278.135	0.04
278.349	-5.96
278.563	-9.79
278.777	-9.39
278.991	-9.92
279.205	-12.31
279.419	-11.29
279.633	-11.59
279.847	-15.96
280.061	-16.83
280.275	-12.61
280.489	-9.96
280.703	-4.64
280.917	-5.59
281.131	-2.06
281.344	1.8
281.558	3.93
281.772	4.45
281.986	7.81
282.2	9.14
282.414	8.8
282.627	7.03
282.841	7.8
283.055	5.35
283.269	7.95
283.482	7.6
283.696	6
283.91	3.72
284.123	-0.21
284.337	-0.17
284.551	1.95
284.764	3.98
284.978	6.55
285.192	4.37
285.405	6
285.619	2.36
285.833	0.17
286.046	-0.73
286.26	-2.17
286.473	0.72
286.687	0.72
286.9	0.38
287.114	-2.66
287.327	-6.48
287.541	-5.92
287.754	-10.8
287.968	-7.07
288.181	-7.88
288.395	-10
288.608	-10.41
288.822	-9.77
289.035	-10.13
289.248	-10.33
289.462	-10.35
289.675	-8.46
289.889	-7.14
290.102	-1.47
290.315	-0.54
290.529	0.13
290.742	1.58
290.955	2.15
291.169	1.56
291.382	-0.58
291.595	-4.69
291.808	-2.22
292.022	-2.81
292.235	-3.04
292.448	-2.24
292.661	-4.1
292.875	-2.12
293.088	-1.79
293.301	0.25
293.514	1.28
293.727	3.69
293.94	6.1
294.153	4.9
294.367	3.92
294.58	2.49
294.793	-0.85
295.006	-1.69
295.219	-0.8
295.432	-0.79
295.645	0.27
295.858	-0.2
296.071	-1.43
296.284	-2.19
296.497	-4.63
296.71	-3.47
296.923	-1.64
297.136	-0.76
297.349	1.91
297.562	-1.07
297.775	-0.31
297.988	0.85
298.201	1.67
298.414	3.21
298.626	2.43
298.839	3.96
299.052	5.24
299.265	5.71
299.478	4.95
299.691	4.37
299.903	8.04
300.116	6.29
300.329	2.98
300.542	2.73
300.755	1.98
300.967	5.34
301.18	5.27
301.393	1.56
301.605	0.62
301.818	-0.02
302.031	-0.04
302.243	-1.09
302.456	-1.04
302.669	1.35
302.881	2.03
303.094	2.53
303.307	2.3
303.519	1.94
303.732	3.07
303.944	1.5
304.157	4.16
304.37	0.93
304.582	0.05
304.795	1.88
305.007	2.22
305.22	-1.33
305.432	-5.79
305.645	-8.89
305.857	-8.47
306.069	-6.39
306.282	-6.52
306.494	-6.47
306.707	-6.75
306.919	-6.27
307.132	-7.89
307.344	-9.84
307.556	-8.57
307.769	-4.88
307.981	-2.31
308.193	-3.01
308.406	-4.92
308.618	-2.21
308.83	-0.93
309.043	2.96
309.255	1.75
309.467	0.58
309.679	2.45
309.892	3.67
310.104	4.72
310.316	3.13
310.528	5.19
310.74	5.4
310.953	3.64
311.165	1.58
311.377	-2.04
311.589	-0.53
311.801	2.51
312.013	-0.42
312.225	2.28
312.437	1.44
312.649	2.53
312.862	2.45
313.074	0.74
313.286	4.16
313.498	3.88
313.71	4.82
313.922	2.49
314.134	1.74
314.346	4.03
314.558	0.73
314.77	-0.92
314.982	0.78
315.193	1.06
315.405	2.17
315.617	1.11
315.829	2.66
316.041	5.48
316.253	6.03
316.465	4
316.677	5.79
316.888	5.49
317.1	5.09
317.312	0.2
317.524	2
317.736	4.52
317.947	0.83
318.159	-0.17
318.371	-1.56
318.583	-2.6
318.794	-2.53
319.006	-6.28
319.218	-7.36
319.43	-4.8
319.641	-0.87
319.853	-5.8
320.064	-7.39
320.276	-6.96
320.488	-5.84
320.699	-5.25
320.911	-2.92
321.123	0.36
321.334	-1.8
321.546	-1.45
321.757	-2.26
321.969	-5.62
322.18	-1.45
322.392	-0.28
322.603	-2.35
322.815	-1.87
323.026	0.04
323.238	2.24
323.449	-0.24
323.661	3.41
323.872	0.9
324.083	-0.55
324.295	0.54
324.506	-1.77
324.718	-3.24
324.929	0.78
325.14	-1.53
325.352	-2.46
325.563	-2.24
325.774	-0.96
325.986	-1.88
326.197	1.28
326.408	1.76
326.62	1.93
326.831	3.21
327.042	2.58
327.253	3.2
327.464	4.14
327.676	3.46
327.887	2.65
328.098	2.17
328.309	2.43
328.52	3.88
328.732	5.47
328.943	5.12
329.154	1.49
329.365	4.92
329.576	2.18
329.787	3.4
329.998	2.98
330.209	2.63
330.42	5.19
330.631	3.1
330.842	-1.12
331.053	-0.7
331.264	-0.22
331.475	3.59
331.686	4.11
331.897	7.5
332.108	5.82
332.319	6.13
332.53	3.14
332.741	1.4
332.952	5.71
333.163	7.9
333.374	7.02
333.585	7.95
333.795	7.7
334.006	6.54
334.217	7.43
334.428	8.01
334.639	6.42
334.849	8
335.06	9.53
335.271	7.26
335.482	6.31
335.692	5.66
335.903	5.35
336.114	6.5
336.325	6.87
336.535	2.24
336.746	4.23
336.957	6.03
337.167	6.59
337.378	4.6
337.589	7.23
337.799	5.42
338.01	5.69
338.22	6.59
338.431	1.86
338.642	0.76
338.852	1.94
339.063	-0.92
339.273	2.36
339.484	2.69
339.694	2.04
339.905	-0.6
340.115	3.45
340.326	1.9
340.536	1.51
340.746	4.78
340.957	4.44
341.167	4.47
341.378	5.14
341.588	2.13
341.799	1.05
342.009	3.63
342.219	1.24
342.43	0.28
342.64	1.49
342.85	3.76
343.061	3.34
343.271	4.42
343.481	4.84
343.691	4.01
343.902	6.47
344.112	6.85
344.322	5.14
344.532	6.67
344.743	6.33
344.953	6.53
345.163	3.68
345.373	2.98
345.583	2.5
345.793	3
346.004	5.87
346.214	2.94
346.424	3.53
346.634	0.99
346.844	1.25
347.054	1.98
347.264	-0.93
347.474	0.29
347.684	2.71
347.894	4.02
348.104	4.9
348.314	3.44
348.524	5.39
348.734	6.46
348.944	7.57
349.154	7.14
349.364	6.37
349.574	9.24
349.784	8.56
349.994	9.96
350.204	7.67
350.413	7.37
350.623	9.28
350.833	7.66
351.043	4.81
351.253	7.39
351.463	7.39
351.672	7.16
351.882	6.95
352.092	7.29
352.302	8
352.511	9.45
352.721	10.69
352.931	10.79
353.141	9.87
353.35	11.26
353.56	10.43
353.77	9.84
353.979	11.65
354.189	13.49
354.399	13.93
354.608	11.67
354.818	10.96
355.027	9.39
355.237	7.09
355.447	8.36
355.656	8.39
355.866	8.58
356.075	7.73
356.285	6
356.494	2.54
356.704	1.74
356.913	-0.08
357.123	-0.33
357.332	-1.66
357.542	-0.86
357.751	-0.34
357.96	-0.89
358.17	-1.49
358.379	-0.2
358.589	1.26
358.798	3.46
359.007	2.84
359.217	3.1
359.426	2.82
359.635	3.05
359.845	2.05
360.054	-0.49
360.263	0.45
360.472	1.82
360.682	1.64
360.891	0.67
361.1	1.12
361.309	0.82
361.519	1.51
361.728	3.36
361.937	4.21
362.146	6.31
362.355	9.13
362.564	8.05
362.774	7.23
362.983	7.42
363.192	7.41
363.401	6.99
363.61	8.11
363.819	8.73
364.028	6.04
364.237	6.92
364.446	4.27
364.655	2.43
364.864	3.61
365.073	3.13
365.282	2.41
365.491	3.07
365.7	2.55
365.909	2.53
366.118	2.93
366.327	3.19
366.536	2.59
366.745	4.07
366.954	5.43
367.162	5.52
367.371	3.89
367.58	5.04
367.789	5.31
367.998	5.27
368.207	6.94
368.415	5.54
368.624	5.99
368.833	5.56
369.042	4.96
369.25	4.25
369.459	3.48
369.668	4.89
369.877	4.55
370.085	3.98
370.294	4.12
370.503	1.28
370.711	3.13
370.92	3.25
371.129	4.38
371.337	3.95
371.546	4.14
371.754	5.85
371.963	6.69
372.171	5.47
372.38	5.26
372.589	4.55
372.797	4.85
373.006	3.93
373.214	2.64
373.423	2.84
373.631	4.18
373.84	4.16
374.048	3.17
374.256	2.06
374.465	3.1
374.673	3.46
374.882	4.49
375.09	6.84
375.298	6.52
375.507	8.18
375.715	7.18
375.923	6.82
376.132	7.05
376.34	6.96
376.548	8.16
376.757	7.22
376.965	7.23
377.173	8.47
377.381	7.62
377.59	6.69
377.798	6.32
378.006	4.96
378.214	4.69
378.423	4.74
378.631	4.36
378.839	3.17
379.047	4.43
379.255	3.14
379.463	2.3
379.671	2.47
379.879	2.81
380.088	2.68
380.296	3.43
380.504	4.26
380.712	3.27
380.92	4.21
381.128	5.38
381.336	4.57
381.544	6.12
381.752	7.32
381.96	6.7
382.168	6.5
382.376	6.92
382.584	7.46
382.791	6.72
382.999	7.03
383.207	5.16
383.415	3.41
383.623	3.73
383.831	4.51
384.039	2.59
384.247	2.37
384.454	2.37
384.662	2.97
384.87	2.23
385.078	1.72
385.285	3.42
385.493	5.13
385.701	6.11
385.909	6.49
386.116	5.45
386.324	6.62
386.532	6.32
386.739	6.72
386.947	6.01
387.155	7.14
387.362	7.48
387.57	4.48
387.778	4.09
387.985	4.17
388.193	3.66
388.4	3.57
388.608	2.77
388.816	3.16
389.023	2.92
389.231	3.12
389.438	3.53
389.646	5.04
389.853	7.16
390.061	6.04
390.268	5.87
390.475	6.87
390.683	5.8
390.89	6.1
391.098	5.72
391.305	6.36
391.512	5.74
391.72	5.21
391.927	2.44
392.135	1.53
392.342	2.14
392.549	2.32
392.756	1.25
392.964	2.47
393.171	2.56
393.378	2.74
393.586	2.26
393.793	1.93
394	2.86
394.207	4.98
394.414	5.88
394.622	5.14
394.829	4.8
395.036	5.99
395.243	5.29
395.45	5.51
395.657	5.67
395.864	4.92
396.072	4.68
396.279	4.42
396.486	2.97
396.693	2.08
396.9	3.91
397.107	5.39
397.314	4.54
397.521	5.31
397.728	5.56
397.935	5.45
398.142	6.03
398.349	6.45
398.556	4.87
398.763	5.14
398.97	5.28
399.177	3.7
399.383	2.3
399.59	1.96
399.797	1.07
400.004	0.98
400.211	0.57
400.418	1.07
400.625	2.08
400.831	2.87
401.038	2.67
401.245	1.81
401.452	2.19
401.658	2.81
401.865	3.58
402.072	3.94
402.279	2.25
402.485	2.72
402.692	1.7
402.899	1.54
403.105	1.8
403.312	2.44
403.519	3.7
403.725	4.7
403.932	4.38
404.138	3.92
404.345	3.88
404.552	3.64
404.758	3.12
404.965	5.21
405.171	5.6
405.378	6.44
405.584	6.46
405.791	6.72
405.997	5.73
406.204	5.8
406.41	5.96
406.617	6.37
406.823	6.7
407.029	7.65
407.236	5.26
407.442	5.7
407.649	4.14
407.855	3.09
408.061	2.26
408.268	2.99
408.474	3.29
408.68	3.64
408.887	3.01
409.093	3.55
409.299	4.89
409.505	5.92
409.712	3.76
409.918	4.1
410.124	4.91
410.33	5.14
410.537	6.06
410.743	5.66
410.949	5.67
411.155	6.44
411.361	6.82
411.567	5.79
411.773	6.37
411.98	7.56
412.186	8.18
412.392	8.02
412.598	8.47
412.804	6.6
413.01	6.8
413.216	5.65
413.422	5.13
413.628	4.34
413.834	4.18
414.04	3.23
414.246	4.09
414.452	3.88
414.658	3.59
414.864	2.98
415.07	3.36
415.275	3.15
415.481	4.31
415.687	3.65
415.893	4.77
416.099	3.99
416.305	4.68
416.511	4.56
416.716	4.18
416.922	4.68
417.128	4.32
417.334	4.41
417.539	4.57
417.745	4.33
417.951	4.96
418.157	4.77
418.362	5.29
418.568	4.62
418.774	3.95
418.979	4.49
419.185	4.54
419.391	4.88
419.596	4.9
419.802	5.16
420.008	5.22
420.213	0.56
420.419	0.36
420.624	-0.11
420.83	0.2
421.035	0.98
421.241	0.42
421.446	-0.05
421.652	-0.2
421.857	-0.16
422.063	-0.12
422.268	-0.32
422.474	3.91
422.679	4.3
422.885	4.47
423.09	4.5
423.295	4.12
423.501	4.43
423.706	4.44
423.911	4.18
424.117	4.4
424.322	4.25
424.527	4.51
424.733	4.72
424.938	4.17
425.143	4.23
425.349	4.38
425.554	4.5
425.759	4.28
425.964	4.49
426.169	5.1
426.375	4.97
426.58	4.75
426.785	4.9
426.99	5.03
427.195	5.92
427.4	6.11
427.605	5.77
427.811	5.38
428.016	4.91
428.221	5.69
428.426	5.45
428.631	5.38
428.836	5.06
429.041	4.6
429.246	4.34
429.451	4
429.656	3.8
429.861	3.56
430.066	3.68
430.271	4.67
430.476	3.97
430.681	4.16
430.886	3.94
431.09	4.36
431.295	4.73
431.5	4.94
431.705	4.74
431.91	5.28
432.115	5.35
432.32	5.58
432.524	4.93
432.729	4.7
432.934	4.38
433.139	4.72
433.343	4.38
433.548	4.48
433.753	4.56
433.958	4.79
434.162	4.7
434.367	4.79
434.572	4.02
434.776	4.75
434.981	4.44
435.186	4.68
435.39	4.82
435.595	5.01
435.799	4.47
436.004	4.53
436.209	4.68
436.413	3.93
436.618	3.94
436.822	4.63
437.027	4.08
437.231	4.41
437.436	4.17
437.64	3.9
437.845	3.6
438.049	3.8
438.253	3.74
438.458	2.79
438.662	3.11
438.867	3.5
439.071	3.08
439.275	2.83
439.48	2.98
439.684	2.78
439.888	3.05
440.093	2.96
440.297	3.68
440.501	4.17
440.706	4.34
440.91	4.12
441.114	3.5
441.318	3.79
441.523	4.02
441.727	3.96
441.931	4.2
442.135	3.58
442.339	3.99
442.543	3.34
442.748	3.04
442.952	3.4
443.156	3.13
443.36	3.61
443.564	3.02
443.768	3.19
443.972	2.95
444.176	3.44
444.38	3.66
444.584	3.75
444.788	3.64
444.992	3.61
445.196	3.75
445.4	4.44
445.604	4.63
445.808	4.83
446.012	4.71
446.216	4.67
446.42	4.71
446.624	4.77
446.828	4.63
447.032	4.42
447.235	4.03
447.439	4.02
447.643	4.49
447.847	4.01
448.051	3.66
448.254	3.89
448.458	4.07
448.662	3.8
448.866	3.76
449.069	4.22
449.273	4.73
449.477	4.53
449.681	4.71
449.884	3.85
450.088	3.91
450.292	4.37
450.495	4.32
450.699	4.67
450.902	5.03
451.106	5.37
451.31	5.19
451.513	5.1
451.717	6.26
451.92	5.93
452.124	5.94
452.327	6.21
452.531	6.34
452.734	6.33
452.938	6.43
453.141	5.68
453.345	4.85
453.548	4.66
453.752	4.85
453.955	4.73
454.158	4.71
454.362	5.2
454.565	5.64
454.769	5.67
454.972	5.48
455.175	5.04
455.379	5.01
455.582	5.28
455.785	5.56
455.988	4.24
456.192	3.4
456.395	3.53
456.598	2.95
456.801	1.94
457.005	2.61
457.208	2.2
457.411	2.59
457.614	2.57
457.817	2.46
458.021	2.04
458.224	2.4
458.427	2.18
458.63	2.41
458.833	1.93
459.036	2.29
459.239	1.49
459.442	1.97
459.645	1.97
459.848	2.29
460.051	2.86
460.254	3.39
460.457	3.77
460.66	4.11
460.863	3.66
461.066	3.93
461.269	3.49
461.472	4.17
461.675	3.97
461.878	3.72
462.081	3.36
462.284	2.7
462.486	2.48
462.689	2.77
462.892	3.27
463.095	3.59
463.298	3.73
463.5	4.08
463.703	3.95
463.906	3.92
464.109	4.21
464.311	4.95
464.514	5.16
464.717	5.01
464.92	5.07
465.122	4.72
465.325	4.98
465.528	5.04
465.73	5.65
465.933	5.11
466.135	4.9
466.338	4.25
466.541	3.65
466.743	3.49
466.946	3.81
467.148	3.48
467.351	3.91
467.553	3.01
467.756	3.72
467.958	3.57
468.161	3.82
468.363	3.87
468.566	4.34
468.768	3.98
468.971	4.3
469.173	4.07
469.375	3.88
469.578	3
469.78	3.73
469.983	2.88
470.185	2.4
470.387	2.1
470.59	2.44
470.792	2.16
470.994	2.31
471.196	2.03
471.399	1.8
471.601	2.49
471.803	2.62
472.005	2.65
472.208	3.14
472.41	2.46
472.612	2.9
472.814	2.55
473.016	3.24
473.218	4.16
473.421	4.03
473.623	4.04
473.825	3.82
474.027	3.58
474.229	3.42
474.431	3.18
474.633	3.57
474.835	3.26
475.037	3.76
475.239	3.58
475.441	3.29
475.643	3.8
475.845	3.94
476.047	3.34
476.249	3.88
476.451	3.84
476.653	3.85
476.855	3.74
477.057	3.74
477.258	3.68
477.46	3.94
477.662	3.22
477.864	2.97
478.066	2.74
478.268	2.99
478.469	3
478.671	3.61
478.873	4.04
479.075	4.11
479.276	4.05
479.478	3.73
479.68	3.18
479.882	3.55
480.083	3.58
480.285	3.69
480.487	3.56
480.688	3.39
480.89	2.95
481.091	2.77
481.293	3.01
481.495	3.09
481.696	3.28
481.898	3.19
482.099	3.26
482.301	3.45
482.502	3.44
482.704	3.6
482.905	3.73
483.107	3.93
483.308	4.11
483.51	4.09
483.711	4.21
483.913	4.31
484.114	4.46
484.315	4.52
484.517	4.35
484.718	4.52
484.92	4.27
485.121	3.96
485.322	3.78
485.524	3.72
485.725	3.54
485.926	3.44
486.127	3.24
486.329	3.14
486.53	3.22
486.731	3.41
486.932	3.28
487.134	3.52
487.335	3.83
487.536	3.68
487.737	3.61
487.938	3.69
488.139	3.79
488.341	3.93
488.542	4.28
488.743	4.03
488.944	3.84
489.145	3.71
489.346	3.62
489.547	3.52
489.748	3.64
489.949	3.5
490.15	3.69
490.351	3.66
490.552	3.49
490.753	3.43
490.954	3.5
491.155	3.65
491.356	3.62
491.557	3.69
491.758	3.82
491.959	4.04
492.159	3.85
492.36	3.72
492.561	4.14
492.762	4.2
492.963	4.27
493.164	4.23
493.364	3.85
493.565	4.17
493.766	3.81
493.967	3.52
494.167	3.07
494.368	3.4
494.569	3.69
494.769	3.12
494.97	3.59
495.171	3.66
495.371	3.51
495.572	3.28
495.773	3.35
495.973	3.55
496.174	4.13
496.375	4
496.575	3.81
496.776	3.99
496.976	4.13
497.177	3.83
497.377	3.47
497.578	3.57
497.778	4.18
497.979	4.06
498.179	4.24
498.38	3.79
498.58	4.17
498.78	4.77
498.981	4.31
499.181	3.94
499.382	4.15
499.582	4.26
499.782	4.34
499.983	4.5
500.183	4.53
500.383	4.21
500.584	3.71
500.784	3.82
500.984	3.5
501.184	3.78
501.385	4.28
501.585	3.93
501.785	3.83
501.985	3.69
502.185	3.43
502.386	3.21
502.586	3.35
502.786	4.06
502.986	3.93
503.186	4.12
503.386	4.4
503.586	4.18
503.786	4.19
503.987	4.21
504.187	4.43
504.387	4.65
504.587	4.59
504.787	4.68
504.987	4.6
505.187	4.5
505.387	3.86
505.587	2.87
505.786	2.74
505.986	2.99
506.186	2.92
506.386	3.17
506.586	3.21
506.786	4.45
506.986	4.43
507.186	4.44
507.386	4.7
507.585	5.53
507.785	5.73
507.985	6.09
508.185	6
508.384	5.72
508.584	5.38
508.784	4.89
508.984	4.29
509.183	4.19
509.383	4.01
509.583	4.1
509.782	3.75
509.982	4.04
510.182	4.04
510.381	4.31
510.581	4.88
510.781	5.71
510.98	5.78
511.18	5.6
511.379	5.76
511.579	5.61
511.778	5.54
511.978	5.32
512.177	5.67
512.377	5.57
512.576	5.72
512.776	5.79
512.975	5.04
513.175	5
513.374	5.28
513.573	5.83
513.773	5.63
513.972	5.55
514.172	5.73
514.371	5.22
514.57	5.34
514.77	5.3
514.969	4.66
515.168	4.8
515.367	5.29
515.567	5
515.766	4.21
515.965	4.91
516.164	5.01
516.364	4.95
516.563	5.72
516.762	5.51
516.961	5.58
517.16	6.51
517.359	6.55
517.559	6.32
517.758	6.53
517.957	6.82
518.156	6.49
518.355	6.51
518.554	6.57
518.753	6.2
518.952	5.88
519.151	5.3
519.35	4.64
519.549	4.73
519.748	4.92
519.947	5
520.146	5.1
520.345	5.61
520.544	5.75
520.743	5.62
520.942	5.43
521.141	5.93
521.339	6.48
521.538	6.77
521.737	6.98
521.936	6.94
522.135	6.75
522.333	6.36
522.532	6.13
522.731	6.18
522.93	6.41
523.129	7.05
523.327	7.37
523.526	7.11
523.725	6.9
523.923	6.93
524.122	6.72
524.321	7.19
524.519	7.28
524.718	7.22
524.917	7.34
525.115	7.49
525.314	7.16
525.512	7.18
525.711	7.38
525.909	7.58
526.108	7.79
526.306	7.96
526.505	7.75
526.703	8.04
526.902	8.24
527.1	8.31
527.299	8.32
527.497	8.43
527.696	8.52
527.894	8.59
528.092	8.73
528.291	8.61
528.489	8.74
528.688	8.85
528.886	8.91
529.084	9.04
529.283	8.88
529.481	8.85
529.679	8.71
529.877	8.55
530.076	8.59
530.274	8.56
530.472	8.53
530.67	8.83
530.869	8.86
531.067	8.48
531.265	8.39
531.463	8.47
531.661	8.6
531.859	8.68
532.057	8.84
532.255	8.52
532.454	8.37
532.652	8.68
532.85	8.4
533.048	8.35
533.246	8.74
533.444	8.93
533.642	9.14
533.84	9.27
534.038	9.4
534.236	9.42
534.434	9.83
534.632	9.8
534.83	9.7
535.027	9.78
535.225	10.1
535.423	9.96
535.621	9.51
535.819	9.24
536.017	9.08
536.215	9.34
536.412	8.87
536.61	9.21
536.808	9.31
537.006	9.1
537.203	9.02
537.401	8.98
537.599	8.95
537.797	9.05
537.994	9.32
538.192	9.42
538.39	9.26
538.587	9.72
538.785	9.43
538.983	10.03
539.18	10.31
539.378	10.4
539.575	10.37
539.773	10.4
539.97	10.53
540.168	10.61
540.366	10.87
540.563	10.98
540.761	10.88
540.958	11.02
541.155	10.54
541.353	10.53
541.55	10.79
541.748	10.89
541.945	11.06
542.143	11.16
542.34	11.11
542.537	10.61
542.735	10.68
542.932	10.95
543.129	11.15
543.327	11.4
543.524	11.54
543.721	11.51
543.919	11.27
544.116	11.32
544.313	11.5
544.51	11.51
544.708	11.71
544.905	11.43
545.102	11.25
545.299	10.93
545.496	11.51
545.693	11.74
545.891	11.61
546.088	11.67
546.285	11.83
546.482	11.65
546.679	11.89
546.876	11.99
547.073	12.05
547.27	12.18
547.467	12.43
547.664	11.72
547.861	10.82
548.058	10.89
548.255	10.7
548.452	10.3
548.649	10.36
548.846	10.49
549.043	11.18
549.24	12.08
549.437	12.26
549.633	12.34
549.83	12.57
550.027	12.91
550.224	12.92
550.421	12.87
550.618	13.12
550.814	12.59
551.011	12.28
551.208	11.99
551.405	11.2
551.601	11.37
551.798	11.21
551.995	10.97
552.191	11.27
552.388	10.92
552.585	10.92
552.781	10.14
552.978	10.79
553.175	11.1
553.371	11.18
553.568	11.47
553.764	11.28
553.961	11.48
554.157	11.96
554.354	11.83
554.55	12.55
554.747	13.01
554.943	14.33
555.14	14.65
555.336	14.81
555.533	14.22
555.729	14.25
555.926	14.29
556.122	14.92
556.318	14.92
556.515	15.44
556.711	14.92
556.907	15.19
557.104	14.75
557.3	14.68
557.496	14.38
557.693	14.82
557.889	14.82
558.085	15.02
558.281	14.78
558.478	14.64
558.674	14.55
558.87	15.62
559.066	15.12
559.262	14.94
559.459	14.56
559.655	14.28
559.851	14.67
560.047	14.89
560.243	15.12
560.439	14.79
560.635	15.1
560.831	15.15
561.027	14.23
561.223	14.41
561.419	14.71
561.615	15.12
561.811	15.57
562.007	14.21
562.203	13.81
562.399	13.26
562.595	12.78
562.791	12.53
562.987	12.41
563.183	12.84
563.379	13.07
563.575	13.24
563.771	13.52
563.966	13.5
564.162	13.97
564.358	14.38
564.554	14.56
564.75	15.08
564.945	15.38
565.141	15.04
565.337	14.97
565.533	14.99
565.728	14.42
565.924	14.25
566.12	14.14
566.315	15.18
566.511	15.05
566.707	15.19
566.902	15.21
567.098	15.18
567.293	15.66
567.489	15.7
567.684	15.45
567.88	15.99
568.076	15.49
568.271	15.84
568.467	15.5
568.662	15.15
568.858	15.71
569.053	15.81
569.248	15.38
569.444	15.06
569.639	15.18
569.835	15.25
570.03	15.6
570.225	16.5
570.421	16.78
570.616	16.74
570.812	17
571.007	16.45
571.202	16.16
571.397	17
571.593	17.95
571.788	18.4
571.983	18.92
572.178	18.78
572.374	17.95
572.569	16.86
572.764	17.19
572.959	16.77
573.154	16.7
573.35	17.24
573.545	17.15
573.74	16.79
573.935	16.01
574.13	15.81
574.325	15.75
574.52	16.57
574.715	17.09
574.91	16.41
575.105	17.16
575.3	17.41
575.495	17
575.69	16.78
575.885	16.41
576.08	16.85
576.275	16.65
576.47	17.02
576.665	17.41
576.86	17.78
577.055	17.74
577.25	17.45
577.444	17.47
577.639	17.76
577.834	16.55
578.029	16.67
578.224	16.6
578.418	16.97
578.613	16.47
578.808	15.39
579.003	15.23
579.197	15.88
579.392	16.14
579.587	16.5
579.781	16.66
579.976	17.91
580.171	17.3
580.365	18.02
580.56	17.73
580.755	18.43
580.949	18.72
581.144	19.08
581.338	19.77
581.533	20.09
581.727	19.47
581.922	19.4
582.116	19
582.311	19.65
582.505	19.46
582.7	20.07
582.894	18.99
583.089	19.56
583.283	18.88
583.478	18.69
583.672	17.95
583.866	18.07
584.061	17.85
584.255	17.71
584.449	17.18
584.644	17.27
584.838	16.39
585.032	17.08
585.226	16.35
585.421	17.53
585.615	16.81
585.809	17.12
586.003	17.36
586.198	17.45
586.392	18.52
586.586	18.98
586.78	17.99
586.974	18.6
587.168	18.83
587.363	18.7
587.557	18.2
587.751	18.07
587.945	18.01
588.139	18.08
588.333	18.2
588.527	17.63
588.721	17.45
588.915	17.78
589.109	17.64
589.303	17.2
589.497	17.38
589.691	16.28
589.885	16.73
590.079	17.17
590.273	17.12
590.466	17.49
590.66	16.99
590.854	17.09
591.048	17.16
591.242	17.16
591.436	17.8
591.629	17.14
591.823	17.55
592.017	16.85
592.211	16.62
592.404	16.46
592.598	15.77
592.792	15.49
592.986	14.74
593.179	13.68
593.373	13.7
593.567	12.84
593.76	13.18
593.954	13.76
594.147	14.09
594.341	14.68
594.535	14.81
594.728	15.1
594.922	16.52
595.115	16.7
595.309	17.26
595.502	17
595.696	17.16
595.889	17.84
596.083	18.13
596.276	18.67
596.47	17.33
596.663	17.2
596.856	17.65
597.05	16.97
597.243	16.99
597.437	17.31
597.63	16.93
597.823	17.61
598.017	17.46
598.21	17.36
598.403	16.89
598.596	17.81
598.79	18.12
598.983	17.53
599.176	17.36
599.369	18.24
599.563	17.89
599.756	18.96
599.949	18.41
600.142	17.76
600.335	17.5
600.528	17.5
600.722	17.73
600.915	17.76
601.108	17.66
601.301	17.66
601.494	17.8
601.687	18.49
601.88	18.26
602.073	18.2
602.266	18.57
602.459	18.62
602.652	18.83
602.845	18.65
603.038	18.43
603.231	18.26
603.424	18.59
603.617	18.1
603.809	17.48
604.002	17.12
604.195	17.16
604.388	16.41
604.581	16.5
604.774	16.41
604.966	17.24
605.159	17.77
605.352	17.81
605.545	16.46
605.737	16.56
605.93	16.73
606.123	16.43
606.316	16.5
606.508	17.21
606.701	16.69
606.894	16.45
607.086	15.18
607.279	15.02
607.471	15.38
607.664	16.83
607.857	16.8
608.049	16.76
608.242	17.23
608.434	17.24
608.627	17.23
608.819	16.92
609.012	16.93
609.204	17.87
609.397	17.57
609.589	17.68
609.782	17.99
609.974	17.05
610.166	17.43
610.359	17.9
610.551	18.57
610.743	18.84
610.936	19.22
611.128	19.39
611.32	18.7
611.513	18.37
611.705	19.04
611.897	18.31
612.09	19.66
612.282	20.05
612.474	20.71
612.666	19.89
612.858	20.57
613.051	21.31
613.243	20.76
613.435	20.29
613.627	20.18
613.819	19.31
614.011	19.41
614.203	19.19
614.395	17.48
614.588	16.08
614.78	15.4
614.972	14.54
615.164	14.31
615.356	14.98
615.548	16.08
615.74	16.89
615.932	16.74
616.124	17.12
616.315	17.8
616.507	18.97
616.699	19.85
616.891	20.52
617.083	21.52
617.275	21.15
617.467	21.62
617.659	21.6
617.85	21.84
618.042	22
618.234	21.64
618.426	21.41
618.618	22.36
618.809	22.5
619.001	22.99
619.193	21.28
619.384	21.96
619.576	21.98
619.768	20.81
619.959	19.84
620.151	20.39
620.343	20.78
620.534	20.81
620.726	20.01
620.917	19.52
621.109	18.81
621.301	20.25
621.492	20.58
621.684	19.88
621.875	19.91
622.067	20.25
622.258	18.68
622.45	19
622.641	18.89
622.832	18.12
623.024	18.1
623.215	18.36
623.407	17.46
623.598	17.27
623.789	17.06
623.981	17.99
624.172	18.4
624.363	19.42
624.555	19.12
624.746	18.98
624.937	19.4
625.129	19.18
625.32	18.47
625.511	18.68
625.702	19.08
625.893	19.57
626.085	20.02
626.276	19.93
626.467	20.27
626.658	20.22
626.849	20.19
627.04	20.37
627.231	19.99
627.422	20.77
627.614	21.26
627.805	20
627.996	20.38
628.187	20.09
628.378	20.71
628.569	20.83
628.76	19.51
628.951	19.43
629.142	19.59
629.332	20.35
629.523	20.01
629.714	18.46
629.905	18.71
630.096	17.92
630.287	17.14
630.478	15.64
630.669	14.86
630.859	16.94
631.05	17.32
631.241	16.93
631.432	16.85
631.623	16.77
631.813	17.89
632.004	18.49
632.195	18.74
632.385	18.32
632.576	18.86
632.767	19.32
632.957	18.87
633.148	18.87
633.339	19.08
633.529	18.55
633.72	19.4
633.91	19.91
634.101	20.33
634.292	19.42
634.482	20.15
634.673	20.99
634.863	20.88
635.054	20.46
635.244	20.26
635.435	19.76
635.625	19.95
635.815	19.43
636.006	19.56
636.196	18.31
636.387	18.23
636.577	18.49
636.767	18.08
636.958	17.28
637.148	17.29
637.338	17.29
637.529	17.78
637.719	17.61
637.909	16.84
638.099	16.34
638.29	17.18
638.48	17.38
638.67	16.33
638.86	16.28
639.05	17.18
639.241	17.73
639.431	17.49
639.621	16.16
639.811	16.76
640.001	17.77
640.191	17.19
640.381	16.86
640.571	16.73
640.761	16.96
640.951	17.87
641.141	17.42
641.331	16.49
641.521	17.37
641.711	17.51
641.901	17.92
642.091	15.66
642.281	16.1
642.471	16.63
642.661	18.42
642.851	17.74
643.041	15.66
643.231	15.78
643.42	16.46
643.61	14.64
643.8	15.91
643.99	16.19
644.18	18.14
644.369	18.3
644.559	17.04
644.749	16.51
644.939	17.87
645.128	19.15
645.318	19.23
645.508	18.5
645.697	19.19
645.887	20.03
646.076	19.01
646.266	18.76
646.456	18.78
646.645	19.52
646.835	19.34
647.024	19.75
647.214	19.98
647.403	20.4
647.593	21.33
647.782	21.58
647.972	20.38
648.161	19.69
648.351	20.38
648.54	19.97
648.73	18.91
648.919	19.5
649.108	19.5
649.298	18.82
649.487	18.35
649.677	18.44
649.866	18.87
650.055	19.19
650.244	19.75
650.434	20.49
650.623	20.27
650.812	21.86
651.002	21.3
651.191	21.65
651.38	20.83
651.569	20.86
651.758	20.12
651.947	20.37
652.137	20.28
652.326	20.69
652.515	19.14
652.704	18.65
652.893	17.64
653.082	17.74
653.271	16.74
653.46	18.4
653.649	18.14
653.838	18.75
654.027	18.83
654.216	19.08
654.405	19.31
654.594	19.95
654.783	20.67
654.972	21.22
655.161	19.76
655.35	20.23
655.539	18.51
655.728	18.73
655.916	18.78
656.105	16.93
656.294	17.63
656.483	17.48
656.672	17.01
656.86	17.33
657.049	17.37
657.238	18.02
657.427	18.63
657.615	19.52
657.804	19.86
657.993	18.77
658.181	19.22
658.37	18.11
658.559	17.73
658.747	18.68
658.936	18.92
659.125	16.88
659.313	16.85
659.502	15.62
659.69	15.42
659.879	14.71
660.067	15.36
660.256	15.86
660.444	16.51
660.633	17.53
660.821	16.38
661.01	16.12
661.198	17.82
661.387	18.7
661.575	19.16
661.763	19.59
661.952	20.61
662.14	21.66
662.328	21.36
662.517	20.51
662.705	19.29
662.893	20.57
663.082	20.82
663.27	21.72
663.458	20.6
663.646	20.91
663.834	20.97
664.023	19.87
664.211	18.85
664.399	18.99
664.587	20.63
664.775	20.71
664.963	19.83
665.152	19.52
665.34	19.58
665.528	20.48
665.716	20.13
665.904	20.38
666.092	20.83
666.28	20.61
666.468	20.22
666.656	19.6
666.844	20.07
667.032	20.5
667.22	21.1
667.408	20.23
667.596	20.4
667.784	20.59
667.971	20.09
668.159	19.72
668.347	20.13
668.535	20.28
668.723	19.87
668.911	19.62
669.098	19.71
669.286	18.61
669.474	19.8
669.662	20.31
669.849	20.14
670.037	20.36
670.225	19.97
670.413	20.38
670.6	20.83
670.788	19.88
670.976	19.35
671.163	18.22
671.351	16.82
671.538	15.19
671.726	13.78
671.913	14.04
672.101	14.65
672.289	15.85
672.476	14.3
672.664	13.88
672.851	14.17
673.039	13.92
673.226	13.06
673.413	14.49
673.601	15.04
673.788	16.08
673.976	16.35
674.163	16.18
674.35	16.06
674.538	17.21
674.725	17.86
674.912	18.71
675.1	19.56
675.287	20.68
675.474	20.46
675.662	21.36
675.849	21.48
676.036	21.19
676.223	20.78
676.411	20.29
676.598	20.06
676.785	20.92
676.972	20.62
677.159	21.86
677.346	22.27
677.533	21.55
677.721	21.42
677.908	21.66
678.095	21
678.282	19.92
678.469	20.42
678.656	20.37
678.843	19.64
679.03	20.21
679.217	19.13
679.404	18.02
679.591	20.13
679.778	19.08
679.964	18.01
680.151	17.94
680.338	18.77
680.525	16.82
680.712	17.29
680.899	18.17
681.086	18.27
681.272	18.45
681.459	19.31
681.646	17.69
681.833	20.35
682.02	19.41
682.206	20.64
682.393	21.53
682.58	23.63
682.766	23.09
682.953	21.98
683.14	22.08
683.326	21.77
683.513	21.64
683.7	20.24
683.886	18.62
684.073	19.68
684.259	19.46
684.446	18.13
684.632	16.91
684.819	17.18
685.005	17.37
685.192	16.27
685.378	16.92
685.565	18.13
685.751	20.01
685.938	19.84
686.124	19.42
686.31	19.3
686.497	19.21
686.683	21.03
686.87	21.19
687.056	21.49
687.242	22.48
687.429	22.13
687.615	21.23
687.801	20.87
687.987	20.49
688.174	22.12
688.36	20.48
688.546	21.06
688.732	20.5
688.918	18.94
689.105	18.13
689.291	17.94
689.477	18.33
689.663	17.87
689.849	19.56
690.035	21.37
690.221	20.13
690.407	20.47
690.593	19.26
690.779	18.94
690.965	19
691.151	19.31
691.337	19.32
691.523	19.18
691.709	20.66
691.895	18.32
692.081	16.39
692.267	16.02
692.453	16.01
692.639	16.11
692.825	13.93
693.011	14.96
693.196	15.2
693.382	14.09
693.568	11.98
693.754	9.84
693.94	10.47
694.125	9.92
694.311	11.55
694.497	13.31
694.682	14.05
694.868	16.3
695.054	17.3
695.239	16.41
695.425	17.35
695.611	19.45
695.796	20.58
695.982	21.54
696.168	22.17
696.353	20.26
696.539	19.33
696.724	19.86
696.91	20.6
697.095	19.09
697.281	19.28
697.466	19.17
697.652	18.98
697.837	18.4
698.023	18.77
698.208	18.53
698.393	19.75
698.579	20.29
698.764	19.68
698.949	18.6
699.135	18.88
699.32	18.02
699.505	16.26
699.691	16.13
699.876	16.8
700.061	16.21
700.246	17.01
700.432	19.32
700.617	19.79
700.802	22.58
700.987	22.23
701.172	24.46
701.358	27.13
701.543	29.89
701.728	28.78
701.913	29.61
702.098	29.45
702.283	31.75
702.468	26.71
702.653	25.9
702.838	22.05
703.023	22.12
703.208	21.09
703.393	18.71
703.578	17.69
703.763	18.71
703.948	17.6
704.133	17.63
704.318	12.22
704.503	15.93
704.688	16.74
704.873	16.36
705.057	16.59
705.242	17.85
705.427	19.69
705.612	20.12
705.797	20.39
705.981	18.02
706.166	16.17
706.351	17.37
706.536	16.09
706.72	16.23
706.905	18.83
707.09	20.19
707.274	19.49
707.459	19.18
707.644	19.2
707.828	19.43
708.013	22.26
708.197	22.04
708.382	21.31
708.567	21.74
708.751	22.34
708.936	23
709.12	21.49
709.305	20.2
709.489	20.15
709.673	20.09
709.858	20.75
710.042	19.57
710.227	20.55
710.411	21.76
710.596	21.52
710.78	20.35
710.964	18.55
711.149	20.5
711.333	21.06
711.517	22.24
711.702	21.26
711.886	20.04
712.07	21.88
712.254	23.27
712.438	23.07
712.623	22.43
712.807	23.41
712.991	21.47
713.175	20.63
713.359	21.81
713.544	20.86
713.728	21.6
713.912	22.23
714.096	22
714.28	20.8
714.464	19.74
714.648	19.98
714.832	20.18
715.016	22.21
715.2	21.34
715.384	19.95
715.568	18.99
715.752	19.78
715.936	18.49
716.12	18.77
716.304	17.87
716.488	18.5
716.671	19.63
716.855	16.68
717.039	16.49
717.223	16.39
717.407	18.9
717.59	18.69
717.774	19.98
717.958	20.17
718.142	18.25
718.325	21.04
718.509	20.98
718.693	19.34
718.877	20.03
719.06	17.46
719.244	18.9
719.428	15.11
719.611	15.37
719.795	9.94
719.978	8.82
720.162	10.42
720.345	12.37
720.529	13.76
720.713	13.36
720.896	11.72
721.08	14.36
721.263	13.65
721.446	14.83
721.63	18.04
721.813	19.93
721.997	18.1
722.18	15.95
722.364	13.32
722.547	12.05
722.73	14.13
722.914	15.99
723.097	16.06
723.28	15.2
723.464	13.62
723.647	12.08
723.83	14.26
724.013	15.83
724.197	15.95
724.38	14.7
724.563	14.15
724.746	13.37
724.929	11.89
725.112	11.21
725.296	12.72
725.479	13.71
725.662	10.73
725.845	9.08
726.028	10.9
726.211	13.01
726.394	14.44
726.577	13.92
726.76	13.15
726.943	13.53
727.126	13.19
727.309	11.51
727.492	11.08
727.675	11.07
727.858	11.93
728.041	9.24
728.224	7.74
728.407	6.24
728.589	4.73
728.772	3.7
728.955	7.33
729.138	8.39
729.321	8.75
729.503	7.61
729.686	9.41
729.869	7.65
730.052	10.12
730.234	9.65
730.417	10.28
730.6	13.06
730.782	13.6
730.965	10.85
731.148	10.76
731.33	9.92
731.513	10.61
731.695	9.92
731.878	13.07
732.061	15.04
732.243	15.41
732.426	13.42
732.608	13.76
732.791	15.82
732.973	18.05
733.156	15.77
733.338	17.92
733.52	21.73
733.703	20.25
733.885	17.73
734.068	14.83
734.25	15.61
734.432	16.47
734.615	15.68
734.797	12.48
734.979	10.46
735.162	12.88
735.344	9.44
735.526	6.59
735.708	11.81
735.891	15.89
736.073	16.46
736.255	17.2
736.437	17.74
736.619	18.06
736.802	18.33
736.984	17.81
737.166	18.4
737.348	20.35
737.53	21.81
737.712	20.45
737.894	18.5
738.076	18.91
738.258	15.96
738.44	17.37
738.622	15.43
738.804	18.52
738.986	19.44
739.168	21.03
739.35	21.45
739.532	18.91
739.714	17.6
739.896	16.94
740.078	15.58
740.259	15.97
740.441	14.84
740.623	14.88
740.805	12.41
740.987	14.76
741.168	12.68
741.35	11.05
741.532	9.95
741.714	9.14
741.895	10.13
742.077	9.93
742.259	12.2
742.44	10.94
742.622	8.45
742.804	7.94
742.985	5
743.167	3.17
743.348	6.36
743.53	6.99
743.711	3.86
743.893	-0.77
744.075	-1.62
744.256	-0.67
744.438	-3.48
744.619	4.07
744.8	6.44
744.982	5.28
745.163	4.7
745.345	4.1
745.526	5.96
745.707	10.39
745.889	14.17
746.07	17.54
746.252	15.18
746.433	15.09
746.614	16.71
746.795	14.6
746.977	17.14
747.158	20.41
747.339	19.88
747.52	20.71
747.702	17.71
747.883	15.12
748.064	10.79
748.245	15.46
748.426	18.56
748.607	15.33
748.788	16.25
748.97	16.35
749.151	14.82
749.332	14.07
749.513	11.46
749.694	14.1
749.875	17.21
750.056	18.47
750.237	18.38
750.418	16.79
750.599	14.73
750.78	14.96
750.96	14.41
751.141	15.81
751.322	14.11
751.503	15.83
751.684	19.2
751.865	15.97
752.046	17.55
752.226	14.64
752.407	16.5
752.588	19.35
752.769	15.86
752.949	15.7
753.13	13.83
753.311	19.83
753.492	19.48
753.672	18.4
753.853	17.75
754.034	17.95
754.214	16.73
754.395	15.86
754.575	15.93
754.756	17.69
754.937	18.7
755.117	21.99
755.298	18
755.478	18.68
755.659	14.46
755.839	18.58
756.02	14.86
756.2	16.94
756.381	21
756.561	18.79
756.741	20.75
756.922	17.66
757.102	11.7
757.283	13.16
757.463	13.26
757.643	15.83
757.823	12.37
758.004	15.84
758.184	14.36
758.364	14.21
758.545	11.55
758.725	7.57
758.905	7.85
759.085	10.4
759.265	8.2
759.446	8.57
759.626	4.3
759.806	7.6
759.986	7.71
760.166	9.47
760.346	3.61
760.526	5.47
760.706	9.27
760.886	12.39
761.066	13.23
761.246	12.67
761.426	14.08
761.606	17.24
761.786	14.07
761.966	13.88
762.146	14.36
762.326	16.75
762.506	19.15
762.686	18.48
762.866	17.29
763.046	17.58
763.225	16.78
763.405	15.1
763.585	14.97
763.765	14.89
763.945	15.93
764.124	11.6
764.304	11.44
764.484	7.7
764.664	7.29
764.843	9.12
765.023	6.09
765.203	6.46
765.382	8.06
765.562	7.92
765.741	11.44
765.921	6.59
766.101	10.15
766.28	8.45
766.46	12.64
766.639	15.93
766.819	13.27
766.998	14.6
767.178	14.68
767.357	12.25
767.537	7.6
767.716	5.83
767.896	11.45
768.075	12.24
768.254	16.23
768.434	12.48
768.613	5.13
768.792	9.67
768.972	13.36
769.151	14.14
769.33	16.42
769.51	18.51
769.689	17.74
769.868	14.13
770.047	16.43
770.226	16.63
770.406	15.34
770.585	18.23
770.764	13.34
770.943	11.77
771.122	18.15
771.301	21.13
771.48	19.01
771.66	23.62
771.839	24.37
772.018	20.14
772.197	21.63
772.376	23.64
772.555	24.63
772.734	23.19
772.913	24.36
773.092	23.25
773.271	17.56
773.449	26.2
773.628	22.53
773.807	23.61
773.986	24.61
774.165	18.12
774.344	16.99
774.523	21.21
774.701	23
774.88	26.29
775.059	19.87
775.238	22.2
775.417	23.57
775.595	19.6
775.774	23.6
775.953	24.53
776.131	29.31
776.31	27.59
776.489	25.56
776.667	25.05
776.846	20.17
777.025	23.18
777.203	21.4
777.382	17.19
777.56	19.73
777.739	17.92
777.917	17.02
778.096	12.53
778.274	15.01
778.453	14.5
778.631	19.79
778.81	16.33
778.988	20.12
779.166	23.48
779.345	20.51
779.523	21.91
779.702	20.03
779.88	22.98
780.058	29.61
780.237	32.85
780.415	30.02
780.593	30.94
780.771	35.06
780.95	29.28
781.128	28.89
781.306	32.86
781.484	32.66
781.662	35.28
781.841	30.29
782.019	24.8
782.197	21.68
782.375	21.86
782.553	15.19
782.731	11.6
782.909	14.04
783.087	16.97
783.265	12.43
783.443	13.04
783.621	15.85
783.799	17.1
783.977	12.18
784.155	13.57
784.333	11.41
784.511	14.94
784.689	16.97
784.867	10.82
785.045	4.69
785.223	11.31
785.4	15.43
785.578	17.2
785.756	23.44
785.934	28.63
786.112	28.35
786.289	35.51
786.467	30.78
786.645	28.53
786.823	34.09
787	35.52
787.178	34.09
787.356	25.98
787.533	16.08
787.711	14.05
787.889	9.94
788.066	11.32
788.244	9.66
788.421	16
788.599	17.29
788.776	13.92
788.954	11.87
789.131	9.26
789.309	12.75
789.486	16.77
789.664	10.37
789.841	12.61
790.019	11.19
790.196	8.11
790.373	6.86
790.551	2.66
790.728	8.48
790.906	8.87
791.083	14.3
791.26	18.6
791.437	18.23
791.615	22.56
791.792	31.3
791.969	33
792.146	35.14
792.324	32.55
792.501	32.05
792.678	28.03
792.855	33.79
793.032	29.33
793.209	20.56
793.387	24.54
793.564	24.75
793.741	20.33
793.918	18.95
794.095	15.54
794.272	15.36
794.449	15.32
794.626	20.09
794.803	13.99
794.98	11.24
795.157	10.29
795.334	12.73
795.511	15.01
795.688	14.2
795.864	14.25
796.041	13.43
796.218	12.01
796.395	19.83
796.572	16.15
796.749	18.15
796.925	15.5
797.102	25.06
797.279	15.29
797.456	11.52
797.632	8.4
797.809	9.64
797.986	13.21
798.162	10.3
798.339	3.35
798.516	-6.98
798.692	-7.04
798.869	-8.7
799.046	-15.27
799.222	-9.55
799.399	-12.78
799.575	-4.52
799.752	-4.05
799.928	-2.08
800.105	4.44
800.281	9.89
800.458	12.44
800.634	4.66
800.811	8.5
800.987	12.27
801.163	4.72
801.34	2.24
801.516	-7.23
801.692	-2.38
801.869	-3.18
802.045	-0.55
802.221	-8.37
802.398	6.64
802.574	13.88
802.75	6
802.926	8.23
803.103	14.02
803.279	21.03
803.455	23.83
803.631	14.24
803.807	15.09
803.983	12.25
804.16	11.08
804.336	7.37
804.512	9.7
804.688	18.52
804.864	17.95
805.04	21.08
805.216	17.42
805.392	13.24
805.568	18.8
805.744	13.55
805.92	15.65
806.096	22.84
806.272	18.24
806.448	20.97
806.623	21.38
806.799	24.08
806.975	16.53
807.151	8.06
807.327	11.02
807.503	23.91
807.678	28.14
807.854	22.23
808.03	13.75
808.206	7.35
808.381	4.36
808.557	-8.02
808.733	-8.18
808.908	-9.78
809.084	-2.68
809.26	-2.94
809.435	-12.98
809.611	-24.83
809.787	-7.59
809.962	-6.73
810.138	-2.93
810.313	-7.49
810.489	-5.03
810.664	-19.61
810.84	-3.36
811.015	-8.53
811.191	-19.39
811.366	-9.17
811.542	0.96
811.717	-4.5
811.892	3.55
812.068	15.88
812.243	15.99
812.419	22.13
812.594	12.59
812.769	4.01
812.944	10.11
813.12	18.89
813.295	10.8
813.47	11.11
813.645	13.95
813.821	13.49
813.996	4.94
814.171	11.89
814.346	15.32
814.521	33.91
814.697	34.98
814.872	32.81
815.047	37.74
815.222	37.96
815.397	45.33
815.572	32.26
815.747	30.35
815.922	31.48
816.097	26.59
816.272	34.29
816.447	32.75
816.622	34.05
816.797	31.33
816.972	32.95
817.147	29.83
817.322	22.06
817.496	18.38
817.671	21.36
817.846	22.33
818.021	19.16
818.196	9.91
818.371	2.24
818.545	10.82
818.72	11.64
818.895	15.13
819.069	19.03
819.244	20.43
819.419	23.84
819.594	22.11
819.768	20.14
819.943	20.9
820.117	22.45
820.292	21.88
820.467	18.53
820.641	19.8
820.816	17.05
820.99	17.37
821.165	15.15
821.339	14.78
821.514	15.58
821.688	15.36
821.863	14.37
822.037	14.5
822.212	15.34
822.386	16.04
822.56	12.96
822.735	14.08
822.909	12.3
823.084	14.17
823.258	17.04
823.432	13.78
823.606	14.51
823.781	12.31
823.955	8.79
824.129	5.8
824.303	5.54
824.478	11.15
824.652	3.66
824.826	4.16
825	8.5
825.174	5.83
825.348	5.48
825.523	6.89
825.697	9.55
825.871	10.4
826.045	13.44
826.219	13.39
826.393	10.47
826.567	12.94
826.741	14.09
826.915	7.25
827.089	6.16
827.263	9.18
827.437	6.69
827.611	5.71
827.784	5.72
827.958	-2.1
828.132	-3.4
828.306	-5.97
828.48	-6.01
828.654	-3.15
828.827	7.33
829.001	3.47
829.175	-4.84
829.349	2.38
829.522	6.25
829.696	6.1
829.87	10.19
830.044	6.06
830.217	15.31
830.391	8.3
830.565	4.64
830.738	-1.9
830.912	9.89
831.085	25.11
831.259	8.02
831.432	9.87
831.606	1.31
831.779	7.6
831.953	5.83
832.126	7.49
832.3	8.45
832.473	6.46
832.647	2.13
832.82	-3.43
832.994	-4.18
833.167	1.66
833.34	1.39
833.514	4.35
833.687	2
833.86	7.26
834.034	9.42
834.207	13.21
834.38	12.64
834.553	16.14
834.727	18.26
834.9	14.58
835.073	18.01
835.246	20.9
835.419	27.64
835.593	26.55
835.766	25.29
835.939	10.84
836.112	3.32
836.285	5.64
836.458	9.42
836.631	19.22
836.804	16.34
836.977	4.27
837.15	5.4
837.323	-7.8
837.496	-12.28
837.669	-21.24
837.842	-9.85
838.015	2.21
838.188	0.57
838.361	-12.85
838.533	-12.71
838.706	-12.29
838.879	-1.44
839.052	-19.35
839.225	-19.25
839.398	-20.52
839.57	-1.54
839.743	-2.51
839.916	8.46
840.088	-2.4
840.261	0.6
840.434	-11.55
840.607	-5.43
840.779	0.27
840.952	7.77
841.124	5.91
841.297	10.62
841.47	5.37
841.642	10.13
841.815	-12.53
841.987	3.34
842.16	-4.46
842.332	-0.69
842.505	-4.7
842.677	-2.94
842.85	2.41
843.022	-2.21
843.194	-5.58
843.367	-14.95
843.539	-15.77
843.712	-7.82
843.884	-11.65
844.056	-9.16
844.229	-30.42
844.401	-52.61
844.573	-52.65
844.745	-37.3
844.918	-31.24
845.09	-30.68
845.262	-57.95
845.434	-90.82
845.606	-92.31
845.779	-183.08
845.951	-160.96
846.123	-154.49
846.295	-100.5
846.467	-143.02
846.639	-368.75
846.811	-563.64
846.983	-559.35
847.155	-450.66
847.327	-124.69
847.499	-193.56
847.671	-57.35
847.843	-135.64
848.015	-93.65
848.187	-134.39
848.359	-456.18
848.531	-400
848.703	-137.2
848.875	-395.97
849.047	-360.78
849.218	-501.69
849.39	-159.53
849.562	-517.31
849.734	-131.79
849.905	-84.88
850.077	-154.25
850.249	-66.32
850.421	-59.08
850.592	-80.65
850.764	-35.06
850.936	4.46
851.107	-5.63
851.279	-17.65
851.451	-2.15
851.622	1.15
851.794	-1.94
851.965	14.57
852.137	18.47
852.308	26.97
852.48	19.9
852.651	25.13
852.823	-9.52
852.994	-6.51
853.166	9.04
853.337	25.78
853.509	39.38
853.68	33.42
853.851	46.93
854.023	46.94
854.194	42.5
854.365	62.69
854.537	45.99
854.708	27.15
854.879	33.1
855.05	23.42
855.222	21.93
855.393	9.59
855.564	-11.9
855.735	-26.38
855.906	-59.35
856.078	-106.57
856.249	-225.75
856.42	-157.64
856.591	-80.67
856.762	-127.16
856.933	-141.1
857.104	-88.29
857.275	-172.87
857.446	-104.02
857.617	-123.32
857.788	-66.07
857.959	-23.21
858.13	-7.3
858.301	-47.86
858.472	-23.85
858.643	-34.67
858.814	-4.48
858.985	-12.18
859.155	-16.2
859.326	-13.61
859.497	14.08
859.668	11.55
859.839	-7.66
860.009	-10.13
860.18	4.44
860.351	-18.62
860.522	-27.89
860.692	-51.78
860.863	-95.62
861.034	-61.09
861.204	-79.66
861.375	-99.8
861.546	-134.63
861.716	-131.15
861.887	-85.82
862.057	-88.31
862.228	-73.8
862.398	-38.26
862.569	-50.1
862.739	0.39
862.91	-20.09
863.08	4.95
863.251	-2.96
863.421	0.32
863.592	-11.29
863.762	-20.81
863.932	5.69
864.103	13.79
864.273	11.7
864.443	10.54
864.614	9.49
864.784	19.21
864.954	15.73
865.125	29.87
865.295	39.31
865.465	49.44
865.635	47.4
865.805	38.26
865.976	26.82
866.146	31.95
866.316	26.51
866.486	26.74
866.656	32.17
866.826	33.8
866.996	27.72
867.166	24.42
867.336	16.86
867.506	34.86
867.676	24.54
867.846	61.34
868.016	45.98
868.186	78.64
868.356	20.19
868.526	-141.67
868.696	-1400
868.866	154.12
869.036	-115.6
869.206	-258.06
869.376	-731.71
869.545	-136.67
869.715	-259.86
869.885	-207.3
870.055	-70.11
870.224	-40.58
870.394	-47.27
870.564	-62.65
870.734	-58.49
870.903	-113.36
871.073	-35.86
871.243	-15.59
871.412	-41.52
871.582	-25.81
871.751	-99.61
871.921	-75.45
872.091	-23.98
872.26	-25.9
872.43	-26.15
872.599	4.11
872.769	18.12
872.938	-9.16
873.108	-37.24
873.277	-36.54
873.446	-50.68
873.616	-30.77
873.785	-40.74
873.955	-44.79
874.124	-21.6
874.293	-21.87
874.463	-30.56
874.632	-64.29
874.801	-27.4
874.971	-16.98
875.14	-15.33
875.309	-10.01
875.478	-19
875.647	-19.43
875.817	-3.58
875.986	-23.97
876.155	-16
876.324	16.03
876.493	28.65
876.662	4.32
876.831	16.29
877	3.77
877.17	1
877.339	28.17
877.508	26.19
877.677	31.19
877.846	34.91
878.015	41.72
878.184	41.8
878.352	36.64
878.521	34.43
878.69	27.82
878.859	28.98
879.028	45.33
879.197	43.45
879.366	38.1
879.534	18.33
879.703	5.83
879.872	4.43
880.041	-0.22
880.21	-3.83
880.378	-0.52
880.547	2.17
880.716	6.84
880.884	0.3
881.053	-4.5
881.222	-2.84
881.39	-2.28
881.559	1.07
881.727	1.94
881.896	-0.37
882.065	2.86
882.233	-3.84
882.402	-8.22
882.57	-9.69
882.739	-12.94
882.907	-22.12
883.076	-26.17
883.244	-14.73
883.412	-5.66
883.581	-7.55
883.749	-11.83
883.918	-21.97
884.086	-15.69
884.254	-29.66
884.423	-45.45
884.591	-37.94
884.759	-55.14
884.927	-57.48
885.096	-99.43
885.264	-127.27
885.432	-159.82
885.6	-112.19
885.769	-67.82
885.937	-73.79
886.105	-26.32
886.273	-4.26
886.441	-31.55
886.609	8.84
886.777	-1.08
886.945	-3.92
887.113	-12.61
887.281	-0.97
887.449	-25.44
887.617	-25.41
887.785	-20.92
887.953	-1.1
888.121	2.2
888.289	-3.3
888.457	0.48
888.625	21.46
888.793	42.49
888.961	38.47
889.129	31.07
889.296	39.25
889.464	27.99
889.632	23.35
889.8	1.6
889.967	-23.53
890.135	20.08
