Data from JASIL_3082_Reflection_02.txt Node
Date: Mon Nov 09 11:59:45 EST 2015
User: Geneva
Spectrometer: USB4E03002
Autoset integration time: false
Trigger mode: 4
Integration Time (sec): 1.000000E-1
Scans to average: 10
Electric dark correction enabled: false
Nonlinearity correction enabled: false
Boxcar width: 5
Stray light correction enabled: false
XAxis mode: Wavelengths
Stop averaging: false
Number of Pixels in Spectrum: 3648
>>>>>Begin Spectral Data<<<<<
177.575	-106.3
177.794	1184.21
178.014	-253.06
178.233	-17.34
178.452	26.81
178.672	131.02
178.891	123.17
179.11	418.75
179.33	300
179.549	132.23
179.768	209.9
179.987	122.46
180.207	94.32
180.426	94.33
180.645	134.58
180.864	67.99
181.084	21.32
181.303	15.17
181.522	-20.93
181.741	-1845.45
181.96	69.74
182.179	233.85
182.398	55.9
182.618	19.78
182.837	17.65
183.056	109.52
183.275	177.78
183.494	11.59
183.713	125
183.932	-472.73
184.151	-86.93
184.37	-13.11
184.589	18.33
184.808	-0.2
185.027	3.71
185.246	-0.75
185.465	39.29
185.684	76.87
185.903	180.85
186.122	196.23
186.341	390.7
186.56	934.21
186.779	-258.45
186.998	-441.57
187.216	-1220
187.435	-113.04
187.654	2000
187.873	23.53
188.092	-84
188.311	34.71
188.53	1.86
188.748	-11.36
188.967	45.36
189.186	21.68
189.405	17.38
189.623	57.37
189.842	80.53
190.061	86.38
190.28	97.24
190.498	366.67
190.717	148.12
190.936	139.17
191.154	58.66
191.373	-28.7
191.592	33.57
191.81	100
192.029	32.04
192.248	45.82
192.466	63.5
192.685	74.22
192.904	41.13
193.122	48.96
193.341	69.19
193.559	91
193.778	118.77
193.996	141.79
194.215	184.08
194.433	298.73
194.652	240.4
194.87	251.27
195.089	297.61
195.307	737.11
195.526	998.15
195.744	1337.14
195.963	355.94
196.181	476.34
196.399	219.85
196.618	166.95
196.836	133.41
197.055	127.4
197.273	154.14
197.491	155.25
197.71	122.77
197.928	143.27
198.146	158.14
198.365	193.76
198.583	239.4
198.801	202.19
199.019	226.29
199.238	616.67
199.456	752.29
199.674	1629.17
199.892	-6418.18
200.111	-863.64
200.329	25300
200.547	429.55
200.765	240.59
200.983	208.56
201.202	273.14
201.42	207.94
201.638	144.32
201.856	116.28
202.074	77.58
202.292	84.52
202.51	87.44
202.728	63.65
202.946	78.88
203.165	83.58
203.383	86.36
203.601	44.19
203.819	39.47
204.037	41.7
204.255	38.5
204.473	93.08
204.691	60.7
204.909	128.08
205.127	128.43
205.345	103.23
205.562	92.52
205.78	55.46
205.998	87.65
206.216	124.72
206.434	110.24
206.652	111.34
206.87	96.02
207.088	99.4
207.306	59.15
207.523	47.95
207.741	83.2
207.959	533.33
208.177	-321.88
208.395	618.75
208.612	1233.33
208.83	273.17
209.048	294.17
209.266	14233.33
209.483	-493.18
209.701	-177.95
209.919	-151.16
210.136	-211.01
210.354	1114.52
210.572	1398.04
210.79	-506.96
211.007	-828.12
211.225	-204.81
211.442	-67.44
211.66	-73.26
211.878	-15.87
212.095	1414.52
212.313	-1084.62
212.53	-2133.33
212.748	1001.11
212.966	2505.71
213.183	-6450
213.401	565.73
213.618	499.1
213.836	1039.25
214.053	719.55
214.271	1680.77
214.488	40.19
214.705	43.37
214.923	95.16
215.14	46.52
215.358	54.52
215.575	91.93
215.793	71.31
216.01	-12.21
216.227	34.15
216.445	70.9
216.662	22.22
216.879	-131.41
217.097	-140.27
217.314	-217.86
217.531	367.05
217.749	1206.25
217.966	-3320
218.183	30500
218.4	-227.78
218.618	452.94
218.835	-1444.12
219.052	-256.65
219.269	-215.08
219.487	-244.32
219.704	-2244
219.921	-534.85
220.138	444.74
220.355	1130.65
220.572	363.38
220.79	273.68
221.007	336.45
221.224	298.59
221.441	175.69
221.658	114.35
221.875	110.26
222.092	100.64
222.309	173.33
222.526	126.54
222.743	90.27
222.96	73.53
223.177	71.98
223.394	22.62
223.611	30.78
223.828	56.11
224.045	66.67
224.262	42.41
224.479	53.9
224.696	26.69
224.913	24.04
225.13	7.44
225.347	22.3
225.564	3.44
225.781	11.08
225.997	-0.6
226.214	-2.06
226.431	8.06
226.648	13.04
226.865	6.51
227.082	9.28
227.298	6.24
227.515	5.87
227.732	11.42
227.949	16.85
228.165	21.25
228.382	27.27
228.599	32.13
228.816	30.01
229.032	30.28
229.249	35.4
229.466	47.53
229.682	47.17
229.899	47.8
230.116	49.11
230.332	46.59
230.549	41.34
230.765	42.04
230.982	38.88
231.199	40.24
231.415	37.28
231.632	44.94
231.848	27.68
232.065	36.35
232.281	41.71
232.498	23.92
232.714	21.47
232.931	17.28
233.147	8.43
233.364	10.31
233.58	18.01
233.797	17.12
234.013	13.78
234.23	16.26
234.446	18.8
234.662	19.29
234.879	17.52
235.095	14.69
235.312	20.48
235.528	29.43
235.744	24.98
235.961	17.6
236.177	39.06
236.393	38.81
236.61	38.65
236.826	26.04
237.042	25.85
237.258	25.31
237.475	25.86
237.691	39.48
237.907	27.37
238.123	41.94
238.339	41.16
238.556	29.58
238.772	28.65
238.988	27.23
239.204	25.08
239.42	29.74
239.636	32.87
239.853	25.32
240.069	18.1
240.285	17.51
240.501	12.29
240.717	13.47
240.933	15.14
241.149	9.75
241.365	12.83
241.581	13.06
241.797	13.11
242.013	12.62
242.229	16.93
242.445	14.3
242.661	17.7
242.877	16.68
243.093	12.81
243.309	8.4
243.525	12.3
243.741	6.57
243.957	4.03
244.173	1.88
244.388	1.45
244.604	1.24
244.82	4.65
245.036	4.23
245.252	5.09
245.468	3.21
245.683	2.96
245.899	7.6
246.115	7.88
246.331	10.45
246.547	10.43
246.762	11.21
246.978	10.21
247.194	9.34
247.409	6.87
247.625	5.9
247.841	7.8
248.057	8.81
248.272	6.18
248.488	1.68
248.703	-3.38
248.919	-4.58
249.135	-3.24
249.35	-2.52
249.566	5
249.782	6.76
249.997	7.12
250.213	9.65
250.428	8.61
250.644	4.86
250.859	10.72
251.075	11.92
251.29	12.32
251.506	7.64
251.721	6.93
251.937	5.17
252.152	10.31
252.368	11.47
252.583	10.14
252.798	16.37
253.014	19.9
253.229	18.11
253.445	15.78
253.66	11.61
253.875	14.36
254.091	17.97
254.306	17.8
254.521	12.31
254.737	9.76
254.952	8.88
255.167	10.31
255.383	6.16
255.598	6.12
255.813	8.67
256.028	11.79
256.244	10.3
256.459	3.71
256.674	3.33
256.889	4.54
257.104	5.13
257.32	10.25
257.535	9.07
257.75	8.4
257.965	7.28
258.18	5.06
258.395	2.02
258.61	3.19
258.826	6
259.041	5.97
259.256	6.74
259.471	6.98
259.686	5.57
259.901	6.22
260.116	7.6
260.331	9.19
260.546	8.97
260.761	11.84
260.976	9.43
261.191	7.49
261.406	7.65
261.621	6.33
261.836	8.86
262.05	1.98
262.265	-0.34
262.48	-1.55
262.695	-3.11
262.91	2.55
263.125	7.45
263.34	11.47
263.555	14.17
263.769	14.9
263.984	15.52
264.199	11.33
264.414	19.44
264.629	17.27
264.843	21.12
265.058	19.14
265.273	18.11
265.488	15.17
265.702	16.61
265.917	16.03
266.132	14.36
266.346	13
266.561	17.66
266.776	17.86
266.99	15.93
267.205	13.76
267.42	13.85
267.634	11.8
267.849	13.31
268.063	9.3
268.278	7.63
268.492	6.57
268.707	5.73
268.922	1.55
269.136	-0.18
269.351	5.08
269.565	7.1
269.78	8.29
269.994	9.19
270.209	8.48
270.423	12.16
270.637	12.06
270.852	10.77
271.066	13.41
271.281	14.93
271.495	14
271.709	13.38
271.924	9.3
272.138	7.67
272.353	8.17
272.567	8.81
272.781	4.18
272.996	5.37
273.21	9.62
273.424	5.79
273.638	2.45
273.853	3.38
274.067	4.02
274.281	5.39
274.495	7.56
274.71	8.91
274.924	6.18
275.138	7.92
275.352	4.91
275.566	3.29
275.781	3.06
275.995	11.24
276.209	11.4
276.423	9.91
276.637	11.31
276.851	9.55
277.065	8.76
277.279	10.63
277.493	10.9
277.707	11.65
277.921	11.58
278.135	13.14
278.349	6.55
278.563	7.02
278.777	8.24
278.991	4.28
279.205	6.37
279.419	4.12
279.633	1.48
279.847	1.68
280.061	3.62
280.275	5.11
280.489	6.12
280.703	5.19
280.917	6.32
281.131	6.02
281.344	7.59
281.558	5.04
281.772	4.66
281.986	7.2
282.2	4.89
282.414	5.06
282.627	2.85
282.841	2.73
283.055	1.82
283.269	1.76
283.482	2.24
283.696	5.37
283.91	7.65
284.123	8.19
284.337	5.61
284.551	7.13
284.764	5.8
284.978	8.22
285.192	6.51
285.405	9.2
285.619	5.65
285.833	3.82
286.046	2.9
286.26	1.08
286.473	-0.25
286.687	1.6
286.9	4.63
287.114	3.83
287.327	0.83
287.541	-1.32
287.754	0.09
287.968	2.51
288.181	4.18
288.395	3.61
288.608	5.28
288.822	4.35
289.035	2.34
289.248	-0.57
289.462	-1.82
289.675	-0.47
289.889	1.88
290.102	-1.45
290.315	0.66
290.529	-2.11
290.742	-2.5
290.955	-4.09
291.169	-0.5
291.382	2.26
291.595	1.61
291.808	3.52
292.022	1.74
292.235	2.89
292.448	3.12
292.661	1.04
292.875	3.94
293.088	2.04
293.301	3.27
293.514	3.33
293.727	4.03
293.94	6.39
294.153	7.31
294.367	8.44
294.58	7.39
294.793	7.68
295.006	7.79
295.219	6.56
295.432	6.51
295.645	6.69
295.858	5.33
296.071	4.84
296.284	3.87
296.497	5.1
296.71	5.58
296.923	7.34
297.136	8.59
297.349	9.87
297.562	10.02
297.775	11.09
297.988	13.35
298.201	13.61
298.414	14.14
298.626	13.9
298.839	12.12
299.052	12.3
299.265	10.04
299.478	9.47
299.691	9.1
299.903	9.44
300.116	10.2
300.329	7.01
300.542	8.28
300.755	9.28
300.967	8.78
301.18	11.15
301.393	10.74
301.605	11.27
301.818	11.03
302.031	10.63
302.243	12.59
302.456	11.5
302.669	12.94
302.881	12.12
303.094	10.11
303.307	12.18
303.519	9.87
303.732	7.62
303.944	9.25
304.157	10.67
304.37	9.34
304.582	5.39
304.795	7.62
305.007	6.44
305.22	11.04
305.432	12.74
305.645	10.27
305.857	10.19
306.069	11.32
306.282	8.57
306.494	6.27
306.707	4.45
306.919	8.02
307.132	5.29
307.344	4.94
307.556	1.23
307.769	-2.58
307.981	-2.16
308.193	-0.33
308.406	2.15
308.618	3.49
308.83	5.17
309.043	6.66
309.255	4.53
309.467	3.93
309.679	5.05
309.892	4.97
310.104	9.51
310.316	9.73
310.528	8.66
310.74	6.6
310.953	4.55
311.165	5.6
311.377	5.8
311.589	8.76
311.801	8.64
312.013	7.7
312.225	7.24
312.437	3.69
312.649	4.6
312.862	2.54
313.074	1.01
313.286	3.29
313.498	2.79
313.71	3.91
313.922	4.24
314.134	7.49
314.346	8.93
314.558	11.57
314.77	13.81
314.982	12.54
315.193	14.3
315.405	15.97
315.617	15.89
315.829	13.24
316.041	15.22
316.253	11.27
316.465	10.97
316.677	10.35
316.888	7.31
317.1	7.84
317.312	7.72
317.524	6.34
317.736	5.46
317.947	6.42
318.159	6.27
318.371	3.92
318.583	7.5
318.794	8.53
319.006	9.19
319.218	10.48
319.43	7.44
319.641	7.3
319.853	11
320.064	13.85
320.276	12.72
320.488	12.98
320.699	11.48
320.911	9.44
321.123	6.76
321.334	5.53
321.546	6.89
321.757	4.8
321.969	6.19
322.18	4.94
322.392	6.39
322.603	5.48
322.815	6.36
323.026	7.77
323.238	8.3
323.449	9.4
323.661	8.81
323.872	6.57
324.083	6.21
324.295	3.88
324.506	2.27
324.718	-0.71
324.929	3.32
325.14	3.71
325.352	3.79
325.563	4.43
325.774	6.34
325.986	6.2
326.197	6.39
326.408	9.1
326.62	11.25
326.831	13.21
327.042	16.4
327.253	13.28
327.464	13.22
327.676	14.54
327.887	12.51
328.098	11.57
328.309	10.35
328.52	12.76
328.732	11.06
328.943	12.36
329.154	11.74
329.365	9.36
329.576	9.73
329.787	8.42
329.998	5.39
330.209	6.51
330.42	4.26
330.631	8.64
330.842	9.22
331.053	11.52
331.264	10.15
331.475	9.76
331.686	10.05
331.897	11.63
332.108	10.62
332.319	10.84
332.53	14.79
332.741	16.71
332.952	14.78
333.163	13.86
333.374	15.52
333.585	17.58
333.795	19.35
334.006	17.6
334.217	17.27
334.428	20.81
334.639	22.38
334.849	19.87
335.06	19.58
335.271	19.29
335.482	16.46
335.692	15.69
335.903	13.34
336.114	12.5
336.325	11.81
336.535	10.68
336.746	7.96
336.957	6.61
337.167	7.58
337.378	7.46
337.589	8.69
337.799	11.59
338.01	9.73
338.22	10.79
338.431	10.06
338.642	10.78
338.852	9.89
339.063	11.34
339.273	11.22
339.484	11.01
339.694	11.11
339.905	11.87
340.115	10.68
340.326	10.49
340.536	8.74
340.746	7.18
340.957	9.14
341.167	10.16
341.378	8.66
341.588	10.44
341.799	8.69
342.009	9.15
342.219	7.59
342.43	8.14
342.64	9.23
342.85	11.55
343.061	12.92
343.271	12.93
343.481	12.8
343.691	12.85
343.902	11.34
344.112	10.2
344.322	10.05
344.532	8.42
344.743	9.22
344.953	8.79
345.163	7.59
345.373	7.93
345.583	6.5
345.793	4.21
346.004	5.05
346.214	5.05
346.424	4.81
346.634	4.9
346.844	9.48
347.054	8.22
347.264	6.54
347.474	4.6
347.684	3.68
347.894	4.3
348.104	5.46
348.314	3.6
348.524	3.94
348.734	5.42
348.944	4.7
349.154	2.28
349.364	3.13
349.574	6.65
349.784	7.85
349.994	7.79
350.204	7.36
350.413	8.29
350.623	9.72
350.833	9.88
351.043	8.98
351.253	9.45
351.463	9.36
351.672	8.82
351.882	7.49
352.092	8.07
352.302	7.74
352.511	7.79
352.721	7.95
352.931	7.22
353.141	6.41
353.35	5.92
353.56	6.42
353.77	6.65
353.979	5.02
354.189	5.03
354.399	5.9
354.608	6.2
354.818	7.92
355.027	8.82
355.237	9.88
355.447	11.06
355.656	11.56
355.866	12.59
356.075	12.83
356.285	14.55
356.494	14.51
356.704	12.6
356.913	12.21
357.123	10.96
357.332	9.49
357.542	8.25
357.751	7.24
357.96	7.01
358.17	5.32
358.379	5.41
358.589	4.58
358.798	5.06
359.007	6.28
359.217	7.81
359.426	8.38
359.635	9.19
359.845	10.08
360.054	9.83
360.263	10.32
360.472	9.66
360.682	8.86
360.891	9.94
361.1	9
361.309	9.05
361.519	8.46
361.728	8.13
361.937	7.04
362.146	5.94
362.355	5.93
362.564	5.49
362.774	4.8
362.983	5.83
363.192	4.64
363.401	5.68
363.61	7.02
363.819	8.97
364.028	9.3
364.237	10.7
364.446	11.18
364.655	11.33
364.864	12.45
365.073	13.71
365.282	13.42
365.491	12.84
365.7	12.51
365.909	12.7
366.118	10.56
366.327	10.76
366.536	10.33
366.745	10.71
366.954	12.56
367.162	13.18
367.371	13.41
367.58	11.96
367.789	13.72
367.998	13.11
368.207	10.78
368.415	11.1
368.624	9.58
368.833	9.43
369.042	8.86
369.25	8.5
369.459	7.54
369.668	7.09
369.877	7.22
370.085	6.93
370.294	6.63
370.503	8.73
370.711	8.3
370.92	9.94
371.129	11.18
371.337	10.9
371.546	9.99
371.754	9.22
371.963	9.42
372.171	11.22
372.38	10.4
372.589	11.52
372.797	9.51
373.006	9.58
373.214	8.62
373.423	8.33
373.631	8.35
373.84	6.24
374.048	6.51
374.256	5.97
374.465	5.14
374.673	6.38
374.882	6.07
375.09	6.34
375.298	5.71
375.507	4.05
375.715	2.9
375.923	3.45
376.132	4.38
376.34	5.58
376.548	4.82
376.757	5.06
376.965	4.54
377.173	4.32
377.381	5.43
377.59	5.76
377.798	7.85
378.006	7.34
378.214	8.69
378.423	9.91
378.631	9.66
378.839	9.94
379.047	9.44
379.255	9.06
379.463	8.69
379.671	9.6
379.879	10.35
380.088	9.76
380.296	10.65
380.504	9.07
380.712	9.43
380.92	6.57
381.128	7.28
381.336	6.99
381.544	6.49
381.752	6.71
381.96	3.97
382.168	3.25
382.376	3.39
382.584	2.19
382.791	2.53
382.999	1.83
383.207	4.44
383.415	3.27
383.623	3.11
383.831	4.65
384.039	5.2
384.247	6.85
384.454	6.48
384.662	6.64
384.87	6.69
385.078	7.38
385.285	6.54
385.493	6.29
385.701	6.62
385.909	6.72
386.116	5.54
386.324	5.31
386.532	5.09
386.739	5.55
386.947	7.02
387.155	7.46
387.362	7.4
387.57	7.89
387.778	7.55
387.985	8.03
388.193	8.91
388.4	9.02
388.608	8.84
388.816	7.24
389.023	9.1
389.231	6.81
389.438	8.22
389.646	8.18
389.853	6.75
390.061	6.65
390.268	7.28
390.475	6.66
390.683	6.18
390.89	5.57
391.098	6.71
391.305	4.45
391.512	4.63
391.72	4.55
391.927	3.38
392.135	4.98
392.342	5.33
392.549	5
392.756	4.52
392.964	5.16
393.171	5.58
393.378	6.22
393.586	8.8
393.793	8.96
394	6.75
394.207	6.22
394.414	6.53
394.622	6.72
394.829	6.15
395.036	7.14
395.243	6.42
395.45	5.45
395.657	4.57
395.864	2.09
396.072	2.94
396.279	4.09
396.486	5.16
396.693	5.72
396.9	5.61
397.107	6.38
397.314	6.96
397.521	6.86
397.728	8.44
397.935	7.94
398.142	7.75
398.349	7.34
398.556	8.3
398.763	8.46
398.97	8.9
399.177	8.95
399.383	8.31
399.59	8.29
399.797	9.38
400.004	8.93
400.211	9.75
400.418	10.94
400.625	9.88
400.831	9.64
401.038	10.29
401.245	9.82
401.452	9.91
401.658	10.56
401.865	10.29
402.072	10.48
402.279	10.05
402.485	9.55
402.692	8.18
402.899	9.68
403.105	9.47
403.312	9.2
403.519	7.55
403.725	6.87
403.932	6.86
404.138	7.14
404.345	6.49
404.552	6.67
404.758	6.57
404.965	7.46
405.171	7.2
405.378	8.2
405.584	7.23
405.791	7.98
405.997	8.26
406.204	8.69
406.41	8.62
406.617	8.53
406.823	8.33
407.029	9.05
407.236	8.78
407.442	8.46
407.649	6.69
407.855	7.73
408.061	7.66
408.268	8.09
408.474	7.27
408.68	6.94
408.887	7.1
409.093	8.18
409.299	7.85
409.505	7.52
409.712	7.57
409.918	8.24
410.124	8.72
410.33	9.29
410.537	9.52
410.743	10.49
410.949	10.88
411.155	10.07
411.361	9.68
411.567	10.38
411.773	11.21
411.98	10.45
412.186	9.89
412.392	8.13
412.598	8.92
412.804	8.85
413.01	8.42
413.216	7.92
413.422	8.97
413.628	8.32
413.834	7.82
414.04	7.29
414.246	7.99
414.452	8.98
414.658	9.86
414.864	8.57
415.07	8.65
415.275	8.34
415.481	9.1
415.687	8.47
415.893	8.91
416.099	9.17
416.305	8.72
416.511	8.14
416.716	7.53
416.922	7.61
417.128	8.31
417.334	7.95
417.539	8.08
417.745	7.15
417.951	7.37
418.157	7.25
418.362	6.88
418.568	6.83
418.774	6.88
418.979	6.77
419.185	6.37
419.391	5.77
419.596	6.18
419.802	6.18
420.008	6.27
420.213	6.24
420.419	6.05
420.624	5.7
420.83	5.7
421.035	6.24
421.241	6.39
421.446	6.62
421.652	7.01
421.857	6.36
422.063	5.67
422.268	5.79
422.474	5.72
422.679	6.09
422.885	6.62
423.09	6.89
423.295	6.68
423.501	6.39
423.706	6.51
423.911	6.23
424.117	6.07
424.322	6.18
424.527	6.35
424.733	6.83
424.938	6.29
425.143	6.58
425.349	6.85
425.554	6.27
425.759	6.97
425.964	6.76
426.169	7.12
426.375	7.46
426.58	8.02
426.785	7.86
426.99	7.3
427.195	7.18
427.4	6.74
427.605	6.57
427.811	6.64
428.016	6.35
428.221	6.73
428.426	6.15
428.631	6.35
428.836	6.26
429.041	6.3
429.246	6.66
429.451	7.38
429.656	7.22
429.861	7.31
430.066	7.55
430.271	7.33
430.476	7.05
430.681	7.08
430.886	6.89
431.09	6.77
431.295	7.04
431.5	7.03
431.705	7.09
431.91	6.98
432.115	6.79
432.32	7.33
432.524	7.07
432.729	7.43
432.934	7.45
433.139	7.55
433.343	7.62
433.548	7.3
433.753	7.74
433.958	7.89
434.162	7.44
434.367	7.26
434.572	6.61
434.776	7.06
434.981	6.81
435.186	6.95
435.39	7.01
435.595	7.22
435.799	7.12
436.004	5.92
436.209	4.94
436.413	5.52
436.618	5.97
436.822	6.07
437.027	6.16
437.231	6.1
437.436	6.41
437.64	6.36
437.845	6.08
438.049	6.64
438.253	7.34
438.458	7.07
438.662	7.38
438.867	7.15
439.071	7.16
439.275	7.03
439.48	7.25
439.684	7.25
439.888	7.34
440.093	7.35
440.297	7.15
440.501	6.97
440.706	7.21
440.91	7.12
441.114	7.52
441.318	8.06
441.523	8.03
441.727	7.72
441.931	7.59
442.135	7.42
442.339	7.8
442.543	7.86
442.748	7.83
442.952	8.42
443.156	8.13
443.36	7.7
443.564	7.31
443.768	7.08
443.972	7.4
444.176	7.34
444.38	7.5
444.584	6.88
444.788	6.43
444.992	6.62
445.196	6.16
445.4	6.04
445.604	6.01
445.808	6.25
446.012	6.49
446.216	6.6
446.42	6.14
446.624	5.73
446.828	6.25
447.032	6.64
447.235	6.71
447.439	7.06
447.643	7.56
447.847	7.75
448.051	7.05
448.254	7.26
448.458	7.17
448.662	8.07
448.866	8.52
449.069	8.77
449.273	8.66
449.477	8.3
449.681	8.83
449.884	9.13
450.088	9.03
450.292	9.76
450.495	9.73
450.699	9.32
450.902	8.33
451.106	7.82
451.31	7.97
451.513	7.99
451.717	8.02
451.92	7.58
452.124	6.8
452.327	6.88
452.531	6.5
452.734	6.19
452.938	6.58
453.141	6.91
453.345	8.23
453.548	7.49
453.752	7.26
453.955	7.22
454.158	7.36
454.362	7.04
454.565	6.67
454.769	6.49
454.972	6.36
455.175	5.91
455.379	6.45
455.582	5.1
455.785	6.01
455.988	5.62
456.192	5.71
456.395	5.38
456.598	5.42
456.801	5.42
457.005	6.2
457.208	6.68
457.411	7.13
457.614	6.43
457.817	7.02
458.021	6.41
458.224	6.65
458.427	6.6
458.63	6.71
458.833	6.89
459.036	7.33
459.239	6.87
459.442	6.59
459.645	6.3
459.848	6.71
460.051	6.3
460.254	6.45
460.457	6.38
460.66	6.71
460.863	6.54
461.066	6.61
461.269	6.16
461.472	7.14
461.675	7.05
461.878	7.52
462.081	8.17
462.284	8.11
462.486	8.02
462.689	8.02
462.892	8.32
463.095	8.82
463.298	9.57
463.5	10.17
463.703	8.98
463.906	9.2
464.109	8.71
464.311	7.84
464.514	8.67
464.717	8.95
464.92	9.44
465.122	8.68
465.325	8.02
465.528	7.67
465.73	6.68
465.933	6.91
466.135	7.04
466.338	7.07
466.541	7.72
466.743	7.26
466.946	6.71
467.148	6.31
467.351	6.16
467.553	6.92
467.756	6.43
467.958	6.92
468.161	7.07
468.363	7.64
468.566	8.19
468.768	8.15
468.971	8.38
469.173	8.81
469.375	8.8
469.578	9.52
469.78	8.9
469.983	9.19
470.185	9.68
470.387	9.26
470.59	8.07
470.792	7.13
470.994	7.32
471.196	6.9
471.399	6.29
471.601	6.29
471.803	6.06
472.005	6.07
472.208	5.76
472.41	5.44
472.612	5.35
472.814	5.84
473.016	5.65
473.218	5.03
473.421	5.36
473.623	5.8
473.825	5.8
474.027	5.7
474.229	5.89
474.431	5.52
474.633	5.93
474.835	6.8
475.037	6.29
475.239	6.41
475.441	5.94
475.643	6.44
475.845	6.45
476.047	6.51
476.249	6.44
476.451	6.81
476.653	7.26
476.855	6.72
477.057	6.63
477.258	6.99
477.46	7.74
477.662	8.27
477.864	8.17
478.066	8.32
478.268	8.11
478.469	8.65
478.671	7.89
478.873	7.73
479.075	7.73
479.276	7.47
479.478	7.32
479.68	6.94
479.882	6.74
480.083	6.58
480.285	6.7
480.487	6.55
480.688	6.23
480.89	6.54
481.091	6.55
481.293	6.49
481.495	6.4
481.696	6.58
481.898	6.53
482.099	6.46
482.301	6.18
482.502	6.01
482.704	6.32
482.905	6.23
483.107	6.21
483.308	6.28
483.51	6.34
483.711	6.39
483.913	6.44
484.114	6.58
484.315	6.59
484.517	6.75
484.718	6.72
484.92	6.5
485.121	6.41
485.322	6.52
485.524	6.37
485.725	6.4
485.926	6.4
486.127	6.18
486.329	6
486.53	5.95
486.731	5.88
486.932	6.06
487.134	6.15
487.335	6.17
487.536	6.06
487.737	6.29
487.938	6.27
488.139	6.17
488.341	6.16
488.542	6.35
488.743	6.48
488.944	6.5
489.145	6.47
489.346	6.37
489.547	6.44
489.748	6.34
489.949	6.42
490.15	6.3
490.351	6.28
490.552	6.46
490.753	6.4
490.954	6.37
491.155	6.28
491.356	6.04
491.557	5.83
491.758	5.96
491.959	6.12
492.159	5.97
492.36	5.95
492.561	5.85
492.762	5.5
492.963	5.51
493.164	5.8
493.364	6.36
493.565	6.95
493.766	7.51
493.967	7.64
494.167	7.38
494.368	7.19
494.569	7.27
494.769	7.87
494.97	7.85
495.171	7.46
495.371	7.38
495.572	7.47
495.773	7.39
495.973	7.6
496.174	7.31
496.375	7.31
496.575	7.79
496.776	7.86
496.976	7.86
497.177	8.05
497.377	8.19
497.578	8.11
497.778	8.02
497.979	7.83
498.179	7.45
498.38	7.49
498.58	7.4
498.78	7.09
498.981	6.94
499.181	6.67
499.382	7.08
499.582	7.23
499.782	6.93
499.983	6.46
500.183	6.62
500.383	6.64
500.584	7.02
500.784	7.33
500.984	7.45
501.184	7.7
501.385	7.61
501.585	7.54
501.785	7.38
501.985	7.92
502.185	8.35
502.386	8.4
502.586	8.65
502.786	8.2
502.986	8.18
503.186	7.61
503.386	7.73
503.586	7.78
503.786	7.34
503.987	6.99
504.187	7.09
504.387	6.68
504.587	6.24
504.787	6.04
504.987	5.95
505.187	6.31
505.387	6.36
505.587	6.33
505.786	6.45
505.986	6.71
506.186	7.1
506.386	7.57
506.586	8.29
506.786	8.85
506.986	8.85
507.186	9.35
507.386	9.16
507.585	9.48
507.785	9.39
507.985	9.8
508.185	9.63
508.384	9.88
508.584	9.64
508.784	8.94
508.984	9.01
509.183	8.84
509.383	8.63
509.583	8.56
509.782	8.87
509.982	9.14
510.182	8.74
510.381	8.9
510.581	8.77
510.781	8.37
510.98	8.54
511.18	7.91
511.379	7.95
511.579	8.28
511.778	8.47
511.978	7.62
512.177	7.39
512.377	7.36
512.576	7.25
512.776	7.12
512.975	6.89
513.175	7.53
513.374	7.94
513.573	8.13
513.773	8.22
513.972	8.13
514.172	8.95
514.371	9.29
514.57	9.48
514.77	9.9
514.969	9.79
515.168	9.99
515.367	9.88
515.567	9.78
515.766	10.05
515.965	9.65
516.164	9.68
516.364	9.47
516.563	9.13
516.762	9.05
516.961	8.62
517.16	9.02
517.359	9.25
517.559	8.89
517.758	8.69
517.957	8.27
518.156	8.62
518.355	8.66
518.554	8.65
518.753	8.37
518.952	7.99
519.151	8.68
519.35	8.83
519.549	8.77
519.748	9.05
519.947	9.14
520.146	9.89
520.345	9.52
520.544	10
520.743	10.27
520.942	11.34
521.141	12.05
521.339	11.74
521.538	11.42
521.737	11.56
521.936	11.59
522.135	12.31
522.333	11.9
522.532	12.18
522.731	11.78
522.93	11.8
523.129	11.35
523.327	11.15
523.526	11.2
523.725	11.45
523.923	11.8
524.122	11.22
524.321	11.02
524.519	10.87
524.718	10.99
524.917	11.17
525.115	11.08
525.314	11.04
525.512	11.07
525.711	11.02
525.909	10.75
526.108	10.49
526.306	10.8
526.505	10.87
526.703	11.21
526.902	11.09
527.1	10.9
527.299	11
527.497	11.02
527.696	11.01
527.894	11.17
528.092	11.25
528.291	11.43
528.489	11.42
528.688	11.27
528.886	11.5
529.084	11.73
529.283	11.9
529.481	11.93
529.679	12.19
529.877	12.84
530.076	12.85
530.274	12.94
530.472	13.04
530.67	13.25
530.869	13.41
531.067	13.04
531.265	12.74
531.463	12.89
531.661	13.12
531.859	12.99
532.057	12.74
532.255	12.91
532.454	12.87
532.652	12.74
532.85	12.55
533.048	12.49
533.246	12.7
533.444	12.87
533.642	13.02
533.84	13
534.038	12.9
534.236	12.86
534.434	12.85
534.632	13.25
534.83	13.34
535.027	13.61
535.225	14.11
535.423	14.06
535.621	14
535.819	13.89
536.017	13.73
536.215	13.86
536.412	13.68
536.61	13.85
536.808	13.85
537.006	13.66
537.203	13.95
537.401	13.94
537.599	13.96
537.797	14.47
537.994	14.79
538.192	14.85
538.39	15.2
538.587	15.64
538.785	15.39
538.983	15.36
539.18	15.5
539.378	15.64
539.575	15.74
539.773	15.86
539.97	15.86
540.168	15.59
540.366	15.92
540.563	15.69
540.761	15.73
540.958	15.82
541.155	16.23
541.353	16.46
541.55	16.49
541.748	16.37
541.945	16.52
542.143	16.73
542.34	17.03
542.537	16.88
542.735	17.37
542.932	17.64
543.129	17.99
543.327	18.13
543.524	18.37
543.721	18.19
543.919	18.11
544.116	18.07
544.313	17.85
544.51	17.92
544.708	18.13
544.905	18.17
545.102	18.52
545.299	18.53
545.496	18.22
545.693	18.17
545.891	18.79
546.088	19.36
546.285	19.5
546.482	20.12
546.679	20.24
546.876	20.37
547.073	20.6
547.27	20.22
547.467	20.18
547.664	20.39
547.861	20.56
548.058	20.67
548.255	20.75
548.452	20.68
548.649	20.57
548.846	20.86
549.043	21.05
549.24	20.95
549.437	21.33
549.633	21.8
549.83	22.52
550.027	22.67
550.224	23.3
550.421	23.32
550.618	23.6
550.814	23.76
551.011	23.65
551.208	23.77
551.405	24.24
551.601	24.49
551.798	24.28
551.995	23.76
552.191	24.21
552.388	23.43
552.585	23.8
552.781	23.98
552.978	23.31
553.175	23.6
553.371	23.63
553.568	23.55
553.764	22.96
553.961	23.43
554.157	23.59
554.354	23.4
554.55	23.69
554.747	23.93
554.943	24
555.14	25.21
555.336	25.47
555.533	25.96
555.729	26.95
555.926	26.95
556.122	26.36
556.318	26.1
556.515	26.09
556.711	25.95
556.907	26
557.104	26.16
557.3	25.89
557.496	26.32
557.693	25.81
557.889	25.27
558.085	25.75
558.281	25.74
558.478	25.86
558.674	25.98
558.87	26.24
559.066	26.21
559.262	26.58
559.459	26.83
559.655	26.44
559.851	26.72
560.047	27.01
560.243	27.69
560.439	28.55
560.635	28.58
560.831	28.73
561.027	28.85
561.223	28.58
561.419	28.62
561.615	28.84
561.811	29.23
562.007	29.67
562.203	29.74
562.399	29.36
562.595	29.28
562.791	29.81
562.987	30.12
563.183	30.19
563.379	30.44
563.575	29.53
563.771	29.44
563.966	29.58
564.162	29.04
564.358	28.75
564.554	28.89
564.75	29.04
564.945	29.63
565.141	29.41
565.337	30.07
565.533	30.09
565.728	30.34
565.924	29.79
566.12	29.77
566.315	29.98
566.511	30.45
566.707	30.46
566.902	29.83
567.098	29.78
567.293	29.85
567.489	29.06
567.684	29.28
567.88	29.92
568.076	30.32
568.271	30.34
568.467	30.99
568.662	30.38
568.858	30.18
569.053	30.54
569.248	30.18
569.444	30.66
569.639	31.26
569.835	31.64
570.03	31.42
570.225	31.82
570.421	31.74
570.616	31.44
570.812	31.76
571.007	31.94
571.202	32.36
571.397	32.66
571.593	32.77
571.788	32.83
571.983	31.94
572.178	32.3
572.374	32.71
572.569	32.5
572.764	32.94
572.959	32.62
573.154	33.13
573.35	33.2
573.545	32.9
573.74	32.71
573.935	32.78
574.13	33.54
574.325	33.2
574.52	33.01
574.715	33.42
574.91	33.6
575.105	33.89
575.3	33.57
575.495	33.51
575.69	33.67
575.885	33.73
576.08	33.67
576.275	33.79
576.47	34.14
576.665	33.92
576.86	34.02
577.055	33.93
577.25	34.75
577.444	34.92
577.639	35.5
577.834	35.55
578.029	35.51
578.224	35.75
578.418	35.77
578.613	36.44
578.808	36.86
579.003	36.85
579.197	36.54
579.392	36.25
579.587	36.27
579.781	36.21
579.976	36.82
580.171	37.47
580.365	38.2
580.56	38.46
580.755	37.99
580.949	38.21
581.144	38.52
581.338	38.77
581.533	39.17
581.727	39.39
581.922	39.15
582.116	39.6
582.311	39.26
582.505	38.83
582.7	38.87
582.894	39.44
583.089	39.79
583.283	39.69
583.478	39.77
583.672	39.79
583.866	39.54
584.061	39.77
584.255	39.68
584.449	40.19
584.644	40.62
584.838	40.54
585.032	40.52
585.226	39.99
585.421	40.83
585.615	40.91
585.809	40.83
586.003	41.21
586.198	41.75
586.392	41.45
586.586	40.75
586.78	40.26
586.974	40.5
587.168	40.01
587.363	40.31
587.557	40.09
587.751	39.27
587.945	38.43
588.139	38.16
588.333	37.26
588.527	37.41
588.721	38.27
588.915	38.77
589.109	38.05
589.303	38.55
589.497	38.69
589.691	38.42
589.885	39.3
590.079	40.2
590.273	40.17
590.466	39.71
590.66	39.21
590.854	38.86
591.048	38.48
591.242	39.93
591.436	39.48
591.629	39.27
591.823	39.73
592.017	39.13
592.211	38.47
592.404	39.22
592.598	39.44
592.792	40.48
592.986	39.96
593.179	39.5
593.373	38.05
593.567	38.43
593.76	38.22
593.954	37.89
594.147	37.95
594.341	38.01
594.535	37.74
594.728	38.47
594.922	38.23
595.115	38.38
595.309	39.29
595.502	40.29
595.696	40.38
595.889	40.72
596.083	40.61
596.276	41.42
596.47	41.77
596.663	41.99
596.856	41.91
597.05	41.36
597.243	42.05
597.437	41.45
597.63	41.14
597.823	40.99
598.017	41.45
598.21	41.77
598.403	41.71
598.596	42.54
598.79	42.27
598.983	42.71
599.176	43.37
599.369	43.28
599.563	44.09
599.756	44.66
599.949	44.77
600.142	44.33
600.335	45.06
600.528	45.34
600.722	44.98
600.915	45.15
601.108	45.2
601.301	45.3
601.494	45.18
601.687	44.69
601.88	44.23
602.073	44.63
602.266	44.17
602.459	43.53
602.652	42.55
602.845	42.52
603.038	42.82
603.231	42.48
603.424	42.33
603.617	41.96
603.809	42.17
604.002	42.7
604.195	42.47
604.388	42.92
604.581	42.56
604.774	43.18
604.966	43.05
605.159	43.19
605.352	43.67
605.545	43.77
605.737	43.86
605.93	43.76
606.123	43.74
606.316	43.44
606.508	43.5
606.701	44.38
606.894	44.72
607.086	45.04
607.279	44.73
607.471	43.73
607.664	44.14
607.857	45.04
608.049	45.66
608.242	45.43
608.434	45.92
608.627	45.81
608.819	45.94
609.012	46.3
609.204	46.58
609.397	46.56
609.589	47.59
609.782	47.35
609.974	47.24
610.166	46.82
610.359	47.75
610.551	48.26
610.743	49.27
610.936	49.83
611.128	50.17
611.32	49.8
611.513	50.43
611.705	50.72
611.897	50.73
612.09	51.28
612.282	51.89
612.474	50.42
612.666	50.7
612.858	50.65
613.051	50.38
613.243	50.89
613.435	51.92
613.627	52.77
613.819	54.01
614.011	53.36
614.203	53.39
614.395	53.87
614.588	54.72
614.78	54.65
614.972	54.18
615.164	53.35
615.356	52.31
615.548	51.8
615.74	51.96
615.932	51.36
616.124	53.25
616.315	53.26
616.507	52.85
616.699	52.79
616.891	53.23
617.083	53.56
617.275	54.07
617.467	55.27
617.659	56.08
617.85	54.67
618.042	54.33
618.234	53.35
618.426	53.38
618.618	54.15
618.809	54.76
619.001	53.56
619.193	53.67
619.384	53.58
619.576	52.59
619.768	52.27
619.959	52.22
620.151	52.44
620.343	53.09
620.534	53.3
620.726	52.84
620.917	52.71
621.109	54.01
621.301	53.89
621.492	55.28
621.684	56.25
621.875	55.83
622.067	56.85
622.258	56.29
622.45	56.64
622.641	55.29
622.832	55.32
623.024	55.12
623.215	55
623.407	54.5
623.598	54.36
623.789	53.58
623.981	53.9
624.172	54.65
624.363	54.47
624.555	53.1
624.746	54.16
624.937	53.37
625.129	53.6
625.32	53
625.511	53.83
625.702	52.8
625.893	52.22
626.085	51.62
626.276	50.54
626.467	51.52
626.658	52.16
626.849	51.88
627.04	51.77
627.231	50.98
627.422	51.96
627.614	52.13
627.805	52.49
627.996	53.5
628.187	54.88
628.378	55.11
628.569	54.68
628.76	55.23
628.951	55.16
629.142	55.57
629.332	57.47
629.523	57.08
629.714	56.15
629.905	57.11
630.096	56.49
630.287	54.5
630.478	54.34
630.669	53.14
630.859	52.42
631.05	52.36
631.241	52.92
631.432	52.26
631.623	51.24
631.813	51.32
632.004	50.63
632.195	51.09
632.385	52.1
632.576	51.72
632.767	53.09
632.957	54.15
633.148	54.25
633.339	53.84
633.529	52.71
633.72	54.2
633.91	54.11
634.101	53.9
634.292	54.35
634.482	55.32
634.673	55.34
634.863	54.96
635.054	54.44
635.244	54.78
635.435	55.18
635.625	56.61
635.815	56.95
636.006	58.03
636.196	58.62
636.387	58.81
636.577	58.7
636.767	60.34
636.958	60.85
637.148	60.66
637.338	61.76
637.529	63.28
637.719	63.54
637.909	63.95
638.099	63.74
638.29	63.71
638.48	63.51
638.67	64.11
638.86	64.8
639.05	64.89
639.241	65.57
639.431	64.01
639.621	63.16
639.811	63.67
640.001	63.49
640.191	63.03
640.381	64.48
640.571	64.08
640.761	63.86
640.951	63.62
641.141	64.08
641.331	63.79
641.521	64.91
641.711	65.19
641.901	64.34
642.091	64.02
642.281	64.97
642.471	64.7
642.661	66.32
642.851	64.87
643.041	64.92
643.231	64.59
643.42	65.86
643.61	66.27
643.8	66
643.99	66.97
644.18	66.54
644.369	65.89
644.559	65.22
644.749	65.01
644.939	66.46
645.128	65.33
645.318	66.03
645.508	66.19
645.697	66.64
645.887	65.75
646.076	63.81
646.266	63.22
646.456	62.56
646.645	62.01
646.835	61.44
647.024	60.56
647.214	61.68
647.403	61.8
647.593	59.81
647.782	58.5
647.972	58.76
648.161	59.66
648.351	59.28
648.54	60.04
648.73	59.8
648.919	60.42
649.108	61.09
649.298	60.72
649.487	59.35
649.677	60.64
649.866	61.53
650.055	61.73
650.244	62.33
650.434	63.16
650.623	63.12
650.812	63.56
651.002	63.63
651.191	64.02
651.38	64.08
651.569	64.92
651.758	65.14
651.947	66.72
652.137	66.35
652.326	67.33
652.515	67.51
652.704	66.57
652.893	66.96
653.082	66.29
653.271	66.64
653.46	65.41
653.649	65.17
653.838	64.76
654.027	62.6
654.216	63.99
654.405	61.96
654.594	62.56
654.783	63.62
654.972	64.37
655.161	64.61
655.35	63.11
655.539	64.1
655.728	64.68
655.916	64.19
656.105	64.52
656.294	63.84
656.483	64.31
656.672	62.88
656.86	62.78
657.049	61.99
657.238	61.77
657.427	62.2
657.615	61.89
657.804	60.84
657.993	61.12
658.181	59.99
658.37	60.79
658.559	60.91
658.747	61.85
658.936	61.72
659.125	59.56
659.313	59.29
659.502	60.14
659.69	60.58
659.879	62.52
660.067	62.78
660.256	64.08
660.444	62.66
660.633	62.38
660.821	62.6
661.01	63.88
661.198	66.53
661.387	66.8
661.575	67.39
661.763	68.82
661.952	68.51
662.14	69.1
662.328	69.42
662.517	70.63
662.705	71.93
662.893	72.51
663.082	72.18
663.27	73.2
663.458	74.56
663.646	73.16
663.834	71.86
664.023	70.54
664.211	68.87
664.399	68.68
664.587	68.72
664.775	68.17
664.963	67.7
665.152	67.72
665.34	67.18
665.528	67.36
665.716	67.94
665.904	68.45
666.092	69.47
666.28	71.27
666.468	72.72
666.656	73.09
666.844	73.91
667.032	72.55
667.22	73.28
667.408	72.75
667.596	72.45
667.784	72.74
667.971	72.35
668.159	73
668.347	73.32
668.535	72.54
668.723	71.31
668.911	70.64
669.098	71.35
669.286	71.14
669.474	71
669.662	72.93
669.849	73.82
670.037	74.04
670.225	74.89
670.413	74.42
670.6	74.22
670.788	77.27
670.976	77.75
671.163	78.8
671.351	79.22
671.538	80.03
671.726	77.7
671.913	76.17
672.101	77.21
672.289	75.83
672.476	76.22
672.664	78.23
672.851	76.58
673.039	77.97
673.226	78.13
673.413	78.5
673.601	78.75
673.788	80
673.976	80.69
674.163	79.33
674.35	79.03
674.538	78.45
674.725	77.33
674.912	77.14
675.1	75.95
675.287	76.79
675.474	76.19
675.662	75.69
675.849	75.32
676.036	75.41
676.223	75.89
676.411	75.33
676.598	76.16
676.785	76.35
676.972	75.5
677.159	75.37
677.346	73.85
677.533	73.84
677.721	75.01
677.908	72.83
678.095	72.3
678.282	71.05
678.469	70.94
678.656	70.89
678.843	70.99
679.03	70.54
679.217	68.81
679.404	69.26
679.591	69.1
679.778	67.81
679.964	68.54
680.151	68.53
680.338	69.74
680.525	70.5
680.712	70.63
680.899	69.46
681.086	69.75
681.272	71.22
681.459	71.29
681.646	72.38
681.833	72.56
682.02	73.04
682.206	72.95
682.393	73.48
682.58	73.64
682.766	72.69
682.953	73.38
683.14	74.41
683.326	74.62
683.513	74.58
683.7	74.02
683.886	75.77
684.073	74.98
684.259	74.87
684.446	72.91
684.632	71.91
684.819	71.59
685.005	71.06
685.192	68.78
685.378	68.23
685.565	67.41
685.751	65.17
685.938	63.16
686.124	63.44
686.31	63.2
686.497	64.37
686.683	63.47
686.87	64.07
687.056	64.55
687.242	65.3
687.429	65.2
687.615	66.05
687.801	66.45
687.987	67.65
688.174	67.75
688.36	67.55
688.546	69.69
688.732	70.41
688.918	70.12
689.105	69.73
689.291	68.79
689.477	68.74
689.663	67.47
689.849	67.9
690.035	66.7
690.221	66.88
690.407	69.12
690.593	67.94
690.779	68.41
690.965	69.15
691.151	70.67
691.337	72.82
691.523	74.08
691.709	73.46
691.895	73.1
692.081	75.17
692.267	72.22
692.453	68.95
692.639	69.48
692.825	69.88
693.011	69.38
693.196	67.08
693.382	67.62
693.568	66.12
693.754	69.11
693.94	71.74
694.125	72.55
694.311	76.07
694.497	79.33
694.682	78.51
694.868	79.79
695.054	78.57
695.239	79.87
695.425	77.98
695.611	79.28
695.796	77.35
695.982	74.56
696.168	73.81
696.353	71.56
696.539	69.72
696.724	68.23
696.91	65.09
697.095	66.33
697.281	64.96
697.466	65
697.652	64.66
697.837	63.97
698.023	64.44
698.208	62.91
698.393	64.27
698.579	63.94
698.764	63.82
698.949	65.73
699.135	65.14
699.32	66.98
699.505	68.49
699.691	67.82
699.876	69.51
700.061	70.41
700.246	70.97
700.432	70.78
700.617	71.57
700.802	73.47
700.987	75.65
701.172	78.34
701.358	80.32
701.543	80.79
701.728	82.19
701.913	83.45
702.098	84.17
702.283	84.04
702.468	85.84
702.653	86.26
702.838	86.35
703.023	86.39
703.208	85.17
703.393	83.91
703.578	83.84
703.763	83.21
703.948	82.79
704.133	81.87
704.318	82.94
704.503	82.01
704.688	81.33
704.873	79.56
705.057	78.92
705.242	79.7
705.427	79.79
705.612	81.61
705.797	83.35
705.981	83.92
706.166	85.88
706.351	88.62
706.536	87.61
706.72	89.31
706.905	91.07
707.09	91.99
707.274	90.51
707.459	90.34
707.644	89.18
707.828	88.73
708.013	89.1
708.197	86.42
708.382	85.79
708.567	85.71
708.751	87.16
708.936	87.67
709.12	85.86
709.305	85.43
709.489	84.3
709.673	82.94
709.858	82.01
710.042	80.63
710.227	82.04
710.411	82.06
710.596	84.01
710.78	82.13
710.964	80.84
711.149	81.07
711.333	83.25
711.517	84.65
711.702	85.91
711.886	84.75
712.07	85.32
712.254	83.22
712.438	81.86
712.623	81.22
712.807	81.3
712.991	81.83
713.175	82.11
713.359	78.86
713.544	77.94
713.728	78.1
713.912	78.23
714.096	79.39
714.28	80.65
714.464	77.57
714.648	78.49
714.832	78.04
715.016	77.21
715.2	75.25
715.384	76.4
715.568	76.48
715.752	75.56
715.936	76.22
716.12	72.44
716.304	71.14
716.488	73.49
716.671	71.88
716.855	68.95
717.039	66.67
717.223	67.94
717.407	66.11
717.59	65.43
717.774	63.71
717.958	63.64
718.142	64.5
718.325	64.73
718.509	64.98
718.693	66.67
718.877	70.14
719.06	74.56
719.244	77.35
719.428	82.36
719.611	82.94
719.795	84.54
719.978	85.79
720.162	90.26
720.345	91.38
720.529	93.24
720.713	89.03
720.896	86.48
721.08	86.27
721.263	84.68
721.446	81.5
721.63	79.41
721.813	78.84
721.997	78.27
722.18	75.07
722.364	75.11
722.547	73.39
722.73	75.8
722.914	77.9
723.097	75.93
723.28	75.26
723.464	74.71
723.647	76.44
723.83	78.57
724.013	79.5
724.197	82.45
724.38	84.2
724.563	84.74
724.746	84.72
724.929	83.08
725.112	85.8
725.296	86.69
725.479	87.19
725.662	85.47
725.845	82.53
726.028	81.61
726.211	80.48
726.394	77.32
726.577	74.85
726.76	73.66
726.943	72.67
727.126	70.74
727.309	70.62
727.492	72.06
727.675	75.19
727.858	74.77
728.041	74.81
728.224	73.51
728.407	73.48
728.589	76.83
728.772	77.17
728.955	77.95
729.138	75.78
729.321	75.8
729.503	76.32
729.686	74.87
729.869	78.6
730.052	78.44
730.234	79.44
730.417	80.85
730.6	80.41
730.782	80.37
730.965	83.4
731.148	86.18
731.33	86.66
731.513	85.92
731.695	86.77
731.878	85.35
732.061	84.78
732.243	85.54
732.426	87.78
732.608	89.25
732.791	93.03
732.973	93.26
733.156	91.9
733.338	91.37
733.52	90.78
733.703	91.3
733.885	93.55
734.068	96.66
734.25	97.37
734.432	98.12
734.615	96.93
734.797	95.42
734.979	96.69
735.162	100.43
735.344	102.48
735.526	104.72
735.708	104.34
735.891	102.78
736.073	100.3
736.255	98.22
736.437	95.52
736.619	96
736.802	95.82
736.984	94.11
737.166	91.15
737.348	91.53
737.53	91.05
737.712	89.57
737.894	91.38
738.076	95.25
738.258	98.3
738.44	99.89
738.622	102.93
738.804	107.82
738.986	115.3
739.168	115.87
739.35	114.82
739.532	112.77
739.714	115.6
739.896	116.05
740.078	113.45
740.259	112.18
740.441	115.63
740.623	113.81
740.805	113.67
740.987	109.29
741.168	109.64
741.35	111.5
741.532	113.87
741.714	115.95
741.895	121.37
742.077	122.86
742.259	122.34
742.44	117.06
742.622	118.17
742.804	114.8
742.985	117.54
743.167	121.04
743.348	120.97
743.53	126.69
743.711	122.21
743.893	113.88
744.075	115.4
744.256	118.43
744.438	122.21
744.619	122.36
744.8	124.1
744.982	121.25
745.163	121.99
745.345	121.01
745.526	118.34
745.707	119.71
745.889	124.88
746.07	123.4
746.252	124.02
746.433	125.94
746.614	126.67
746.795	124.31
746.977	123.19
747.158	122.56
747.339	118.97
747.52	119.46
747.702	120.65
747.883	115.84
748.064	116.06
748.245	113.69
748.426	108.36
748.607	105.97
748.788	109.24
748.97	113.86
749.151	115.28
749.332	116.55
749.513	124.12
749.694	123.57
749.875	124.96
750.056	121.52
750.237	126.74
750.418	129.69
750.599	128.11
750.78	127.69
750.96	124.98
751.141	128.04
751.322	131.11
751.503	124.13
751.684	126.6
751.865	131.2
752.046	135.65
752.226	133.81
752.407	135.78
752.588	128.08
752.769	121.97
752.949	120.81
753.13	120.42
753.311	124.49
753.492	125.99
753.672	120.29
753.853	119.05
754.034	120.66
754.214	118.96
754.395	119.45
754.575	124.07
754.756	125.36
754.937	125.5
755.117	124.54
755.298	126.59
755.478	122.14
755.659	132.28
755.839	124.66
756.02	123.97
756.2	124.15
756.381	117.48
756.561	119.65
756.741	122.21
756.922	114.91
757.102	109.7
757.283	106.3
757.463	104.96
757.643	97.14
757.823	97.63
758.004	89.43
758.184	83.29
758.364	81.24
758.545	78.06
758.725	73.24
758.905	76.22
759.085	73.67
759.265	69.5
759.446	71.03
759.626	72
759.806	76.33
759.986	81.96
760.166	85.14
760.346	84.95
760.526	87.86
760.706	84.88
760.886	84.29
761.066	85.84
761.246	84.09
761.426	82.57
761.606	76.51
761.786	72.5
761.966	71.08
762.146	69.33
762.326	72.19
762.506	68.82
762.686	70.56
762.866	69.81
763.046	68.12
763.225	69.43
763.405	69.84
763.585	74.18
763.765	78.7
763.945	82.56
764.124	85.35
764.304	84.65
764.484	94.35
764.664	99.1
764.843	105.38
765.023	111.88
765.203	113.48
765.382	119.12
765.562	120.06
765.741	122.38
765.921	125.34
766.101	132.17
766.28	133.94
766.46	130.02
766.639	129.61
766.819	127.46
766.998	126.32
767.178	129.03
767.357	127.3
767.537	131.39
767.716	134.11
767.896	137.68
768.075	137.29
768.254	136.53
768.434	132.91
768.613	133.96
768.792	138.56
768.972	148.2
769.151	147.58
769.33	147.77
769.51	144.89
769.689	143.4
769.868	139.82
770.047	135.51
770.226	137.86
770.406	149.57
770.585	149.01
770.764	145.65
770.943	140.47
771.122	142.03
771.301	137.37
771.48	141.41
771.66	147.88
771.839	154.4
772.018	160.19
772.197	164.89
772.376	159.74
772.555	164.56
772.734	165.33
772.913	171.8
773.092	169.58
773.271	177.07
773.449	186.08
773.628	172.12
773.807	175.04
773.986	177.05
774.165	168.09
774.344	171.68
774.523	171.61
774.701	166.37
774.88	157.92
775.059	160.46
775.238	159.2
775.417	156.59
775.595	157.28
775.774	142.02
775.953	140.14
776.131	145.02
776.31	137.82
776.489	137.41
776.667	141.71
776.846	142.75
777.025	135.8
777.203	136.27
777.382	136.66
777.56	139.08
777.739	151.94
777.917	156.94
778.096	156.48
778.274	165.11
778.453	159.86
778.631	175.51
778.81	177.73
778.988	186.2
779.166	185.74
779.345	186.6
779.523	183.3
779.702	177.59
779.88	172.95
780.058	177.98
780.237	176.18
780.415	175.48
780.593	157
780.771	166.45
780.95	163.2
781.128	160.15
781.306	154.61
781.484	153.13
781.662	158.63
781.841	161.31
782.019	158.59
782.197	164.3
782.375	171.64
782.553	179.05
782.731	172.77
782.909	176.9
783.087	179.12
783.265	211.92
783.443	209.2
783.621	193.89
783.799	191.61
783.977	193.91
784.155	179.37
784.333	184.23
784.511	181.04
784.689	174.43
784.867	167.34
785.045	174.63
785.223	147.92
785.4	148.7
785.578	148.18
785.756	144.68
785.934	133.72
786.112	130.19
786.289	118.93
786.467	112.68
786.645	114.69
786.823	122.86
787	128.4
787.178	136.11
787.356	137.43
787.533	137.77
787.711	138.86
787.889	149.43
788.066	154.25
788.244	151.68
788.421	163.48
788.599	160.81
788.776	153.69
788.954	140.97
789.131	130.52
789.309	123.25
789.486	118.21
789.664	122.28
789.841	120.39
790.019	129.78
790.196	131.14
790.373	129.12
790.551	131.13
790.728	130.37
790.906	132.7
791.083	132.26
791.26	137.92
791.437	140.98
791.615	129.76
791.792	136.61
791.969	130.8
792.146	141.02
792.324	139.07
792.501	135.95
792.678	132.74
792.855	135.4
793.032	142.96
793.209	148.51
793.387	153.01
793.564	152.8
793.741	143.31
793.918	133.67
794.095	132.25
794.272	131.52
794.449	134
794.626	133.05
794.803	131.38
794.98	127.13
795.157	128.45
795.334	124.37
795.511	129.36
795.688	129.39
795.864	131.7
796.041	133.58
796.218	138.45
796.395	133.01
796.572	130.27
796.749	135.42
796.925	129.16
797.102	129.91
797.279	141.39
797.456	137.95
797.632	141.51
797.809	146.09
797.986	141.64
798.162	131.98
798.339	131.07
798.516	133.13
798.692	126.34
798.869	134.01
799.046	131.65
799.222	120.66
799.399	115.08
799.575	114.62
799.752	112.67
799.928	113.78
800.105	117.6
800.281	121.79
800.458	125.35
800.634	131.27
800.811	125.32
800.987	130.17
801.163	131.32
801.34	142.91
801.516	139.2
801.692	149.9
801.869	147.38
802.045	147.66
802.221	146.36
802.398	143.03
802.574	141.97
802.75	149.83
802.926	150.91
803.103	158.37
803.279	151.11
803.455	165.34
803.631	159.32
803.807	147.13
803.983	159.33
804.16	159.46
804.336	164.89
804.512	145.99
804.688	148.8
804.864	135.63
805.04	132.2
805.216	129.84
805.392	124.94
805.568	127.01
805.744	145.66
805.92	130.49
806.096	123.96
806.272	131.14
806.448	153.96
806.623	150.87
806.799	158.08
806.975	140.53
807.151	159.4
807.327	153.2
807.503	174.85
807.678	174.88
807.854	199.88
808.03	198.41
808.206	189.24
808.381	160.07
808.557	178.04
808.733	179.12
808.908	196.58
809.084	187.37
809.26	190.34
809.435	160.28
809.611	162.28
809.787	148.42
809.962	143.41
810.138	138.84
810.313	147.04
810.489	128.77
810.664	125.18
810.84	138.35
811.015	115.91
811.191	113.23
811.366	104.8
811.542	102.07
811.717	106.76
811.892	115.7
812.068	116.36
812.243	114.06
812.419	116.6
812.594	111.07
812.769	96.45
812.944	97.5
813.12	111.18
813.295	124.48
813.47	126.48
813.645	117.33
813.821	120.82
813.996	107.81
814.171	109.44
814.346	110.19
814.521	120.05
814.697	124.06
814.872	123.11
815.047	107.33
815.222	111.37
815.397	103.38
815.572	97.68
815.747	94.91
815.922	100.07
816.097	110.45
816.272	101.44
816.447	89.71
816.622	87.17
816.797	94.71
816.972	97.76
817.147	91.09
817.322	90.7
817.496	98.76
817.671	97.17
817.846	92.19
818.021	81.37
818.196	88.34
818.371	85.95
818.545	86.87
818.72	87.75
818.895	81.13
819.069	82.79
819.244	76.82
819.419	71.88
819.594	65.26
819.768	60.77
819.943	60.85
820.117	54.26
820.292	53.91
820.467	52.35
820.641	48.88
820.816	46.29
820.99	44.61
821.165	45.49
821.339	45.23
821.514	44.46
821.688	45.36
821.863	44.53
822.037	45.11
822.212	44.91
822.386	46.47
822.56	46.07
822.735	47.21
822.909	49.53
823.084	49.76
823.258	51.81
823.432	56.52
823.606	60.22
823.781	59.7
823.955	65.59
824.129	70.19
824.303	63.62
824.478	65.29
824.652	69.08
824.826	70.76
825	72.74
825.174	70.12
825.348	66.76
825.523	64.58
825.697	67.39
825.871	62.73
826.045	61.96
826.219	63.1
826.393	65.88
826.567	64.11
826.741	60.14
826.915	59.03
827.089	58.63
827.263	64.25
827.437	64.18
827.611	61.02
827.784	61.33
827.958	67.3
828.132	71.78
828.306	74.05
828.48	78.7
828.654	88.95
828.827	85.58
829.001	88.23
829.175	88.88
829.349	94.26
829.522	105.83
829.696	118.28
829.87	116.63
830.044	133.33
830.217	127.78
830.391	139.91
830.565	143.84
830.738	152.78
830.912	143.62
831.085	121.26
831.259	125.79
831.432	113.74
831.606	102.63
831.779	93.55
831.953	81.86
832.126	74.9
832.3	73.66
832.473	72.3
832.647	74.19
832.82	73.31
832.994	72.45
833.167	73.49
833.34	78.27
833.514	79.5
833.687	84.7
833.86	88.17
834.034	98.86
834.207	99.72
834.38	100.08
834.553	102.33
834.727	102.83
834.9	106.39
835.073	102.04
835.246	102.85
835.419	104.26
835.593	112.31
835.766	105
835.939	94.26
836.112	96.87
836.285	108.21
836.458	96.46
836.631	111.83
836.804	93
836.977	95.59
837.15	103.96
837.323	93.13
837.496	73.29
837.669	95.22
837.842	97.74
838.015	94.41
838.188	84.6
838.361	87.11
838.533	86.38
838.706	90.72
838.879	92.2
839.052	78.66
839.225	99.39
839.398	105.95
839.57	94.52
839.743	108.11
839.916	106.23
840.088	122.3
840.261	130.12
840.434	138.04
840.607	161.03
840.779	157.59
840.952	166.3
841.124	134.25
841.297	134.26
841.47	162.63
841.642	148.06
841.815	144.46
841.987	120.84
842.16	115.38
842.332	132.3
842.505	136.97
842.677	135.09
842.85	149.18
843.022	157.84
843.194	146.33
843.367	144.59
843.539	145.19
843.712	142.04
843.884	151.41
844.056	219.96
844.229	194.19
844.401	182.61
844.573	198.68
844.745	186.31
844.918	202.88
845.09	246.73
845.262	213.56
845.434	233.19
845.606	218.77
845.779	278.37
845.951	172.37
846.123	129.56
846.295	121.89
846.467	115.22
846.639	106.36
846.811	108.56
846.983	102.88
847.155	107.19
847.327	117.01
847.499	144.69
847.671	174.41
847.843	447.89
848.015	1616.13
848.187	-1333.33
848.359	1652.63
848.531	-1350
848.703	19633.33
848.875	-721.28
849.047	1015.96
849.218	395.18
849.39	355.28
849.562	277.27
849.734	237.54
849.905	476.65
850.077	525.77
850.249	517.04
850.421	1933.33
850.592	751.7
850.764	901.42
850.936	4712
851.107	19533.33
851.279	1042.52
851.451	453.75
851.622	482.39
851.794	312.03
851.965	282.01
852.137	241
852.308	189.72
852.48	193.7
852.651	163.96
852.823	171.71
852.994	142.72
853.166	162.55
853.337	177.68
853.509	151.35
853.68	140
853.851	142.7
854.023	168.43
854.194	190.83
854.365	216.15
854.537	188
854.708	155.42
854.879	227.08
855.05	208.5
855.222	218.96
855.393	354.23
855.564	253.05
855.735	257.74
855.906	355.03
856.078	281.66
856.249	293.83
856.42	267.41
856.591	285.87
856.762	276.19
856.933	333.1
857.104	309.34
857.275	312.54
857.446	333.11
857.617	242.71
857.788	263.52
857.959	241.34
858.13	240.68
858.301	284.56
858.472	249.79
858.643	197.61
858.814	208.22
858.985	250
859.155	265.92
859.326	288.56
859.497	928.57
859.668	264.15
859.839	339.06
860.009	347.85
860.18	363.39
860.351	347.55
860.522	415.32
860.692	396.36
860.863	271.35
861.034	191.1
861.204	168.96
861.375	144.79
861.546	200.76
861.716	221.05
861.887	207.59
862.057	219.57
862.228	185.53
862.398	216.19
862.569	200.74
862.739	171.86
862.91	159.88
863.08	231.45
863.251	313.08
863.421	320.43
863.592	241.54
863.762	261.63
863.932	385.71
864.103	-290.7
864.273	-707.14
864.443	-251.67
864.614	-38.94
864.784	-35.49
864.954	-516.67
865.125	2185.71
865.295	-2.99
865.465	-152.63
865.635	-1437.5
865.805	240.51
865.976	-5633.33
866.146	-595.45
866.316	-1120
866.486	1078.57
866.656	-292.11
866.826	-123.19
866.996	-830.77
867.166	448.95
867.336	722.08
867.506	797.14
867.676	315.79
867.846	225.86
868.016	275.78
868.186	243.49
868.356	192.58
868.526	147.7
868.696	202.2
868.866	265.57
869.036	652.6
869.206	310.68
869.376	363.8
869.545	5310.53
869.715	2534.21
869.885	499.03
870.055	368.13
870.224	1012.79
870.394	-1854.76
870.564	1074.63
870.734	730
870.903	239.69
871.073	325.9
871.243	239.71
871.412	150.58
871.582	160.32
871.751	183.64
871.921	184.49
872.091	139.2
872.26	138.57
872.43	191.17
872.599	230.37
872.769	178.42
872.938	138.38
873.108	116.65
873.277	116.67
873.446	107.1
873.616	112.61
873.785	114.6
873.955	151.53
874.124	151.34
874.293	142.63
874.463	110.01
874.632	139.68
874.801	198.77
874.971	290.46
875.14	286.34
875.309	332.06
875.478	539.38
875.647	496.3
875.817	287.38
875.986	226.09
876.155	169.08
876.324	187.63
876.493	184.44
876.662	160.2
876.831	144.85
877	165.67
877.17	168.72
877.339	159.14
877.508	160.43
877.677	154
877.846	156.96
878.015	152.85
878.184	101.73
878.352	114.23
878.521	82.64
878.69	68.09
878.859	25.63
879.028	30.77
879.197	29.8
879.366	32.73
879.534	29.12
879.703	34.46
879.872	39.15
880.041	51.86
880.21	53.77
880.378	62.04
880.547	66.6
880.716	62.53
880.884	65.93
881.053	68.68
881.222	68.01
881.39	68.21
881.559	68.34
881.727	64.53
881.896	60.18
882.065	59.43
882.233	59.58
882.402	59.12
882.57	61.38
882.739	55.82
882.907	50.74
883.076	55.51
883.244	64.74
883.412	69.7
883.581	78.39
883.749	73.11
883.918	66.85
884.086	79.66
884.254	91.67
884.423	100.83
884.591	114.45
884.759	137.66
884.927	151.62
885.096	117.67
885.264	136.92
885.432	173.37
885.6	188.32
885.769	240.22
885.937	175.39
886.105	155.71
886.273	170.66
886.441	169.19
886.609	290.08
886.777	176.8
886.945	-157.95
887.113	-73.1
887.281	-14050
887.449	-181.48
887.617	0
887.785	-213.22
887.953	-231.88
888.121	-263.82
888.289	-177.19
888.457	-780.82
888.625	-22700
888.793	2670
888.961	6850
889.129	759.18
889.296	249.43
889.464	583.33
889.632	184.03
889.8	124.18
889.967	225.56
890.135	110.91
