Data from JASIL_3053_Reflection_02.txt Node
Date: Mon Nov 09 11:22:18 EST 2015
User: Geneva
Spectrometer: USB4E03002
Autoset integration time: false
Trigger mode: 4
Integration Time (sec): 1.000000E-1
Scans to average: 10
Electric dark correction enabled: false
Nonlinearity correction enabled: false
Boxcar width: 5
Stray light correction enabled: false
XAxis mode: Wavelengths
Stop averaging: false
Number of Pixels in Spectrum: 3648
>>>>>Begin Spectral Data<<<<<
177.575	141.67
177.794	1211.11
178.014	-9000
178.233	-137.74
178.452	77.92
178.672	370.59
178.891	-422.22
179.11	-383.56
179.33	-504.69
179.549	3384.62
179.768	790.62
179.987	112.2
180.207	1128.57
180.426	-352.94
180.645	20.11
180.864	168.28
181.084	213.24
181.303	-34800
181.522	-375
181.741	-565.79
181.96	-289.51
182.179	-78.41
182.398	-45.93
182.618	-51.49
182.837	-80.15
183.056	-42.52
183.275	-23.44
183.494	-3.89
183.713	-41.88
183.932	-22.19
184.151	-2.75
184.37	-3.54
184.589	376.27
184.808	320
185.027	295.51
185.246	283.15
185.465	231.78
185.684	-104.41
185.903	-410.61
186.122	-11.07
186.341	-155.84
186.56	-100
186.779	-81.42
186.998	-28.48
187.216	-9.49
187.435	16.59
187.654	16.51
187.873	7.55
188.092	11.98
188.311	41.58
188.53	44.4
188.748	69.68
188.967	78.84
189.186	81.33
189.405	72.77
189.623	111.6
189.842	3.64
190.061	19.33
190.28	-18.22
190.498	-31.15
190.717	-30.99
190.936	-4.33
191.154	64.77
191.373	3833.33
191.592	-16500
191.81	352.5
192.029	284.62
192.248	-193.41
192.466	-107.32
192.685	365.91
192.904	136.84
193.122	209.09
193.341	359.32
193.559	-1647.37
193.778	-628.95
193.996	-8360
194.215	375.86
194.433	2219.05
194.652	1952.38
194.87	457.83
195.089	437.93
195.307	558.06
195.526	3971.43
195.744	148.86
195.963	-2925
196.181	-129.11
196.399	-153.21
196.618	-128.79
196.836	-103.95
197.055	-44.81
197.273	-126.24
197.491	-115.14
197.71	-68.65
197.928	-90.18
198.146	-170.95
198.365	-111.89
198.583	-164.96
198.801	-196.55
199.019	-58.33
199.238	-6.33
199.456	39.92
199.674	60.65
199.892	62.23
200.111	-125
200.329	22.34
200.547	255.32
200.765	383.33
200.983	-179.22
201.202	181.25
201.42	67.92
201.638	34.9
201.856	53.72
202.074	55.39
202.292	50.27
202.51	70.26
202.728	77.6
202.946	137.37
203.165	157.66
203.383	297.5
203.601	350.89
203.819	286.43
204.037	241.1
204.255	201.79
204.473	407.23
204.691	973.17
204.909	-1081.25
205.127	813.79
205.345	641.18
205.562	358.96
205.78	1507.41
205.998	-836.84
206.216	-382.93
206.434	-140.48
206.652	-227.73
206.87	-191.25
207.088	-84.03
207.306	-579.17
207.523	34.86
207.741	51.57
207.959	67.11
208.177	10.86
208.395	-2000
208.612	118.4
208.83	97.18
209.048	-6.9
209.266	-3.17
209.483	13.11
209.701	183.82
209.919	51.68
210.136	47.47
210.354	251.9
210.572	34.29
210.79	-70.18
211.007	60.98
211.225	120.88
211.442	59.63
211.66	65.47
211.878	73.94
212.095	509.91
212.313	1353.42
212.53	653.85
212.748	696.32
212.966	945.28
213.183	-805.51
213.401	2889.19
213.618	-658.82
213.836	-263.01
214.053	-192.54
214.271	-216.99
214.488	38.68
214.705	69.52
214.923	-22.15
215.14	34.19
215.358	48.72
215.575	39.85
215.793	37.26
216.01	76.15
216.227	95.66
216.445	118.71
216.662	44.83
216.879	-6.45
217.097	-15.88
217.314	47.13
217.531	-118
217.749	-148.15
217.966	-6.77
218.183	12.11
218.4	202.82
218.618	-3566.67
218.835	-103.8
219.052	-164.58
219.269	-59.02
219.487	30.77
219.704	-130.1
219.921	-177.68
220.138	369.88
220.355	-1525
220.572	-83.33
220.79	98.8
221.007	-8.96
221.224	-33.58
221.441	-50.67
221.658	-78.26
221.875	35
222.092	-46.84
222.309	-48.28
222.526	-1666.67
222.743	-481.82
222.96	288.04
223.177	-1193.75
223.394	-988.46
223.611	240.7
223.828	298.88
224.045	224.21
224.262	142.5
224.479	-226.42
224.696	315.79
224.913	20.66
225.13	8.12
225.347	31.75
225.564	52.68
225.781	48.16
225.997	30.89
226.214	36.06
226.431	25.2
226.648	11.37
226.865	16.35
227.082	6.74
227.298	15.4
227.515	18.01
227.732	19.1
227.949	18.5
228.165	19.07
228.382	19.3
228.599	15.82
228.816	13.12
229.032	13.95
229.249	11.1
229.466	16.87
229.682	8.1
229.899	9.54
230.116	5.14
230.332	-9.03
230.549	-46.81
230.765	-63.38
230.982	-53
231.199	-37.34
231.415	-25.88
231.632	-68.54
231.848	-31.52
232.065	-37.46
232.281	-56.34
232.498	-68.51
232.714	-53.29
232.931	-31.49
233.147	-32.02
233.364	-18.2
233.58	-32.49
233.797	-23.81
234.013	-23.33
234.23	-29.87
234.446	-23.13
234.662	1.03
234.879	-2.09
235.095	-7.34
235.312	8.82
235.528	20.66
235.744	12.49
235.961	24.41
236.177	4.45
236.393	26.28
236.61	28.08
236.826	26.08
237.042	11.05
237.258	29.52
237.475	51.49
237.691	41.92
237.907	23.13
238.123	18.29
238.339	25.48
238.556	36.2
238.772	30
238.988	30.22
239.204	34.55
239.42	27.07
239.636	23.61
239.853	12.55
240.069	22.26
240.285	22.35
240.501	19.66
240.717	10.91
240.933	-0.84
241.149	-4.12
241.365	-7.61
241.581	-8.84
241.797	-3.96
242.013	-9.96
242.229	-8.72
242.445	-5.01
242.661	-8.93
242.877	-4.3
243.093	2.59
243.309	5.05
243.525	15.51
243.741	17.03
243.957	21.83
244.173	18.03
244.388	24.17
244.604	20.69
244.82	9.35
245.036	7.83
245.252	5.68
245.468	4.79
245.683	5.88
245.899	3.44
246.115	3.13
246.331	1.37
246.547	2.37
246.762	-0.13
246.978	-0.97
247.194	0.89
247.409	2.95
247.625	1.9
247.841	1.64
248.057	3.13
248.272	1.34
248.488	-4.18
248.703	-7.47
248.919	-14.43
249.135	-23.06
249.35	-32.57
249.566	-28.35
249.782	-40.71
249.997	-23.59
250.213	-26.65
250.428	-25.41
250.644	-20.15
250.859	-11.33
251.075	-15.06
251.29	-15.57
251.506	-9.62
251.721	-3.1
251.937	-3.11
252.152	-0.25
252.368	-14.1
252.583	-8.13
252.798	-8.7
253.014	-6.78
253.229	-8.16
253.445	-3.7
253.66	-4.5
253.875	4.2
254.091	-1.89
254.306	-11.77
254.521	-13.07
254.737	-1.15
254.952	-7.4
255.167	-9.68
255.383	-26.32
255.598	-24.53
255.813	-25.31
256.028	-20.25
256.244	-19.54
256.459	-11.51
256.674	-3.85
256.889	-0.83
257.104	-2.1
257.32	1.13
257.535	1.96
257.75	5.99
257.965	7.44
258.18	7.49
258.395	6.45
258.61	7.08
258.826	6.54
259.041	6.84
259.256	5.92
259.471	6.16
259.686	5.88
259.901	6.43
260.116	7.2
260.331	2.96
260.546	0.87
260.761	1.39
260.976	-3.53
261.191	-6.3
261.406	-5.28
261.621	-3.91
261.836	-4.02
262.05	-0.51
262.265	-0.46
262.48	-2.42
262.695	0.94
262.91	1.55
263.125	2.63
263.34	11.06
263.555	16.95
263.769	12.96
263.984	7.81
264.199	6.77
264.414	1.21
264.629	-2.08
264.843	-0.85
265.058	-1.16
265.273	3.51
265.488	4.62
265.702	-1.47
265.917	-3.65
266.132	0.77
266.346	5.29
266.561	6.91
266.776	8.53
266.99	9.47
267.205	7.89
267.42	6.29
267.634	6.74
267.849	3.09
268.063	6.98
268.278	8.55
268.492	5.16
268.707	2.29
268.922	2.91
269.136	2.29
269.351	3.93
269.565	6.07
269.78	7.75
269.994	5.7
270.209	8.94
270.423	5.29
270.637	6.1
270.852	5.46
271.066	5.51
271.281	4.43
271.495	2.8
271.709	0.84
271.924	0.89
272.138	1.47
272.353	-1.96
272.567	-5.19
272.781	-0.84
272.996	-3.22
273.21	-3.69
273.424	0.24
273.638	0.05
273.853	-0.22
274.067	1.43
274.281	3.03
274.495	4.76
274.71	7.94
274.924	11.16
275.138	4.38
275.352	3.11
275.566	3.58
275.781	-4.23
275.995	-4.58
276.209	-4.85
276.423	-5.55
276.637	-10.11
276.851	-10.28
277.065	-8.15
277.279	-13.2
277.493	-7.75
277.707	-7.19
277.921	-9.7
278.135	-5.63
278.349	-5.68
278.563	-3.41
278.777	-0.09
278.991	3.82
279.205	0.26
279.419	-3.63
279.633	-1.12
279.847	-0.77
280.061	1.89
280.275	3.11
280.489	5.92
280.703	5.79
280.917	4.74
281.131	5.26
281.344	3.39
281.558	3.63
281.772	4.28
281.986	3.28
282.2	2.98
282.414	-0.59
282.627	-2.17
282.841	-3.74
283.055	-2.49
283.269	-1.24
283.482	-5.1
283.696	-7.13
283.91	-4.58
284.123	-3.31
284.337	-3.96
284.551	-2.29
284.764	-0.85
284.978	1.22
285.192	2.25
285.405	2.69
285.619	4.21
285.833	3.68
286.046	7.69
286.26	7.92
286.473	7.5
286.687	9.77
286.9	7.41
287.114	8.3
287.327	6.95
287.541	4.82
287.754	3.73
287.968	2.36
288.181	6.13
288.395	3.31
288.608	1.79
288.822	3.34
289.035	4.79
289.248	4.75
289.462	4.51
289.675	5.05
289.889	3.7
290.102	1.39
290.315	0.69
290.529	-0.76
290.742	0.6
290.955	1.54
291.169	-1.51
291.382	-2.7
291.595	-1.12
291.808	0.12
292.022	1.41
292.235	1.23
292.448	4.66
292.661	4.24
292.875	2.24
293.088	1.97
293.301	-1.24
293.514	1.63
293.727	1.01
293.94	1.16
294.153	-3.19
294.367	-3.05
294.58	-1.8
294.793	-3.42
295.006	-2.13
295.219	-0.77
295.432	-1.24
295.645	0.05
295.858	-0.97
296.071	-0.89
296.284	-0.42
296.497	0.59
296.71	-0.01
296.923	-0.09
297.136	0.47
297.349	-0.23
297.562	-3.65
297.775	-5.06
297.988	-4.34
298.201	-2.64
298.414	-2.28
298.626	-4.81
298.839	-5.12
299.052	-3.47
299.265	-1.91
299.478	-1.7
299.691	-3.24
299.903	1.05
300.116	4.26
300.329	4.59
300.542	4.3
300.755	2.01
300.967	4.32
301.18	7.08
301.393	4.11
301.605	0.98
301.818	3.25
302.031	0.91
302.243	2.54
302.456	0.76
302.669	1.39
302.881	0.92
303.094	3.59
303.307	4.53
303.519	3.76
303.732	5.19
303.944	7.52
304.157	4.77
304.37	9.39
304.582	10.72
304.795	11.46
305.007	11.8
305.22	10.97
305.432	9.54
305.645	7.44
305.857	3.92
306.069	5.02
306.282	5.77
306.494	5.43
306.707	4.42
306.919	0.99
307.132	-2.71
307.344	-0.59
307.556	-1.74
307.769	-2.27
307.981	-4.96
308.193	-0.87
308.406	-2.89
308.618	-3.69
308.83	-3.71
309.043	-3.86
309.255	0.72
309.467	4.34
309.679	-0.11
309.892	2.71
310.104	1.42
310.316	2.15
310.528	0.79
310.74	3.29
310.953	3.72
311.165	4.23
311.377	4.5
311.589	4.12
311.801	3.34
312.013	3.93
312.225	2.13
312.437	4.68
312.649	8.58
312.862	8.3
313.074	5.75
313.286	6.29
313.498	9.62
313.71	13.32
313.922	8.41
314.134	7.28
314.346	8.51
314.558	4.92
314.77	1.97
314.982	-2.38
315.193	-0.04
315.405	2.17
315.617	2.49
315.829	0.62
316.041	-1.8
316.253	0.45
316.465	1.96
316.677	3.16
316.888	10
317.1	10.97
317.312	13.45
317.524	14.48
317.736	11.98
317.947	9.04
318.159	8.99
318.371	5.64
318.583	6.16
318.794	6.4
319.006	3.72
319.218	0.45
319.43	-0.36
319.641	-0.4
319.853	-5.42
320.064	-4.97
320.276	-3.72
320.488	-8.19
320.699	-6.34
320.911	-10.58
321.123	-11.53
321.334	-14.03
321.546	-12.24
321.757	-11.39
321.969	-14.71
322.18	-13.43
322.392	-12.21
322.603	-11.24
322.815	-7.97
323.026	-7.67
323.238	-6.02
323.449	-1.3
323.661	3.32
323.872	2.68
324.083	5.63
324.295	5.9
324.506	7.5
324.718	7.05
324.929	6.06
325.14	9.05
325.352	11.36
325.563	12.04
325.774	8.4
325.986	7.45
326.197	6.63
326.408	5.14
326.62	5.27
326.831	6.11
327.042	7.04
327.253	5.01
327.464	3.72
327.676	1.86
327.887	3.18
328.098	3.68
328.309	2.02
328.52	2.16
328.732	2.33
328.943	5.19
329.154	4.83
329.365	2.99
329.576	4.76
329.787	4.6
329.998	5.54
330.209	3.7
330.42	-1.14
330.631	-0.39
330.842	-0.15
331.053	-0.93
331.264	-2.92
331.475	-7.47
331.686	-3.68
331.897	0.85
332.108	-1.88
332.319	-3.93
332.53	-3.97
332.741	-0.99
332.952	0.55
333.163	0.54
333.374	1.61
333.585	3.11
333.795	4.43
334.006	2.16
334.217	-0.21
334.428	1.64
334.639	1.3
334.849	3.88
335.06	6.4
335.271	4.08
335.482	3.77
335.692	2.78
335.903	-0.4
336.114	1.35
336.325	5.04
336.535	6.65
336.746	6.5
336.957	7.29
337.167	5.14
337.378	5.07
337.589	5.26
337.799	7.91
338.01	7.09
338.22	5.28
338.431	3.76
338.642	0.71
338.852	-0.31
339.063	1.72
339.273	2.75
339.484	0.94
339.694	0.82
339.905	2.62
340.115	1.35
340.326	1.91
340.536	5.37
340.746	7.08
340.957	6.4
341.167	8.89
341.378	4.22
341.588	4.06
341.799	4.67
342.009	2.07
342.219	0.43
342.43	1.32
342.64	0.64
342.85	-1.11
343.061	-1.58
343.271	0.93
343.481	-0.54
343.691	0.65
343.902	-1.27
344.112	2.1
344.322	4.51
344.532	3.26
344.743	0.12
344.953	0.96
345.163	1.12
345.373	2.25
345.583	-0.3
345.793	-0.73
346.004	-0.73
346.214	0.46
346.424	-4.26
346.634	-7.57
346.844	-4.92
347.054	-3.27
347.264	-0.91
347.474	1.38
347.684	1.62
347.894	3.37
348.104	3.44
348.314	2.75
348.524	1.53
348.734	4.46
348.944	5.56
349.154	7.99
349.364	5.94
349.574	5.02
349.784	4.98
349.994	2.07
350.204	-0.42
350.413	-1.56
350.623	0.06
350.833	1.74
351.043	0.06
351.253	1.8
351.463	-0.84
351.672	2.45
351.882	4.35
352.092	3.97
352.302	4.66
352.511	5.62
352.721	5.09
352.931	3.62
353.141	5.62
353.35	3.44
353.56	3.61
353.77	3.65
353.979	5.06
354.189	1.05
354.399	-0.79
354.608	-0.67
354.818	-0.5
355.027	-1.09
355.237	1.22
355.447	-0.29
355.656	1.13
355.866	0.18
356.075	1.68
356.285	1.03
356.494	1.55
356.704	3.32
356.913	3.61
357.123	4.11
357.332	4.91
357.542	3.64
357.751	2.86
357.96	3.26
358.17	4.03
358.379	3.5
358.589	0.14
358.798	-0.56
359.007	-0.87
359.217	-1.32
359.426	-1.88
359.635	-0.38
359.845	0.2
360.054	1.57
360.263	2.05
360.472	2.2
360.682	1.77
360.891	2.86
361.1	4.4
361.309	5.64
361.519	7.12
361.728	8.14
361.937	6.99
362.146	7.19
362.355	4.67
362.564	4.43
362.774	4.56
362.983	4.57
363.192	5.18
363.401	6.03
363.61	4.02
363.819	3.37
364.028	2.75
364.237	2.36
364.446	1.9
364.655	3.13
364.864	3.42
365.073	1.41
365.282	1.07
365.491	-0.84
365.7	-2.13
365.909	-0.8
366.118	-0.81
366.327	-0.99
366.536	-1.43
366.745	-0.05
366.954	0.26
367.162	2.13
367.371	4.23
367.58	4.69
367.789	6.97
367.998	7.55
368.207	8.39
368.415	8.59
368.624	7.92
368.833	9.65
369.042	8.16
369.25	10.44
369.459	7.6
369.668	8.27
369.877	6.76
370.085	6.89
370.294	4.59
370.503	3.49
370.711	3.67
370.92	3.5
371.129	3.84
371.337	2.82
371.546	-0.84
371.754	-0.11
371.963	-1.77
372.171	0.01
372.38	0.65
372.589	1.26
372.797	1.12
373.006	1.23
373.214	0.94
373.423	1.33
373.631	1.86
373.84	2.5
374.048	2.75
374.256	4.05
374.465	2.16
374.673	1.87
374.882	2.37
375.09	2.17
375.298	1.49
375.507	3.32
375.715	3.9
375.923	4.8
376.132	4.13
376.34	4.55
376.548	3.17
376.757	5.72
376.965	4.24
377.173	3.83
377.381	2.89
377.59	2.91
377.798	2.39
378.006	-1.67
378.214	-1.22
378.423	0.95
378.631	-1.1
378.839	-0.71
379.047	-1.56
379.255	-0.6
379.463	0.27
379.671	0.66
379.879	0.86
380.088	1.64
380.296	3.84
380.504	3.86
380.712	2.94
380.92	3.94
381.128	4.11
381.336	4.05
381.544	4.29
381.752	5.4
381.96	7.19
382.168	6.44
382.376	5.98
382.584	5.8
382.791	5.45
382.999	4.65
383.207	3.84
383.415	3.42
383.623	3.45
383.831	2
384.039	1.54
384.247	0.06
384.454	0.24
384.662	-1.94
384.87	-1.65
385.078	-2.2
385.285	-0.97
385.493	0.57
385.701	1.37
385.909	-0.83
386.116	-0.45
386.324	-1.05
386.532	-3.19
386.739	-3.67
386.947	-2.39
387.155	-2.65
387.362	-2.39
387.57	-2.13
387.778	-3.01
387.985	-3.83
388.193	-2.55
388.4	-2.05
388.608	-1.74
388.816	-1.7
389.023	-1.85
389.231	-1.56
389.438	-2.3
389.646	-3.02
389.853	-3.75
390.061	-3.6
390.268	-2.52
390.475	-3.03
390.683	-2.66
390.89	-3.32
391.098	-1.24
391.305	-1.71
391.512	-1.92
391.72	-0.64
391.927	-0.65
392.135	0.46
392.342	0.42
392.549	0.45
392.756	1.33
392.964	1.44
393.171	0.74
393.378	-0.16
393.586	0.22
393.793	1.5
394	1.15
394.207	0.56
394.414	-0.75
394.622	-0.35
394.829	-0.53
395.036	-0.35
395.243	-0.51
395.45	0.32
395.657	0.98
395.864	1.79
396.072	0.26
396.279	-0.77
396.486	-0
396.693	0.66
396.9	1.62
397.107	1.73
397.314	0.45
397.521	0.92
397.728	1.64
397.935	0.56
398.142	0.3
398.349	1.36
398.556	2.4
398.763	3.03
398.97	2.92
399.177	2.15
399.383	0.69
399.59	1.19
399.797	0.84
400.004	-0.54
400.211	0.78
400.418	0.04
400.625	1.38
400.831	2.39
401.038	3.01
401.245	2.72
401.452	2.49
401.658	2.59
401.865	3.65
402.072	4.31
402.279	5.09
402.485	5.31
402.692	6.72
402.899	4.64
403.105	3.42
403.312	3.2
403.519	3.85
403.725	3.56
403.932	4.29
404.138	3.79
404.345	3.06
404.552	2.19
404.758	1.9
404.965	1.08
405.171	1.26
405.378	0.37
405.584	-0.3
405.791	-0.36
405.997	1.31
406.204	1.49
406.41	1.67
406.617	1.16
406.823	2.68
407.029	1.96
407.236	2.58
407.442	2.41
407.649	3.54
407.855	2.89
408.061	2.01
408.268	1.14
408.474	1.14
408.68	1.99
408.887	1.3
409.093	0.67
409.299	1.63
409.505	1.61
409.712	2.24
409.918	1.07
410.124	1.5
410.33	2.37
410.537	1.69
410.743	1.29
410.949	0.17
411.155	1.26
411.361	0.49
411.567	-0.28
411.773	-1.03
411.98	-1.55
412.186	0.23
412.392	1.61
412.598	1.33
412.804	1.6
413.01	1.61
413.216	1.43
413.422	1.91
413.628	2.46
413.834	3.54
414.04	4.48
414.246	4.53
414.452	4.25
414.658	2.82
414.864	3.5
415.07	3.86
415.275	4.14
415.481	5.12
415.687	4.52
415.893	4.18
416.099	4.66
416.305	4.15
416.511	3.73
416.716	3.01
416.922	3.5
417.128	2.8
417.334	2.83
417.539	2.44
417.745	1.81
417.951	1.91
418.157	2.41
418.362	1.57
418.568	1.9
418.774	1.99
418.979	2.72
419.185	2.32
419.391	2.21
419.596	1.6
419.802	2.02
420.008	2.43
420.213	2.81
420.419	2.93
420.624	2.94
420.83	2.36
421.035	2.73
421.241	2.29
421.446	2.5
421.652	2.72
421.857	3.04
422.063	2.25
422.268	2.25
422.474	2.03
422.679	1.68
422.885	1.79
423.09	1.86
423.295	1.6
423.501	1.63
423.706	1.73
423.911	1.59
424.117	1.45
424.322	1.99
424.527	1.49
424.733	1.48
424.938	1.6
425.143	2.29
425.349	2.41
425.554	2.55
425.759	2.36
425.964	2.24
426.169	2.5
426.375	3.18
426.58	3.36
426.785	3.67
426.99	3.42
427.195	3.53
427.4	1.63
427.605	2.38
427.811	1.8
428.016	1.28
428.221	1.81
428.426	2.07
428.631	2.01
428.836	1.88
429.041	2.26
429.246	2.35
429.451	2.75
429.656	3.3
429.861	2.91
430.066	3.54
430.271	4.34
430.476	3.89
430.681	3
430.886	2.62
431.09	2.42
431.295	2.51
431.5	2.44
431.705	2.41
431.91	3.14
432.115	2.43
432.32	2.48
432.524	2.06
432.729	1.77
432.934	1.77
433.139	1.05
433.343	0.89
433.548	0.38
433.753	0.66
433.958	0.28
434.162	0.2
434.367	1.25
434.572	1.54
434.776	1.51
434.981	1.58
435.186	2.16
435.39	2.91
435.595	2.64
435.799	3.74
436.004	3.36
436.209	3.46
436.413	3.96
436.618	3.67
436.822	3.73
437.027	4.08
437.231	4.14
437.436	3.51
437.64	3.2
437.845	3.23
438.049	2.32
438.253	1.96
438.458	2.06
438.662	1.09
438.867	0.66
439.071	-0.08
439.275	-0.04
439.48	0.39
439.684	0.51
439.888	0.58
440.093	1.34
440.297	1.71
440.501	2.66
440.706	2.19
440.91	2.15
441.114	2.54
441.318	3.13
441.523	2.44
441.727	2.01
441.931	1.64
442.135	1.55
442.339	1.08
442.543	0.68
442.748	0.68
442.952	0.98
443.156	1
443.36	0.85
443.564	0.21
443.768	0.83
443.972	0.68
444.176	1.16
444.38	1.6
444.584	1.4
444.788	1.14
444.992	1.26
445.196	1.48
445.4	1.66
445.604	1.53
445.808	1.28
446.012	1.32
446.216	1.31
446.42	1.62
446.624	1.65
446.828	1.85
447.032	2.1
447.235	1.46
447.439	1.11
447.643	1.58
447.847	1.99
448.051	2.68
448.254	2.75
448.458	3.22
448.662	2.73
448.866	2.68
449.069	2.92
449.273	3.43
449.477	3.89
449.681	4.25
449.884	3.16
450.088	2.52
450.292	2.53
450.495	2.68
450.699	1.85
450.902	2.45
451.106	2.45
451.31	2.33
451.513	2.72
451.717	2.43
451.92	1.96
452.124	2.37
452.327	2.35
452.531	2.46
452.734	2.81
452.938	4.84
453.141	4.46
453.345	4.32
453.548	3.6
453.752	2.6
453.955	2.28
454.158	2.97
454.362	3.34
454.565	3.63
454.769	3.85
454.972	3.27
455.175	1.89
455.379	1.89
455.582	2.05
455.785	2.94
455.988	3.14
456.192	3.42
456.395	3.06
456.598	2.32
456.801	2.83
457.005	3.14
457.208	4.07
457.411	4.29
457.614	4.44
457.817	3.85
458.021	3.51
458.224	3.32
458.427	3.39
458.63	3.37
458.833	3.32
459.036	2.96
459.239	2.67
459.442	1.77
459.645	1.48
459.848	1.4
460.051	1.3
460.254	0.99
460.457	1.09
460.66	0.92
460.863	0.51
461.066	1.38
461.269	1.46
461.472	1.22
461.675	1.61
461.878	2.18
462.081	2.27
462.284	2.37
462.486	2.69
462.689	3.04
462.892	2.8
463.095	2.12
463.298	1.12
463.5	0.95
463.703	1.81
463.906	2.19
464.109	1.42
464.311	1.31
464.514	1.82
464.717	1.87
464.92	1.43
465.122	1.64
465.325	2.77
465.528	2.8
465.73	3.13
465.933	2.42
466.135	1.96
466.338	1.85
466.541	1.28
466.743	1.18
466.946	1.25
467.148	1.43
467.351	2.25
467.553	1.69
467.756	1.79
467.958	1.35
468.161	1.77
468.363	1.35
468.566	1.74
468.768	2.42
468.971	2.25
469.173	1.77
469.375	1.5
469.578	0.04
469.78	0.81
469.983	1.76
470.185	1.39
470.387	0.68
470.59	1.36
470.792	1
470.994	0.93
471.196	1.13
471.399	1.54
471.601	1.52
471.803	2.25
472.005	2.17
472.208	2.09
472.41	1.88
472.612	2.42
472.814	2.03
473.016	2.84
473.218	2.66
473.421	2.37
473.623	1.9
473.825	2.2
474.027	2.32
474.229	1.97
474.431	0.91
474.633	2
474.835	1.22
475.037	1.74
475.239	1.33
475.441	1.34
475.643	0.92
475.845	1.57
476.047	1.61
476.249	1.42
476.451	2.45
476.653	3.24
476.855	2.1
477.057	2.26
477.258	2.07
477.46	2.45
477.662	2.9
477.864	3.72
478.066	3.33
478.268	3.12
478.469	3.17
478.671	2.18
478.873	2.24
479.075	2.87
479.276	2.8
479.478	2.59
479.68	2.02
479.882	1.62
480.083	1.41
480.285	1.5
480.487	1.47
480.688	1.21
480.89	1.33
481.091	0.9
481.293	1.39
481.495	1.68
481.696	1.92
481.898	1.9
482.099	1.67
482.301	1.75
482.502	2.06
482.704	2
482.905	2.05
483.107	2.01
483.308	2.15
483.51	2.01
483.711	1.92
483.913	1.84
484.114	1.76
484.315	1.91
484.517	1.9
484.718	1.64
484.92	1.76
485.121	1.72
485.322	1.72
485.524	1.57
485.725	1.57
485.926	1.74
486.127	1.62
486.329	1.71
486.53	1.85
486.731	2.08
486.932	2.07
487.134	2.14
487.335	2.21
487.536	2.35
487.737	2.41
487.938	2.61
488.139	2.56
488.341	2.75
488.542	2.76
488.743	2.82
488.944	2.72
489.145	2.73
489.346	2.36
489.547	2.47
489.748	2.38
489.949	2.66
490.15	2.35
490.351	2.24
490.552	2
490.753	2.23
490.954	1.91
491.155	1.73
491.356	1.43
491.557	1.95
491.758	1.94
491.959	2.14
492.159	1.71
492.36	1.76
492.561	1.85
492.762	1.87
492.963	1.36
493.164	1.86
493.364	1.7
493.565	2.39
493.766	1.85
493.967	1.92
494.167	1.51
494.368	2.49
494.569	2.73
494.769	2.96
494.97	3.23
495.171	3.52
495.371	3.7
495.572	3.25
495.773	2.9
495.973	2.82
496.174	2.7
496.375	2.51
496.575	1.61
496.776	1.55
496.976	1.51
497.177	1.43
497.377	2.08
497.578	2.01
497.778	2.73
497.979	3
498.179	3.06
498.38	2.67
498.58	3.37
498.78	3.6
498.981	3.46
499.181	3.06
499.382	3.34
499.582	2.53
499.782	1.93
499.983	2
500.183	1.42
500.383	1.21
500.584	1.31
500.784	0.81
500.984	0.67
501.184	0.48
501.385	0.74
501.585	0.72
501.785	1.03
501.985	1.31
502.185	1.55
502.386	2.17
502.586	2.37
502.786	2.57
502.986	2.43
503.186	2.76
503.386	2.57
503.586	2.14
503.786	1.67
503.987	1.63
504.187	1.76
504.387	1.4
504.587	1.41
504.787	1.4
504.987	1.55
505.187	2.43
505.387	2.58
505.587	3.3
505.786	3.93
505.986	4.12
506.186	3.85
506.386	3.28
506.586	3.49
506.786	3.61
506.986	3.42
507.186	3.13
507.386	2.92
507.585	2.52
507.785	2.22
507.985	1.87
508.185	1.88
508.384	1.81
508.584	2.23
508.784	1.87
508.984	1.5
509.183	1.93
509.383	2.19
509.583	1.78
509.782	1.75
509.982	1.63
510.182	1.79
510.381	1.39
510.581	1.81
510.781	1.92
510.98	1.91
511.18	2.02
511.379	2.21
511.579	2.23
511.778	2.21
511.978	2.86
512.177	3.37
512.377	3.49
512.576	3.9
512.776	3.63
512.975	3.46
513.175	3.52
513.374	4.27
513.573	3.75
513.773	3.98
513.972	4.29
514.172	3.95
514.371	3.32
514.57	3.05
514.77	3.47
514.969	4.29
515.168	4.65
515.367	4.5
515.567	4.18
515.766	4.5
515.965	4.32
516.164	4.25
516.364	3.95
516.563	4.14
516.762	4.56
516.961	4.63
517.16	4.11
517.359	4.13
517.559	4.63
517.758	4.61
517.957	4.5
518.156	4.46
518.355	4.69
518.554	4.58
518.753	4.95
518.952	5.02
519.151	4.88
519.35	5.01
519.549	4.91
519.748	4.57
519.947	4.02
520.146	4.4
520.345	4.35
520.544	4.31
520.743	4.97
520.942	4.98
521.141	4.89
521.339	4.94
521.538	5.22
521.737	4.85
521.936	4.62
522.135	5.11
522.333	4.93
522.532	4.88
522.731	5.04
522.93	4.83
523.129	4.54
523.327	4.69
523.526	4.96
523.725	4.56
523.923	4.97
524.122	5.67
524.321	5.35
524.519	5.58
524.718	5.65
524.917	5.17
525.115	5.45
525.314	5.65
525.512	5.93
525.711	5.73
525.909	6.04
526.108	6.12
526.306	6.17
526.505	6.33
526.703	6.52
526.902	6.78
527.1	7.09
527.299	7.2
527.497	7.39
527.696	7.16
527.894	7.31
528.092	7.28
528.291	7.34
528.489	7.34
528.688	7.55
528.886	7.49
529.084	7.57
529.283	7.42
529.481	7.32
529.679	7.06
529.877	6.81
530.076	6.74
530.274	6.73
530.472	7.09
530.67	7.09
530.869	7.32
531.067	7.03
531.265	6.99
531.463	7.18
531.661	7.29
531.859	7.27
532.057	7.62
532.255	7.57
532.454	7.78
532.652	7.51
532.85	7.36
533.048	7.16
533.246	7.49
533.444	7.82
533.642	7.7
533.84	7.72
534.038	8.04
534.236	8.05
534.434	8.11
534.632	7.93
534.83	8.18
535.027	8.52
535.225	8.7
535.423	8.33
535.621	8.21
535.819	8.39
536.017	8.25
536.215	7.78
536.412	8.08
536.61	8.42
536.808	8.3
537.006	7.96
537.203	7.34
537.401	7.07
537.599	7.68
537.797	7.46
537.994	7.62
538.192	7.73
538.39	8.13
538.587	7.77
538.785	7.42
538.983	7.45
539.18	7.7
539.378	8.04
539.575	8.26
539.773	8.14
539.97	8.29
540.168	8.11
540.366	8
540.563	8
540.761	8.1
540.958	8.36
541.155	8.73
541.353	8.59
541.55	8.97
541.748	8.74
541.945	8.73
542.143	8.58
542.34	8.71
542.537	9.11
542.735	9.41
542.932	9.68
543.129	9.63
543.327	9.56
543.524	9.96
543.721	9.47
543.919	9.42
544.116	9.19
544.313	9.31
544.51	9.51
544.708	8.87
544.905	8.69
545.102	8.6
545.299	8.71
545.496	9
545.693	8.82
545.891	9.15
546.088	9.4
546.285	10.06
546.482	9.86
546.679	10.12
546.876	11.24
547.073	11.5
547.27	11.18
547.467	11.11
547.664	10.97
547.861	10.13
548.058	9.97
548.255	9.91
548.452	9.56
548.649	10.34
548.846	10.22
549.043	9.54
549.24	9.94
549.437	10.71
549.633	10.57
549.83	10.72
550.027	11.15
550.224	11.23
550.421	11.45
550.618	11.22
550.814	10.75
551.011	10.22
551.208	10.12
551.405	8.9
551.601	8.85
551.798	9.32
551.995	9.52
552.191	10.6
552.388	10.91
552.585	11.65
552.781	11.81
552.978	11.92
553.175	12.34
553.371	12.34
553.568	13.28
553.764	12.82
553.961	12.29
554.157	12.42
554.354	12.78
554.55	12.47
554.747	12.16
554.943	12.47
555.14	12.11
555.336	11.61
555.533	11.55
555.729	11.46
555.926	12.33
556.122	12.48
556.318	12.46
556.515	12.02
556.711	12.44
556.907	12.43
557.104	12.19
557.3	13.55
557.496	13.64
557.693	13.76
557.889	13.61
558.085	13.09
558.281	13.52
558.478	12.97
558.674	12.42
558.87	12.48
559.066	12.69
559.262	12.59
559.459	11.7
559.655	12.31
559.851	13.17
560.047	14.33
560.243	15.1
560.439	15.05
560.635	14.61
560.831	14.14
561.027	14.33
561.223	13.58
561.419	13.62
561.615	13.71
561.811	13.87
562.007	13.06
562.203	12.09
562.399	11.74
562.595	11.86
562.791	12.85
562.987	13.71
563.183	13.11
563.379	13.61
563.575	13.67
563.771	13.27
563.966	13.31
564.162	13.51
564.358	13.47
564.554	14.04
564.75	13.83
564.945	13.62
565.141	13.02
565.337	12.85
565.533	12.63
565.728	12.08
565.924	12.19
566.12	12.03
566.315	12.45
566.511	12.03
566.707	11.08
566.902	11.08
567.098	10.55
567.293	11.19
567.489	11.08
567.684	11.48
567.88	12.35
568.076	12.69
568.271	12.46
568.467	11.72
568.662	12.13
568.858	11.82
569.053	11.72
569.248	12.76
569.444	12.32
569.639	13.23
569.835	12.51
570.03	12.65
570.225	12.7
570.421	12.71
570.616	13.03
570.812	13.49
571.007	13.87
571.202	13.62
571.397	12.86
571.593	13.46
571.788	12.98
571.983	13.43
572.178	12.92
572.374	13.18
572.569	13.38
572.764	13.49
572.959	13.32
573.154	14.01
573.35	14.6
573.545	14.32
573.74	13.59
573.935	13.46
574.13	12.93
574.325	13.35
574.52	13.14
574.715	13.06
574.91	13.08
575.105	12.61
575.3	12.25
575.495	12.17
575.69	12.27
575.885	12.3
576.08	12.39
576.275	13.13
576.47	12.37
576.665	12.45
576.86	12.7
577.055	12.96
577.25	13.36
577.444	13.52
577.639	13.72
577.834	14.46
578.029	14.81
578.224	15.26
578.418	14.62
578.613	15.84
578.808	15.55
579.003	15.56
579.197	14.8
579.392	14.8
579.587	14.87
579.781	14.61
579.976	14.54
580.171	14.57
580.365	14.3
580.56	14.99
580.755	14.73
580.949	14.93
581.144	14.38
581.338	14.75
581.533	14.79
581.727	14.61
581.922	14.48
582.116	14.7
582.311	14.98
582.505	14.46
582.7	14.35
582.894	14.52
583.089	14.66
583.283	15.38
583.478	15.1
583.672	14.38
583.866	14.63
584.061	14.36
584.255	13.28
584.449	12.91
584.644	13.72
584.838	13.01
585.032	12.3
585.226	11.39
585.421	11.61
585.615	10.87
585.809	11.23
586.003	9.97
586.198	10.65
586.392	11.55
586.586	11.14
586.78	9.98
586.974	10.84
587.168	11.7
587.363	12.87
587.557	12.19
587.751	12.75
587.945	12.36
588.139	13.28
588.333	13.26
588.527	13.11
588.721	13.94
588.915	14.6
589.109	14.7
589.303	14.78
589.497	14.1
589.691	14.46
589.885	15.43
590.079	16.04
590.273	15.7
590.466	15.86
590.66	15.49
590.854	14.64
591.048	14.79
591.242	14.73
591.436	14.33
591.629	15.12
591.823	14.84
592.017	14.91
592.211	15.07
592.404	15.64
592.598	16.09
592.792	16.8
592.986	17.68
593.179	18.18
593.373	17.84
593.567	17.71
593.76	17.88
593.954	17.34
594.147	16.61
594.341	16.35
594.535	15.82
594.728	15.03
594.922	14.02
595.115	14.38
595.309	13.86
595.502	14.22
595.696	14.28
595.889	13.55
596.083	13.69
596.276	13.43
596.47	14.4
596.663	14.03
596.856	14.15
597.05	14.86
597.243	15.01
597.437	14.78
597.63	14.78
597.823	14.51
598.017	14.32
598.21	14.48
598.403	15.07
598.596	14.34
598.79	15.1
598.983	15.12
599.176	15.02
599.369	14.05
599.563	14.11
599.756	13.74
599.949	13.77
600.142	14.2
600.335	14.78
600.528	13.95
600.722	13.47
600.915	13.28
601.108	13.77
601.301	14.05
601.494	14.19
601.687	13.95
601.88	13.74
602.073	13.56
602.266	13.9
602.459	14.29
602.652	14.54
602.845	15.45
603.038	15.23
603.231	15.15
603.424	15.54
603.617	15.23
603.809	15.84
604.002	16.18
604.195	16.33
604.388	16.19
604.581	15.49
604.774	15.85
604.966	15.19
605.159	15.58
605.352	15.45
605.545	15.14
605.737	15.88
605.93	15.56
606.123	15.46
606.316	15.41
606.508	15.65
606.701	15.79
606.894	15.91
607.086	16.23
607.279	16.14
607.471	16.14
607.664	16.14
607.857	15.58
608.049	16.14
608.242	15.99
608.434	16.48
608.627	16.24
608.819	16.15
609.012	15.7
609.204	15.09
609.397	15.38
609.589	15.38
609.782	15.9
609.974	16.19
610.166	17.01
610.359	17.61
610.551	17.08
610.743	16.88
610.936	17.5
611.128	17.15
611.32	17.29
611.513	16.15
611.705	16.34
611.897	14.23
612.09	14.48
612.282	13.3
612.474	12.21
612.666	12.31
612.858	11.96
613.051	11.43
613.243	13.57
613.435	13.11
613.627	13.75
613.819	13.98
614.011	15.18
614.203	14.64
614.395	14.68
614.588	15.85
614.78	16.17
614.972	17.31
615.164	18.08
615.356	17.3
615.548	17.4
615.74	17.82
615.932	17.49
616.124	17
616.315	16.96
616.507	16.58
616.699	15.89
616.891	15.2
617.083	15.1
617.275	14.43
617.467	14.29
617.659	15.61
617.85	16.05
618.042	16.69
618.234	16.99
618.426	17.34
618.618	18.18
618.809	19.59
619.001	20.47
619.193	20.22
619.384	20.51
619.576	21.43
619.768	20.51
619.959	19.95
620.151	19.38
620.343	18.38
620.534	18.77
620.726	17.87
620.917	16.83
621.109	16.81
621.301	16.34
621.492	17.35
621.684	16.42
621.875	17.24
622.067	17.48
622.258	17.36
622.45	18.84
622.641	18.29
622.832	18.48
623.024	18.22
623.215	19.07
623.407	18.1
623.598	16.88
623.789	16.59
623.981	15.34
624.172	15.82
624.363	16.82
624.555	16.01
624.746	16.59
624.937	15.93
625.129	16.42
625.32	15.32
625.511	17.04
625.702	17.57
625.893	17.23
626.085	18.06
626.276	16.72
626.467	16.01
626.658	17.28
626.849	16.59
627.04	16.88
627.231	16.05
627.422	16.42
627.614	16.28
627.805	15.57
627.996	16.47
628.187	16.21
628.378	17.44
628.569	17.16
628.76	16.05
628.951	17.03
629.142	17.61
629.332	17.67
629.523	17.15
629.714	15.53
629.905	16.21
630.096	15.09
630.287	15.03
630.478	14.64
630.669	15.12
630.859	16.29
631.05	15.23
631.241	14.69
631.432	15.54
631.623	15.64
631.813	17.05
632.004	16.73
632.195	15.97
632.385	16.48
632.576	17.44
632.767	18.39
632.957	18.7
633.148	19.23
633.339	19.35
633.529	19.15
633.72	19.13
633.91	19.48
634.101	18.65
634.292	19.93
634.482	19.55
634.673	18.35
634.863	16.39
635.054	16.08
635.244	15.51
635.435	15.72
635.625	15.68
635.815	15.52
636.006	15.17
636.196	16.82
636.387	16.68
636.577	16.85
636.767	17.32
636.958	17.6
637.148	16.62
637.338	16.94
637.529	17.17
637.719	17.2
637.909	17.26
638.099	16.35
638.29	14.16
638.48	14.05
638.67	14.2
638.86	13.82
639.05	14.45
639.241	15.2
639.431	15.19
639.621	15.41
639.811	15.88
640.001	16.37
640.191	17.8
640.381	19.09
640.571	18
640.761	18.47
640.951	19.09
641.141	17.55
641.331	16.52
641.521	16.86
641.711	16.51
641.901	16.45
642.091	17.37
642.281	14.97
642.471	14.3
642.661	15.52
642.851	14.9
643.041	14.46
643.231	15.34
643.42	15.49
643.61	16.26
643.8	17.18
643.99	17.44
644.18	15.79
644.369	16.05
644.559	17.31
644.749	15.86
644.939	15.33
645.128	14.67
645.318	16.6
645.508	16.36
645.697	13.74
645.887	12.5
646.076	11.01
646.266	11.2
646.456	12.24
646.645	11.1
646.835	13.04
647.024	12.74
647.214	13.07
647.403	11.26
647.593	12.56
647.782	14.23
647.972	14.37
648.161	15.95
648.351	16.32
648.54	17.2
648.73	18.44
648.919	18.11
649.108	18.34
649.298	18.62
649.487	20.05
649.677	18.84
649.866	20.34
650.055	20.1
650.244	18.7
650.434	18.71
650.623	18.45
650.812	17.86
651.002	16.15
651.191	16.19
651.38	15.72
651.569	15.21
651.758	15.17
651.947	14.06
652.137	14.06
652.326	14.61
652.515	14.73
652.704	13.41
652.893	13.72
653.082	16.63
653.271	18.04
653.46	19.28
653.649	17.13
653.838	16.81
654.027	15.88
654.216	15.59
654.405	15.38
654.594	14.67
654.783	14.1
654.972	14.23
655.161	13.32
655.35	12.05
655.539	11.3
655.728	13.23
655.916	13.9
656.105	13.74
656.294	14.32
656.483	14.96
656.672	15.08
656.86	16.2
657.049	16.2
657.238	16.13
657.427	16.43
657.615	16.65
657.804	16.42
657.993	16.42
658.181	17.51
658.37	18.06
658.559	17.82
658.747	18.35
658.936	19.76
659.125	19.94
659.313	19.74
659.502	18.4
659.69	17.94
659.879	18.75
660.067	20.09
660.256	19.36
660.444	18.76
660.633	19.2
660.821	19.4
661.01	18.19
661.198	18.35
661.387	17.9
661.575	19.89
661.763	20.7
661.952	20.32
662.14	17.62
662.328	17.81
662.517	18.3
662.705	17.82
662.893	18.6
663.082	18.42
663.27	17.65
663.458	18.16
663.646	17.86
663.834	17.95
664.023	18.28
664.211	21.01
664.399	21.98
664.587	20.38
664.775	21
664.963	18.99
665.152	19.93
665.34	20.52
665.528	21.52
665.716	21.44
665.904	20.77
666.092	19.99
666.28	19.12
666.468	18.97
666.656	21.2
666.844	21.4
667.032	22.8
667.22	22.35
667.408	22.31
667.596	23.46
667.784	22.78
667.971	22.48
668.159	23.12
668.347	22.88
668.535	20.61
668.723	19.1
668.911	18
669.098	18.7
669.286	17.73
669.474	17.96
669.662	16.37
669.849	17.35
670.037	17.33
670.225	15.68
670.413	17.09
670.6	19.37
670.788	19.79
670.976	20.92
671.163	19.67
671.351	20.24
671.538	18.88
671.726	18.16
671.913	18.5
672.101	17.03
672.289	17.51
672.476	15.36
672.664	15.22
672.851	14.93
673.039	14.4
673.226	13.55
673.413	12.8
673.601	13.5
673.788	14.31
673.976	12.69
674.163	15.04
674.35	16.96
674.538	16.04
674.725	15.87
674.912	16.22
675.1	17.85
675.287	18.49
675.474	19.78
675.662	17.8
675.849	18.9
676.036	20.03
676.223	20.83
676.411	18.76
676.598	21.13
676.785	19.89
676.972	19.92
677.159	18.01
677.346	15.52
677.533	14.52
677.721	15.68
677.908	14.12
678.095	12.62
678.282	12.22
678.469	12.52
678.656	11.79
678.843	13.32
679.03	13.71
679.217	13.99
679.404	16.72
679.591	16.78
679.778	16.52
679.964	16.9
680.151	17.31
680.338	18.01
680.525	18.69
680.712	19.48
680.899	17.83
681.086	17.68
681.272	17.73
681.459	16.63
681.646	17.69
681.833	18.45
682.02	18.56
682.206	19.89
682.393	18.6
682.58	18.19
682.766	18.35
682.953	20.09
683.14	19.63
683.326	19.36
683.513	20.03
683.7	19.12
683.886	20.31
684.073	18.15
684.259	17.28
684.446	18.29
684.632	18.46
684.819	18.18
685.005	17.73
685.192	17.9
685.378	18.5
685.565	18.21
685.751	18.47
685.938	17.1
686.124	18.64
686.31	19.65
686.497	17.97
686.683	19.15
686.87	17.85
687.056	17.98
687.242	18.17
687.429	17.99
687.615	18.14
687.801	17.93
687.987	18.45
688.174	18.12
688.36	18.22
688.546	18.84
688.732	17.79
688.918	19.04
689.105	19.42
689.291	19.08
689.477	17.36
689.663	16.13
689.849	16.08
690.035	15.06
690.221	16.38
690.407	14.42
690.593	15.61
690.779	14.75
690.965	14.93
691.151	15.08
691.337	15.92
691.523	15.53
691.709	15.95
691.895	16.42
692.081	17.72
692.267	16.51
692.453	17.13
692.639	16.73
692.825	16.84
693.011	15
693.196	13.45
693.382	13.23
693.568	16.16
693.754	15.85
693.94	15.72
694.125	14.52
694.311	15.22
694.497	15.75
694.682	16.08
694.868	18.61
695.054	21.01
695.239	22.81
695.425	23.85
695.611	22.11
695.796	23.43
695.982	22.44
696.168	23.35
696.353	22.24
696.539	22.9
696.724	21.92
696.91	20.84
697.095	19.99
697.281	19.61
697.466	18.46
697.652	18.83
697.837	16.97
698.023	17.83
698.208	17.71
698.393	18.38
698.579	17.07
698.764	16.44
698.949	16.74
699.135	16.07
699.32	14.8
699.505	15.7
699.691	14.55
699.876	16.87
700.061	17.16
700.246	17.3
700.432	16.45
700.617	17.37
700.802	19.68
700.987	18.88
701.172	20.9
701.358	21.79
701.543	18.92
701.728	20.84
701.913	18
702.098	17.95
702.283	17.18
702.468	16.25
702.653	16.31
702.838	16.62
703.023	15.45
703.208	11.94
703.393	9.16
703.578	12.33
703.763	14.09
703.948	17.37
704.133	16.84
704.318	18.87
704.503	17.96
704.688	19.04
704.873	18.39
705.057	17.27
705.242	18.6
705.427	20.97
705.612	22.77
705.797	20.19
705.981	18.29
706.166	17.4
706.351	17.18
706.536	21.29
706.72	20.87
706.905	22.21
707.09	22.67
707.274	24.31
707.459	26.36
707.644	23.43
707.828	21.91
708.013	22.22
708.197	21.77
708.382	20.59
708.567	18.4
708.751	18.35
708.936	16.79
709.12	17.34
709.305	15.39
709.489	12.61
709.673	15.79
709.858	17.52
710.042	18.59
710.227	21.5
710.411	22.01
710.596	24.49
710.78	24.67
710.964	24
711.149	24.73
711.333	25.32
711.517	25.98
711.702	22.94
711.886	24.92
712.07	24.63
712.254	23.41
712.438	21.89
712.623	18.05
712.807	17.61
712.991	15.96
713.175	16.26
713.359	16.74
713.544	17.67
713.728	18
713.912	15.36
714.096	14.53
714.28	12.65
714.464	13.7
714.648	15.41
714.832	16.06
715.016	18.2
715.2	15.11
715.384	14.1
715.568	12.06
715.752	11.55
715.936	10.82
716.12	12.11
716.304	12.25
716.488	12.84
716.671	13.06
716.855	11.78
717.039	12.08
717.223	13.68
717.407	13.44
717.59	13.27
717.774	15.26
717.958	15.19
718.142	14.68
718.325	15.19
718.509	11.64
718.693	11.46
718.877	11.14
719.06	12.22
719.244	10.34
719.428	13.61
719.611	18.09
719.795	15.82
719.978	16.44
720.162	19.84
720.345	19.05
720.529	22.8
720.713	21.66
720.896	20.37
721.08	16.99
721.263	19.12
721.446	13.94
721.63	12.8
721.813	11.14
721.997	8.26
722.18	6.22
722.364	8.82
722.547	5.82
722.73	7.11
722.914	6.11
723.097	7.76
723.28	7.51
723.464	14.06
723.647	13.59
723.83	16.23
724.013	23.3
724.197	23.44
724.38	21.24
724.563	24.62
724.746	24.85
724.929	28.88
725.112	28.45
725.296	29.38
725.479	24.35
725.662	24.39
725.845	24.23
726.028	21.34
726.211	21.73
726.394	20.27
726.577	17.94
726.76	18.98
726.943	19.56
727.126	19.08
727.309	17.53
727.492	18.17
727.675	15.1
727.858	12.88
728.041	13.35
728.224	10.46
728.407	14.57
728.589	17.78
728.772	16.52
728.955	16.5
729.138	16.27
729.321	16.95
729.503	14.74
729.686	19.57
729.869	22.67
730.052	22.06
730.234	22.27
730.417	20.85
730.6	16.92
730.782	16.19
730.965	16.09
731.148	17.92
731.33	18.08
731.513	21.38
731.695	20.79
731.878	19.25
732.061	22.29
732.243	23.65
732.426	23.31
732.608	25.59
732.791	26.77
732.973	25.01
733.156	25.67
733.338	28.21
733.52	27.26
733.703	25.79
733.885	28.99
734.068	28.5
734.25	28.03
734.432	26.39
734.615	24.07
734.797	25.37
734.979	30.9
735.162	27.64
735.344	24.94
735.526	25.1
735.708	27.85
735.891	25.04
736.073	21.41
736.255	21.06
736.437	27.54
736.619	28.33
736.802	23.92
736.984	18.58
737.166	18.8
737.348	20.76
737.53	23.25
737.712	20.87
737.894	19.4
738.076	18.22
738.258	20.64
738.44	18.07
738.622	18.38
738.804	22.82
738.986	23.77
739.168	24.13
739.35	18.43
739.532	17.24
739.714	16.19
739.896	16.5
740.078	21.51
740.259	20.13
740.441	20.95
740.623	22.54
740.805	18.5
740.987	19.37
741.168	23.19
741.35	29.06
741.532	25.97
741.714	24.57
741.895	25.48
742.077	28.56
742.259	26.65
742.44	26.8
742.622	26.87
742.804	30.53
742.985	29.5
743.167	27.37
743.348	26.5
743.53	28.45
743.711	30.77
743.893	33.97
744.075	35.09
744.256	37.97
744.438	35.61
744.619	34.59
744.8	36.87
744.982	36.4
745.163	33.78
745.345	32.09
745.526	30.83
745.707	33.39
745.889	31.82
746.07	26.35
746.252	25.07
746.433	22.29
746.614	22.64
746.795	19.8
746.977	18.59
747.158	22.09
747.339	25.6
747.52	32.27
747.702	30.03
747.883	29.87
748.064	28.68
748.245	28.65
748.426	31.74
748.607	27.91
748.788	22.09
748.97	22.96
749.151	17.84
749.332	13.93
749.513	11.56
749.694	13.36
749.875	11.88
750.056	13.61
750.237	13.56
750.418	13.69
750.599	20.66
750.78	31.05
750.96	31.46
751.141	36.81
751.322	38.84
751.503	36.4
751.684	35
751.865	37.66
752.046	41.46
752.226	42.41
752.407	41.77
752.588	40
752.769	35.55
752.949	33.12
753.13	33.57
753.311	33.92
753.492	30.26
753.672	27.37
753.853	23.97
754.034	23.36
754.214	25.61
754.395	26.61
754.575	23.26
754.756	22.58
754.937	26.88
755.117	26.69
755.298	26.68
755.478	32.4
755.659	31.45
755.839	31.7
756.02	29.12
756.2	27.03
756.381	23.09
756.561	25.27
756.741	27.37
756.922	18.78
757.102	14.53
757.283	13.92
757.463	10.41
757.643	14.3
757.823	12.76
758.004	7.33
758.184	6.33
758.364	7.15
758.545	7.01
758.725	4.53
758.905	12.01
759.085	11.77
759.265	12.84
759.446	17.6
759.626	20.84
759.806	22.26
759.986	27.82
760.166	28.84
760.346	33.9
760.526	31.81
760.706	33.19
760.886	34.79
761.066	31.81
761.246	33
761.426	28.96
761.606	28.89
761.786	27
761.966	25.43
762.146	26.93
762.326	21.7
762.506	23.4
762.686	22.39
762.866	22.11
763.046	22.63
763.225	22.28
763.405	23.36
763.585	19.83
763.765	22.65
763.945	23.98
764.124	19.06
764.304	22.04
764.484	21.74
764.664	25.91
764.843	21.57
765.023	23.6
765.203	20.29
765.382	19.88
765.562	21.43
765.741	18.19
765.921	19.2
766.101	24.24
766.28	26.45
766.46	28.76
766.639	24.2
766.819	30.26
766.998	38.97
767.178	42.01
767.357	41.88
767.537	43.18
767.716	47.15
767.896	44.47
768.075	45.51
768.254	43.54
768.434	46.12
768.613	43.43
768.792	46.01
768.972	37.4
769.151	32.48
769.33	34.72
769.51	38.49
769.689	41.69
769.868	43.95
770.047	45.3
770.226	42.56
770.406	35.14
770.585	36.29
770.764	39.56
770.943	40.48
771.122	45.91
771.301	41.87
771.48	42.46
771.66	45.56
771.839	45.62
772.018	46.51
772.197	48.25
772.376	54.94
772.555	59.77
772.734	48.91
772.913	51.1
773.092	52.62
773.271	59.28
773.449	51.79
773.628	45.45
773.807	44.92
773.986	43.15
774.165	46.39
774.344	46.27
774.523	39.43
774.701	39.46
774.88	35.4
775.059	33.76
775.238	41.49
775.417	38.43
775.595	36.89
775.774	37.15
775.953	35.33
776.131	32.29
776.31	26.91
776.489	35.43
776.667	40.69
776.846	38.98
777.025	35.44
777.203	26.97
777.382	31.83
777.56	35.72
777.739	37.59
777.917	33.3
778.096	30.49
778.274	33.08
778.453	27.16
778.631	24.22
778.81	26.27
778.988	19.72
779.166	30.1
779.345	25.43
779.523	25.14
779.702	27.82
779.88	28.09
780.058	29.23
780.237	29.95
780.415	30.12
780.593	29.18
780.771	33.1
780.95	37.14
781.128	23.25
781.306	23.36
781.484	19.61
781.662	15
781.841	17.42
782.019	20.85
782.197	23.43
782.375	23.93
782.553	28.91
782.731	25.01
782.909	29.2
783.087	38.57
783.265	32.32
783.443	28.16
783.621	19.82
783.799	25.85
783.977	34.95
784.155	30.55
784.333	35.23
784.511	31.08
784.689	26.23
784.867	32.3
785.045	14
785.223	18.68
785.4	26.11
785.578	41.75
785.756	30.07
785.934	4.85
786.112	-3.43
786.289	-4.63
786.467	-8.55
786.645	-3.59
786.823	-10.43
787	-7.19
787.178	0.25
787.356	2.93
787.533	-7.31
787.711	-8.41
787.889	9.59
788.066	19.65
788.244	13.83
788.421	21.9
788.599	16.07
788.776	18.61
788.954	27.11
789.131	29.58
789.309	27.4
789.486	35.06
789.664	38.12
789.841	26.44
790.019	26.13
790.196	32.26
790.373	32.94
790.551	42.29
790.728	41.03
790.906	38.42
791.083	32.34
791.26	29.29
791.437	27.19
791.615	30.91
791.792	39.94
791.969	40.48
792.146	41.65
792.324	34.46
792.501	32.51
792.678	31.7
792.855	34.9
793.032	48.33
793.209	62.58
793.387	63.51
793.564	59.98
793.741	60.21
793.918	51.15
794.095	46.95
794.272	47.1
794.449	42.89
794.626	44.09
794.803	43.36
794.98	30.21
795.157	26.11
795.334	31.14
795.511	35.63
795.688	32.87
795.864	39.89
796.041	36.79
796.218	35.93
796.395	38.09
796.572	35.35
796.749	30.79
796.925	34.21
797.102	27.67
797.279	16.98
797.456	8.72
797.632	3.72
797.809	-2.23
797.986	6.43
798.162	7.31
798.339	7.29
798.516	20.03
798.692	23.03
798.869	22.38
799.046	25.14
799.222	33.42
799.399	37.77
799.575	44.1
799.752	48.4
799.928	46.09
800.105	44.75
800.281	47.32
800.458	28.55
800.634	27.81
800.811	33.11
800.987	23.9
801.163	-0.78
801.34	-12.68
801.516	-24.77
801.692	-23.51
801.869	-26.78
802.045	5.96
802.221	17.35
802.398	35.22
802.574	42.22
802.75	50.63
802.926	65.69
803.103	77.6
803.279	91.99
803.455	89.43
803.631	75.45
803.807	72.02
803.983	66.09
804.16	69.63
804.336	81.26
804.512	76.83
804.688	64.47
804.864	91.6
805.04	109.78
805.216	93.53
805.392	89.74
805.568	103.55
805.744	83.33
805.92	83.5
806.096	37.79
806.272	8.25
806.448	-35.91
806.623	-20.91
806.799	-32.29
806.975	-18.07
807.151	-2.36
807.327	9.33
807.503	-3.23
807.678	2.55
807.854	19.35
808.03	34.2
808.206	34.65
808.381	44.68
808.557	45.4
808.733	35.59
808.908	25.69
809.084	19.71
809.26	8.61
809.435	12.65
809.611	-8.82
809.787	-20.74
809.962	-17.66
810.138	-20.98
810.313	-7.49
810.489	-39.12
810.664	-18.33
810.84	-4.89
811.015	-2.67
811.191	-4.68
811.366	-2.23
811.542	20.02
811.717	13.59
811.892	5.16
812.068	15.31
812.243	-20.27
812.419	2.65
812.594	-3.64
812.769	-23.03
812.944	-21.44
813.12	-0.79
813.295	0
813.47	-16.06
813.645	-2.9
813.821	-16.37
813.996	-40.55
814.171	33.18
814.346	44.86
814.521	47.13
814.697	64.99
814.872	65.97
815.047	49.78
815.222	30.74
815.397	24.62
815.572	5.14
815.747	15.35
815.922	13.73
816.097	1.66
816.272	8.54
816.447	19.21
816.622	33.47
816.797	22.88
816.972	23.51
817.147	36.24
817.322	47.51
817.496	56.87
817.671	49.92
817.846	46.55
818.021	40.77
818.196	34.81
818.371	23.19
818.545	1.19
818.72	14.43
818.895	8.35
819.069	6.18
819.244	-2.96
819.419	-13.65
819.594	-7.9
819.768	-3.89
819.943	3.87
820.117	8.98
820.292	13.08
820.467	13.47
820.641	10.28
820.816	9.83
820.99	11.47
821.165	13.94
821.339	16.03
821.514	15.42
821.688	14.69
821.863	12.98
822.037	13.08
822.212	12.04
822.386	11.67
822.56	12.81
822.735	16.92
822.909	17.14
823.084	16.55
823.258	15.02
823.432	15.75
823.606	21.55
823.781	24.61
823.955	25.74
824.129	23.68
824.303	22.57
824.478	23.25
824.652	18.98
824.826	18.72
825	21.86
825.174	23.85
825.348	19.87
825.523	15.16
825.697	10.59
825.871	9.6
826.045	11.54
826.219	16.77
826.393	15.26
826.567	16.42
826.741	16.17
826.915	17.89
827.089	21.64
827.263	28.03
827.437	31.65
827.611	40.56
827.784	44.38
827.958	44.89
828.132	41.59
828.306	44.49
828.48	41.62
828.654	44.61
828.827	40.8
829.001	34.66
829.175	29.67
829.349	19.14
829.522	9.62
829.696	9.02
829.87	-5.97
830.044	-18.71
830.217	-6.24
830.391	2.69
830.565	4.59
830.738	10.72
830.912	10.34
831.085	22.75
831.259	17.44
831.432	19.69
831.606	19.2
831.779	29.61
831.953	34.06
832.126	33.47
832.3	28.66
832.473	27.14
832.647	20.66
832.82	19.61
832.994	14.28
833.167	23.93
833.34	19.92
833.514	21.04
833.687	12.71
833.86	13.42
834.034	11.54
834.207	6.46
834.38	4.84
834.553	6.41
834.727	7.89
834.9	4.5
835.073	6.56
835.246	12.16
835.419	12.25
835.593	20.46
835.766	24.68
835.939	35.5
836.112	39.19
836.285	49
836.458	58.84
836.631	43.98
836.804	49.82
836.977	33.87
837.15	36.68
837.323	38.31
837.496	41.67
837.669	48.54
837.842	32.25
838.015	41.96
838.188	42.55
838.361	38.92
838.533	44.24
838.706	45.89
838.879	50.18
839.052	36.8
839.225	36.14
839.398	22.88
839.57	15.6
839.743	-3.18
839.916	-12.48
840.088	-25.73
840.261	-0.54
840.434	-1.18
840.607	11.33
840.779	7.56
840.952	20.12
841.124	17.88
841.297	27.66
841.47	28.65
841.642	74.9
841.815	91.65
841.987	76.68
842.16	109.96
842.332	301.73
842.505	230.05
842.677	405.29
842.85	-7833.33
843.022	-2868.75
843.194	1845.45
843.367	-1038.71
843.539	-250.59
843.712	-394.74
843.884	-335.8
844.056	-250.91
844.229	133.58
844.401	160
844.573	122.29
844.745	96.99
844.918	78
845.09	88.98
845.262	117.18
845.434	109.92
845.606	138.11
845.779	188.3
845.951	279.34
846.123	293.83
846.295	291.28
846.467	271.05
846.639	223.02
846.811	234.38
846.983	344.29
847.155	-155.3
847.327	-82.76
847.499	1420
847.671	-21.33
847.843	150
848.015	79.59
848.187	46.38
848.359	64.29
848.531	40
848.703	7.3
848.875	-34.67
849.047	-51.4
849.218	-52.94
849.39	-41.87
849.562	-127.16
849.734	-238.82
849.905	-107.27
850.077	-206.53
850.249	-1018
850.421	729.03
850.592	210.98
850.764	230.3
850.936	127.32
851.107	130.92
851.279	142.58
851.451	116.36
851.622	103.68
851.794	80.34
851.965	76.08
852.137	58.73
852.308	74.2
852.48	119.28
852.651	55.11
852.823	57.57
852.994	41.96
853.166	19.75
853.337	25.51
853.509	-23.24
853.68	-556.6
853.851	994.59
854.023	116.83
854.194	22.01
854.365	-10
854.537	58.09
854.708	94.32
854.879	86.3
855.05	71.87
855.222	438.46
855.393	11.32
855.564	202.91
855.735	639.13
855.906	108.96
856.078	1.1
856.249	-19.68
856.42	-165.89
856.591	-319.51
856.762	-333.77
856.933	-187.7
857.104	-27.27
857.275	-54.1
857.446	-15.38
857.617	-51.17
857.788	-34.22
857.959	176.23
858.13	138.43
858.301	234.37
858.472	137.72
858.643	74.07
858.814	68.46
858.985	120.51
859.155	411
859.326	99.34
859.497	80.7
859.668	47.8
859.839	24.09
860.009	-18.37
860.18	27.43
860.351	61.67
860.522	-241.67
860.692	-57.14
860.863	1700
861.034	-41.03
861.204	-154.55
861.375	-42.27
861.546	-20.63
861.716	-875
861.887	-127.08
862.057	-1150
862.228	-400
862.398	75
862.569	-48.1
862.739	71.2
862.91	327.27
863.08	55.56
863.251	217.14
863.421	276
863.592	-93.55
863.762	-192
863.932	230.1
864.103	123.05
864.273	146.15
864.443	318.99
864.614	125
864.784	158.41
864.954	1712.5
865.125	285.71
865.295	231.13
865.465	925
865.635	519.7
865.805	237.5
865.976	25
866.146	32.13
866.316	106.52
866.486	199.21
866.656	132.83
866.826	148.96
866.996	141.86
867.166	149.84
867.336	173.82
867.506	162.14
867.676	262.33
867.846	173.57
868.016	804.88
868.186	148
868.356	-77.5
868.526	82.5
868.696	361.11
868.866	102.41
869.036	69.16
869.206	45.21
869.376	63.72
869.545	37.3
869.715	217.57
869.885	243.52
870.055	-2278.57
870.224	18500
870.394	-187.22
870.564	-235.19
870.734	5.1
870.903	9.59
871.073	2.2
871.243	-12.39
871.412	-112.7
871.582	-84.62
871.751	8.16
871.921	81.63
872.091	68.01
872.26	51.82
872.43	53.04
872.599	49.3
872.769	70.74
872.938	65.48
873.108	86.25
873.277	42.79
873.446	47.82
873.616	68.02
873.785	51.42
873.955	46.23
874.124	25.41
874.293	28.74
874.463	11.22
874.632	20.86
874.801	9.51
874.971	-1.96
875.14	3.12
875.309	19.06
875.478	8.17
875.647	-7.26
875.817	15.68
875.986	15.06
876.155	-45.32
876.324	-3.42
876.493	-17.17
876.662	13.04
876.831	32.61
877	54.03
877.17	-6.68
877.339	26.46
877.508	31.61
877.677	45.69
877.846	57.98
878.015	63.1
878.184	82.63
878.352	149.45
878.521	97.12
878.69	-72.29
878.859	45.66
879.028	23.53
879.197	9.2
879.366	-1.83
879.534	-11.34
879.703	-31.6
879.872	-10.08
880.041	6.05
880.21	15.44
880.378	17.56
880.547	18.8
880.716	13.29
880.884	19.4
881.053	18.92
881.222	17.87
881.39	17.29
881.559	16.6
881.727	15.25
881.896	12.24
882.065	15.56
882.233	8.37
882.402	10.13
882.57	11.09
882.739	26.31
882.907	23.73
883.076	32.88
883.244	42.61
883.412	51.32
883.581	57.73
883.749	75.74
883.918	64.53
884.086	81.26
884.254	100.82
884.423	85.08
884.591	83.11
884.759	73.19
884.927	62.52
885.096	74.52
885.264	71.78
885.432	67.76
885.6	48.99
885.769	52.48
885.937	-45.91
886.105	-115.94
886.273	-57.49
886.441	-50.98
886.609	-83.61
886.777	-35.53
886.945	-43.16
887.113	-63.27
887.281	36.21
887.449	-107.14
887.617	461.54
887.785	446.15
887.953	-688.57
888.121	-147.13
888.289	-98.65
888.457	-442.62
888.625	-162.21
888.793	-63.59
888.961	-56.29
889.129	-57.81
889.296	-237.76
889.464	-138.46
889.632	-35.18
889.8	-65.45
889.967	-41.58
890.135	-96.08
