Data from JASIL_3025_Reflection_01.txt Node
Date: Mon Nov 09 10:52:32 EST 2015
User: Geneva
Spectrometer: USB4E03002
Autoset integration time: false
Trigger mode: 4
Integration Time (sec): 1.000000E-1
Scans to average: 10
Electric dark correction enabled: false
Nonlinearity correction enabled: false
Boxcar width: 5
Stray light correction enabled: false
XAxis mode: Wavelengths
Stop averaging: false
Number of Pixels in Spectrum: 3648
>>>>>Begin Spectral Data<<<<<
177.575	69.81
177.794	79.17
178.014	65.68
178.233	88.21
178.452	81.16
178.672	168.42
178.891	-352.17
179.11	673.17
179.33	3545.45
179.549	315.38
179.768	227.31
179.987	702.78
180.207	-828.33
180.426	-671.64
180.645	-144.29
180.864	-72.9
181.084	-63.16
181.303	-68.29
181.522	-100
181.741	-125.89
181.96	-194.47
182.179	-45.37
182.398	-67.28
182.618	-137.64
182.837	-230.1
183.056	-637.89
183.275	536.3
183.494	-825.56
183.713	-2050
183.932	-762.77
184.151	-1972.73
184.37	-290.05
184.589	-4566.67
184.808	463.64
185.027	370
185.246	243.11
185.465	150
185.684	337.57
185.903	116.67
186.122	97.7
186.341	86.49
186.56	91.1
186.779	379.59
186.998	-107.69
187.216	42.8
187.435	18.75
187.654	-12.46
187.873	8.59
188.092	5.56
188.311	-31.08
188.53	-30.77
188.748	-63.46
188.967	-357.82
189.186	551.61
189.405	316.29
189.623	509.35
189.842	785.71
190.061	-8740
190.28	-523.4
190.498	-457.14
190.717	-214.76
190.936	-315.52
191.154	-185.71
191.373	-123.62
191.592	-98.6
191.81	-91.27
192.029	-97.35
192.248	-48.92
192.466	-54.87
192.685	-45.81
192.904	-460.87
193.122	198.55
193.341	-1020
193.559	1091.67
193.778	154.55
193.996	517.86
194.215	119.15
194.433	193.58
194.652	187.34
194.87	166.67
195.089	145.57
195.307	320
195.526	257.41
195.744	240
195.963	383.82
196.181	-1148.94
196.399	-278.92
196.618	-402.19
196.836	-196.35
197.055	-168.69
197.273	-53.88
197.491	-101
197.71	-88.3
197.928	-110.06
198.146	-134.29
198.365	-197.18
198.583	-4955.56
198.801	194.25
199.019	166.8
199.238	120.43
199.456	175.92
199.674	265.52
199.892	378.7
200.111	385
200.329	83.93
200.547	491.67
200.765	-255.84
200.983	188.74
201.202	114.29
201.42	60.27
201.638	58.29
201.856	80
202.074	38.38
202.292	84.13
202.51	237.5
202.728	-900
202.946	157.58
203.165	-1500
203.383	613.46
203.601	1222.73
203.819	-116.28
204.037	-66.25
204.255	21
204.473	130.83
204.691	28.43
204.909	604.76
205.127	-227.27
205.345	156.86
205.562	-257.41
205.78	348
205.998	237.68
206.216	147.17
206.434	-64.04
206.652	-2000
206.87	471.19
207.088	158.79
207.306	114.01
207.523	106.82
207.741	142.86
207.959	128.38
208.177	114.9
208.395	137.84
208.612	120.34
208.83	70.95
209.048	91.61
209.266	188.97
209.483	377.05
209.701	-689.66
209.919	11350
210.136	481.82
210.354	2058.33
210.572	-497.87
210.79	-669.44
211.007	267.88
211.225	194.15
211.442	734.21
211.66	-90.16
211.878	-135.53
212.095	-283.02
212.313	-8166.67
212.53	-227.05
212.748	-121.33
212.966	-824.39
213.183	-24700
213.401	-211.95
213.618	-167.31
213.836	-182.07
214.053	-198.59
214.271	-314.77
214.488	-160.63
214.705	-204.05
214.923	-276.41
215.14	-412.6
215.358	-237.99
215.575	-80.14
215.793	-306.06
216.01	-1245.83
216.227	-522.22
216.445	230.81
216.662	434.69
216.879	189.81
217.097	158.22
217.314	112.9
217.531	218.97
217.749	-30.23
217.966	-100
218.183	2.31
218.4	31.78
218.618	50.28
218.835	32.25
219.052	33.84
219.269	8.55
219.487	6.88
219.704	-20.72
219.921	-36.21
220.138	-113.58
220.355	-83.76
220.572	-8966.67
220.79	462.04
221.007	519.85
221.224	748.96
221.441	528.86
221.658	-190.52
221.875	-150
222.092	-92.89
222.309	-52.56
222.526	-64.8
222.743	-44.75
222.96	-75.18
223.177	-24.2
223.394	-10.9
223.611	-12.84
223.828	-4.28
224.045	-25.39
224.262	-37.02
224.479	-45.53
224.696	-63.3
224.913	-60.3
225.13	-59.32
225.347	-29.58
225.564	-45.51
225.781	-45.56
225.997	-34.28
226.214	-33.02
226.431	-33.1
226.648	-17.69
226.865	-12.83
227.082	-7.36
227.298	-2.38
227.515	-5.06
227.732	-7.7
227.949	-13.46
228.165	-12.88
228.382	-10.45
228.599	-9.65
228.816	-7.08
229.032	-14.95
229.249	-21.74
229.466	-21.61
229.682	-33.4
229.899	-31.64
230.116	-35.46
230.332	-22.92
230.549	-27.58
230.765	-42.71
230.982	-43.5
231.199	-39.66
231.415	-41.02
231.632	-44.26
231.848	-39.42
232.065	-23.84
232.281	-33.28
232.498	-33.41
232.714	-33.31
232.931	-16.25
233.147	-14.08
233.364	-16.99
233.58	-30.11
233.797	-28.27
234.013	-21.48
234.23	-29.75
234.446	-27.54
234.662	-19.46
234.879	-15.32
235.095	-6.72
235.312	-15.15
235.528	-17.95
235.744	-20.61
235.961	-19.71
236.177	-14.66
236.393	-12.24
236.61	-15.36
236.826	-24.55
237.042	-20.85
237.258	-23.02
237.475	-21.89
237.691	-22.95
237.907	-17.93
238.123	-6.74
238.339	-0.2
238.556	0.44
238.772	-2.55
238.988	-0.92
239.204	5.44
239.42	6.33
239.636	2.74
239.853	-1.08
240.069	-2.7
240.285	-6.74
240.501	-6.83
240.717	-5.07
240.933	-5.15
241.149	-2.88
241.365	-4.06
241.581	-7.43
241.797	-6.8
242.013	-4.34
242.229	-3.06
242.445	-3.39
242.661	1.08
242.877	-1.53
243.093	-3.32
243.309	-4.89
243.525	-10.15
243.741	-1.43
243.957	0.58
244.173	-0.47
244.388	0.74
244.604	3.38
244.82	4.01
245.036	5.14
245.252	5.18
245.468	5.67
245.683	7.06
245.899	8.23
246.115	7.22
246.331	8.2
246.547	8.35
246.762	8.92
246.978	6.72
247.194	7.37
247.409	4.99
247.625	3.84
247.841	3.27
248.057	1.89
248.272	-0.91
248.488	-3.63
248.703	-2.7
248.919	-6.06
249.135	-13.7
249.35	-15.02
249.566	-15.1
249.782	-17.55
249.997	-16.04
250.213	-14.48
250.428	-15.25
250.644	-8.21
250.859	-4.34
251.075	-4.45
251.29	-3.09
251.506	1.27
251.721	2.63
251.937	2.93
252.152	6.46
252.368	10.54
252.583	8.69
252.798	13.4
253.014	6.49
253.229	3.75
253.445	-3.37
253.66	-11.3
253.875	-17.2
254.091	-20.76
254.306	-19.6
254.521	-12.45
254.737	-19.85
254.952	-12.78
255.167	-17.23
255.383	-13.33
255.598	-12.92
255.813	-9.33
256.028	-6.51
256.244	2.66
256.459	3.54
256.674	0.39
256.889	-2.12
257.104	0.29
257.32	-2.02
257.535	-2.38
257.75	0.16
257.965	0.63
258.18	2.47
258.395	3.98
258.61	1.62
258.826	2.04
259.041	2.29
259.256	1.37
259.471	-0.44
259.686	-0.2
259.901	1.47
260.116	-1.56
260.331	0.67
260.546	0.95
260.761	0.37
260.976	0.36
261.191	-0.79
261.406	-1.17
261.621	-0.56
261.836	0.75
262.05	1.29
262.265	-2.06
262.48	-0.44
262.695	-3.39
262.91	-3.47
263.125	-2.57
263.34	0.48
263.555	-0.67
263.769	3.3
263.984	0.92
264.199	2.72
264.414	-0.47
264.629	-2.4
264.843	-5.03
265.058	-6.09
265.273	-9.08
265.488	-7.45
265.702	-8.49
265.917	-6.15
266.132	-4.31
266.346	-1
266.561	0.35
266.776	0.09
266.99	0.52
267.205	4.66
267.42	2.68
267.634	4.74
267.849	6.15
268.063	4.87
268.278	4.26
268.492	4.17
268.707	3.59
268.922	1.78
269.136	2.65
269.351	3.82
269.565	2.05
269.78	2.03
269.994	-0.42
270.209	-4.27
270.423	-2.99
270.637	-3.21
270.852	-2.88
271.066	-3.87
271.281	-3.67
271.495	-1.98
271.709	-2.49
271.924	-3.32
272.138	-3.15
272.353	-2.23
272.567	0.02
272.781	-0.08
272.996	2.18
273.21	-1.69
273.424	1.33
273.638	2.83
273.853	2.97
274.067	1.81
274.281	1.66
274.495	1.83
274.71	2.16
274.924	-2.78
275.138	-0.77
275.352	-3.9
275.566	-2.17
275.781	-7.87
275.995	-9.8
276.209	-10.82
276.423	-8.98
276.637	-6.56
276.851	-4.29
277.065	-4.12
277.279	-1.32
277.493	-2.7
277.707	-4.76
277.921	-5.01
278.135	-1.41
278.349	-1.34
278.563	-4.24
278.777	-3.26
278.991	-4.52
279.205	-5.51
279.419	-7.17
279.633	-6.66
279.847	-6.07
280.061	-6.07
280.275	-7.66
280.489	-7.33
280.703	-9.95
280.917	-7.55
281.131	-10.46
281.344	-11.18
281.558	-11.21
281.772	-11.36
281.986	-10.62
282.2	-12.05
282.414	-7.27
282.627	-4.83
282.841	-8.03
283.055	-4.5
283.269	-6.1
283.482	-6.38
283.696	-4.07
283.91	-3.64
284.123	-2.22
284.337	-2.46
284.551	-3.92
284.764	-5.51
284.978	-6.05
285.192	-3.88
285.405	-4.46
285.619	-3.71
285.833	-3.39
286.046	-5.76
286.26	-6.66
286.473	-8.2
286.687	-7.97
286.9	-5.32
287.114	-6.93
287.327	-6.75
287.541	-7.69
287.754	-5.85
287.968	-2.04
288.181	0.77
288.395	1.52
288.608	2.78
288.822	2.72
289.035	4.35
289.248	4.3
289.462	4.79
289.675	3.77
289.889	3.02
290.102	1.25
290.315	-1.02
290.529	-0.72
290.742	0.45
290.955	-3.71
291.169	-2.77
291.382	-5.38
291.595	-4.28
291.808	-4.62
292.022	-5.49
292.235	-6.45
292.448	-7.3
292.661	-6.69
292.875	-9.1
293.088	-11.66
293.301	-7.79
293.514	-7.58
293.727	-6.14
293.94	-7.82
294.153	-6.74
294.367	-4.25
294.58	-2.95
294.793	0.29
295.006	-0.18
295.219	0.23
295.432	1.44
295.645	1.61
295.858	2.95
296.071	1.69
296.284	0.92
296.497	1.95
296.71	0.3
296.923	0.43
297.136	-2.62
297.349	-3.51
297.562	-4.76
297.775	-5.18
297.988	-5.83
298.201	-7.39
298.414	-7.62
298.626	-4.97
298.839	-5.75
299.052	-3.98
299.265	-4.79
299.478	-3.77
299.691	-3.29
299.903	-2.44
300.116	-3.03
300.329	-3.78
300.542	-3.01
300.755	-1.78
300.967	-5.73
301.18	-6.56
301.393	-6.11
301.605	-5.98
301.818	-7.24
302.031	-6.96
302.243	-4.51
302.456	-3.21
302.669	-3.49
302.881	-4.91
303.094	-6.69
303.307	-3.81
303.519	-4.46
303.732	-5.54
303.944	-5.5
304.157	-1.96
304.37	-4.11
304.582	-4.59
304.795	-5.42
305.007	-5.41
305.22	-5.71
305.432	-3.57
305.645	-2.37
305.857	-2.92
306.069	-4.34
306.282	-5.43
306.494	-6.32
306.707	-3.99
306.919	-3.94
307.132	-3.98
307.344	-1.76
307.556	0.64
307.769	-0.13
307.981	0.16
308.193	1.4
308.406	3.72
308.618	3.29
308.83	3.8
309.043	3.34
309.255	4.7
309.467	4.07
309.679	2.59
309.892	0.74
310.104	2.56
310.316	2.56
310.528	1.2
310.74	-0.7
310.953	2.56
311.165	1.21
311.377	3.89
311.589	0.31
311.801	2.6
312.013	1.7
312.225	1.86
312.437	-0.4
312.649	-3.8
312.862	-3.33
313.074	-4.85
313.286	-5.92
313.498	-4.68
313.71	-6.99
313.922	-4.6
314.134	-7.62
314.346	-3.85
314.558	-3.05
314.77	-4.3
314.982	-2.18
315.193	1.82
315.405	3.39
315.617	4.37
315.829	7.72
316.041	6.99
316.253	7.84
316.465	7.2
316.677	6.06
316.888	6.13
317.1	7.49
317.312	6.48
317.524	2.49
317.736	2.94
317.947	2.41
318.159	2.01
318.371	3.73
318.583	3.6
318.794	7.41
319.006	7.16
319.218	7.02
319.43	9.43
319.641	10.65
319.853	12.19
320.064	12.25
320.276	10.93
320.488	8.87
320.699	8.94
320.911	9.25
321.123	8.27
321.334	7.61
321.546	8.09
321.757	7.12
321.969	11.41
322.18	11.65
322.392	12.2
322.603	12.45
322.815	9.96
323.026	8.8
323.238	11.71
323.449	10.21
323.661	10.67
323.872	12.17
324.083	13.84
324.295	10.61
324.506	9.77
324.718	12.29
324.929	12.05
325.14	14.19
325.352	12.91
325.563	12.13
325.774	15.55
325.986	16.5
326.197	16.22
326.408	14
326.62	16.43
326.831	17.81
327.042	17.45
327.253	18.9
327.464	19.73
327.676	25.74
327.887	26.14
328.098	26.12
328.309	26.92
328.52	27.53
328.732	29.52
328.943	29.91
329.154	32.65
329.365	33.36
329.576	34.36
329.787	33.85
329.998	31.61
330.209	30.89
330.42	30.65
330.631	32.11
330.842	31.3
331.053	31.04
331.264	31.27
331.475	30.49
331.686	30.21
331.897	31.01
332.108	30.53
332.319	30.81
332.53	30.56
332.741	30.99
332.952	30.03
333.163	29.65
333.374	31.55
333.585	31.32
333.795	32.05
334.006	32.01
334.217	31.36
334.428	33.75
334.639	31.74
334.849	31.17
335.06	30.22
335.271	31.85
335.482	31.57
335.692	30.49
335.903	30.31
336.114	29.22
336.325	29.68
336.535	31.57
336.746	29.15
336.957	30.42
337.167	29.85
337.378	30.79
337.589	29.18
337.799	30.16
338.01	31
338.22	33.01
338.431	34.6
338.642	32.58
338.852	30.63
339.063	32.55
339.273	32.25
339.484	34.27
339.694	32.25
339.905	32.96
340.115	33.08
340.326	30.77
340.536	29.55
340.746	27.7
340.957	26.3
341.167	27.02
341.378	26.69
341.588	28.07
341.799	26.46
342.009	25.77
342.219	23.84
342.43	25.44
342.64	26.97
342.85	28.1
343.061	27.4
343.271	27.22
343.481	26.15
343.691	26.22
343.902	24.82
344.112	26.33
344.322	27.75
344.532	29.18
344.743	30.34
344.953	29.4
345.163	28.8
345.373	30.87
345.583	33.24
345.793	33.4
346.004	33.35
346.214	34.47
346.424	33.13
346.634	32.38
346.844	32.57
347.054	29.28
347.264	28.58
347.474	27.82
347.684	25.64
347.894	25.57
348.104	27.03
348.314	25.94
348.524	25.33
348.734	28.15
348.944	29.99
349.154	31.59
349.364	34.67
349.574	36.92
349.784	35.26
349.994	34.66
350.204	34.84
350.413	33.97
350.623	34.02
350.833	35.77
351.043	32
351.253	30.91
351.463	28.48
351.672	25.74
351.882	26.63
352.092	26.51
352.302	28.43
352.511	27.69
352.721	28.52
352.931	28.65
353.141	26.97
353.35	28.65
353.56	30.32
353.77	31.13
353.979	30.59
354.189	29.05
354.399	30.92
354.608	32.88
354.818	32.39
355.027	30.31
355.237	30.95
355.447	31.41
355.656	30.62
355.866	29.4
356.075	28.94
356.285	29.44
356.494	30.52
356.704	30.98
356.913	30.03
357.123	31.49
357.332	32.08
357.542	31.66
357.751	32.1
357.96	33.41
358.17	33.01
358.379	31.48
358.589	32.14
358.798	29.63
359.007	29.09
359.217	28.44
359.426	28.99
359.635	28.27
359.845	29.07
360.054	28.47
360.263	27.34
360.472	28.43
360.682	29.62
360.891	29.06
361.1	30.58
361.309	30.96
361.519	30.92
361.728	29.96
361.937	30.37
362.146	29.34
362.355	29.52
362.564	30.2
362.774	30.25
362.983	30.27
363.192	30.27
363.401	29.84
363.61	29.66
363.819	29.47
364.028	30.24
364.237	32.09
364.446	32.96
364.655	32.37
364.864	32.85
365.073	32.46
365.282	32.05
365.491	34.33
365.7	36.23
365.909	35.19
366.118	34.98
366.327	34.56
366.536	34.52
366.745	34.75
366.954	36.37
367.162	35.78
367.371	35.54
367.58	35.42
367.789	33.64
367.998	32.08
368.207	32.54
368.415	32.69
368.624	31.47
368.833	30.58
369.042	28.78
369.25	26.68
369.459	27.49
369.668	26.15
369.877	25.27
370.085	26.07
370.294	26.14
370.503	25.41
370.711	24.99
370.92	25.33
371.129	23.87
371.337	24.18
371.546	26.74
371.754	26.01
371.963	26.09
372.171	26.87
372.38	25.6
372.589	25.22
372.797	25.28
373.006	25.84
373.214	25.74
373.423	26.57
373.631	26.53
373.84	23.81
374.048	23.74
374.256	24.89
374.465	25.52
374.673	25.75
374.882	26.28
375.09	27.61
375.298	27.33
375.507	28.83
375.715	29.24
375.923	29.9
376.132	30.9
376.34	30.4
376.548	29.29
376.757	28.7
376.965	28
377.173	26.06
377.381	25.71
377.59	26.57
377.798	23.58
378.006	22.55
378.214	22.05
378.423	23.43
378.631	23.81
378.839	24.52
379.047	24.3
379.255	26.07
379.463	26.17
379.671	25.44
379.879	23.84
380.088	25.52
380.296	25.83
380.504	25.95
380.712	24.82
380.92	25.47
381.128	25.46
381.336	26.04
381.544	25.36
381.752	26.7
381.96	26.61
382.168	26.68
382.376	27.46
382.584	27.57
382.791	27.83
382.999	27.36
383.207	26.82
383.415	26.35
383.623	25.52
383.831	24.69
384.039	25.72
384.247	26.48
384.454	25.93
384.662	25.32
384.87	26.78
385.078	27.04
385.285	28.42
385.493	27.74
385.701	28.67
385.909	29.93
386.116	29.91
386.324	28.87
386.532	28.13
386.739	29.43
386.947	30.67
387.155	29.84
387.362	30.11
387.57	28.53
387.778	28.79
387.985	28.48
388.193	28.23
388.4	29.1
388.608	29.55
388.816	29.43
389.023	29.33
389.231	29.5
389.438	28.68
389.646	28.14
389.853	27.23
390.061	27.25
390.268	27.75
390.475	28
390.683	27.94
390.89	26.88
391.098	26.88
391.305	27.22
391.512	27.37
391.72	27.56
391.927	27.78
392.135	28.5
392.342	28.51
392.549	26.82
392.756	25.64
392.964	25.7
393.171	25.8
393.378	26.59
393.586	25.4
393.793	24.57
394	25.22
394.207	25.07
394.414	25.93
394.622	26.09
394.829	26.25
395.036	27.26
395.243	26.92
395.45	28.39
395.657	27.7
395.864	28.48
396.072	28.02
396.279	26.89
396.486	26.65
396.693	26.54
396.9	25.27
397.107	25.64
397.314	24.38
397.521	23.37
397.728	22.31
397.935	21.87
398.142	21.18
398.349	20.43
398.556	20.52
398.763	20.11
398.97	19.74
399.177	20.69
399.383	21.42
399.59	22.23
399.797	22.9
400.004	22.6
400.211	22.59
400.418	22.08
400.625	22.79
400.831	22.81
401.038	23.41
401.245	23.24
401.452	23.49
401.658	22.6
401.865	23.03
402.072	23.16
402.279	23.02
402.485	23.2
402.692	25.42
402.899	25.34
403.105	25.5
403.312	25.02
403.519	25.54
403.725	24.97
403.932	25.17
404.138	25.69
404.345	25.63
404.552	25.7
404.758	25.94
404.965	24.38
405.171	23.93
405.378	24.02
405.584	24.27
405.791	22.82
405.997	23.69
406.204	23.98
406.41	23.18
406.617	23.63
406.823	23.62
407.029	24.45
407.236	25.95
407.442	25.73
407.649	25.75
407.855	26.11
408.061	26.4
408.268	25.82
408.474	24.89
408.68	24.84
408.887	24.5
409.093	25.39
409.299	23.85
409.505	23.02
409.712	23.46
409.918	24.4
410.124	24.44
410.33	24.4
410.537	24.99
410.743	25.45
410.949	24.49
411.155	25.12
411.361	24.37
411.567	24.84
411.773	24.59
411.98	24.84
412.186	23.42
412.392	23.49
412.598	24.37
412.804	23.7
413.01	24
413.216	24.83
413.422	23.71
413.628	24.37
413.834	24.55
414.04	25.4
414.246	24.8
414.452	24.74
414.658	24.03
414.864	24.08
415.07	24.31
415.275	23.51
415.481	23.73
415.687	24.11
415.893	23.64
416.099	23.37
416.305	22.24
416.511	22.56
416.716	22.88
416.922	23.03
417.128	22.4
417.334	22.39
417.539	22.77
417.745	22.45
417.951	22.14
418.157	22.22
418.362	22.26
418.568	22.32
418.774	21.97
418.979	21.14
419.185	21.78
419.391	22
419.596	22.01
419.802	21.69
420.008	21.79
420.213	21.88
420.419	21.95
420.624	21.98
420.83	22.3
421.035	22.31
421.241	23.2
421.446	22.6
421.652	22.64
421.857	22.61
422.063	23.12
422.268	23.12
422.474	23.2
422.679	22.86
422.885	22.96
423.09	22.8
423.295	22.74
423.501	22.18
423.706	22.28
423.911	22.3
424.117	21.9
424.322	21.24
424.527	20.96
424.733	21.12
424.938	21.32
425.143	21.26
425.349	21.52
425.554	21.44
425.759	21.88
425.964	21.39
426.169	21.29
426.375	21.56
426.58	22.29
426.785	22.55
426.99	21.75
427.195	21.59
427.4	21.6
427.605	21.45
427.811	22.09
428.016	21.83
428.221	21.57
428.426	20.95
428.631	20.79
428.836	20.53
429.041	19.92
429.246	20.23
429.451	20.55
429.656	19.63
429.861	19.46
430.066	19.35
430.271	19.14
430.476	20.1
430.681	20.68
430.886	20.78
431.09	20.23
431.295	20.58
431.5	20.78
431.705	20.03
431.91	20.44
432.115	20.72
432.32	20.05
432.524	20.7
432.729	19.98
432.934	20.06
433.139	20.02
433.343	20.05
433.548	20.03
433.753	19.68
433.958	19.94
434.162	20.06
434.367	18.92
434.572	19.44
434.776	19.42
434.981	19.54
435.186	18.53
435.39	18.68
435.595	19.48
435.799	19.15
436.004	18.92
436.209	18.59
436.413	18.83
436.618	19.28
436.822	19.43
437.027	18.56
437.231	19.02
437.436	19.42
437.64	19.38
437.845	19.27
438.049	19.25
438.253	19.41
438.458	19.61
438.662	18.95
438.867	18.62
439.071	18.45
439.275	18.49
439.48	18.01
439.684	18.44
439.888	18.31
440.093	18.12
440.297	18.35
440.501	18.43
440.706	18.35
440.91	19.14
441.114	19.15
441.318	19.39
441.523	19.66
441.727	20.04
441.931	19.82
442.135	19.88
442.339	20.45
442.543	20.35
442.748	20.53
442.952	20.58
443.156	19.81
443.36	20.07
443.564	19.73
443.768	19.87
443.972	19.91
444.176	19.63
444.38	19.87
444.584	19.77
444.788	19.69
444.992	19.63
445.196	19.72
445.4	20.06
445.604	19.83
445.808	19.72
446.012	19.47
446.216	19.18
446.42	19.47
446.624	18.98
446.828	18.84
447.032	19.28
447.235	18.74
447.439	18.52
447.643	18.38
447.847	18.34
448.051	18.76
448.254	18.17
448.458	18.43
448.662	18.5
448.866	18.84
449.069	18.09
449.273	17.23
449.477	17.32
449.681	17.66
449.884	17.93
450.088	18.15
450.292	18.01
450.495	19.31
450.699	18.95
450.902	19.01
451.106	19.08
451.31	19.27
451.513	19.31
451.717	19.63
451.92	19.48
452.124	18.98
452.327	18.66
452.531	18.14
452.734	17.55
452.938	17.58
453.141	16.89
453.345	16.51
453.548	16.1
453.752	16.25
453.955	16.28
454.158	15.96
454.362	16.25
454.565	16.33
454.769	15.93
454.972	16.22
455.175	15.88
455.379	16.01
455.582	15.8
455.785	16.05
455.988	16.05
456.192	16.17
456.395	16.83
456.598	16.54
456.801	16.28
457.005	17.29
457.208	17.15
457.411	17.27
457.614	17.19
457.817	17.43
458.021	17.84
458.224	17.83
458.427	17.75
458.63	17.44
458.833	17.24
459.036	17.63
459.239	17.32
459.442	17.1
459.645	17.19
459.848	17.42
460.051	17.59
460.254	17
460.457	16.95
460.66	16.89
460.863	16.57
461.066	16.84
461.269	16.56
461.472	15.77
461.675	15.99
461.878	15.64
462.081	15.31
462.284	14.98
462.486	15.5
462.689	15.18
462.892	14.93
463.095	15.14
463.298	15.01
463.5	15.32
463.703	15.95
463.906	15.52
464.109	15.63
464.311	15.25
464.514	14.84
464.717	14.88
464.92	15.4
465.122	15.88
465.325	16.31
465.528	16.39
465.73	16.07
465.933	16.22
466.135	16.65
466.338	16.5
466.541	16.16
466.743	16.63
466.946	16.2
467.148	16.33
467.351	16.27
467.553	15.93
467.756	16.12
467.958	15.89
468.161	15.41
468.363	14.73
468.566	15.28
468.768	16.3
468.971	16.24
469.173	16.59
469.375	15.85
469.578	15.58
469.78	15.38
469.983	15.71
470.185	16.34
470.387	16.42
470.59	17.33
470.792	16.55
470.994	16.62
471.196	17.1
471.399	17.25
471.601	17.33
471.803	17.15
472.005	17.9
472.208	16.66
472.41	16.48
472.612	16.29
472.814	15.91
473.016	16.66
473.218	15.97
473.421	14.93
473.623	14.46
473.825	14.87
474.027	14.63
474.229	14.16
474.431	15.02
474.633	14.74
474.835	14.93
475.037	14.76
475.239	14.3
475.441	14.49
475.643	14.49
475.845	14.58
476.047	14.1
476.249	14.33
476.451	13.78
476.653	14.26
476.855	14.98
477.057	15.33
477.258	15.4
477.46	15.99
477.662	15.74
477.864	15.79
478.066	16.39
478.268	16.6
478.469	16.54
478.671	16.91
478.873	16.31
479.075	15.63
479.276	16.29
479.478	16.18
479.68	15.84
479.882	16.02
480.083	15.82
480.285	15.7
480.487	15.66
480.688	15.51
480.89	15.36
481.091	15.22
481.293	15.38
481.495	15
481.696	15.13
481.898	15.25
482.099	15.34
482.301	15.54
482.502	15.45
482.704	15.25
482.905	15.38
483.107	15.52
483.308	15.47
483.51	15.51
483.711	15.52
483.913	15.48
484.114	15.38
484.315	15.25
484.517	15.32
484.718	15.2
484.92	15.43
485.121	15.39
485.322	15.37
485.524	15.48
485.725	15.2
485.926	15.23
486.127	15.17
486.329	14.98
486.53	15.08
486.731	15.09
486.932	15.27
487.134	15.31
487.335	15.29
487.536	15.19
487.737	15.15
487.938	15.31
488.139	15.17
488.341	15.2
488.542	15.27
488.743	15.2
488.944	15.27
489.145	15.16
489.346	15.16
489.547	15.28
489.748	15.13
489.949	15.46
490.15	15.48
490.351	15.54
490.552	15.61
490.753	15.57
490.954	15.67
491.155	15.33
491.356	15.15
491.557	15.06
491.758	15.05
491.959	15.2
492.159	14.99
492.36	15.08
492.561	14.83
492.762	14.87
492.963	14.82
493.164	14.64
493.364	14.55
493.565	14.35
493.766	14.29
493.967	14.01
494.167	13.81
494.368	13.58
494.569	13.18
494.769	13.35
494.97	12.86
495.171	13.28
495.371	13.78
495.572	14.03
495.773	14.45
495.973	14.55
496.174	14.76
496.375	14.82
496.575	14.78
496.776	14.97
496.976	14.83
497.177	14.94
497.377	14.71
497.578	13.67
497.778	13.86
497.979	13.38
498.179	13.34
498.38	13.26
498.58	13.09
498.78	12.88
498.981	12.68
499.181	12.33
499.382	12.91
499.582	13.21
499.782	13.95
499.983	13.89
500.183	14.31
500.383	14.45
500.584	14.71
500.784	14.67
500.984	14.85
501.184	14.72
501.385	15.3
501.585	14.72
501.785	14.34
501.985	14.5
502.185	14.59
502.386	15.23
502.586	15.06
502.786	14.69
502.986	15.41
503.186	15.91
503.386	16.54
503.586	16.31
503.786	16.49
503.987	16.69
504.187	16.29
504.387	16.08
504.587	15.71
504.787	16.04
504.987	16.13
505.187	15.93
505.387	15.62
505.587	15.09
505.786	15.2
505.986	15.25
506.186	15.59
506.386	15.85
506.586	15.72
506.786	15.63
506.986	15.36
507.186	14.99
507.386	15.04
507.585	15.54
507.785	15.88
507.985	16.11
508.185	16.19
508.384	15.78
508.584	15.96
508.784	16.32
508.984	16.38
509.183	16.61
509.383	17.01
509.583	16.67
509.782	16.06
509.982	16.35
510.182	16.35
510.381	16.57
510.581	16.61
510.781	16.45
510.98	16.46
511.18	16.19
511.379	15.96
511.579	15.79
511.778	15.95
511.978	16.45
512.177	16.22
512.377	16.03
512.576	16.22
512.776	16.3
512.975	16.62
513.175	16.33
513.374	16.58
513.573	16.74
513.773	16.76
513.972	17
514.172	16.51
514.371	16.52
514.57	16.51
514.77	16.3
514.969	16.13
515.168	15.94
515.367	16.23
515.567	16.05
515.766	15.86
515.965	16.46
516.164	16.62
516.364	17.01
516.563	17.15
516.762	17.38
516.961	17.29
517.16	17.3
517.359	17.21
517.559	16.93
517.758	17.02
517.957	17.27
518.156	17
518.355	16.99
518.554	16.6
518.753	16.35
518.952	15.78
519.151	15.71
519.35	16.11
519.549	16.17
519.748	16.22
519.947	16.32
520.146	16.4
520.345	16.49
520.544	16.29
520.743	16.83
520.942	16.55
521.141	17.35
521.339	17.46
521.538	17.8
521.737	18.1
521.936	18.59
522.135	18.83
522.333	18.69
522.532	18.34
522.731	18.34
522.93	18.18
523.129	18.49
523.327	18.45
523.526	18.4
523.725	18.33
523.923	18.2
524.122	18.27
524.321	18.13
524.519	18.02
524.718	18.33
524.917	18.37
525.115	18.35
525.314	18.27
525.512	18.23
525.711	18.4
525.909	18.03
526.108	17.94
526.306	17.65
526.505	17.77
526.703	17.96
526.902	17.71
527.1	17.87
527.299	18.27
527.497	18.4
527.696	18.3
527.894	18.3
528.092	18.52
528.291	18.58
528.489	18.92
528.688	18.73
528.886	18.92
529.084	19.31
529.283	19.22
529.481	18.99
529.679	19.02
529.877	19.27
530.076	19.11
530.274	18.81
530.472	18.8
530.67	18.64
530.869	18.81
531.067	18.71
531.265	18.64
531.463	18.86
531.661	18.97
531.859	19.11
532.057	19.18
532.255	19.29
532.454	19.82
532.652	19.85
532.85	19.6
533.048	19.77
533.246	19.8
533.444	19.74
533.642	19.42
533.84	19.01
534.038	18.63
534.236	18.34
534.434	18.28
534.632	18
534.83	18.09
535.027	18.7
535.225	18.61
535.423	18.64
535.621	18.74
535.819	19.11
536.017	19.24
536.215	19.54
536.412	19.91
536.61	20.13
536.808	20.15
537.006	20.28
537.203	19.82
537.401	19.83
537.599	19.77
537.797	19.88
537.994	19.89
538.192	20.22
538.39	20.38
538.587	20.32
538.785	20.22
538.983	20.12
539.18	19.99
539.378	20.08
539.575	19.99
539.773	19.6
539.97	19.44
540.168	19.55
540.366	19.47
540.563	19.27
540.761	19.25
540.958	19.15
541.155	19.24
541.353	19.45
541.55	19.37
541.748	19.6
541.945	19.89
542.143	19.81
542.34	19.91
542.537	19.87
542.735	20.26
542.932	20.11
543.129	20.44
543.327	20.33
543.524	20.2
543.721	20.18
543.919	20.05
544.116	20.14
544.313	20.47
544.51	20.44
544.708	20.44
544.905	20.24
545.102	20.27
545.299	20
545.496	19.83
545.693	19.63
545.891	19.78
546.088	19.71
546.285	19.47
546.482	19.44
546.679	19.28
546.876	19.55
547.073	20.09
547.27	20.36
547.467	20.2
547.664	20.21
547.861	20.35
548.058	20.58
548.255	20.57
548.452	20.83
548.649	20.8
548.846	20.83
549.043	20.5
549.24	19.6
549.437	19.27
549.633	19.39
549.83	19.43
550.027	19.4
550.224	19.27
550.421	19.6
550.618	19.72
550.814	19.64
551.011	19.57
551.208	19.65
551.405	19.67
551.601	20.04
551.798	20.07
551.995	20.43
552.191	20.68
552.388	20.88
552.585	20.73
552.781	21.28
552.978	21.52
553.175	21.46
553.371	21.75
553.568	22.23
553.764	21.96
553.961	22.79
554.157	22.76
554.354	22.97
554.55	23.08
554.747	23.44
554.943	22.38
555.14	23.11
555.336	23.51
555.533	23.39
555.729	23.37
555.926	23.67
556.122	23.61
556.318	23.91
556.515	23.68
556.711	23.82
556.907	23.83
557.104	24.5
557.3	23.89
557.496	23.16
557.693	23.77
557.889	23.95
558.085	24.04
558.281	22.93
558.478	22.99
558.674	23.07
558.87	23.15
559.066	23.26
559.262	23.58
559.459	23.24
559.655	23.57
559.851	22.52
560.047	22.92
560.243	23
560.439	23.9
560.635	23.91
560.831	23.93
561.027	23.7
561.223	23.28
561.419	23.08
561.615	23.85
561.811	24.04
562.007	24.54
562.203	24.2
562.399	23.89
562.595	23.99
562.791	23.7
562.987	23.5
563.183	23.53
563.379	23.73
563.575	23.72
563.771	23.9
563.966	23.54
564.162	23.77
564.358	23.48
564.554	24.02
564.75	24.01
564.945	23.98
565.141	24.17
565.337	24.37
565.533	24.68
565.728	25.21
565.924	25.02
566.12	25.75
566.315	25.54
566.511	26.02
566.707	25.92
566.902	26.35
567.098	27.23
567.293	27.82
567.489	27.97
567.684	27.82
567.88	27.48
568.076	26.79
568.271	26.29
568.467	26.25
568.662	25.48
568.858	25.44
569.053	25.19
569.248	24.95
569.444	24.74
569.639	25.08
569.835	24.88
570.03	25.26
570.225	26.26
570.421	26.23
570.616	26.3
570.812	27.08
571.007	27.32
571.202	27.6
571.397	28.09
571.593	28.16
571.788	27.76
571.983	28.05
572.178	28.12
572.374	27.83
572.569	28.14
572.764	28.79
572.959	29
573.154	29.37
573.35	28.82
573.545	28.05
573.74	28.05
573.935	28.41
574.13	28.55
574.325	28.21
574.52	28.73
574.715	28.65
574.91	28.5
575.105	28.04
575.3	27.79
575.495	28.17
575.69	28.25
575.885	28.06
576.08	27.53
576.275	27.29
576.47	26.98
576.665	26.83
576.86	27.31
577.055	27.33
577.25	26.94
577.444	26.7
577.639	27.08
577.834	27.34
578.029	27.3
578.224	27.64
578.418	27.7
578.613	27.4
578.808	26.78
579.003	27.02
579.197	26.94
579.392	27.26
579.587	27.53
579.781	26.78
579.976	26.7
580.171	26.75
580.365	26.9
580.56	27.42
580.755	28.07
580.949	28.84
581.144	28.36
581.338	28.08
581.533	28.69
581.727	29.08
581.922	29.37
582.116	29.48
582.311	29.09
582.505	28.54
582.7	28.22
582.894	28.73
583.089	28.82
583.283	28.67
583.478	28.97
583.672	29.26
583.866	29.13
584.061	29.71
584.255	29.56
584.449	30.57
584.644	31.29
584.838	31.45
585.032	30.82
585.226	30.21
585.421	30.32
585.615	30.66
585.809	30.47
586.003	30.03
586.198	29.93
586.392	29.95
586.586	29.09
586.78	28.76
586.974	28.48
587.168	29.16
587.363	28.99
587.557	29.22
587.751	28.81
587.945	28.14
588.139	27.63
588.333	27.41
588.527	27.54
588.721	27.16
588.915	26.98
589.109	27.3
589.303	26.98
589.497	26.58
589.691	26.95
589.885	26.99
590.079	28
590.273	28.63
590.466	28.98
590.66	28.77
590.854	29.3
591.048	29.85
591.242	29.92
591.436	29.77
591.629	30.93
591.823	30.39
592.017	30.48
592.211	30.26
592.404	30.4
592.598	30.25
592.792	30.49
592.986	31.56
593.179	32.03
593.373	31.96
593.567	32.62
593.76	32.26
593.954	32.12
594.147	32.19
594.341	32.33
594.535	31.72
594.728	31.38
594.922	31.68
595.115	31.32
595.309	30.94
595.502	31.23
595.696	30.78
595.889	30.98
596.083	31.45
596.276	31.21
596.47	31.69
596.663	32.2
596.856	32.27
597.05	32.37
597.243	32.22
597.437	32.47
597.63	32.12
597.823	32.03
598.017	32.09
598.21	32.06
598.403	32.18
598.596	31.13
598.79	31
598.983	31.65
599.176	30.85
599.369	31.76
599.563	31.22
599.756	31.35
599.949	31.53
600.142	30.89
600.335	30.26
600.528	30.48
600.722	30.95
600.915	30.52
601.108	30.07
601.301	30.7
601.494	30.33
601.687	30.25
601.88	30.14
602.073	29.89
602.266	30.61
602.459	30.91
602.652	30.91
602.845	30.69
603.038	31.72
603.231	31.24
603.424	30.87
603.617	30.39
603.809	30.4
604.002	29.8
604.195	30.05
604.388	29.83
604.581	29.67
604.774	29.88
604.966	29.18
605.159	28.62
605.352	28.69
605.545	28.21
605.737	28.73
605.93	28.83
606.123	30.7
606.316	30.79
606.508	30.77
606.701	30.3
606.894	31.04
607.086	31.12
607.279	30.59
607.471	31.1
607.664	31.3
607.857	31.75
608.049	31.77
608.242	30.57
608.434	30.96
608.627	30.85
608.819	31.46
609.012	30.67
609.204	30.78
609.397	30.88
609.589	31.02
609.782	31.49
609.974	30.97
610.166	30.74
610.359	31.3
610.551	30.98
610.743	30.73
610.936	30.28
611.128	29.77
611.32	30.34
611.513	30.38
611.705	29.98
611.897	29.05
612.09	28.37
612.282	28.83
612.474	28.45
612.666	28.53
612.858	29.04
613.051	30.26
613.243	30.2
613.435	29.5
613.627	29.57
613.819	29.89
614.011	30.42
614.203	30.25
614.395	28.92
614.588	29.33
614.78	29.32
614.972	28.61
615.164	27.97
615.356	28.15
615.548	28.43
615.74	28.58
615.932	28.81
616.124	29.27
616.315	29.9
616.507	31.58
616.699	31.16
616.891	31.16
617.083	32.32
617.275	32.86
617.467	32.6
617.659	33.14
617.85	33.44
618.042	32.62
618.234	32.6
618.426	31.6
618.618	31.37
618.809	31.35
619.001	31.26
619.193	30.48
619.384	29.29
619.576	28.99
619.768	28.27
619.959	27.81
620.151	28.06
620.343	27.61
620.534	28.06
620.726	28.26
620.917	28.09
621.109	28.05
621.301	27.56
621.492	28.19
621.684	29.97
621.875	30.8
622.067	31.01
622.258	31.3
622.45	31.7
622.641	32.14
622.832	31.48
623.024	31.96
623.215	31.2
623.407	31.45
623.598	31.79
623.789	30.63
623.981	30.29
624.172	30.46
624.363	30.13
624.555	30.07
624.746	30.78
624.937	31.04
625.129	30.56
625.32	30.91
625.511	30.45
625.702	29.82
625.893	29.21
626.085	29.58
626.276	29.61
626.467	30.18
626.658	30.35
626.849	29.64
627.04	30.1
627.231	31.52
627.422	31.49
627.614	32.43
627.805	31.65
627.996	33.68
628.187	32.52
628.378	32.47
628.569	31.96
628.76	32.33
628.951	32.26
629.142	32.16
629.332	30.71
629.523	30.48
629.714	29.49
629.905	30.91
630.096	29.87
630.287	29.81
630.478	29.96
630.669	30.82
630.859	29.99
631.05	30.16
631.241	30.57
631.432	30.32
631.623	30.65
631.813	30.84
632.004	31.38
632.195	30.96
632.385	32.06
632.576	32.06
632.767	31.27
632.957	30.46
633.148	30.72
633.339	29.98
633.529	30.32
633.72	30.37
633.91	31.36
634.101	29.82
634.292	29.78
634.482	29.38
634.673	28.87
634.863	29.19
635.054	30.5
635.244	30.18
635.435	30.37
635.625	29.22
635.815	28.63
636.006	27.77
636.196	28.67
636.387	29.03
636.577	29.52
636.767	30.22
636.958	29.67
637.148	28.9
637.338	28.16
637.529	27.85
637.719	29.86
637.909	30.19
638.099	30.57
638.29	29.46
638.48	29.15
638.67	28.3
638.86	27.97
639.05	28.4
639.241	28.44
639.431	29.48
639.621	29.28
639.811	28.49
640.001	28.81
640.191	29.3
640.381	30.66
640.571	30.09
640.761	30.15
640.951	30.85
641.141	30.96
641.331	31.46
641.521	30.85
641.711	30.77
641.901	31.02
642.091	31.15
642.281	30.04
642.471	29.14
642.661	29.67
642.851	29.81
643.041	28.07
643.231	27.85
643.42	27.66
643.61	28.05
643.8	28.22
643.99	27.05
644.18	26.52
644.369	27.06
644.559	27.39
644.749	26.53
644.939	26.69
645.128	27.03
645.318	27.09
645.508	26.96
645.697	26.53
645.887	26.17
646.076	28.15
646.266	28.32
646.456	28.27
646.645	28.78
646.835	29.84
647.024	29.61
647.214	29.99
647.403	30.13
647.593	30.39
647.782	30.07
647.972	30.72
648.161	29.77
648.351	30.44
648.54	31.17
648.73	30.44
648.919	30.84
649.108	30.94
649.298	30.5
649.487	28.85
649.677	28.75
649.866	28.39
650.055	28.18
650.244	28.69
650.434	27.43
650.623	27.19
650.812	27.35
651.002	27.32
651.191	27
651.38	27.63
651.569	28.47
651.758	28.33
651.947	28.43
652.137	27.73
652.326	27.39
652.515	27.81
652.704	27.81
652.893	28.22
653.082	27.22
653.271	27.6
653.46	27.44
653.649	27.43
653.838	28.73
654.027	29.15
654.216	29.26
654.405	29.08
654.594	29.72
654.783	29.98
654.972	30.07
655.161	32.58
655.35	32.71
655.539	32.14
655.728	32.38
655.916	30.88
656.105	31.15
656.294	31.42
656.483	30.82
656.672	30.39
656.86	30.08
657.049	29.19
657.238	27
657.427	26.97
657.615	27.09
657.804	27.23
657.993	27.86
658.181	27.92
658.37	27.46
658.559	26.84
658.747	27.24
658.936	26.18
659.125	26.79
659.313	26.85
659.502	26.96
659.69	26.79
659.879	25.78
660.067	25.27
660.256	24.77
660.444	25.4
660.633	25.76
660.821	24.34
661.01	24.66
661.198	24.69
661.387	25.3
661.575	25.69
661.763	25.56
661.952	26.38
662.14	27.4
662.328	29.26
662.517	29.76
662.705	31.11
662.893	32.04
663.082	33.09
663.27	33.1
663.458	32.7
663.646	31.52
663.834	33.25
664.023	32.91
664.211	31.82
664.399	29.94
664.587	29.51
664.775	28.9
664.963	28.9
665.152	27.51
665.34	26.85
665.528	26.98
665.716	27.55
665.904	26.94
666.092	27.53
666.28	27.75
666.468	27.59
666.656	26.05
666.844	26.83
667.032	26.85
667.22	27.33
667.408	27.47
667.596	27.94
667.784	28
667.971	27.44
668.159	26.86
668.347	27.07
668.535	28.28
668.723	30.25
668.911	29.76
669.098	27.95
669.286	27.04
669.474	28.72
669.662	28.57
669.849	27.56
670.037	26.05
670.225	26.94
670.413	26.94
670.6	23.8
670.788	22.4
670.976	20.35
671.163	22.21
671.351	22.61
671.538	21.51
671.726	22.66
671.913	22
672.101	23.98
672.289	23.03
672.476	22.38
672.664	23.93
672.851	24.7
673.039	25.65
673.226	25.57
673.413	25.79
673.601	25.72
673.788	23.52
673.976	24.85
674.163	25.25
674.35	26.42
674.538	27.2
674.725	28.06
674.912	28.52
675.1	29.73
675.287	31.1
675.474	31.09
675.662	29.82
675.849	30.31
676.036	30.49
676.223	28.75
676.411	28.35
676.598	28.77
676.785	28.19
676.972	27.04
677.159	27.38
677.346	26.67
677.533	26.84
677.721	28.43
677.908	28.22
678.095	28.46
678.282	29.5
678.469	29.48
678.656	27.83
678.843	27.68
679.03	27.65
679.217	28.08
679.404	27.58
679.591	27.48
679.778	27.67
679.964	27.83
680.151	28.06
680.338	27.25
680.525	27.34
680.712	29
680.899	29.17
681.086	30.02
681.272	29.3
681.459	27.44
681.646	27.97
681.833	25.66
682.02	25.55
682.206	24.26
682.393	24.46
682.58	24.11
682.766	22.98
682.953	24.25
683.14	23.56
683.326	24.84
683.513	26.68
683.7	27.41
683.886	28.28
684.073	27.56
684.259	26.22
684.446	25.93
684.632	26.13
684.819	28.34
685.005	27.24
685.192	27.32
685.378	25.3
685.565	25.81
685.751	24.06
685.938	23.95
686.124	23.67
686.31	24.74
686.497	25.71
686.683	26.49
686.87	23.1
687.056	22.16
687.242	21.48
687.429	20.12
687.615	19.69
687.801	20.47
687.987	20.92
688.174	21.67
688.36	23.31
688.546	23.3
688.732	23.75
688.918	24.49
689.105	23.99
689.291	23.47
689.477	23.89
689.663	24.06
689.849	23.92
690.035	22.76
690.221	22.51
690.407	23.44
690.593	22.91
690.779	22.88
690.965	23.57
691.151	24.86
691.337	25.42
691.523	25.73
691.709	26.21
691.895	26.57
692.081	27.29
692.267	27.53
692.453	26.49
692.639	27.58
692.825	24.59
693.011	24.83
693.196	25.84
693.382	26.35
693.568	25.04
693.754	23.97
693.94	23.82
694.125	24.69
694.311	24.21
694.497	24.43
694.682	24.49
694.868	25.25
695.054	25.69
695.239	24.05
695.425	24.47
695.611	25.9
695.796	25.93
695.982	25.3
696.168	25.03
696.353	25.96
696.539	26
696.724	24.92
696.91	24.95
697.095	24.39
697.281	25
697.466	25.5
697.652	25.34
697.837	25.24
698.023	25.46
698.208	25.13
698.393	25.1
698.579	24.38
698.764	24.81
698.949	25.44
699.135	25.84
699.32	25.14
699.505	23.21
699.691	23.53
699.876	23.6
700.061	23.43
700.246	23.78
700.432	24.99
700.617	25.52
700.802	25.12
700.987	24.22
701.172	21.77
701.358	22.06
701.543	23.04
701.728	22.95
701.913	23.99
702.098	22.97
702.283	21.14
702.468	15.32
702.653	16.96
702.838	14.66
703.023	15.78
703.208	19.45
703.393	18.14
703.578	18.78
703.763	19.51
703.948	17.24
704.133	18.55
704.318	21.68
704.503	24.42
704.688	23.2
704.873	26.54
705.057	26.38
705.242	25.09
705.427	27.52
705.612	27.18
705.797	27.24
705.981	27.91
706.166	30.6
706.351	29.47
706.536	29.95
706.72	29.54
706.905	28.08
707.09	28.8
707.274	30.03
707.459	29.56
707.644	29.23
707.828	30.54
708.013	33.21
708.197	32.16
708.382	31.53
708.567	31.58
708.751	32.87
708.936	32.77
709.12	32.77
709.305	31.85
709.489	31.33
709.673	33.2
709.858	32.26
710.042	33.15
710.227	32.05
710.411	31.75
710.596	32.29
710.78	29.93
710.964	31.01
711.149	29.26
711.333	29.39
711.517	29.78
711.702	28.7
711.886	30.11
712.07	28.8
712.254	27.32
712.438	29.85
712.623	26.57
712.807	29.05
712.991	29.29
713.175	31.31
713.359	32.62
713.544	31.94
713.728	33.37
713.912	29.26
714.096	26.77
714.28	27.03
714.464	24.17
714.648	27.41
714.832	27.48
715.016	27.41
715.2	25.82
715.384	23.37
715.568	25.69
715.752	25.66
715.936	28.39
716.12	31.38
716.304	31.44
716.488	32.98
716.671	32.2
716.855	30.45
717.039	30.13
717.223	30.86
717.407	32.44
717.59	30.99
717.774	30.72
717.958	30.69
718.142	28.74
718.325	26.46
718.509	24.9
718.693	23.39
718.877	24.62
719.06	23.75
719.244	24.34
719.428	24.72
719.611	24.51
719.795	23.83
719.978	21.88
720.162	22.46
720.345	25.37
720.529	24.69
720.713	27.55
720.896	25.06
721.08	26.69
721.263	25.85
721.446	23.84
721.63	22.22
721.813	19.43
721.997	19.76
722.18	19.91
722.364	20.48
722.547	24.45
722.73	21.26
722.914	21.86
723.097	20.56
723.28	17.35
723.464	19.29
723.647	22.49
723.83	22.22
724.013	22.22
724.197	20.99
724.38	19.05
724.563	14.87
724.746	16.75
724.929	16.09
725.112	15.81
725.296	18.58
725.479	18.55
725.662	18.34
725.845	19.8
726.028	20.41
726.211	20.94
726.394	22.38
726.577	25.64
726.76	28.43
726.943	29.17
727.126	30.47
727.309	31.03
727.492	29.46
727.675	29.26
727.858	30.21
728.041	30.73
728.224	28.85
728.407	30.46
728.589	32.07
728.772	29.63
728.955	29.51
729.138	28.69
729.321	28.62
729.503	27.81
729.686	27.6
729.869	25.21
730.052	23.49
730.234	25.94
730.417	23.52
730.6	21.77
730.782	20.46
730.965	20.21
731.148	19.27
731.33	18.67
731.513	20.04
731.695	19.75
731.878	21.91
732.061	23.2
732.243	23.39
732.426	22.54
732.608	21.71
732.791	22.51
732.973	25.09
733.156	24.48
733.338	22.31
733.52	23.36
733.703	25
733.885	25.56
734.068	25.54
734.25	28.98
734.432	35.14
734.615	34.75
734.797	36.08
734.979	33.66
735.162	36.29
735.344	37.86
735.526	39.71
735.708	40.44
735.891	40.28
736.073	40.68
736.255	35.13
736.437	34.81
736.619	34.89
736.802	37.3
736.984	40.21
737.166	39.43
737.348	40.23
737.53	36.93
737.712	34.44
737.894	32.53
738.076	32.31
738.258	34.04
738.44	33.56
738.622	34.53
738.804	29.62
738.986	27.02
739.168	30.54
739.35	32.75
739.532	34.84
739.714	36.24
739.896	36.07
740.078	35.43
740.259	35.23
740.441	32.08
740.623	33.41
740.805	35.25
740.987	33.88
741.168	29.4
741.35	30.78
741.532	30.77
741.714	28.41
741.895	30.98
742.077	31.93
742.259	31.2
742.44	34.83
742.622	31.22
742.804	34.35
742.985	37.17
743.167	38.83
743.348	38.56
743.53	36.71
743.711	41.39
743.893	41.07
744.075	37.87
744.256	37.56
744.438	35.72
744.619	36.82
744.8	36
744.982	38.24
745.163	37.21
745.345	33.87
745.526	35.01
745.707	34.33
745.889	31.66
746.07	33.03
746.252	34.03
746.433	33.71
746.614	36.58
746.795	36.97
746.977	36.31
747.158	33.94
747.339	34.51
747.52	35.75
747.702	33.16
747.883	35.43
748.064	37.43
748.245	35.96
748.426	37.61
748.607	38.84
748.788	40.96
748.97	37.34
749.151	38.31
749.332	38.16
749.513	36.6
749.694	37.8
749.875	36.81
750.056	34.13
750.237	34.82
750.418	29.42
750.599	23.24
750.78	15.83
750.96	19.94
751.141	17.49
751.322	16.35
751.503	18.19
751.684	17.29
751.865	19.15
752.046	23.22
752.226	22.9
752.407	24.48
752.588	26.3
752.769	26.05
752.949	20.19
753.13	23.82
753.311	27.15
753.492	27.91
753.672	27.24
753.853	28.07
754.034	27.62
754.214	25.95
754.395	31.86
754.575	32.04
754.756	34.56
754.937	43.53
755.117	43.22
755.298	40.01
755.478	34.72
755.659	33.68
755.839	32.18
756.02	32.98
756.2	36.78
756.381	30.8
756.561	33.59
756.741	38.37
756.922	28.78
757.102	31.29
757.283	36.46
757.463	38.46
757.643	39.31
757.823	39.09
758.004	36.08
758.184	33.64
758.364	34.14
758.545	35.02
758.725	28.65
758.905	29.98
759.085	27.46
759.265	24.99
759.446	19.46
759.626	19.37
759.806	14.23
759.986	13
760.166	10.52
760.346	13.88
760.526	10.22
760.706	12.05
760.886	17.37
761.066	16.66
761.246	14.26
761.426	19.8
761.606	25.24
761.786	27.16
761.966	26.93
762.146	25.89
762.326	25.89
762.506	25.22
762.686	25.83
762.866	24.12
763.046	23.29
763.225	25.1
763.405	23.7
763.585	17.66
763.765	17.06
763.945	16.46
764.124	17.92
764.304	19.6
764.484	20.62
764.664	23.4
764.843	26.35
765.023	30.17
765.203	30.83
765.382	32.01
765.562	34.43
765.741	39.69
765.921	42.47
766.101	45.86
766.28	45.15
766.46	41.49
766.639	35.89
766.819	32.39
766.998	34.56
767.178	34.83
767.357	35.05
767.537	36.29
767.716	33.97
767.896	33.41
768.075	35.92
768.254	37.18
768.434	39.52
768.613	44.18
768.792	44.88
768.972	45.82
769.151	44.27
769.33	45.8
769.51	46.93
769.689	47.15
769.868	45.34
770.047	39.64
770.226	38.06
770.406	36.95
770.585	33.31
770.764	31.94
770.943	28.33
771.122	28.4
771.301	28.62
771.48	25.23
771.66	20.25
771.839	24
772.018	21.61
772.197	22.91
772.376	21.88
772.555	21.75
772.734	22.22
772.913	14.52
773.092	15.98
773.271	27.47
773.449	27.82
773.628	34.02
773.807	32.16
773.986	33.01
774.165	32.94
774.344	37.52
774.523	40.05
774.701	35.48
774.88	42.53
775.059	40.84
775.238	33.61
775.417	37.99
775.595	34.98
775.774	40.48
775.953	41.32
776.131	45.25
776.31	44.53
776.489	48.31
776.667	53.41
776.846	55.58
777.025	57.77
777.203	55.31
777.382	49.88
777.56	51.01
777.739	53.95
777.917	55.58
778.096	43.59
778.274	45.17
778.453	38.79
778.631	39.98
778.81	33.8
778.988	33.15
779.166	27.36
779.345	23.51
779.523	24.64
779.702	18.98
779.88	14.92
780.058	18.47
780.237	22.08
780.415	23.22
780.593	18.17
780.771	20.66
780.95	17.03
781.128	15.92
781.306	24.28
781.484	36.57
781.662	37.79
781.841	45.61
782.019	41.35
782.197	38.66
782.375	38.66
782.553	39.14
782.731	38.37
782.909	42.29
783.087	48.07
783.265	42.34
783.443	26.41
783.621	20.77
783.799	10.16
783.977	17.35
784.155	14.28
784.333	20.03
784.511	25.69
784.689	34.18
784.867	37.76
785.045	37.56
785.223	35.12
785.4	40.84
785.578	49.03
785.756	53.99
785.934	54.3
786.112	50.97
786.289	49.16
786.467	46.8
786.645	43.98
786.823	43.69
787	41.77
787.178	43.27
787.356	38.35
787.533	33.82
787.711	34.16
787.889	31.41
788.066	40.1
788.244	38.3
788.421	42.88
788.599	41.68
788.776	42.36
788.954	46.68
789.131	44.7
789.309	43.36
789.486	43.34
789.664	40.87
789.841	39.67
790.019	24.07
790.196	27.15
790.373	22
790.551	14.16
790.728	2.37
790.906	1.06
791.083	23.74
791.26	19.2
791.437	20.39
791.615	8.96
791.792	5.81
791.969	17.89
792.146	3.87
792.324	-2.22
792.501	1.38
792.678	8.61
792.855	7.77
793.032	2.33
793.209	2.79
793.387	-3.53
793.564	7.03
793.741	21.09
793.918	25.49
794.095	35.52
794.272	32.55
794.449	28.12
794.626	32.19
794.803	38.34
794.98	34.63
795.157	37.65
795.334	45.92
795.511	41.86
795.688	38.24
795.864	37.89
796.041	34.6
796.218	37.16
796.395	36.05
796.572	37.87
796.749	22.64
796.925	24.83
797.102	27.43
797.279	29.22
797.456	27
797.632	27.22
797.809	24.79
797.986	24.01
798.162	25.41
798.339	25.8
798.516	14.43
798.692	28.28
798.869	23.58
799.046	25.4
799.222	19.44
799.399	25.29
799.575	26.2
799.752	27.62
799.928	38.87
800.105	37.84
800.281	47.05
800.458	54.1
800.634	52.81
800.811	52.74
800.987	50.61
801.163	49.87
801.34	41.19
801.516	41.59
801.692	35.47
801.869	26.67
802.045	20.99
802.221	20.99
802.398	14.43
802.574	13.54
802.75	14.38
802.926	9.41
803.103	14.14
803.279	18.81
803.455	15.7
803.631	15.64
803.807	15.75
803.983	31.28
804.16	33.48
804.336	30.01
804.512	28.14
804.688	27.19
804.864	25.05
805.04	12.75
805.216	20.9
805.392	14.91
805.568	28.61
805.744	23.24
805.92	21
806.096	23.48
806.272	34.41
806.448	31.29
806.623	20.32
806.799	26.85
806.975	33.43
807.151	31.77
807.327	34.2
807.503	22.93
807.678	29.17
807.854	11.49
808.03	8.26
808.206	11.76
808.381	23.25
808.557	40.12
808.733	39.65
808.908	40.29
809.084	30.51
809.26	24.21
809.435	23.52
809.611	16.02
809.787	35.27
809.962	18.12
810.138	6.49
810.313	-18.9
810.489	-13.81
810.664	-21.77
810.84	-27.78
811.015	-12.17
811.191	-1.78
811.366	-8.23
811.542	-8.23
811.717	0.92
811.892	9.96
812.068	17.3
812.243	46.32
812.419	39.19
812.594	37.36
812.769	32.61
812.944	34.08
813.12	31.54
813.295	39.66
813.47	35.08
813.645	20.54
813.821	26.24
813.996	30.04
814.171	23.05
814.346	40.22
814.521	46.95
814.697	41.52
814.872	30.48
815.047	22.82
815.222	23.09
815.397	30.67
815.572	46.53
815.747	43.4
815.922	44.28
816.097	42.57
816.272	35.07
816.447	20.15
816.622	21.65
816.797	23.52
816.972	27.24
817.147	28.13
817.322	29.63
817.496	26.76
817.671	18.67
817.846	12.56
818.021	16.49
818.196	10.01
818.371	16.75
818.545	14.24
818.72	12.2
818.895	10.81
819.069	5.7
819.244	1.92
819.419	8.9
819.594	12.48
819.768	17.52
819.943	17.63
820.117	19.91
820.292	19.61
820.467	23.22
820.641	24.99
820.816	25.31
820.99	25.49
821.165	25.16
821.339	22.89
821.514	24.19
821.688	22.89
821.863	22.29
822.037	22.16
822.212	22.93
822.386	22.19
822.56	21.64
822.735	21.09
822.909	20.45
823.084	22.26
823.258	22
823.432	20.03
823.606	24.48
823.781	27.39
823.955	28.15
824.129	24.74
824.303	23.03
824.478	22.66
824.652	24.35
824.826	27.35
825	27.02
825.174	27.01
825.348	25.42
825.523	20.17
825.697	16.37
825.871	18.03
826.045	21.48
826.219	24.29
826.393	25.36
826.567	22.11
826.741	19.95
826.915	19.34
827.089	22.7
827.263	23.85
827.437	25.15
827.611	28.49
827.784	30.67
827.958	27.94
828.132	22.65
828.306	14.03
828.48	13.56
828.654	21.01
828.827	14.89
829.001	14.49
829.175	23.2
829.349	21.09
829.522	27.3
829.696	16.04
829.87	14.63
830.044	0.89
830.217	17.84
830.391	21.19
830.565	18.8
830.738	26.88
830.912	21.9
831.085	18.08
831.259	9.98
831.432	1.5
831.606	2.1
831.779	-0.69
831.953	15.34
832.126	17.76
832.3	19.06
832.473	22.92
832.647	21.15
832.82	20.77
832.994	19.7
833.167	24.41
833.34	24.17
833.514	24.83
833.687	36.02
833.86	33.14
834.034	30.02
834.207	28.52
834.38	26.55
834.553	31.49
834.727	33.07
834.9	29.07
835.073	29.2
835.246	32.12
835.419	30.44
835.593	10.54
835.766	25.68
835.939	18.42
836.112	21.86
836.285	-14.22
836.458	-1.68
836.631	-18.51
836.804	13.31
836.977	4.44
837.15	-14.2
837.323	-18.92
837.496	4.31
837.669	-30.36
837.842	2.16
838.015	-0.9
838.188	-0.78
838.361	-10.81
838.533	-7.61
838.706	-20.61
838.879	-11.18
839.052	-6.62
839.225	6.37
839.398	11.3
839.57	11.83
839.743	19.55
839.916	27.22
840.088	34.29
840.261	34.94
840.434	23.41
840.607	24.16
840.779	26.52
840.952	25.13
841.124	13.98
841.297	13.31
841.47	-13.04
841.642	-4.95
841.815	-28.14
841.987	-35.89
842.16	-68.4
842.332	-8.52
842.505	9.37
842.677	10.69
842.85	-4.07
843.022	25.09
843.194	-3.06
843.367	14.45
843.539	-4.82
843.712	-3.09
843.884	2.79
844.056	14.93
844.229	-13.74
844.401	-38.02
844.573	-68.52
844.745	-40
844.918	-156.79
845.09	-120.45
845.262	-61.08
845.434	-62.98
845.606	-184.82
845.779	452.27
845.951	-5675
846.123	370.59
846.295	42.86
846.467	-173.68
846.639	-234.78
846.811	179.55
846.983	-32.31
847.155	-163.75
847.327	-113.21
847.499	-16.35
847.671	-7.1
847.843	-87.73
848.015	-93.72
848.187	-90.61
848.359	-71.46
848.531	-151.56
848.703	-235
848.875	-132.48
849.047	-462.5
849.218	-1262.5
849.39	254.32
849.562	-1960
849.734	-328.57
849.905	1171.43
850.077	-25.68
850.249	-25.71
850.421	377.78
850.592	229.27
850.764	61.45
850.936	32.18
851.107	13.42
851.279	44.91
851.451	24.05
851.622	-25.14
851.794	-14.52
851.965	-93.25
852.137	-140.99
852.308	-4300
852.48	544.44
852.651	274.35
852.823	373.81
852.994	1955.56
853.166	-7950
853.337	2319.44
853.509	-405.03
853.68	-22175
853.851	-884.44
854.023	-481.12
854.194	-478.81
854.365	-149.06
854.537	-113.38
854.708	-146.74
854.879	-122.86
855.05	-161
855.222	-62.37
855.393	-95.51
855.564	-28.08
855.735	5.41
855.906	-3.52
856.078	25.88
856.249	24.51
856.42	39.32
856.591	27.81
856.762	378.95
856.933	173.08
857.104	45.33
857.275	-525
857.446	-146.15
857.617	2150
857.788	-4500
857.959	-35.43
858.13	-544.9
858.301	-129.07
858.472	-88.33
858.643	-23.19
858.814	-27.69
858.985	-34.51
859.155	-115.1
859.326	-230.69
859.497	-56.22
859.668	-170.37
859.839	-291.96
860.009	-163.69
860.18	-107.17
860.351	-58.39
860.522	-15.46
860.692	-28.75
860.863	-79.54
861.034	-67.84
861.204	20.38
861.375	-114.73
861.546	26.86
861.716	-5.78
861.887	33.83
862.057	-2.94
862.228	-161.9
862.398	39.22
862.569	-31.37
862.739	131.82
862.91	53.26
863.08	-4014.29
863.251	1476.19
863.421	520
863.592	4987.5
863.762	741.56
863.932	-1187.8
864.103	1273.33
864.273	-542.11
864.443	-507.14
864.614	-159.2
864.784	-97.31
864.954	-5.01
865.125	27.97
865.295	22.9
865.465	30.5
865.635	55.31
865.805	40.31
865.976	52.93
866.146	45.42
866.316	34.39
866.486	42.27
866.656	33.29
866.826	45.69
866.996	48.07
867.166	59.81
867.336	57.97
867.506	61.5
867.676	56.02
867.846	68.65
868.016	38.05
868.186	62.86
868.356	174.7
868.526	148.48
868.696	58.82
868.866	117.91
869.036	344.44
869.206	-537.84
869.376	859.26
869.545	-596
869.715	-395.24
869.885	-11.76
870.055	23.93
870.224	-23.28
870.394	-97.52
870.564	-193.02
870.734	-320.54
870.903	-127.31
871.073	-190.85
871.243	-136.56
871.412	-115.6
871.582	-538.04
871.751	2340.91
871.921	391.14
872.091	149.9
872.26	142.48
872.43	144.26
872.599	145.82
872.769	135.49
872.938	172.57
873.108	116.3
873.277	113.71
873.446	-15.38
873.616	98.92
873.785	24.51
873.955	59.62
874.124	79.75
874.293	95.36
874.463	-37.84
874.632	140.58
874.801	65.45
874.971	104.36
875.14	122.03
875.309	100.81
875.478	218.68
875.647	117.33
875.817	143.23
875.986	119.05
876.155	-22800
876.324	-117.42
876.493	-71.7
876.662	-67.35
876.831	39.01
877	40.88
877.17	25.17
877.339	34.38
877.508	1.08
877.677	0
877.846	1262.5
878.015	210
878.184	81.36
878.352	-2100
878.521	116.18
878.69	60.67
878.859	70.97
879.028	87.02
879.197	83.16
879.366	64.07
879.534	51.81
879.703	56.04
879.872	35.75
880.041	35.91
880.21	32.03
880.378	34.68
880.547	24.2
880.716	24.57
880.884	18.66
881.053	14.19
881.222	14.58
881.39	9.03
881.559	13.11
881.727	20.24
881.896	11.84
882.065	3.78
882.233	-7.82
882.402	-7.5
882.57	-20.87
882.739	-20.79
882.907	-21.43
883.076	-25.77
883.244	-13.88
883.412	-26.21
883.581	-19.32
883.749	-14.62
883.918	-22.87
884.086	-7.06
884.254	-4.9
884.423	2.19
884.591	19.9
884.759	53.1
884.927	49.88
885.096	48.24
885.264	41.2
885.432	23.88
885.6	24.14
885.769	42.01
885.937	46.59
886.105	29.39
886.273	43.9
886.441	31.52
886.609	-13.73
886.777	-16.85
886.945	-9.63
887.113	4.02
887.281	7.9
887.449	17.19
887.617	-18.56
887.785	-16.79
887.953	-10.77
888.121	-81.48
888.289	-85
888.457	-92.31
888.625	-42.86
888.793	313.16
888.961	-340.63
889.129	-1441.67
889.296	-209.37
889.464	1.92
889.632	-76.92
889.8	-22.22
889.967	8.02
890.135	-2.97
