Data from JASIL_3335_Reflection_2.txt Node
Date: Tue Nov 17 20:20:44 EST 2015
User: Geneva
Spectrometer: USB4E03002
Autoset integration time: false
Trigger mode: 4
Integration Time (sec): 1.000000E-1
Scans to average: 10
Electric dark correction enabled: false
Nonlinearity correction enabled: false
Boxcar width: 5
Stray light correction enabled: false
XAxis mode: Wavelengths
Stop averaging: false
Number of Pixels in Spectrum: 3648
>>>>>Begin Spectral Data<<<<<
177.575	-415.84
177.794	-576.09
178.014	-713.48
178.233	-1356.6
178.452	-1305
178.672	-733.07
178.891	-1779.31
179.11	10670
179.33	2517.39
179.549	2503.92
179.768	-11490.91
179.987	967.42
180.207	495.08
180.426	888.36
180.645	1109.6
180.864	8200
181.084	891.57
181.303	675
181.522	850
181.741	763.48
181.96	1269.7
182.179	7041.18
182.398	-1341.56
182.618	-529.35
182.837	-385.71
183.056	-435.52
183.275	-338.89
183.494	-95.12
183.713	-53.02
183.932	-49.37
184.151	-31.73
184.37	-30.74
184.589	-25.33
184.808	-13.51
185.027	0.15
185.246	-36.96
185.465	-22.75
185.684	-75.65
185.903	-166.67
186.122	-308.75
186.341	-657.52
186.56	-478.57
186.779	-3096.3
186.998	-433.33
187.216	-530.56
187.435	-586.06
187.654	-533.94
187.873	-394.64
188.092	-484.62
188.311	-606.43
188.53	-325.54
188.748	-152.29
188.967	-195.96
189.186	-97.95
189.405	-223.28
189.623	-155.94
189.842	-153.07
190.061	-146.68
190.28	-87.52
190.498	-126.14
190.717	-77.08
190.936	-84.83
191.154	-259.89
191.373	-552.87
191.592	1476.74
191.81	678.64
192.029	756.84
192.248	384.31
192.466	421.55
192.685	177.47
192.904	366.34
193.122	290.11
193.341	423.53
193.559	515.25
193.778	589.5
193.996	498.1
194.215	1198.55
194.433	616.43
194.652	669.93
194.87	543.12
195.089	601.54
195.307	1280.7
195.526	-663.27
195.744	-401.44
195.963	-522
196.181	-597.52
196.399	-936.78
196.618	1230.26
196.836	717.02
197.055	696.62
197.273	904.48
197.491	1180.18
197.71	540.87
197.928	469.54
198.146	428.08
198.365	2173.81
198.583	1609.52
198.801	-728.23
199.019	-209.01
199.238	-145.64
199.456	-101.03
199.674	-88.46
199.892	-48.54
200.111	-79.11
200.329	-111.56
200.547	-216.67
200.765	1786.27
200.983	-591.45
201.202	947.37
201.42	359.29
201.638	266.5
201.856	447.86
202.074	708
202.292	424.29
202.51	342.94
202.728	412.54
202.946	3342.86
203.165	1611.54
203.383	379.42
203.601	555.33
203.819	849.09
204.037	-2657.58
204.255	-3318.52
204.473	-569.93
204.691	-477.06
204.909	-343.81
205.127	-1529.17
205.345	404.24
205.562	-472.09
205.78	-80.85
205.998	-50.68
206.216	-47.12
206.434	-89.01
206.652	-115.29
206.87	-208.98
207.088	-152.86
207.306	-245.66
207.523	-211.31
207.741	-172.09
207.959	-309.91
208.177	-409.84
208.395	-399.51
208.612	-431.48
208.83	-298.76
209.048	-293.88
209.266	-270.44
209.483	-182.12
209.701	-214.73
209.919	-177.28
210.136	-198.8
210.354	-211.19
210.572	-257.14
210.79	-313.33
211.007	-647.89
211.225	-6020
211.442	1532.2
211.66	4032
211.878	380.73
212.095	581.15
212.313	872.03
212.53	488.63
212.748	401.59
212.966	272.75
213.183	304.67
213.401	-3805.56
213.618	-213.49
213.836	-180.2
214.053	-260.09
214.271	-161.86
214.488	-181.25
214.705	-191.63
214.923	-137.09
215.14	-79.21
215.358	-67.46
215.575	-54.95
215.793	-102.14
216.01	-290.52
216.227	-445.69
216.445	-288.19
216.662	-121.98
216.879	-137.83
217.097	-30.23
217.314	-63.81
217.531	4012.5
217.749	435.64
217.966	295.6
218.183	169.9
218.4	223.23
218.618	246.05
218.835	191.16
219.052	166.91
219.269	201.35
219.487	145.32
219.704	142.48
219.921	142.96
220.138	156.55
220.355	141.55
220.572	126.83
220.79	124.3
221.007	161.85
221.224	236.12
221.441	264.39
221.658	269.23
221.875	-648.57
222.092	-377.27
222.309	1363.64
222.526	324.24
222.743	323.67
222.96	430.22
223.177	1367.44
223.394	822.37
223.611	459.44
223.828	301.2
224.045	202.61
224.262	205.28
224.479	191.29
224.696	336.54
224.913	547.93
225.13	452.83
225.347	339.31
225.564	195.22
225.781	125.1
225.997	104.65
226.214	103.61
226.431	102.6
226.648	88.59
226.865	65.99
227.082	47.96
227.298	51.68
227.515	47.07
227.732	52.61
227.949	49.84
228.165	47.32
228.382	43.92
228.599	38.77
228.816	38.21
229.032	40.47
229.249	51.58
229.466	65.86
229.682	62.45
229.899	72.9
230.116	75.06
230.332	78.55
230.549	82.77
230.765	78.95
230.982	67.31
231.199	66.21
231.415	64.57
231.632	70.45
231.848	50.77
232.065	53.83
232.281	39.53
232.498	33.91
232.714	31.51
232.931	41.01
233.147	46.24
233.364	67.32
233.58	78.38
233.797	70.06
234.013	62.18
234.23	89.43
234.446	89.06
234.662	105.06
234.879	144.76
235.095	120
235.312	92.92
235.528	111.06
235.744	126.45
235.961	121.97
236.177	100.85
236.393	105.11
236.61	42.12
236.826	67.07
237.042	52.87
237.258	50
237.475	62.56
237.691	74.62
237.907	57.19
238.123	57.17
238.339	59.09
238.556	75.89
238.772	64.18
238.988	64.65
239.204	53.99
239.42	59.37
239.636	48.13
239.853	47
240.069	42.46
240.285	36.47
240.501	30.89
240.717	29.55
240.933	27.91
241.149	29.89
241.365	27.55
241.581	25.45
241.797	28.46
242.013	29.85
242.229	27.47
242.445	25.95
242.661	24.42
242.877	28.37
243.093	30.9
243.309	29.35
243.525	30.76
243.741	37.93
243.957	35.43
244.173	28.07
244.388	30.42
244.604	29.58
244.82	27.59
245.036	28.12
245.252	23.86
245.468	24.46
245.683	23.48
245.899	18.45
246.115	17.87
246.331	18.16
246.547	19.07
246.762	19.36
246.978	17.38
247.194	18.99
247.409	19.3
247.625	19.82
247.841	17.57
248.057	18.88
248.272	23.05
248.488	19.46
248.703	19.82
248.919	21
249.135	18.7
249.35	22.07
249.566	23.64
249.782	23.98
249.997	24.63
250.213	26.62
250.428	26.15
250.644	25.55
250.859	25.27
251.075	21.98
251.29	21.05
251.506	22.68
251.721	26.86
251.937	23.14
252.152	23.6
252.368	25.95
252.583	22.05
252.798	19.34
253.014	17.77
253.229	20.7
253.445	29.08
253.66	35.47
253.875	31
254.091	16.08
254.306	19.56
254.521	10.3
254.737	8.05
254.952	14.54
255.167	16.55
255.383	15.77
255.598	17.75
255.813	11.56
256.028	2.63
256.244	8.9
256.459	17.51
256.674	21.01
256.889	21.39
257.104	16.62
257.32	14.42
257.535	14.71
257.75	15.68
257.965	11.59
258.18	11.18
258.395	12.06
258.61	11.07
258.826	8.41
259.041	8.23
259.256	8.13
259.471	8.94
259.686	9.36
259.901	8.72
260.116	8.21
260.331	12.72
260.546	15.23
260.761	15.2
260.976	17.33
261.191	21.74
261.406	19.73
261.621	19.73
261.836	24.72
262.05	23.26
262.265	25.14
262.48	24.38
262.695	19.86
262.91	12.11
263.125	11.25
263.34	2.4
263.555	-2.91
263.769	-2.99
263.984	-2.65
264.199	-3.86
264.414	0.35
264.629	-2.18
264.843	1.82
265.058	2.04
265.273	3.12
265.488	4.89
265.702	9.66
265.917	13.07
266.132	13.8
266.346	16.93
266.561	17.72
266.776	17.7
266.99	16.99
267.205	15.21
267.42	13.19
267.634	13.95
267.849	12.59
268.063	8.35
268.278	7.8
268.492	6.2
268.707	6.29
268.922	4.6
269.136	4.42
269.351	7.54
269.565	9.25
269.78	10.2
269.994	13.36
270.209	13.09
270.423	15.12
270.637	12.47
270.852	14.15
271.066	13.8
271.281	13.73
271.495	13.37
271.709	13.38
271.924	11.66
272.138	12.57
272.353	11.81
272.567	13.29
272.781	12.08
272.996	14.04
273.21	13.95
273.424	13.36
273.638	14.14
273.853	15.47
274.067	14.09
274.281	15.19
274.495	14.19
274.71	13.94
274.924	12.89
275.138	14.65
275.352	14.18
275.566	14.32
275.781	13.22
275.995	11.23
276.209	7.55
276.423	6.93
276.637	9.27
276.851	8.26
277.065	8.18
277.279	7.79
277.493	7.2
277.707	4.69
277.921	4.66
278.135	7.49
278.349	6.79
278.563	8.88
278.777	9.62
278.991	10.34
279.205	12.42
279.419	10.14
279.633	9.18
279.847	10.37
280.061	12.06
280.275	12.87
280.489	9.18
280.703	10.13
280.917	11.37
281.131	10.6
281.344	9.86
281.558	8.19
281.772	7.8
281.986	10.35
282.2	8.74
282.414	9.46
282.627	8.95
282.841	10.36
283.055	8.67
283.269	7.02
283.482	6.98
283.696	6.67
283.91	6.15
284.123	6.98
284.337	7.18
284.551	8
284.764	6.73
284.978	6.37
285.192	6.49
285.405	7.36
285.619	8.38
285.833	9.78
286.046	11.29
286.26	13.28
286.473	15.45
286.687	15.17
286.9	14.77
287.114	15.41
287.327	15.36
287.541	15.25
287.754	16.97
287.968	18.41
288.181	17.46
288.395	15.36
288.608	14.4
288.822	12.68
289.035	11.73
289.248	11.32
289.462	10.75
289.675	8.95
289.889	9.79
290.102	9.01
290.315	7.6
290.529	7.95
290.742	6.82
290.955	9.01
291.169	9.86
291.382	9.87
291.595	11.26
291.808	12.87
292.022	16.55
292.235	15.81
292.448	16.19
292.661	17.21
292.875	17.42
293.088	19.39
293.301	17.65
293.514	16.34
293.727	15.19
293.94	13.54
294.153	12.37
294.367	11.14
294.58	11.22
294.793	10.37
295.006	8.91
295.219	8.4
295.432	6.92
295.645	7.94
295.858	9.03
296.071	9.91
296.284	10.6
296.497	10.85
296.71	11.46
296.923	10.67
297.136	10.21
297.349	11.5
297.562	11.29
297.775	11.51
297.988	9.21
298.201	9.54
298.414	11.1
298.626	9.48
298.839	10.03
299.052	9.51
299.265	13.2
299.478	14.94
299.691	15.1
299.903	15.41
300.116	14.37
300.329	14.35
300.542	14.47
300.755	13.41
300.967	14.29
301.18	13.11
301.393	12.7
301.605	8.1
301.818	7.77
302.031	7.78
302.243	6.39
302.456	7.22
302.669	9.08
302.881	7.46
303.094	7.58
303.307	7.35
303.519	10.32
303.732	10.56
303.944	13.45
304.157	14.05
304.37	15.05
304.582	18.06
304.795	19.35
305.007	19.46
305.22	19.53
305.432	19.49
305.645	19.55
305.857	16.3
306.069	15.61
306.282	12.51
306.494	11.03
306.707	10.17
306.919	8.32
307.132	8.03
307.344	8.47
307.556	8.99
307.769	8.53
307.981	9.36
308.193	9.44
308.406	8.95
308.618	10.25
308.83	10.72
309.043	9.54
309.255	8.88
309.467	7.64
309.679	6.05
309.892	6.81
310.104	7.81
310.316	8.85
310.528	9.71
310.74	9.1
310.953	9.55
311.165	8.56
311.377	10.24
311.589	11.43
311.801	11.61
312.013	12.73
312.225	10.93
312.437	8.97
312.649	6.88
312.862	5.99
313.074	7.09
313.286	7.44
313.498	8.18
313.71	6.97
313.922	5.78
314.134	6.79
314.346	7.14
314.558	8.55
314.77	9.78
314.982	11.86
315.193	11.98
315.405	13.91
315.617	12.1
315.829	13.33
316.041	12.91
316.253	13.38
316.465	13.93
316.677	13.68
316.888	15.34
317.1	13.73
317.312	14.41
317.524	15.97
317.736	16.48
317.947	16.56
318.159	16.6
318.371	17.72
318.583	17.77
318.794	19.03
319.006	19.99
319.218	18.84
319.43	21.34
319.641	22.3
319.853	22.85
320.064	20.09
320.276	22.31
320.488	22.64
320.699	20.69
320.911	19.44
321.123	17.32
321.334	16.72
321.546	14.59
321.757	14.84
321.969	13.09
322.18	11.58
322.392	12.38
322.603	10.61
322.815	9.55
323.026	9.33
323.238	9.66
323.449	8.76
323.661	8.6
323.872	9.55
324.083	9.47
324.295	8.6
324.506	9.32
324.718	7.61
324.929	9.2
325.14	11.15
325.352	11.72
325.563	12.21
325.774	13.35
325.986	13.01
326.197	13.29
326.408	13.47
326.62	14.24
326.831	15.64
327.042	16.48
327.253	17.17
327.464	15.63
327.676	16.25
327.887	17.4
328.098	19.48
328.309	19.42
328.52	20.47
328.732	21.61
328.943	22.6
329.154	20.43
329.365	20.99
329.576	20.23
329.787	23.06
329.998	22.97
330.209	23.68
330.42	21.06
330.631	22.67
330.842	23.56
331.053	21.75
331.264	21.88
331.475	23.26
331.686	24.46
331.897	24
332.108	22.67
332.319	22.48
332.53	21.21
332.741	22.23
332.952	20.67
333.163	19.39
333.374	21.39
333.585	21.23
333.795	22.46
334.006	22.77
334.217	24.77
334.428	23
334.639	22.28
334.849	22.26
335.06	23.08
335.271	24.28
335.482	24.49
335.692	23.65
335.903	22.02
336.114	21.46
336.325	21.55
336.535	21.03
336.746	21.28
336.957	21.18
337.167	21.49
337.378	21.17
337.589	20.29
337.799	19.66
338.01	18.93
338.22	19.43
338.431	18.32
338.642	17.83
338.852	15.99
339.063	16.13
339.273	17.65
339.484	17.03
339.694	15.31
339.905	15.64
340.115	16.47
340.326	17.15
340.536	16.52
340.746	16.54
340.957	17.18
341.167	19.3
341.378	19.27
341.588	18.76
341.799	19.04
342.009	19.52
342.219	19.09
342.43	19.83
342.64	18.6
342.85	20.13
343.061	20.51
343.271	19.7
343.481	18.33
343.691	17.78
343.902	17.94
344.112	18.9
344.322	18.45
344.532	19.18
344.743	18.7
344.953	18.82
345.163	17.98
345.373	17.76
345.583	17.33
345.793	18.5
346.004	19.29
346.214	19.96
346.424	18.46
346.634	19.61
346.844	21.5
347.054	21.69
347.264	22
347.474	21.75
347.684	21.44
347.894	21.66
348.104	19.49
348.314	20.27
348.524	19.09
348.734	21
348.944	19.89
349.154	16.88
349.364	16.12
349.574	15.04
349.784	15.62
349.994	16.29
350.204	15.04
350.413	14.75
350.623	14.02
350.833	15.2
351.043	14.29
351.253	16.56
351.463	16.32
351.672	15.8
351.882	15.65
352.092	16.74
352.302	17.27
352.511	18.04
352.721	18.17
352.931	17.46
353.141	17.35
353.35	18.29
353.56	17.2
353.77	17.41
353.979	18.72
354.189	20
354.399	18.94
354.608	18.13
354.818	18.33
355.027	19.28
355.237	20.55
355.447	20.25
355.656	18.45
355.866	18.06
356.075	18.96
356.285	19.14
356.494	19.08
356.704	19.69
356.913	19.47
357.123	19.36
357.332	18.93
357.542	18.41
357.751	18.05
357.96	18.99
358.17	18.87
358.379	17.9
358.589	16.52
358.798	16.73
359.007	16.6
359.217	16.51
359.426	16.28
359.635	16.3
359.845	16.85
360.054	16.39
360.263	15.93
360.472	15.95
360.682	16.98
360.891	16.93
361.1	16.14
361.309	16.35
361.519	16.04
361.728	16.62
361.937	17.02
362.146	16.58
362.355	16.98
362.564	16.16
362.774	16.27
362.983	15.01
363.192	15.57
363.401	16.97
363.61	16.11
363.819	17.32
364.028	16.54
364.237	16.25
364.446	15.95
364.655	15.05
364.864	16.42
365.073	16.19
365.282	16.1
365.491	16.08
365.7	16.48
365.909	15.09
366.118	14.48
366.327	15.12
366.536	14.04
366.745	14.16
366.954	14.54
367.162	14.43
367.371	14.63
367.58	16.13
367.789	16.35
367.998	15.23
368.207	16.28
368.415	16.11
368.624	16.1
368.833	17.44
369.042	17.69
369.25	17.61
369.459	17.46
369.668	16.96
369.877	16.14
370.085	16.06
370.294	15.6
370.503	16.16
370.711	15.41
370.92	15.71
371.129	15.38
371.337	14.11
371.546	13.75
371.754	14.08
371.963	13.94
372.171	13.16
372.38	11.78
372.589	11.98
372.797	11.61
373.006	12.98
373.214	11.78
373.423	11.09
373.631	12.25
373.84	12.22
374.048	12.3
374.256	12.4
374.465	13.8
374.673	15.52
374.882	14.86
375.09	14.77
375.298	13.9
375.507	14.04
375.715	14.27
375.923	13.83
376.132	14.38
376.34	13.46
376.548	14.2
376.757	13.17
376.965	12.25
377.173	12.44
377.381	12.73
377.59	13.13
377.798	14.05
378.006	13.21
378.214	13.84
378.423	13.44
378.631	14.52
378.839	14.09
379.047	15.14
379.255	16.34
379.463	16.29
379.671	16.41
379.879	15.67
380.088	14.83
380.296	16.32
380.504	15.92
380.712	15.62
380.92	14.54
381.128	15.08
381.336	14.48
381.544	12.97
381.752	13.37
381.96	13.03
382.168	12.88
382.376	13.37
382.584	12.41
382.791	11.72
382.999	12.16
383.207	12.01
383.415	11.64
383.623	11.82
383.831	11.69
384.039	10.72
384.247	10.43
384.454	11
384.662	10.65
384.87	11.52
385.078	11.61
385.285	11.2
385.493	12.4
385.701	12.6
385.909	12.12
386.116	12.66
386.324	12.55
386.532	11.92
386.739	11.95
386.947	11.8
387.155	11.18
387.362	11.13
387.57	11.25
387.778	9.94
387.985	8.04
388.193	8.62
388.4	8.44
388.608	9.23
388.816	10.52
389.023	10.97
389.231	11.48
389.438	11.36
389.646	12.43
389.853	12.66
390.061	13.43
390.268	14.49
390.475	13.63
390.683	13.23
390.89	12.94
391.098	12.39
391.305	11.33
391.512	11.36
391.72	11.6
391.927	11.4
392.135	11.03
392.342	10.53
392.549	10.39
392.756	11.04
392.964	10.99
393.171	11.74
393.378	11.65
393.586	12.16
393.793	11.68
394	11.76
394.207	11.03
394.414	12.02
394.622	12.04
394.829	12.46
395.036	12.5
395.243	13.22
395.45	13.23
395.657	13.53
395.864	14.22
396.072	14.63
396.279	14.46
396.486	14.49
396.693	13.45
396.9	13.62
397.107	13.6
397.314	13.54
397.521	13.46
397.728	13.12
397.935	12.71
398.142	12.35
398.349	11.7
398.556	12
398.763	11.85
398.97	12.58
399.177	12.64
399.383	12.8
399.59	12.84
399.797	12.59
400.004	12.79
400.211	12.75
400.418	12.52
400.625	13.02
400.831	12.91
401.038	13.08
401.245	12.93
401.452	12.45
401.658	12.41
401.865	11.94
402.072	11.71
402.279	11.09
402.485	11.93
402.692	11.94
402.899	11.49
403.105	11.04
403.312	11.09
403.519	10.97
403.725	11.07
403.932	10.54
404.138	10.65
404.345	11.02
404.552	11.39
404.758	11.03
404.965	10.47
405.171	10.55
405.378	11.7
405.584	12.11
405.791	11.94
405.997	11.91
406.204	12.77
406.41	12.99
406.617	12.57
406.823	12.26
407.029	12.14
407.236	12.81
407.442	12.9
407.649	11.7
407.855	11.28
408.061	11.58
408.268	11.88
408.474	11.26
408.68	10.8
408.887	11.47
409.093	12.12
409.299	12.2
409.505	11.74
409.712	11.81
409.918	12.34
410.124	11.57
410.33	11.5
410.537	11.21
410.743	10.94
410.949	11.28
411.155	10.73
411.361	9.8
411.567	9.16
411.773	9.55
411.98	9.98
412.186	10.23
412.392	11.11
412.598	11.27
412.804	10.98
413.01	11.19
413.216	10.9
413.422	11.36
413.628	12.16
413.834	12.84
414.04	12.27
414.246	11.71
414.452	10.66
414.658	10.09
414.864	10.29
415.07	10.39
415.275	10.02
415.481	10.33
415.687	10.09
415.893	9.69
416.099	9.78
416.305	9.79
416.511	9.61
416.716	10.1
416.922	10.62
417.128	9.94
417.334	10.24
417.539	10.52
417.745	10.57
417.951	9.9
418.157	10.42
418.362	10.53
418.568	10.71
418.774	10.62
418.979	10.63
419.185	10.51
419.391	10.71
419.596	10.54
419.802	10.73
420.008	10.21
420.213	10.88
420.419	10.57
420.624	10.36
420.83	10.48
421.035	10.84
421.241	10.81
421.446	10.86
421.652	11.03
421.857	11.03
422.063	10.97
422.268	11.33
422.474	10.85
422.679	10.85
422.885	10.81
423.09	10.64
423.295	10.44
423.501	10.35
423.706	10.27
423.911	10.05
424.117	10.2
424.322	10.07
424.527	9.85
424.733	10.12
424.938	10.07
425.143	9.9
425.349	9.7
425.554	9.57
425.759	9.8
425.964	9.83
426.169	9.99
426.375	10.26
426.58	10.35
426.785	10.85
426.99	10.79
427.195	10.71
427.4	10.87
427.605	11.63
427.811	12.21
428.016	11.8
428.221	12.16
428.426	12.27
428.631	11.65
428.836	11.37
429.041	11.03
429.246	11.12
429.451	11.17
429.656	11.48
429.861	11.07
430.066	10.7
430.271	11.33
430.476	11.05
430.681	10.43
430.886	10.59
431.09	10.76
431.295	10.72
431.5	10.86
431.705	11.04
431.91	10.72
432.115	10.45
432.32	10.14
432.524	9.71
432.729	9.74
432.934	10.45
433.139	10.45
433.343	10.47
433.548	10.62
433.753	10.48
433.958	10.14
434.162	10.02
434.367	10.55
434.572	10.62
434.776	10.81
434.981	10.63
435.186	9.94
435.39	10.23
435.595	10.15
435.799	10.26
436.004	10.13
436.209	10.23
436.413	10.5
436.618	10.1
436.822	10.65
437.027	10.58
437.231	10.58
437.436	10.76
437.64	10.64
437.845	10.87
438.049	10.67
438.253	10.7
438.458	10.83
438.662	10.86
438.867	10.98
439.071	10.65
439.275	10.72
439.48	10.67
439.684	10.87
439.888	10.9
440.093	10.61
440.297	10.75
440.501	10.93
440.706	10.99
440.91	10.81
441.114	10.86
441.318	11.01
441.523	11.35
441.727	11.59
441.931	11.77
442.135	11.57
442.339	11.63
442.543	11.38
442.748	11.17
442.952	10.81
443.156	10.8
443.36	10.86
443.564	10.68
443.768	10.15
443.972	10.61
444.176	10.42
444.38	10.66
444.584	10.48
444.788	10.52
444.992	10.57
445.196	10.68
445.4	10.64
445.604	10.41
445.808	10.42
446.012	10.49
446.216	9.95
446.42	10.01
446.624	10.06
446.828	10.25
447.032	10.02
447.235	10.12
447.439	9.93
447.643	10.43
447.847	10.68
448.051	10.41
448.254	10.35
448.458	10.48
448.662	10.45
448.866	10.35
449.069	10.24
449.273	10.48
449.477	10.22
449.681	10.6
449.884	10
450.088	9.57
450.292	9.77
450.495	9.56
450.699	9.68
450.902	9.54
451.106	9.39
451.31	9.98
451.513	10.35
451.717	10.5
451.92	10.3
452.124	10.42
452.327	10.72
452.531	11.3
452.734	11.47
452.938	11.22
453.141	11.13
453.345	10.99
453.548	10.46
453.752	10.21
453.955	10.14
454.158	10.2
454.362	10.01
454.565	10.02
454.769	9.58
454.972	9.81
455.175	10
455.379	10.29
455.582	10.62
455.785	10.92
455.988	11.09
456.192	10.88
456.395	10.67
456.598	10.89
456.801	11.34
457.005	11.2
457.208	10.82
457.411	10.62
457.614	10.34
457.817	9.92
458.021	9.54
458.224	9.45
458.427	9.54
458.63	9.33
458.833	9.56
459.036	9.43
459.239	9.31
459.442	9.22
459.645	9.18
459.848	9.4
460.051	9.62
460.254	9.87
460.457	9.94
460.66	10.1
460.863	10.54
461.066	10.5
461.269	10.17
461.472	10.57
461.675	11.06
461.878	11.36
462.081	11.6
462.284	11.55
462.486	11.14
462.689	10.98
462.892	11.32
463.095	11
463.298	10.47
463.5	10.82
463.703	10.84
463.906	10.45
464.109	10.56
464.311	10.26
464.514	10.32
464.717	10.29
464.92	10.54
465.122	10.2
465.325	10.61
465.528	11
465.73	10.77
465.933	10.3
466.135	10.49
466.338	10.28
466.541	10.15
466.743	10.31
466.946	10.51
467.148	10.48
467.351	10.26
467.553	10.1
467.756	9.7
467.958	9.63
468.161	10.09
468.363	10.02
468.566	10.14
468.768	10.4
468.971	10.05
469.173	10.86
469.375	10.89
469.578	10.85
469.78	11.15
469.983	11.6
470.185	11.7
470.387	11.82
470.59	11.77
470.792	11.79
470.994	11.37
471.196	11.92
471.399	10.92
471.601	11.12
471.803	11.23
472.005	10.65
472.208	10.15
472.41	9.9
472.612	9.74
472.814	9.97
473.016	9.93
473.218	10.26
473.421	9.61
473.623	9.87
473.825	9.58
474.027	9.72
474.229	10.42
474.431	10.56
474.633	10.72
474.835	10.32
475.037	10.43
475.239	10.56
475.441	10.65
475.643	11.27
475.845	11.34
476.047	11.33
476.249	10.88
476.451	10.31
476.653	10.31
476.855	10.52
477.057	10.8
477.258	10.13
477.46	10.23
477.662	10.36
477.864	10.19
478.066	10.43
478.268	10.44
478.469	10.82
478.671	10.75
478.873	10.83
479.075	10.63
479.276	10.66
479.478	10.79
479.68	10.53
479.882	10.25
480.083	10.17
480.285	9.76
480.487	9.96
480.688	9.9
480.89	9.82
481.091	9.68
481.293	9.7
481.495	9.35
481.696	9.47
481.898	9.45
482.099	9.35
482.301	9.17
482.502	9.09
482.704	8.9
482.905	8.85
483.107	8.95
483.308	8.96
483.51	8.85
483.711	8.92
483.913	8.94
484.114	8.93
484.315	8.89
484.517	8.88
484.718	8.99
484.92	9.11
485.121	9.11
485.322	9.05
485.524	8.95
485.725	9.2
485.926	9.2
486.127	9.04
486.329	9.11
486.53	9.05
486.731	9.1
486.932	9.05
487.134	9.04
487.335	9.03
487.536	8.99
487.737	9.06
487.938	8.84
488.139	8.99
488.341	8.95
488.542	8.89
488.743	9.05
488.944	9.22
489.145	9.36
489.346	9.32
489.547	9.37
489.748	9.44
489.949	9.54
490.15	9.57
490.351	9.28
490.552	9.36
490.753	9.27
490.954	9.28
491.155	9.24
491.356	9.14
491.557	9.19
491.758	9.25
491.959	9.22
492.159	9.29
492.36	9.5
492.561	9.79
492.762	10.07
492.963	10.18
493.164	10.19
493.364	10.27
493.565	10.54
493.766	10.35
493.967	10.3
494.167	10.38
494.368	10.23
494.569	9.92
494.769	10.03
494.97	10.04
495.171	10.27
495.371	10.06
495.572	9.99
495.773	10
495.973	10.22
496.174	10.35
496.375	10.74
496.575	10.89
496.776	11.15
496.976	10.83
497.177	10.66
497.377	10.44
497.578	10.71
497.778	10.64
497.979	10.93
498.179	10.86
498.38	10.9
498.58	10.78
498.78	10.85
498.981	11.11
499.181	11.44
499.382	11.47
499.582	11.68
499.782	11.85
499.983	12.13
500.183	11.76
500.383	12.13
500.584	12.08
500.784	12.08
500.984	12.28
501.184	11.59
501.385	11.5
501.585	11.59
501.785	11.68
501.985	11.55
502.185	11.67
502.386	11.75
502.586	11.59
502.786	11.62
502.986	11.36
503.186	11.15
503.386	11.51
503.586	12.01
503.786	12.15
503.987	12.43
504.187	12.42
504.387	12.75
504.587	12.45
504.787	12.26
504.987	12.33
505.187	12.62
505.387	12.8
505.587	12.87
505.786	12.63
505.986	12.8
506.186	12.28
506.386	12.4
506.586	12
506.786	12.35
506.986	12.43
507.186	12.5
507.386	12.7
507.585	12.77
507.785	12.8
507.985	12.84
508.185	12.74
508.384	13.37
508.584	13.47
508.784	13.72
508.984	13.84
509.183	14.19
509.383	14.38
509.583	14.56
509.782	14.47
509.982	14.74
510.182	14.63
510.381	14.69
510.581	14.4
510.781	14.61
510.98	14.47
511.18	14.72
511.379	14.57
511.579	14.4
511.778	14.32
511.978	14.49
512.177	14.42
512.377	14.64
512.576	14.44
512.776	14.48
512.975	14.45
513.175	14.48
513.374	14.43
513.573	14.95
513.773	15.08
513.972	15.07
514.172	15.05
514.371	15.09
514.57	15.32
514.77	15.73
514.969	15.79
515.168	16.07
515.367	16.48
515.567	16.62
515.766	16.43
515.965	16.56
516.164	16.51
516.364	16.81
516.563	16.98
516.762	16.98
516.961	17.08
517.16	17.23
517.359	17.07
517.559	16.83
517.758	16.6
517.957	16.65
518.156	16.71
518.355	16.91
518.554	16.79
518.753	16.92
518.952	16.87
519.151	17.1
519.35	17.31
519.549	17.46
519.748	17.82
519.947	17.99
520.146	17.97
520.345	18.16
520.544	17.94
520.743	18.12
520.942	18.07
521.141	18.34
521.339	18.12
521.538	18.23
521.737	18.29
521.936	18.04
522.135	18.17
522.333	18.67
522.532	18.75
522.731	19.03
522.93	18.97
523.129	19.11
523.327	19.31
523.526	19.29
523.725	19.27
523.923	19.28
524.122	19.23
524.321	19.39
524.519	19.21
524.718	19.15
524.917	19.33
525.115	19.38
525.314	19.33
525.512	19.38
525.711	19.46
525.909	19.33
526.108	19.52
526.306	19.74
526.505	19.66
526.703	19.63
526.902	19.72
527.1	19.7
527.299	19.71
527.497	19.71
527.696	19.72
527.894	19.71
528.092	19.86
528.291	19.86
528.489	19.92
528.688	19.98
528.886	20.05
529.084	20.09
529.283	20.15
529.481	20.37
529.679	20.59
529.877	20.7
530.076	20.91
530.274	21.01
530.472	20.93
530.67	20.99
530.869	21.22
531.067	21.47
531.265	21.4
531.463	21.47
531.661	21.37
531.859	21.51
532.057	21.39
532.255	21.43
532.454	21.39
532.652	21.53
532.85	21.46
533.048	21.41
533.246	21.41
533.444	21.42
533.642	21.51
533.84	21.75
534.038	21.47
534.236	21.42
534.434	21.42
534.632	21.62
534.83	21.54
535.027	21.77
535.225	21.95
535.423	21.99
535.621	22.29
535.819	22.26
536.017	22.02
536.215	22.34
536.412	22.66
536.61	22.75
536.808	22.62
537.006	22.85
537.203	22.86
537.401	22.79
537.599	22.74
537.797	22.55
537.994	22.69
538.192	22.91
538.39	22.93
538.587	22.91
538.785	22.94
538.983	22.96
539.18	23.14
539.378	23.18
539.575	23.18
539.773	23.03
539.97	23.19
540.168	23.29
540.366	23.26
540.563	23.18
540.761	23.21
540.958	23.18
541.155	23.22
541.353	23.07
541.55	23.13
541.748	23.23
541.945	23.42
542.143	23.4
542.34	23.5
542.537	23.59
542.735	23.75
542.932	23.78
543.129	24.07
543.327	24.24
543.524	24.22
543.721	24.26
543.919	24.29
544.116	24.33
544.313	24.44
544.51	24.26
544.708	24.72
544.905	24.75
545.102	24.74
545.299	24.76
545.496	24.76
545.693	25.28
545.891	25.15
546.088	25.2
546.285	25.16
546.482	25.45
546.679	25.51
546.876	25.38
547.073	25.42
547.27	25.75
547.467	26.01
547.664	25.99
547.861	25.9
548.058	26.49
548.255	26.56
548.452	27.04
548.649	27.24
548.846	27.41
549.043	27.42
549.24	27.66
549.437	27.4
549.633	27.15
549.83	27.37
550.027	27.48
550.224	27.14
550.421	27.32
550.618	27.41
550.814	27.28
551.011	27.22
551.208	27.36
551.405	27.35
551.601	27.5
551.798	27.42
551.995	27.27
552.191	27.18
552.388	27.36
552.585	28
552.781	27.98
552.978	27.9
553.175	28.09
553.371	27.91
553.568	28.03
553.764	28.34
553.961	28.5
554.157	28.85
554.354	28.82
554.55	28.58
554.747	28.16
554.943	28.51
555.14	28.77
555.336	28.92
555.533	29.13
555.729	29.19
555.926	29.03
556.122	29.3
556.318	29.52
556.515	29.92
556.711	30.49
556.907	30.39
557.104	30.19
557.3	30.52
557.496	30.64
557.693	30.57
557.889	30.44
558.085	30.6
558.281	30.89
558.478	31.09
558.674	30.8
558.87	30.96
559.066	31.01
559.262	31.19
559.459	30.72
559.655	30.76
559.851	30.83
560.047	30.66
560.243	30.46
560.439	30.31
560.635	30.42
560.831	30.89
561.027	30.71
561.223	31.2
561.419	31.17
561.615	31.5
561.811	31.21
562.007	31.51
562.203	32.03
562.399	32.66
562.595	32.74
562.791	32.75
562.987	32.35
563.183	32.34
563.379	32.01
563.575	32.42
563.771	32.45
563.966	32.65
564.162	32.74
564.358	32.68
564.554	32.15
564.75	32.09
564.945	32.01
565.141	32.51
565.337	32.74
565.533	32.78
565.728	32.29
565.924	32.29
566.12	32.57
566.315	32.23
566.511	32.52
566.707	33.02
566.902	33.65
567.098	33.69
567.293	33.59
567.489	33.52
567.684	33.59
567.88	33.93
568.076	33.97
568.271	34.12
568.467	34.38
568.662	33.84
568.858	33.81
569.053	33.26
569.248	33.19
569.444	33.41
569.639	33.76
569.835	33.84
570.03	33.86
570.225	33.82
570.421	33.84
570.616	33.87
570.812	34.08
571.007	34.23
571.202	34.55
571.397	34.56
571.593	34.41
571.788	34.12
571.983	34.41
572.178	34.46
572.374	34.51
572.569	34.26
572.764	34.36
572.959	34.62
573.154	34.6
573.35	34.73
573.545	34.99
573.74	34.88
573.935	35.32
574.13	35.33
574.325	35.12
574.52	35.18
574.715	35.51
574.91	35.88
575.105	35.96
575.3	36.13
575.495	35.97
575.69	36.31
575.885	36.57
576.08	36.44
576.275	36.52
576.47	37.27
576.665	37.38
576.86	36.98
577.055	36.96
577.25	36.74
577.444	36.86
577.639	37.08
577.834	36.93
578.029	37.05
578.224	37.01
578.418	37.42
578.613	37.2
578.808	37.5
579.003	37.7
579.197	37.39
579.392	37.68
579.587	37.49
579.781	37.31
579.976	37.3
580.171	37.44
580.365	37.21
580.56	36.58
580.755	36.54
580.949	36.45
581.144	37.07
581.338	37.36
581.533	37.31
581.727	37.69
581.922	37.87
582.116	37.9
582.311	37.81
582.505	38.53
582.7	38.85
582.894	39.24
583.089	39.24
583.283	38.86
583.478	38.86
583.672	39.06
583.866	39.15
584.061	39
584.255	39.04
584.449	39.62
584.644	39.25
584.838	39.24
585.032	39.19
585.226	39.55
585.421	39.97
585.615	40.11
585.809	40.19
586.003	40.28
586.198	41.09
586.392	41.13
586.586	40.76
586.78	40.79
586.974	40.78
587.168	40.93
587.363	41.05
587.557	40.49
587.751	40.59
587.945	40.85
588.139	40.27
588.333	39.8
588.527	40.15
588.721	40.29
588.915	40.64
589.109	40.47
589.303	39.96
589.497	40.16
589.691	40.44
589.885	40.3
590.079	40.29
590.273	40.76
590.466	41.27
590.66	41.45
590.854	41.51
591.048	41.37
591.242	42.07
591.436	42.45
591.629	42.36
591.823	42.42
592.017	42.87
592.211	43.18
592.404	43.04
592.598	42.56
592.792	42.6
592.986	42.3
593.179	42.61
593.373	42.5
593.567	42.5
593.76	42.25
593.954	42.38
594.147	41.94
594.341	41.66
594.535	42.04
594.728	42.39
594.922	42.05
595.115	41.99
595.309	41.57
595.502	41.52
595.696	41.93
595.889	41.85
596.083	41.87
596.276	41.96
596.47	42.1
596.663	42.07
596.856	42
597.05	42.38
597.243	42.77
597.437	43.59
597.63	43.69
597.823	43.38
598.017	43.81
598.21	43.87
598.403	43.88
598.596	43.8
598.79	44.1
598.983	44.07
599.176	44.13
599.369	44.45
599.563	43.96
599.756	44.2
599.949	44.41
600.142	44.63
600.335	44.89
600.528	45.46
600.722	45.43
600.915	45.53
601.108	45.33
601.301	44.79
601.494	44.03
601.687	44.07
601.88	43.84
602.073	43.04
602.266	43.17
602.459	43.14
602.652	42.66
602.845	42.65
603.038	42.2
603.231	42.13
603.424	42.19
603.617	42.52
603.809	42.46
604.002	42.44
604.195	42.8
604.388	42.29
604.581	42.33
604.774	42.87
604.966	42.42
605.159	42.48
605.352	42.73
605.545	42.79
605.737	42.77
605.93	43.19
606.123	42.87
606.316	42.87
606.508	42.94
606.701	42.79
606.894	42.2
607.086	42.58
607.279	42.9
607.471	42.82
607.664	42.94
607.857	43.21
608.049	42.83
608.242	42.98
608.434	43.34
608.627	44.07
608.819	44.26
609.012	44.89
609.204	44.75
609.397	44.98
609.589	45.29
609.782	45.23
609.974	45.2
610.166	45.18
610.359	45.66
610.551	46
610.743	45.71
610.936	46.11
611.128	46.27
611.32	46.8
611.513	46.37
611.705	46.46
611.897	47.11
612.09	47.33
612.282	47.76
612.474	47.67
612.666	47.93
612.858	48.3
613.051	47.97
613.243	47.27
613.435	47.65
613.627	47.68
613.819	47.21
614.011	46.34
614.203	46.44
614.395	46.04
614.588	46.23
614.78	46.29
614.972	46.36
615.164	46.6
615.356	46.96
615.548	46.65
615.74	47.1
615.932	47.37
616.124	48.06
616.315	48.19
616.507	47.76
616.699	48.09
616.891	47.57
617.083	47.85
617.275	48.18
617.467	47.73
617.659	48
617.85	48.55
618.042	48.98
618.234	48.58
618.426	48.82
618.618	49.3
618.809	49.85
619.001	49.9
619.193	49.44
619.384	49.54
619.576	49.65
619.768	49.48
619.959	48.8
620.151	48.37
620.343	48.39
620.534	48.06
620.726	48.89
620.917	47.76
621.109	47.46
621.301	47.51
621.492	47.23
621.684	47.42
621.875	47.5
622.067	47.27
622.258	48.02
622.45	48.07
622.641	48.21
622.832	48.45
623.024	48.63
623.215	49.2
623.407	49.03
623.598	48.66
623.789	49.18
623.981	48.73
624.172	49.11
624.363	48.85
624.555	49.09
624.746	48.99
624.937	48.43
625.129	48.38
625.32	48.24
625.511	48.43
625.702	48.62
625.893	48.46
626.085	48.4
626.276	48.57
626.467	48.46
626.658	48.31
626.849	48.1
627.04	48.31
627.231	49.18
627.422	49.24
627.614	49.21
627.805	49.29
627.996	48.8
628.187	49.55
628.378	49.82
628.569	50.14
628.76	50.34
628.951	50.98
629.142	50.85
629.332	50.01
629.523	50.07
629.714	49.93
629.905	49.81
630.096	50.09
630.287	49.7
630.478	49.17
630.669	48.81
630.859	48.71
631.05	48.42
631.241	48.61
631.432	48.26
631.623	48
631.813	47.82
632.004	48.22
632.195	47.78
632.385	48.23
632.576	47.77
632.767	47.46
632.957	47.52
633.148	47.32
633.339	46.56
633.529	46.76
633.72	46.81
633.91	47.56
634.101	47.16
634.292	48.32
634.482	48.18
634.673	49.5
634.863	49.82
635.054	49.25
635.244	50.19
635.435	50.91
635.625	50.47
635.815	50.97
636.006	50.48
636.196	50.85
636.387	51.22
636.577	51.17
636.767	50.46
636.958	50.49
637.148	51.84
637.338	51.43
637.529	51.66
637.719	52.44
637.909	52.46
638.099	52.26
638.29	52.26
638.48	52.13
638.67	52.58
638.86	52.85
639.05	53.62
639.241	53.53
639.431	53.73
639.621	54.01
639.811	53.72
640.001	53.85
640.191	54.13
640.381	53.82
640.571	53.69
640.761	54.18
640.951	54.18
641.141	54.04
641.331	54.24
641.521	53.52
641.711	53.35
641.901	53.47
642.091	53.87
642.281	54.06
642.471	54.49
642.661	54.23
642.851	53.34
643.041	52.35
643.231	52.09
643.42	51.46
643.61	51.47
643.8	51.47
643.99	52.22
644.18	51.35
644.369	52.12
644.559	51.26
644.749	51.1
644.939	51.06
645.128	52.52
645.318	52.93
645.508	52.92
645.697	52.48
645.887	52.77
646.076	52.42
646.266	52.53
646.456	51.28
646.645	51.97
646.835	52.25
647.024	52.33
647.214	51.63
647.403	51.37
647.593	51.75
647.782	53.09
647.972	52.96
648.161	53.25
648.351	53.44
648.54	54.07
648.73	54.81
648.919	54.54
649.108	55.19
649.298	55.29
649.487	55.64
649.677	55.86
649.866	55.51
650.055	55.2
650.244	55.43
650.434	55.65
650.623	55.39
650.812	54.76
651.002	55.17
651.191	55.29
651.38	54.83
651.569	54.68
651.758	54.5
651.947	54.2
652.137	53.87
652.326	53.13
652.515	53.11
652.704	53.69
652.893	53.88
653.082	53.86
653.271	53.65
653.46	54.18
653.649	53.8
653.838	53.51
654.027	54.61
654.216	55.69
654.405	55.77
654.594	55.64
654.783	54.81
654.972	53.95
655.161	53.33
655.35	53.43
655.539	53.94
655.728	54.28
655.916	54.34
656.105	53.82
656.294	53.32
656.483	53.24
656.672	53.16
656.86	53.12
657.049	53.57
657.238	53.67
657.427	53.29
657.615	52.8
657.804	52.77
657.993	52.07
658.181	52.21
658.37	52.53
658.559	52.13
658.747	52.69
658.936	52.56
659.125	53.74
659.313	53.75
659.502	54.3
659.69	54.31
659.879	54.71
660.067	55.49
660.256	55.38
660.444	55.14
660.633	55.81
660.821	55.48
661.01	56.67
661.198	55.69
661.387	56.26
661.575	55.55
661.763	56.15
661.952	55.05
662.14	54.78
662.328	54.74
662.517	55.82
662.705	55.4
662.893	55.85
663.082	54.88
663.27	54.98
663.458	54.38
663.646	54.52
663.834	53.75
664.023	54.43
664.211	54.96
664.399	55.77
664.587	54.52
664.775	55.38
664.963	55.33
665.152	56.14
665.34	56.6
665.528	56.77
665.716	57.28
665.904	58.03
666.092	58.2
666.28	58.57
666.468	57.91
666.656	58.1
666.844	58.58
667.032	57.72
667.22	58.08
667.408	56.9
667.596	57.73
667.784	58.48
667.971	58.67
668.159	58.52
668.347	57.9
668.535	57.18
668.723	57.08
668.911	56.14
669.098	56.06
669.286	54.83
669.474	55.23
669.662	54.48
669.849	52.96
670.037	53.05
670.225	53.02
670.413	53.14
670.6	53.15
670.788	53.17
670.976	54.21
671.163	54.14
671.351	54.67
671.538	55.3
671.726	56.09
671.913	56.79
672.101	56.11
672.289	56.14
672.476	56.83
672.664	58.18
672.851	58.67
673.039	58.46
673.226	59.34
673.413	60.04
673.601	59.5
673.788	58.66
673.976	58.97
674.163	59.86
674.35	59.73
674.538	59.79
674.725	58.66
674.912	57.45
675.1	57.07
675.287	57.54
675.474	56.4
675.662	57.1
675.849	58
676.036	57.68
676.223	56.12
676.411	56.27
676.598	54.32
676.785	55.39
676.972	56.96
677.159	56.73
677.346	54.59
677.533	55.86
677.721	55.02
677.908	54.22
678.095	54.27
678.282	54.48
678.469	54.19
678.656	55.77
678.843	55.21
679.03	54.96
679.217	55.14
679.404	56.46
679.591	56.27
679.778	56.8
679.964	56.92
680.151	57.27
680.338	57.31
680.525	57.79
680.712	57.5
680.899	57.91
681.086	57.92
681.272	58.54
681.459	58.72
681.646	57.68
681.833	57.45
682.02	58.53
682.206	58.86
682.393	58.98
682.58	59.13
682.766	62
682.953	61.7
683.14	61.93
683.326	61.63
683.513	63.3
683.7	65.02
683.886	65.55
684.073	65.02
684.259	64.29
684.446	65.43
684.632	65.25
684.819	61.55
685.005	61.78
685.192	61.17
685.378	60.58
685.565	58.09
685.751	57.23
685.938	56.74
686.124	56.08
686.31	55.93
686.497	56.03
686.683	56.19
686.87	56.77
687.056	56.13
687.242	55.65
687.429	56.02
687.615	56.85
687.801	57.35
687.987	56.38
688.174	56.52
688.36	56.77
688.546	55.95
688.732	56.17
688.918	56.68
689.105	57.34
689.291	57.88
689.477	57.99
689.663	58.15
689.849	59.02
690.035	60.49
690.221	60.2
690.407	61.35
690.593	61.81
690.779	61.4
690.965	61.45
691.151	60.88
691.337	61.64
691.523	62.34
691.709	61.73
691.895	60.2
692.081	60.56
692.267	61.18
692.453	60.21
692.639	60.12
692.825	59.36
693.011	58.56
693.196	59.15
693.382	58.94
693.568	57.97
693.754	59.04
693.94	59.77
694.125	59.5
694.311	58.78
694.497	59.23
694.682	60.03
694.868	60.72
695.054	60.72
695.239	62.28
695.425	62.27
695.611	63.3
695.796	60.97
695.982	60.02
696.168	59.72
696.353	60.3
696.539	59.69
696.724	57.84
696.91	56.7
697.095	56.88
697.281	55.77
697.466	55.73
697.652	55.13
697.837	55.25
698.023	56.33
698.208	56.54
698.393	55.89
698.579	55.64
698.764	56.25
698.949	56.4
699.135	56.51
699.32	56.98
699.505	56.77
699.691	56.85
699.876	57.39
700.061	56.8
700.246	56.38
700.432	57.87
700.617	57.81
700.802	58.71
700.987	60.35
701.172	63.03
701.358	61.88
701.543	62.89
701.728	65.55
701.913	67.19
702.098	67.77
702.283	67.58
702.468	67.27
702.653	67.56
702.838	67.83
703.023	67.76
703.208	65.44
703.393	68.11
703.578	67.18
703.763	65.02
703.948	65.23
704.133	65.29
704.318	66.54
704.503	66.78
704.688	67.59
704.873	67.13
705.057	67.61
705.242	67.48
705.427	66.1
705.612	66.67
705.797	66.44
705.981	65.94
706.166	66.29
706.351	67.62
706.536	68.97
706.72	68.93
706.905	68.18
707.09	69.45
707.274	70.6
707.459	70.64
707.644	71.24
707.828	72.16
708.013	72.75
708.197	71.57
708.382	69.16
708.567	67.43
708.751	66.76
708.936	66.89
709.12	65.39
709.305	64.61
709.489	63.41
709.673	62.65
709.858	62.04
710.042	60.37
710.227	61.38
710.411	62.2
710.596	61.15
710.78	60.98
710.964	61.09
711.149	59.92
711.333	60.3
711.517	59.96
711.702	60.4
711.886	59.83
712.07	60.47
712.254	60.68
712.438	60.46
712.623	59.81
712.807	59.87
712.991	59.84
713.175	60.01
713.359	59.87
713.544	61.81
713.728	61.48
713.912	61.61
714.096	63.85
714.28	62.8
714.464	62.69
714.648	64.59
714.832	65.76
715.016	66.26
715.2	67.27
715.384	66.87
715.568	65.41
715.752	63.97
715.936	64.04
716.12	62.34
716.304	62.49
716.488	62.46
716.671	63.58
716.855	63.54
717.039	63.96
717.223	63.94
717.407	63.6
717.59	64.26
717.774	67.22
717.958	67.78
718.142	68.98
718.325	70.75
718.509	72.13
718.693	71.38
718.877	71.17
719.06	72.01
719.244	71.13
719.428	72.67
719.611	74.36
719.795	72.69
719.978	74.32
720.162	73.66
720.345	72.12
720.529	71.59
720.713	70.25
720.896	70.21
721.08	69.85
721.263	71.3
721.446	70.92
721.63	69.61
721.813	70.99
721.997	70.47
722.18	70.82
722.364	70.96
722.547	70.41
722.73	73.74
722.914	71.94
723.097	71.19
723.28	70.38
723.464	69.2
723.647	68.57
723.83	68.03
724.013	68.7
724.197	68.06
724.38	69.54
724.563	67.24
724.746	65.78
724.929	67.05
725.112	67.08
725.296	66.44
725.479	66.5
725.662	67.47
725.845	67.39
726.028	64.87
726.211	64.58
726.394	63.94
726.577	66.38
726.76	65.66
726.943	65.21
727.126	66.34
727.309	66.58
727.492	66.07
727.675	65.78
727.858	65.6
728.041	66.01
728.224	65.52
728.407	63.64
728.589	63.18
728.772	62.84
728.955	63.02
729.138	62.06
729.321	61.9
729.503	61.76
729.686	61.75
729.869	59.89
730.052	59.46
730.234	59.7
730.417	61.03
730.6	62.28
730.782	62.16
730.965	61.57
731.148	61.43
731.33	63.29
731.513	63.49
731.695	64.38
731.878	65.89
732.061	67.06
732.243	67.22
732.426	65.81
732.608	64.77
732.791	64.99
732.973	65.95
733.156	66.95
733.338	65.98
733.52	67.42
733.703	67.54
733.885	69.86
734.068	68.66
734.25	69.47
734.432	71.91
734.615	71.41
734.797	71.24
734.979	71.88
735.162	71.75
735.344	70.89
735.526	71.02
735.708	69.6
735.891	68.62
736.073	70.62
736.255	70.32
736.437	69.51
736.619	69.3
736.802	69.51
736.984	70.49
737.166	70.47
737.348	72.38
737.53	72.21
737.712	70.71
737.894	70.52
738.076	69.27
738.258	69.2
738.44	69.07
738.622	69.28
738.804	70.13
738.986	67.55
739.168	68.89
739.35	68.55
739.532	67.93
739.714	70.2
739.896	69.54
740.078	70.53
740.259	69.31
740.441	68.81
740.623	70.35
740.805	70.36
740.987	72.06
741.168	71.19
741.35	72.3
741.532	71.5
741.714	72.23
741.895	71.83
742.077	72.07
742.259	74.61
742.44	77.27
742.622	77.18
742.804	76.73
742.985	77.51
743.167	78.26
743.348	76.18
743.53	78.76
743.711	79.96
743.893	79.89
744.075	79.35
744.256	77.59
744.438	75.64
744.619	75.3
744.8	74.8
744.982	73.16
745.163	73.15
745.345	72.98
745.526	71.97
745.707	68.68
745.889	68.63
746.07	68.11
746.252	69.55
746.433	68.58
746.614	67.84
746.795	69.54
746.977	73.6
747.158	72.83
747.339	75.19
747.52	73.53
747.702	77.93
747.883	80.04
748.064	83.32
748.245	81.3
748.426	85.31
748.607	86.22
748.788	86.98
748.97	86.46
749.151	84.79
749.332	84.36
749.513	86.16
749.694	86.79
749.875	85.12
750.056	82.48
750.237	85.63
750.418	83.97
750.599	82.64
750.78	79.46
750.96	77.03
751.141	76.84
751.322	74.98
751.503	73.7
751.684	71.08
751.865	70.39
752.046	69.99
752.226	68.42
752.407	66.16
752.588	69.2
752.769	68.92
752.949	68.75
753.13	67.73
753.311	68.74
753.492	68.91
753.672	68.36
753.853	72.98
754.034	74.1
754.214	73.77
754.395	74.41
754.575	71.03
754.756	70.87
754.937	72.46
755.117	73.96
755.298	75.05
755.478	74.7
755.659	76.04
755.839	74.84
756.02	74.34
756.2	75.77
756.381	75.64
756.561	80.25
756.741	82
756.922	79.56
757.102	76.75
757.283	75.35
757.463	76.27
757.643	76.76
757.823	74.69
758.004	75.93
758.184	73.64
758.364	74.72
758.545	71.83
758.725	72.65
758.905	73.91
759.085	75.72
759.265	75.09
759.446	76.03
759.626	74.88
759.806	74.22
759.986	72.27
760.166	73.51
760.346	72.17
760.526	69.58
760.706	68.93
760.886	69.01
761.066	70.54
761.246	71.63
761.426	70.93
761.606	68.6
761.786	68.4
761.966	66.74
762.146	64.61
762.326	64.69
762.506	65.32
762.686	64.34
762.866	63.07
763.046	61.08
763.225	59.22
763.405	58.69
763.585	58.94
763.765	58.71
763.945	60.69
764.124	61.93
764.304	62.68
764.484	62.99
764.664	64.07
764.843	64.48
765.023	67.5
765.203	67.66
765.382	68.03
765.562	68.64
765.741	70.61
765.921	68.31
766.101	68.38
766.28	66.91
766.46	67.67
766.639	66.58
766.819	68.12
766.998	67.65
767.178	70.3
767.357	71.13
767.537	71.72
767.716	70.21
767.896	72.98
768.075	74.7
768.254	75.73
768.434	75.06
768.613	77.77
768.792	77.38
768.972	77.05
769.151	76.44
769.33	76.71
769.51	76.73
769.689	78.54
769.868	76.38
770.047	76.82
770.226	77.01
770.406	79.2
770.585	78.44
770.764	78.34
770.943	76.39
771.122	74.68
771.301	74.31
771.48	73.22
771.66	73.04
771.839	75
772.018	76.82
772.197	79.54
772.376	78.39
772.555	78.65
772.734	82.51
772.913	90.11
773.092	90.99
773.271	92.7
773.449	100
773.628	97.41
773.807	101.94
773.986	99.73
774.165	95.61
774.344	96.5
774.523	97.29
774.701	93.37
774.88	87.01
775.059	91.59
775.238	89.42
775.417	85.15
775.595	89.93
775.774	90.41
775.953	90.54
776.131	94.53
776.31	93.58
776.489	88.25
776.667	90.62
776.846	93.94
777.025	93.76
777.203	99
777.382	100.09
777.56	98.02
777.739	91.52
777.917	89.51
778.096	89.05
778.274	91.27
778.453	93.17
778.631	93.55
778.81	94.77
778.988	96.4
779.166	95.21
779.345	93
779.523	95.61
779.702	99.03
779.88	102.77
780.058	97.77
780.237	98.06
780.415	101.9
780.593	96.46
780.771	92.53
780.95	86.15
781.128	86.16
781.306	89.96
781.484	90.29
781.662	90.79
781.841	85.55
782.019	90.68
782.197	90.96
782.375	89.62
782.553	92.62
782.731	94.54
782.909	98.4
783.087	96.79
783.265	98.42
783.443	94.66
783.621	95
783.799	103.34
783.977	101.08
784.155	98.75
784.333	101.2
784.511	98.65
784.689	99.42
784.867	95.47
785.045	96.75
785.223	90.51
785.4	91.11
785.578	93.95
785.756	89.23
785.934	87.56
786.112	88.15
786.289	89.86
786.467	89.92
786.645	89.59
786.823	90.56
787	86.79
787.178	87.31
787.356	87.3
787.533	81.34
787.711	83.15
787.889	83.83
788.066	82.9
788.244	79.42
788.421	82.45
788.599	81.41
788.776	82.49
788.954	87.34
789.131	88.54
789.309	88.87
789.486	88.46
789.664	87.35
789.841	88.48
790.019	89.35
790.196	88.24
790.373	85.76
790.551	84.12
790.728	83.58
790.906	79.86
791.083	83.81
791.26	80.91
791.437	84.48
791.615	87.77
791.792	87.19
791.969	87.03
792.146	87.95
792.324	88.24
792.501	92.71
792.678	91.3
792.855	93.56
793.032	93.76
793.209	95.9
793.387	99.76
793.564	96.55
793.741	99.9
793.918	100.48
794.095	100.37
794.272	101.11
794.449	98.51
794.626	100.76
794.803	104.28
794.98	98.46
795.157	101.55
795.334	96.81
795.511	94.26
795.688	92.78
795.864	93.61
796.041	98.49
796.218	100.47
796.395	103.03
796.572	103.94
796.749	103.45
796.925	103.94
797.102	101.68
797.279	103.36
797.456	104.35
797.632	103.48
797.809	101.68
797.986	92.97
798.162	89.75
798.339	87.79
798.516	87.83
798.692	79.42
798.869	78.95
799.046	80.24
799.222	74.81
799.399	72.02
799.575	70.48
799.752	71.75
799.928	76.85
800.105	79.42
800.281	75.93
800.458	72.5
800.634	76.46
800.811	74.36
800.987	72.67
801.163	74.93
801.34	81.32
801.516	80.23
801.692	82.14
801.869	83.88
802.045	85.35
802.221	89.31
802.398	94.77
802.574	94.52
802.75	98.48
802.926	95.87
803.103	102.95
803.279	105.11
803.455	109.48
803.631	107.88
803.807	106.48
803.983	102.63
804.16	103.98
804.336	98.8
804.512	100.61
804.688	100.21
804.864	98.55
805.04	94.37
805.216	95.99
805.392	96.64
805.568	95.75
805.744	97.35
805.92	95.58
806.096	92.87
806.272	100.34
806.448	96.84
806.623	94.84
806.799	97.91
806.975	94.99
807.151	89
807.327	83.36
807.503	80.81
807.678	72.36
807.854	74.33
808.03	77.13
808.206	71.2
808.381	73.93
808.557	75.11
808.733	75.73
808.908	78.09
809.084	79.56
809.26	83.58
809.435	88.8
809.611	92.85
809.787	93.14
809.962	92.69
810.138	96.56
810.313	97.19
810.489	100.41
810.664	98.67
810.84	101.15
811.015	101.25
811.191	101.77
811.366	102.02
811.542	108.93
811.717	109.66
811.892	110.64
812.068	109.72
812.243	108.28
812.419	103.22
812.594	110.02
812.769	110.88
812.944	110.01
813.12	111.32
813.295	109.58
813.47	105.7
813.645	102.87
813.821	98.08
813.996	94.19
814.171	93.97
814.346	96.35
814.521	92.28
814.697	89.3
814.872	87.42
815.047	83.42
815.222	84.06
815.397	81.7
815.572	77.46
815.747	85.53
815.922	86.49
816.097	87.6
816.272	88.24
816.447	95.73
816.622	95.57
816.797	92.16
816.972	91.44
817.147	89
817.322	92.36
817.496	94.6
817.671	96.95
817.846	100.51
818.021	92.83
818.196	92.75
818.371	85.63
818.545	83.64
818.72	89.9
818.895	89.45
819.069	88.23
819.244	83.35
819.419	80.99
819.594	72.69
819.768	66.75
819.943	66.9
820.117	62.43
820.292	60.13
820.467	57.19
820.641	54.52
820.816	52.87
820.99	52.17
821.165	49.56
821.339	47.9
821.514	47.18
821.688	46.77
821.863	45.77
822.037	45.62
822.212	44.72
822.386	44.19
822.56	42.63
822.735	43.25
822.909	43.18
823.084	43.81
823.258	44.41
823.432	44.84
823.606	44.48
823.781	44.84
823.955	45.71
824.129	46.65
824.303	46.9
824.478	47.71
824.652	47.86
824.826	47.42
825	46.9
825.174	46.85
825.348	47.27
825.523	47.59
825.697	46.56
825.871	44.27
826.045	44.36
826.219	45.68
826.393	45.41
826.567	44.95
826.741	44.67
826.915	45.67
827.089	46.76
827.263	46.4
827.437	47.79
827.611	50.06
827.784	53.15
827.958	53.02
828.132	51.75
828.306	53.02
828.48	54.42
828.654	56.23
828.827	58.87
829.001	60.54
829.175	62.2
829.349	64
829.522	62.73
829.696	61.49
829.87	63.86
830.044	68.17
830.217	71.58
830.391	74.89
830.565	76.43
830.738	77.29
830.912	77.71
831.085	79.23
831.259	79.42
831.432	81.76
831.606	81.95
831.779	77.98
831.953	75.24
832.126	75.36
832.3	72.6
832.473	69.1
832.647	65.33
832.82	63.28
832.994	60.62
833.167	59.88
833.34	59.64
833.514	57.58
833.687	57.47
833.86	56.26
834.034	55.53
834.207	55.15
834.38	54.98
834.553	55.67
834.727	56.95
834.9	58.61
835.073	59.42
835.246	59.58
835.419	63.11
835.593	63.41
835.766	64.42
835.939	66.12
836.112	66.4
836.285	72.14
836.458	75.61
836.631	78.85
836.804	83.4
836.977	87.99
837.15	89
837.323	92.1
837.496	93.89
837.669	100.76
837.842	94.77
838.015	102.5
838.188	101.19
838.361	97.19
838.533	93.41
838.706	90.15
838.879	84.53
839.052	83.64
839.225	78.1
839.398	82.94
839.57	85.27
839.743	85.95
839.916	81.82
840.088	82.23
840.261	84.21
840.434	84.21
840.607	83.38
840.779	88.65
840.952	89.85
841.124	101
841.297	94.47
841.47	91.62
841.642	95.77
841.815	91.57
841.987	94.49
842.16	98.77
842.332	100.73
842.505	98.47
842.677	100.37
842.85	115.16
843.022	110.89
843.194	109.86
843.367	114.62
843.539	115.66
843.712	124.02
843.884	132.69
844.056	130.03
844.229	139.21
844.401	150.03
844.573	147.6
844.745	139.88
844.918	148.87
845.09	159.46
845.262	157.21
845.434	179.94
845.606	180.21
845.779	161.49
845.951	159
846.123	163.17
846.295	183.56
846.467	217.47
846.639	212.78
846.811	224.73
846.983	208.47
847.155	226.64
847.327	199.7
847.499	199.7
847.671	211.03
847.843	193.11
848.015	181.07
848.187	163.45
848.359	156.52
848.531	163.17
848.703	152.83
848.875	187.04
849.047	171.14
849.218	170.19
849.39	172.52
849.562	184.7
849.734	219.46
849.905	209.54
850.077	229.99
850.249	223.45
850.421	190.82
850.592	196.56
850.764	166.32
850.936	160.8
851.107	166.47
851.279	177.92
851.451	158.3
851.622	154.43
851.794	163.39
851.965	168.57
852.137	163.05
852.308	168.62
852.48	172.55
852.651	173.93
852.823	170.07
852.994	161.11
853.166	159.86
853.337	177.83
853.509	185.03
853.68	170.71
853.851	167.08
854.023	157.11
854.194	153.28
854.365	155.48
854.537	141.06
854.708	151.41
854.879	146.12
855.05	143.89
855.222	130.52
855.393	138.1
855.564	152.95
855.735	161.1
855.906	170.98
856.078	168.15
856.249	147.75
856.42	152.88
856.591	160.66
856.762	168.62
856.933	168.82
857.104	159.8
857.275	138.55
857.446	129.05
857.617	107.34
857.788	101.14
857.959	106.91
858.13	121.6
858.301	127.05
858.472	116.61
858.643	120.09
858.814	123.19
858.985	147.36
859.155	206.6
859.326	214.1
859.497	263.15
859.668	446.99
859.839	390.33
860.009	274.96
860.18	314.11
860.351	302.79
860.522	237.94
860.692	211.62
860.863	190.76
861.034	172.18
861.204	158.41
861.375	140.1
861.546	126.53
861.716	127.53
861.887	140.43
862.057	154.23
862.228	159.68
862.398	163.92
862.569	186.7
862.739	198.9
862.91	176.96
863.08	185.35
863.251	194
863.421	182.58
863.592	216.6
863.762	201.08
863.932	165.97
864.103	157.32
864.273	159.06
864.443	126.02
864.614	122.35
864.784	133.66
864.954	145.99
865.125	163.72
865.295	178.82
865.465	192.7
865.635	197.9
865.805	180.61
865.976	191.79
866.146	180.45
866.316	228.85
866.486	296.86
866.656	251.85
866.826	271.35
866.996	237.8
867.166	269.51
867.336	214.07
867.506	138.33
867.676	143.99
867.846	130.32
868.016	137.78
868.186	123.22
868.356	112.85
868.526	122.88
868.696	104.15
868.866	106.44
869.036	107.92
869.206	104.79
869.376	124.03
869.545	131.76
869.715	148.84
869.885	151.2
870.055	144.07
870.224	127.85
870.394	138.58
870.564	165.37
870.734	152.78
870.903	160.62
871.073	158.22
871.243	160.71
871.412	149.36
871.582	143.3
871.751	133.98
871.921	146.18
872.091	183.06
872.26	135.31
872.43	121.67
872.599	130.74
872.769	128.23
872.938	165.37
873.108	155.56
873.277	146.41
873.446	138.41
873.616	139.37
873.785	148.54
873.955	147.71
874.124	150.75
874.293	156.61
874.463	147.21
874.632	143.14
874.801	117.39
874.971	124.2
875.14	167.08
875.309	154.18
875.478	133.03
875.647	114.33
875.817	113.99
875.986	122.96
876.155	126.26
876.324	133.22
876.493	117
876.662	111.3
876.831	110.98
877	97.27
877.17	98.21
877.339	105.53
877.508	119.27
877.677	116.22
877.846	110.34
878.015	103.94
878.184	91.77
878.352	98.02
878.521	105.03
878.69	94.98
878.859	87.03
879.028	83.69
879.197	76.71
879.366	67.17
879.534	61.1
879.703	53.16
879.872	48.88
880.041	42.89
880.21	43.62
880.378	37.08
880.547	37.55
880.716	40.57
880.884	42.08
881.053	42.56
881.222	42.33
881.39	42.23
881.559	41.91
881.727	42.8
881.896	41.88
882.065	42.38
882.233	43.96
882.402	42.52
882.57	43.43
882.739	42.79
882.907	42.76
883.076	42.82
883.244	43.01
883.412	44.01
883.581	46.19
883.749	48.31
883.918	49.29
884.086	49.81
884.254	52.99
884.423	53.76
884.591	55.4
884.759	57.13
884.927	62.7
885.096	67.46
885.264	67.77
885.432	66.36
885.6	70.41
885.769	74.25
885.937	79.35
886.105	89.73
886.273	96.05
886.441	104.01
886.609	109.24
886.777	95.1
886.945	94.53
887.113	102.03
887.281	99.15
887.449	102.63
887.617	101.38
887.785	101.86
887.953	93.45
888.121	100.67
888.289	98.81
888.457	91.51
888.625	104.01
888.793	98.69
888.961	105.92
889.129	107.7
889.296	110.24
889.464	110.47
889.632	107.89
889.8	123.8
889.967	84.44
890.135	79.65
