Data from JASIL_3305_Reflection_1.txt Node
Date: Tue Nov 17 19:48:11 EST 2015
User: Geneva
Spectrometer: USB4E03002
Autoset integration time: false
Trigger mode: 4
Integration Time (sec): 1.000000E-1
Scans to average: 10
Electric dark correction enabled: false
Nonlinearity correction enabled: false
Boxcar width: 5
Stray light correction enabled: false
XAxis mode: Wavelengths
Stop averaging: false
Number of Pixels in Spectrum: 3648
>>>>>Begin Spectral Data<<<<<
177.575	-499.01
177.794	-781.52
178.014	-787.64
178.233	-1405.66
178.452	-1466.67
178.672	-829.92
178.891	-2008.62
179.11	10860
179.33	2395.65
179.549	2276.47
179.768	-10645.45
179.987	979.55
180.207	496.72
180.426	872.6
180.645	1081.6
180.864	7747.06
181.084	812.65
181.303	620.09
181.522	860.92
181.741	823.03
181.96	1363.64
182.179	8123.53
182.398	-1614.29
182.618	-564.18
182.837	-468.1
183.056	-493.44
183.275	-473.33
183.494	-164.78
183.713	-101.51
183.932	-57.07
184.151	-46.35
184.37	-47.91
184.589	-47.7
184.808	-49.38
185.027	-63.6
185.246	-140.47
185.465	-133.51
185.684	-176.72
185.903	-312.62
186.122	-431.67
186.341	-1002.65
186.56	-650.6
186.779	-3603.7
186.998	-485.19
187.216	-515
187.435	-500
187.654	-471.52
187.873	-332.14
188.092	-381.41
188.311	-488.57
188.53	-383.7
188.748	-179.25
188.967	-244.78
189.186	-198.86
189.405	-388.17
189.623	-313.44
189.842	-299.72
190.061	-217.2
190.28	-148.84
190.498	-209.13
190.717	-148.24
190.936	-158.12
191.154	-404.95
191.373	-864.37
191.592	1358.14
191.81	578.64
192.029	611.58
192.248	256.86
192.466	385.64
192.685	164
192.904	350.5
193.122	279.12
193.341	322.69
193.559	471.75
193.778	493.92
193.996	461.14
194.215	1392.75
194.433	714.29
194.652	717.48
194.87	583.75
195.089	740
195.307	1614.04
195.526	-915.31
195.744	-700
195.963	-717.33
196.181	-841.32
196.399	-1322.99
196.618	1417.11
196.836	782.98
197.055	813.51
197.273	962.69
197.491	1038.74
197.71	482.94
197.928	405.96
198.146	380.14
198.365	2111.9
198.583	1377.78
198.801	-543.55
199.019	-159.01
199.238	-157.18
199.456	-138.5
199.674	-176.63
199.892	-158.78
200.111	-144.37
200.329	-195.16
200.547	-265.71
200.765	2080.39
200.983	-884.62
201.202	1717.11
201.42	564.64
201.638	397.02
201.856	694.87
202.074	1095.33
202.292	625.36
202.51	535.44
202.728	605.73
202.946	5125
203.165	2592.31
203.383	536.1
203.601	671.07
203.819	1003.64
204.037	-2969.7
204.255	-3381.48
204.473	-485.31
204.691	-406.47
204.909	-256.64
205.127	-1564.58
205.345	492.12
205.562	-526.36
205.78	-117.97
205.998	-109.23
206.216	-86.78
206.434	-135.6
206.652	-168.2
206.87	-290.42
207.088	-194.76
207.306	-394.22
207.523	-290.05
207.741	-241.72
207.959	-457.66
208.177	-544.56
208.395	-530.39
208.612	-607.87
208.83	-347.68
209.048	-352.77
209.266	-370.17
209.483	-236.94
209.701	-260.57
209.919	-237.15
210.136	-254.94
210.354	-233.83
210.572	-281.37
210.79	-294.67
211.007	-650.7
211.225	-6753.33
211.442	1296.61
211.66	3144
211.878	368.44
212.095	1023.04
212.313	1576.27
212.53	854.98
212.748	727.89
212.966	512.17
213.183	689.88
213.401	-7577.78
213.618	-521.83
213.836	-498.63
214.053	-637.61
214.271	-391.67
214.488	-151.34
214.705	-163.6
214.923	-135.01
215.14	-108.11
215.358	-97.97
215.575	-70.12
215.793	-178.6
216.01	-498.1
216.227	-935.34
216.445	-861.11
216.662	-572.84
216.879	-631.3
217.097	-373.84
217.314	-518.68
217.531	16925
217.749	1313.86
217.966	823.63
218.183	517.3
218.4	840
218.618	838.82
218.835	517.67
219.052	416.91
219.269	379.46
219.487	206.76
219.704	203.72
219.921	229.44
220.138	329.66
220.355	268.43
220.572	233.94
220.79	213.91
221.007	254.03
221.224	334.22
221.441	321.97
221.658	314.1
221.875	-1074.29
222.092	-554.55
222.309	1472.73
222.526	242.42
222.743	267.63
222.96	415.83
223.177	1148.84
223.394	909.21
223.611	604.2
223.828	442.4
224.045	313.68
224.262	260.78
224.479	254.73
224.696	481.25
224.913	816.53
225.13	803.77
225.347	484.14
225.564	243.63
225.781	157.83
225.997	130.03
226.214	106.1
226.431	109.21
226.648	88.37
226.865	71.51
227.082	60.59
227.298	58.95
227.515	54.72
227.732	58.67
227.949	58.83
228.165	49.36
228.382	48.76
228.599	52.15
228.816	51.28
229.032	50.98
229.249	50.05
229.466	49.22
229.682	51.03
229.899	50.42
230.116	57.15
230.332	66.71
230.549	72.19
230.765	59.05
230.982	40.59
231.199	40.78
231.415	43.25
231.632	59.1
231.848	50.68
232.065	38.78
232.281	48.52
232.498	49.25
232.714	48.03
232.931	56.19
233.147	68.78
233.364	86.45
233.58	92.45
233.797	89.83
234.013	84.89
234.23	115.75
234.446	128.02
234.662	150.45
234.879	220.74
235.095	161.13
235.312	126.57
235.528	127.73
235.744	132.63
235.961	167.17
236.177	161.49
236.393	202.84
236.61	141.49
236.826	107.8
237.042	74.63
237.258	67.65
237.475	83.17
237.691	117.88
237.907	87.85
238.123	112.25
238.339	96.31
238.556	89.55
238.772	78.97
238.988	78.81
239.204	75.65
239.42	85.07
239.636	70.64
239.853	70.52
240.069	57.57
240.285	51.74
240.501	42.93
240.717	42.47
240.933	44.42
241.149	42.93
241.365	41.04
241.581	39.89
241.797	39.79
242.013	39.53
242.229	36.93
242.445	39.27
242.661	43.43
242.877	44.18
243.093	45.9
243.309	44.74
243.525	42.65
243.741	43.42
243.957	44.96
244.173	37.18
244.388	38.6
244.604	37.8
244.82	35.41
245.036	33.67
245.252	30.25
245.468	26.81
245.683	26.41
245.899	24.56
246.115	23.21
246.331	21.33
246.547	23.53
246.762	22.33
246.978	20.76
247.194	22.37
247.409	22.25
247.625	22.66
247.841	24.79
248.057	25.89
248.272	28.02
248.488	27.19
248.703	31.33
248.919	30.46
249.135	29.85
249.35	35.08
249.566	33.78
249.782	34.36
249.997	36.98
250.213	37.14
250.428	33.09
250.644	34.23
250.859	33.61
251.075	30.15
251.29	27.57
251.506	27.39
251.721	26.43
251.937	27.68
252.152	26.22
252.368	24.78
252.583	23.9
252.798	27.4
253.014	29.02
253.229	29.24
253.445	38.34
253.66	43.14
253.875	42.63
254.091	41.54
254.306	43.54
254.521	36.73
254.737	34.13
254.952	27.84
255.167	26.3
255.383	18.96
255.598	26.02
255.813	15.97
256.028	14.12
256.244	17.68
256.459	17.92
256.674	17.5
256.889	19.24
257.104	18.33
257.32	20.3
257.535	17.42
257.75	20.06
257.965	16.45
258.18	14.86
258.395	13.63
258.61	12.36
258.826	12.18
259.041	11.65
259.256	10.99
259.471	9.92
259.686	11.19
259.901	12.31
260.116	11.41
260.331	14.25
260.546	16.92
260.761	18.81
260.976	21.76
261.191	23.82
261.406	28.97
261.621	31.55
261.836	34.84
262.05	33.32
262.265	35.16
262.48	35.1
262.695	36.1
262.91	38.86
263.125	38.14
263.34	39.59
263.555	32.31
263.769	21.19
263.984	15.33
264.199	13.05
264.414	13.62
264.629	10.16
264.843	14.77
265.058	13.99
265.273	7.51
265.488	10.41
265.702	11.92
265.917	13.86
266.132	15.98
266.346	19.89
266.561	22.03
266.776	22.2
266.99	21.2
267.205	18.91
267.42	14.84
267.634	18.58
267.849	17.11
268.063	14.53
268.278	14.95
268.492	14.23
268.707	12.64
268.922	11.63
269.136	12.42
269.351	13.82
269.565	16.84
269.78	18.24
269.994	18.44
270.209	17.79
270.423	16.67
270.637	15.9
270.852	16.56
271.066	18.3
271.281	20.07
271.495	20.05
271.709	21.02
271.924	17.83
272.138	16.59
272.353	15.77
272.567	16.24
272.781	15.27
272.996	16.03
273.21	16.14
273.424	15.81
273.638	16.65
273.853	17.23
274.067	15.7
274.281	14.88
274.495	17.35
274.71	21.26
274.924	20.57
275.138	24.12
275.352	24.01
275.566	24.62
275.781	25.57
275.995	22.28
276.209	20.78
276.423	19.19
276.637	20.23
276.851	17.04
277.065	13.84
277.279	12.49
277.493	14.53
277.707	13.76
277.921	12.55
278.135	13.17
278.349	12.86
278.563	13.76
278.777	15.35
278.991	15.89
279.205	19.72
279.419	16.35
279.633	18.64
279.847	16.78
280.061	16.16
280.275	15.96
280.489	15.71
280.703	15.68
280.917	14.71
281.131	13.88
281.344	13.34
281.558	11.62
281.772	12.54
281.986	13.12
282.2	11.21
282.414	11.08
282.627	10.08
282.841	9.28
283.055	8.93
283.269	8.75
283.482	8.84
283.696	9.24
283.91	10.36
284.123	11.97
284.337	12.01
284.551	12.64
284.764	11.92
284.978	12.16
285.192	11.43
285.405	11.85
285.619	11.06
285.833	11.61
286.046	12.04
286.26	12.46
286.473	12.31
286.687	11.57
286.9	13.51
287.114	15.22
287.327	15.72
287.541	15.63
287.754	17.02
287.968	18.6
288.181	18.33
288.395	19.09
288.608	18.23
288.822	17.95
289.035	17.18
289.248	15.83
289.462	15.54
289.675	16.06
289.889	17.05
290.102	15.34
290.315	15.71
290.529	16.73
290.742	15.4
290.955	15.43
291.169	16.16
291.382	14.97
291.595	15.55
291.808	15.59
292.022	14.16
292.235	14.47
292.448	15.13
292.661	14.96
292.875	15.17
293.088	15.72
293.301	15.21
293.514	14.06
293.727	16.79
293.94	15.49
294.153	14.26
294.367	14.91
294.58	13.04
294.793	11.82
295.006	10.91
295.219	9.45
295.432	7.44
295.645	8.47
295.858	9.32
296.071	9.12
296.284	9.22
296.497	11.2
296.71	13
296.923	13.31
297.136	14.45
297.349	15.79
297.562	15.02
297.775	16.3
297.988	15.97
298.201	16.76
298.414	16.68
298.626	15.78
298.839	16
299.052	13.91
299.265	15.17
299.478	15.29
299.691	14.85
299.903	16.9
300.116	17.12
300.329	16.06
300.542	15.1
300.755	15.2
300.967	16.7
301.18	15.95
301.393	16.09
301.605	16.5
301.818	15.22
302.031	14.93
302.243	15.39
302.456	16.88
302.669	16.53
302.881	15.98
303.094	16.97
303.307	16.53
303.519	17.12
303.732	17.68
303.944	17.31
304.157	18.58
304.37	19.08
304.582	17.62
304.795	18.21
305.007	19.47
305.22	19.65
305.432	17.35
305.645	15.24
305.857	14.25
306.069	13.29
306.282	13.01
306.494	12.16
306.707	12.95
306.919	13.2
307.132	11.64
307.344	12.07
307.556	11.19
307.769	11.74
307.981	14.52
308.193	13.35
308.406	13.68
308.618	12.21
308.83	12.83
309.043	11.09
309.255	11.03
309.467	10.98
309.679	9.07
309.892	9.93
310.104	10.71
310.316	11.36
310.528	12.52
310.74	11.23
310.953	12.45
311.165	11.83
311.377	13.14
311.589	13.68
311.801	14.13
312.013	15.76
312.225	15.04
312.437	13.37
312.649	10.86
312.862	11.39
313.074	13.72
313.286	13.35
313.498	14.07
313.71	12.92
313.922	13.61
314.134	13.78
314.346	15.81
314.558	16.59
314.77	18.51
314.982	22.13
315.193	21.17
315.405	20.74
315.617	21.22
315.829	21.8
316.041	22.19
316.253	21.57
316.465	21.66
316.677	18.78
316.888	20.08
317.1	19.7
317.312	19.76
317.524	21.19
317.736	22.52
317.947	22.92
318.159	23.1
318.371	23.11
318.583	22.44
318.794	23.01
319.006	25.34
319.218	25.16
319.43	25.89
319.641	24.57
319.853	24
320.064	22.21
320.276	21.5
320.488	21.6
320.699	20.77
320.911	22.21
321.123	22.83
321.334	21.91
321.546	20.21
321.757	19.52
321.969	21.09
322.18	20.69
322.392	20.83
322.603	20.92
322.815	19.39
323.026	19.2
323.238	18.83
323.449	16.48
323.661	16.95
323.872	17.28
324.083	18.17
324.295	16.25
324.506	15.11
324.718	14.54
324.929	15.55
325.14	17.69
325.352	18.06
325.563	18.6
325.774	19.74
325.986	18.99
326.197	19.14
326.408	18.27
326.62	18.06
326.831	18.3
327.042	19.69
327.253	19.58
327.464	18.14
327.676	17.22
327.887	15.77
328.098	15.99
328.309	15.37
328.52	15.7
328.732	17.2
328.943	18.41
329.154	17.71
329.365	18.54
329.576	18.63
329.787	20.4
329.998	23.45
330.209	24.88
330.42	25.42
330.631	25.72
330.842	25.44
331.053	23.56
331.264	23.46
331.475	25.79
331.686	24.76
331.897	23.09
332.108	22.35
332.319	21.68
332.53	21
332.741	19.65
332.952	19.19
333.163	19.81
333.374	21.32
333.585	21.1
333.795	21.31
334.006	19.69
334.217	21.41
334.428	19.03
334.639	18.16
334.849	18.87
335.06	20.89
335.271	21.31
335.482	20.33
335.692	20.19
335.903	18.28
336.114	19.08
336.325	19.05
336.535	17.19
336.746	19.75
336.957	20.05
337.167	18.41
337.378	18.21
337.589	19.04
337.799	18.46
338.01	18.24
338.22	20.19
338.431	17.88
338.642	18.57
338.852	19.71
339.063	18.81
339.273	19.62
339.484	21.44
339.694	19.01
339.905	19.46
340.115	20.54
340.326	19.33
340.536	19.01
340.746	18.31
340.957	19.51
341.167	19.89
341.378	20.39
341.588	18.96
341.799	18.33
342.009	19.72
342.219	19.68
342.43	20.4
342.64	21.07
342.85	20.59
343.061	21.55
343.271	20.41
343.481	18.92
343.691	18.19
343.902	18.8
344.112	19.42
344.322	18.21
344.532	16.59
344.743	16.89
344.953	17.2
345.163	16.03
345.373	16.13
345.583	17.51
345.793	20.02
346.004	20.09
346.214	21
346.424	21.61
346.634	22.97
346.844	25.07
347.054	24.9
347.264	24.6
347.474	25.25
347.684	26.49
347.894	25.16
348.104	22.18
348.314	22.84
348.524	21
348.734	20.43
348.944	18.92
349.154	17.78
349.364	16.88
349.574	16.95
349.784	17.23
349.994	16.46
350.204	15.92
350.413	16.59
350.623	14.91
350.833	16.58
351.043	16.68
351.253	17.91
351.463	17.29
351.672	17.24
351.882	17.74
352.092	18.23
352.302	17.21
352.511	18.33
352.721	18.65
352.931	19.21
353.141	18.51
353.35	18.16
353.56	16.89
353.77	16.93
353.979	16.65
354.189	15.61
354.399	15.31
354.608	15.93
354.818	15.29
355.027	15.98
355.237	16.12
355.447	16.4
355.656	16.17
355.866	16.95
356.075	17.32
356.285	17.47
356.494	17.97
356.704	18.85
356.913	18.28
357.123	17.76
357.332	17.14
357.542	17.84
357.751	17.88
357.96	16.83
358.17	16.27
358.379	15.66
358.589	16.32
358.798	16.65
359.007	16.98
359.217	17.34
359.426	18.02
359.635	17.68
359.845	16.76
360.054	15.58
360.263	16.63
360.472	17.35
360.682	18.12
360.891	17.31
361.1	17.32
361.309	17.43
361.519	16.87
361.728	16.67
361.937	17.35
362.146	17.56
362.355	18.47
362.564	17.59
362.774	16.82
362.983	16.27
363.192	16.19
363.401	16.54
363.61	15.17
363.819	15.98
364.028	16.17
364.237	15.46
364.446	15.89
364.655	15.05
364.864	15.8
365.073	15.74
365.282	15.07
365.491	15.65
365.7	16.73
365.909	16.2
366.118	15.72
366.327	15.47
366.536	14.69
366.745	13.97
366.954	15.06
367.162	14.97
367.371	16.67
367.58	17.31
367.789	17.13
367.998	15.72
368.207	16.64
368.415	17.94
368.624	17.93
368.833	19.05
369.042	18.25
369.25	16.62
369.459	17.17
369.668	16.02
369.877	17.01
370.085	17.19
370.294	16.34
370.503	16.64
370.711	16.47
370.92	16.29
371.129	16.47
371.337	16.77
371.546	17.14
371.754	16.63
371.963	16.7
372.171	14.86
372.38	15.1
372.589	15.15
372.797	14.73
373.006	13.92
373.214	13.5
373.423	13.2
373.631	13.82
373.84	13.57
374.048	12.65
374.256	12.98
374.465	14.2
374.673	14.83
374.882	13.89
375.09	13.83
375.298	14.31
375.507	14.06
375.715	13.82
375.923	13.7
376.132	13.65
376.34	13.57
376.548	13.97
376.757	13.14
376.965	11.81
377.173	12.49
377.381	12.52
377.59	11.13
377.798	11.97
378.006	10.77
378.214	11.77
378.423	12.41
378.631	13.08
378.839	12.99
379.047	14.14
379.255	15.05
379.463	15.26
379.671	15.39
379.879	16.42
380.088	16.04
380.296	17.79
380.504	16.8
380.712	16.34
380.92	16.49
381.128	16.31
381.336	15.4
381.544	14.13
381.752	13.33
381.96	12.47
382.168	12.18
382.376	13.51
382.584	12.97
382.791	12.71
382.999	12.68
383.207	11.82
383.415	11.93
383.623	12.38
383.831	13.14
384.039	14.07
384.247	14.61
384.454	14.81
384.662	13.82
384.87	13.87
385.078	14.28
385.285	14.83
385.493	15.75
385.701	14.92
385.909	14.49
386.116	15.08
386.324	14.24
386.532	14.18
386.739	14.16
386.947	14.18
387.155	13.29
387.362	13.52
387.57	12.03
387.778	11.12
387.985	10.02
388.193	9.88
388.4	8.45
388.608	8.57
388.816	7.51
389.023	7.26
389.231	7.13
389.438	8.22
389.646	7.49
389.853	9.42
390.061	9.97
390.268	10.88
390.475	10.56
390.683	11.27
390.89	11.72
391.098	12.9
391.305	12.78
391.512	12.44
391.72	12.23
391.927	12.66
392.135	11.98
392.342	11.88
392.549	11.74
392.756	12.1
392.964	11.65
393.171	12.01
393.378	11.33
393.586	11.08
393.793	11.24
394	10.98
394.207	10.74
394.414	10.64
394.622	11.33
394.829	12
395.036	12.42
395.243	12.85
395.45	12.59
395.657	12.94
395.864	13.36
396.072	13.61
396.279	13.65
396.486	13.53
396.693	12.93
396.9	12.08
397.107	11.75
397.314	11.32
397.521	11.48
397.728	10.79
397.935	10.22
398.142	11.06
398.349	9.81
398.556	9.82
398.763	10.36
398.97	11.2
399.177	11.26
399.383	10.91
399.59	11.26
399.797	10.94
400.004	11.57
400.211	11.66
400.418	10.39
400.625	10.98
400.831	11.53
401.038	10.62
401.245	10.81
401.452	10.91
401.658	11.68
401.865	11.4
402.072	11.58
402.279	11.79
402.485	12.59
402.692	12.68
402.899	12.14
403.105	11.62
403.312	11.97
403.519	11.99
403.725	11.76
403.932	11.07
404.138	11.39
404.345	11.14
404.552	10.65
404.758	10.97
404.965	10.99
405.171	12.16
405.378	11.87
405.584	12.38
405.791	11.94
405.997	12.37
406.204	12.97
406.41	13.15
406.617	13.27
406.823	12.84
407.029	11.61
407.236	11.31
407.442	10.66
407.649	10.85
407.855	10.56
408.061	10.64
408.268	10.42
408.474	10.12
408.68	9.2
408.887	9.46
409.093	10.15
409.299	10.88
409.505	11.28
409.712	11.3
409.918	11.27
410.124	10.27
410.33	10.12
410.537	9.96
410.743	9.72
410.949	10.97
411.155	10.14
411.361	9.42
411.567	8.58
411.773	8.95
411.98	9.56
412.186	10.19
412.392	10.97
412.598	10.3
412.804	10.02
413.01	10.04
413.216	9.05
413.422	9.51
413.628	10.27
413.834	10.25
414.04	9.85
414.246	9.44
414.452	8.67
414.658	8.64
414.864	9.66
415.07	9.55
415.275	9.56
415.481	9.68
415.687	9.63
415.893	8.83
416.099	9.23
416.305	9.11
416.511	8.94
416.716	8.91
416.922	9
417.128	8.64
417.334	8.74
417.539	8.56
417.745	8.73
417.951	8.41
418.157	9.01
418.362	9.19
418.568	9.32
418.774	9.13
418.979	9.37
419.185	8.96
419.391	8.64
419.596	8.78
419.802	8.85
420.008	8.27
420.213	8.64
420.419	8.44
420.624	8.42
420.83	8.49
421.035	8.59
421.241	8.4
421.446	8.84
421.652	9.23
421.857	9.18
422.063	8.84
422.268	9.31
422.474	8.9
422.679	8.76
422.885	8.3
423.09	8.13
423.295	8.09
423.501	8.26
423.706	7.87
423.911	7.8
424.117	7.7
424.322	7.95
424.527	7.59
424.733	8.04
424.938	7.93
425.143	8.13
425.349	7.74
425.554	7.69
425.759	7.83
425.964	7.87
426.169	7.9
426.375	8.03
426.58	8.01
426.785	8.29
426.99	8.11
427.195	8.5
427.4	8.45
427.605	9.55
427.811	9.91
428.016	9.11
428.221	9.54
428.426	9.64
428.631	9.54
428.836	9.48
429.041	9.65
429.246	9.51
429.451	9.25
429.656	9.13
429.861	8.43
430.066	8.69
430.271	9.26
430.476	8.96
430.681	8.33
430.886	8.51
431.09	8.46
431.295	8.5
431.5	8.77
431.705	9.6
431.91	9.8
432.115	9.66
432.32	9.06
432.524	8.81
432.729	8.91
432.934	9.37
433.139	9.13
433.343	9.07
433.548	9.07
433.753	8.72
433.958	7.99
434.162	8.02
434.367	8.19
434.572	8.38
434.776	8.52
434.981	8.51
435.186	8.04
435.39	8.3
435.595	8.38
435.799	8.14
436.004	8.14
436.209	8.2
436.413	7.95
436.618	7.65
436.822	7.63
437.027	7.85
437.231	7.75
437.436	8
437.64	8.01
437.845	8
438.049	8.01
438.253	7.91
438.458	8.04
438.662	8.35
438.867	8.27
439.071	8.38
439.275	8.3
439.48	8.46
439.684	8.51
439.888	8.5
440.093	8.56
440.297	8.63
440.501	8.88
440.706	8.72
440.91	8.57
441.114	8.76
441.318	8.63
441.523	8.49
441.727	8.25
441.931	8.57
442.135	8.51
442.339	8.48
442.543	8.08
442.748	8.1
442.952	8.1
443.156	7.84
443.36	7.86
443.564	7.77
443.768	7.98
443.972	8.5
444.176	8.14
444.38	8.14
444.584	8.03
444.788	8.28
444.992	8.1
445.196	7.87
445.4	7.94
445.604	7.63
445.808	7.71
446.012	7.62
446.216	7.3
446.42	7.24
446.624	7.25
446.828	7.42
447.032	7.41
447.235	7.59
447.439	7.73
447.643	7.95
447.847	8.54
448.051	8.37
448.254	8.17
448.458	8.05
448.662	8.02
448.866	8.16
449.069	8.05
449.273	8.04
449.477	7.81
449.681	7.85
449.884	7.63
450.088	7.34
450.292	7.81
450.495	8.19
450.699	8.44
450.902	8.62
451.106	8.28
451.31	8.57
451.513	8.81
451.717	8.97
451.92	9.25
452.124	9.39
452.327	9.19
452.531	9.55
452.734	9.11
452.938	8.83
453.141	8.87
453.345	8.66
453.548	8.27
453.752	8.19
453.955	8.18
454.158	7.75
454.362	7.52
454.565	7.57
454.769	7.16
454.972	7.53
455.175	8.07
455.379	8.59
455.582	9.17
455.785	9.34
455.988	8.98
456.192	8.69
456.395	8.78
456.598	9.1
456.801	9.49
457.005	9.23
457.208	8.79
457.411	8.35
457.614	7.87
457.817	7.46
458.021	7.32
458.224	7.23
458.427	7.09
458.63	7.01
458.833	6.98
459.036	6.78
459.239	6.73
459.442	6.67
459.645	6.64
459.848	6.64
460.051	6.79
460.254	6.98
460.457	7.3
460.66	7.49
460.863	7.68
461.066	7.6
461.269	7.49
461.472	7.64
461.675	8.03
461.878	8.23
462.081	8.39
462.284	8.39
462.486	8.04
462.689	7.48
462.892	7.78
463.095	7.86
463.298	7.81
463.5	8.32
463.703	8.26
463.906	7.98
464.109	8.01
464.311	7.98
464.514	8.08
464.717	7.85
464.92	8.47
465.122	8.54
465.325	8.69
465.528	8.71
465.73	8.16
465.933	8.24
466.135	8.41
466.338	8.49
466.541	8.03
466.743	7.86
466.946	8.42
467.148	8.39
467.351	8.41
467.553	8.09
467.756	8.15
467.958	8.54
468.161	8.63
468.363	8.91
468.566	8.97
468.768	9.09
468.971	9
469.173	9.3
469.375	9.24
469.578	8.39
469.78	8.43
469.983	8.12
470.185	7.96
470.387	8.11
470.59	7.66
470.792	7.36
470.994	7.29
471.196	7.73
471.399	6.98
471.601	7.19
471.803	7.34
472.005	7.35
472.208	7.62
472.41	7.34
472.612	6.72
472.814	7.1
473.016	7.02
473.218	7.22
473.421	6.7
473.623	6.88
473.825	6.39
474.027	6.79
474.229	7.52
474.431	7.36
474.633	7.54
474.835	7.31
475.037	7.23
475.239	7.38
475.441	7.48
475.643	7.72
475.845	7.76
476.047	8.22
476.249	8.1
476.451	7.43
476.653	7.62
476.855	7.92
477.057	8.29
477.258	7.76
477.46	7.65
477.662	7.59
477.864	7.43
478.066	7.62
478.268	7.45
478.469	7.88
478.671	7.81
478.873	7.65
479.075	7.48
479.276	7.49
479.478	7.63
479.68	7.84
479.882	7.85
480.083	7.98
480.285	7.46
480.487	7.44
480.688	7.12
480.89	7.17
481.091	7.14
481.293	6.86
481.495	6.86
481.696	6.71
481.898	6.38
482.099	6.38
482.301	6.21
482.502	6.38
482.704	6.27
482.905	6.25
483.107	6.23
483.308	6.09
483.51	6.09
483.711	6.04
483.913	6.2
484.114	6.26
484.315	6.23
484.517	6.48
484.718	6.5
484.92	6.56
485.121	6.59
485.322	6.53
485.524	6.65
485.725	6.83
485.926	6.82
486.127	6.76
486.329	6.75
486.53	6.66
486.731	6.46
486.932	6.33
487.134	6.4
487.335	6.28
487.536	6.37
487.737	6.45
487.938	6.4
488.139	6.47
488.341	6.46
488.542	6.58
488.743	6.72
488.944	6.77
489.145	6.87
489.346	6.77
489.547	6.78
489.748	6.76
489.949	6.81
490.15	6.76
490.351	6.64
490.552	6.55
490.753	6.49
490.954	6.55
491.155	6.5
491.356	6.46
491.557	6.42
491.758	6.64
491.959	6.74
492.159	6.8
492.36	6.81
492.561	6.94
492.762	6.92
492.963	7.04
493.164	6.95
493.364	7.24
493.565	7.39
493.766	7.46
493.967	7.35
494.167	7.3
494.368	6.95
494.569	7.09
494.769	7.1
494.97	7.16
495.171	7.3
495.371	7.02
495.572	6.99
495.773	6.96
495.973	6.97
496.174	7
496.375	7.1
496.575	7.12
496.776	7.12
496.976	6.87
497.177	7
497.377	7.01
497.578	7.11
497.778	6.8
497.979	7.15
498.179	7.12
498.38	7.11
498.58	6.74
498.78	6.87
498.981	7.02
499.181	7.34
499.382	7.47
499.582	7.33
499.782	7.66
499.983	8.04
500.183	7.43
500.383	7.33
500.584	7.43
500.784	7.54
500.984	7.51
501.184	7.13
501.385	7.32
501.585	7.38
501.785	7.4
501.985	7.34
502.185	7.41
502.386	7.6
502.586	8.08
502.786	8.2
502.986	8.38
503.186	8.5
503.386	8.91
503.586	8.83
503.786	8.76
503.987	8.75
504.187	8.65
504.387	8.39
504.587	8.32
504.787	7.95
504.987	7.82
505.187	7.89
505.387	8.02
505.587	7.72
505.786	7.6
505.986	7.93
506.186	8.02
506.386	8.42
506.586	8.73
506.786	8.94
506.986	8.96
507.186	9.16
507.386	9.29
507.585	9.35
507.785	9.51
507.985	9.66
508.185	9.68
508.384	10.07
508.584	10.03
508.784	9.88
508.984	10.21
509.183	10.52
509.383	10.47
509.583	10.53
509.782	10.25
509.982	10.45
510.182	10.78
510.381	10.49
510.581	10.11
510.781	10.01
510.98	10.16
511.18	9.95
511.379	9.75
511.579	9.72
511.778	9.84
511.978	10.11
512.177	10.08
512.377	9.77
512.576	9.8
512.776	9.68
512.975	9.82
513.175	9.81
513.374	9.95
513.573	10.07
513.773	10.33
513.972	10.16
514.172	10.18
514.371	10.03
514.57	10.09
514.77	10.38
514.969	10.35
515.168	10.62
515.367	10.82
515.567	10.7
515.766	11.05
515.965	10.95
516.164	10.94
516.364	11.02
516.563	11.08
516.762	11.2
516.961	11.11
517.16	11.4
517.359	11.15
517.559	10.99
517.758	10.98
517.957	10.75
518.156	10.93
518.355	10.94
518.554	10.94
518.753	11.01
518.952	11.01
519.151	11.09
519.35	11.09
519.549	11.12
519.748	11.32
519.947	11.44
520.146	11.65
520.345	11.54
520.544	11.43
520.743	11.38
520.942	11.27
521.141	11.32
521.339	11.41
521.538	11.85
521.737	12.24
521.936	12.1
522.135	12.3
522.333	12.62
522.532	12.73
522.731	12.94
522.93	13.22
523.129	13.44
523.327	13.64
523.526	13.71
523.725	13.32
523.923	13.09
524.122	13.19
524.321	13.26
524.519	12.96
524.718	13.06
524.917	13.38
525.115	13.35
525.314	13.38
525.512	13.58
525.711	13.68
525.909	13.65
526.108	13.86
526.306	13.77
526.505	13.85
526.703	13.97
526.902	13.85
527.1	13.8
527.299	13.78
527.497	13.72
527.696	13.56
527.894	13.44
528.092	13.56
528.291	13.52
528.489	13.68
528.688	13.65
528.886	13.65
529.084	13.86
529.283	13.82
529.481	13.89
529.679	14.09
529.877	14.37
530.076	14.65
530.274	14.87
530.472	14.91
530.67	15.03
530.869	15.24
531.067	15.39
531.265	15.28
531.463	15.51
531.661	15.6
531.859	15.74
532.057	15.44
532.255	15.47
532.454	15.41
532.652	15.4
532.85	15.4
533.048	15.43
533.246	15.53
533.444	15.64
533.642	15.76
533.84	16.04
534.038	16.07
534.236	16.25
534.434	16.27
534.632	16.42
534.83	16.82
535.027	16.92
535.225	17.13
535.423	17.21
535.621	17.5
535.819	17.27
536.017	17.26
536.215	17.44
536.412	17.53
536.61	17.43
536.808	17.43
537.006	17.39
537.203	17.64
537.401	17.5
537.599	17.53
537.797	17.35
537.994	17.46
538.192	17.56
538.39	17.36
538.587	17.68
538.785	17.9
538.983	17.97
539.18	17.91
539.378	17.78
539.575	17.85
539.773	17.68
539.97	17.76
540.168	17.85
540.366	17.79
540.563	17.81
540.761	17.83
540.958	17.91
541.155	17.94
541.353	18.04
541.55	18.14
541.748	18.14
541.945	18.33
542.143	18.33
542.34	18.42
542.537	18.51
542.735	18.71
542.932	18.73
543.129	18.89
543.327	19.08
543.524	18.91
543.721	19.03
543.919	19.16
544.116	19.24
544.313	19.57
544.51	19.69
544.708	19.84
544.905	19.64
545.102	19.59
545.299	19.64
545.496	19.51
545.693	19.91
545.891	19.71
546.088	19.47
546.285	19.62
546.482	19.35
546.679	19.3
546.876	19.39
547.073	19.72
547.27	20.02
547.467	19.91
547.664	20.27
547.861	20.31
548.058	20.62
548.255	21.08
548.452	21.27
548.649	21.71
548.846	22.42
549.043	22.26
549.24	22.31
549.437	22.14
549.633	22.53
549.83	22.52
550.027	22.46
550.224	22.3
550.421	22.07
550.618	22.02
550.814	21.84
551.011	21.18
551.208	21.1
551.405	20.93
551.601	21.01
551.798	20.74
551.995	20.97
552.191	20.89
552.388	21.27
552.585	21.88
552.781	21.93
552.978	21.97
553.175	22
553.371	22.15
553.568	22.53
553.764	22.65
553.961	22.99
554.157	22.78
554.354	22.53
554.55	22.28
554.747	22.3
554.943	22.49
555.14	22.76
555.336	22.79
555.533	22.53
555.729	22.28
555.926	22.41
556.122	22.38
556.318	22.88
556.515	23.45
556.711	23.9
556.907	23.49
557.104	23.1
557.3	22.8
557.496	22.99
557.693	23.32
557.889	23.64
558.085	23.56
558.281	23.62
558.478	23.16
558.674	23.2
558.87	22.95
559.066	23.16
559.262	23.17
559.459	23.06
559.655	22.81
559.851	23.05
560.047	22.86
560.243	22.94
560.439	22.88
560.635	23.17
560.831	23.51
561.027	23.49
561.223	23.38
561.419	23.46
561.615	23.95
561.811	23.89
562.007	23.69
562.203	23.82
562.399	23.77
562.595	23.75
562.791	23.82
562.987	23.44
563.183	23.76
563.379	23.55
563.575	23.67
563.771	23.29
563.966	23.65
564.162	23.75
564.358	23.75
564.554	23.4
564.75	23.57
564.945	23.32
565.141	23.53
565.337	23.18
565.533	23.34
565.728	23.25
565.924	23.54
566.12	23.46
566.315	23.55
566.511	23.27
566.707	23.79
566.902	24.17
567.098	24.27
567.293	24.12
567.489	24.41
567.684	24.54
567.88	24.62
568.076	24.54
568.271	24.68
568.467	24.52
568.662	24.87
568.858	24.78
569.053	24.09
569.248	24.22
569.444	24.51
569.639	24.5
569.835	24.51
570.03	24.38
570.225	24.77
570.421	24.81
570.616	25.22
570.812	25.37
571.007	25.65
571.202	25.91
571.397	25.61
571.593	25.3
571.788	25.15
571.983	25.08
572.178	25.47
572.374	25.04
572.569	25.02
572.764	24.43
572.959	24.14
573.154	23.94
573.35	24.11
573.545	24.51
573.74	24.56
573.935	24.98
574.13	24.99
574.325	24.94
574.52	25.11
574.715	25.37
574.91	25.84
575.105	26.34
575.3	26.67
575.495	26.73
575.69	27.05
575.885	27.2
576.08	26.81
576.275	26.92
576.47	27.56
576.665	27.59
576.86	27.43
577.055	27.14
577.25	26.74
577.444	26.54
577.639	26.13
577.834	26
578.029	26.52
578.224	26.23
578.418	26.67
578.613	25.91
578.808	26.58
579.003	26.08
579.197	26.17
579.392	26.21
579.587	26.2
579.781	26.11
579.976	25.7
580.171	25.41
580.365	25.59
580.56	25.18
580.755	24.92
580.949	24.26
581.144	24.8
581.338	24.94
581.533	25.36
581.727	25.38
581.922	25.56
582.116	25.57
582.311	25.15
582.505	25.74
582.7	25.79
582.894	26.52
583.089	26.37
583.283	26.1
583.478	26.5
583.672	25.98
583.866	26.05
584.061	26.4
584.255	26.39
584.449	26.81
584.644	26.35
584.838	26.42
585.032	25.76
585.226	26.01
585.421	26.55
585.615	26.11
585.809	26.14
586.003	25.89
586.198	26.41
586.392	26.34
586.586	26.28
586.78	26.44
586.974	26.41
587.168	26.6
587.363	26.75
587.557	26.79
587.751	26.99
587.945	27.54
588.139	27.56
588.333	26.81
588.527	27.18
588.721	27.3
588.915	27.55
589.109	27.41
589.303	27.32
589.497	27.25
589.691	27.01
589.885	27.09
590.079	26.56
590.273	27.02
590.466	27.38
590.66	27.04
590.854	27.06
591.048	27.03
591.242	27.13
591.436	27.44
591.629	27.36
591.823	27.51
592.017	27.5
592.211	27.74
592.404	27.72
592.598	27.13
592.792	27.27
592.986	27.01
593.179	26.69
593.373	26.76
593.567	26.3
593.76	26.5
593.954	26.11
594.147	25.86
594.341	25.74
594.535	25.66
594.728	25.93
594.922	26.06
595.115	25.93
595.309	26.13
595.502	26.62
595.696	26.91
595.889	26.94
596.083	27.36
596.276	27.46
596.47	27.65
596.663	27.53
596.856	27.86
597.05	27.56
597.243	27.65
597.437	27.7
597.63	27.34
597.823	27.3
598.017	27.09
598.21	26.99
598.403	27.22
598.596	27.28
598.79	27.79
598.983	27.94
599.176	27.58
599.369	27.72
599.563	27.8
599.756	27.66
599.949	27.98
600.142	28.51
600.335	28.08
600.528	28.12
600.722	27.98
600.915	27.27
601.108	27.26
601.301	28.04
601.494	28.08
601.687	27.9
601.88	28.06
602.073	27.53
602.266	27.23
602.459	27.73
602.652	27.22
602.845	27.27
603.038	27.57
603.231	27.08
603.424	27.29
603.617	27.1
603.809	27.11
604.002	26.77
604.195	27.02
604.388	26.84
604.581	26.75
604.774	27.51
604.966	27.29
605.159	26.98
605.352	27.21
605.545	27.15
605.737	27.43
605.93	27.88
606.123	28.03
606.316	27.9
606.508	28.41
606.701	28.12
606.894	27.35
607.086	27.37
607.279	27.84
607.471	27.99
607.664	27.6
607.857	27.58
608.049	27.7
608.242	27.88
608.434	28.2
608.627	28.68
608.819	28.51
609.012	28.85
609.204	29.14
609.397	29.31
609.589	29.13
609.782	29.13
609.974	28.93
610.166	28.84
610.359	29.08
610.551	29.03
610.743	28.51
610.936	28.71
611.128	28.63
611.32	28.83
611.513	28.17
611.705	28.57
611.897	29.01
612.09	29.3
612.282	29.42
612.474	29.44
612.666	29.61
612.858	28.71
613.051	28.83
613.243	28.36
613.435	28.45
613.627	28.29
613.819	28.03
614.011	27.42
614.203	28.19
614.395	27.98
614.588	28.59
614.78	28.92
614.972	30.43
615.164	30.63
615.356	31.31
615.548	31.36
615.74	31.59
615.932	31.62
616.124	32.4
616.315	32.36
616.507	32.84
616.699	32.34
616.891	31.81
617.083	31.41
617.275	31.64
617.467	31.54
617.659	31.45
617.85	31.3
618.042	31.34
618.234	30.96
618.426	30.76
618.618	29.71
618.809	29.67
619.001	29.85
619.193	29.51
619.384	29.8
619.576	29.86
619.768	29.5
619.959	30.02
620.151	29.78
620.343	30
620.534	30.18
620.726	30.58
620.917	30.84
621.109	30.77
621.301	30.89
621.492	30.48
621.684	30.33
621.875	30.02
622.067	29.86
622.258	30.8
622.45	30.78
622.641	30.37
622.832	31.44
623.024	30.62
623.215	30.22
623.407	29.74
623.598	29.93
623.789	30.47
623.981	31.12
624.172	31.46
624.363	31.36
624.555	31.02
624.746	30.97
624.937	30.61
625.129	31.16
625.32	31.71
625.511	31.86
625.702	31.81
625.893	32
626.085	31.51
626.276	30.97
626.467	30.69
626.658	30.8
626.849	31.13
627.04	30.98
627.231	30.9
627.422	30.19
627.614	30.65
627.805	30.15
627.996	30.29
628.187	30.53
628.378	30.8
628.569	30.61
628.76	30.33
628.951	29.93
629.142	29.82
629.332	29.72
629.523	30.01
629.714	29.43
629.905	30.13
630.096	29.43
630.287	29.82
630.478	30.29
630.669	30.16
630.859	30.57
631.05	30.44
631.241	29.68
631.432	29.32
631.623	29.33
631.813	29.42
632.004	29.2
632.195	28.45
632.385	28.02
632.576	27.47
632.767	27.43
632.957	27.58
633.148	27.51
633.339	27.47
633.529	27.94
633.72	28.26
633.91	28.34
634.101	28.32
634.292	29.36
634.482	29.59
634.673	29.83
634.863	29.88
635.054	29.47
635.244	30.48
635.435	31.51
635.625	32.19
635.815	32.08
636.006	32
636.196	31.95
636.387	31.24
636.577	31.05
636.767	31.61
636.958	31.5
637.148	31.87
637.338	31.45
637.529	31.03
637.719	30.43
637.909	30.71
638.099	31.18
638.29	30.95
638.48	31.44
638.67	31.56
638.86	31.07
639.05	31.23
639.241	31.92
639.431	31.56
639.621	31.96
639.811	31.6
640.001	31.44
640.191	32.1
640.381	32.34
640.571	32.73
640.761	33.73
640.951	33.82
641.141	33.78
641.331	32.89
641.521	32.96
641.711	32.5
641.901	32.38
642.091	33.12
642.281	31.8
642.471	31.85
642.661	32.11
642.851	31.2
643.041	30.78
643.231	31.23
643.42	31.5
643.61	32.42
643.8	32.82
643.99	33.14
644.18	32.66
644.369	33.89
644.559	33.68
644.749	32.8
644.939	32.76
645.128	33.9
645.318	33.67
645.508	33.93
645.697	33.45
645.887	33.89
646.076	34.48
646.266	34.88
646.456	34.45
646.645	34.92
646.835	34.66
647.024	34.93
647.214	34.3
647.403	34.69
647.593	34.45
647.782	34.5
647.972	34
648.161	33.92
648.351	33.51
648.54	33.79
648.73	33.91
648.919	34.52
649.108	34.3
649.298	34.17
649.487	34.08
649.677	34.29
649.866	34.76
650.055	34.87
650.244	34.83
650.434	34.6
650.623	34.27
650.812	33.92
651.002	34.08
651.191	34.49
651.38	34.05
651.569	33.79
651.758	33.57
651.947	32.91
652.137	32.21
652.326	31.63
652.515	31.4
652.704	30.92
652.893	30.28
653.082	30.33
653.271	30.58
653.46	31.08
653.649	31.34
653.838	31.35
654.027	32.49
654.216	33.58
654.405	33.91
654.594	34.55
654.783	35.27
654.972	35.77
655.161	35.58
655.35	35.16
655.539	35.82
655.728	35.08
655.916	34.71
656.105	34.01
656.294	33.73
656.483	33.87
656.672	33.56
656.86	33.43
657.049	33.62
657.238	33
657.427	33
657.615	32.2
657.804	32.75
657.993	32.95
658.181	33.04
658.37	32.36
658.559	31.25
658.747	31.83
658.936	31.36
659.125	31.28
659.313	31.65
659.502	31.81
659.69	32.04
659.879	31.98
660.067	31.59
660.256	31.18
660.444	32
660.633	32.79
660.821	32.19
661.01	33.08
661.198	32.3
661.387	32.33
661.575	32.17
661.763	32.25
661.952	32.26
662.14	32.22
662.328	32.32
662.517	31.99
662.705	32.14
662.893	32.54
663.082	32.63
663.27	33.43
663.458	33.61
663.646	33.37
663.834	32.32
664.023	33.12
664.211	33.12
664.399	33.42
664.587	33.39
664.775	33.72
664.963	33.61
665.152	34
665.34	33.84
665.528	33.75
665.716	33.95
665.904	35.18
666.092	33.58
666.28	34.48
666.468	33.57
666.656	34.27
666.844	34.42
667.032	34.01
667.22	33.57
667.408	33.14
667.596	33.18
667.784	34.21
667.971	34.14
668.159	35.12
668.347	35.46
668.535	35.5
668.723	35.05
668.911	34.74
669.098	35.11
669.286	35.19
669.474	36.34
669.662	36.41
669.849	35.24
670.037	36.04
670.225	36.57
670.413	36.18
670.6	36.28
670.788	35.62
670.976	36.57
671.163	36.42
671.351	35.76
671.538	35.55
671.726	36.08
671.913	37.11
672.101	35.41
672.289	35.51
672.476	35.8
672.664	36.08
672.851	36.29
673.039	36.28
673.226	36.28
673.413	35.97
673.601	35.62
673.788	34.88
673.976	34.49
674.163	36.2
674.35	34.98
674.538	34.3
674.725	33.94
674.912	34.08
675.1	33.57
675.287	33.52
675.474	33.31
675.662	32.99
675.849	33.08
676.036	32.89
676.223	31.91
676.411	32.46
676.598	32.64
676.785	33.82
676.972	34.08
677.159	33.91
677.346	33.4
677.533	34.91
677.721	34.83
677.908	34.66
678.095	34.65
678.282	34.35
678.469	33.13
678.656	33.44
678.843	32.97
679.03	32.98
679.217	32.35
679.404	33
679.591	32.48
679.778	33.23
679.964	33.61
680.151	33.67
680.338	34.23
680.525	35.84
680.712	35.43
680.899	35.32
681.086	35.16
681.272	35.67
681.459	36.1
681.646	36.13
681.833	35.91
682.02	36.25
682.206	36.59
682.393	36.67
682.58	35.62
682.766	38.42
682.953	38.71
683.14	38.12
683.326	38.58
683.513	39.49
683.7	39.36
683.886	40.31
684.073	40.8
684.259	40.67
684.446	41.27
684.632	41.88
684.819	38.84
685.005	38.71
685.192	38.78
685.378	39.52
685.565	37.99
685.751	37.47
685.938	36.82
686.124	35.28
686.31	33.88
686.497	33.66
686.683	34.67
686.87	35.19
687.056	35.53
687.242	35.17
687.429	35.37
687.615	34.93
687.801	35.46
687.987	34.86
688.174	35.62
688.36	35.94
688.546	35.09
688.732	34.21
688.918	33.59
689.105	33.89
689.291	35.08
689.477	33.77
689.663	34.51
689.849	34.76
690.035	34.39
690.221	34.17
690.407	35.2
690.593	35.86
690.779	36.4
690.965	37.84
691.151	37.33
691.337	37.76
691.523	37.8
691.709	38.52
691.895	38.08
692.081	39.51
692.267	39.55
692.453	39.01
692.639	39.11
692.825	38.76
693.011	37.89
693.196	38.93
693.382	38.95
693.568	39.21
693.754	38.71
693.94	39.57
694.125	38.79
694.311	38.77
694.497	39.67
694.682	40.01
694.868	40.71
695.054	40.36
695.239	40.41
695.425	41.51
695.611	40.71
695.796	40.11
695.982	39.76
696.168	39.43
696.353	39.35
696.539	39.06
696.724	37.97
696.91	36.15
697.095	36.49
697.281	35.35
697.466	33.93
697.652	34.56
697.837	34.68
698.023	34.51
698.208	35.33
698.393	35.28
698.579	34.75
698.764	35.01
698.949	35.45
699.135	35.16
699.32	35.61
699.505	36.42
699.691	36.54
699.876	35.8
700.061	35.6
700.246	35.24
700.432	35.9
700.617	35.79
700.802	36.13
700.987	36.65
701.172	35.72
701.358	35.68
701.543	35.84
701.728	36.92
701.913	37.78
702.098	38.65
702.283	38.93
702.468	37.65
702.653	38.17
702.838	37.76
703.023	38.9
703.208	40.08
703.393	41.08
703.578	39.84
703.763	38.32
703.948	38.44
704.133	38.14
704.318	38.28
704.503	39.54
704.688	39.84
704.873	40.48
705.057	40.98
705.242	41.73
705.427	40.78
705.612	41.43
705.797	42.8
705.981	42.5
706.166	42.95
706.351	41.03
706.536	41.16
706.72	41.73
706.905	41.49
707.09	41.94
707.274	41.45
707.459	41.2
707.644	42.27
707.828	40.27
708.013	39.94
708.197	38.12
708.382	37.97
708.567	37.84
708.751	38.55
708.936	38.53
709.12	38.04
709.305	38.5
709.489	37.21
709.673	34.96
709.858	35.92
710.042	36.64
710.227	38.34
710.411	40.46
710.596	39.91
710.78	38.51
710.964	39.01
711.149	37.48
711.333	37.78
711.517	37.68
711.702	39.83
711.886	39.57
712.07	38.54
712.254	37.91
712.438	36.57
712.623	36.02
712.807	36.57
712.991	36.67
713.175	37.04
713.359	36.86
713.544	38.62
713.728	38.2
713.912	38.33
714.096	39.66
714.28	38.9
714.464	39.18
714.648	40.15
714.832	40.41
715.016	40.32
715.2	40.81
715.384	40.61
715.568	40.88
715.752	40.16
715.936	40.01
716.12	40.26
716.304	40.84
716.488	40.84
716.671	41.45
716.855	42.06
717.039	41.23
717.223	42.02
717.407	42.58
717.59	43.1
717.774	44.31
717.958	45.25
718.142	45.33
718.325	45.76
718.509	47.32
718.693	48.63
718.877	47.91
719.06	49.67
719.244	48.32
719.428	48.34
719.611	46.69
719.795	46.5
719.978	47.12
720.162	46.84
720.345	47.23
720.529	46.67
720.713	45.05
720.896	45.46
721.08	45.51
721.263	47.05
721.446	45.66
721.63	47.86
721.813	47.99
721.997	47.21
722.18	48.52
722.364	49.51
722.547	50.34
722.73	50.3
722.914	48.59
723.097	46.98
723.28	45.71
723.464	47.34
723.647	46.71
723.83	46.14
724.013	46.69
724.197	44.67
724.38	44.84
724.563	43.87
724.746	43.74
724.929	45.92
725.112	44.94
725.296	44.32
725.479	43.08
725.662	43.51
725.845	43.27
726.028	44.01
726.211	43.66
726.394	42.85
726.577	43.03
726.76	43.08
726.943	42.56
727.126	43.65
727.309	44.15
727.492	43.79
727.675	42.44
727.858	42.85
728.041	40.75
728.224	41.11
728.407	39.16
728.589	38.82
728.772	37.67
728.955	36.77
729.138	36.81
729.321	37.57
729.503	38.56
729.686	38.41
729.869	37.38
730.052	37.94
730.234	38
730.417	39.27
730.6	39.49
730.782	40.2
730.965	40.27
731.148	39.8
731.33	39.16
731.513	38.61
731.695	38.11
731.878	39.75
732.061	40.15
732.243	40.8
732.426	40.68
732.608	39.57
732.791	40.44
732.973	40.6
733.156	42.17
733.338	43.78
733.52	43.36
733.703	43.48
733.885	42.55
734.068	41.48
734.25	41.7
734.432	44.35
734.615	45.99
734.797	44.68
734.979	46.46
735.162	44.21
735.344	42.59
735.526	44.46
735.708	45.05
735.891	45.74
736.073	46.66
736.255	46.07
736.437	44.26
736.619	43.17
736.802	43.59
736.984	41.59
737.166	41.43
737.348	41.16
737.53	40.52
737.712	40.55
737.894	40.39
738.076	40.27
738.258	40.62
738.44	40.24
738.622	40.1
738.804	41.7
738.986	42.3
739.168	44.09
739.35	44.77
739.532	45.01
739.714	45.13
739.896	45.19
740.078	45.13
740.259	44.39
740.441	43.66
740.623	43.97
740.805	42.67
740.987	43.59
741.168	42.64
741.35	42.39
741.532	41.57
741.714	43.9
741.895	41.97
742.077	41.29
742.259	43.21
742.44	42.75
742.622	44.82
742.804	44.8
742.985	44.44
743.167	45.68
743.348	43.62
743.53	43.18
743.711	43.04
743.893	43.81
744.075	47.65
744.256	48.47
744.438	49.79
744.619	47.74
744.8	47.8
744.982	48.08
745.163	48.2
745.345	52.18
745.526	54.09
745.707	52.18
745.889	52.93
746.07	52.84
746.252	52.8
746.433	52.76
746.614	53.11
746.795	55.17
746.977	57.11
747.158	56.27
747.339	55.68
747.52	54.89
747.702	55.53
747.883	57.35
748.064	57.8
748.245	55.65
748.426	53.96
748.607	54.62
748.788	53.64
748.97	52.03
749.151	52.73
749.332	53.08
749.513	52.33
749.694	54.12
749.875	53.65
750.056	51.11
750.237	52.22
750.418	55.39
750.599	55.33
750.78	52.71
750.96	51.03
751.141	52.27
751.322	50.71
751.503	51.31
751.684	50.87
751.865	50.24
752.046	49.79
752.226	50.48
752.407	48.2
752.588	49.02
752.769	52.29
752.949	54.85
753.13	52.51
753.311	52.97
753.492	53.73
753.672	50.58
753.853	53.2
754.034	51.54
754.214	49.63
754.395	51.29
754.575	49.17
754.756	46.74
754.937	44.12
755.117	45.83
755.298	45.94
755.478	44.87
755.659	45.37
755.839	45.04
756.02	45.86
756.2	46.4
756.381	46.14
756.561	48.14
756.741	49.74
756.922	49.46
757.102	47.47
757.283	46.17
757.463	48.43
757.643	50.59
757.823	48.94
758.004	49.64
758.184	49.21
758.364	47.64
758.545	48.32
758.725	48.67
758.905	50.19
759.085	52.71
759.265	52.93
759.446	51.81
759.626	50.59
759.806	52.03
759.986	50.89
760.166	50.13
760.346	51.84
760.526	50.23
760.706	49.55
760.886	48
761.066	47.97
761.246	46.92
761.426	47.27
761.606	45.95
761.786	42.86
761.966	43.65
762.146	42.97
762.326	43.18
762.506	43.37
762.686	42.26
762.866	42.71
763.046	40.73
763.225	40.9
763.405	39.34
763.585	39.77
763.765	41.66
763.945	41.84
764.124	41.86
764.304	41.44
764.484	40.9
764.664	41.07
764.843	41.87
765.023	42.95
765.203	43.8
765.382	43.83
765.562	45.11
765.741	45.26
765.921	44.51
766.101	46.64
766.28	47.82
766.46	49.17
766.639	49.93
766.819	48.67
766.998	50.18
767.178	51.17
767.357	52.44
767.537	51.76
767.716	52.96
767.896	53.92
768.075	52.54
768.254	51.19
768.434	48.98
768.613	51.53
768.792	52.28
768.972	51.39
769.151	51.24
769.33	51.35
769.51	52.98
769.689	52.99
769.868	54.05
770.047	55.7
770.226	56.16
770.406	59.47
770.585	58.16
770.764	56.31
770.943	56.2
771.122	58.71
771.301	58.56
771.48	59.07
771.66	57.81
771.839	54.94
772.018	55.96
772.197	57.17
772.376	55.68
772.555	54.67
772.734	58.15
772.913	57.87
773.092	55.53
773.271	56.35
773.449	57.96
773.628	56.81
773.807	59.29
773.986	58.49
774.165	56.33
774.344	55.84
774.523	55.65
774.701	56.25
774.88	56.48
775.059	55.83
775.238	54.64
775.417	50.97
775.595	51.62
775.774	53.45
775.953	49.74
776.131	52.63
776.31	53.19
776.489	50.49
776.667	48.88
776.846	53.7
777.025	54.22
777.203	57.82
777.382	58.77
777.56	59.04
777.739	57.13
777.917	60.14
778.096	57.64
778.274	56.49
778.453	58.38
778.631	59.57
778.81	55.82
778.988	57.98
779.166	56.62
779.345	55.27
779.523	56.75
779.702	58.87
779.88	61.43
780.058	61.79
780.237	63.06
780.415	65.14
780.593	63.42
780.771	61.52
780.95	58.58
781.128	60.78
781.306	61.44
781.484	60.11
781.662	58.78
781.841	54.49
782.019	54.92
782.197	56.27
782.375	56.29
782.553	56.48
782.731	59.49
782.909	59.23
783.087	55.57
783.265	54.01
783.443	57.16
783.621	52.86
783.799	56.57
783.977	58.88
784.155	57.09
784.333	55.92
784.511	53.53
784.689	52.2
784.867	54.51
785.045	55.46
785.223	58.77
785.4	57.59
785.578	64.76
785.756	61.11
785.934	60.7
786.112	61.19
786.289	63.36
786.467	64.64
786.645	66.37
786.823	63.64
787	62.66
787.178	61.2
787.356	61.46
787.533	58.08
787.711	58.67
787.889	57.87
788.066	56.75
788.244	53.87
788.421	55.92
788.599	53.7
788.776	54.38
788.954	56.01
789.131	55.03
789.309	55.78
789.486	53.48
789.664	52.26
789.841	51.1
790.019	54.58
790.196	59.03
790.373	57.37
790.551	59.64
790.728	62.05
790.906	60.54
791.083	61.61
791.26	57.33
791.437	62.42
791.615	67.88
791.792	68.48
791.969	67.53
792.146	63.99
792.324	67
792.501	68.34
792.678	71.53
792.855	70.15
793.032	72.59
793.209	73.93
793.387	76.14
793.564	72.86
793.741	74.61
793.918	71.55
794.095	72.43
794.272	70.14
794.449	66.86
794.626	61.14
794.803	64.12
794.98	59.31
795.157	64.13
795.334	58.33
795.511	60.95
795.688	54.68
795.864	55.87
796.041	58.95
796.218	58.35
796.395	59.55
796.572	64.38
796.749	67.6
796.925	70.51
797.102	64.11
797.279	67.13
797.456	63.53
797.632	64.72
797.809	66.86
797.986	64.92
798.162	65.18
798.339	66.89
798.516	64.82
798.692	58.04
798.869	57.45
799.046	60.23
799.222	63.48
799.399	62.31
799.575	64.55
799.752	61.71
799.928	63.25
800.105	65.62
800.281	61.59
800.458	60.78
800.634	61.33
800.811	58.21
800.987	58.13
801.163	54.93
801.34	58.94
801.516	59.06
801.692	63.26
801.869	64.23
802.045	62.36
802.221	65.51
802.398	66.18
802.574	72.06
802.75	72.59
802.926	72.55
803.103	74.36
803.279	76.19
803.455	78.38
803.631	71.39
803.807	66.69
803.983	64.2
804.16	66.1
804.336	61.36
804.512	60.16
804.688	65.3
804.864	65.2
805.04	64.14
805.216	65.66
805.392	67.07
805.568	71.21
805.744	73.36
805.92	77.15
806.096	80.24
806.272	90.49
806.448	84.53
806.623	80.91
806.799	80.35
806.975	77.97
807.151	71.22
807.327	67.45
807.503	66.03
807.678	61.37
807.854	58.71
808.03	59.35
808.206	54.97
808.381	60.47
808.557	64.31
808.733	64.08
808.908	67.2
809.084	70.38
809.26	73.34
809.435	75.94
809.611	79.97
809.787	80.77
809.962	72.86
810.138	75.79
810.313	73.3
810.489	73.09
810.664	76.45
810.84	79.35
811.015	75.29
811.191	76.12
811.366	74.76
811.542	72.65
811.717	74.34
811.892	76.51
812.068	72.18
812.243	74.87
812.419	76.03
812.594	72.65
812.769	66.49
812.944	71.46
813.12	73.59
813.295	77.02
813.47	84.34
813.645	84.3
813.821	82.77
813.996	84.5
814.171	80.93
814.346	76.9
814.521	76.57
814.697	77.77
814.872	79.18
815.047	73.85
815.222	68.63
815.397	66.13
815.572	64.38
815.747	69.71
815.922	66.33
816.097	63.52
816.272	66.61
816.447	70.94
816.622	72.24
816.797	68.75
816.972	69.01
817.147	73.32
817.322	73.67
817.496	71.69
817.671	71.47
817.846	77.26
818.021	75.67
818.196	77.03
818.371	76.49
818.545	74.05
818.72	72.48
818.895	71.78
819.069	69.14
819.244	64.72
819.419	60.91
819.594	54.95
819.768	49.97
819.943	50.21
820.117	46.69
820.292	43.8
820.467	41.3
820.641	40.41
820.816	37.93
820.99	37.23
821.165	35.07
821.339	35.52
821.514	34.69
821.688	34.47
821.863	33.35
822.037	32.56
822.212	32.03
822.386	32.39
822.56	31.56
822.735	32.34
822.909	32.13
823.084	33.58
823.258	33.19
823.432	34.02
823.606	34.76
823.781	35.24
823.955	36.07
824.129	35.47
824.303	34.97
824.478	36.15
824.652	37.46
824.826	37.04
825	37.09
825.174	36.96
825.348	37.39
825.523	36.15
825.697	34.97
825.871	34.64
826.045	36.49
826.219	36.83
826.393	36.03
826.567	34.89
826.741	35.15
826.915	34.61
827.089	35.3
827.263	34.14
827.437	34.74
827.611	36.47
827.784	36.88
827.958	37.36
828.132	37.93
828.306	38.57
828.48	40.71
828.654	41.58
828.827	43.75
829.001	45.7
829.175	48.68
829.349	51.41
829.522	53.49
829.696	56.36
829.87	54.91
830.044	56.54
830.217	58.42
830.391	60.54
830.565	66.25
830.738	64.92
830.912	62.94
831.085	65.79
831.259	64.42
831.432	63.93
831.606	60.51
831.779	60.36
831.953	61.4
832.126	60.25
832.3	56.15
832.473	51.36
832.647	50.2
832.82	49.45
832.994	47.07
833.167	48.03
833.34	45.9
833.514	44.74
833.687	44.66
833.86	43.07
834.034	43.4
834.207	43.88
834.38	43.96
834.553	44.47
834.727	46.82
834.9	45.26
835.073	45.48
835.246	45.95
835.419	44.99
835.593	45.68
835.766	45.86
835.939	47.25
836.112	47.21
836.285	47.66
836.458	45.6
836.631	44.15
836.804	50.45
836.977	50.73
837.15	52.29
837.323	64.55
837.496	67.77
837.669	72.52
837.842	69.1
838.015	72.82
838.188	81.66
838.361	81.7
838.533	84.13
838.706	80.99
838.879	74.15
839.052	74.98
839.225	71.3
839.398	71
839.57	70.76
839.743	76.07
839.916	77.51
840.088	72.75
840.261	79.59
840.434	77.31
840.607	81.59
840.779	88.08
840.952	87.68
841.124	96.86
841.297	93.03
841.47	99.31
841.642	101.46
841.815	99.68
841.987	108.88
842.16	104.1
842.332	108.56
842.505	99.28
842.677	99.72
842.85	108.01
843.022	102.25
843.194	99.09
843.367	98.59
843.539	95.18
843.712	98.71
843.884	103.32
844.056	100.94
844.229	104.43
844.401	113.34
844.573	120.92
844.745	119.06
844.918	139.58
845.09	154.92
845.262	158.05
845.434	176.05
845.606	176.56
845.779	156.73
845.951	152.15
846.123	143.1
846.295	147.76
846.467	174.91
846.639	168.72
846.811	167.84
846.983	162.47
847.155	165.24
847.327	147.34
847.499	147.72
847.671	162.83
847.843	158.42
848.015	157.43
848.187	150.33
848.359	143.48
848.531	150.04
848.703	129.69
848.875	157.51
849.047	148.08
849.218	152.23
849.39	139.75
849.562	145.89
849.734	162.08
849.905	155.57
850.077	169.65
850.249	142.71
850.421	138.14
850.592	144.3
850.764	132.47
850.936	118.46
851.107	101.65
851.279	110.87
851.451	98.95
851.622	105.01
851.794	110.84
851.965	119.86
852.137	116.95
852.308	115.26
852.48	123.68
852.651	120.58
852.823	137.61
852.994	149.29
853.166	156.44
853.337	170.29
853.509	169.9
853.68	152.99
853.851	136.25
854.023	147.39
854.194	143.03
854.365	148.38
854.537	134.9
854.708	128.04
854.879	116.42
855.05	117.17
855.222	109.66
855.393	115.37
855.564	125.88
855.735	135.36
855.906	125.73
856.078	122.04
856.249	102.1
856.42	101.99
856.591	106.6
856.762	112.54
856.933	110.72
857.104	106.58
857.275	101.59
857.446	108.92
857.617	94.53
857.788	103.81
857.959	111
858.13	126.63
858.301	121.32
858.472	121.39
858.643	131.86
858.814	126.63
858.985	149.23
859.155	176.54
859.326	142.3
859.497	181.49
859.668	281.33
859.839	238.12
860.009	180.87
860.18	201.87
860.351	198.7
860.522	160.55
860.692	161.16
860.863	146.41
861.034	138.81
861.204	135.18
861.375	114.69
861.546	97.81
861.716	103.16
861.887	115
862.057	132.44
862.228	139.48
862.398	135.84
862.569	148.79
862.739	154.81
862.91	140.3
863.08	155.54
863.251	167.81
863.421	173.27
863.592	185.6
863.762	160.28
863.932	143.32
864.103	141.26
864.273	148.8
864.443	126.38
864.614	130.69
864.784	132
864.954	147.09
865.125	171.88
865.295	178.19
865.465	206.82
865.635	233.61
865.805	220.08
865.976	209.97
866.146	192.2
866.316	214.57
866.486	258.23
866.656	245.69
866.826	242.12
866.996	198.78
867.166	229.07
867.336	180.89
867.506	127.19
867.676	119.86
867.846	123.17
868.016	125.06
868.186	118.32
868.356	110.65
868.526	122.95
868.696	116.84
868.866	116.21
869.036	113.72
869.206	103.55
869.376	112.67
869.545	109.55
869.715	120.7
869.885	128.28
870.055	133.31
870.224	125.41
870.394	131.62
870.564	150.22
870.734	143.37
870.903	159.11
871.073	156.6
871.243	165.34
871.412	184.65
871.582	162.58
871.751	144.41
871.921	141.16
872.091	169.56
872.26	127.89
872.43	115.55
872.599	122.89
872.769	120.61
872.938	147.72
873.108	133.85
873.277	122.89
873.446	122.54
873.616	134.57
873.785	151.03
873.955	140.1
874.124	135.3
874.293	130.18
874.463	128.23
874.632	127.75
874.801	125.91
874.971	131.28
875.14	167.08
875.309	173.29
875.478	144.61
875.647	122.73
875.817	123.78
875.986	138.66
876.155	146.78
876.324	143.83
876.493	126.61
876.662	130.36
876.831	130.3
877	115.87
877.17	111.68
877.339	120.81
877.508	128.38
877.677	136.08
877.846	124.04
878.015	119.62
878.184	111.64
878.352	114.97
878.521	97.46
878.69	95.74
878.859	80.06
879.028	71.18
879.197	61.57
879.366	61.63
879.534	52.11
879.703	46.18
879.872	42.79
880.041	39.99
880.21	38.54
880.378	38.57
880.547	37.79
880.716	40.72
880.884	41.51
881.053	41.47
881.222	38.87
881.39	40.41
881.559	37.8
881.727	38.12
881.896	37.19
882.065	38.55
882.233	41.77
882.402	39.79
882.57	42.15
882.739	41.37
882.907	40.91
883.076	41.56
883.244	40.38
883.412	42.62
883.581	42.83
883.749	45.07
883.918	44.88
884.086	42.05
884.254	43.26
884.423	43.57
884.591	46.72
884.759	50.72
884.927	53.93
885.096	60.86
885.264	66.96
885.432	71.44
885.6	69.46
885.769	70.22
885.937	80.51
886.105	92.94
886.273	97.92
886.441	97.15
886.609	105.15
886.777	96.16
886.945	93.94
887.113	93.02
887.281	87.48
887.449	95.8
887.617	103.8
887.785	102.55
887.953	100.82
888.121	104.71
888.289	117.09
888.457	112.68
888.625	123.25
888.793	116.98
888.961	123.73
889.129	145.34
889.296	144.8
889.464	146.72
889.632	144.49
889.8	153.46
889.967	137.59
890.135	111.05
