Data from JASIL_2929_Reflection_2.txt Node
Date: Sat Nov 07 20:47:29 EST 2015
User: Geneva
Spectrometer: USB4E03002
Autoset integration time: false
Trigger mode: 4
Integration Time (sec): 1.000000E-1
Scans to average: 10
Electric dark correction enabled: true
Nonlinearity correction enabled: false
Boxcar width: 5
Stray light correction enabled: false
XAxis mode: Wavelengths
Stop averaging: false
Number of Pixels in Spectrum: 3648
>>>>>Begin Spectral Data<<<<<
177.575	-465.87
177.794	-60.92
178.014	130.04
178.233	97.52
178.452	59.72
178.672	75.83
178.891	122.48
179.11	0
179.33	323.38
179.549	-132.31
179.768	393.67
179.987	-149.57
180.207	57.69
180.426	60.28
180.645	46.75
180.864	37.85
181.084	33.04
181.303	22.25
181.522	17.16
181.741	25.42
181.96	32.44
182.179	39.24
182.398	31.68
182.618	17.52
182.837	19.26
183.056	10.39
183.275	3.66
183.494	2.63
183.713	39.48
183.932	22.49
184.151	-4.11
184.37	25.99
184.589	7.11
184.808	14.85
185.027	19.2
185.246	26.47
185.465	44.18
185.684	42.28
185.903	45.58
186.122	54.1
186.341	65.74
186.56	68.04
186.779	43.16
186.998	67.26
187.216	56.21
187.435	64.9
187.654	49.42
187.873	40.43
188.092	23.92
188.311	32.05
188.53	14.37
188.748	5.73
188.967	-16.28
189.186	-2.31
189.405	-11.82
189.623	-9.85
189.842	-4.57
190.061	4.07
190.28	-8.53
190.498	8.85
190.717	-7.77
190.936	-19.88
191.154	-46.62
191.373	-31.32
191.592	-37.83
191.81	-35.6
192.029	-11.57
192.248	-1.91
192.466	-10.2
192.685	-11.72
192.904	-8.71
193.122	-8.91
193.341	-16.95
193.559	6.17
193.778	3.28
193.996	12.97
194.215	13.71
194.433	-5.45
194.652	-9.71
194.87	-4.59
195.089	12.47
195.307	13.03
195.526	17.28
195.744	33.21
195.963	28.9
196.181	35.78
196.399	6.95
196.618	-3.98
196.836	19.53
197.055	13.82
197.273	7.78
197.491	5.29
197.71	23.44
197.928	25.7
198.146	0.02
198.365	-5.75
198.583	0.29
198.801	12.19
199.019	5.57
199.238	0.36
199.456	-8.43
199.674	-12.44
199.892	-22.76
200.111	-57.39
200.329	-41.34
200.547	-47.63
200.765	-38.33
200.983	-72.07
201.202	-53.56
201.42	-10.02
201.638	-23.5
201.856	-16.5
202.074	-5.33
202.292	2.94
202.51	3.97
202.728	0.21
202.946	-16.96
203.165	-16.75
203.383	-23.7
203.601	-8.61
203.819	-22.26
204.037	7.3
204.255	29.83
204.473	33.09
204.691	25.28
204.909	24.2
205.127	34.09
205.345	53.18
205.562	54.36
205.78	57.4
205.998	52.02
206.216	45.4
206.434	33.6
206.652	25.36
206.87	28.49
207.088	32.01
207.306	34.26
207.523	40.23
207.741	26.2
207.959	20.19
208.177	15.84
208.395	-12.13
208.612	-18.53
208.83	-4.88
209.048	2.89
209.266	-14.94
209.483	-31.97
209.701	-35.59
209.919	-50.18
210.136	-41.17
210.354	-5.11
210.572	21.13
210.79	42.99
211.007	41.89
211.225	43.12
211.442	39.53
211.66	39.18
211.878	38.06
212.095	95.9
212.313	92.71
212.53	87.06
212.748	81.57
212.966	76.03
213.183	68.94
213.401	68.39
213.618	68.65
213.836	73.58
214.053	79.84
214.271	85.81
214.488	27.68
214.705	14.93
214.923	23.02
215.14	28.53
215.358	30.31
215.575	31.24
215.793	29.78
216.01	29.26
216.227	25.95
216.445	17.33
216.662	14.69
216.879	14.84
217.097	19.14
217.314	13.4
217.531	5.33
217.749	-4.63
217.966	-5.41
218.183	-2.74
218.4	-8.63
218.618	-9.02
218.835	-1.4
219.052	3.13
219.269	-2.67
219.487	0.16
219.704	3.17
219.921	8.17
220.138	15.62
220.355	14.46
220.572	17.08
220.79	16.81
221.007	20.11
221.224	18.01
221.441	13.54
221.658	16.33
221.875	15.54
222.092	12.9
222.309	13.26
222.526	11.24
222.743	14.74
222.96	8.53
223.177	12.8
223.394	12.43
223.611	12.09
223.828	13.23
224.045	12.75
224.262	14.65
224.479	15.25
224.696	16.69
224.913	16.88
225.13	17.34
225.347	17.29
225.564	16.17
225.781	14.74
225.997	14.55
226.214	13.73
226.431	13.92
226.648	12.45
226.865	12.38
227.082	11.04
227.298	9.56
227.515	8.37
227.732	8.25
227.949	8.32
228.165	8.03
228.382	7.79
228.599	7.6
228.816	7.04
229.032	6.91
229.249	7.22
229.466	7.73
229.682	8.71
229.899	9.31
230.116	10.04
230.332	10.21
230.549	11.27
230.765	12.53
230.982	13.5
231.199	14.07
231.415	14.37
231.632	13.65
231.848	13.32
232.065	13.49
232.281	13.56
232.498	12.73
232.714	12.76
232.931	11.84
233.147	10.84
233.364	10.41
233.58	10.85
233.797	11.54
234.013	11.47
234.23	11.77
234.446	12.03
234.662	12.7
234.879	13.17
235.095	12.58
235.312	12.9
235.528	13.49
235.744	12.69
235.961	12.31
236.177	12.3
236.393	10.99
236.61	10.3
236.826	9.54
237.042	8.59
237.258	8.58
237.475	8.66
237.691	8.31
237.907	8.18
238.123	9.68
238.339	9.11
238.556	8.99
238.772	9.65
238.988	10.31
239.204	9.95
239.42	10.27
239.636	10.44
239.853	10.41
240.069	10.16
240.285	9.8
240.501	9.1
240.717	9.08
240.933	9.09
241.149	9.3
241.365	9.33
241.581	9.19
241.797	9.06
242.013	8.97
242.229	9.14
242.445	9.2
242.661	9.15
242.877	9.15
243.093	9.5
243.309	9.59
243.525	9.42
243.741	9.07
243.957	9.44
244.173	10.01
244.388	9.64
244.604	9.55
244.82	9.55
245.036	9.43
245.252	9.56
245.468	9.33
245.683	9.1
245.899	9.23
246.115	9.09
246.331	9.12
246.547	8.66
246.762	8.69
246.978	8.75
247.194	8.48
247.409	8.5
247.625	8.28
247.841	8.09
248.057	8.05
248.272	7.56
248.488	7.53
248.703	7.3
248.919	7.47
249.135	7.26
249.35	6.94
249.566	7.11
249.782	7.06
249.997	7.58
250.213	7.94
250.428	8.11
250.644	8.35
250.859	8.42
251.075	8.29
251.29	8.13
251.506	7.94
251.721	7.83
251.937	8.01
252.152	7.96
252.368	7.82
252.583	7.59
252.798	7.59
253.014	7.81
253.229	7.86
253.445	7.61
253.66	7.97
253.875	8.28
254.091	8.01
254.306	7.98
254.521	7.92
254.737	8.26
254.952	7.84
255.167	7.84
255.383	7.8
255.598	7.89
255.813	7.74
256.028	7.32
256.244	7.32
256.459	7.43
256.674	7.36
256.889	7.44
257.104	7.07
257.32	7.28
257.535	6.74
257.75	6.6
257.965	6.28
258.18	6.36
258.395	6.28
258.61	6.19
258.826	6.25
259.041	6.12
259.256	6.15
259.471	6.13
259.686	5.96
259.901	6.09
260.116	6.13
260.331	6.14
260.546	6.04
260.761	6.14
260.976	6.33
261.191	6.18
261.406	5.99
261.621	5.84
261.836	5.46
262.05	5.4
262.265	5.15
262.48	4.94
262.695	5.02
262.91	5.11
263.125	4.91
263.34	4.77
263.555	5
263.769	5.12
263.984	5.21
264.199	5.29
264.414	5.91
264.629	5.91
264.843	5.8
265.058	5.83
265.273	6
265.488	6.07
265.702	5.97
265.917	6.12
266.132	6.54
266.346	6.37
266.561	6.53
266.776	6.26
266.99	6.55
267.205	6.76
267.42	6.62
267.634	6.55
267.849	6.53
268.063	6.42
268.278	6.09
268.492	5.84
268.707	6.06
268.922	5.79
269.136	5.85
269.351	5.98
269.565	6.05
269.78	5.91
269.994	5.8
270.209	5.83
270.423	6.27
270.637	6.23
270.852	6.22
271.066	5.95
271.281	6.12
271.495	6.14
271.709	5.87
271.924	5.67
272.138	5.54
272.353	5.65
272.567	5.41
272.781	4.98
272.996	5.13
273.21	4.94
273.424	5.12
273.638	5.22
273.853	5.28
274.067	5.37
274.281	5.51
274.495	5.92
274.71	5.71
274.924	5.84
275.138	6.04
275.352	5.9
275.566	6.11
275.781	6.08
275.995	6.33
276.209	6.35
276.423	6.16
276.637	5.72
276.851	5.63
277.065	5.79
277.279	5.95
277.493	5.86
277.707	5.85
277.921	5.98
278.135	6.18
278.349	5.64
278.563	5.19
278.777	5.14
278.991	5.49
279.205	5.61
279.419	5.59
279.633	5.58
279.847	5.49
280.061	5.65
280.275	5.44
280.489	5.37
280.703	5.49
280.917	5.68
281.131	5.77
281.344	5.78
281.558	5.58
281.772	5.68
281.986	5.68
282.2	5.71
282.414	5.4
282.627	5.47
282.841	5.41
283.055	5.45
283.269	5.37
283.482	5.34
283.696	5.41
283.91	5.75
284.123	5.7
284.337	5.57
284.551	5.45
284.764	5.57
284.978	5.65
285.192	5.52
285.405	5.59
285.619	5.72
285.833	5.59
286.046	5.41
286.26	5.26
286.473	5.01
286.687	5.12
286.9	5.26
287.114	5.16
287.327	5.29
287.541	5.38
287.754	5.1
287.968	4.86
288.181	5.11
288.395	5.2
288.608	4.87
288.822	4.99
289.035	5.02
289.248	4.95
289.462	5.24
289.675	5.06
289.889	5.09
290.102	5.24
290.315	5.29
290.529	5.26
290.742	5.13
290.955	5.44
291.169	5.52
291.382	5.27
291.595	5.22
291.808	5.02
292.022	5
292.235	4.79
292.448	4.8
292.661	4.97
292.875	5
293.088	5.1
293.301	4.89
293.514	4.79
293.727	5.01
293.94	5.2
294.153	5.24
294.367	5.03
294.58	4.97
294.793	4.84
295.006	4.69
295.219	4.71
295.432	4.74
295.645	4.9
295.858	4.77
296.071	4.86
296.284	4.72
296.497	4.59
296.71	4.67
296.923	4.88
297.136	4.99
297.349	5.16
297.562	4.97
297.775	4.95
297.988	4.86
298.201	4.97
298.414	4.85
298.626	4.92
298.839	4.97
299.052	5.09
299.265	4.81
299.478	4.78
299.691	4.42
299.903	4.66
300.116	4.59
300.329	4.59
300.542	4.7
300.755	4.68
300.967	4.65
301.18	4.7
301.393	4.47
301.605	4.45
301.818	4.31
302.031	4.5
302.243	4.22
302.456	4.48
302.669	4.3
302.881	4.18
303.094	4
303.307	4.02
303.519	4.25
303.732	4.42
303.944	4.62
304.157	4.59
304.37	4.68
304.582	4.88
304.795	4.71
305.007	4.89
305.22	4.95
305.432	5.1
305.645	5.06
305.857	5.02
306.069	5.02
306.282	5.05
306.494	5.08
306.707	5.05
306.919	5.1
307.132	5.11
307.344	4.99
307.556	5.12
307.769	5.08
307.981	5.14
308.193	5.03
308.406	4.8
308.618	4.74
308.83	4.81
309.043	4.98
309.255	4.82
309.467	4.79
309.679	4.94
309.892	4.88
310.104	4.91
310.316	4.9
310.528	4.74
310.74	5.13
310.953	5.37
311.165	5.5
311.377	5.32
311.589	5.36
311.801	5.43
312.013	5.47
312.225	5.54
312.437	5.7
312.649	5.82
312.862	6.02
313.074	5.86
313.286	5.43
313.498	5.27
313.71	5.46
313.922	5.47
314.134	5.53
314.346	5.45
314.558	5.4
314.77	5.35
314.982	4.85
315.193	4.91
315.405	4.71
315.617	4.88
315.829	4.92
316.041	4.85
316.253	4.81
316.465	4.68
316.677	4.7
316.888	4.81
317.1	4.89
317.312	5.39
317.524	5.33
317.736	5.53
317.947	5.72
318.159	5.78
318.371	5.79
318.583	6.07
318.794	6.29
319.006	6.32
319.218	6.07
319.43	5.87
319.641	5.98
319.853	6.07
320.064	6.06
320.276	6.1
320.488	6.08
320.699	6.09
320.911	6
321.123	6.03
321.334	6.05
321.546	6.25
321.757	6.28
321.969	5.91
322.18	5.86
322.392	5.7
322.603	5.63
322.815	5.66
323.026	5.65
323.238	5.79
323.449	5.72
323.661	5.67
323.872	5.69
324.083	5.76
324.295	5.9
324.506	5.98
324.718	6.19
324.929	6.27
325.14	6.36
325.352	6.44
325.563	6.34
325.774	6.2
325.986	6.19
326.197	6.32
326.408	6.4
326.62	6.53
326.831	6.59
327.042	6.73
327.253	6.96
327.464	7.04
327.676	6.93
327.887	7.04
328.098	7.25
328.309	7.49
328.52	7.43
328.732	7.58
328.943	7.81
329.154	8.04
329.365	7.78
329.576	7.72
329.787	7.54
329.998	7.85
330.209	7.94
330.42	8
330.631	7.85
330.842	8.03
331.053	8.02
331.264	7.82
331.475	7.58
331.686	7.96
331.897	7.94
332.108	8.19
332.319	8.15
332.53	8.2
332.741	8.17
332.952	8.24
333.163	8.35
333.374	8.44
333.585	8.44
333.795	8.44
334.006	8.38
334.217	8.33
334.428	8.38
334.639	8.42
334.849	8.43
335.06	8.56
335.271	8.77
335.482	8.66
335.692	8.62
335.903	8.67
336.114	8.62
336.325	8.62
336.535	8.76
336.746	8.5
336.957	8.43
337.167	8.45
337.378	8.36
337.589	8.22
337.799	8.3
338.01	8.29
338.22	8.31
338.431	8.38
338.642	8.35
338.852	8.1
339.063	8.3
339.273	8.27
339.484	8.25
339.694	8.25
339.905	8.31
340.115	8.21
340.326	8.13
340.536	8.13
340.746	8.1
340.957	7.88
341.167	8.04
341.378	7.96
341.588	8.17
341.799	7.97
342.009	7.9
342.219	7.77
342.43	7.82
342.64	7.72
342.85	7.66
343.061	7.75
343.271	7.78
343.481	7.77
343.691	7.71
343.902	7.5
344.112	7.5
344.322	7.68
344.532	7.8
344.743	7.76
344.953	7.75
345.163	7.69
345.373	7.58
345.583	7.77
345.793	7.66
346.004	7.64
346.214	7.64
346.424	7.7
346.634	7.73
346.844	7.82
347.054	7.92
347.264	8.24
347.474	8.24
347.684	8.3
347.894	8.09
348.104	8.08
348.314	8.15
348.524	8.29
348.734	8.4
348.944	8.18
349.154	8.04
349.364	7.95
349.574	7.68
349.784	7.76
349.994	7.81
350.204	7.74
350.413	7.73
350.623	7.7
350.833	7.45
351.043	7.18
351.253	7.42
351.463	7.41
351.672	7.16
351.882	7.24
352.092	7.12
352.302	7.05
352.511	7.22
352.721	7.33
352.931	7.39
353.141	7.41
353.35	7.45
353.56	7.31
353.77	7.29
353.979	7.61
354.189	7.68
354.399	7.87
354.608	7.88
354.818	7.91
355.027	7.81
355.237	7.73
355.447	7.77
355.656	7.91
355.866	7.96
356.075	7.84
356.285	7.67
356.494	7.56
356.704	7.46
356.913	7.41
357.123	7.23
357.332	7.22
357.542	7.31
357.751	7.35
357.96	7.25
358.17	7.16
358.379	7.3
358.589	7.36
358.798	7.51
359.007	7.41
359.217	7.4
359.426	7.53
359.635	7.41
359.845	7.34
360.054	7.25
360.263	7.3
360.472	7.28
360.682	7.26
360.891	7.23
361.1	7.07
361.309	7.13
361.519	7.2
361.728	7.19
361.937	7.38
362.146	7.4
362.355	7.5
362.564	7.5
362.774	7.51
362.983	7.32
363.192	7.22
363.401	7.28
363.61	7.27
363.819	7.22
364.028	7.25
364.237	7.1
364.446	7.1
364.655	7.01
364.864	7.04
365.073	7.05
365.282	7.26
365.491	7.35
365.7	7.38
365.909	7.35
366.118	7.34
366.327	7.21
366.536	7.23
366.745	7.09
366.954	7.05
367.162	6.95
367.371	6.81
367.58	6.69
367.789	6.57
367.998	6.56
368.207	6.72
368.415	6.8
368.624	6.83
368.833	6.92
369.042	7.03
369.25	7.03
369.459	7.1
369.668	7.15
369.877	7.11
370.085	7.24
370.294	7.13
370.503	6.97
370.711	6.84
370.92	6.76
371.129	6.64
371.337	6.51
371.546	6.37
371.754	6.29
371.963	6.39
372.171	6.33
372.38	6.17
372.589	6.27
372.797	6.32
373.006	6.28
373.214	6.27
373.423	6.28
373.631	6.31
373.84	6.51
374.048	6.49
374.256	6.42
374.465	6.42
374.673	6.4
374.882	6.23
375.09	6.06
375.298	6
375.507	6.02
375.715	6.06
375.923	5.91
376.132	5.88
376.34	5.8
376.548	5.77
376.757	5.74
376.965	5.87
377.173	6.08
377.381	6.12
377.59	6.16
377.798	6.2
378.006	6.12
378.214	6.3
378.423	6.31
378.631	6.43
378.839	6.42
379.047	6.53
379.255	6.32
379.463	6.12
379.671	6.08
379.879	6.03
380.088	5.95
380.296	5.98
380.504	6.03
380.712	5.99
380.92	6.01
381.128	5.86
381.336	5.82
381.544	5.93
381.752	5.88
381.96	5.89
382.168	5.91
382.376	5.9
382.584	5.91
382.791	5.82
382.999	5.8
383.207	5.73
383.415	5.8
383.623	5.82
383.831	5.71
384.039	5.87
384.247	5.87
384.454	5.86
384.662	5.98
384.87	5.98
385.078	5.9
385.285	5.95
385.493	5.88
385.701	5.85
385.909	5.76
386.116	5.86
386.324	5.77
386.532	5.76
386.739	5.7
386.947	5.59
387.155	5.47
387.362	5.49
387.57	5.43
387.778	5.46
387.985	5.6
388.193	5.62
388.4	5.67
388.608	5.54
388.816	5.46
389.023	5.46
389.231	5.45
389.438	5.44
389.646	5.38
389.853	5.31
390.061	5.25
390.268	5.21
390.475	5.16
390.683	5.07
390.89	5.1
391.098	5.14
391.305	5.13
391.512	5.04
391.72	4.99
391.927	5.07
392.135	5.07
392.342	5.11
392.549	5
392.756	5.01
392.964	5
393.171	5.02
393.378	5.06
393.586	5.02
393.793	5.17
394	5.18
394.207	5.15
394.414	5.23
394.622	5.33
394.829	5.31
395.036	5.26
395.243	5.25
395.45	5.19
395.657	5.19
395.864	5.17
396.072	5.16
396.279	5.23
396.486	5.21
396.693	5.19
396.9	5.13
397.107	5.14
397.314	5.09
397.521	5.1
397.728	5.14
397.935	5.08
398.142	5.07
398.349	4.96
398.556	4.96
398.763	4.95
398.97	4.85
399.177	4.83
399.383	4.9
399.59	5
399.797	4.99
400.004	4.94
400.211	4.95
400.418	4.92
400.625	4.93
400.831	4.95
401.038	5.01
401.245	4.93
401.452	4.82
401.658	4.8
401.865	4.81
402.072	4.86
402.279	4.86
402.485	4.79
402.692	4.77
402.899	4.72
403.105	4.7
403.312	4.56
403.519	4.62
403.725	4.75
403.932	4.72
404.138	4.61
404.345	4.52
404.552	4.53
404.758	4.57
404.965	4.57
405.171	4.59
405.378	4.5
405.584	4.58
405.791	4.55
405.997	4.39
406.204	4.4
406.41	4.41
406.617	4.45
406.823	4.53
407.029	4.55
407.236	4.58
407.442	4.58
407.649	4.73
407.855	4.71
408.061	4.74
408.268	4.73
408.474	4.65
408.68	4.62
408.887	4.51
409.093	4.41
409.299	4.38
409.505	4.36
409.712	4.35
409.918	4.26
410.124	4.21
410.33	4.21
410.537	4.32
410.743	4.37
410.949	4.42
411.155	4.54
411.361	4.52
411.567	4.48
411.773	4.44
411.98	4.4
412.186	4.33
412.392	4.32
412.598	4.37
412.804	4.24
413.01	4.23
413.216	4.19
413.422	4.15
413.628	4.2
413.834	4.19
414.04	4.3
414.246	4.33
414.452	4.32
414.658	4.31
414.864	4.25
415.07	4.28
415.275	4.21
415.481	4.14
415.687	4.07
415.893	4.01
416.099	4
416.305	3.94
416.511	3.92
416.716	3.9
416.922	3.9
417.128	3.87
417.334	3.89
417.539	3.93
417.745	3.96
417.951	3.98
418.157	3.99
418.362	4
418.568	4
418.774	3.97
418.979	3.95
419.185	3.92
419.391	3.91
419.596	3.9
419.802	3.9
420.008	3.9
420.213	3.88
420.419	3.88
420.624	3.9
420.83	3.88
421.035	3.9
421.241	3.91
421.446	3.96
421.652	3.96
421.857	3.96
422.063	3.92
422.268	3.91
422.474	3.92
422.679	3.91
422.885	3.9
423.09	3.92
423.295	3.87
423.501	3.87
423.706	3.85
423.911	3.84
424.117	3.82
424.322	3.83
424.527	3.83
424.733	3.79
424.938	3.76
425.143	3.74
425.349	3.71
425.554	3.7
425.759	3.72
425.964	3.72
426.169	3.73
426.375	3.75
426.58	3.69
426.785	3.69
426.99	3.7
427.195	3.72
427.4	3.73
427.605	3.74
427.811	3.83
428.016	3.82
428.221	3.81
428.426	3.8
428.631	3.77
428.836	3.78
429.041	3.73
429.246	3.76
429.451	3.78
429.656	3.75
429.861	3.75
430.066	3.71
430.271	3.64
430.476	3.58
430.681	3.57
430.886	3.55
431.09	3.58
431.295	3.63
431.5	3.58
431.705	3.53
431.91	3.48
432.115	3.52
432.32	3.56
432.524	3.57
432.729	3.57
432.934	3.58
433.139	3.63
433.343	3.65
433.548	3.67
433.753	3.69
433.958	3.7
434.162	3.69
434.367	3.67
434.572	3.6
434.776	3.64
434.981	3.64
435.186	3.57
435.39	3.56
435.595	3.56
435.799	3.55
436.004	3.55
436.209	3.59
436.413	3.64
436.618	3.59
436.822	3.59
437.027	3.56
437.231	3.56
437.436	3.6
437.64	3.57
437.845	3.55
438.049	3.54
438.253	3.48
438.458	3.45
438.662	3.48
438.867	3.54
439.071	3.57
439.275	3.59
439.48	3.59
439.684	3.6
439.888	3.56
440.093	3.53
440.297	3.53
440.501	3.56
440.706	3.58
440.91	3.58
441.114	3.56
441.318	3.54
441.523	3.55
441.727	3.54
441.931	3.61
442.135	3.63
442.339	3.68
442.543	3.68
442.748	3.68
442.952	3.63
443.156	3.59
443.36	3.63
443.564	3.61
443.768	3.55
443.972	3.58
444.176	3.49
444.38	3.48
444.584	3.43
444.788	3.41
444.992	3.43
445.196	3.4
445.4	3.41
445.604	3.35
445.808	3.37
446.012	3.41
446.216	3.4
446.42	3.38
446.624	3.38
446.828	3.36
447.032	3.38
447.235	3.36
447.439	3.4
447.643	3.43
447.847	3.46
448.051	3.41
448.254	3.39
448.458	3.35
448.662	3.37
448.866	3.37
449.069	3.42
449.273	3.45
449.477	3.46
449.681	3.46
449.884	3.46
450.088	3.44
450.292	3.44
450.495	3.42
450.699	3.47
450.902	3.48
451.106	3.48
451.31	3.45
451.513	3.42
451.717	3.32
451.92	3.29
452.124	3.21
452.327	3.22
452.531	3.25
452.734	3.29
452.938	3.27
453.141	3.26
453.345	3.31
453.548	3.33
453.752	3.35
453.955	3.44
454.158	3.43
454.362	3.43
454.565	3.4
454.769	3.4
454.972	3.37
455.175	3.32
455.379	3.33
455.582	3.28
455.785	3.28
455.988	3.24
456.192	3.22
456.395	3.24
456.598	3.26
456.801	3.3
457.005	3.28
457.208	3.32
457.411	3.34
457.614	3.37
457.817	3.36
458.021	3.33
458.224	3.34
458.427	3.34
458.63	3.36
458.833	3.38
459.036	3.4
459.239	3.39
459.442	3.36
459.645	3.4
459.848	3.39
460.051	3.35
460.254	3.38
460.457	3.36
460.66	3.39
460.863	3.36
461.066	3.35
461.269	3.34
461.472	3.38
461.675	3.41
461.878	3.43
462.081	3.39
462.284	3.47
462.486	3.5
462.689	3.52
462.892	3.53
463.095	3.56
463.298	3.5
463.5	3.48
463.703	3.45
463.906	3.42
464.109	3.35
464.311	3.42
464.514	3.4
464.717	3.38
464.92	3.42
465.122	3.38
465.325	3.41
465.528	3.47
465.73	3.43
465.933	3.45
466.135	3.5
466.338	3.5
466.541	3.46
466.743	3.46
466.946	3.46
467.148	3.44
467.351	3.44
467.553	3.41
467.756	3.43
467.958	3.49
468.161	3.49
468.363	3.42
468.566	3.41
468.768	3.37
468.971	3.38
469.173	3.37
469.375	3.38
469.578	3.41
469.78	3.4
469.983	3.41
470.185	3.41
470.387	3.41
470.59	3.44
470.792	3.47
470.994	3.52
471.196	3.48
471.399	3.45
471.601	3.43
471.803	3.41
472.005	3.44
472.208	3.42
472.41	3.35
472.612	3.34
472.814	3.33
473.016	3.34
473.218	3.36
473.421	3.41
473.623	3.43
473.825	3.43
474.027	3.46
474.229	3.43
474.431	3.41
474.633	3.42
474.835	3.43
475.037	3.36
475.239	3.37
475.441	3.36
475.643	3.33
475.845	3.3
476.047	3.31
476.249	3.25
476.451	3.27
476.653	3.27
476.855	3.3
477.057	3.3
477.258	3.36
477.46	3.31
477.662	3.32
477.864	3.34
478.066	3.37
478.268	3.41
478.469	3.46
478.671	3.44
478.873	3.38
479.075	3.36
479.276	3.35
479.478	3.35
479.68	3.31
479.882	3.3
480.083	3.35
480.285	3.32
480.487	3.26
480.688	3.21
480.89	3.22
481.091	3.29
481.293	3.29
481.495	3.27
481.696	3.26
481.898	3.28
482.099	3.25
482.301	3.2
482.502	3.21
482.704	3.23
482.905	3.24
483.107	3.23
483.308	3.21
483.51	3.21
483.711	3.23
483.913	3.25
484.114	3.26
484.315	3.26
484.517	3.28
484.718	3.27
484.92	3.27
485.121	3.26
485.322	3.27
485.524	3.28
485.725	3.29
485.926	3.28
486.127	3.28
486.329	3.27
486.53	3.29
486.731	3.28
486.932	3.28
487.134	3.28
487.335	3.29
487.536	3.27
487.737	3.29
487.938	3.28
488.139	3.26
488.341	3.24
488.542	3.23
488.743	3.22
488.944	3.23
489.145	3.24
489.346	3.26
489.547	3.28
489.748	3.29
489.949	3.26
490.15	3.25
490.351	3.26
490.552	3.28
490.753	3.29
490.954	3.28
491.155	3.28
491.356	3.27
491.557	3.25
491.758	3.26
491.959	3.28
492.159	3.28
492.36	3.31
492.561	3.33
492.762	3.34
492.963	3.33
493.164	3.35
493.364	3.35
493.565	3.35
493.766	3.37
493.967	3.4
494.167	3.41
494.368	3.45
494.569	3.42
494.769	3.42
494.97	3.41
495.171	3.42
495.371	3.43
495.572	3.45
495.773	3.49
495.973	3.47
496.174	3.45
496.375	3.47
496.575	3.48
496.776	3.49
496.976	3.52
497.177	3.55
497.377	3.55
497.578	3.57
497.778	3.57
497.979	3.55
498.179	3.62
498.38	3.58
498.58	3.57
498.78	3.56
498.981	3.63
499.181	3.61
499.382	3.6
499.582	3.66
499.782	3.68
499.983	3.7
500.183	3.72
500.383	3.72
500.584	3.74
500.784	3.74
500.984	3.74
501.184	3.73
501.385	3.74
501.585	3.74
501.785	3.72
501.985	3.71
502.185	3.73
502.386	3.71
502.586	3.68
502.786	3.75
502.986	3.78
503.186	3.79
503.386	3.79
503.586	3.81
503.786	3.79
503.987	3.85
504.187	3.9
504.387	3.94
504.587	3.99
504.787	4.02
504.987	3.99
505.187	3.97
505.387	3.98
505.587	4.04
505.786	4.05
505.986	4.09
506.186	4.03
506.386	3.99
506.586	3.98
506.786	4.01
506.986	4.01
507.186	4.04
507.386	4.09
507.585	4.12
507.785	4.08
507.985	4.08
508.185	4.1
508.384	4.17
508.584	4.19
508.784	4.23
508.984	4.26
509.183	4.31
509.383	4.36
509.583	4.37
509.782	4.38
509.982	4.41
510.182	4.46
510.381	4.49
510.581	4.49
510.781	4.49
510.98	4.5
511.18	4.48
511.379	4.44
511.579	4.46
511.778	4.49
511.978	4.52
512.177	4.55
512.377	4.58
512.576	4.61
512.776	4.66
512.975	4.68
513.175	4.72
513.374	4.73
513.573	4.78
513.773	4.8
513.972	4.83
514.172	4.88
514.371	4.91
514.57	4.91
514.77	4.92
514.969	4.92
515.168	4.98
515.367	4.98
515.567	5.05
515.766	5.1
515.965	5.09
516.164	5.1
516.364	5.1
516.563	5.13
516.762	5.16
516.961	5.18
517.16	5.19
517.359	5.23
517.559	5.26
517.758	5.27
517.957	5.27
518.156	5.28
518.355	5.29
518.554	5.31
518.753	5.31
518.952	5.3
519.151	5.31
519.35	5.35
519.549	5.35
519.748	5.38
519.947	5.4
520.146	5.43
520.345	5.45
520.544	5.49
520.743	5.52
520.942	5.52
521.141	5.57
521.339	5.6
521.538	5.58
521.737	5.6
521.936	5.59
522.135	5.63
522.333	5.65
522.532	5.7
522.731	5.72
522.93	5.72
523.129	5.78
523.327	5.79
523.526	5.81
523.725	5.86
523.923	5.86
524.122	5.89
524.321	5.89
524.519	5.9
524.718	5.89
524.917	5.89
525.115	5.92
525.314	5.94
525.512	5.95
525.711	6
525.909	6
526.108	6.01
526.306	6.02
526.505	6.01
526.703	6.03
526.902	6.07
527.1	6.09
527.299	6.11
527.497	6.15
527.696	6.17
527.894	6.18
528.092	6.19
528.291	6.21
528.489	6.25
528.688	6.28
528.886	6.31
529.084	6.33
529.283	6.34
529.481	6.36
529.679	6.35
529.877	6.38
530.076	6.39
530.274	6.45
530.472	6.49
530.67	6.5
530.869	6.53
531.067	6.56
531.265	6.56
531.463	6.6
531.661	6.61
531.859	6.64
532.057	6.67
532.255	6.71
532.454	6.7
532.652	6.72
532.85	6.73
533.048	6.74
533.246	6.74
533.444	6.78
533.642	6.82
533.84	6.83
534.038	6.87
534.236	6.92
534.434	6.94
534.632	6.97
534.83	6.98
535.027	7
535.225	7.04
535.423	7.13
535.621	7.13
535.819	7.13
536.017	7.17
536.215	7.19
536.412	7.16
536.61	7.2
536.808	7.22
537.006	7.27
537.203	7.32
537.401	7.37
537.599	7.38
537.797	7.42
537.994	7.47
538.192	7.5
538.39	7.53
538.587	7.57
538.785	7.57
538.983	7.6
539.18	7.63
539.378	7.64
539.575	7.66
539.773	7.67
539.97	7.7
540.168	7.73
540.366	7.73
540.563	7.73
540.761	7.77
540.958	7.82
541.155	7.85
541.353	7.89
541.55	7.93
541.748	7.94
541.945	7.96
542.143	7.96
542.34	7.98
542.537	8.03
542.735	8.09
542.932	8.13
543.129	8.14
543.327	8.21
543.524	8.24
543.721	8.29
543.919	8.32
544.116	8.37
544.313	8.5
544.51	8.56
544.708	8.64
544.905	8.64
545.102	8.63
545.299	8.67
545.496	8.66
545.693	8.67
545.891	8.69
546.088	8.79
546.285	8.79
546.482	8.75
546.679	8.77
546.876	8.75
547.073	8.8
547.27	8.92
547.467	8.95
547.664	8.98
547.861	9.07
548.058	9.09
548.255	9.08
548.452	9.14
548.649	9.19
548.846	9.24
549.043	9.23
549.24	9.3
549.437	9.28
549.633	9.31
549.83	9.36
550.027	9.43
550.224	9.51
550.421	9.58
550.618	9.61
550.814	9.69
551.011	9.82
551.208	9.98
551.405	10.01
551.601	10.06
551.798	10.12
551.995	10.18
552.191	10.16
552.388	10.18
552.585	10.24
552.781	10.3
552.978	10.33
553.175	10.26
553.371	10.25
553.568	10.31
553.764	10.34
553.961	10.39
554.157	10.43
554.354	10.49
554.55	10.6
554.747	10.61
554.943	10.66
555.14	10.72
555.336	10.82
555.533	10.87
555.729	10.94
555.926	11.02
556.122	11.04
556.318	11.14
556.515	11.15
556.711	11.12
556.907	11.2
557.104	11.23
557.3	11.26
557.496	11.35
557.693	11.41
557.889	11.45
558.085	11.49
558.281	11.55
558.478	11.53
558.674	11.62
558.87	11.65
559.066	11.68
559.262	11.69
559.459	11.75
559.655	11.76
559.851	11.77
560.047	11.79
560.243	11.86
560.439	11.93
560.635	11.99
560.831	12.01
561.027	12.06
561.223	12.09
561.419	12.2
561.615	12.26
561.811	12.3
562.007	12.37
562.203	12.44
562.399	12.45
562.595	12.49
562.791	12.52
562.987	12.56
563.183	12.62
563.379	12.69
563.575	12.74
563.771	12.78
563.966	12.82
564.162	12.87
564.358	12.86
564.554	12.92
564.75	13.01
564.945	13.11
565.141	13.17
565.337	13.25
565.533	13.34
565.728	13.37
565.924	13.4
566.12	13.48
566.315	13.55
566.511	13.62
566.707	13.66
566.902	13.67
567.098	13.66
567.293	13.74
567.489	13.78
567.684	13.74
567.88	13.78
568.076	13.82
568.271	13.84
568.467	13.89
568.662	13.96
568.858	14.02
569.053	14.08
569.248	14.18
569.444	14.22
569.639	14.24
569.835	14.36
570.03	14.43
570.225	14.46
570.421	14.54
570.616	14.56
570.812	14.56
571.007	14.6
571.202	14.6
571.397	14.59
571.593	14.61
571.788	14.68
571.983	14.73
572.178	14.79
572.374	14.83
572.569	14.86
572.764	14.91
572.959	14.98
573.154	15
573.35	15.09
573.545	15.13
573.74	15.2
573.935	15.23
574.13	15.27
574.325	15.33
574.52	15.37
574.715	15.34
574.91	15.4
575.105	15.45
575.3	15.53
575.495	15.58
575.69	15.65
575.885	15.65
576.08	15.68
576.275	15.69
576.47	15.7
576.665	15.8
576.86	15.91
577.055	15.99
577.25	16.03
577.444	16.1
577.639	16.14
577.834	16.18
578.029	16.29
578.224	16.28
578.418	16.38
578.613	16.39
578.808	16.43
579.003	16.47
579.197	16.48
579.392	16.49
579.587	16.52
579.781	16.53
579.976	16.6
580.171	16.63
580.365	16.74
580.56	16.7
580.755	16.77
580.949	16.76
581.144	16.76
581.338	16.79
581.533	16.79
581.727	16.83
581.922	16.89
582.116	16.91
582.311	16.95
582.505	16.95
582.7	17.01
582.894	16.98
583.089	17.04
583.283	17.06
583.478	17.09
583.672	17.17
583.866	17.18
584.061	17.21
584.255	17.18
584.449	17.17
584.644	17.23
584.838	17.25
585.032	17.29
585.226	17.23
585.421	17.29
585.615	17.31
585.809	17.31
586.003	17.37
586.198	17.39
586.392	17.41
586.586	17.46
586.78	17.49
586.974	17.48
587.168	17.55
587.363	17.6
587.557	17.64
587.751	17.66
587.945	17.68
588.139	17.65
588.333	17.67
588.527	17.7
588.721	17.74
588.915	17.72
589.109	17.76
589.303	17.72
589.497	17.74
589.691	17.81
589.885	17.84
590.079	17.88
590.273	17.9
590.466	17.89
590.66	17.94
590.854	17.89
591.048	17.97
591.242	17.95
591.436	17.98
591.629	17.99
591.823	17.96
592.017	17.96
592.211	17.97
592.404	17.98
592.598	18
592.792	17.97
592.986	18
593.179	17.97
593.373	18.03
593.567	18.04
593.76	18.15
593.954	18.16
594.147	18.19
594.341	18.19
594.535	18.23
594.728	18.21
594.922	18.31
595.115	18.31
595.309	18.38
595.502	18.4
595.696	18.44
595.889	18.43
596.083	18.47
596.276	18.45
596.47	18.48
596.663	18.48
596.856	18.52
597.05	18.48
597.243	18.54
597.437	18.54
597.63	18.56
597.823	18.63
598.017	18.66
598.21	18.62
598.403	18.69
598.596	18.71
598.79	18.73
598.983	18.82
599.176	18.89
599.369	18.91
599.563	18.87
599.756	18.87
599.949	18.78
600.142	18.69
600.335	18.73
600.528	18.72
600.722	18.8
600.915	18.84
601.108	18.82
601.301	18.86
601.494	18.85
601.687	18.84
601.88	18.83
602.073	18.86
602.266	18.91
602.459	18.9
602.652	18.96
602.845	18.91
603.038	18.88
603.231	18.87
603.424	18.87
603.617	18.85
603.809	18.89
604.002	18.93
604.195	18.95
604.388	18.93
604.581	18.96
604.774	18.96
604.966	18.98
605.159	19.02
605.352	19.06
605.545	19.06
605.737	19.11
605.93	19.1
606.123	19.05
606.316	19.1
606.508	19.18
606.701	19.28
606.894	19.33
607.086	19.31
607.279	19.3
607.471	19.36
607.664	19.31
607.857	19.33
608.049	19.39
608.242	19.45
608.434	19.46
608.627	19.48
608.819	19.49
609.012	19.45
609.204	19.5
609.397	19.55
609.589	19.59
609.782	19.73
609.974	19.77
610.166	19.83
610.359	19.86
610.551	19.91
610.743	19.95
610.936	19.91
611.128	19.96
611.32	19.99
611.513	19.96
611.705	19.94
611.897	19.88
612.09	19.86
612.282	19.8
612.474	19.77
612.666	19.8
612.858	19.79
613.051	19.79
613.243	19.71
613.435	19.72
613.627	19.81
613.819	19.72
614.011	19.7
614.203	19.68
614.395	19.67
614.588	19.67
614.78	19.67
614.972	19.67
615.164	19.64
615.356	19.66
615.548	19.6
615.74	19.58
615.932	19.6
616.124	19.59
616.315	19.58
616.507	19.6
616.699	19.66
616.891	19.62
617.083	19.63
617.275	19.76
617.467	19.74
617.659	19.75
617.85	19.75
618.042	19.78
618.234	19.82
618.426	19.86
618.618	19.91
618.809	19.86
619.001	19.85
619.193	19.88
619.384	19.8
619.576	19.87
619.768	19.97
619.959	19.88
620.151	19.96
620.343	19.9
620.534	19.87
620.726	19.95
620.917	20.11
621.109	20.15
621.301	20.11
621.492	20.11
621.684	20.07
621.875	20.02
622.067	20.11
622.258	20.09
622.45	20.12
622.641	20.21
622.832	20.08
623.024	20.04
623.215	19.97
623.407	20
623.598	20.05
623.789	20.11
623.981	20.15
624.172	20.21
624.363	20.12
624.555	20.12
624.746	20.12
624.937	20.1
625.129	20.06
625.32	20.07
625.511	20.07
625.702	20.08
625.893	20.06
626.085	20.03
626.276	19.99
626.467	20.02
626.658	20.08
626.849	20.04
627.04	20.07
627.231	20.06
627.422	20.21
627.614	20.19
627.805	20.17
627.996	20.24
628.187	20.25
628.378	20.21
628.569	20.24
628.76	20.22
628.951	20.24
629.142	20.3
629.332	20.42
629.523	20.37
629.714	20.4
629.905	20.42
630.096	20.37
630.287	20.36
630.478	20.44
630.669	20.48
630.859	20.45
631.05	20.58
631.241	20.53
631.432	20.45
631.623	20.47
631.813	20.47
632.004	20.44
632.195	20.56
632.385	20.54
632.576	20.54
632.767	20.53
632.957	20.56
633.148	20.47
633.339	20.49
633.529	20.47
633.72	20.42
633.91	20.35
634.101	20.42
634.292	20.24
634.482	20.27
634.673	20.22
634.863	20.24
635.054	20.24
635.244	20.3
635.435	20.31
635.625	20.32
635.815	20.3
636.006	20.34
636.196	20.3
636.387	20.4
636.577	20.38
636.767	20.39
636.958	20.36
637.148	20.34
637.338	20.2
637.529	20.2
637.719	20.22
637.909	20.27
638.099	20.32
638.29	20.36
638.48	20.46
638.67	20.48
638.86	20.44
639.05	20.44
639.241	20.55
639.431	20.61
639.621	20.56
639.811	20.61
640.001	20.52
640.191	20.56
640.381	20.51
640.571	20.49
640.761	20.51
640.951	20.61
641.141	20.66
641.331	20.5
641.521	20.53
641.711	20.6
641.901	20.51
642.091	20.59
642.281	20.6
642.471	20.62
642.661	20.65
642.851	20.7
643.041	20.69
643.231	20.71
643.42	20.84
643.61	20.71
643.8	20.65
643.99	20.76
644.18	20.78
644.369	20.82
644.559	20.86
644.749	20.75
644.939	20.7
645.128	20.69
645.318	20.66
645.508	20.66
645.697	20.82
645.887	20.89
646.076	20.85
646.266	20.79
646.456	20.8
646.645	20.76
646.835	20.82
647.024	20.78
647.214	20.8
647.403	20.77
647.593	20.8
647.782	20.81
647.972	20.76
648.161	20.71
648.351	20.82
648.54	20.73
648.73	20.67
648.919	20.72
649.108	20.72
649.298	20.63
649.487	20.66
649.677	20.6
649.866	20.61
650.055	20.65
650.244	20.62
650.434	20.45
650.623	20.58
650.812	20.66
651.002	20.55
651.191	20.55
651.38	20.66
651.569	20.72
651.758	20.77
651.947	20.74
652.137	20.72
652.326	20.74
652.515	20.87
652.704	20.79
652.893	20.75
653.082	20.82
653.271	20.91
653.46	20.86
653.649	20.86
653.838	20.75
654.027	20.81
654.216	20.87
654.405	20.95
654.594	20.96
654.783	21.01
654.972	21.11
655.161	21.07
655.35	21.05
655.539	21.16
655.728	21.09
655.916	21.07
656.105	21.07
656.294	21.04
656.483	20.87
656.672	20.91
656.86	20.79
657.049	20.78
657.238	20.82
657.427	20.86
657.615	20.81
657.804	20.8
657.993	20.86
658.181	20.77
658.37	20.77
658.559	20.9
658.747	20.87
658.936	20.91
659.125	20.85
659.313	20.82
659.502	20.84
659.69	20.81
659.879	20.87
660.067	20.91
660.256	21
660.444	21.1
660.633	21.02
660.821	20.98
661.01	21.04
661.198	21.14
661.387	21.13
661.575	21.13
661.763	21.18
661.952	21.14
662.14	21.05
662.328	21.02
662.517	20.96
662.705	21.05
662.893	21.16
663.082	21.13
663.27	21
663.458	20.99
663.646	21
663.834	21
664.023	21.1
664.211	21.17
664.399	21.19
664.587	21.19
664.775	21.17
664.963	21.16
665.152	21.12
665.34	21.24
665.528	21.4
665.716	21.37
665.904	21.35
666.092	21.37
666.28	21.44
666.468	21.42
666.656	21.41
666.844	21.42
667.032	21.39
667.22	21.38
667.408	21.41
667.596	21.39
667.784	21.42
667.971	21.45
668.159	21.41
668.347	21.33
668.535	21.3
668.723	21.28
668.911	21.24
669.098	21.15
669.286	21.22
669.474	21.19
669.662	21.09
669.849	21.09
670.037	20.94
670.225	20.92
670.413	20.98
670.6	21.08
670.788	21.09
670.976	21.11
671.163	21.23
671.351	21.17
671.538	21.07
671.726	21.25
671.913	21.2
672.101	21.27
672.289	21.36
672.476	21.31
672.664	21.27
672.851	21.31
673.039	21.29
673.226	21.23
673.413	21.38
673.601	21.49
673.788	21.36
673.976	21.38
674.163	21.48
674.35	21.34
674.538	21.38
674.725	21.36
674.912	21.37
675.1	21.34
675.287	21.39
675.474	21.31
675.662	21.39
675.849	21.37
676.036	21.34
676.223	21.4
676.411	21.5
676.598	21.59
676.785	21.55
676.972	21.49
677.159	21.66
677.346	21.68
677.533	21.73
677.721	21.72
677.908	21.77
678.095	21.85
678.282	21.88
678.469	21.91
678.656	21.81
678.843	21.74
679.03	21.79
679.217	21.78
679.404	21.74
679.591	21.69
679.778	21.63
679.964	21.59
680.151	21.44
680.338	21.35
680.525	21.4
680.712	21.38
680.899	21.46
681.086	21.49
681.272	21.38
681.459	21.41
681.646	21.36
681.833	21.39
682.02	21.4
682.206	21.52
682.393	21.53
682.58	21.33
682.766	21.31
682.953	21.3
683.14	21.35
683.326	21.47
683.513	21.46
683.7	21.46
683.886	21.51
684.073	21.48
684.259	21.53
684.446	21.54
684.632	21.64
684.819	21.66
685.005	21.81
685.192	21.7
685.378	21.74
685.565	21.65
685.751	21.69
685.938	21.52
686.124	21.48
686.31	21.43
686.497	21.39
686.683	21.45
686.87	21.6
687.056	21.44
687.242	21.47
687.429	21.31
687.615	21.38
687.801	21.51
687.987	21.53
688.174	21.71
688.36	21.65
688.546	21.64
688.732	21.58
688.918	21.57
689.105	21.72
689.291	21.7
689.477	21.83
689.663	21.85
689.849	21.68
690.035	21.73
690.221	21.72
690.407	21.68
690.593	21.72
690.779	21.81
690.965	21.74
691.151	21.61
691.337	21.59
691.523	21.61
691.709	21.51
691.895	21.6
692.081	21.66
692.267	21.77
692.453	21.75
692.639	21.79
692.825	21.74
693.011	21.81
693.196	21.94
693.382	22.09
693.568	21.98
693.754	22.12
693.94	22.02
694.125	22
694.311	21.98
694.497	22.19
694.682	22.09
694.868	22.18
695.054	22.15
695.239	21.98
695.425	21.79
695.611	21.78
695.796	21.7
695.982	21.82
696.168	21.8
696.353	21.69
696.539	21.7
696.724	21.73
696.91	21.63
697.095	21.54
697.281	21.57
697.466	21.68
697.652	21.73
697.837	21.84
698.023	21.79
698.208	21.83
698.393	21.87
698.579	21.87
698.764	21.89
698.949	21.82
699.135	21.9
699.32	22.03
699.505	22
699.691	21.97
699.876	21.92
700.061	21.9
700.246	21.85
700.432	21.78
700.617	21.72
700.802	21.74
700.987	21.78
701.172	21.73
701.358	21.57
701.543	21.41
701.728	21.41
701.913	21.45
702.098	21.49
702.283	21.5
702.468	21.46
702.653	21.31
702.838	21.5
703.023	21.67
703.208	21.84
703.393	21.8
703.578	21.95
703.763	22.04
703.948	21.96
704.133	21.86
704.318	21.78
704.503	22.03
704.688	22.08
704.873	21.93
705.057	21.9
705.242	21.7
705.427	21.8
705.612	21.9
705.797	22
705.981	21.92
706.166	22.14
706.351	22.15
706.536	21.94
706.72	22
706.905	21.97
707.09	21.92
707.274	22
707.459	21.91
707.644	22
707.828	21.89
708.013	22
708.197	21.93
708.382	21.96
708.567	21.91
708.751	21.88
708.936	21.97
709.12	21.9
709.305	21.92
709.489	22.03
709.673	21.82
709.858	21.63
710.042	21.77
710.227	21.78
710.411	21.69
710.596	21.8
710.78	21.81
710.964	21.76
711.149	21.89
711.333	22.1
711.517	22.19
711.702	22.35
711.886	22.42
712.07	22.3
712.254	22.31
712.438	22.45
712.623	22.37
712.807	22.57
712.991	22.48
713.175	22.38
713.359	22.26
713.544	22.38
713.728	22.34
713.912	22.35
714.096	22.44
714.28	22.41
714.464	22.41
714.648	22.56
714.832	22.43
715.016	22.55
715.2	22.6
715.384	22.47
715.568	22.3
715.752	22.21
715.936	22.26
716.12	22.25
716.304	22.27
716.488	22.16
716.671	22
716.855	21.92
717.039	21.95
717.223	21.85
717.407	21.78
717.59	21.69
717.774	21.73
717.958	21.81
718.142	21.66
718.325	21.65
718.509	21.71
718.693	21.74
718.877	21.87
719.06	21.69
719.244	21.64
719.428	21.77
719.611	21.87
719.795	21.82
719.978	21.93
720.162	21.89
720.345	21.96
720.529	22.07
720.713	22.11
720.896	22.01
721.08	22.2
721.263	22.17
721.446	22.34
721.63	22.37
721.813	22.45
721.997	22.26
722.18	22.26
722.364	22.29
722.547	22.37
722.73	22.24
722.914	22.24
723.097	22.07
723.28	22.23
723.464	22.01
723.647	22.13
723.83	22.06
724.013	22.02
724.197	22.34
724.38	22.36
724.563	22.2
724.746	22.38
724.929	22.39
725.112	22.36
725.296	22.25
725.479	22.19
725.662	21.93
725.845	21.92
726.028	21.81
726.211	21.51
726.394	21.38
726.577	21.35
726.76	21.29
726.943	21.41
727.126	21.56
727.309	21.71
727.492	21.74
727.675	21.87
727.858	21.79
728.041	22.02
728.224	22.03
728.407	22.12
728.589	22.17
728.772	22.14
728.955	22.15
729.138	22.18
729.321	22
729.503	22.32
729.686	22.35
729.869	22.51
730.052	22.47
730.234	22.52
730.417	22.32
730.6	22.44
730.782	22.53
730.965	22.52
731.148	22.5
731.33	22.71
731.513	22.44
731.695	22.22
731.878	22.25
732.061	22.26
732.243	22.29
732.426	22.32
732.608	22.28
732.791	22.17
732.973	22.14
733.156	22.1
733.338	22.13
733.52	22.18
733.703	22.34
733.885	22.22
734.068	22.08
734.25	21.93
734.432	22.09
734.615	22.11
734.797	22.16
734.979	22.28
735.162	22.41
735.344	22.38
735.526	22.52
735.708	22.52
735.891	22.79
736.073	23.07
736.255	23.24
736.437	23.23
736.619	22.75
736.802	22.69
736.984	22.4
737.166	22.37
737.348	22.3
737.53	22.09
737.712	22.19
737.894	22.24
738.076	22.17
738.258	22.14
738.44	22.15
738.622	22.32
738.804	22.26
738.986	22.36
739.168	22.45
739.35	22.49
739.532	22.56
739.714	22.34
739.896	21.91
740.078	21.86
740.259	22.06
740.441	21.92
740.623	22.13
740.805	22.17
740.987	22.25
741.168	21.81
741.35	21.85
741.532	21.86
741.714	21.88
741.895	22.15
742.077	22.14
742.259	22.07
742.44	22.29
742.622	22.17
742.804	22.37
742.985	22.26
743.167	22.47
743.348	22.26
743.53	22.22
743.711	22.16
743.893	21.81
744.075	21.69
744.256	21.48
744.438	21.38
744.619	21.36
744.8	20.97
744.982	21.08
745.163	21.29
745.345	21.2
745.526	21.2
745.707	21.51
745.889	21.74
746.07	21.82
746.252	21.86
746.433	21.95
746.614	22.04
746.795	22.65
746.977	22.59
747.158	22.64
747.339	22.75
747.52	22.77
747.702	22.68
747.883	22.61
748.064	22.47
748.245	22.51
748.426	22.29
748.607	22.31
748.788	21.94
748.97	21.84
749.151	21.92
749.332	21.97
749.513	22
749.694	21.8
749.875	21.88
750.056	22.12
750.237	22.13
750.418	22.27
750.599	22.18
750.78	22.16
750.96	22.2
751.141	22.08
751.322	22.22
751.503	22.3
751.684	22.55
751.865	22.68
752.046	22.84
752.226	22.78
752.407	22.61
752.588	22.59
752.769	22.96
752.949	22.98
753.13	22.88
753.311	22.66
753.492	22.55
753.672	22.48
753.853	22.08
754.034	22.05
754.214	22.06
754.395	22.19
754.575	22.21
754.756	21.83
754.937	21.61
755.117	21.63
755.298	21.73
755.478	22.07
755.659	22.34
755.839	22.43
756.02	21.97
756.2	21.87
756.381	21.68
756.561	21.74
756.741	22.02
756.922	22.03
757.102	21.9
757.283	21.9
757.463	21.69
757.643	21.44
757.823	21.59
758.004	21.76
758.184	22.12
758.364	22.27
758.545	22.57
758.725	22.43
758.905	22.53
759.085	22.51
759.265	22.48
759.446	22.25
759.626	22.07
759.806	22.25
759.986	22.24
760.166	21.87
760.346	21.81
760.526	21.69
760.706	21.83
760.886	21.89
761.066	21.98
761.246	21.68
761.426	21.76
761.606	21.84
761.786	21.8
761.966	22.03
762.146	22.3
762.326	22.31
762.506	22.25
762.686	22.13
762.866	22.08
763.046	22.07
763.225	22.36
763.405	22.44
763.585	22.72
763.765	22.72
763.945	22.58
764.124	22.48
764.304	22.72
764.484	22.65
764.664	22.78
764.843	22.86
765.023	22.92
765.203	22.94
765.382	23.05
765.562	22.75
765.741	22.81
765.921	22.82
766.101	22.78
766.28	22.5
766.46	22.53
766.639	22.39
766.819	22.18
766.998	22.18
767.178	22.13
767.357	22.18
767.537	22.1
767.716	21.98
767.896	22.02
768.075	21.66
768.254	21.92
768.434	22.13
768.613	22.06
768.792	22.35
768.972	22.22
769.151	22.14
769.33	22.14
769.51	22.21
769.689	21.82
769.868	21.99
770.047	22.64
770.226	22.59
770.406	22.66
770.585	22.73
770.764	22.44
770.943	22.46
771.122	22.75
771.301	22.72
771.48	22.9
771.66	23.35
771.839	23.06
772.018	22.71
772.197	22.67
772.376	22.53
772.555	22.4
772.734	22.83
772.913	22.91
773.092	22.56
773.271	22.48
773.449	22.38
773.628	22.83
773.807	22.94
773.986	22.61
774.165	22.53
774.344	22.39
774.523	22.56
774.701	22.33
774.88	22.33
775.059	22.16
775.238	21.99
775.417	21.65
775.595	21.05
775.774	21.18
775.953	21.77
776.131	21.32
776.31	21.46
776.489	21.45
776.667	21.94
776.846	21.93
777.025	22.56
777.203	22.46
777.382	22.87
777.56	22.68
777.739	22.25
777.917	21.76
778.096	21.83
778.274	22.09
778.453	22.28
778.631	21.58
778.81	21.75
778.988	21.27
779.166	21.56
779.345	21.54
779.523	22.14
779.702	22.56
779.88	22.78
780.058	23.29
780.237	22.84
780.415	22.87
780.593	23.31
780.771	22.95
780.95	23.1
781.128	22.96
781.306	22.86
781.484	22.7
781.662	22.51
781.841	22.6
782.019	22.3
782.197	22.63
782.375	22.26
782.553	22.24
782.731	22.78
782.909	22.98
783.087	23.33
783.265	23.87
783.443	23.79
783.621	23.65
783.799	23.65
783.977	23.83
784.155	23.51
784.333	23.57
784.511	23.34
784.689	23.3
784.867	23.22
785.045	22.83
785.223	22.3
785.4	21.72
785.578	21.98
785.756	21.58
785.934	21.19
786.112	21.27
786.289	21.28
786.467	21.37
786.645	20.88
786.823	20.57
787	20.62
787.178	20.73
787.356	21.24
787.533	21.83
787.711	22.44
787.889	22.64
788.066	22.3
788.244	22.2
788.421	22.42
788.599	22.83
788.776	23.1
788.954	22.98
789.131	22.98
789.309	22.99
789.486	22.31
789.664	22.62
789.841	23.03
790.019	23.38
790.196	23.47
790.373	22.75
790.551	22.27
790.728	22.28
790.906	22.55
791.083	21.77
791.26	21.62
791.437	21.57
791.615	21.19
791.792	21.09
791.969	20.74
792.146	20.8
792.324	21.11
792.501	21.34
792.678	21.02
792.855	20.75
793.032	21.81
793.209	22.16
793.387	22.35
793.564	22
793.741	21.68
793.918	22.08
794.095	22.37
794.272	22.78
794.449	22.81
794.626	23.14
794.803	23
794.98	22.35
795.157	22.15
795.334	22.26
795.511	22.26
795.688	22.02
795.864	22.37
796.041	22.63
796.218	22.17
796.395	22.7
796.572	22.73
796.749	22.38
796.925	22.91
797.102	22.79
797.279	22.61
797.456	22.97
797.632	22.99
797.809	22.94
797.986	22.67
798.162	23.33
798.339	22.61
798.516	22.4
798.692	22.75
798.869	22.77
799.046	22.66
799.222	23.09
799.399	22.71
799.575	23.22
799.752	22.91
799.928	22.44
800.105	21.65
800.281	21.48
800.458	22.07
800.634	22.25
800.811	22.22
800.987	22.88
801.163	22.23
801.34	22.28
801.516	21.9
801.692	22.03
801.869	22.17
802.045	22.91
802.221	23.6
802.398	22.81
802.574	23.01
802.75	23.28
802.926	22.82
803.103	22.91
803.279	23.77
803.455	23.89
803.631	24.66
803.807	24.93
803.983	24.83
804.16	24.55
804.336	24.38
804.512	24.66
804.688	23.92
804.864	23.6
805.04	24.16
805.216	23.44
805.392	23.81
805.568	23.49
805.744	24.05
805.92	23.71
806.096	23.19
806.272	23.78
806.448	23.25
806.623	22.76
806.799	23.51
806.975	22.91
807.151	23.18
807.327	22.72
807.503	22.47
807.678	21.57
807.854	21.14
808.03	21.7
808.206	21.32
808.381	21.03
808.557	21.25
808.733	20.85
808.908	21.01
809.084	20.21
809.26	20.26
809.435	19.86
809.611	19.45
809.787	19.94
809.962	19.77
810.138	20.08
810.313	20.33
810.489	20.31
810.664	20.48
810.84	20.28
811.015	20.96
811.191	21
811.366	21.43
811.542	21.86
811.717	21.82
811.892	22.53
812.068	22.64
812.243	22.97
812.419	23.58
812.594	23.77
812.769	23.8
812.944	23.6
813.12	23.4
813.295	23.04
813.47	23.56
813.645	23.65
813.821	23.18
813.996	22.41
814.171	22.15
814.346	22.46
814.521	21.82
814.697	21.55
814.872	21.65
815.047	21.59
815.222	21.15
815.397	21.45
815.572	22.15
815.747	22.15
815.922	22.77
816.097	23.23
816.272	22.76
816.447	23.37
816.622	24.43
816.797	24.08
816.972	24.55
817.147	25.18
817.322	24.92
817.496	24.2
817.671	24.29
817.846	23.97
818.021	23.71
818.196	23.78
818.371	23.49
818.545	23.22
818.72	23.3
818.895	23.02
819.069	23.23
819.244	23.07
819.419	23.1
819.594	23.07
819.768	22.93
819.943	22.91
820.117	22.77
820.292	22.69
820.467	22.66
820.641	22.83
820.816	22.93
820.99	22.91
821.165	22.99
821.339	22.96
821.514	22.89
821.688	22.95
821.863	22.95
822.037	23
822.212	23.05
822.386	23.04
822.56	23
822.735	22.93
822.909	22.94
823.084	22.76
823.258	22.81
823.432	22.87
823.606	22.86
823.781	22.87
823.955	22.89
824.129	22.77
824.303	22.78
824.478	22.66
824.652	22.84
824.826	22.6
825	22.81
825.174	22.75
825.348	22.52
825.523	22.78
825.697	22.7
825.871	22.75
826.045	22.85
826.219	22.71
826.393	22.76
826.567	22.87
826.741	22.88
826.915	22.92
827.089	22.73
827.263	22.85
827.437	22.75
827.611	22.77
827.784	22.57
827.958	22.32
828.132	22.61
828.306	22.63
828.48	22.4
828.654	22.59
828.827	22.17
829.001	22.7
829.175	22.71
829.349	22.69
829.522	22.73
829.696	22.99
829.87	24
830.044	24.28
830.217	24.2
830.391	24.22
830.565	24.39
830.738	24.94
830.912	24.6
831.085	24.87
831.259	24.48
831.432	23.78
831.606	23.21
831.779	22.95
831.953	22.29
832.126	22.66
832.3	22.52
832.473	22.13
832.647	21.73
832.82	21.91
832.994	21.86
833.167	21.57
833.34	21.84
833.514	21.87
833.687	21.74
833.86	21.25
834.034	21.24
834.207	21.33
834.38	21.17
834.553	21.51
834.727	20.87
834.9	20.75
835.073	20.89
835.246	20.98
835.419	21.72
835.593	22.07
835.766	22.7
835.939	22.65
836.112	22.29
836.285	22.98
836.458	22.86
836.631	23.42
836.804	23.47
836.977	23.92
837.15	24.03
837.323	22.96
837.496	22.24
837.669	22.19
837.842	22.34
838.015	22.35
838.188	21.19
838.361	22.27
838.533	22.39
838.706	21.64
838.879	21.38
839.052	21.22
839.225	21.58
839.398	22
839.57	21.76
839.743	20.84
839.916	21.68
840.088	22.17
840.261	21.66
840.434	21.33
840.607	21.61
840.779	21.56
840.952	22.17
841.124	21.38
841.297	21.77
841.47	22.39
841.642	23.48
841.815	21.87
841.987	22.08
842.16	21.56
842.332	22.36
842.505	23.02
842.677	24.83
842.85	24.84
843.022	27.07
843.194	28.16
843.367	28.26
843.539	28.6
843.712	29.35
843.884	29.95
844.056	29.69
844.229	30.39
844.401	30.83
844.573	30.49
844.745	29.69
844.918	29.48
845.09	27.51
845.262	27.11
845.434	26.82
845.606	26.58
845.779	26.4
845.951	27.11
846.123	28
846.295	26.79
846.467	25.27
846.639	25.85
846.811	24.06
846.983	24.33
847.155	23.12
847.327	22.92
847.499	22.91
847.671	20.42
847.843	18.97
848.015	17.07
848.187	20.13
848.359	21.26
848.531	21.15
848.703	22.01
848.875	22.51
849.047	24.11
849.218	22.85
849.39	23.42
849.562	27.31
849.734	26.76
849.905	26.89
850.077	23.89
850.249	23.67
850.421	22.42
850.592	20.96
850.764	20.42
850.936	19.33
851.107	19.38
851.279	21.6
851.451	19.65
851.622	21.21
851.794	21.21
851.965	21.04
852.137	20.6
852.308	20.06
852.48	22.44
852.651	20.73
852.823	20.68
852.994	20.64
853.166	17.76
853.337	19.45
853.509	18.44
853.68	19.87
853.851	22.21
854.023	20.95
854.194	22.83
854.365	22.47
854.537	23.58
854.708	24.3
854.879	24.39
855.05	24.66
855.222	23.65
855.393	24.08
855.564	22.36
855.735	18.24
855.906	20.31
856.078	20.46
856.249	20.24
856.42	17.55
856.591	17.64
856.762	18.78
856.933	20.16
857.104	17.89
857.275	20.43
857.446	20.04
857.617	21.47
857.788	20.39
857.959	19.93
858.13	18.14
858.301	19.67
858.472	19.25
858.643	17.93
858.814	17.6
858.985	18.8
859.155	17.55
859.326	19.04
859.497	21.47
859.668	20.01
859.839	20.04
860.009	22.46
860.18	21.54
860.351	21.58
860.522	22.35
860.692	21
860.863	21.32
861.034	21.24
861.204	20.73
861.375	21.27
861.546	23.06
861.716	22.26
861.887	20.23
862.057	23.53
862.228	23.05
862.398	22.64
862.569	23.18
862.739	23.69
862.91	23.2
863.08	23.54
863.251	20.28
863.421	17.81
863.592	19.99
863.762	21.52
863.932	19.06
864.103	19.73
864.273	20.83
864.443	21.98
864.614	21.21
864.784	22.25
864.954	20.9
865.125	21.19
865.295	23.34
865.465	21.14
865.635	19.72
865.805	20.65
865.976	18.38
866.146	18.23
866.316	19.05
866.486	18.65
866.656	17.35
866.826	15.55
866.996	16.11
867.166	15.34
867.336	15.59
867.506	17.18
867.676	18.24
867.846	19.39
868.016	19.02
868.186	16.67
868.356	18.77
868.526	16.14
868.696	17.17
868.866	19.55
869.036	17.33
869.206	17.59
869.376	17.86
869.545	17.57
869.715	19.72
869.885	18.03
870.055	18.66
870.224	16.89
870.394	20.55
870.564	25.49
870.734	23.07
870.903	26.11
871.073	25.73
871.243	26.4
871.412	27.32
871.582	27.4
871.751	27.79
871.921	26.11
872.091	24.36
872.26	22.16
872.43	17.01
872.599	16.83
872.769	15.35
872.938	15.07
873.108	13.5
873.277	12.55
873.446	12.75
873.616	13.77
873.785	16.14
873.955	19.22
874.124	19.58
874.293	21.52
874.463	21.72
874.632	20.97
874.801	21.43
874.971	23.1
875.14	24.89
875.309	23.67
875.478	24.22
875.647	23.3
875.817	22.42
875.986	21.5
876.155	19.96
876.324	17.32
876.493	19.52
876.662	20.54
876.831	17.58
877	16.46
877.17	17.88
877.339	18.44
877.508	21.53
877.677	23.05
877.846	23.65
878.015	24.01
878.184	26.9
878.352	26.29
878.521	26.6
878.69	26.26
878.859	25.62
879.028	25.19
879.197	24.35
879.366	23.01
879.534	21.5
879.703	21.41
879.872	22.43
880.041	23.08
880.21	23.44
880.378	22.67
880.547	23.48
880.716	24.01
880.884	23.52
881.053	23.68
881.222	23.61
881.39	23.87
881.559	24.12
881.727	24.09
881.896	23.78
882.065	23.46
882.233	23.84
882.402	23.69
882.57	23.24
882.739	23.33
882.907	23.24
883.076	23.43
883.244	23.56
883.412	23.48
883.581	23.25
883.749	23.21
883.918	23.81
884.086	23.81
884.254	23.59
884.423	23.72
884.591	24.23
884.759	23.65
884.927	23.57
885.096	22.89
885.264	23.23
885.432	23.89
885.6	23.27
885.769	23.21
885.937	23.13
886.105	23.16
886.273	23.57
886.441	23.85
886.609	25.33
886.777	24.56
886.945	25.26
887.113	25.43
887.281	25.08
887.449	26.87
887.617	27.68
887.785	26.66
887.953	27.27
888.121	26.41
888.289	25.39
888.457	25.74
888.625	25.24
888.793	24.56
888.961	22.88
889.129	19.02
889.296	17.86
889.464	14.79
889.632	14.39
889.8	12.91
889.967	12.19
890.135	12.06
