Data from JASIL_3304_Reflection_1.txt Node
Date: Tue Nov 17 19:47:00 EST 2015
User: Geneva
Spectrometer: USB4E03002
Autoset integration time: false
Trigger mode: 4
Integration Time (sec): 1.000000E-1
Scans to average: 10
Electric dark correction enabled: false
Nonlinearity correction enabled: false
Boxcar width: 5
Stray light correction enabled: false
XAxis mode: Wavelengths
Stop averaging: false
Number of Pixels in Spectrum: 3648
>>>>>Begin Spectral Data<<<<<
177.575	-118.81
177.794	-172.83
178.014	-215.73
178.233	-605.66
178.452	-560
178.672	-455.12
178.891	-1122.41
179.11	7520
179.33	2132.61
179.549	2098.04
179.768	-10345.45
179.987	929.55
180.207	531.56
180.426	912.33
180.645	1075.2
180.864	7729.41
181.084	706.63
181.303	552.68
181.522	663.79
181.741	587.64
181.96	970.71
182.179	5594.12
182.398	-1158.44
182.618	-453.23
182.837	-386.67
183.056	-430.05
183.275	-457.22
183.494	-196.92
183.713	-159.05
183.932	-145.08
184.151	-116.02
184.37	-91.77
184.589	-132.4
184.808	-83.07
185.027	-76.32
185.246	-125.29
185.465	-95.06
185.684	-98.92
185.903	-157.61
186.122	-210
186.341	-400.88
186.56	-227.38
186.779	-1403.7
186.998	-147.09
187.216	-252.22
187.435	-280.61
187.654	-292.12
187.873	-150.45
188.092	-238.46
188.311	-312.86
188.53	-214.13
188.748	-83.56
188.967	-87.88
189.186	-71.23
189.405	-165.27
189.623	-110.63
189.842	-113.69
190.061	-62.41
190.28	-70.77
190.498	-95.02
190.717	-41.96
190.936	-44.23
191.154	-112.09
191.373	-383.91
191.592	1120.93
191.81	337.86
192.029	347.37
192.248	177.94
192.466	190.06
192.685	77.68
192.904	165.35
193.122	194.51
193.341	307.56
193.559	422.03
193.778	420.44
193.996	264.45
194.215	762.32
194.433	457.14
194.652	396.5
194.87	429.38
195.089	528.46
195.307	905.26
195.526	-486.73
195.744	-243.17
195.963	-356.67
196.181	-507.44
196.399	-873.56
196.618	1097.37
196.836	611.35
197.055	542.57
197.273	591.04
197.491	545.05
197.71	363.49
197.928	280.13
198.146	269.52
198.365	1671.43
198.583	1190.48
198.801	-412.1
199.019	-121.51
199.238	-111.54
199.456	-97.16
199.674	-126.33
199.892	-139.76
200.111	-109.39
200.329	-135.75
200.547	-164.42
200.765	1284.31
200.983	-415.38
201.202	1032.89
201.42	339.64
201.638	258.31
201.856	449.57
202.074	683.33
202.292	433.21
202.51	344.14
202.728	449.82
202.946	3767.86
203.165	1894.23
203.383	411.91
203.601	520.3
203.819	962.73
204.037	-2721.21
204.255	-3629.63
204.473	-651.75
204.691	-514.71
204.909	-444.25
205.127	-2337.5
205.345	705.45
205.562	-724.03
205.78	-145.15
205.998	-123.65
206.216	-81.24
206.434	-110.73
206.652	-88.38
206.87	-205.99
207.088	-155.24
207.306	-264.74
207.523	-152.49
207.741	-146.01
207.959	-253.15
208.177	-361.14
208.395	-340.69
208.612	-426.85
208.83	-256.35
209.048	-275.51
209.266	-238.95
209.483	-166.99
209.701	-166.27
209.919	-111.68
210.136	-145.06
210.354	-176.12
210.572	-231.99
210.79	-291
211.007	-497.89
211.225	-5306.67
211.442	1296.61
211.66	3524
211.878	318.94
212.095	470.16
212.313	792.37
212.53	323.22
212.748	265.74
212.966	200.29
213.183	206.61
213.401	-2022.22
213.618	-92.86
213.836	-79.86
214.053	-99.08
214.271	-26.28
214.488	-16.07
214.705	-18.41
214.923	-61.42
215.14	-40.96
215.358	-32.71
215.575	-47.45
215.793	-106.81
216.01	-368.25
216.227	-679.31
216.445	-541.67
216.662	-261.64
216.879	-357.39
217.097	-205.23
217.314	-284.05
217.531	10975
217.749	729.7
217.966	410.44
218.183	265.05
218.4	412.9
218.618	375.66
218.835	254.62
219.052	268.38
219.269	219.19
219.487	148.06
219.704	142.02
219.921	130.93
220.138	217.93
220.355	181.87
220.572	165.04
220.79	145.77
221.007	222.04
221.224	285.55
221.441	300.76
221.658	338.46
221.875	-1051.43
222.092	-569.32
222.309	2069.7
222.526	364.24
222.743	357.49
222.96	433.09
223.177	1360.47
223.394	839.47
223.611	477.62
223.828	332
224.045	242.02
224.262	236.24
224.479	244.78
224.696	362.98
224.913	585.95
225.13	553.77
225.347	451.72
225.564	233.76
225.781	116.67
225.997	113.96
226.214	101.25
226.431	85.24
226.648	64.13
226.865	41.75
227.082	35.69
227.298	39.03
227.515	33.95
227.732	30.71
227.949	26.89
228.165	21.87
228.382	10
228.599	8.74
228.816	12.27
229.032	12.79
229.249	24.9
229.466	25.44
229.682	26.38
229.899	26.25
230.116	35.19
230.332	39.81
230.549	46.75
230.765	53.08
230.982	40.99
231.199	37.15
231.415	35.74
231.632	34.27
231.848	34
232.065	20.96
232.281	22.13
232.498	30.15
232.714	18.69
232.931	23.97
233.147	26.79
233.364	38.18
233.58	44.08
233.797	54.38
234.013	50.98
234.23	75.1
234.446	78.12
234.662	107.52
234.879	103.71
235.095	112.64
235.312	94.34
235.528	103.39
235.744	125.29
235.961	160.86
236.177	142.34
236.393	181.25
236.61	118.67
236.826	116.81
237.042	71.43
237.258	73.58
237.475	81.41
237.691	125.19
237.907	83.11
238.123	81.68
238.339	76.97
238.556	79.38
238.772	64.93
238.988	54.29
239.204	37.83
239.42	43.35
239.636	41.57
239.853	37.14
240.069	30.83
240.285	32.82
240.501	28.96
240.717	25.2
240.933	20.6
241.149	16.51
241.365	18.61
241.581	21.51
241.797	22.7
242.013	22.69
242.229	23.07
242.445	20.38
242.661	19.37
242.877	17.91
243.093	22.66
243.309	26.09
243.525	31.64
243.741	35.6
243.957	35.59
244.173	33.09
244.388	33.08
244.604	28.48
244.82	28.63
245.036	26.16
245.252	23.33
245.468	21.37
245.683	19.04
245.899	15.93
246.115	13.45
246.331	12.45
246.547	14.06
246.762	12.41
246.978	12.75
247.194	12.59
247.409	11.07
247.625	11.85
247.841	12.62
248.057	14.27
248.272	15.83
248.488	14.7
248.703	13.79
248.919	13.17
249.135	15.86
249.35	18.33
249.566	17.36
249.782	21.63
249.997	21.03
250.213	21.09
250.428	18.47
250.644	18.54
250.859	20.99
251.075	19.79
251.29	14.54
251.506	12.96
251.721	12.22
251.937	10.08
252.152	9.28
252.368	7.78
252.583	7.36
252.798	7.39
253.014	5.31
253.229	6.77
253.445	13.04
253.66	21.14
253.875	19.58
254.091	17.82
254.306	20.95
254.521	12.11
254.737	12.76
254.952	6.33
255.167	7.74
255.383	7.88
255.598	10.08
255.813	4.59
256.028	-5.56
256.244	1.15
256.459	4.98
256.674	11.4
256.889	14.43
257.104	13.69
257.32	13.61
257.535	12.27
257.75	11.54
257.965	8.57
258.18	7.82
258.395	9.88
258.61	8.99
258.826	6.88
259.041	5.28
259.256	4.05
259.471	3.14
259.686	3.18
259.901	4.6
260.116	4.73
260.331	5.67
260.546	7.66
260.761	6.27
260.976	8.23
261.191	8.88
261.406	9.14
261.621	10.63
261.836	12.86
262.05	13.16
262.265	13.05
262.48	14.27
262.695	16.45
262.91	17.83
263.125	21.13
263.34	15.03
263.555	14.11
263.769	12.61
263.984	8
264.199	11.67
264.414	14.62
264.629	12.36
264.843	13.05
265.058	11.36
265.273	7.67
265.488	11.79
265.702	12.81
265.917	15.78
266.132	16.19
266.346	18.26
266.561	18.74
266.776	17.85
266.99	18.64
267.205	17.95
267.42	16.25
267.634	16.66
267.849	13.77
268.063	11.15
268.278	8.67
268.492	13.17
268.707	15.23
268.922	14.61
269.136	14.1
269.351	13.18
269.565	13.91
269.78	12.71
269.994	13.13
270.209	11.8
270.423	11.75
270.637	11.56
270.852	8.67
271.066	7.24
271.281	6.53
271.495	3.87
271.709	4.38
271.924	5.13
272.138	7.2
272.353	6.97
272.567	8.93
272.781	10.21
272.996	10.46
273.21	10.27
273.424	10.98
273.638	12.77
273.853	15.77
274.067	15.27
274.281	11.95
274.495	13.55
274.71	16.38
274.924	15.7
275.138	17.89
275.352	18.72
275.566	19.91
275.781	17.94
275.995	14.2
276.209	15.47
276.423	14.62
276.637	16.73
276.851	13.67
277.065	11.91
277.279	11.64
277.493	9.24
277.707	6.14
277.921	3.67
278.135	6.71
278.349	6.89
278.563	6.38
278.777	7.38
278.991	6.44
279.205	9.99
279.419	6.11
279.633	5.83
279.847	7.05
280.061	7.76
280.275	8.99
280.489	5.38
280.703	6.75
280.917	7.33
281.131	5.9
281.344	6.98
281.558	6.1
281.772	8.6
281.986	10.62
282.2	8.92
282.414	10.27
282.627	9.9
282.841	10.58
283.055	9.53
283.269	10.91
283.482	11.21
283.696	11.49
283.91	11.57
284.123	10.05
284.337	8.06
284.551	9.25
284.764	9.51
284.978	9.48
285.192	10.1
285.405	10.56
285.619	8.12
285.833	8.42
286.046	8.1
286.26	6.97
286.473	9.06
286.687	9.31
286.9	9.79
287.114	9.69
287.327	9.27
287.541	9.35
287.754	10.62
287.968	11.97
288.181	11.88
288.395	12.95
288.608	12.55
288.822	12.55
289.035	13.34
289.248	12.8
289.462	12.04
289.675	13.08
289.889	13.86
290.102	12.24
290.315	12.03
290.529	12.81
290.742	10.55
290.955	12.8
291.169	13.31
291.382	13.19
291.595	13.3
291.808	14.35
292.022	13.08
292.235	12.42
292.448	12.08
292.661	12.14
292.875	11.71
293.088	13.13
293.301	12.51
293.514	9.8
293.727	8.57
293.94	6.46
294.153	5.83
294.367	7.5
294.58	6.2
294.793	4.3
295.006	3.33
295.219	3.41
295.432	1.75
295.645	2.02
295.858	3.53
296.071	2.9
296.284	4.2
296.497	4.56
296.71	5.01
296.923	3.8
297.136	5.29
297.349	7.01
297.562	7.75
297.775	9.02
297.988	7.13
298.201	7.76
298.414	9.54
298.626	8.4
298.839	8.73
299.052	9.13
299.265	11.33
299.478	12.1
299.691	10.73
299.903	9.66
300.116	8.16
300.329	8.55
300.542	9.22
300.755	8.53
300.967	9.16
301.18	8.96
301.393	6.91
301.605	7.12
301.818	8.33
302.031	7.8
302.243	7.05
302.456	9.32
302.669	11.31
302.881	9.02
303.094	11.26
303.307	11.92
303.519	11.32
303.732	12.46
303.944	13.16
304.157	13.4
304.37	13.34
304.582	14.43
304.795	14.86
305.007	14.21
305.22	14.97
305.432	12.34
305.645	12.78
305.857	13.66
306.069	11.9
306.282	11.04
306.494	7.99
306.707	9.69
306.919	9.09
307.132	7.73
307.344	6.99
307.556	6.35
307.769	6.18
307.981	6.27
308.193	6.46
308.406	5.72
308.618	5.92
308.83	6.16
309.043	4.63
309.255	5.64
309.467	5.69
309.679	5.77
309.892	5.96
310.104	6.64
310.316	7.37
310.528	7.13
310.74	6.63
310.953	7.55
311.165	7.67
311.377	8.71
311.589	8.89
311.801	9.59
312.013	9.27
312.225	8.57
312.437	7.54
312.649	6.11
312.862	5.7
313.074	6.7
313.286	6.2
313.498	7.61
313.71	7.36
313.922	6.71
314.134	6.63
314.346	8.01
314.558	8.46
314.77	9.1
314.982	10.67
315.193	10.55
315.405	11
315.617	10.05
315.829	10.74
316.041	11.36
316.253	9.18
316.465	8.8
316.677	7.09
316.888	9.98
317.1	10.92
317.312	10.15
317.524	11.18
317.736	12.92
317.947	11.83
318.159	11.77
318.371	12.04
318.583	13.75
318.794	12.47
319.006	14.29
319.218	13.01
319.43	11.87
319.641	13.88
319.853	13.71
320.064	13.42
320.276	15.71
320.488	14
320.699	13.66
320.911	12.65
321.123	14.72
321.334	13.6
321.546	12.1
321.757	14.1
321.969	13.55
322.18	11.99
322.392	10.97
322.603	10.79
322.815	11.27
323.026	9.16
323.238	9.39
323.449	7.46
323.661	7.71
323.872	8.21
324.083	6.67
324.295	4.55
324.506	3.64
324.718	3.68
324.929	5
325.14	7.06
325.352	8.48
325.563	9.53
325.774	10.51
325.986	10.88
326.197	11.72
326.408	11.74
326.62	13.24
326.831	15.34
327.042	15.83
327.253	15.69
327.464	13.63
327.676	13.45
327.887	12.81
328.098	13.39
328.309	13.49
328.52	13.03
328.732	14.62
328.943	15.03
329.154	14.52
329.365	14.37
329.576	13.13
329.787	14.99
329.998	16.36
330.209	17.84
330.42	18.28
330.631	18.24
330.842	19.24
331.053	17.88
331.264	17.37
331.475	17.82
331.686	18.46
331.897	19.36
332.108	20.76
332.319	20.26
332.53	19.6
332.741	17.92
332.952	17.07
333.163	16.69
333.374	17.04
333.585	17.72
333.795	17.44
334.006	15.39
334.217	15.81
334.428	11.5
334.639	11.56
334.849	12.63
335.06	13.52
335.271	15.16
335.482	15.47
335.692	15.12
335.903	12.6
336.114	14.3
336.325	16.27
336.535	14.83
336.746	16.79
336.957	15.67
337.167	14.72
337.378	15.43
337.589	15.18
337.799	14.38
338.01	15.52
338.22	16.8
338.431	14.85
338.642	14.44
338.852	15.5
339.063	14.55
339.273	15.43
339.484	14.78
339.694	14.05
339.905	13.78
340.115	14.26
340.326	13.34
340.536	13.3
340.746	14.15
340.957	14.36
341.167	14.68
341.378	16.45
341.588	15.22
341.799	15.11
342.009	14.48
342.219	13.31
342.43	13.5
342.64	12.8
342.85	14.2
343.061	14.02
343.271	13.6
343.481	12.26
343.691	11.21
343.902	12.77
344.112	13.93
344.322	13.41
344.532	13.78
344.743	14.38
344.953	14.92
345.163	12.73
345.373	12.43
345.583	12.93
345.793	15.21
346.004	15.92
346.214	16.14
346.424	14.81
346.634	15.27
346.844	16.37
347.054	15.58
347.264	16.26
347.474	16.28
347.684	16.75
347.894	16.19
348.104	13.34
348.314	12.69
348.524	11.81
348.734	13.56
348.944	14.07
349.154	13.62
349.364	13.59
349.574	13.27
349.784	14.28
349.994	13.98
350.204	13.46
350.413	13.56
350.623	13.47
350.833	14.08
351.043	14.29
351.253	15.73
351.463	14.92
351.672	15.3
351.882	14.26
352.092	14.93
352.302	15.35
352.511	16.14
352.721	17.04
352.931	17.57
353.141	17.09
353.35	15.97
353.56	13.97
353.77	12.77
353.979	12.03
354.189	13.44
354.399	13.19
354.608	13.25
354.818	12.69
355.027	12.6
355.237	11.4
355.447	12.4
355.656	12.96
355.866	13.69
356.075	15.77
356.285	15.87
356.494	14.65
356.704	15.02
356.913	14.93
357.123	14.48
357.332	14.07
357.542	14.5
357.751	14.07
357.96	13.16
358.17	13.18
358.379	12.15
358.589	11.87
358.798	12.27
359.007	12.17
359.217	12.1
359.426	12.54
359.635	12.92
359.845	13.76
360.054	12.8
360.263	13.2
360.472	13.53
360.682	13.71
360.891	14.51
361.1	15.41
361.309	15.09
361.519	15.1
361.728	15.1
361.937	15.02
362.146	14.75
362.355	15.28
362.564	13.89
362.774	13.4
362.983	13.27
363.192	12.49
363.401	12.02
363.61	11.88
363.819	12
364.028	12.18
364.237	12.72
364.446	12.54
364.655	12.11
364.864	14.41
365.073	14.44
365.282	14.14
365.491	14.66
365.7	14.77
365.909	13.68
366.118	13.39
366.327	13.4
366.536	11.03
366.745	11.07
366.954	11.61
367.162	10.77
367.371	10.76
367.58	11.45
367.789	10.97
367.998	9.94
368.207	10.24
368.415	10.53
368.624	10.86
368.833	12.75
369.042	11.96
369.25	11.43
369.459	11.37
369.668	11.29
369.877	11.77
370.085	11.54
370.294	12.12
370.503	13.79
370.711	13.4
370.92	13.01
371.129	11.92
371.337	10.99
371.546	11.16
371.754	11.01
371.963	11.41
372.171	10.26
372.38	9.52
372.589	9.31
372.797	8
373.006	8.29
373.214	6.99
373.423	7.41
373.631	9.18
373.84	7.86
374.048	7.76
374.256	7.39
374.465	8.84
374.673	10.91
374.882	9.78
375.09	10.03
375.298	10.1
375.507	10.44
375.715	10.62
375.923	10.51
376.132	11.62
376.34	11.18
376.548	11.1
376.757	9.9
376.965	8.76
377.173	10.71
377.381	10.39
377.59	9.75
377.798	10.31
378.006	10.34
378.214	10.56
378.423	10.11
378.631	10.14
378.839	9.73
379.047	11.14
379.255	10.86
379.463	9.13
379.671	9.87
379.879	10.65
380.088	10.19
380.296	10.74
380.504	10.56
380.712	10.9
380.92	11.17
381.128	12.65
381.336	11.24
381.544	10.97
381.752	10.73
381.96	10.01
382.168	8.58
382.376	9.56
382.584	8.77
382.791	8.03
382.999	8.26
383.207	7.76
383.415	7.31
383.623	7.64
383.831	8.15
384.039	9.05
384.247	9.32
384.454	10.44
384.662	10.07
384.87	10.88
385.078	11.13
385.285	10.49
385.493	12.46
385.701	11.42
385.909	11.97
386.116	11.4
386.324	10.68
386.532	10.65
386.739	10.62
386.947	9.86
387.155	8.86
387.362	8.68
387.57	8.38
387.778	6.83
387.985	6
388.193	5.1
388.4	5.14
388.608	5.8
388.816	5.79
389.023	5.84
389.231	6.98
389.438	7.32
389.646	7.5
389.853	8.25
390.061	8.23
390.268	8.91
390.475	8.38
390.683	8.31
390.89	8.66
391.098	8.76
391.305	8
391.512	7.42
391.72	6.75
391.927	7.31
392.135	7.15
392.342	7.31
392.549	6.98
392.756	7.91
392.964	7.99
393.171	8.24
393.378	7.96
393.586	8.29
393.793	8.3
394	8.8
394.207	8.01
394.414	8.41
394.622	7.91
394.829	8.53
395.036	7.67
395.243	7.9
395.45	7.37
395.657	6.09
395.864	6.25
396.072	6.97
396.279	7.1
396.486	7.46
396.693	7.03
396.9	7.57
397.107	7.55
397.314	8.27
397.521	7.91
397.728	7.23
397.935	7.98
398.142	8.45
398.349	7.5
398.556	7.52
398.763	7.53
398.97	7.99
399.177	8.25
399.383	7.84
399.59	7.53
399.797	7.32
400.004	8.21
400.211	8.71
400.418	7.82
400.625	7.99
400.831	8.16
401.038	8.37
401.245	8.28
401.452	7.68
401.658	8.48
401.865	8.56
402.072	8.81
402.279	8.73
402.485	8.88
402.692	9.31
402.899	8.46
403.105	8.34
403.312	8.11
403.519	7.81
403.725	7.83
403.932	7.39
404.138	7.62
404.345	7.66
404.552	7.3
404.758	7.46
404.965	6.57
405.171	7.02
405.378	7.37
405.584	7.29
405.791	6.74
405.997	6.85
406.204	7.44
406.41	7.33
406.617	7.76
406.823	7.46
407.029	6.63
407.236	7.15
407.442	7.21
407.649	6.79
407.855	6.51
408.061	6.69
408.268	6.4
408.474	6
408.68	5.86
408.887	5.4
409.093	6.16
409.299	6.73
409.505	6.63
409.712	6.84
409.918	6.4
410.124	5.95
410.33	6.5
410.537	6.96
410.743	6.33
410.949	6.32
411.155	6.31
411.361	5.64
411.567	4.82
411.773	5.39
411.98	5.43
412.186	6.35
412.392	6.86
412.598	6.42
412.804	5.99
413.01	6.7
413.216	6.59
413.422	6.83
413.628	7.41
413.834	7.56
414.04	6.9
414.246	6.43
414.452	6.01
414.658	5.9
414.864	6.53
415.07	6.83
415.275	6.37
415.481	6.44
415.687	6.39
415.893	5.88
416.099	6.57
416.305	6.49
416.511	6.98
416.716	6.75
416.922	7.38
417.128	6.78
417.334	6.79
417.539	6.94
417.745	7.1
417.951	6.52
418.157	7.11
418.362	6.91
418.568	7.3
418.774	7.08
418.979	6.9
419.185	6.34
419.391	6.33
419.596	6.39
419.802	6.09
420.008	5.54
420.213	6.34
420.419	5.95
420.624	6.05
420.83	6.14
421.035	6.15
421.241	6.3
421.446	6.56
421.652	6.83
421.857	6.91
422.063	7.46
422.268	7.85
422.474	7.29
422.679	7.31
422.885	6.98
423.09	6.84
423.295	6.84
423.501	7.07
423.706	6.85
423.911	6.63
424.117	6.54
424.322	6.16
424.527	5.93
424.733	6.02
424.938	5.77
425.143	5.78
425.349	5.52
425.554	5.49
425.759	5.3
425.964	5.64
426.169	5.88
426.375	6
426.58	6.24
426.785	6.28
426.99	6.23
427.195	6.54
427.4	6.69
427.605	7.03
427.811	6.82
428.016	6.49
428.221	6.5
428.426	6.59
428.631	5.87
428.836	5.41
429.041	5.59
429.246	5.89
429.451	6.2
429.656	6.05
429.861	5.78
430.066	6.12
430.271	6.94
430.476	6.66
430.681	6.26
430.886	6.56
431.09	6.71
431.295	6.86
431.5	7.13
431.705	6.59
431.91	6.63
432.115	6.43
432.32	6.08
432.524	5.32
432.729	5.5
432.934	5.71
433.139	5.63
433.343	5.31
433.548	5.13
433.753	4.31
433.958	4.3
434.162	4.36
434.367	4.57
434.572	4.5
434.776	4.85
434.981	4.52
435.186	4.27
435.39	4.19
435.595	4.2
435.799	3.94
436.004	4.29
436.209	4.75
436.413	4.46
436.618	4.46
436.822	4.42
437.027	4.65
437.231	4.48
437.436	4.49
437.64	4.71
437.845	4.81
438.049	4.61
438.253	4.26
438.458	4.23
438.662	4.53
438.867	4.63
439.071	5.09
439.275	5.08
439.48	5.1
439.684	5.29
439.888	5.31
440.093	5.43
440.297	5.62
440.501	6.3
440.706	6.4
440.91	6.25
441.114	6.39
441.318	6.36
441.523	6.35
441.727	6.2
441.931	6.3
442.135	6.31
442.339	6.62
442.543	6.9
442.748	6.62
442.952	6.16
443.156	6
443.36	5.8
443.564	5.66
443.768	5.7
443.972	6.14
444.176	6.08
444.38	5.93
444.584	5.63
444.788	5.41
444.992	5.26
445.196	5.34
445.4	5.46
445.604	5.14
445.808	5.12
446.012	4.74
446.216	4.77
446.42	4.51
446.624	4.87
446.828	5.09
447.032	5.12
447.235	5.15
447.439	4.98
447.643	5.24
447.847	5.64
448.051	5.77
448.254	6.17
448.458	6.03
448.662	5.91
448.866	5.49
449.069	5.22
449.273	5.23
449.477	5.13
449.681	5.19
449.884	5
450.088	4.89
450.292	4.82
450.495	4.55
450.699	4.6
450.902	4.69
451.106	4.39
451.31	4.63
451.513	5.04
451.717	5.34
451.92	5.68
452.124	5.96
452.327	6.22
452.531	6.02
452.734	5.96
452.938	6.1
453.141	6.52
453.345	6.87
453.548	6.67
453.752	6.65
453.955	6.45
454.158	6.35
454.362	5.9
454.565	5.58
454.769	6
454.972	6.43
455.175	6.44
455.379	6.77
455.582	7.14
455.785	7.39
455.988	7.17
456.192	7.42
456.395	7.01
456.598	7.37
456.801	7.54
457.005	7.34
457.208	6.99
457.411	6.43
457.614	6.08
457.817	5.71
458.021	5.32
458.224	5.24
458.427	5.08
458.63	5.17
458.833	5.3
459.036	5.05
459.239	4.77
459.442	4.57
459.645	4.99
459.848	4.98
460.051	5.01
460.254	5.47
460.457	5.44
460.66	5.52
460.863	5.62
461.066	5.2
461.269	5.28
461.472	5.61
461.675	6.06
461.878	5.64
462.081	5.59
462.284	5.69
462.486	4.9
462.689	4.86
462.892	5.14
463.095	5.23
463.298	5.11
463.5	5.26
463.703	4.94
463.906	4.82
464.109	5.11
464.311	4.9
464.514	4.75
464.717	4.94
464.92	5.36
465.122	5.07
465.325	5.3
465.528	5.73
465.73	5.87
465.933	6.06
466.135	5.85
466.338	5.69
466.541	5.83
466.743	5.73
466.946	5.74
467.148	5.46
467.351	5.4
467.553	5.1
467.756	5.05
467.958	4.68
468.161	4.91
468.363	4.93
468.566	5.2
468.768	5.23
468.971	5.3
469.173	5.82
469.375	6.09
469.578	5.64
469.78	5.52
469.983	5.48
470.185	5.52
470.387	5.74
470.59	5.68
470.792	5.53
470.994	5.35
471.196	5.42
471.399	4.84
471.601	4.86
471.803	4.94
472.005	4.99
472.208	4.75
472.41	4.64
472.612	4.29
472.814	4.79
473.016	5.19
473.218	5.46
473.421	5.01
473.623	5.33
473.825	5.19
474.027	5.67
474.229	6.09
474.431	6.08
474.633	6.44
474.835	6.01
475.037	5.84
475.239	5.53
475.441	5.71
475.643	6.05
475.845	5.98
476.047	6.14
476.249	5.94
476.451	5.47
476.653	5.49
476.855	5.36
477.057	5.85
477.258	5.8
477.46	5.88
477.662	5.73
477.864	5.76
478.066	5.91
478.268	5.67
478.469	5.93
478.671	5.97
478.873	5.96
479.075	5.71
479.276	5.51
479.478	5.46
479.68	5.41
479.882	5.34
480.083	5.54
480.285	5.29
480.487	5.44
480.688	5.17
480.89	5.22
481.091	5.2
481.293	5.18
481.495	5.17
481.696	4.99
481.898	5.02
482.099	4.92
482.301	4.72
482.502	4.72
482.704	4.59
482.905	4.6
483.107	4.58
483.308	4.58
483.51	4.66
483.711	4.6
483.913	4.71
484.114	4.67
484.315	4.66
484.517	4.81
484.718	4.89
484.92	4.99
485.121	5.01
485.322	4.98
485.524	4.89
485.725	4.95
485.926	5.02
486.127	5
486.329	4.95
486.53	4.97
486.731	4.92
486.932	4.82
487.134	4.74
487.335	4.71
487.536	4.85
487.737	4.96
487.938	5.03
488.139	5.16
488.341	5.01
488.542	5.06
488.743	5.18
488.944	5.28
489.145	5.25
489.346	5.43
489.547	5.51
489.748	5.43
489.949	5.42
490.15	5.2
490.351	5.06
490.552	5.2
490.753	5.16
490.954	5.01
491.155	4.88
491.356	4.98
491.557	4.89
491.758	5.05
491.959	5.15
492.159	5.19
492.36	5.31
492.561	5.4
492.762	5.45
492.963	5.51
493.164	5.7
493.364	5.85
493.565	5.91
493.766	5.93
493.967	5.65
494.167	5.61
494.368	5.43
494.569	5.42
494.769	5.46
494.97	5.33
495.171	5.82
495.371	5.63
495.572	5.84
495.773	6.05
495.973	6.01
496.174	5.96
496.375	5.92
496.575	6.04
496.776	5.96
496.976	5.96
497.177	6.05
497.377	5.68
497.578	5.81
497.778	5.48
497.979	5.43
498.179	5.18
498.38	5.51
498.58	5.55
498.78	5.73
498.981	6.2
499.181	5.96
499.382	6.19
499.582	6.29
499.782	6.59
499.983	7.13
500.183	7.12
500.383	7.49
500.584	7.16
500.784	7.08
500.984	7.12
501.184	6.74
501.385	7.02
501.585	6.81
501.785	6.6
501.985	6.46
502.185	6.05
502.386	6.11
502.586	6.2
502.786	6.51
502.986	6.52
503.186	6.59
503.386	6.72
503.586	6.87
503.786	7.17
503.987	7.4
504.187	7.5
504.387	7.71
504.587	7.44
504.787	7.47
504.987	7.44
505.187	7.51
505.387	7.51
505.587	7.28
505.786	7.24
505.986	7.18
506.186	7.07
506.386	7.31
506.586	7.26
506.786	7.56
506.986	7.57
507.186	7.5
507.386	7.58
507.585	7.65
507.785	8.15
507.985	8.22
508.185	8.21
508.384	8.58
508.584	8.28
508.784	8.48
508.984	8.68
509.183	8.86
509.383	9.03
509.583	9.13
509.782	8.98
509.982	8.88
510.182	9.12
510.381	8.89
510.581	8.5
510.781	8.88
510.98	8.62
511.18	8.45
511.379	8.13
511.579	8.02
511.778	8.08
511.978	8.31
512.177	8.23
512.377	7.86
512.576	8.19
512.776	8.3
512.975	7.79
513.175	7.99
513.374	8.43
513.573	8.76
513.773	8.97
513.972	9.1
514.172	9.15
514.371	9.17
514.57	9.38
514.77	9.67
514.969	9.52
515.168	10.04
515.367	10.44
515.567	9.96
515.766	10.14
515.965	10.2
516.164	9.93
516.364	9.81
516.563	10.08
516.762	10.23
516.961	10.15
517.16	10.49
517.359	10.32
517.559	10
517.758	10.24
517.957	10.14
518.156	10.36
518.355	10.7
518.554	10.88
518.753	10.68
518.952	10.59
519.151	10.74
519.35	10.95
519.549	11.26
519.748	11.45
519.947	11.35
520.146	11.54
520.345	11.5
520.544	11.43
520.743	11.46
520.942	11.63
521.141	11.94
521.339	11.69
521.538	11.73
521.737	11.81
521.936	12.16
522.135	12.33
522.333	12.64
522.532	12.63
522.731	12.94
522.93	13.21
523.129	13.72
523.327	13.67
523.526	13.92
523.725	13.91
523.923	14.04
524.122	13.95
524.321	14.16
524.519	14.18
524.718	14.21
524.917	14.33
525.115	14.53
525.314	14.3
525.512	14.58
525.711	14.6
525.909	14.66
526.108	14.8
526.306	14.87
526.505	14.98
526.703	14.92
526.902	15.1
527.1	15.08
527.299	15.15
527.497	15.23
527.696	15.24
527.894	15.34
528.092	15.46
528.291	15.53
528.489	15.74
528.688	15.83
528.886	15.97
529.084	16.03
529.283	16.26
529.481	16.33
529.679	16.45
529.877	16.74
530.076	16.88
530.274	17.18
530.472	17.15
530.67	17.25
530.869	17.42
531.067	17.64
531.265	17.7
531.463	17.77
531.661	17.85
531.859	18.15
532.057	18.01
532.255	18.3
532.454	18.14
532.652	18.29
532.85	18.17
533.048	18.29
533.246	18.38
533.444	18.52
533.642	18.57
533.84	18.74
534.038	18.77
534.236	18.97
534.434	18.92
534.632	19.21
534.83	19.35
535.027	19.66
535.225	19.75
535.423	19.88
535.621	19.82
535.819	19.86
536.017	19.79
536.215	19.79
536.412	19.73
536.61	19.72
536.808	19.65
537.006	19.59
537.203	19.64
537.401	19.54
537.599	19.66
537.797	20.05
537.994	20.17
538.192	20.33
538.39	20.51
538.587	20.89
538.785	20.93
538.983	21.23
539.18	21.76
539.378	22.06
539.575	22.21
539.773	22.17
539.97	22.14
540.168	22.38
540.366	22.47
540.563	22.48
540.761	22.56
540.958	22.62
541.155	22.69
541.353	22.63
541.55	22.6
541.748	22.7
541.945	22.84
542.143	22.86
542.34	22.82
542.537	23
542.735	23.3
542.932	23.34
543.129	23.7
543.327	23.62
543.524	23.46
543.721	23.61
543.919	23.58
544.116	23.68
544.313	24.14
544.51	24.31
544.708	24.3
544.905	24.33
545.102	24.51
545.299	24.46
545.496	24.55
545.693	24.87
545.891	24.59
546.088	24.66
546.285	24.62
546.482	24.35
546.679	24.34
546.876	24.38
547.073	24.25
547.27	24.32
547.467	24.41
547.664	24.72
547.861	24.82
548.058	25.34
548.255	25.58
548.452	25.69
548.649	26.03
548.846	26.34
549.043	26.38
549.24	26.62
549.437	26.42
549.633	26.69
549.83	26.55
550.027	26.52
550.224	26.3
550.421	26.37
550.618	26.61
550.814	26.62
551.011	26.47
551.208	26.57
551.405	26.69
551.601	26.99
551.798	26.76
551.995	27.07
552.191	27.26
552.388	27.59
552.585	27.83
552.781	27.53
552.978	27.78
553.175	27.65
553.371	27.47
553.568	27.31
553.764	27.45
553.961	27.44
554.157	27.05
554.354	26.86
554.55	26.67
554.747	26.44
554.943	27.18
555.14	26.98
555.336	27
555.533	27.16
555.729	27.26
555.926	27.05
556.122	27.68
556.318	28.23
556.515	28.65
556.711	29.13
556.907	28.92
557.104	28.57
557.3	28.54
557.496	28.76
557.693	29
557.889	29.27
558.085	28.86
558.281	28.93
558.478	28.53
558.674	28.7
558.87	28.37
559.066	28.37
559.262	28.16
559.459	28.19
559.655	28.48
559.851	28.19
560.047	28.07
560.243	28.48
560.439	28.21
560.635	28.45
560.831	28.47
561.027	28.71
561.223	29.14
561.419	29.48
561.615	29.67
561.811	29.45
562.007	29.48
562.203	29.59
562.399	30.11
562.595	30.11
562.791	30.64
562.987	30.1
563.183	29.53
563.379	29.63
563.575	29.88
563.771	30.04
563.966	30.25
564.162	30.42
564.358	30.69
564.554	30.25
564.75	30.43
564.945	29.81
565.141	30.2
565.337	30.42
565.533	30.51
565.728	30.55
565.924	30.6
566.12	30.53
566.315	30.56
566.511	30.23
566.707	30.39
566.902	30.69
567.098	30.95
567.293	31.02
567.489	30.99
567.684	30.73
567.88	30.56
568.076	30.49
568.271	30.87
568.467	30.91
568.662	31.17
568.858	31.36
569.053	30.91
569.248	30.9
569.444	30.58
569.639	30.86
569.835	31.19
570.03	31.2
570.225	31.24
570.421	31.38
570.616	31.51
570.812	31.41
571.007	31.2
571.202	31.36
571.397	31.5
571.593	31.6
571.788	31.8
571.983	31.79
572.178	31.98
572.374	32
572.569	31.49
572.764	31.49
572.959	31.8
573.154	31.81
573.35	31.79
573.545	31.88
573.74	31.81
573.935	31.58
574.13	31.67
574.325	31.63
574.52	31.55
574.715	31.99
574.91	32.36
575.105	32.12
575.3	32.13
575.495	32.11
575.69	32.26
575.885	32.18
576.08	32.03
576.275	32.11
576.47	32.68
576.665	33.12
576.86	32.83
577.055	32.75
577.25	32.34
577.444	32.84
577.639	32.83
577.834	32.88
578.029	33.7
578.224	34.14
578.418	33.99
578.613	33.55
578.808	33.28
579.003	33.39
579.197	33.23
579.392	33.89
579.587	33.9
579.781	33.97
579.976	34.02
580.171	34.08
580.365	33.81
580.56	33.17
580.755	33.13
580.949	32.93
581.144	32.54
581.338	32.22
581.533	31.93
581.727	32.07
581.922	32.21
582.116	31.97
582.311	31.08
582.505	31.25
582.7	31.92
582.894	32.06
583.089	32.21
583.283	32.83
583.478	33.33
583.672	34.08
583.866	33.7
584.061	33.53
584.255	33.48
584.449	34.27
584.644	34.23
584.838	34.54
585.032	34.12
585.226	33.64
585.421	33.73
585.615	33.98
585.809	33.49
586.003	33.79
586.198	34.2
586.392	34.43
586.586	34.64
586.78	34.9
586.974	34.49
587.168	34.55
587.363	35.2
587.557	35.07
587.751	34.64
587.945	34.94
588.139	34.99
588.333	34.93
588.527	35.01
588.721	34.43
588.915	34.26
589.109	34.17
589.303	34.62
589.497	34.87
589.691	34.76
589.885	34.6
590.079	34.08
590.273	33.83
590.466	34.12
590.66	34.28
590.854	34.82
591.048	35.22
591.242	35.55
591.436	35.26
591.629	34.84
591.823	34.73
592.017	35.01
592.211	35.83
592.404	35.83
592.598	35.57
592.792	35.19
592.986	35.24
593.179	35.27
593.373	35.46
593.567	35.53
593.76	35.71
593.954	36.05
594.147	36.07
594.341	35.57
594.535	35.85
594.728	35.4
594.922	35.61
595.115	35.35
595.309	35.17
595.502	35.49
595.696	35.72
595.889	35.66
596.083	35.42
596.276	35.64
596.47	35.96
596.663	35.85
596.856	36.27
597.05	36.47
597.243	36.78
597.437	37.32
597.63	36.74
597.823	36.5
598.017	36.64
598.21	36.55
598.403	36.65
598.596	36.63
598.79	37.12
598.983	37.17
599.176	36.2
599.369	35.67
599.563	34.67
599.756	34.63
599.949	34.77
600.142	35.07
600.335	35.8
600.528	35.49
600.722	35.45
600.915	35.33
601.108	35.67
601.301	36.77
601.494	37.47
601.687	38.02
601.88	38.18
602.073	38
602.266	38.1
602.459	37.71
602.652	37.45
602.845	37.1
603.038	36.95
603.231	36.92
603.424	36.48
603.617	35.85
603.809	35.73
604.002	35.41
604.195	35.1
604.388	34.56
604.581	34.79
604.774	34.98
604.966	35.27
605.159	34.89
605.352	34.91
605.545	34.85
605.737	35.17
605.93	35.76
606.123	35.81
606.316	36.29
606.508	36.78
606.701	36.67
606.894	36.64
607.086	37.01
607.279	37.48
607.471	37.57
607.664	37.57
607.857	37.3
608.049	36.96
608.242	37.3
608.434	37.44
608.627	37.39
608.819	37.19
609.012	37.32
609.204	36.88
609.397	36.79
609.589	36.7
609.782	37.04
609.974	36.93
610.166	36.54
610.359	36.58
610.551	36.72
610.743	36.51
610.936	37.02
611.128	37.82
611.32	38.23
611.513	38.62
611.705	38.56
611.897	39.48
612.09	39.76
612.282	40.09
612.474	40.45
612.666	41.25
612.858	41.82
613.051	41.24
613.243	40.26
613.435	40.56
613.627	40.25
613.819	40.11
614.011	38.71
614.203	39.1
614.395	38.81
614.588	38.52
614.78	37.83
614.972	38.17
615.164	38.78
615.356	39.47
615.548	39.41
615.74	39.24
615.932	39.46
616.124	39.83
616.315	40.34
616.507	41.53
616.699	41.71
616.891	41.75
617.083	41.06
617.275	41.18
617.467	40.53
617.659	40.09
617.85	40.55
618.042	40.72
618.234	39.86
618.426	39.29
618.618	37.95
618.809	37.66
619.001	37.41
619.193	38.1
619.384	38.01
619.576	38.42
619.768	38.66
619.959	38.63
620.151	38.58
620.343	39.65
620.534	39.47
620.726	40.57
620.917	40.95
621.109	40.81
621.301	39.87
621.492	39.74
621.684	39.01
621.875	39.03
622.067	38.45
622.258	38.67
622.45	38.91
622.641	38.83
622.832	38.87
623.024	38.45
623.215	38.59
623.407	38.81
623.598	38.55
623.789	39.36
623.981	39.04
624.172	39.28
624.363	38.35
624.555	38.18
624.746	38.09
624.937	37.86
625.129	38.08
625.32	38.1
625.511	38.53
625.702	38.46
625.893	38.69
626.085	38.98
626.276	39.23
626.467	39.89
626.658	39.68
626.849	40.2
627.04	40.65
627.231	40.51
627.422	40.32
627.614	40.28
627.805	40.41
627.996	40.46
628.187	40.71
628.378	40.87
628.569	40.83
628.76	40.88
628.951	40.47
629.142	39.92
629.332	39.48
629.523	39.64
629.714	39.61
629.905	39.99
630.096	39.57
630.287	39.28
630.478	39
630.669	38.56
630.859	38
631.05	37.99
631.241	37.35
631.432	37.45
631.623	37.84
631.813	37.8
632.004	37.91
632.195	37.2
632.385	37.39
632.576	37.33
632.767	37.79
632.957	38.8
633.148	39.17
633.339	39.36
633.529	40.32
633.72	39.89
633.91	39.65
634.101	39.43
634.292	40.48
634.482	40.2
634.673	40.64
634.863	40.46
635.054	39.87
635.244	40.13
635.435	40.24
635.625	39.88
635.815	40.08
636.006	40.47
636.196	40.63
636.387	39.99
636.577	40.27
636.767	39.93
636.958	39.31
637.148	40.47
637.338	40.52
637.529	40.85
637.719	40.41
637.909	40.37
638.099	40.93
638.29	40.13
638.48	40.75
638.67	41.06
638.86	41.21
639.05	42.05
639.241	41.45
639.431	40.82
639.621	40.85
639.811	41.41
640.001	41.54
640.191	40.68
640.381	41.61
640.571	40.98
640.761	41.31
640.951	41.12
641.141	40.8
641.331	41.1
641.521	41.49
641.711	41.75
641.901	42.19
642.091	42.78
642.281	41.9
642.471	41.57
642.661	42.8
642.851	42.04
643.041	42.24
643.231	42.04
643.42	41.52
643.61	41.5
643.8	41.08
643.99	40.25
644.18	40.37
644.369	41.48
644.559	41.35
644.749	40.34
644.939	40.88
645.128	40.99
645.318	41.6
645.508	41.88
645.697	41.41
645.887	42.37
646.076	42.67
646.266	42.41
646.456	41.93
646.645	42.31
646.835	42.46
647.024	41.54
647.214	41.07
647.403	40.98
647.593	40.93
647.782	41.14
647.972	40.38
648.161	40.51
648.351	39.92
648.54	41.42
648.73	41.3
648.919	41.86
649.108	41.75
649.298	42.56
649.487	43.37
649.677	43.37
649.866	44.07
650.055	43.89
650.244	43.95
650.434	44.57
650.623	43.34
650.812	43.14
651.002	42.74
651.191	43.65
651.38	43.05
651.569	42.28
651.758	42.12
651.947	41.81
652.137	41.92
652.326	41.59
652.515	41.13
652.704	41.17
652.893	40.82
653.082	41.72
653.271	42.29
653.46	41.84
653.649	41.23
653.838	40.67
654.027	40.52
654.216	40.46
654.405	40.92
654.594	41.56
654.783	41.63
654.972	42.17
655.161	41.14
655.35	40.49
655.539	41.31
655.728	41.55
655.916	41.26
656.105	41.59
656.294	42.29
656.483	42.06
656.672	41.57
656.86	41.11
657.049	41.9
657.238	41.51
657.427	41.17
657.615	40.42
657.804	41.32
657.993	41.79
658.181	41.86
658.37	41.15
658.559	40.53
658.747	40.54
658.936	40.9
659.125	40.7
659.313	41.07
659.502	41.3
659.69	41.59
659.879	41.4
660.067	41.7
660.256	41.21
660.444	42.06
660.633	43.08
660.821	43.73
661.01	43.62
661.198	43.23
661.387	43.76
661.575	44.13
661.763	45.27
661.952	44.54
662.14	44.2
662.328	44.54
662.517	44.37
662.705	44.25
662.893	43.72
663.082	44.3
663.27	44.14
663.458	43.95
663.646	43.64
663.834	41.84
664.023	42.27
664.211	42.56
664.399	43.43
664.587	43.42
664.775	43.23
664.963	43.48
665.152	43.9
665.34	43.8
665.528	43.83
665.716	43.87
665.904	45.05
666.092	45.29
666.28	45.88
666.468	44
666.656	44.05
666.844	44.33
667.032	44.33
667.22	44.96
667.408	45.58
667.596	45.66
667.784	45.8
667.971	46.72
668.159	45.99
668.347	45.22
668.535	46.13
668.723	45.46
668.911	44.86
669.098	44.15
669.286	43.65
669.474	43.59
669.662	43.81
669.849	42.41
670.037	41.85
670.225	42.14
670.413	41.99
670.6	42.12
670.788	42.55
670.976	43.03
671.163	43.17
671.351	42.34
671.538	42.15
671.726	42.4
671.913	43.64
672.101	42.98
672.289	43.62
672.476	45.1
672.664	45.55
672.851	45.42
673.039	45.81
673.226	46.06
673.413	46.42
673.601	46.51
673.788	45.54
673.976	45.45
674.163	46.52
674.35	45.93
674.538	45.18
674.725	45.48
674.912	44.88
675.1	44.61
675.287	45.53
675.474	45.03
675.662	45.2
675.849	45.34
676.036	45.04
676.223	44
676.411	43.48
676.598	42.63
676.785	42.36
676.972	43.49
677.159	43.58
677.346	42.3
677.533	42.97
677.721	42.55
677.908	42.98
678.095	43.53
678.282	43.42
678.469	43.12
678.656	43.54
678.843	43.08
679.03	43.07
679.217	43.03
679.404	42.95
679.591	43.09
679.778	43.55
679.964	42.9
680.151	42.96
680.338	43.51
680.525	43.87
680.712	43.66
680.899	43.8
681.086	43.63
681.272	44.18
681.459	44.77
681.646	44.21
681.833	43.83
682.02	44.4
682.206	44.3
682.393	44.32
682.58	44.99
682.766	48.29
682.953	49
683.14	48.8
683.326	48.42
683.513	49.09
683.7	49.54
683.886	50.4
684.073	50.72
684.259	50.47
684.446	50.05
684.632	49.28
684.819	45.47
685.005	44.56
685.192	44.24
685.378	44.7
685.565	45.28
685.751	44.61
685.938	42.79
686.124	41.19
686.31	40.61
686.497	40.32
686.683	40.94
686.87	41.96
687.056	42.9
687.242	43.03
687.429	43.23
687.615	42.26
687.801	43.48
687.987	44.9
688.174	46.4
688.36	47.12
688.546	47.82
688.732	47.93
688.918	46.86
689.105	46.15
689.291	46.43
689.477	45.95
689.663	46.33
689.849	46.34
690.035	46.1
690.221	46.06
690.407	46.25
690.593	46.08
690.779	46.21
690.965	47.12
691.151	47.41
691.337	47.87
691.523	47.19
691.709	47.27
691.895	46.29
692.081	46.48
692.267	46.74
692.453	46.67
692.639	47.52
692.825	47.16
693.011	46.57
693.196	47.25
693.382	47.63
693.568	48.31
693.754	48.86
693.94	49.82
694.125	49.85
694.311	49.71
694.497	50.44
694.682	50.15
694.868	50
695.054	49.83
695.239	49.77
695.425	48.75
695.611	47.81
695.796	47.22
695.982	46
696.168	46.33
696.353	45.5
696.539	44.54
696.724	42.93
696.91	43.21
697.095	43.68
697.281	43.45
697.466	43.78
697.652	43.96
697.837	42.87
698.023	43.31
698.208	43.78
698.393	43.41
698.579	43.81
698.764	44.56
698.949	44.35
699.135	44.46
699.32	44.06
699.505	43.56
699.691	44.04
699.876	44.95
700.061	45.27
700.246	44.62
700.432	46.19
700.617	45.89
700.802	46.07
700.987	46.69
701.172	48.17
701.358	48.47
701.543	49.47
701.728	50.32
701.913	50.67
702.098	50.94
702.283	50.11
702.468	49.55
702.653	49.86
702.838	50.28
703.023	50.31
703.208	48.43
703.393	48.65
703.578	48.81
703.763	47.96
703.948	48.55
704.133	48.37
704.318	50.28
704.503	51.45
704.688	52.73
704.873	52.55
705.057	52.92
705.242	53.35
705.427	52.89
705.612	51.48
705.797	51.81
705.981	51.75
706.166	51.37
706.351	49.71
706.536	49.56
706.72	48.89
706.905	48.46
707.09	47.74
707.274	47.33
707.459	47.79
707.644	48.63
707.828	48
708.013	47.21
708.197	47.14
708.382	46.67
708.567	46.41
708.751	47.62
708.936	48.11
709.12	48.28
709.305	48.74
709.489	46.99
709.673	46.62
709.858	45.92
710.042	46.56
710.227	47.68
710.411	48.89
710.596	48.52
710.78	47.12
710.964	47.48
711.149	47.78
711.333	47.43
711.517	47.47
711.702	47.56
711.886	49.02
712.07	48.57
712.254	47.02
712.438	47.28
712.623	45.96
712.807	46
712.991	45.77
713.175	45.05
713.359	45.94
713.544	46.18
713.728	46.85
713.912	45.81
714.096	46.54
714.28	46.99
714.464	46.97
714.648	48.65
714.832	48.92
715.016	49.34
715.2	50.28
715.384	49.59
715.568	50.47
715.752	49.1
715.936	49.54
716.12	49.05
716.304	49.06
716.488	49.04
716.671	49.7
716.855	50.52
717.039	49.81
717.223	49.35
717.407	51.15
717.59	49.62
717.774	52.47
717.958	53.44
718.142	54.68
718.325	53.8
718.509	54.39
718.693	54.46
718.877	53.8
719.06	56.25
719.244	54.74
719.428	54.23
719.611	55.18
719.795	53.37
719.978	54.62
720.162	54.18
720.345	57.28
720.529	58.01
720.713	57.34
720.896	57.41
721.08	56.91
721.263	59.09
721.446	58.79
721.63	59.72
721.813	60.58
721.997	58.43
722.18	57.17
722.364	56.89
722.547	56.2
722.73	57.52
722.914	57.78
723.097	56.5
723.28	55.01
723.464	54.81
723.647	56.07
723.83	56.26
724.013	58.61
724.197	59.25
724.38	58.3
724.563	56.92
724.746	55.21
724.929	54.02
725.112	54.53
725.296	54.32
725.479	53.98
725.662	53.09
725.845	51.85
726.028	50.08
726.211	49.39
726.394	49.66
726.577	48.74
726.76	47.2
726.943	47.18
727.126	46.76
727.309	47.5
727.492	47.92
727.675	47.06
727.858	47.69
728.041	46.79
728.224	47.28
728.407	45.61
728.589	44.58
728.772	45.83
728.955	46.63
729.138	46.97
729.321	48.02
729.503	48.41
729.686	49.1
729.869	48.27
730.052	50.12
730.234	50.31
730.417	51.98
730.6	53.68
730.782	53.8
730.965	54.23
731.148	54.2
731.33	53.43
731.513	52.32
731.695	52.2
731.878	52.93
732.061	53.01
732.243	52.58
732.426	50.93
732.608	51.19
732.791	51.52
732.973	49.44
733.156	50.15
733.338	50.68
733.52	51.51
733.703	52.13
733.885	53.84
734.068	52.9
734.25	55.07
734.432	57.68
734.615	58.3
734.797	58.64
734.979	60.83
735.162	60.37
735.344	59.98
735.526	59.95
735.708	61.16
735.891	59.21
736.073	60.91
736.255	59.36
736.437	59.56
736.619	57.6
736.802	57.14
736.984	57.82
737.166	56.84
737.348	56.24
737.53	56.22
737.712	53.4
737.894	55.1
738.076	52.57
738.258	52.38
738.44	51.28
738.622	52.36
738.804	54.51
738.986	52.89
739.168	52.8
739.35	54.25
739.532	54.05
739.714	57.28
739.896	56.23
740.078	56.63
740.259	55.48
740.441	55.31
740.623	57.46
740.805	55.29
740.987	56.01
741.168	57.57
741.35	58.61
741.532	58.61
741.714	57.87
741.895	57.87
742.077	58.82
742.259	60.5
742.44	59.81
742.622	58.24
742.804	58.29
742.985	58.33
743.167	56.98
743.348	53.94
743.53	55.95
743.711	55.5
743.893	54.59
744.075	55.21
744.256	54.61
744.438	55.25
744.619	54.64
744.8	54.98
744.982	56.97
745.163	57.65
745.345	58.49
745.526	55.91
745.707	56.63
745.889	57.16
746.07	58.68
746.252	61.42
746.433	62.02
746.614	63.21
746.795	64.22
746.977	64.68
747.158	64.3
747.339	66.69
747.52	66.46
747.702	67.6
747.883	67.22
748.064	66.57
748.245	65.02
748.426	66.15
748.607	65.74
748.788	64.86
748.97	61.86
749.151	60.99
749.332	61.96
749.513	63.39
749.694	62.53
749.875	64.48
750.056	61.52
750.237	61.81
750.418	61.43
750.599	60.95
750.78	60.06
750.96	60.07
751.141	61.47
751.322	58.55
751.503	57.82
751.684	56.92
751.865	54.07
752.046	56.62
752.226	55.29
752.407	54.24
752.588	56.73
752.769	58.15
752.949	61.43
753.13	59.75
753.311	58.38
753.492	58.07
753.672	57.73
753.853	59.2
754.034	59.15
754.214	60.54
754.395	59.52
754.575	56.59
754.756	56.29
754.937	54.93
755.117	58.02
755.298	60.6
755.478	60.41
755.659	61.84
755.839	62.03
756.02	60.01
756.2	58.04
756.381	59.81
756.561	61.89
756.741	62.74
756.922	62.56
757.102	61.72
757.283	58.42
757.463	62.09
757.643	60.67
757.823	59.53
758.004	59.49
758.184	61.13
758.364	60.38
758.545	59.9
758.725	58.28
758.905	57.79
759.085	56.91
759.265	59.06
759.446	56.97
759.626	58.72
759.806	61.93
759.986	62.55
760.166	61.51
760.346	61.04
760.526	60.53
760.706	61.3
760.886	61.36
761.066	62.11
761.246	59.66
761.426	56.83
761.606	54.35
761.786	50.97
761.966	51.67
762.146	49.74
762.326	49.24
762.506	48.13
762.686	45.88
762.866	44.63
763.046	44.05
763.225	44.17
763.405	45.02
763.585	45.13
763.765	46.12
763.945	45.93
764.124	47.46
764.304	49.22
764.484	50.83
764.664	51.55
764.843	51.31
765.023	52.56
765.203	52.49
765.382	54.79
765.562	57.9
765.741	58.99
765.921	57.68
766.101	60.53
766.28	61.62
766.46	61.6
766.639	62.35
766.819	63.81
766.998	64.56
767.178	66.39
767.357	63.49
767.537	59.62
767.716	61.17
767.896	62.52
768.075	60.96
768.254	59.39
768.434	58.22
768.613	59.67
768.792	60.71
768.972	58.37
769.151	59.52
769.33	62.07
769.51	64.78
769.689	63.75
769.868	63.08
770.047	64.08
770.226	66.15
770.406	69.07
770.585	71.1
770.764	69.93
770.943	69.72
771.122	69.31
771.301	67.89
771.48	69.15
771.66	69.13
771.839	67.69
772.018	68.09
772.197	67.37
772.376	65.5
772.555	61.84
772.734	63.28
772.913	65.52
773.092	65.94
773.271	66.31
773.449	68.08
773.628	65.57
773.807	71.9
773.986	73.63
774.165	71.19
774.344	70.8
774.523	73.44
774.701	76.88
774.88	76.9
775.059	77.52
775.238	80.12
775.417	77.75
775.595	81.01
775.774	77.47
775.953	72.48
776.131	75.65
776.31	75
776.489	74.41
776.667	71.31
776.846	73.02
777.025	75.16
777.203	74.45
777.382	73.07
777.56	72.18
777.739	70
777.917	72.26
778.096	71.42
778.274	73.44
778.453	74.1
778.631	71.13
778.81	67.07
778.988	67.16
779.166	65.89
779.345	64.1
779.523	65.44
779.702	68.44
779.88	67.57
780.058	63.81
780.237	59.86
780.415	59.37
780.593	59.6
780.771	58.68
780.95	55.42
781.128	58.51
781.306	59.61
781.484	57.83
781.662	60.27
781.841	58.63
782.019	62.49
782.197	67.29
782.375	71.31
782.553	73.57
782.731	79.3
782.909	77.41
783.087	74.94
783.265	76.84
783.443	77.02
783.621	74.29
783.799	77.9
783.977	78.72
784.155	76.44
784.333	75.2
784.511	77.59
784.689	75.08
784.867	75.83
785.045	76.98
785.223	74.21
785.4	73.34
785.578	73.66
785.756	73.32
785.934	70.57
786.112	72.36
786.289	72.33
786.467	66.22
786.645	69.25
786.823	67.8
787	62.46
787.178	63.53
787.356	65.04
787.533	62.93
787.711	60.43
787.889	60.17
788.066	58.15
788.244	56.28
788.421	60.38
788.599	57.84
788.776	58.61
788.954	64.32
789.131	62.9
789.309	63.96
789.486	63.08
789.664	64.4
789.841	66.38
790.019	66.23
790.196	71.34
790.373	73.48
790.551	75.31
790.728	77.94
790.906	76.03
791.083	74.87
791.26	71.78
791.437	76.47
791.615	82.18
791.792	81.63
791.969	81.87
792.146	76.32
792.324	71.61
792.501	71.22
792.678	74.35
792.855	68.7
793.032	72.72
793.209	74.48
793.387	75.51
793.564	73.04
793.741	74.58
793.918	72.73
794.095	77.81
794.272	75.86
794.449	71.72
794.626	68.66
794.803	75.48
794.98	72.32
795.157	72.65
795.334	70.84
795.511	70.48
795.688	64.87
795.864	63.09
796.041	61.8
796.218	64.02
796.395	68.06
796.572	69
796.749	68.4
796.925	70.87
797.102	69.23
797.279	67.62
797.456	67.19
797.632	68.22
797.809	72.54
797.986	68.9
798.162	70.64
798.339	70.79
798.516	71.2
798.692	70.74
798.869	71.01
799.046	73.35
799.222	74.51
799.399	70.08
799.575	71.27
799.752	70.84
799.928	72.9
800.105	73.2
800.281	68.07
800.458	68.2
800.634	66.28
800.811	62.96
800.987	57.67
801.163	56.94
801.34	61.97
801.516	60.36
801.692	60.3
801.869	63.95
802.045	64.82
802.221	70.69
802.398	73.58
802.574	77.37
802.75	77.35
802.926	79.89
803.103	85.74
803.279	83.24
803.455	86.53
803.631	85.82
803.807	81.54
803.983	79.24
804.16	75.08
804.336	69.43
804.512	65.56
804.688	68.86
804.864	68.33
805.04	62.09
805.216	60.91
805.392	62.05
805.568	61.21
805.744	61.6
805.92	60.78
806.096	61.51
806.272	68.92
806.448	67.97
806.623	65.09
806.799	65.57
806.975	67.61
807.151	72.28
807.327	69.62
807.503	70.48
807.678	63.98
807.854	67.74
808.03	70.4
808.206	67.42
808.381	69.89
808.557	70.59
808.733	70.8
808.908	71.88
809.084	70.53
809.26	72.77
809.435	75.14
809.611	84.24
809.787	82.11
809.962	80.86
810.138	81.48
810.313	79.47
810.489	87.56
810.664	89.75
810.84	93.14
811.015	93.94
811.191	90.78
811.366	88.89
811.542	96.56
811.717	96.29
811.892	98.38
812.068	96.74
812.243	100.98
812.419	96.19
812.594	98.84
812.769	101.69
812.944	106.94
813.12	111.49
813.295	109.66
813.47	100.52
813.645	99.52
813.821	95.31
813.996	90.02
814.171	87.43
814.346	85.2
814.521	81.86
814.697	80.42
814.872	79.75
815.047	79.07
815.222	78.31
815.397	74.8
815.572	72.65
815.747	76.64
815.922	80.42
816.097	79.54
816.272	74.33
816.447	76.44
816.622	71.57
816.797	72.11
816.972	69.48
817.147	70.5
817.322	75.73
817.496	72.97
817.671	74.52
817.846	76.87
818.021	76.53
818.196	83.73
818.371	80.24
818.545	78.93
818.72	74.94
818.895	76.19
819.069	75.24
819.244	70.21
819.419	68
819.594	61.66
819.768	55.26
819.943	53.48
820.117	47.52
820.292	46.39
820.467	44.98
820.641	44
820.816	42.84
820.99	42.35
821.165	40.97
821.339	40.5
821.514	39.22
821.688	39.26
821.863	38.08
822.037	38.54
822.212	38.4
822.386	38.96
822.56	37.95
822.735	38.17
822.909	38.15
823.084	37.46
823.258	38.03
823.432	39.2
823.606	39.57
823.781	40.35
823.955	40.26
824.129	39.89
824.303	38.97
824.478	39.79
824.652	40.06
824.826	38.98
825	40.46
825.174	39.65
825.348	39.43
825.523	39.03
825.697	39.65
825.871	40.39
826.045	40.28
826.219	41.74
826.393	41.91
826.567	40.26
826.741	41.13
826.915	39.4
827.089	40.56
827.263	39.48
827.437	40.33
827.611	40.07
827.784	40.31
827.958	42.17
828.132	40.86
828.306	42.46
828.48	45.8
828.654	46.89
828.827	50.46
829.001	51.37
829.175	52.76
829.349	54.4
829.522	54.61
829.696	56.8
829.87	57.18
830.044	59.62
830.217	58.46
830.391	59.07
830.565	60.35
830.738	58.59
830.912	60.74
831.085	63.9
831.259	63.27
831.432	66.19
831.606	61.74
831.779	62.71
831.953	59.74
832.126	61.24
832.3	59.72
832.473	58.52
832.647	57.86
832.82	57.31
832.994	55.59
833.167	53.78
833.34	51.95
833.514	50.3
833.687	50.42
833.86	52.36
834.034	51.01
834.207	50.46
834.38	49.61
834.553	48.53
834.727	48.34
834.9	49.57
835.073	50.2
835.246	50.09
835.419	53.51
835.593	48.29
835.766	45.18
835.939	46.27
836.112	47.01
836.285	49.68
836.458	54.04
836.631	54.06
836.804	56.94
836.977	63.05
837.15	63.56
837.323	66.4
837.496	75.04
837.669	84.17
837.842	83.77
838.015	91.77
838.188	87.53
838.361	85.56
838.533	86.74
838.706	82.68
838.879	76.36
839.052	74.09
839.225	69.46
839.398	71.34
839.57	68.42
839.743	69.71
839.916	65.59
840.088	65.57
840.261	69.25
840.434	65.09
840.607	66.45
840.779	75.3
840.952	85.29
841.124	96.57
841.297	97.23
841.47	105.46
841.642	105.09
841.815	98.29
841.987	103.32
842.16	98.81
842.332	100.89
842.505	106.13
842.677	97.88
842.85	99.62
843.022	95.55
843.194	87.37
843.367	86.23
843.539	89.31
843.712	99.95
843.884	103.32
844.056	100.33
844.229	100.92
844.401	99.87
844.573	111.67
844.745	101.57
844.918	109.29
845.09	115.48
845.262	120.19
845.434	123.85
845.606	125.31
845.779	132.4
845.951	127.3
846.123	136.53
846.295	140.58
846.467	158.5
846.639	160.09
846.811	177.22
846.983	185.35
847.155	175.62
847.327	170.96
847.499	177.06
847.671	176.14
847.843	170.32
848.015	164.91
848.187	142.86
848.359	135.44
848.531	149.81
848.703	132.75
848.875	143.15
849.047	138.51
849.218	132.75
849.39	120.35
849.562	125.17
849.734	159.96
849.905	155.99
850.077	193.79
850.249	178.41
850.421	159.43
850.592	161.51
850.764	143.26
850.936	138.96
851.107	136.84
851.279	144.23
851.451	123.84
851.622	117.02
851.794	118.02
851.965	114.42
852.137	107.94
852.308	103.23
852.48	103.7
852.651	117.69
852.823	120.98
852.994	123.11
853.166	127.46
853.337	146.98
853.509	161.46
853.68	155.35
853.851	154.5
854.023	153.02
854.194	140.15
854.365	144.6
854.537	126.61
854.708	146.82
854.879	134.92
855.05	141.54
855.222	115.12
855.393	103.84
855.564	108.27
855.735	114.64
855.906	118.01
856.078	127.92
856.249	111.11
856.42	108.5
856.591	100.57
856.762	105.62
856.933	90.95
857.104	89
857.275	82.97
857.446	82.17
857.617	72.04
857.788	83.83
857.959	89.49
858.13	107.46
858.301	107.88
858.472	107.37
858.643	115.04
858.814	132.79
858.985	162.22
859.155	183.28
859.326	177.18
859.497	217.82
859.668	308.43
859.839	258.84
860.009	179.48
860.18	227.59
860.351	205.02
860.522	171.93
860.692	137.91
860.863	132.83
861.034	136.53
861.204	142.89
861.375	122.75
861.546	117.4
861.716	127.36
861.887	145.82
862.057	152.7
862.228	159.1
862.398	154.53
862.569	183.16
862.739	213.43
862.91	192.4
863.08	180.73
863.251	202.48
863.421	203.57
863.592	204.41
863.762	184.52
863.932	154.6
864.103	153.95
864.273	162.22
864.443	140.23
864.614	125.77
864.784	130.16
864.954	145.12
865.125	154.76
865.295	149.84
865.465	167.82
865.635	164.99
865.805	162.17
865.976	155.28
866.146	120.42
866.316	126.87
866.486	138.82
866.656	137.08
866.826	144.04
866.996	143.75
867.166	168.9
867.336	149.08
867.506	117.1
867.676	109.84
867.846	108.33
868.016	122.7
868.186	111.21
868.356	108.63
868.526	113.3
868.696	103.92
868.866	97.96
869.036	97.32
869.206	93.24
869.376	94.67
869.545	101.1
869.715	108.7
869.885	112.98
870.055	115.8
870.224	100.14
870.394	103.48
870.564	111.63
870.734	98.89
870.903	109.16
871.073	103.82
871.243	119.12
871.412	125.16
871.582	113.2
871.751	99.35
871.921	106.11
872.091	143.25
872.26	101.09
872.43	107.44
872.599	121.2
872.769	113.66
872.938	126.09
873.108	114.19
873.277	102.23
873.446	112.72
873.616	125.64
873.785	125.69
873.955	114
874.124	127.53
874.293	118.93
874.463	107.71
874.632	110.13
874.801	103.17
874.971	109.29
875.14	125.03
875.309	114.33
875.478	82.23
875.647	83.35
875.817	85.8
875.986	92.39
876.155	97.76
876.324	102.34
876.493	86.91
876.662	94.73
876.831	87.89
877	82.91
877.17	81.31
877.339	97.61
877.508	102.18
877.677	108.91
877.846	107.47
878.015	106.56
878.184	97.31
878.352	101.22
878.521	95.84
878.69	95.29
878.859	87.75
879.028	88.77
879.197	81.98
879.366	79.07
879.534	70.61
879.703	55.97
879.872	51.67
880.041	50.94
880.21	47.75
880.378	41.22
880.547	39.37
880.716	36.37
880.884	34.07
881.053	32.59
881.222	31.37
881.39	29.82
881.559	30.6
881.727	32.05
881.896	30.17
882.065	30.77
882.233	33.22
882.402	32.3
882.57	35.96
882.739	34.43
882.907	35.53
883.076	35.37
883.244	36.61
883.412	37.19
883.581	37.43
883.749	38.7
883.918	39.98
884.086	40.32
884.254	41.75
884.423	45.01
884.591	49.46
884.759	51.93
884.927	55.21
885.096	59.23
885.264	64.2
885.432	69.45
885.6	74.71
885.769	76.12
885.937	86.08
886.105	100.42
886.273	97.26
886.441	101.28
886.609	102.01
886.777	89.13
886.945	87.57
887.113	92.85
887.281	83.41
887.449	86.44
887.617	92.05
887.785	84.77
887.953	78.84
888.121	80.09
888.289	84
888.457	83.4
888.625	101.21
888.793	102.98
888.961	102.46
889.129	102.43
889.296	110.32
889.464	108.46
889.632	114.69
889.8	131.44
889.967	134.44
890.135	122.29
