Data from JASIL_3378_Reflection_1.txt Node
Date: Thu Nov 19 18:52:50 EST 2015
User: Geneva
Spectrometer: USB4E03002
Autoset integration time: false
Trigger mode: 4
Integration Time (sec): 1.000000E-1
Scans to average: 10
Electric dark correction enabled: false
Nonlinearity correction enabled: false
Boxcar width: 5
Stray light correction enabled: false
XAxis mode: Wavelengths
Stop averaging: false
Number of Pixels in Spectrum: 3648
>>>>>Begin Spectral Data<<<<<
177.575	127.78
177.794	132.69
178.014	142
178.233	150.21
178.452	151.13
178.672	150.26
178.891	155.53
179.11	156.41
179.33	167.29
179.549	167.21
179.768	159.05
179.987	156.71
180.207	164.72
180.426	163.72
180.645	166.61
180.864	178.65
181.084	183.87
181.303	185.51
181.522	188.29
181.741	197.44
181.96	203.42
182.179	211.87
182.398	229.02
182.618	211.36
182.837	207.37
183.056	192.23
183.275	198.83
183.494	183.18
183.713	175.29
183.932	167.84
184.151	149.38
184.37	150.96
184.589	144.47
184.808	137.21
185.027	137.62
185.246	132.47
185.465	139.15
185.684	130.15
185.903	134.59
186.122	136.8
186.341	144.63
186.56	146.88
186.779	147.46
186.998	151.06
187.216	156.42
187.435	151.02
187.654	166.7
187.873	175.05
188.092	173.21
188.311	181.08
188.53	182.29
188.748	183.71
188.967	190.11
189.186	179.64
189.405	177.29
189.623	171.77
189.842	180.69
190.061	174.44
190.28	154.73
190.498	156.03
190.717	147.6
190.936	148.86
191.154	150.9
191.373	141.45
191.592	139.81
191.81	139.22
192.029	138.11
192.248	147.75
192.466	155.43
192.685	150.24
192.904	142.41
193.122	158.42
193.341	150.85
193.559	137.87
193.778	157.67
193.996	155.52
194.215	153.24
194.433	150.4
194.652	142.69
194.87	131.28
195.089	142.85
195.307	148.13
195.526	138.26
195.744	146.3
195.963	154.41
196.181	143.06
196.399	140.31
196.618	147.73
196.836	148.75
197.055	146.51
197.273	156.68
197.491	148.71
197.71	154.07
197.928	149.91
198.146	154.09
198.365	157.17
198.583	159.59
198.801	159.04
199.019	148.06
199.238	154.51
199.456	154.91
199.674	132.35
199.892	141.61
200.111	135.27
200.329	138.86
200.547	139.59
200.765	143.97
200.983	141.62
201.202	140.89
201.42	142.45
201.638	134.19
201.856	126.66
202.074	134.67
202.292	121.23
202.51	117.45
202.728	116.88
202.946	110.9
203.165	105.49
203.383	113.16
203.601	116.04
203.819	117.07
204.037	125.43
204.255	124.23
204.473	136.95
204.691	142.95
204.909	156.75
205.127	160.1
205.345	172.63
205.562	165.68
205.78	152.36
205.998	158.81
206.216	156.05
206.434	149.7
206.652	162.82
206.87	156.26
207.088	155.57
207.306	155.72
207.523	161.06
207.741	150.98
207.959	158.17
208.177	159.6
208.395	146.69
208.612	155.12
208.83	159.12
209.048	152.38
209.266	152.72
209.483	153.97
209.701	149.28
209.919	143.23
210.136	145.88
210.354	147.27
210.572	146.61
210.79	165.05
211.007	160.71
211.225	161.57
211.442	158.65
211.66	152.98
211.878	157.65
212.095	301.74
212.313	260.89
212.53	269.48
212.748	236.13
212.966	260.44
213.183	281.04
213.401	282.55
213.618	267.51
213.836	274.86
214.053	278.42
214.271	232.46
214.488	148.45
214.705	145.25
214.923	137.52
215.14	138.09
215.358	134.09
215.575	129.53
215.793	126.71
216.01	127.29
216.227	133.13
216.445	139.62
216.662	157.19
216.879	142.06
217.097	144.78
217.314	152.46
217.531	154.03
217.749	156.22
217.966	162.91
218.183	170.22
218.4	167.77
218.618	167.15
218.835	169.11
219.052	160.36
219.269	169.76
219.487	184.36
219.704	200.37
219.921	210.98
220.138	192.48
220.355	185.26
220.572	174.79
220.79	168.77
221.007	160.06
221.224	155.9
221.441	146.89
221.658	149.74
221.875	146.53
222.092	136.9
222.309	138.01
222.526	147.7
222.743	141.64
222.96	144.27
223.177	150.95
223.394	147.14
223.611	138.22
223.828	137.02
224.045	133.25
224.262	128.26
224.479	123.72
224.696	115.99
224.913	108.51
225.13	110.3
225.347	104.92
225.564	107.65
225.781	109.06
225.997	106.72
226.214	102.32
226.431	100.75
226.648	96.03
226.865	88.68
227.082	85.46
227.298	84.2
227.515	78.85
227.732	75.66
227.949	72.29
228.165	69.76
228.382	69.73
228.599	69.55
228.816	66.61
229.032	66.38
229.249	70.39
229.466	70.76
229.682	71.35
229.899	72.55
230.116	71.65
230.332	72.17
230.549	75.32
230.765	75.24
230.982	75.89
231.199	78.93
231.415	81.22
231.632	79.21
231.848	80.94
232.065	79
232.281	79.33
232.498	85.04
232.714	83.84
232.931	80.04
233.147	77.57
233.364	79.57
233.58	77.77
233.797	74.88
234.013	74.68
234.23	74.39
234.446	76.73
234.662	78.61
234.879	76.42
235.095	76.83
235.312	77.94
235.528	85.51
235.744	85.34
235.961	90.71
236.177	96.65
236.393	97.88
236.61	100.11
236.826	104.1
237.042	100.17
237.258	101.26
237.475	99.04
237.691	98.87
237.907	94.37
238.123	93.22
238.339	88.54
238.556	87.07
238.772	84.69
238.988	80.91
239.204	73.39
239.42	72.54
239.636	65.18
239.853	63.42
240.069	62.79
240.285	58.41
240.501	55.61
240.717	51.61
240.933	46.33
241.149	46.39
241.365	44.97
241.581	45.53
241.797	45.12
242.013	48.93
242.229	49.67
242.445	49.59
242.661	52.64
242.877	52.96
243.093	51.73
243.309	52.53
243.525	53.24
243.741	53.27
243.957	54.84
244.173	55.76
244.388	53.37
244.604	49.17
244.82	47.42
245.036	46.86
245.252	44.44
245.468	45.18
245.683	41.88
245.899	37.02
246.115	35.67
246.331	33.08
246.547	31.84
246.762	30.55
246.978	32.14
247.194	31.51
247.409	29.68
247.625	30.02
247.841	29.12
248.057	30.71
248.272	33.11
248.488	34.93
248.703	36.12
248.919	36.61
249.135	38.18
249.35	37.1
249.566	38.38
249.782	40.64
249.997	43.32
250.213	45.74
250.428	45.95
250.644	46.65
250.859	46.69
251.075	46.29
251.29	45.45
251.506	46.22
251.721	46.73
251.937	47.66
252.152	48.09
252.368	46.24
252.583	47.19
252.798	47.91
253.014	49.57
253.229	50.95
253.445	53.69
253.66	56.48
253.875	57.04
254.091	58.49
254.306	58.88
254.521	60.19
254.737	59.76
254.952	58.31
255.167	58.25
255.383	56.97
255.598	53.99
255.813	53.07
256.028	51.64
256.244	51.31
256.459	50.14
256.674	46.15
256.889	42.78
257.104	40.9
257.32	40.31
257.535	39.26
257.75	37.36
257.965	36.11
258.18	33.41
258.395	31.19
258.61	29.34
258.826	27.07
259.041	26.16
259.256	25.21
259.471	26.2
259.686	25.23
259.901	24.24
260.116	23.84
260.331	23.61
260.546	24.46
260.761	25.99
260.976	27.06
261.191	29.09
261.406	31.76
261.621	33.9
261.836	33.41
262.05	35.46
262.265	37.1
262.48	40.06
262.695	42.79
262.91	44.85
263.125	45.53
263.34	45.12
263.555	46.19
263.769	46.02
263.984	45.18
264.199	48.06
264.414	45.64
264.629	44.67
264.843	42.87
265.058	41.58
265.273	39.25
265.488	36.97
265.702	37.77
265.917	37.98
266.132	37.83
266.346	37.37
266.561	35.96
266.776	37.72
266.99	36.96
267.205	37.23
267.42	36.42
267.634	36.51
267.849	37.28
268.063	36.7
268.278	35.63
268.492	36.58
268.707	37.22
268.922	38.67
269.136	38.21
269.351	37.41
269.565	38.01
269.78	38.5
269.994	37.51
270.209	36.9
270.423	36.42
270.637	35.48
270.852	33.5
271.066	33.67
271.281	32.2
271.495	31.17
271.709	31.27
271.924	31.04
272.138	30.22
272.353	30.72
272.567	30.57
272.781	30.99
272.996	32.2
273.21	32.17
273.424	31.83
273.638	32.22
273.853	35
274.067	36.76
274.281	35.72
274.495	36.43
274.71	37.21
274.924	38.28
275.138	38.44
275.352	38.06
275.566	39.92
275.781	39.99
275.995	39.03
276.209	37.27
276.423	37.03
276.637	37.35
276.851	37.71
277.065	36.79
277.279	36.52
277.493	38.29
277.707	37.43
277.921	35.89
278.135	36.76
278.349	39.14
278.563	39.48
278.777	38.13
278.991	37.75
279.205	36.67
279.419	36.21
279.633	35.21
279.847	33.57
280.061	33.69
280.275	34.31
280.489	34.13
280.703	31.7
280.917	30.34
281.131	31.41
281.344	31.15
281.558	32.35
281.772	32.46
281.986	33.19
282.2	31.5
282.414	30.79
282.627	29.63
282.841	27.79
283.055	27.6
283.269	27.84
283.482	25.99
283.696	26.62
283.91	24.88
284.123	24.57
284.337	24.69
284.551	25.92
284.764	26.4
284.978	26.21
285.192	26.28
285.405	26.69
285.619	26.76
285.833	27.94
286.046	27.77
286.26	28.99
286.473	29.45
286.687	29.21
286.9	28.38
287.114	28.44
287.327	28.69
287.541	30.36
287.754	30.59
287.968	30.47
288.181	31.21
288.395	31.21
288.608	30.07
288.822	29.37
289.035	29.37
289.248	29.28
289.462	28.28
289.675	28.44
289.889	27.53
290.102	27.58
290.315	27.45
290.529	28.17
290.742	27.55
290.955	28.4
291.169	28.89
291.382	28.28
291.595	28.99
291.808	30.8
292.022	30.85
292.235	31.27
292.448	30.61
292.661	30.1
292.875	27.85
293.088	28.35
293.301	29.15
293.514	28.55
293.727	29.01
293.94	28.02
294.153	27.32
294.367	26.06
294.58	24.72
294.793	25.28
295.006	25.18
295.219	25.7
295.432	25.26
295.645	23.81
295.858	24.49
296.071	24.34
296.284	24.55
296.497	23.73
296.71	23.98
296.923	23.66
297.136	22.54
297.349	22.26
297.562	22.9
297.775	23.38
297.988	23.75
298.201	24.18
298.414	24.47
298.626	24.8
298.839	25.84
299.052	26.76
299.265	28.1
299.478	29.1
299.691	29.69
299.903	28.39
300.116	27.6
300.329	27.42
300.542	26.06
300.755	25.3
300.967	24.94
301.18	25.22
301.393	23.88
301.605	24.12
301.818	25
302.031	25.99
302.243	25.58
302.456	26.59
302.669	26.71
302.881	28.55
303.094	29.72
303.307	29.96
303.519	29.8
303.732	30.83
303.944	30.93
304.157	31.6
304.37	31.46
304.582	33.05
304.795	32.82
305.007	33.59
305.22	32.67
305.432	31.64
305.645	31.87
305.857	32.28
306.069	33.29
306.282	32.56
306.494	31.23
306.707	31.91
306.919	31.31
307.132	31.95
307.344	31.71
307.556	30.43
307.769	30.74
307.981	31.62
308.193	30.09
308.406	29.34
308.618	29.96
308.83	30.04
309.043	27.47
309.255	26.95
309.467	25.24
309.679	24.36
309.892	25.57
310.104	25.5
310.316	24.32
310.528	24.71
310.74	23.82
310.953	23.13
311.165	22.58
311.377	24.16
311.589	24.71
311.801	25.2
312.013	25.35
312.225	25.93
312.437	26.43
312.649	26.78
312.862	27.68
313.074	29.05
313.286	29.8
313.498	32.24
313.71	32.75
313.922	32.72
314.134	32.95
314.346	33.07
314.558	32.48
314.77	32.83
314.982	34.17
315.193	33.55
315.405	32.87
315.617	32.08
315.829	29.5
316.041	28.83
316.253	28.81
316.465	29.37
316.677	29.8
316.888	28.71
317.1	28.25
317.312	26.53
317.524	25.89
317.736	26.9
317.947	28.61
318.159	30.15
318.371	30.93
318.583	31.4
318.794	30.86
319.006	31.52
319.218	32.82
319.43	32.42
319.641	33.18
319.853	33.45
320.064	33.95
320.276	33.32
320.488	33.3
320.699	33.7
320.911	33.69
321.123	34.64
321.334	35.52
321.546	35.81
321.757	36.1
321.969	35.33
322.18	35
322.392	34.64
322.603	33.54
322.815	32.32
323.026	31.34
323.238	30.06
323.449	29.75
323.661	27.81
323.872	26.35
324.083	25.58
324.295	26.13
324.506	26.29
324.718	26.15
324.929	25.85
325.14	26.98
325.352	27.01
325.563	27.22
325.774	26.88
325.986	27.04
326.197	28.4
326.408	28.81
326.62	27.88
326.831	27.33
327.042	27.16
327.253	27.83
327.464	27.04
327.676	27.79
327.887	28.36
328.098	28.28
328.309	28.42
328.52	28.87
328.732	29.5
328.943	31.32
329.154	33.45
329.365	34.13
329.576	33.94
329.787	35.34
329.998	34.71
330.209	36.12
330.42	36.8
330.631	37.51
330.842	36.27
331.053	35.76
331.264	34.62
331.475	34.34
331.686	34.11
331.897	35.18
332.108	33.62
332.319	32.72
332.53	30.43
332.741	30.62
332.952	31.02
333.163	31.25
333.374	30.82
333.585	30.51
333.795	29.25
334.006	29.15
334.217	28.26
334.428	29.63
334.639	31.05
334.849	31.98
335.06	32.06
335.271	31.42
335.482	30.84
335.692	31.44
335.903	31.65
336.114	31.9
336.325	30.87
336.535	31.94
336.746	30.99
336.957	30.07
337.167	30.1
337.378	30.23
337.589	30.59
337.799	31.05
338.01	31.46
338.22	31.42
338.431	31.96
338.642	32.56
338.852	31.3
339.063	32.11
339.273	32.21
339.484	32.91
339.694	32.9
339.905	32.87
340.115	33.28
340.326	32.31
340.536	31.96
340.746	30.7
340.957	30.12
341.167	30.81
341.378	29.48
341.588	30.05
341.799	28.49
342.009	27.32
342.219	28.52
342.43	28.04
342.64	28.94
342.85	29.86
343.061	30.38
343.271	31.28
343.481	30.25
343.691	30.79
343.902	29.95
344.112	31.21
344.322	30.73
344.532	29.62
344.743	29.36
344.953	29.3
345.163	28.31
345.373	28.53
345.583	27.71
345.793	28.31
346.004	28.75
346.214	28.89
346.424	28.45
346.634	28.64
346.844	28.86
347.054	29.37
347.264	28.04
347.474	27.76
347.684	27.64
347.894	27.72
348.104	27.78
348.314	27.39
348.524	27.17
348.734	27.14
348.944	28.75
349.154	28.04
349.364	27.95
349.574	28.81
349.784	29.85
349.994	29.89
350.204	30.13
350.413	29.66
350.623	29.78
350.833	29.92
351.043	30.45
351.253	30.06
351.463	30.9
351.672	30.95
351.882	31.64
352.092	31.63
352.302	30.92
352.511	31.21
352.721	31.82
352.931	30.64
353.141	30.82
353.35	30.83
353.56	30.12
353.77	29.51
353.979	29.53
354.189	28.64
354.399	28.14
354.608	27.92
354.818	26.81
355.027	26.46
355.237	27.33
355.447	27.22
355.656	25.88
355.866	25.44
356.075	25.88
356.285	25.15
356.494	25.72
356.704	25.03
356.913	25.63
357.123	25.6
357.332	24.85
357.542	24.37
357.751	23.99
357.96	24.45
358.17	25
358.379	24.14
358.589	22.93
358.798	22.2
359.007	22.52
359.217	22.22
359.426	21.76
359.635	22.07
359.845	21.82
360.054	21.92
360.263	21.23
360.472	21.29
360.682	21.49
360.891	22.11
361.1	22.2
361.309	21.88
361.519	21.57
361.728	22.05
361.937	21.7
362.146	21.81
362.355	21.66
362.564	22.48
362.774	22.5
362.983	22.54
363.192	22.96
363.401	22.28
363.61	22.63
363.819	23.16
364.028	22.05
364.237	22.68
364.446	23.14
364.655	23.25
364.864	23.02
365.073	23.22
365.282	22.65
365.491	22.76
365.7	23.51
365.909	23.63
366.118	23.1
366.327	24.11
366.536	24.18
366.745	23.84
366.954	23.73
367.162	24.61
367.371	24
367.58	24.61
367.789	24.24
367.998	23.44
368.207	22.74
368.415	22.72
368.624	22.18
368.833	21.59
369.042	20.8
369.25	21.41
369.459	21.15
369.668	21.45
369.877	20.87
370.085	21.01
370.294	21.63
370.503	21.76
370.711	21.96
370.92	22.68
371.129	23.26
371.337	23.54
371.546	22.75
371.754	22.42
371.963	22.07
372.171	22.03
372.38	22.06
372.589	22.05
372.797	22.45
373.006	22.33
373.214	22.4
373.423	21.63
373.631	22.36
373.84	23
374.048	22.2
374.256	21.44
374.465	21.7
374.673	21.58
374.882	21.15
375.09	21.1
375.298	21.28
375.507	20.6
375.715	21.12
375.923	20.72
376.132	20.02
376.34	20.05
376.548	20.47
376.757	20.28
376.965	20.23
377.173	20.21
377.381	20.12
377.59	19.9
377.798	20.46
378.006	20.55
378.214	20.87
378.423	21.17
378.631	21.51
378.839	22.25
379.047	22.69
379.255	22.83
379.463	23.36
379.671	23.16
379.879	23.11
380.088	23.17
380.296	22.69
380.504	21.99
380.712	21.73
380.92	21.11
381.128	20.75
381.336	20.65
381.544	20.85
381.752	21.23
381.96	21.5
382.168	21.25
382.376	21.09
382.584	21.73
382.791	22.29
382.999	22.06
383.207	22.44
383.415	22.29
383.623	22.03
383.831	21.55
384.039	20.54
384.247	20.13
384.454	20.27
384.662	20.07
384.87	19.15
385.078	18.95
385.285	19.99
385.493	19.37
385.701	18.68
385.909	18.79
386.116	18.78
386.324	18.95
386.532	18.73
386.739	19.28
386.947	19.31
387.155	19.53
387.362	19.22
387.57	17.88
387.778	18.02
387.985	18.36
388.193	18.4
388.4	18.24
388.608	18.44
388.816	18.5
389.023	17.86
389.231	17.62
389.438	17.36
389.646	18.12
389.853	18.28
390.061	18.27
390.268	18.39
390.475	18.27
390.683	18.36
390.89	17.94
391.098	18.03
391.305	17.93
391.512	17.86
391.72	17.68
391.927	17.53
392.135	17.53
392.342	18.2
392.549	18.1
392.756	17.78
392.964	17.7
393.171	17.89
393.378	17.89
393.586	18.07
393.793	17.86
394	18.22
394.207	17.8
394.414	17.86
394.622	17.58
394.829	17.51
395.036	17.46
395.243	17.88
395.45	17.95
395.657	18.22
395.864	17.89
396.072	18.23
396.279	18.63
396.486	18.46
396.693	18.33
396.9	17.93
397.107	18.19
397.314	18.57
397.521	18.65
397.728	18.23
397.935	18.12
398.142	18.62
398.349	18.51
398.556	17.69
398.763	17.7
398.97	17.94
399.177	17.87
399.383	17.72
399.59	17.4
399.797	16.71
400.004	17.06
400.211	17.54
400.418	17.41
400.625	17.26
400.831	17.41
401.038	18.12
401.245	18.27
401.452	18.78
401.658	18.46
401.865	18.3
402.072	18.49
402.279	18.04
402.485	17.45
402.692	17.45
402.899	17.56
403.105	17.69
403.312	16.64
403.519	16.01
403.725	15.7
403.932	16.09
404.138	16
404.345	15.94
404.552	16.31
404.758	16.42
404.965	16.27
405.171	16.31
405.378	16.27
405.584	16.66
405.791	16.9
405.997	16.8
406.204	17.2
406.41	17.78
406.617	18.1
406.823	18.06
407.029	18.03
407.236	17.97
407.442	18.02
407.649	18.22
407.855	18.43
408.061	18.84
408.268	18.88
408.474	18.27
408.68	17.86
408.887	17.5
409.093	17.48
409.299	17.21
409.505	17.25
409.712	16.93
409.918	16.76
410.124	16.63
410.33	16.16
410.537	16.76
410.743	16.77
410.949	16.71
411.155	16.73
411.361	16.84
411.567	17.12
411.773	17.2
411.98	17.53
412.186	17.74
412.392	17.72
412.598	17.88
412.804	17.44
413.01	17.85
413.216	17.85
413.422	18.22
413.628	18.14
413.834	18.27
414.04	17.95
414.246	17.98
414.452	18.13
414.658	17.91
414.864	18.26
415.07	18.33
415.275	18.18
415.481	18.48
415.687	18.33
415.893	18.73
416.099	18.19
416.305	18.27
416.511	17.99
416.716	17.42
416.922	17.36
417.128	16.85
417.334	16.69
417.539	16.64
417.745	16.51
417.951	16.15
418.157	15.72
418.362	15.6
418.568	15.68
418.774	15.82
418.979	15.92
419.185	15.85
419.391	15.94
419.596	15.85
419.802	15.48
420.008	15.34
420.213	15.52
420.419	15.7
420.624	15.78
420.83	15.83
421.035	15.74
421.241	15.84
421.446	15.82
421.652	15.63
421.857	15.86
422.063	16.08
422.268	16.01
422.474	15.92
422.679	15.67
422.885	15.78
423.09	15.61
423.295	15.45
423.501	15.45
423.706	15.59
423.911	16.09
424.117	15.9
424.322	15.73
424.527	15.87
424.733	15.98
424.938	16.27
425.143	16.48
425.349	16.69
425.554	17.05
425.759	17.15
425.964	17.16
426.169	17.05
426.375	17.15
426.58	17.65
426.785	17.77
426.99	18
427.195	18.32
427.4	18.24
427.605	18.19
427.811	18.34
428.016	18.54
428.221	18.9
428.426	19.16
428.631	19.22
428.836	19.42
429.041	19.65
429.246	19.9
429.451	19.71
429.656	20.16
429.861	20.55
430.066	20.28
430.271	20.01
430.476	19.94
430.681	19.78
430.886	20.06
431.09	19.91
431.295	19.93
431.5	19.66
431.705	19.73
431.91	19.28
432.115	19.09
432.32	19.15
432.524	19.62
432.729	19.74
432.934	20.04
433.139	19.94
433.343	20.04
433.548	19.95
433.753	20.2
433.958	20.32
434.162	20.9
434.367	21.28
434.572	21.62
434.776	21.88
434.981	21.81
435.186	21.64
435.39	21.92
435.595	21.82
435.799	21.99
436.004	21.8
436.209	21.81
436.413	21.76
436.618	21.71
436.822	21.56
437.027	21.25
437.231	21.47
437.436	21.67
437.64	21.71
437.845	21.86
438.049	21.79
438.253	21.85
438.458	22.04
438.662	21.94
438.867	21.88
439.071	22.1
439.275	22.17
439.48	22
439.684	21.88
439.888	21.89
440.093	21.98
440.297	22.22
440.501	22.41
440.706	22.26
440.91	22.34
441.114	22.29
441.318	22.41
441.523	22.59
441.727	22.9
441.931	23.22
442.135	23.29
442.339	23.33
442.543	23.48
442.748	23.75
442.952	23.81
443.156	24.04
443.36	24.42
443.564	24.4
443.768	24.17
443.972	23.94
444.176	23.95
444.38	24.05
444.584	24.07
444.788	24.37
444.992	24.14
445.196	24.11
445.4	24.2
445.604	24.19
445.808	24.21
446.012	24.39
446.216	24.91
446.42	25
446.624	25.05
446.828	25.06
447.032	25.02
447.235	25.26
447.439	25.58
447.643	25.54
447.847	25.71
448.051	26.08
448.254	26.41
448.458	26.41
448.662	26.57
448.866	26.6
449.069	26.89
449.273	26.94
449.477	27.29
449.681	27.57
449.884	27.87
450.088	27.73
450.292	27.52
450.495	27.53
450.699	27.6
450.902	27.54
451.106	27.96
451.31	27.82
451.513	27.99
451.717	27.98
451.92	27.6
452.124	27.5
452.327	27.71
452.531	28.01
452.734	27.99
452.938	28.22
453.141	28.27
453.345	28.09
453.548	28.67
453.752	28.73
453.955	28.93
454.158	29.24
454.362	29.44
454.565	29.7
454.769	29.67
454.972	29.58
455.175	29.46
455.379	30
455.582	30.54
455.785	30.61
455.988	30.89
456.192	30.83
456.395	30.9
456.598	31.03
456.801	31.04
457.005	31.14
457.208	31.47
457.411	31.33
457.614	31.05
457.817	30.62
458.021	30.27
458.224	29.89
458.427	29.9
458.63	29.76
458.833	29.7
459.036	29.65
459.239	29.72
459.442	29.8
459.645	29.94
459.848	29.83
460.051	30.02
460.254	30.31
460.457	30.33
460.66	30.37
460.863	30.37
461.066	30.53
461.269	30.76
461.472	30.86
461.675	30.9
461.878	30.85
462.081	31.02
462.284	30.98
462.486	31.24
462.689	31.66
462.892	31.65
463.095	32.22
463.298	32.26
463.5	32.27
463.703	32.29
463.906	32.13
464.109	32.4
464.311	32.46
464.514	32.62
464.717	32.59
464.92	32.58
465.122	32.6
465.325	32.45
465.528	32.49
465.73	32.6
465.933	32.62
466.135	32.76
466.338	32.61
466.541	33
466.743	32.86
466.946	32.71
467.148	32.87
467.351	32.79
467.553	33.07
467.756	33.09
467.958	33.07
468.161	33.11
468.363	33.17
468.566	33.16
468.768	33.2
468.971	33.44
469.173	33.5
469.375	33.27
469.578	33.38
469.78	33.37
469.983	33.47
470.185	33.21
470.387	33.22
470.59	33.28
470.792	33.32
470.994	33.11
471.196	33.11
471.399	33.05
471.601	32.93
471.803	32.93
472.005	32.93
472.208	32.97
472.41	33.32
472.612	33.29
472.814	33.49
473.016	33.43
473.218	33.67
473.421	33.8
473.623	33.78
473.825	34.31
474.027	34.59
474.229	34.48
474.431	34.51
474.633	34.51
474.835	34.51
475.037	34.34
475.239	34.51
475.441	34.59
475.643	34.66
475.845	34.41
476.047	34.21
476.249	34.35
476.451	34.28
476.653	34.17
476.855	33.98
477.057	34.3
477.258	34.31
477.46	34.39
477.662	34.27
477.864	34.35
478.066	34.39
478.268	34.37
478.469	34.16
478.671	34.42
478.873	34.4
479.075	34.29
479.276	33.95
479.478	33.98
479.68	34
479.882	33.86
480.083	33.67
480.285	33.74
480.487	33.71
480.688	33.61
480.89	33.6
481.091	33.68
481.293	33.88
481.495	33.75
481.696	33.65
481.898	33.61
482.099	33.48
482.301	33.46
482.502	33.42
482.704	33.31
482.905	33.22
483.107	33
483.308	32.78
483.51	32.63
483.711	32.58
483.913	32.54
484.114	32.48
484.315	32.47
484.517	32.34
484.718	32.28
484.92	32.26
485.121	32.37
485.322	32.51
485.524	32.73
485.725	32.89
485.926	33.05
486.127	33.06
486.329	33.05
486.53	33.15
486.731	33.2
486.932	33.4
487.134	33.39
487.335	33.4
487.536	33.33
487.737	33.42
487.938	33.44
488.139	33.45
488.341	33.61
488.542	33.72
488.743	33.79
488.944	33.89
489.145	33.81
489.346	34.04
489.547	34.11
489.748	34.29
489.949	34.23
490.15	34.26
490.351	34.27
490.552	34.27
490.753	34.29
490.954	34.31
491.155	34.43
491.356	34.49
491.557	34.44
491.758	34.3
491.959	34.34
492.159	34.47
492.36	34.5
492.561	34.6
492.762	34.7
492.963	34.69
493.164	34.74
493.364	34.86
493.565	34.85
493.766	34.86
493.967	35.24
494.167	35.13
494.368	35.13
494.569	35.16
494.769	35.26
494.97	35.14
495.171	35.61
495.371	35.56
495.572	35.38
495.773	35.48
495.973	35.77
496.174	35.77
496.375	36
496.575	35.97
496.776	36.18
496.976	36.01
497.177	36.15
497.377	35.94
497.578	36.11
497.778	36.21
497.979	36.34
498.179	36.21
498.38	36.21
498.58	36.29
498.78	36.57
498.981	36.5
499.181	36.88
499.382	36.92
499.582	37.06
499.782	37.15
499.983	37.28
500.183	37.25
500.383	37.23
500.584	37.35
500.784	37.23
500.984	36.98
501.184	37.11
501.385	37.16
501.585	37.28
501.785	37.28
501.985	37.25
502.185	37.06
502.386	36.98
502.586	36.97
502.786	36.88
502.986	36.92
503.186	36.88
503.386	36.87
503.586	36.76
503.786	36.54
503.987	36.36
504.187	36.22
504.387	36.36
504.587	36.47
504.787	36.58
504.987	36.26
505.187	36.16
505.387	36.26
505.587	36.25
505.786	36.09
505.986	36.34
506.186	36.29
506.386	36.52
506.586	36.51
506.786	36.52
506.986	36.5
507.186	36.72
507.386	36.92
507.585	36.9
507.785	36.94
507.985	36.99
508.185	36.76
508.384	36.96
508.584	36.83
508.784	36.8
508.984	36.95
509.183	36.92
509.383	37.12
509.583	37.17
509.782	37.08
509.982	37.03
510.182	37.3
510.381	37.51
510.581	37.74
510.781	37.9
510.98	38.04
511.18	38.16
511.379	38.25
511.579	38.21
511.778	38.22
511.978	38.28
512.177	38.27
512.377	38.04
512.576	37.93
512.776	37.91
512.975	37.86
513.175	37.76
513.374	37.64
513.573	37.91
513.773	38.24
513.972	38.11
514.172	38.12
514.371	38.38
514.57	38.38
514.77	38.85
514.969	38.53
515.168	38.64
515.367	38.6
515.567	38.61
515.766	38.21
515.965	37.94
516.164	38.07
516.364	38.2
516.563	37.89
516.762	38.2
516.961	37.71
517.16	37.92
517.359	37.87
517.559	38.03
517.758	38.1
517.957	38.25
518.156	38.35
518.355	38.3
518.554	38.38
518.753	38.41
518.952	38.19
519.151	38.32
519.35	38.33
519.549	38.31
519.748	38.2
519.947	38.01
520.146	37.98
520.345	37.83
520.544	37.73
520.743	37.94
520.942	38.19
521.141	38.31
521.339	38.4
521.538	38.47
521.737	38.76
521.936	39.01
522.135	39.06
522.333	39.16
522.532	39.4
522.731	39.56
522.93	39.26
523.129	39.25
523.327	39.17
523.526	39.19
523.725	39.21
523.923	39.11
524.122	38.87
524.321	38.8
524.519	38.8
524.718	38.65
524.917	38.68
525.115	38.66
525.314	38.56
525.512	38.59
525.711	38.57
525.909	38.49
526.108	38.54
526.306	38.71
526.505	38.93
526.703	38.92
526.902	38.93
527.1	38.84
527.299	38.75
527.497	38.67
527.696	38.69
527.894	38.62
528.092	38.6
528.291	38.42
528.489	38.35
528.688	38.32
528.886	38.25
529.084	38.25
529.283	38.32
529.481	38.37
529.679	38.52
529.877	38.55
530.076	38.75
530.274	38.78
530.472	38.96
530.67	39.05
530.869	38.99
531.067	39.16
531.265	39.21
531.463	39.26
531.661	39.42
531.859	39.38
532.057	39.39
532.255	39.25
532.454	39.36
532.652	39.44
532.85	39.59
533.048	39.79
533.246	39.83
533.444	39.82
533.642	39.88
533.84	39.87
534.038	39.87
534.236	39.95
534.434	40.08
534.632	40.21
534.83	40.22
535.027	40.08
535.225	40.13
535.423	40.26
535.621	40.37
535.819	40.34
536.017	40.48
536.215	40.7
536.412	40.75
536.61	40.7
536.808	40.87
537.006	40.69
537.203	40.84
537.401	40.77
537.599	40.84
537.797	41.08
537.994	41.28
538.192	41.45
538.39	41.72
538.587	41.81
538.785	42.02
538.983	41.95
539.18	42.37
539.378	42.31
539.575	42.41
539.773	42.36
539.97	42.24
540.168	42.24
540.366	42.16
540.563	42.16
540.761	42.19
540.958	42.26
541.155	42.03
541.353	41.97
541.55	42.08
541.748	41.95
541.945	42.06
542.143	42.07
542.34	42.17
542.537	42.36
542.735	42.37
542.932	42.58
543.129	42.73
543.327	43.14
543.524	43.67
543.721	43.96
543.919	44.23
544.116	44.71
544.313	44.94
544.51	45.15
544.708	45.35
544.905	45.48
545.102	45.63
545.299	45.61
545.496	45.72
545.693	45.53
545.891	45.48
546.088	45.76
546.285	45.31
546.482	45.34
546.679	45.12
546.876	44.95
547.073	44.9
547.27	44.67
547.467	44.87
547.664	44.84
547.861	44.73
548.058	44.72
548.255	44.57
548.452	44.7
548.649	44.67
548.846	44.96
549.043	45
549.24	45.14
549.437	45.34
549.633	44.8
549.83	44.68
550.027	44.57
550.224	44.48
550.421	44.76
550.618	44.82
550.814	44.86
551.011	44.63
551.208	44.48
551.405	44.43
551.601	44.38
551.798	44.52
551.995	44.5
552.191	44.8
552.388	44.92
552.585	44.64
552.781	44.37
552.978	44.34
553.175	44.65
553.371	44.89
553.568	44.86
553.764	44.9
553.961	45.23
554.157	45.65
554.354	45.47
554.55	45.26
554.747	45.48
554.943	45.77
555.14	46
555.336	45.78
555.533	45.57
555.729	45.61
555.926	45.74
556.122	45.72
556.318	45.69
556.515	45.72
556.711	45.77
556.907	45.86
557.104	45.8
557.3	45.76
557.496	45.87
557.693	46.03
557.889	46.04
558.085	45.9
558.281	45.91
558.478	46.07
558.674	46.1
558.87	46.43
559.066	46.36
559.262	46.31
559.459	46.53
559.655	46.5
559.851	46.59
560.047	46.68
560.243	46.74
560.439	46.48
560.635	46.41
560.831	46.34
561.027	46.05
561.223	45.88
561.419	45.8
561.615	45.78
561.811	45.87
562.007	46.04
562.203	46.08
562.399	46.1
562.595	46.42
562.791	46.2
562.987	46.23
563.183	46.43
563.379	46.62
563.575	46.82
563.771	46.53
563.966	46.49
564.162	45.98
564.358	45.84
564.554	45.67
564.75	45.52
564.945	45.3
565.141	45
565.337	45.06
565.533	45.06
565.728	45.01
565.924	44.95
566.12	44.93
566.315	45.27
566.511	45.29
566.707	45.39
566.902	45.52
567.098	45.56
567.293	45.99
567.489	45.92
567.684	45.91
567.88	46.06
568.076	46.23
568.271	46.19
568.467	46
568.662	45.99
568.858	45.75
569.053	45.72
569.248	45.77
569.444	45.66
569.639	45.39
569.835	45.51
570.03	45.18
570.225	45.16
570.421	45.39
570.616	45.59
570.812	45.35
571.007	45.66
571.202	45.65
571.397	45.82
571.593	45.98
571.788	46.22
571.983	46
572.178	46.14
572.374	46.13
572.569	46.15
572.764	46.18
572.959	46.63
573.154	46.72
573.35	46.56
573.545	46.74
573.74	46.78
573.935	46.87
574.13	47.16
574.325	47.35
574.52	47.47
574.715	47.27
574.91	47.14
575.105	46.91
575.3	46.85
575.495	47.02
575.69	47.07
575.885	47
576.08	46.97
576.275	46.97
576.47	47.09
576.665	46.92
576.86	47.09
577.055	47.22
577.25	47.71
577.444	47.79
577.639	47.84
577.834	47.57
578.029	47.74
578.224	48.05
578.418	48.17
578.613	48.34
578.808	48.96
579.003	49.28
579.197	49.26
579.392	49.26
579.587	49.19
579.781	49.23
579.976	49.25
580.171	49.17
580.365	49.16
580.56	48.96
580.755	49.09
580.949	48.47
581.144	48.22
581.338	48.48
581.533	48.35
581.727	48.63
581.922	48.77
582.116	49.13
582.311	49.32
582.505	49.41
582.7	49.55
582.894	49.38
583.089	49.91
583.283	49.95
583.478	49.44
583.672	49.43
583.866	49.69
584.061	50.07
584.255	50.15
584.449	50.2
584.644	50.21
584.838	50.2
585.032	50.18
585.226	49.78
585.421	49.81
585.615	50.4
585.809	50.39
586.003	50.38
586.198	50.43
586.392	50.16
586.586	50.14
586.78	50.14
586.974	50.29
587.168	50.42
587.363	50.67
587.557	50.82
587.751	50.62
587.945	50.71
588.139	50.05
588.333	50.25
588.527	50.2
588.721	49.96
588.915	49.57
589.109	49.64
589.303	49.39
589.497	49.28
589.691	49.06
589.885	49.18
590.079	49.06
590.273	49.33
590.466	48.41
590.66	48.71
590.854	48.69
591.048	49.09
591.242	49
591.436	49.47
591.629	49.89
591.823	50.19
592.017	50.17
592.211	49.95
592.404	50.16
592.598	50.71
592.792	51.05
592.986	51.03
593.179	50.94
593.373	51.06
593.567	50.74
593.76	50.5
593.954	50.42
594.147	50.31
594.341	50.68
594.535	50.49
594.728	50.14
594.922	49.82
595.115	49.8
595.309	49.9
595.502	49.9
595.696	49.57
595.889	49.44
596.083	49.35
596.276	49.29
596.47	49.03
596.663	49.07
596.856	49.26
597.05	49.35
597.243	49.35
597.437	49.44
597.63	49.51
597.823	49.93
598.017	50.14
598.21	50.34
598.403	50.58
598.596	50.74
598.79	50.98
598.983	50.99
599.176	50.8
599.369	50.97
599.563	50.82
599.756	50.42
599.949	50.42
600.142	50.46
600.335	50.66
600.528	50.72
600.722	50.46
600.915	50.11
601.108	50.19
601.301	50.27
601.494	50.13
601.687	50.11
601.88	50.09
602.073	50.12
602.266	49.97
602.459	49.65
602.652	49.3
602.845	49.16
603.038	48.9
603.231	48.99
603.424	49.08
603.617	49.31
603.809	49.3
604.002	49.39
604.195	48.95
604.388	48.86
604.581	48.95
604.774	49.11
604.966	49.53
605.159	49.9
605.352	49.69
605.545	49.63
605.737	49.76
605.93	49.76
606.123	50.17
606.316	50.43
606.508	50.81
606.701	50.51
606.894	50.48
607.086	50.74
607.279	51.19
607.471	51.85
607.664	52.06
607.857	52.16
608.049	52.57
608.242	52.42
608.434	53.25
608.627	53.71
608.819	54.58
609.012	55.52
609.204	56.25
609.397	57.29
609.589	58.3
609.782	59.23
609.974	60.3
610.166	61.53
610.359	62.63
610.551	63.07
610.743	63.7
610.936	64.34
611.128	64.29
611.32	64.21
611.513	63.34
611.705	62.88
611.897	62.35
612.09	61.7
612.282	60.81
612.474	60.17
612.666	59.85
612.858	59.28
613.051	58.49
613.243	58.2
613.435	57.72
613.627	58.34
613.819	57.71
614.011	58.1
614.203	57.75
614.395	57.65
614.588	57.95
614.78	57.86
614.972	57.65
615.164	57.91
615.356	57.83
615.548	57.71
615.74	57.09
615.932	56.81
616.124	56.14
616.315	56.1
616.507	55.44
616.699	54.62
616.891	54.5
617.083	54.4
617.275	53.61
617.467	53.7
617.659	53.77
617.85	53.91
618.042	53.92
618.234	53.7
618.426	53.5
618.618	53.62
618.809	53.56
619.001	53.57
619.193	53.5
619.384	54.2
619.576	54.34
619.768	54.03
619.959	53.15
620.151	53.3
620.343	53.65
620.534	53.55
620.726	53.54
620.917	53.74
621.109	53.68
621.301	53.71
621.492	53.58
621.684	53.36
621.875	53.26
622.067	54.08
622.258	54.41
622.45	54.54
622.641	55.08
622.832	54.77
623.024	54.57
623.215	54.59
623.407	54.57
623.598	53.85
623.789	54.05
623.981	53.9
624.172	53.69
624.363	53.4
624.555	52.84
624.746	51.94
624.937	51.99
625.129	51.88
625.32	51.54
625.511	51.57
625.702	51.91
625.893	51.57
626.085	51.92
626.276	51.41
626.467	51.28
626.658	51.31
626.849	51.99
627.04	52.34
627.231	52.38
627.422	52.5
627.614	52.64
627.805	52.91
627.996	53.09
628.187	53.3
628.378	53.52
628.569	53.55
628.76	53.98
628.951	53.67
629.142	54.04
629.332	54.48
629.523	54.68
629.714	54.6
629.905	54.93
630.096	54.82
630.287	54.79
630.478	55.28
630.669	55.1
630.859	54.86
631.05	55.01
631.241	54.42
631.432	54.11
631.623	53.48
631.813	53.08
632.004	51.92
632.195	51.55
632.385	51.31
632.576	50.89
632.767	51.34
632.957	51.27
633.148	51.2
633.339	51.16
633.529	51.06
633.72	51.29
633.91	51.23
634.101	51.8
634.292	52.09
634.482	51.99
634.673	52.39
634.863	52.31
635.054	51.87
635.244	51.8
635.435	51.66
635.625	51.69
635.815	51.97
636.006	52.49
636.196	52.65
636.387	52.7
636.577	52.88
636.767	52.44
636.958	52.04
637.148	52.2
637.338	52.16
637.529	52.43
637.719	52.46
637.909	52.89
638.099	52.97
638.29	53.29
638.48	53.33
638.67	53.3
638.86	53.31
639.05	53.46
639.241	53.84
639.431	53.62
639.621	53.75
639.811	54.1
640.001	53.66
640.191	53.71
640.381	53.51
640.571	53.58
640.761	53.55
640.951	53.59
641.141	53.83
641.331	53.71
641.521	54.44
641.711	54.92
641.901	55.01
642.091	55.38
642.281	55.13
642.471	54.72
642.661	54.47
642.851	54.69
643.041	54.85
643.231	55.23
643.42	55.58
643.61	55.07
643.8	54.35
643.99	54.6
644.18	53.69
644.369	53.89
644.559	54.1
644.749	55.02
644.939	54.67
645.128	54.73
645.318	54.12
645.508	54.27
645.697	54.5
645.887	54.6
646.076	53.98
646.266	54.74
646.456	54.14
646.645	54.34
646.835	53.84
647.024	54.05
647.214	54.2
647.403	53.93
647.593	53.3
647.782	53.27
647.972	53.36
648.161	53.4
648.351	53.22
648.54	53.56
648.73	53.27
648.919	53.09
649.108	52.89
649.298	52.87
649.487	53.77
649.677	54.05
649.866	54.14
650.055	54.64
650.244	54.78
650.434	54.96
650.623	54.78
650.812	54.79
651.002	55.03
651.191	55.35
651.38	55.55
651.569	54.84
651.758	54.66
651.947	54.63
652.137	54.54
652.326	54.55
652.515	54.04
652.704	54.61
652.893	54.7
653.082	54.1
653.271	54.38
653.46	53.75
653.649	54.53
653.838	54.79
654.027	54.89
654.216	54.6
654.405	54.55
654.594	55.23
654.783	55.44
654.972	55.11
655.161	55.34
655.35	54.83
655.539	55.12
655.728	54.47
655.916	54.58
656.105	53.88
656.294	53.74
656.483	53.33
656.672	53
656.86	52.52
657.049	52.71
657.238	52.67
657.427	52.66
657.615	52.55
657.804	52.37
657.993	51.66
658.181	51.81
658.37	51.98
658.559	52.12
658.747	51.76
658.936	51.74
659.125	51.29
659.313	51.33
659.502	51.4
659.69	51.44
659.879	51.26
660.067	51.68
660.256	51.95
660.444	52.01
660.633	52.16
660.821	52.42
661.01	52.27
661.198	53.09
661.387	53.16
661.575	53.46
661.763	53.79
661.952	54.63
662.14	54.8
662.328	54.86
662.517	55.16
662.705	54.91
662.893	55.4
663.082	55.93
663.27	56.05
663.458	56.78
663.646	56.67
663.834	56.44
664.023	56.41
664.211	56.27
664.399	56.29
664.587	55.53
664.775	56.26
664.963	56.46
665.152	56.12
665.34	56.25
665.528	56.32
665.716	56.46
665.904	57
666.092	57.24
666.28	57.84
666.468	58.03
666.656	58.33
666.844	58.21
667.032	58.33
667.22	58.55
667.408	58.32
667.596	58.24
667.784	58.52
667.971	58.18
668.159	58.23
668.347	57.34
668.535	57.08
668.723	56.94
668.911	56.88
669.098	56.31
669.286	56.01
669.474	56.22
669.662	55.84
669.849	55.68
670.037	55.85
670.225	55.92
670.413	56.59
670.6	56.76
670.788	56.88
670.976	57.19
671.163	56.57
671.351	56.84
671.538	56.65
671.726	56.93
671.913	56.71
672.101	56.43
672.289	56.08
672.476	55.39
672.664	55.85
672.851	55.93
673.039	55.74
673.226	56.14
673.413	56.57
673.601	57.34
673.788	56.84
673.976	56.96
674.163	56.68
674.35	56.78
674.538	57.55
674.725	57.1
674.912	57
675.1	57.33
675.287	58.25
675.474	57.78
675.662	56.74
675.849	57.21
676.036	57.23
676.223	58.21
676.411	58.21
676.598	58.18
676.785	58.53
676.972	58.67
677.159	57.53
677.346	57.26
677.533	57.17
677.721	57.78
677.908	57.08
678.095	56.72
678.282	56.15
678.469	56.54
678.656	55.54
678.843	54.94
679.03	54.93
679.217	55.28
679.404	54.79
679.591	54.75
679.778	54.79
679.964	54.72
680.151	54.76
680.338	55.02
680.525	54.26
680.712	54.86
680.899	54.68
681.086	55.01
681.272	55.01
681.459	55.58
681.646	56.15
681.833	55.42
682.02	55.93
682.206	56.42
682.393	56.82
682.58	56.69
682.766	56.34
682.953	57.11
683.14	56.7
683.326	57.24
683.513	57.28
683.7	57.06
683.886	56.62
684.073	56.35
684.259	56.04
684.446	55.34
684.632	56.07
684.819	56.38
685.005	56.2
685.192	56.14
685.378	56.32
685.565	56.28
685.751	55.96
685.938	56.85
686.124	57.61
686.31	57.55
686.497	57.33
686.683	57.35
686.87	57.42
687.056	57.91
687.242	58.3
687.429	58.02
687.615	57.73
687.801	57.73
687.987	57.49
688.174	57.09
688.36	56.75
688.546	57.37
688.732	56.63
688.918	56.41
689.105	56.26
689.291	55.71
689.477	56.01
689.663	56.8
689.849	57.12
690.035	57.15
690.221	57.41
690.407	57.94
690.593	58.11
690.779	58.9
690.965	59.4
691.151	59.24
691.337	59.77
691.523	59.01
691.709	58.96
691.895	58.77
692.081	59.19
692.267	59.29
692.453	59.64
692.639	58.78
692.825	58.75
693.011	59.32
693.196	59.5
693.382	59.03
693.568	58.88
693.754	58.43
693.94	58.52
694.125	57.79
694.311	56.77
694.497	56.04
694.682	56.81
694.868	57.08
695.054	56.57
695.239	56.55
695.425	56.34
695.611	56.88
695.796	56.67
695.982	56.64
696.168	56.4
696.353	56.48
696.539	57.26
696.724	56.47
696.91	56
697.095	56.16
697.281	55.99
697.466	56.44
697.652	56.32
697.837	56.29
698.023	55.7
698.208	55.05
698.393	55.62
698.579	54.89
698.764	54.95
698.949	54.79
699.135	54.78
699.32	54.56
699.505	54.77
699.691	54.97
699.876	54.83
700.061	55.09
700.246	56.83
700.432	56.3
700.617	57.23
700.802	58.03
700.987	58.32
701.172	59.15
701.358	59.12
701.543	58.85
701.728	58.91
701.913	60.2
702.098	61.61
702.283	61.78
702.468	61.95
702.653	61.63
702.838	61.58
703.023	61.93
703.208	61.33
703.393	61.86
703.578	62.05
703.763	62.7
703.948	62.17
704.133	62.05
704.318	61.75
704.503	61.85
704.688	61.66
704.873	60.99
705.057	62.05
705.242	62.69
705.427	63.25
705.612	64.43
705.797	63.52
705.981	63.45
706.166	63.61
706.351	64.46
706.536	65.59
706.72	65.63
706.905	65.34
707.09	65.1
707.274	65.25
707.459	65.45
707.644	64.1
707.828	64.51
708.013	64.51
708.197	63.31
708.382	62.28
708.567	61.7
708.751	61.78
708.936	62.54
709.12	62.39
709.305	61.47
709.489	60.87
709.673	60.84
709.858	61.07
710.042	60.68
710.227	60.99
710.411	60.48
710.596	61.01
710.78	61.02
710.964	60.78
711.149	60.17
711.333	59.53
711.517	60.03
711.702	60.21
711.886	60.08
712.07	60.58
712.254	61.62
712.438	62.05
712.623	61.48
712.807	60.79
712.991	60.53
713.175	60.64
713.359	60.85
713.544	60.12
713.728	61.13
713.912	60.47
714.096	59.71
714.28	58.61
714.464	58.8
714.648	58.21
714.832	58.69
715.016	58.86
715.2	58.49
715.384	58.5
715.568	58.97
715.752	57.93
715.936	58.46
716.12	58.62
716.304	59.51
716.488	59.1
716.671	59.38
716.855	58.79
717.039	59.17
717.223	59.63
717.407	60.5
717.59	60.07
717.774	60.43
717.958	60.21
718.142	61.01
718.325	60.05
718.509	59.89
718.693	61.14
718.877	62.42
719.06	62.01
719.244	62.42
719.428	62.65
719.611	63.35
719.795	64.03
719.978	64.58
720.162	64.82
720.345	64.7
720.529	65.27
720.713	64.43
720.896	65.16
721.08	65.29
721.263	64.96
721.446	65.46
721.63	64.88
721.813	64.39
721.997	64.46
722.18	63.53
722.364	65.1
722.547	65.52
722.73	64.68
722.914	64.2
723.097	64.26
723.28	64.68
723.464	64.2
723.647	64.69
723.83	64.12
724.013	63.92
724.197	64.72
724.38	63.87
724.563	63.01
724.746	65.17
724.929	63.85
725.112	63.86
725.296	62.7
725.479	60.9
725.662	60.67
725.845	60.98
726.028	60.37
726.211	59.69
726.394	59.59
726.577	60.67
726.76	59.12
726.943	60.27
727.126	60.76
727.309	61.62
727.492	63.51
727.675	63.97
727.858	63.67
728.041	64.54
728.224	64.94
728.407	64.01
728.589	63.21
728.772	63.34
728.955	62.44
729.138	61.98
729.321	62.07
729.503	61.74
729.686	61.17
729.869	61.54
730.052	61.14
730.234	61.12
730.417	60.84
730.6	61.47
730.782	61.49
730.965	62.16
731.148	61.46
731.33	61.18
731.513	60.85
731.695	60.96
731.878	61.18
732.061	61.58
732.243	61.66
732.426	62.07
732.608	61.61
732.791	62.1
732.973	62.26
733.156	62.33
733.338	62.53
733.52	63.43
733.703	63.76
733.885	63.6
734.068	63.12
734.25	63.22
734.432	63.89
734.615	63.79
734.797	63.39
734.979	63.71
735.162	64.57
735.344	64.66
735.526	63.8
735.708	63.59
735.891	63.47
736.073	63.64
736.255	63.05
736.437	63.41
736.619	63.51
736.802	64.17
736.984	63.15
737.166	63.91
737.348	63.12
737.53	63.07
737.712	62.86
737.894	63.4
738.076	63.57
738.258	64.4
738.44	65.24
738.622	65.42
738.804	64.57
738.986	65.35
739.168	64.95
739.35	65.85
739.532	65.52
739.714	65.93
739.896	65.79
740.078	65.76
740.259	65.54
740.441	65.23
740.623	65.56
740.805	66.31
740.987	66.68
741.168	66.41
741.35	66.57
741.532	67.94
741.714	67.97
741.895	67.84
742.077	68.45
742.259	68.61
742.44	68.75
742.622	69.45
742.804	70.1
742.985	68.59
743.167	69.23
743.348	68.83
743.53	69.1
743.711	70.99
743.893	71.01
744.075	70.49
744.256	68.9
744.438	68.51
744.619	66.35
744.8	65.14
744.982	68.39
745.163	68.06
745.345	66.94
745.526	65.95
745.707	64.34
745.889	65.91
746.07	66.46
746.252	68.63
746.433	68.27
746.614	70.89
746.795	71.17
746.977	69.95
747.158	68.91
747.339	70.71
747.52	69.89
747.702	70.29
747.883	69.02
748.064	68.99
748.245	68.25
748.426	68.75
748.607	65.92
748.788	66.22
748.97	65.35
749.151	66.96
749.332	67.15
749.513	69.04
749.694	67.02
749.875	67.96
750.056	68.06
750.237	68.56
750.418	68.85
750.599	70.32
750.78	70.26
750.96	71.68
751.141	72.33
751.322	71.98
751.503	71.9
751.684	72.94
751.865	71.16
752.046	70.48
752.226	70.21
752.407	69.87
752.588	71.28
752.769	71.13
752.949	69.54
753.13	68.53
753.311	69.06
753.492	68
753.672	67.55
753.853	68.29
754.034	69.12
754.214	68.43
754.395	67.68
754.575	67.71
754.756	68.32
754.937	69.29
755.117	69.81
755.298	68.73
755.478	69.58
755.659	70.76
755.839	70.73
756.02	70.78
756.2	71.7
756.381	71.3
756.561	69.57
756.741	69.17
756.922	68.36
757.102	66.42
757.283	66.72
757.463	65.97
757.643	64.77
757.823	63.59
758.004	62.05
758.184	63.57
758.364	64.64
758.545	66.62
758.725	67.23
758.905	66.12
759.085	67.5
759.265	69.62
759.446	70.02
759.626	73.37
759.806	73.72
759.986	75.05
760.166	73.8
760.346	73.5
760.526	73.84
760.706	71.35
760.886	71.87
761.066	71.23
761.246	68.47
761.426	66.92
761.606	64.99
761.786	63.59
761.966	63.27
762.146	61.97
762.326	62.1
762.506	60.61
762.686	61.28
762.866	62.05
763.046	62.46
763.225	61.52
763.405	61.35
763.585	61.36
763.765	63.01
763.945	62.03
764.124	62.13
764.304	62.02
764.484	62.58
764.664	63.48
764.843	63.81
765.023	62.72
765.203	64.95
765.382	65.54
765.562	65.08
765.741	63.89
765.921	65.04
766.101	66.85
766.28	67.37
766.46	67.59
766.639	66.54
766.819	66.37
766.998	68.67
767.178	68.78
767.357	69.17
767.537	69.24
767.716	71.84
767.896	73.94
768.075	73.24
768.254	73.69
768.434	74.1
768.613	74.79
768.792	74.25
768.972	74.23
769.151	73.49
769.33	74.68
769.51	76.28
769.689	74.18
769.868	73.24
770.047	74.6
770.226	75.13
770.406	77.02
770.585	78.72
770.764	80.28
770.943	80.11
771.122	79.64
771.301	78.86
771.48	78.44
771.66	79.45
771.839	79.8
772.018	79.51
772.197	78.48
772.376	75.23
772.555	73.79
772.734	72.54
772.913	72.63
773.092	74.11
773.271	74.33
773.449	75.13
773.628	75.21
773.807	74.77
773.986	74.8
774.165	74.15
774.344	76.8
774.523	78.05
774.701	75.89
774.88	76.16
775.059	77.54
775.238	79.33
775.417	77.71
775.595	77.11
775.774	76.2
775.953	73.83
776.131	72.97
776.31	71.94
776.489	71.32
776.667	74.55
776.846	75.55
777.025	71.96
777.203	70.99
777.382	72.94
777.56	72.32
777.739	71.71
777.917	73.68
778.096	76.36
778.274	76.5
778.453	77.38
778.631	74.97
778.81	73.48
778.988	74.68
779.166	75.26
779.345	74.22
779.523	75.52
779.702	75.04
779.88	73.32
780.058	71.06
780.237	73.95
780.415	74.04
780.593	77.08
780.771	77.54
780.95	78.56
781.128	76.98
781.306	77.58
781.484	78.98
781.662	79.38
781.841	80.09
782.019	81.96
782.197	77.56
782.375	77.5
782.553	76.65
782.731	78.44
782.909	79.19
783.087	82.5
783.265	82.29
783.443	80.42
783.621	82.92
783.799	83.6
783.977	83.02
784.155	84.31
784.333	84.31
784.511	86.19
784.689	83.36
784.867	80.55
785.045	79.41
785.223	77.13
785.4	78.14
785.578	77.19
785.756	77.44
785.934	77.26
786.112	78.18
786.289	78.66
786.467	76.48
786.645	78.91
786.823	79.67
787	79
787.178	80.33
787.356	81.03
787.533	80.85
787.711	78.71
787.889	79.6
788.066	78.03
788.244	77.42
788.421	78.37
788.599	75.52
788.776	75.28
788.954	75.5
789.131	74.72
789.309	72.53
789.486	72.9
789.664	74.48
789.841	73.54
790.019	76.09
790.196	77.61
790.373	76.7
790.551	79.15
790.728	79.56
790.906	80.56
791.083	80.83
791.26	83.07
791.437	83.94
791.615	83.56
791.792	83.97
791.969	83.78
792.146	82.16
792.324	82.66
792.501	82.72
792.678	84.1
792.855	81.06
793.032	82.83
793.209	83.95
793.387	84.3
793.564	82.44
793.741	81.47
793.918	80.22
794.095	81.78
794.272	84.05
794.449	83.24
794.626	82.04
794.803	84.49
794.98	83.5
795.157	80.6
795.334	79.23
795.511	78.44
795.688	79.36
795.864	80.62
796.041	80.81
796.218	78.1
796.395	76.19
796.572	75.87
796.749	75.6
796.925	74.54
797.102	72.85
797.279	74.74
797.456	75.52
797.632	76.26
797.809	75.53
797.986	73.56
798.162	73.1
798.339	75.41
798.516	76.35
798.692	75.59
798.869	76.94
799.046	78.7
799.222	75.84
799.399	77.68
799.575	78.54
799.752	78.77
799.928	80.82
800.105	81.15
800.281	78.33
800.458	76.24
800.634	77.83
800.811	78.64
800.987	78.34
801.163	79.86
801.34	81.51
801.516	78.7
801.692	80.6
801.869	79.5
802.045	80.28
802.221	82.71
802.398	85.48
802.574	86.27
802.75	84.42
802.926	84.71
803.103	87.3
803.279	85.54
803.455	89.82
803.631	90.65
803.807	91.79
803.983	90.62
804.16	89.88
804.336	90.49
804.512	88.2
804.688	93.55
804.864	97.5
805.04	94.33
805.216	95.3
805.392	96.41
805.568	90.95
805.744	90.67
805.92	94.48
806.096	93.02
806.272	93.41
806.448	91.83
806.623	90.88
806.799	89.57
806.975	90.98
807.151	88.59
807.327	88.79
807.503	88.69
807.678	89.25
807.854	86.56
808.03	87.21
808.206	84.99
808.381	86.12
808.557	83.66
808.733	83.77
808.908	81.19
809.084	83.52
809.26	81.26
809.435	84.9
809.611	85.21
809.787	88.16
809.962	90.7
810.138	89.94
810.313	91.26
810.489	94.47
810.664	95.25
810.84	100.22
811.015	100.33
811.191	99.79
811.366	98.97
811.542	97.85
811.717	97.63
811.892	93.9
812.068	96.87
812.243	94.4
812.419	93.11
812.594	92.14
812.769	88.98
812.944	90.31
813.12	89.01
813.295	88.92
813.47	90.35
813.645	89.85
813.821	91.39
813.996	90.79
814.171	92.45
814.346	93.29
814.521	95.63
814.697	95.24
814.872	93.98
815.047	97.28
815.222	93.94
815.397	90.87
815.572	90.86
815.747	91.54
815.922	90.69
816.097	94.26
816.272	89.91
816.447	90.22
816.622	91
816.797	91.21
816.972	91.71
817.147	90.03
817.322	90.93
817.496	89.24
817.671	88.25
817.846	87.37
818.021	85.4
818.196	85.01
818.371	84.46
818.545	84.38
818.72	82.78
818.895	79.9
819.069	80.75
819.244	81.21
819.419	78.61
819.594	79.13
819.768	77.19
819.943	74.15
820.117	72.84
820.292	69.13
820.467	65.65
820.641	63.51
820.816	61.47
820.99	60.81
821.165	59.39
821.339	58.1
821.514	56.99
821.688	56.05
821.863	55.76
822.037	55.17
822.212	54.49
822.386	54.68
822.56	54.55
822.735	54.53
822.909	54.29
823.084	53.43
823.258	54.76
823.432	53.43
823.606	53.92
823.781	53.34
823.955	53.89
824.129	53.99
824.303	54.12
824.478	55.13
824.652	55.51
824.826	56.36
825	57.34
825.174	56.65
825.348	57.48
825.523	57.77
825.697	58.38
825.871	58.47
826.045	60.07
826.219	60.03
826.393	60.28
826.567	60.71
826.741	59.7
826.915	61.27
827.089	61.32
827.263	61.44
827.437	62.19
827.611	63.3
827.784	64.34
827.958	64.06
828.132	65.69
828.306	66.63
828.48	66.3
828.654	68.48
828.827	68.36
829.001	68.49
829.175	72.23
829.349	74.88
829.522	77.29
829.696	78.64
829.87	80.97
830.044	83.65
830.217	83.84
830.391	86.83
830.565	88.05
830.738	89.53
830.912	92.23
831.085	93.24
831.259	91.7
831.432	89.29
831.606	89.24
831.779	86.43
831.953	81.57
832.126	81.06
832.3	78.76
832.473	76.35
832.647	72.58
832.82	72.52
832.994	69.12
833.167	67.3
833.34	66.66
833.514	66.02
833.687	66.23
833.86	66.15
834.034	66.22
834.207	68.19
834.38	68.18
834.553	71.41
834.727	70.26
834.9	70.34
835.073	72.05
835.246	72.23
835.419	72.07
835.593	73.12
835.766	75.64
835.939	75.26
836.112	72.58
836.285	74.82
836.458	74.06
836.631	77.52
836.804	81.76
836.977	82.86
837.15	85.69
837.323	86.4
837.496	86.78
837.669	86.72
837.842	86.48
838.015	89.98
838.188	88.58
838.361	87.16
838.533	83.12
838.706	82.07
838.879	81.15
839.052	81.08
839.225	83.12
839.398	83.94
839.57	86.14
839.743	90.07
839.916	88.63
840.088	88.88
840.261	91.11
840.434	91.83
840.607	92.13
840.779	92.72
840.952	94.79
841.124	91.44
841.297	92.34
841.47	92.92
841.642	92.17
841.815	93.45
841.987	94.74
842.16	95.12
842.332	98.65
842.505	100.19
842.677	98.5
842.85	97.22
843.022	100.53
843.194	104.85
843.367	102.17
843.539	104.99
843.712	106.04
843.884	108.92
844.056	113.15
844.229	119.89
844.401	119.98
844.573	123.41
844.745	121.46
844.918	123.31
845.09	121.75
845.262	122.08
845.434	124.72
845.606	127.5
845.779	126.79
845.951	120.41
846.123	116.6
846.295	115.84
846.467	120.59
846.639	120.96
846.811	125.9
846.983	121.87
847.155	121.51
847.327	112.55
847.499	111.63
847.671	112.33
847.843	114.52
848.015	114.52
848.187	115.23
848.359	112.09
848.531	112.16
848.703	108.22
848.875	107.41
849.047	111.83
849.218	116.56
849.39	116.44
849.562	116.71
849.734	116.03
849.905	116.54
850.077	115.41
850.249	120.81
850.421	117.97
850.592	119.38
850.764	120.41
850.936	122.11
851.107	118.18
851.279	123.19
851.451	117.66
851.622	115.41
851.794	112.76
851.965	116.4
852.137	108.51
852.308	110.06
852.48	112.71
852.651	114.81
852.823	115.65
852.994	126.4
853.166	115.86
853.337	121.87
853.509	123.13
853.68	122.91
853.851	120.09
854.023	119.55
854.194	117.97
854.365	114.31
854.537	113.17
854.708	111.69
854.879	108.42
855.05	106.56
855.222	103.57
855.393	105.61
855.564	107.49
855.735	103.69
855.906	106.44
856.078	109.56
856.249	110.89
856.42	112.62
856.591	107.77
856.762	107.22
856.933	113.92
857.104	121.08
857.275	121.74
857.446	124.59
857.617	134.92
857.788	136.05
857.959	142.27
858.13	140.49
858.301	139.49
858.472	147.5
858.643	140.19
858.814	142.43
858.985	131.99
859.155	132.61
859.326	132.01
859.497	126.61
859.668	127.15
859.839	122.93
860.009	123.17
860.18	121.06
860.351	119.96
860.522	129.46
860.692	125.58
860.863	126.61
861.034	120.03
861.204	117.58
861.375	123.5
861.546	120.85
861.716	125.56
861.887	127.16
862.057	131.73
862.228	124.76
862.398	123.18
862.569	121.55
862.739	127.48
862.91	133.73
863.08	135.08
863.251	126.06
863.421	121.33
863.592	127.01
863.762	127.37
863.932	127.65
864.103	127.21
864.273	114.23
864.443	119.95
864.614	113.52
864.784	113.85
864.954	112.64
865.125	115.29
865.295	128.58
865.465	112.91
865.635	110.18
865.805	113.88
865.976	118.75
866.146	125.13
866.316	115.23
866.486	114.54
866.656	111.97
866.826	114.3
866.996	119.02
867.166	111.18
867.336	121.06
867.506	122.43
867.676	117.24
867.846	115.75
868.016	117.7
868.186	126.77
868.356	134.88
868.526	133.18
868.696	128.58
868.866	126.22
869.036	126.97
869.206	124.87
869.376	121.84
869.545	117.87
869.715	121.43
869.885	117.97
870.055	119.18
870.224	111.4
870.394	119.85
870.564	128.98
870.734	127.5
870.903	126.87
871.073	123.87
871.243	131.48
871.412	129.63
871.582	130.19
871.751	135.71
871.921	143.85
872.091	141.89
872.26	142.58
872.43	134.79
872.599	140.07
872.769	138.68
872.938	136.98
873.108	134.18
873.277	130.42
873.446	123.97
873.616	122.54
873.785	115.06
873.955	118.66
874.124	108.84
874.293	115.48
874.463	112.09
874.632	110.38
874.801	110.08
874.971	110.76
875.14	113.26
875.309	117.27
875.478	114
875.647	115.87
875.817	112.61
875.986	121.37
876.155	113.34
876.324	104.28
876.493	108.53
876.662	113.87
876.831	110.99
877	114.16
877.17	114.91
877.339	115.02
877.508	111.52
877.677	111.45
877.846	113.11
878.015	119.77
878.184	126.16
878.352	127.63
878.521	114.35
878.69	107.99
878.859	106.02
879.028	98.59
879.197	96.43
879.366	97.97
879.534	95.72
879.703	96.2
879.872	94.89
880.041	93.97
880.21	90.37
880.378	91.87
880.547	89.74
880.716	85.7
880.884	82.97
881.053	82.32
881.222	78.68
881.39	78.45
881.559	72.94
881.727	68.71
881.896	68.56
882.065	65.77
882.233	66.39
882.402	67.43
882.57	67.58
882.739	69.71
882.907	68.39
883.076	68.55
883.244	67.68
883.412	69.03
883.581	70.77
883.749	69.51
883.918	73.12
884.086	72.99
884.254	74.36
884.423	75.22
884.591	76.17
884.759	78.3
884.927	78.41
885.096	81.76
885.264	82.11
885.432	86.42
885.6	90.55
885.769	91.13
885.937	91.71
886.105	93.37
886.273	101.93
886.441	105.22
886.609	108.29
886.777	112.52
886.945	114.9
887.113	118.91
887.281	113.3
887.449	114.58
887.617	115.04
887.785	115.17
887.953	118.03
888.121	113.16
888.289	107.77
888.457	109.06
888.625	110.1
888.793	104.25
888.961	108.63
889.129	102.53
889.296	108.07
889.464	107.21
889.632	110.33
889.8	107.86
889.967	110.86
890.135	118.51
