Data from JASIL_3014_Reflection_02.txt Node
Date: Mon Nov 09 10:37:26 EST 2015
User: Geneva
Spectrometer: USB4E03002
Autoset integration time: false
Trigger mode: 4
Integration Time (sec): 1.000000E-1
Scans to average: 10
Electric dark correction enabled: false
Nonlinearity correction enabled: false
Boxcar width: 5
Stray light correction enabled: false
XAxis mode: Wavelengths
Stop averaging: false
Number of Pixels in Spectrum: 3648
>>>>>Begin Spectral Data<<<<<
177.575	142.38
177.794	139.93
178.014	131.35
178.233	182.13
178.452	176.33
178.672	592.98
178.891	1039.13
179.11	90.24
179.33	1654.55
179.549	179.49
179.768	142.97
179.987	612.5
180.207	-526.67
180.426	-561.19
180.645	-105.88
180.864	-39.81
181.084	-28.23
181.303	-50.93
181.522	-44.75
181.741	-54.05
181.96	-156.6
182.179	-42.09
182.398	37.96
182.618	17.49
182.837	-6.8
183.056	-236.84
183.275	177.04
183.494	-225.56
183.713	-580
183.932	-164.89
184.151	-400
184.37	-35.6
184.589	-1783.33
184.808	264.65
185.027	191.36
185.246	116.61
185.465	48.53
185.684	84.97
185.903	51.45
186.122	31.32
186.341	71.55
186.56	67.8
186.779	177.55
186.998	-31.87
187.216	19.2
187.435	-94.79
187.654	-104.84
187.873	-95.05
188.092	-133.33
188.311	-101.25
188.53	-120.51
188.748	-117.85
188.967	-376.87
189.186	577.42
189.405	334.27
189.623	404.67
189.842	360.32
190.061	-4300
190.28	-138.3
190.498	-79.05
190.717	2.38
190.936	28.74
191.154	57.14
191.373	30.65
191.592	89.51
191.81	89.52
192.029	17.46
192.248	-51.52
192.466	41.59
192.685	-4.43
192.904	-669.57
193.122	411.59
193.341	-5320
193.559	2083.33
193.778	245.45
193.996	464.29
194.215	164.89
194.433	134.86
194.652	101.9
194.87	114.64
195.089	70.64
195.307	53.33
195.526	69.75
195.744	78.54
195.963	127.94
196.181	-538.3
196.399	-146.99
196.618	-302.19
196.836	-187.21
197.055	-158.41
197.273	-111.65
197.491	-134
197.71	-163.02
197.928	-114.94
198.146	-183.27
198.365	-288.73
198.583	-7388.89
198.801	332.3
199.019	229.34
199.238	151.07
199.456	212.65
199.674	334.48
199.892	643.52
200.111	478
200.329	469.64
200.547	-1475
200.765	181.82
200.983	65.56
201.202	135.71
201.42	108.48
201.638	100.28
201.856	243.7
202.074	231.31
202.292	582.54
202.51	288.89
202.728	2325
202.946	9.85
203.165	1147.37
203.383	-169.23
203.601	263.64
203.819	-51.16
204.037	42.5
204.255	16.5
204.473	195.49
204.691	100
204.909	-438.1
205.127	39.39
205.345	-78.43
205.562	450
205.78	-90
205.998	27.54
206.216	-66.98
206.434	-138.2
206.652	-3471.43
206.87	869.49
207.088	307.88
207.306	313.38
207.523	315.15
207.741	219.78
207.959	48.2
208.177	55.96
208.395	123.87
208.612	152.41
208.83	120.18
209.048	116.78
209.266	111.03
209.483	52.46
209.701	-27.59
209.919	8550
210.136	536.36
210.354	3333.33
210.572	-1114.89
210.79	-1111.11
211.007	155.47
211.225	201.75
211.442	421.05
211.66	-73.77
211.878	-240.79
212.095	-2054.72
212.313	-29500
212.53	-721.31
212.748	-363.03
212.966	-1839.02
213.183	-43200
213.401	-364.16
213.618	-253.4
213.836	-391.24
214.053	-502.82
214.271	-683.22
214.488	-25.59
214.705	-129.96
214.923	-154.36
215.14	-351.97
215.358	-237.99
215.575	-104.96
215.793	-596.97
216.01	-1808.33
216.227	-694.44
216.445	219.91
216.662	480.61
216.879	210.19
217.097	177.93
217.314	244.35
217.531	293.1
217.749	-18.6
217.966	73.08
218.183	43.96
218.4	64.89
218.618	89.5
218.835	56.48
219.052	81.42
219.269	87.28
219.487	96.77
219.704	132.6
219.921	140.34
220.138	220.37
220.355	148.22
220.572	7900
220.79	-107.41
221.007	-159.56
221.224	-229.17
221.441	34.23
221.658	11.85
221.875	3.73
222.092	6.62
222.309	3.63
222.526	-19.64
222.743	-10.49
222.96	8.46
223.177	17.29
223.394	5.82
223.611	10.21
223.828	15.81
224.045	32.49
224.262	38.39
224.479	29.44
224.696	31.14
224.913	30.35
225.13	28.79
225.347	23.55
225.564	12.99
225.781	6.22
225.997	13.16
226.214	9.56
226.431	11.37
226.648	8.72
226.865	13.41
227.082	15.52
227.298	16.49
227.515	14.07
227.732	14.94
227.949	13.63
228.165	14.09
228.382	12.67
228.599	15.96
228.816	11.05
229.032	5.39
229.249	-1.01
229.466	1.66
229.682	-0.2
229.899	2.34
230.116	-1.67
230.332	0.06
230.549	2.51
230.765	-0
230.982	2.27
231.199	9.3
231.415	13.34
231.632	14.01
231.848	6.16
232.065	5.11
232.281	-6.36
232.498	-5.66
232.714	5.19
232.931	12.98
233.147	9.99
233.364	10.22
233.58	6.56
233.797	7.66
234.013	7.41
234.23	2.23
234.446	6.8
234.662	9.4
234.879	5.91
235.095	5.19
235.312	3.44
235.528	6.04
235.744	5.03
235.961	11.08
236.177	4.69
236.393	3
236.61	3.02
236.826	0.38
237.042	6.22
237.258	11
237.475	3.96
237.691	0.67
237.907	2.64
238.123	4.91
238.339	5.13
238.556	11.93
238.772	14.86
238.988	12.78
239.204	15.43
239.42	9.56
239.636	7.21
239.853	7.9
240.069	3.49
240.285	-2.96
240.501	-0.81
240.717	1.69
240.933	0.1
241.149	4.26
241.365	4.57
241.581	3.31
241.797	6.62
242.013	6.86
242.229	7.31
242.445	9.66
242.661	13.95
242.877	12.74
243.093	10.82
243.309	12.01
243.525	6.85
243.741	14.95
243.957	12.54
244.173	8.54
244.388	9.02
244.604	11.4
244.82	9.36
245.036	9.38
245.252	9.74
245.468	9.08
245.683	8.83
245.899	6.24
246.115	3.03
246.331	3.19
246.547	4.35
246.762	2.56
246.978	0.75
247.194	1.59
247.409	1.18
247.625	-0.46
247.841	-1.91
248.057	1.98
248.272	3.57
248.488	3.49
248.703	-0.65
248.919	-1.7
249.135	3.93
249.35	3.39
249.566	0.8
249.782	-2.42
249.997	-6.19
250.213	-3.55
250.428	-7.02
250.644	-3.66
250.859	-1.92
251.075	5.41
251.29	5.54
251.506	5.24
251.721	3.99
251.937	3.92
252.152	6.93
252.368	15.98
252.583	15.94
252.798	16.12
253.014	15.82
253.229	20.85
253.445	14.82
253.66	11.78
253.875	4.79
254.091	3.8
254.306	8.34
254.521	5.9
254.737	-6.05
254.952	-0.91
255.167	-0.08
255.383	-7.69
255.598	-16.24
255.813	-14.44
256.028	-17.85
256.244	-9.31
256.459	-4.54
256.674	-8.24
256.889	-7.43
257.104	-1.28
257.32	-3.82
257.535	-4.11
257.75	0.4
257.965	2.77
258.18	4.12
258.395	6.39
258.61	4.43
258.826	3.62
259.041	2.92
259.256	2.14
259.471	-0.04
259.686	0.72
259.901	1.38
260.116	-1.03
260.331	0.56
260.546	1.27
260.761	0.43
260.976	1.27
261.191	0.47
261.406	4.71
261.621	5.76
261.836	6.81
262.05	4.71
262.265	3.06
262.48	5.09
262.695	-0.13
262.91	-0.68
263.125	-3.68
263.34	-7.66
263.555	-5.35
263.769	-8.63
263.984	-5.04
264.199	0.03
264.414	-3.5
264.629	-5.78
264.843	-6.06
265.058	-4.38
265.273	-4.12
265.488	-2.21
265.702	-0.97
265.917	-1.44
266.132	5.54
266.346	4
266.561	3.69
266.776	6.04
266.99	3.38
267.205	6.32
267.42	3.36
267.634	3.85
267.849	5.67
268.063	5.3
268.278	4.52
268.492	0.07
268.707	-1.28
268.922	-2.79
269.136	-0.7
269.351	1.67
269.565	-2.55
269.78	-1.18
269.994	-4.44
270.209	-4.98
270.423	-1.78
270.637	1.47
270.852	3.97
271.066	5.45
271.281	3.61
271.495	4.17
271.709	3.55
271.924	6.19
272.138	4.45
272.353	4.94
272.567	4.31
272.781	4.93
272.996	-1.15
273.21	-6.76
273.424	-4.09
273.638	-2.72
273.853	-5.58
274.067	-3.94
274.281	-5.25
274.495	-1.01
274.71	-1.88
274.924	-0.87
275.138	-2.26
275.352	0.55
275.566	4.46
275.781	2.09
275.995	2.26
276.209	2.49
276.423	2.62
276.637	2.81
276.851	3.09
277.065	4
277.279	3.8
277.493	2.63
277.707	2.52
277.921	2
278.135	1.54
278.349	2.19
278.563	1.43
278.777	1.26
278.991	1.79
279.205	0.43
279.419	0.07
279.633	1.68
279.847	1.78
280.061	0
280.275	-2.77
280.489	-3.67
280.703	-7.04
280.917	-6.38
281.131	-6.52
281.344	-8.33
281.558	-9.43
281.772	-8.35
281.986	-11.24
282.2	-10.59
282.414	-7.49
282.627	-5.72
282.841	-5.8
283.055	-3.62
283.269	-5.08
283.482	-5.19
283.696	-3.37
283.91	-1.18
284.123	-0.84
284.337	1.09
284.551	1.15
284.764	2.37
284.978	2.18
285.192	3.8
285.405	4.23
285.619	5.95
285.833	4.65
286.046	4.54
286.26	4.38
286.473	5.57
286.687	3.22
286.9	3.73
287.114	1.28
287.327	2.51
287.541	2.66
287.754	3.54
287.968	5.55
288.181	7.29
288.395	7.39
288.608	6.94
288.822	5.49
289.035	6.76
289.248	4.82
289.462	5.91
289.675	3.68
289.889	3.26
290.102	0.62
290.315	-0.32
290.529	0.54
290.742	1.34
290.955	-0.49
291.169	0.61
291.382	0.67
291.595	0.8
291.808	1.39
292.022	1.13
292.235	-1.42
292.448	0.42
292.661	2.33
292.875	0.93
293.088	-0.96
293.301	3
293.514	1
293.727	1.09
293.94	1.09
294.153	-0.01
294.367	0.82
294.58	0.94
294.793	2.61
295.006	1.21
295.219	1.22
295.432	2.58
295.645	0.93
295.858	2.21
296.071	1.44
296.284	0.41
296.497	0.96
296.71	0.34
296.923	1.84
297.136	0.57
297.349	0.32
297.562	-1.63
297.775	-3.25
297.988	-1.7
298.201	-1.83
298.414	-2.25
298.626	-1.58
298.839	-3.37
299.052	-1.6
299.265	-1.45
299.478	-2.19
299.691	-3.12
299.903	-0.15
300.116	1.91
300.329	-0.15
300.542	0.51
300.755	2.75
300.967	5.68
301.18	5.39
301.393	6.08
301.605	6.31
301.818	6.33
302.031	8.25
302.243	8
302.456	5.33
302.669	6.9
302.881	5.69
303.094	2.88
303.307	2.78
303.519	4.76
303.732	1.83
303.944	-2.52
304.157	-1.3
304.37	-2.55
304.582	-4.81
304.795	-2.96
305.007	-3.7
305.22	-2.95
305.432	-2.33
305.645	-4.26
305.857	-6.42
306.069	-5.23
306.282	-0.7
306.494	0.26
306.707	-0.57
306.919	1.91
307.132	-0.32
307.344	-1.61
307.556	-2.12
307.769	-2.44
307.981	-2.2
308.193	0.97
308.406	1.61
308.618	-0.82
308.83	-1.79
309.043	-2.08
309.255	-1.14
309.467	-0.31
309.679	-0.27
309.892	-0.09
310.104	2.04
310.316	2.87
310.528	-0.84
310.74	-1.43
310.953	0.05
311.165	0.21
311.377	1.7
311.589	1.29
311.801	2.94
312.013	4.77
312.225	5.16
312.437	4.88
312.649	4.23
312.862	7.04
313.074	6.67
313.286	7.42
313.498	8.89
313.71	11.97
313.922	9.86
314.134	8.37
314.346	6.83
314.558	6.65
314.77	5.91
314.982	5.07
315.193	6.41
315.405	7.84
315.617	6.87
315.829	7.76
316.041	5.77
316.253	6.88
316.465	7.24
316.677	9.47
316.888	8.76
317.1	11.04
317.312	10.37
317.524	8.36
317.736	8.78
317.947	10.43
318.159	12.39
318.371	12.53
318.583	15.52
318.794	18.12
319.006	14.31
319.218	14.24
319.43	12.17
319.641	13.65
319.853	16.34
320.064	15.66
320.276	14.99
320.488	10.62
320.699	10.6
320.911	8.39
321.123	4.72
321.334	5.96
321.546	7.94
321.757	10.41
321.969	12.67
322.18	10.27
322.392	11.51
322.603	10.86
322.815	10.23
323.026	8.16
323.238	9.5
323.449	9.12
323.661	12.49
323.872	10.97
324.083	9.1
324.295	8.36
324.506	6.83
324.718	6.38
324.929	5.44
325.14	5.25
325.352	5.27
325.563	4.63
325.774	6.03
325.986	3.87
326.197	4.45
326.408	4.01
326.62	3.83
326.831	6.76
327.042	7.2
327.253	8.98
327.464	11.21
327.676	11.73
327.887	9.85
328.098	9.96
328.309	7.53
328.52	9.75
328.732	10.19
328.943	9.31
329.154	9.51
329.365	5.66
329.576	3.11
329.787	0.85
329.998	1.23
330.209	1.29
330.42	3.16
330.631	7.99
330.842	5.11
331.053	7.5
331.264	8.4
331.475	7.98
331.686	13.03
331.897	16.15
332.108	14.87
332.319	16.86
332.53	19.21
332.741	18.9
332.952	17.62
333.163	18.07
333.374	18
333.585	17.9
333.795	16.95
334.006	17.63
334.217	15.3
334.428	16.26
334.639	13.56
334.849	12.36
335.06	10.34
335.271	11.01
335.482	12.72
335.692	10.97
335.903	10.56
336.114	10.15
336.325	10.56
336.535	14.54
336.746	14.77
336.957	14.94
337.167	15.22
337.378	15.49
337.589	14.29
337.799	13.41
338.01	15.04
338.22	18.17
338.431	18.37
338.642	15.11
338.852	10.74
339.063	9.83
339.273	11.4
339.484	11.42
339.694	10.98
339.905	10.57
340.115	11.19
340.326	9.75
340.536	7.58
340.746	7
340.957	7.65
341.167	10.65
341.378	12.62
341.588	12.44
341.799	10.95
342.009	11.58
342.219	12.3
342.43	12.31
342.64	14
342.85	16.45
343.061	17.67
343.271	17.51
343.481	15.81
343.691	14.46
343.902	13.96
344.112	15.21
344.322	15.84
344.532	16.12
344.743	13.92
344.953	11.68
345.163	10.83
345.373	11.79
345.583	14.28
345.793	14.41
346.004	14.55
346.214	14.63
346.424	14.73
346.634	13.89
346.844	15.08
347.054	16.56
347.264	17.66
347.474	17.61
347.684	17.25
347.894	14.75
348.104	17.44
348.314	17.44
348.524	16.3
348.734	16.79
348.944	16.62
349.154	16.05
349.364	16.74
349.574	16.48
349.784	13.24
349.994	12.62
350.204	14.71
350.413	11.63
350.623	12.16
350.833	12.32
351.043	9.73
351.253	11.02
351.463	10.6
351.672	9.93
351.882	9.01
352.092	10.97
352.302	11.64
352.511	9.98
352.721	11.78
352.931	12.15
353.141	12.67
353.35	14.99
353.56	17.41
353.77	16.83
353.979	17.24
354.189	17.77
354.399	19.83
354.608	20.36
354.818	19.01
355.027	15.85
355.237	15.33
355.447	15.59
355.656	13.45
355.866	9.67
356.075	10.65
356.285	10.53
356.494	10.82
356.704	9.26
356.913	7.13
357.123	9.41
357.332	12.09
357.542	12.16
357.751	11.99
357.96	12.88
358.17	14.65
358.379	13.53
358.589	13.62
358.798	12.8
359.007	14.15
359.217	14.7
359.426	14.72
359.635	13.92
359.845	14.27
360.054	13.79
360.263	13.41
360.472	13.17
360.682	14.62
360.891	14.26
361.1	15.45
361.309	14.31
361.519	14.35
361.728	13.36
361.937	13.28
362.146	12.21
362.355	12.49
362.564	14.17
362.774	14.67
362.983	14.52
363.192	14.65
363.401	13.97
363.61	13.95
363.819	13.85
364.028	13.89
364.237	14.3
364.446	14.78
364.655	14.32
364.864	14.59
365.073	13.47
365.282	11.8
365.491	12.45
365.7	14.39
365.909	15.32
366.118	16.56
366.327	17.1
366.536	17.95
366.745	18.63
366.954	19.55
367.162	17.4
367.371	18.12
367.58	17.2
367.789	16.45
367.998	13.51
368.207	12.67
368.415	11.48
368.624	9.35
368.833	8.38
369.042	7.46
369.25	6.75
369.459	7.8
369.668	7.36
369.877	7.25
370.085	7.49
370.294	8.76
370.503	7.63
370.711	7.4
370.92	8.4
371.129	7.19
371.337	8.29
371.546	9.1
371.754	9.83
371.963	8.84
372.171	10.79
372.38	10.94
372.589	12.02
372.797	12.37
373.006	12.81
373.214	13.68
373.423	15.9
373.631	15.87
373.84	15.23
374.048	14.6
374.256	15.4
374.465	15.86
374.673	16.25
374.882	15.3
375.09	16.21
375.298	15.67
375.507	16.17
375.715	15.18
375.923	15.1
376.132	16.58
376.34	16.26
376.548	16.29
376.757	15.35
376.965	15.61
377.173	14.83
377.381	15.71
377.59	15.34
377.798	14.38
378.006	14.95
378.214	14.95
378.423	14.23
378.631	15.17
378.839	15.19
379.047	15.77
379.255	15.25
379.463	14.15
379.671	12.4
379.879	12.96
380.088	13.48
380.296	12.88
380.504	11.98
380.712	11.56
380.92	10.53
381.128	10.65
381.336	9.32
381.544	9.62
381.752	10.57
381.96	10.79
382.168	11.35
382.376	12.17
382.584	11.95
382.791	12.93
382.999	12.87
383.207	13.62
383.415	13.88
383.623	14.18
383.831	12.04
384.039	13.66
384.247	13.71
384.454	12.92
384.662	12.56
384.87	14.03
385.078	13.49
385.285	13.48
385.493	11.94
385.701	11.47
385.909	12.19
386.116	12.14
386.324	10.54
386.532	10.69
386.739	11.5
386.947	11.76
387.155	10.52
387.362	9.92
387.57	9.89
387.778	11.17
387.985	11.31
388.193	11.07
388.4	12.97
388.608	13.99
388.816	13.29
389.023	13.26
389.231	12.82
389.438	12.39
389.646	11.72
389.853	11.75
390.061	12.36
390.268	13.32
390.475	13.71
390.683	13.42
390.89	12.27
391.098	13.27
391.305	13.07
391.512	13.17
391.72	13.26
391.927	14.55
392.135	15.45
392.342	14.77
392.549	13.07
392.756	12.39
392.964	12.48
393.171	13.52
393.378	13.39
393.586	13.75
393.793	13.46
394	13.51
394.207	14.07
394.414	13.59
394.622	14.33
394.829	14.36
395.036	15.73
395.243	15.96
395.45	15.42
395.657	15.36
395.864	15.02
396.072	14.33
396.279	14.09
396.486	14.14
396.693	14.63
396.9	13.45
397.107	14.33
397.314	12.95
397.521	12.35
397.728	12.2
397.935	11.8
398.142	12.43
398.349	12.21
398.556	12.07
398.763	10.72
398.97	9.93
399.177	8.97
399.383	9.4
399.59	8.8
399.797	9.17
400.004	10.38
400.211	10.96
400.418	8.69
400.625	9.54
400.831	9.72
401.038	11.01
401.245	12.76
401.452	13.45
401.658	12.53
401.865	14.26
402.072	14.96
402.279	14.98
402.485	14.08
402.692	15.45
402.899	15.37
403.105	15.95
403.312	16.44
403.519	15.94
403.725	17.15
403.932	17.61
404.138	17.61
404.345	16.11
404.552	15.15
404.758	15.79
404.965	15.48
405.171	15.83
405.378	14.98
405.584	13.66
405.791	13.11
405.997	12.28
406.204	12.6
406.41	12.02
406.617	12.65
406.823	13.25
407.029	12.98
407.236	14.04
407.442	13.53
407.649	14.41
407.855	15.02
408.061	14.57
408.268	14.71
408.474	13.99
408.68	13.78
408.887	13.9
409.093	13.75
409.299	12.97
409.505	12.56
409.712	12.37
409.918	13.16
410.124	13.7
410.33	12.77
410.537	12.81
410.743	12.78
410.949	12.59
411.155	13.24
411.361	13.49
411.567	14.27
411.773	14.77
411.98	14.21
412.186	13.46
412.392	13.3
412.598	13.58
412.804	13.17
413.01	14.29
413.216	14.28
413.422	14.98
413.628	14.83
413.834	14.09
414.04	13.4
414.246	14.18
414.452	14.82
414.658	14.45
414.864	15.47
415.07	15.61
415.275	14.42
415.481	14.69
415.687	13.97
415.893	13.24
416.099	14.08
416.305	13.18
416.511	13.65
416.716	13.13
416.922	12.48
417.128	11.96
417.334	12.26
417.539	12.71
417.745	13.04
417.951	12.75
418.157	13.36
418.362	12.9
418.568	13.09
418.774	12.37
418.979	11.98
419.185	12.86
419.391	12.73
419.596	12.31
419.802	12.31
420.008	11.82
420.213	11.42
420.419	11.05
420.624	11.04
420.83	11.04
421.035	10.94
421.241	11.6
421.446	10.9
421.652	10.94
421.857	10.89
422.063	10.79
422.268	10.77
422.474	10.95
422.679	10.56
422.885	10.71
423.09	10.46
423.295	10.48
423.501	9.86
423.706	10.15
423.911	10.41
424.117	10.82
424.322	10.59
424.527	10.62
424.733	11.01
424.938	11.98
425.143	12.32
425.349	12.85
425.554	12.84
425.759	13.4
425.964	13.76
426.169	14.44
426.375	13.62
426.58	14.41
426.785	14.16
426.99	14.23
427.195	13.82
427.4	13.07
427.605	12.96
427.811	13.6
428.016	12.9
428.221	12.69
428.426	11.69
428.631	12.36
428.836	11.9
429.041	12.26
429.246	12.37
429.451	12.03
429.656	11.93
429.861	12.16
430.066	12.32
430.271	12.9
430.476	13.32
430.681	13.46
430.886	13.73
431.09	13.28
431.295	13.66
431.5	13.25
431.705	13.37
431.91	13.25
432.115	13.39
432.32	12.49
432.524	12.58
432.729	12.28
432.934	12.13
433.139	12.16
433.343	12.66
433.548	12.16
433.753	11.98
433.958	12.67
434.162	13.06
434.367	12.92
434.572	13.39
434.776	12.93
434.981	12.52
435.186	12.09
435.39	11.65
435.595	11.62
435.799	12.01
436.004	12.9
436.209	11.98
436.413	11.86
436.618	11.45
436.822	11.69
437.027	11.73
437.231	11.93
437.436	12.21
437.64	12.4
437.845	12.4
438.049	12.16
438.253	11.63
438.458	12.13
438.662	11.98
438.867	11.98
439.071	11.88
439.275	11.92
439.48	11.77
439.684	11.91
439.888	12.09
440.093	11.39
440.297	10.87
440.501	10.6
440.706	10.17
440.91	10.71
441.114	10.76
441.318	11.27
441.523	11.17
441.727	11.13
441.931	11.33
442.135	11.19
442.339	11.65
442.543	12.44
442.748	13.25
442.952	13.31
443.156	13.08
443.36	13.68
443.564	13.36
443.768	13.45
443.972	13.48
444.176	13.05
444.38	12.93
444.584	13.51
444.788	13.56
444.992	13.38
445.196	13.43
445.4	13.5
445.604	12.64
445.808	12.19
446.012	12.09
446.216	11.77
446.42	11.75
446.624	11.76
446.828	11.21
447.032	11.1
447.235	10.65
447.439	10.27
447.643	10.27
447.847	10.43
448.051	11.07
448.254	10.73
448.458	10.96
448.662	11.28
448.866	10.76
449.069	10.2
449.273	9.93
449.477	10.5
449.681	11.55
449.884	12.04
450.088	12.13
450.292	12.35
450.495	12.76
450.699	13
450.902	13.03
451.106	13.53
451.31	13.87
451.513	13.96
451.717	13.77
451.92	12.79
452.124	12.33
452.327	12.6
452.531	12.17
452.734	12.28
452.938	11.97
453.141	11.7
453.345	11.74
453.548	11.98
453.752	12.2
453.955	12.6
454.158	13
454.362	12.77
454.565	13.14
454.769	12.94
454.972	12.92
455.175	12.81
455.379	12.74
455.582	12.61
455.785	13.03
455.988	12.9
456.192	12.25
456.395	12.48
456.598	12.69
456.801	12.11
457.005	12.34
457.208	12.28
457.411	12.42
457.614	12.71
457.817	12.83
458.021	12.81
458.224	12.59
458.427	13.04
458.63	12.85
458.833	12.83
459.036	13.18
459.239	12.91
459.442	12.7
459.645	12.57
459.848	12.46
460.051	12.4
460.254	12.29
460.457	12.07
460.66	11.98
460.863	11.87
461.066	11.57
461.269	11.99
461.472	11.91
461.675	12.05
461.878	12.42
462.081	12.91
462.284	12.86
462.486	13.17
462.689	13.38
462.892	13.53
463.095	13.67
463.298	13.68
463.5	13.09
463.703	13.06
463.906	13.37
464.109	13.43
464.311	12.99
464.514	12.88
464.717	12.51
464.92	12.83
465.122	12.15
465.325	12.64
465.528	12.92
465.73	12.83
465.933	13.45
466.135	13.29
466.338	12.98
466.541	13.03
466.743	13
466.946	13
467.148	12.48
467.351	12.56
467.553	12.11
467.756	11.83
467.958	11.77
468.161	11.36
468.363	12.04
468.566	12.62
468.768	12.58
468.971	12.88
469.173	12.74
469.375	13.41
469.578	13.48
469.78	13.23
469.983	13.79
470.185	14.69
470.387	14.41
470.59	13.93
470.792	13.7
470.994	14.22
471.196	13.93
471.399	14.75
471.601	14.59
471.803	14.34
472.005	14.95
472.208	14.51
472.41	13.9
472.612	14.53
472.814	14.81
473.016	15.35
473.218	15.06
473.421	15.1
473.623	14.48
473.825	14.74
474.027	14.98
474.229	14.79
474.431	14.66
474.633	14.73
474.835	14.54
475.037	14.65
475.239	14.2
475.441	13.75
475.643	13.61
475.845	13.37
476.047	12.94
476.249	13.04
476.451	12.93
476.653	13.34
476.855	13.19
477.057	12.83
477.258	12.5
477.46	12.53
477.662	12.64
477.864	12.76
478.066	13.53
478.268	13.51
478.469	13.12
478.671	13.31
478.873	12.87
479.075	12.87
479.276	13.78
479.478	13.45
479.68	13.66
479.882	13.68
480.083	13.44
480.285	12.97
480.487	13.02
480.688	13
480.89	12.88
481.091	12.28
481.293	11.99
481.495	11.49
481.696	11.35
481.898	10.95
482.099	10.88
482.301	10.9
482.502	10.76
482.704	10.65
482.905	10.77
483.107	10.54
483.308	10.8
483.51	10.78
483.711	10.76
483.913	10.79
484.114	10.73
484.315	10.67
484.517	10.7
484.718	10.59
484.92	10.76
485.121	10.66
485.322	10.8
485.524	10.92
485.725	11.12
485.926	11.37
486.127	11.26
486.329	11.23
486.53	11.25
486.731	11.36
486.932	11.57
487.134	11.5
487.335	11.6
487.536	11.79
487.737	11.51
487.938	11.52
488.139	11.25
488.341	11.61
488.542	11.83
488.743	12.06
488.944	12.17
489.145	12.03
489.346	11.92
489.547	11.7
489.748	11.52
489.949	11.65
490.15	11.53
490.351	11.48
490.552	11.28
490.753	11.22
490.954	11.09
491.155	11.2
491.356	11.17
491.557	11.34
491.758	11.77
491.959	11.84
492.159	12.1
492.36	12.35
492.561	12.67
492.762	12.86
492.963	12.99
493.164	13.06
493.364	12.68
493.565	12.79
493.766	13.2
493.967	12.93
494.167	13.18
494.368	13.21
494.569	13
494.769	12.76
494.97	12.61
495.171	13.24
495.371	13.99
495.572	14.1
495.773	14.47
495.973	14.35
496.174	14.38
496.375	14.22
496.575	14.22
496.776	14.27
496.976	13.89
497.177	14.46
497.377	14.09
497.578	13.49
497.778	13.71
497.979	13.7
498.179	13.77
498.38	13.92
498.58	14.03
498.78	14.17
498.981	14.48
499.181	15.19
499.382	14.67
499.582	14.64
499.782	14.74
499.983	14.29
500.183	13.86
500.383	13.8
500.584	13.75
500.784	13.89
500.984	13.49
501.184	13.09
501.385	13.48
501.585	13.85
501.785	14.01
501.985	14.15
502.185	14.94
502.386	15.43
502.586	15.51
502.786	14.8
502.986	15
503.186	15.28
503.386	15.48
503.586	14.83
503.786	14.86
503.987	15.14
504.187	14.94
504.387	14.65
504.587	14.61
504.787	14.85
504.987	15.56
505.187	15.72
505.387	15.49
505.587	15.41
505.786	15.86
505.986	16.1
506.186	16.25
506.386	16.5
506.586	16.44
506.786	16.58
506.986	15.89
507.186	15.79
507.386	15.71
507.585	16.13
507.785	16.38
507.985	16.56
508.185	16.59
508.384	16.3
508.584	16.19
508.784	15.86
508.984	15.86
509.183	16.4
509.383	16.35
509.583	15.97
509.782	15.92
509.982	15.85
510.182	15.52
510.381	15.4
510.581	14.99
510.781	15.19
510.98	15.68
511.18	15.99
511.379	15.43
511.579	15.7
511.778	16.12
511.978	15.96
512.177	16.23
512.377	16.26
512.576	16.54
512.776	16.99
512.975	17.27
513.175	17.12
513.374	16.81
513.573	17.31
513.773	16.69
513.972	16.93
514.172	16.92
514.371	17.07
514.57	17.29
514.77	17.01
514.969	17.13
515.168	16.59
515.367	16.85
515.567	16.82
515.766	16.96
515.965	17.44
516.164	17
516.364	17.22
516.563	17.22
516.762	17.02
516.961	16.92
517.16	16.95
517.359	17.04
517.559	16.58
517.758	16.42
517.957	16.51
518.156	16.78
518.355	17.05
518.554	17.06
518.753	17.16
518.952	17.02
519.151	17.18
519.35	17.23
519.549	17.61
519.748	18.17
519.947	18.8
520.146	18.83
520.345	18.66
520.544	18.52
520.743	18.55
520.942	18.31
521.141	18.88
521.339	18.81
521.538	19.22
521.737	19.4
521.936	19.59
522.135	19.11
522.333	19.29
522.532	19.33
522.731	19.33
522.93	19.24
523.129	19.31
523.327	19.16
523.526	19.22
523.725	18.71
523.923	18.48
524.122	18.48
524.321	18.78
524.519	18.4
524.718	18.17
524.917	18.36
525.115	18.53
525.314	18.31
525.512	18.31
525.711	18.25
525.909	18.31
526.108	18.03
526.306	17.83
526.505	17.7
526.703	17.66
526.902	17.68
527.1	17.43
527.299	17.41
527.497	17.54
527.696	17.54
527.894	17.55
528.092	17.63
528.291	17.82
528.489	18.05
528.688	18.01
528.886	18.35
529.084	18.61
529.283	18.81
529.481	19.15
529.679	19.41
529.877	19.57
530.076	19.97
530.274	20.05
530.472	19.83
530.67	19.71
530.869	19.78
531.067	19.74
531.265	20.02
531.463	20.23
531.661	20.13
531.859	19.83
532.057	20.08
532.255	20.01
532.454	20.03
532.652	20.31
532.85	20.41
533.048	20.72
533.246	20.84
533.444	20.86
533.642	20.8
533.84	21.02
534.038	21.43
534.236	21.01
534.434	21.18
534.632	21.2
534.83	21.61
535.027	21.74
535.225	21.7
535.423	21.75
535.621	21.78
535.819	21.94
536.017	21.95
536.215	22.07
536.412	22.88
536.61	22.99
536.808	23.45
537.006	23.09
537.203	23.1
537.401	23.02
537.599	23.31
537.797	23.3
537.994	23.71
538.192	23.73
538.39	23.72
538.587	23.29
538.785	23.12
538.983	22.67
539.18	23.04
539.378	22.5
539.575	22.35
539.773	21.8
539.97	21.59
540.168	21.3
540.366	20.98
540.563	20.82
540.761	21.06
540.958	20.89
541.155	21.17
541.353	20.97
541.55	21.24
541.748	21.5
541.945	21.84
542.143	21.97
542.34	22.34
542.537	22.61
542.735	22.84
542.932	22.4
543.129	22.96
543.327	22.87
543.524	23.03
543.721	23.45
543.919	23.56
544.116	23.83
544.313	23.94
544.51	23.68
544.708	24.16
544.905	24.09
545.102	24.44
545.299	24.06
545.496	23.98
545.693	24.19
545.891	23.86
546.088	23.96
546.285	23.42
546.482	23.68
546.679	23.9
546.876	23.7
547.073	24.29
547.27	24.74
547.467	25
547.664	25.61
547.861	25.46
548.058	26.01
548.255	26.55
548.452	27.39
548.649	27.59
548.846	28.04
549.043	28.27
549.24	28.08
549.437	28.29
549.633	28.06
549.83	27.88
550.027	27.84
550.224	27.73
550.421	27.18
550.618	27.41
550.814	27.23
551.011	27.16
551.208	26.86
551.405	26.66
551.601	25.78
551.798	26.55
551.995	26.22
552.191	26.37
552.388	26.53
552.585	26.56
552.781	26.95
552.978	26.61
553.175	26.56
553.371	26.81
553.568	27.06
553.764	27.26
553.961	27.03
554.157	27.37
554.354	27.72
554.55	28.08
554.747	28.75
554.943	28.02
555.14	28.67
555.336	29.38
555.533	29.92
555.729	30.29
555.926	31.14
556.122	31.37
556.318	31.46
556.515	31.32
556.711	31.17
556.907	30.98
557.104	31.46
557.3	31.71
557.496	31.16
557.693	31.12
557.889	30.79
558.085	30.5
558.281	30.27
558.478	31.26
558.674	31.65
558.87	31.63
559.066	31.16
559.262	31.07
559.459	30.86
559.655	31.1
559.851	30.37
560.047	31.32
560.243	31.29
560.439	31.18
560.635	29.72
560.831	30.02
561.027	30.02
561.223	29.95
561.419	29.6
561.615	29.75
561.811	29.17
562.007	29.41
562.203	29.09
562.399	29.33
562.595	29.58
562.791	30.51
562.987	29.52
563.183	29.44
563.379	29.49
563.575	29.51
563.771	29.45
563.966	29.17
564.162	29.04
564.358	28.75
564.554	28.69
564.75	28.53
564.945	28.03
565.141	28.64
565.337	28.71
565.533	28.78
565.728	29.17
565.924	28.26
566.12	28.17
566.315	28.75
566.511	28.84
566.707	28.62
566.902	29.11
567.098	29.18
567.293	28.51
567.489	28.34
567.684	28.24
567.88	27.84
568.076	28.48
568.271	28.94
568.467	28.38
568.662	27.59
568.858	27.67
569.053	27.21
569.248	27.67
569.444	28.27
569.639	28.7
569.835	29.09
570.03	29.09
570.225	29.22
570.421	29.15
570.616	28.77
570.812	28.81
571.007	28.46
571.202	28.83
571.397	28.51
571.593	28.56
571.788	28.44
571.983	28.06
572.178	28.43
572.374	28.66
572.569	28.6
572.764	29.8
572.959	29.7
573.154	30.11
573.35	29.5
573.545	29.3
573.74	28.88
573.935	29.54
574.13	29.84
574.325	29.23
574.52	29.5
574.715	29.77
574.91	29.04
575.105	29.58
575.3	29.81
575.495	30.15
575.69	31.03
575.885	31.76
576.08	30.86
576.275	31.29
576.47	31.63
576.665	31.52
576.86	31.66
577.055	31.84
577.25	31.53
577.444	31.71
577.639	31.44
577.834	30.8
578.029	30.17
578.224	30.03
578.418	29.82
578.613	29.86
578.808	29.91
579.003	30.22
579.197	30.32
579.392	30.39
579.587	29.95
579.781	30.17
579.976	30.35
580.171	30.92
580.365	31.13
580.56	31.1
580.755	31.85
580.949	31.76
581.144	30.93
581.338	31.45
581.533	32.22
581.727	32.95
581.922	33.82
582.116	33.93
582.311	33.87
582.505	34.12
582.7	34.89
582.894	34.46
583.089	35.27
583.283	35.55
583.478	35.26
583.672	34.95
583.866	33.97
584.061	33.46
584.255	33.2
584.449	33.16
584.644	33.19
584.838	32.37
585.032	32.31
585.226	31.58
585.421	31.97
585.615	32.23
585.809	32.06
586.003	32.87
586.198	32.63
586.392	32.15
586.586	31.6
586.78	31.37
586.974	30.92
587.168	31
587.363	30.11
587.557	29.69
587.751	29.15
587.945	28.74
588.139	28.8
588.333	28.62
588.527	29.43
588.721	28.75
588.915	29.22
589.109	29.52
589.303	28.8
589.497	29.11
589.691	29.22
589.885	28.61
590.079	29.63
590.273	29.05
590.466	29.79
590.66	29.82
590.854	30.9
591.048	30.77
591.242	30.94
591.436	31.35
591.629	31.37
591.823	31.46
592.017	32.95
592.211	32.73
592.404	32.73
592.598	32.19
592.792	31.7
592.986	31.45
593.179	31.34
593.373	31.23
593.567	31.38
593.76	31.98
593.954	31.23
594.147	29.71
594.341	29.64
594.535	29.88
594.728	29.76
594.922	30.18
595.115	30.57
595.309	30.31
595.502	30.01
595.696	29.38
595.889	29.24
596.083	29.98
596.276	30.32
596.47	30.03
596.663	29.32
596.856	29.65
597.05	29.16
597.243	29.27
597.437	30
597.63	29.97
597.823	31.07
598.017	30.7
598.21	30.76
598.403	30.97
598.596	30.84
598.79	31.86
598.983	31.67
599.176	31.84
599.369	31.88
599.563	31.46
599.756	31.97
599.949	31.14
600.142	31.11
600.335	31.23
600.528	31.31
600.722	32.03
600.915	31.51
601.108	31.55
601.301	32.2
601.494	32.11
601.687	32
601.88	31.79
602.073	32.11
602.266	32.23
602.459	31.81
602.652	31.81
602.845	31.3
603.038	31.41
603.231	30.77
603.424	30.37
603.617	29.79
603.809	29.51
604.002	29.32
604.195	29.25
604.388	29.23
604.581	29.24
604.774	29.12
604.966	29.37
605.159	29.7
605.352	30.35
605.545	30.51
605.737	30.98
605.93	31.09
606.123	31.67
606.316	31.79
606.508	32.13
606.701	32.28
606.894	33.29
607.086	33.17
607.279	33.18
607.471	33.23
607.664	33.19
607.857	33.21
608.049	33.15
608.242	33.27
608.434	33.65
608.627	33.52
608.819	34.14
609.012	33.96
609.204	33.88
609.397	33.85
609.589	33.93
609.782	33.98
609.974	34.35
610.166	35.17
610.359	35.3
610.551	34.91
610.743	35.02
610.936	34.07
611.128	33.61
611.32	34.28
611.513	33.15
611.705	32.61
611.897	32.42
612.09	31.53
612.282	31.04
612.474	31.04
612.666	31.13
612.858	32.11
613.051	33.49
613.243	32.99
613.435	32.93
613.627	33.9
613.819	34.27
614.011	34.45
614.203	35.32
614.395	35.61
614.588	35.66
614.78	36.69
614.972	35.7
615.164	34.62
615.356	35.75
615.548	35.41
615.74	35.32
615.932	35.94
616.124	36.55
616.315	36.23
616.507	36.84
616.699	37.11
616.891	36.13
617.083	36.75
617.275	37.39
617.467	37.19
617.659	37.39
617.85	38.16
618.042	38.86
618.234	38.11
618.426	38.17
618.618	37.44
618.809	36.86
619.001	36.35
619.193	35.8
619.384	35.1
619.576	35.18
619.768	35.1
619.959	34.59
620.151	33.86
620.343	34.66
620.534	35.34
620.726	35.98
620.917	36.35
621.109	37.28
621.301	37.04
621.492	37.85
621.684	37.8
621.875	38
622.067	37.59
622.258	37.1
622.45	36.43
622.641	35.37
622.832	34.96
623.024	35.07
623.215	35.81
623.407	36.27
623.598	35.73
623.789	35.59
623.981	35.55
624.172	36.21
624.363	36.68
624.555	36.98
624.746	37.29
624.937	37.37
625.129	36.69
625.32	34.36
625.511	33.8
625.702	33.42
625.893	33.04
626.085	33.38
626.276	32.78
626.467	32.62
626.658	32.31
626.849	31.72
627.04	31.24
627.231	32.15
627.422	33.85
627.614	34.5
627.805	33.98
627.996	34.66
628.187	34.46
628.378	35.12
628.569	35.34
628.76	35.4
628.951	36.47
629.142	36.91
629.332	36.46
629.523	36.5
629.714	36.15
629.905	37.24
630.096	36.48
630.287	36.69
630.478	36.83
630.669	36.81
630.859	37.71
631.05	37.76
631.241	37.51
631.432	37.36
631.623	37.85
631.813	37.72
632.004	37.77
632.195	38.17
632.385	37.7
632.576	37.89
632.767	37.71
632.957	35.75
633.148	34.85
633.339	34.66
633.529	35.2
633.72	34.49
633.91	35.52
634.101	35.54
634.292	36.49
634.482	36.13
634.673	35.69
634.863	35.55
635.054	37.52
635.244	38.85
635.435	39.34
635.625	38.39
635.815	38.34
636.006	37.04
636.196	37.29
636.387	37.28
636.577	37.65
636.767	38.1
636.958	38.44
637.148	37.23
637.338	36.08
637.529	36.45
637.719	37.49
637.909	37.92
638.099	38.59
638.29	37.72
638.48	36.55
638.67	37.3
638.86	37.42
639.05	37.52
639.241	37.42
639.431	38.02
639.621	37.78
639.811	37.34
640.001	37.2
640.191	37.88
640.381	39.72
640.571	40.13
640.761	39.35
640.951	39.67
641.141	40.59
641.331	41.74
641.521	41.45
641.711	40.89
641.901	40.31
642.091	40.81
642.281	39.97
642.471	37.9
642.661	37.67
642.851	37.76
643.041	36.79
643.231	37.23
643.42	35.92
643.61	35.39
643.8	35.62
643.99	36.38
644.18	34.95
644.369	35.19
644.559	36.47
644.749	36.26
644.939	36.95
645.128	36.83
645.318	35.84
645.508	36.1
645.697	36.74
645.887	35.98
646.076	36.99
646.266	37.14
646.456	36.63
646.645	37.32
646.835	38.07
647.024	37.62
647.214	37.57
647.403	37.83
647.593	38.01
647.782	37.75
647.972	38.84
648.161	37.83
648.351	39.23
648.54	39.54
648.73	38.87
648.919	37.6
649.108	37.26
649.298	37.78
649.487	37.22
649.677	37.92
649.866	37.8
650.055	37.49
650.244	38.21
650.434	37.71
650.623	38.64
650.812	38.81
651.002	40.24
651.191	40.53
651.38	41.28
651.569	41.61
651.758	41.75
651.947	42.14
652.137	41.05
652.326	40.94
652.515	40.88
652.704	40.42
652.893	40.39
653.082	38.64
653.271	38.26
653.46	37.08
653.649	36.75
653.838	35.99
654.027	35.42
654.216	36.08
654.405	35.09
654.594	35.54
654.783	34.81
654.972	33.55
655.161	35.03
655.35	35.82
655.539	36.59
655.728	37.72
655.916	37.48
656.105	39.03
656.294	38.99
656.483	38.17
656.672	37.82
656.86	38.7
657.049	38.85
657.238	37.84
657.427	36.82
657.615	36.08
657.804	34.96
657.993	35.22
658.181	34.49
658.37	35.56
658.559	35.84
658.747	35.91
658.936	35.31
659.125	34.94
659.313	35.97
659.502	36.8
659.69	37.19
659.879	37.6
660.067	37.02
660.256	36.48
660.444	36.34
660.633	37.27
660.821	37.04
661.01	37.71
661.198	39.55
661.387	39
661.575	38.94
661.763	38.14
661.952	38.17
662.14	39.25
662.328	41
662.517	41.13
662.705	42.01
662.893	41.19
663.082	40.69
663.27	40.76
663.458	41.57
663.646	42.01
663.834	42.91
664.023	43.63
664.211	43.55
664.399	42.73
664.587	42.91
664.775	42.23
664.963	42.73
665.152	42.11
665.34	41.29
665.528	40.91
665.716	39.4
665.904	39.54
666.092	39.26
666.28	39.61
666.468	39.97
666.656	38.03
666.844	37.9
667.032	37.81
667.22	37.84
667.408	38.53
667.596	38.33
667.784	39
667.971	38.44
668.159	37.75
668.347	37.27
668.535	36.04
668.723	37.98
668.911	38.49
669.098	38.17
669.286	38.52
669.474	38.48
669.662	39.27
669.849	39.01
670.037	39.27
670.225	39.89
670.413	40.87
670.6	41.67
670.788	39.46
670.976	38.08
671.163	39.6
671.351	39.14
671.538	40.17
671.726	39.8
671.913	38.42
672.101	39
672.289	37.69
672.476	36.66
672.664	37.63
672.851	38.67
673.039	38.65
673.226	37.61
673.413	38.68
673.601	37.64
673.788	37.17
673.976	39.09
674.163	38.94
674.35	40.59
674.538	42.11
674.725	40.56
674.912	41.96
675.1	42.7
675.287	42.75
675.474	42.44
675.662	42.2
675.849	41.09
676.036	40.74
676.223	39.8
676.411	40.11
676.598	39.37
676.785	40.17
676.972	38.9
677.159	39.26
677.346	39.58
677.533	40.73
677.721	40.39
677.908	41.54
678.095	41.07
678.282	40.64
678.469	40.34
678.656	39.8
678.843	39.91
679.03	40.14
679.217	39.88
679.404	39.56
679.591	38.35
679.778	39.65
679.964	39.58
680.151	41.03
680.338	43.17
680.525	42.67
680.712	44.79
680.899	44.36
681.086	45.19
681.272	44.97
681.459	44.13
681.646	45.32
681.833	43.12
682.02	43.49
682.206	43.52
682.393	43.53
682.58	43.92
682.766	41.86
682.953	42.42
683.14	40.8
683.326	41.13
683.513	42.44
683.7	41.81
683.886	43.97
684.073	42.51
684.259	41.14
684.446	38.7
684.632	38.87
684.819	39.02
685.005	38.28
685.192	38.04
685.378	37.01
685.565	36.73
685.751	35.89
685.938	34.88
686.124	36.52
686.31	35.38
686.497	36.89
686.683	35.61
686.87	35.35
687.056	34.23
687.242	33.49
687.429	32.65
687.615	32.8
687.801	35.41
687.987	35.09
688.174	34.17
688.36	36.85
688.546	36.24
688.732	36.82
688.918	37.46
689.105	39.94
689.291	42.27
689.477	43.4
689.663	43.88
689.849	42.31
690.035	41.45
690.221	41.01
690.407	40.17
690.593	40.61
690.779	40.76
690.965	40.84
691.151	40.59
691.337	40.35
691.523	40.16
691.709	39.75
691.895	41.06
692.081	42.82
692.267	41.59
692.453	42.17
692.639	42.85
692.825	41.43
693.011	41.29
693.196	40.21
693.382	41
693.568	40.78
693.754	40.8
693.94	40
694.125	39.86
694.311	41.36
694.497	40.34
694.682	40.49
694.868	40.63
695.054	41.63
695.239	41.23
695.425	39.17
695.611	40.4
695.796	40.01
695.982	40.2
696.168	38.98
696.353	39.39
696.539	39.61
696.724	37.71
696.91	38.78
697.095	37.43
697.281	36.7
697.466	37.3
697.652	36.95
697.837	38.55
698.023	36.83
698.208	37.57
698.393	38.85
698.579	38.42
698.764	39.85
698.949	40.32
699.135	39.51
699.32	41.61
699.505	41.78
699.691	42.2
699.876	40.62
700.061	41.77
700.246	41.49
700.432	40.98
700.617	42.19
700.802	40.55
700.987	39.66
701.172	42.67
701.358	41.87
701.543	43.22
701.728	43.1
701.913	45.55
702.098	46.24
702.283	47.09
702.468	45
702.653	46.35
702.838	47.32
703.023	48.7
703.208	46.51
703.393	45.61
703.578	43.68
703.763	42.35
703.948	40.53
704.133	41.47
704.318	40.4
704.503	42.25
704.688	41.46
704.873	42.53
705.057	40.28
705.242	40.27
705.427	40.07
705.612	40.06
705.797	41.56
705.981	41.16
706.166	40.79
706.351	41.9
706.536	40.95
706.72	39.89
706.905	40.05
707.09	40.7
707.274	40.42
707.459	42.46
707.644	43.01
707.828	44.75
708.013	45.63
708.197	45.41
708.382	46.74
708.567	45.99
708.751	47.1
708.936	46.95
709.12	47.49
709.305	48.91
709.489	49.65
709.673	51.29
709.858	48.74
710.042	48.23
710.227	46.54
710.411	44.69
710.596	45.19
710.78	45.2
710.964	44.69
711.149	44.45
711.333	44.06
711.517	44.95
711.702	45.79
711.886	47.88
712.07	46.69
712.254	47.75
712.438	48.18
712.623	47.96
712.807	47.88
712.991	47.22
713.175	48.33
713.359	47.22
713.544	45.3
713.728	43.22
713.912	41.39
714.096	42.55
714.28	43.07
714.464	42.21
714.648	41.71
714.832	40.82
715.016	41.91
715.2	40.43
715.384	38.96
715.568	40.44
715.752	41.3
715.936	39.97
716.12	40.44
716.304	39.16
716.488	38.11
716.671	38.25
716.855	38.74
717.039	36.66
717.223	35.59
717.407	38.59
717.59	36.76
717.774	34.61
717.958	38.66
718.142	38.99
718.325	39.72
718.509	39.93
718.693	42.27
718.877	43.67
719.06	46.26
719.244	50.87
719.428	51.84
719.611	51.1
719.795	52.2
719.978	51.12
720.162	47.95
720.345	47.73
720.529	48.97
720.713	48.1
720.896	45.89
721.08	46.46
721.263	42.06
721.446	39.38
721.63	36.28
721.813	36.21
721.997	35.47
722.18	36.78
722.364	37.6
722.547	39.45
722.73	37.89
722.914	39.48
723.097	39.23
723.28	40.82
723.464	42.9
723.647	45.06
723.83	41.73
724.013	41.44
724.197	41.67
724.38	42.04
724.563	36.91
724.746	36.31
724.929	32.5
725.112	34.38
725.296	33.87
725.479	33.16
725.662	34.21
725.845	34.6
726.028	32.26
726.211	30.92
726.394	31.12
726.577	35.08
726.76	37.03
726.943	36.02
727.126	33.09
727.309	33.38
727.492	33.62
727.675	35.31
727.858	36.47
728.041	38.27
728.224	39.46
728.407	38.15
728.589	40.33
728.772	40.43
728.955	44.13
729.138	44.87
729.321	46.71
729.503	46.71
729.686	45.9
729.869	44.59
730.052	47.72
730.234	47.82
730.417	49.29
730.6	45.82
730.782	44.9
730.965	44.98
731.148	45.43
731.33	43.51
731.513	45.21
731.695	45.03
731.878	47.26
732.061	45.83
732.243	47.8
732.426	46.8
732.608	47.49
732.791	48.5
732.973	48.9
733.156	47.28
733.338	50.06
733.52	47.92
733.703	47.43
733.885	47.43
734.068	47.45
734.25	48.86
734.432	51.17
734.615	51.44
734.797	51.15
734.979	48.56
735.162	51.14
735.344	48.87
735.526	49.77
735.708	52.31
735.891	53.01
736.073	55.64
736.255	52.98
736.437	52.09
736.619	51.63
736.802	53.06
736.984	58.36
737.166	60.07
737.348	63.58
737.53	63.63
737.712	61.27
737.894	62.84
738.076	59.9
738.258	61.47
738.44	62.44
738.622	65.55
738.804	62.96
738.986	59.26
739.168	53.84
739.35	52.65
739.532	53.61
739.714	54.07
739.896	53.71
740.078	52.04
740.259	53.29
740.441	52.59
740.623	52.39
740.805	54.96
740.987	55.17
741.168	60.26
741.35	61.78
741.532	61.78
741.714	61.67
741.895	60.79
742.077	65.99
742.259	64.28
742.44	70.96
742.622	71.45
742.804	73.77
742.985	73.91
743.167	73.69
743.348	74.35
743.53	76.61
743.711	80.46
743.893	82.54
744.075	81.3
744.256	80.72
744.438	72.39
744.619	71.42
744.8	69.31
744.982	70.37
745.163	68.98
745.345	64.62
745.526	66.15
745.707	64.41
745.889	63.15
746.07	60.47
746.252	61.02
746.433	63.54
746.614	64.25
746.795	63.56
746.977	61.85
747.158	61.88
747.339	64.62
747.52	63.04
747.702	62.01
747.883	62.08
748.064	62.77
748.245	63.7
748.426	63.97
748.607	62.56
748.788	63.62
748.97	67.49
749.151	68.21
749.332	67.76
749.513	69.15
749.694	68.71
749.875	66.96
750.056	67.44
750.237	64.21
750.418	68.16
750.599	67.61
750.78	64.18
750.96	61.98
751.141	58.19
751.322	57.76
751.503	57.79
751.684	61.34
751.865	62.77
752.046	61.51
752.226	62.22
752.407	57.7
752.588	57.82
752.769	57.63
752.949	56.29
753.13	61.11
753.311	62.29
753.492	59.41
753.672	60.48
753.853	60.97
754.034	63.39
754.214	67.91
754.395	70.45
754.575	71.61
754.756	74.62
754.937	79.86
755.117	79.24
755.298	76.73
755.478	77.29
755.659	73.17
755.839	73.06
756.02	73.34
756.2	67.97
756.381	64.32
756.561	63.51
756.741	64.42
756.922	60.25
757.102	60.51
757.283	61.13
757.463	62.24
757.643	61.31
757.823	55.92
758.004	50.6
758.184	48.05
758.364	46.91
758.545	46.65
758.725	41.82
758.905	37.77
759.085	36.7
759.265	37.08
759.446	31.08
759.626	32.27
759.806	29.02
759.986	32.27
760.166	29.98
760.346	35.22
760.526	34.16
760.706	36.71
760.886	38.2
761.066	35.21
761.246	32.38
761.426	34.09
761.606	34.42
761.786	36.17
761.966	34.22
762.146	35.71
762.326	33.11
762.506	30.3
762.686	27.69
762.866	27.7
763.046	27.93
763.225	30.46
763.405	32.6
763.585	31.06
763.765	30.63
763.945	31.19
764.124	32.02
764.304	33.56
764.484	37.17
764.664	42.81
764.843	44.78
765.023	47.58
765.203	51.68
765.382	53.61
765.562	52.86
765.741	59.1
765.921	62.74
766.101	67.15
766.28	72.79
766.46	74.32
766.639	73.19
766.819	70.36
766.998	76.66
767.178	74.23
767.357	70.42
767.537	70.86
767.716	70.94
767.896	70.48
768.075	70.08
768.254	68.24
768.434	67.5
768.613	64.8
768.792	71.32
768.972	70.92
769.151	73.55
769.33	77.78
769.51	79.43
769.689	82.03
769.868	82.54
770.047	79.88
770.226	82.13
770.406	86.77
770.585	92.12
770.764	92.02
770.943	87.1
771.122	84.96
771.301	87.69
771.48	92.97
771.66	84.94
771.839	82.11
772.018	85.55
772.197	84.87
772.376	85.08
772.555	84.31
772.734	79.68
772.913	78.56
773.092	78.13
773.271	77.02
773.449	72.84
773.628	80.21
773.807	89.88
773.986	86.96
774.165	93.2
774.344	86.87
774.523	85.75
774.701	87.49
774.88	88.78
775.059	89.68
775.238	88.04
775.417	93.96
775.595	94.35
775.774	85.91
775.953	86.75
776.131	85.65
776.31	90.65
776.489	92.52
776.667	95.53
776.846	95.69
777.025	100.29
777.203	101.19
777.382	96.16
777.56	101.33
777.739	109.93
777.917	109.68
778.096	99.16
778.274	96.82
778.453	99.38
778.631	95.18
778.81	98.89
778.988	90.79
779.166	95.1
779.345	100
779.523	95.34
779.702	89.36
779.88	90.09
780.058	95.12
780.237	97.35
780.415	93.35
780.593	92.67
780.771	89.65
780.95	84.88
781.128	83.04
781.306	84.72
781.484	88.91
781.662	95.84
781.841	92.73
782.019	94.42
782.197	89.94
782.375	90.93
782.553	91.1
782.731	95.36
782.909	106.43
783.087	96.83
783.265	87.82
783.443	86.83
783.621	77.05
783.799	85.66
783.977	87.26
784.155	84.12
784.333	87.98
784.511	84.98
784.689	79.73
784.867	85.04
785.045	89.85
785.223	88.05
785.4	79.77
785.578	85.38
785.756	91.53
785.934	83.99
786.112	80.1
786.289	78.66
786.467	78.98
786.645	80.15
786.823	79.71
787	75.32
787.178	74.86
787.356	77.76
787.533	71.06
787.711	61.15
787.889	65.21
788.066	71.72
788.244	69.88
788.421	72.28
788.599	67.69
788.776	63.68
788.954	67.76
789.131	69.67
789.309	71.9
789.486	80.66
789.664	82.65
789.841	82.01
790.019	81.49
790.196	80.09
790.373	81.6
790.551	102.21
790.728	95.72
790.906	97.97
791.083	125.18
791.26	108.83
791.437	106.77
791.615	111.45
791.792	107.06
791.969	106.45
792.146	111.34
792.324	116.56
792.501	92.5
792.678	95.07
792.855	97.15
793.032	72.59
793.209	72.13
793.387	61.94
793.564	59.38
793.741	57.22
793.918	55.17
794.095	53.88
794.272	51.73
794.449	57.25
794.626	57.54
794.803	53.73
794.98	54.22
795.157	60.35
795.334	68.81
795.511	66.98
795.688	60.92
795.864	62.88
796.041	59.33
796.218	65.05
796.395	62.43
796.572	57.82
796.749	54.45
796.925	60.79
797.102	61.47
797.279	61.61
797.456	65.71
797.632	72.55
797.809	70.17
797.986	77.28
798.162	78.63
798.339	78.4
798.516	79.75
798.692	83.22
798.869	75.52
799.046	72.82
799.222	76.52
799.399	77.18
799.575	79.3
799.752	83.17
799.928	76.57
800.105	79.6
800.281	88.47
800.458	96.36
800.634	92.74
800.811	103.12
800.987	104.47
801.163	93.01
801.34	98.76
801.516	89
801.692	67.89
801.869	75.63
802.045	73.59
802.221	72.68
802.398	62.21
802.574	53.61
802.75	49.79
802.926	48.87
803.103	58.02
803.279	57.98
803.455	53.32
803.631	57.58
803.807	51.37
803.983	52.13
804.16	47.67
804.336	60.89
804.512	77.34
804.688	88.99
804.864	89.51
805.04	83.07
805.216	73.63
805.392	73.23
805.568	84.01
805.744	77.28
805.92	69.36
806.096	67.8
806.272	69.62
806.448	71.95
806.623	60.16
806.799	57
806.975	62.39
807.151	60.45
807.327	69.85
807.503	70.85
807.678	78.37
807.854	70.15
808.03	79.52
808.206	75
808.381	80.92
808.557	96.13
808.733	103.91
808.908	106.15
809.084	115.09
809.26	107.17
809.435	101.94
809.611	97.71
809.787	114.83
809.962	86.87
810.138	79.42
810.313	54.73
810.489	37.46
810.664	33.99
810.84	13.84
811.015	19.25
811.191	32.66
811.366	37.85
811.542	56.69
811.717	45.77
811.892	47.62
812.068	59.63
812.243	74.08
812.419	83.58
812.594	81.6
812.769	87.34
812.944	68.29
813.12	64.48
813.295	62.36
813.47	49.81
813.645	57.5
813.821	62.11
813.996	62.44
814.171	64.92
814.346	83.81
814.521	78.28
814.697	78.98
814.872	80.25
815.047	84.23
815.222	71.43
815.397	63.78
815.572	65.93
815.747	66.44
815.922	60.48
816.097	58.99
816.272	48.9
816.447	47.76
816.622	40.37
816.797	37.5
816.972	33.98
817.147	40.89
817.322	51.02
817.496	44.26
817.671	40.75
817.846	41.69
818.021	47.38
818.196	41.18
818.371	51.77
818.545	48.47
818.72	54.52
818.895	50.8
819.069	41.86
819.244	34.93
819.419	36.66
819.594	32.68
819.768	37.6
819.943	30.99
820.117	31.57
820.292	28.34
820.467	28.98
820.641	28.98
820.816	29.57
820.99	28.51
821.165	27.77
821.339	26.3
821.514	27.44
821.688	23.81
821.863	25.25
822.037	25.55
822.212	23.89
822.386	24.93
822.56	23.9
822.735	23.07
822.909	25.79
823.084	29.19
823.258	30.25
823.432	30.77
823.606	35.43
823.781	34.19
823.955	35.78
824.129	37.67
824.303	40.79
824.478	42.06
824.652	45.05
824.826	46.11
825	43.81
825.174	48.37
825.348	47.02
825.523	44.72
825.697	40.63
825.871	37.58
826.045	39.04
826.219	36.28
826.393	38.08
826.567	33.6
826.741	32.82
826.915	31.76
827.089	28.94
827.263	27.74
827.437	29.07
827.611	34.99
827.784	37.84
827.958	39.39
828.132	40.54
828.306	39.71
828.48	49.27
828.654	55.94
828.827	59.09
829.001	68.1
829.175	73.75
829.349	75.6
829.522	76.02
829.696	72.3
829.87	72.61
830.044	66.9
830.217	63.25
830.391	66.49
830.565	44.82
830.738	39.03
830.912	36.32
831.085	34.17
831.259	35.21
831.432	34.62
831.606	41.68
831.779	33.2
831.953	46.29
832.126	44.74
832.3	39.11
832.473	45.1
832.647	44.75
832.82	42.37
832.994	41.89
833.167	42.3
833.34	40.7
833.514	36.28
833.687	40.02
833.86	37.37
834.034	34.1
834.207	37.74
834.38	40.09
834.553	45.55
834.727	52.87
834.9	53.44
835.073	57.01
835.246	61.91
835.419	67.74
835.593	77.82
835.766	92.85
835.939	135.53
836.112	152.69
836.285	184.4
836.458	154.29
836.631	122.14
836.804	108.5
836.977	108.88
837.15	101.7
837.323	126.35
837.496	113.73
837.669	147.77
837.842	118.65
838.015	86.2
838.188	71.83
838.361	67.98
838.533	60.91
838.706	69.87
838.879	70.76
839.052	74.43
839.225	67.3
839.398	75.5
839.57	64.58
839.743	69.75
839.916	66.85
840.088	66.45
840.261	69.4
840.434	77.35
840.607	80.84
840.779	78.46
840.952	84.03
841.124	85.68
841.297	97.8
841.47	111.09
841.642	101.86
841.815	161.47
841.987	142.01
842.16	192.02
842.332	164.16
842.505	103.63
842.677	75.54
842.85	72.33
843.022	70.48
843.194	43.29
843.367	48.01
843.539	25.99
843.712	28.49
843.884	44.85
844.056	35.31
844.229	38.79
844.401	61.98
844.573	117.38
844.745	117.5
844.918	163.37
845.09	259.09
845.262	202.22
845.434	305.11
845.606	530.36
845.779	-1079.55
845.951	13350
846.123	-1776.47
846.295	1448.98
846.467	-1534.21
846.639	-2773.91
846.811	851.14
846.983	312.82
847.155	537.5
847.327	348.11
847.499	195.06
847.671	225.93
847.843	280.91
848.015	223.19
848.187	172.65
848.359	126.03
848.531	123.88
848.703	121.5
848.875	222.29
849.047	1012.5
849.218	2593.75
849.39	-411.11
849.562	6640
849.734	-1696.43
849.905	8771.43
850.077	-631.08
850.249	-265.71
850.421	809.52
850.592	483.74
850.764	162.25
850.936	125.55
851.107	144.59
851.279	118.26
851.451	100.69
851.622	126.26
851.794	96.77
851.965	188.34
852.137	183.85
852.308	2444.44
852.48	-95.37
852.651	-112.04
852.823	-237.3
852.994	-1325.93
853.166	4162.5
853.337	-780.56
853.509	154.27
853.68	3700
853.851	15.56
854.023	70.63
854.194	59.32
854.365	148.58
854.537	92.64
854.708	32.95
854.879	-8.57
855.05	26.97
855.222	77.7
855.393	119.23
855.564	85.62
855.735	119.82
855.906	161.33
856.078	185.09
856.249	76.34
856.42	130.34
856.591	195.27
856.762	-1847.37
856.933	-846.15
857.104	-324
857.275	7525
857.446	495.38
857.617	-6516.67
857.788	21150
857.959	333.71
858.13	848.98
858.301	237.21
858.472	308.33
858.643	186.96
858.814	165.15
858.985	137.68
859.155	131.77
859.326	124.75
859.497	67.38
859.668	-21.69
859.839	-101.79
860.009	29.17
860.18	22.87
860.351	5.03
860.522	53.82
860.692	52.25
860.863	38.04
861.034	40.35
861.204	66.03
861.375	18.6
861.546	113.07
861.716	141.5
861.887	163.94
862.057	758.82
862.228	1150
862.398	-75.97
862.569	-1031.37
862.739	-1202.27
862.91	643.48
863.08	8771.43
863.251	-3123.81
863.421	-628
863.592	-2937.5
863.762	-196.1
863.932	353.66
864.103	-375.56
864.273	230.53
864.443	-20.24
864.614	42.53
864.784	77.42
864.954	28.41
865.125	31.79
865.295	58.82
865.465	117.5
865.635	91.18
865.805	65.03
865.976	41.53
866.146	35.41
866.316	38.54
866.486	26.43
866.656	24.18
866.826	43.21
866.996	52.59
867.166	34.34
867.336	25.42
867.506	13.8
867.676	25.3
867.846	40.05
868.016	47.95
868.186	86.21
868.356	157.83
868.526	114.14
868.696	82.35
868.866	202.99
869.036	170.37
869.206	-89.19
869.376	-644.44
869.545	920
869.715	1309.52
869.885	-361.76
870.055	-219.66
870.224	175.86
870.394	222.77
870.564	458.14
870.734	541.07
870.903	276.39
871.073	500
871.243	338.71
871.412	311.93
871.582	591.3
871.751	-2490.91
871.921	-268.35
872.091	-57.58
872.26	-87.17
872.43	-43.09
872.599	-117.82
872.769	-107.41
872.938	-22.57
873.108	-45.93
873.277	-127.42
873.446	1753.85
873.616	-181.72
873.785	119.07
873.955	173.72
874.124	196.69
874.293	250
874.463	872.97
874.632	-314.49
874.801	-344.55
874.971	-3.02
875.14	30.63
875.309	28.69
875.478	15.38
875.647	38.12
875.817	128.95
875.986	125
876.155	-15100
876.324	-59.85
876.493	-20.28
876.662	8.16
876.831	64.92
877	100
877.17	114.09
877.339	89.38
877.508	68.11
877.677	0
877.846	-191.67
878.015	-296.67
878.184	-152.54
878.352	-3850
878.521	200
878.69	182.85
878.859	146.13
879.028	129.53
879.197	142.63
879.366	100.12
879.534	80.09
879.703	82.49
879.872	67.52
880.041	57.28
880.21	56.85
880.378	58.61
880.547	39.63
880.716	38.19
880.884	30.81
881.053	28.98
881.222	31.49
881.39	27.32
881.559	33.52
881.727	27.22
881.896	19.11
882.065	12.72
882.233	9.35
882.402	13.44
882.57	0.5
882.739	0.97
882.907	-9.15
883.076	-13.3
883.244	-17.21
883.412	-41.36
883.581	-29.12
883.749	-20.1
883.918	-14.22
884.086	-15.39
884.254	-5.04
884.423	10.7
884.591	26.5
884.759	46.12
884.927	49.88
885.096	67.19
885.264	89.17
885.432	87.89
885.6	99.49
885.769	64.3
885.937	70.31
886.105	61.46
886.273	79.87
886.441	87.11
886.609	68.38
886.777	77.44
886.945	65.86
887.113	58.88
887.281	89.51
887.449	112.15
887.617	130.68
887.785	146.87
887.953	159.08
888.121	223.28
888.289	331.67
888.457	753.85
888.625	217.86
888.793	-376.32
888.961	937.5
889.129	2125
889.296	218.75
889.464	455.77
889.632	395.38
889.8	239.81
889.967	110.85
890.135	77.97
