Data from JASIL_2967_Reflection_1.txt Node
Date: Sat Nov 07 21:33:31 EST 2015
User: Geneva
Spectrometer: USB4E03002
Autoset integration time: false
Trigger mode: 4
Integration Time (sec): 1.000000E-1
Scans to average: 10
Electric dark correction enabled: true
Nonlinearity correction enabled: false
Boxcar width: 5
Stray light correction enabled: false
XAxis mode: Wavelengths
Stop averaging: false
Number of Pixels in Spectrum: 3648
>>>>>Begin Spectral Data<<<<<
177.575	17.28
177.794	-8.25
178.014	30.87
178.233	-79.75
178.452	-46.73
178.672	98.9
178.891	91.97
179.11	8.52
179.33	13.23
179.549	-58.89
179.768	-20.73
179.987	-34.46
180.207	-384
180.426	534.76
180.645	236.39
180.864	258.52
181.084	169.46
181.303	209.51
181.522	142.69
181.741	140.58
181.96	136.16
182.179	107.93
182.398	117.29
182.618	113.51
182.837	129.87
183.056	144.13
183.275	130.16
183.494	163.38
183.713	175.43
183.932	291.21
184.151	525.95
184.37	171.88
184.589	132.41
184.808	87.5
185.027	102.49
185.246	103.54
185.465	74.76
185.684	81.62
185.903	80.8
186.122	72.45
186.341	70.89
186.56	66.6
186.779	88.23
186.998	104.68
187.216	134.29
187.435	118.13
187.654	123.82
187.873	143.91
188.092	116.13
188.311	98.07
188.53	91.72
188.748	115.09
188.967	109.01
189.186	108.58
189.405	110.03
189.623	121.1
189.842	93.56
190.061	68.55
190.28	66.06
190.498	82.24
190.717	105.76
190.936	71.17
191.154	-103.99
191.373	1248.2
191.592	-186.05
191.81	-330.05
192.029	-81.76
192.248	-270.58
192.466	-104.35
192.685	3.26
192.904	11.85
193.122	23.79
193.341	27.16
193.559	72.11
193.778	73.59
193.996	89.31
194.215	96.43
194.433	84.99
194.652	94.27
194.87	85.6
195.089	83.48
195.307	102.19
195.526	91.51
195.744	67.09
195.963	55.43
196.181	54.64
196.399	40.06
196.618	42.5
196.836	55.95
197.055	66.03
197.273	52.82
197.491	50.65
197.71	48.38
197.928	43.49
198.146	59.58
198.365	61.83
198.583	62.59
198.801	58.5
199.019	43.07
199.238	29.66
199.456	17.81
199.674	11.91
199.892	6.68
200.111	-19.82
200.329	-10.48
200.547	-12.46
200.765	-23.26
200.983	-28.21
201.202	-23.68
201.42	-2.82
201.638	-8.12
201.856	-11.16
202.074	14.74
202.292	18.22
202.51	30.78
202.728	43.42
202.946	20.86
203.165	29.1
203.383	34.02
203.601	38.57
203.819	20.6
204.037	15.78
204.255	39.8
204.473	44.03
204.691	38.47
204.909	36.61
205.127	27.51
205.345	52.12
205.562	46.51
205.78	52.01
205.998	45.95
206.216	63.54
206.434	84.79
206.652	61.97
206.87	63.67
207.088	53.26
207.306	49.99
207.523	57.97
207.741	51.63
207.959	60.12
208.177	53.19
208.395	42.09
208.612	21.65
208.83	18.45
209.048	19.07
209.266	4.94
209.483	7.52
209.701	-12.53
209.919	-29.81
210.136	-1.03
210.354	18.89
210.572	22.34
210.79	47.29
211.007	51.84
211.225	55.6
211.442	58.77
211.66	62.01
211.878	53.81
212.095	59.53
212.313	60.44
212.53	53.34
212.748	47.52
212.966	48.9
213.183	41.8
213.401	45.28
213.618	41.11
213.836	44.48
214.053	30.96
214.271	40.44
214.488	40.1
214.705	36.57
214.923	39.66
215.14	41.26
215.358	45.22
215.575	49.16
215.793	47.83
216.01	42.43
216.227	35.8
216.445	34.65
216.662	30.25
216.879	28.42
217.097	27.53
217.314	14.4
217.531	12.23
217.749	5.1
217.966	4.33
218.183	0.03
218.4	7.72
218.618	11.36
218.835	19.18
219.052	24.45
219.269	22.59
219.487	27.89
219.704	33.93
219.921	27.15
220.138	34.48
220.355	27.33
220.572	34.45
220.79	25.6
221.007	25.43
221.224	23.28
221.441	22.05
221.658	19.8
221.875	16.56
222.092	15.52
222.309	18.06
222.526	11.62
222.743	11.22
222.96	5.2
223.177	6.08
223.394	2.3
223.611	6.8
223.828	2.74
224.045	4.69
224.262	4.58
224.479	4.13
224.696	3.89
224.913	7.9
225.13	12.09
225.347	14.34
225.564	15.57
225.781	16.49
225.997	14.18
226.214	15.05
226.431	15.54
226.648	15.5
226.865	15.87
227.082	15.31
227.298	14.05
227.515	13.15
227.732	12.16
227.949	12.4
228.165	11.99
228.382	11.87
228.599	12.17
228.816	11.87
229.032	11.27
229.249	11.02
229.466	11.15
229.682	11.36
229.899	11.5
230.116	11.69
230.332	11.69
230.549	12.02
230.765	12.9
230.982	12.31
231.199	12.58
231.415	13.65
231.632	13.86
231.848	14.23
232.065	14.4
232.281	13.5
232.498	13.53
232.714	13.83
232.931	12.75
233.147	12.96
233.364	12.9
233.58	12.93
233.797	12.7
234.013	12.86
234.23	12.88
234.446	12.16
234.662	13.95
234.879	14.81
235.095	14.74
235.312	16.93
235.528	17.2
235.744	17.32
235.961	17.15
236.177	16.86
236.393	16.99
236.61	17.31
236.826	17.39
237.042	17.48
237.258	17.78
237.475	17.23
237.691	15.61
237.907	14.12
238.123	13.62
238.339	14.45
238.556	14.21
238.772	13.79
238.988	14.21
239.204	14.22
239.42	13.72
239.636	12.97
239.853	13.15
240.069	13.23
240.285	13.39
240.501	13.38
240.717	12.63
240.933	13
241.149	12.86
241.365	12.87
241.581	12.75
241.797	12.4
242.013	12.31
242.229	12.35
242.445	12.35
242.661	11.98
242.877	12.3
243.093	12.51
243.309	12.17
243.525	11.99
243.741	11.43
243.957	11.43
244.173	11.87
244.388	11.86
244.604	11.74
244.82	11.7
245.036	11.47
245.252	11.04
245.468	10.91
245.683	11
245.899	11.04
246.115	10.9
246.331	10.96
246.547	10.73
246.762	10.73
246.978	10.62
247.194	10.42
247.409	10.46
247.625	10.28
247.841	10.21
248.057	10.05
248.272	9.85
248.488	9.84
248.703	9.63
248.919	9.51
249.135	9.36
249.35	9.08
249.566	9.26
249.782	9.27
249.997	9.8
250.213	9.49
250.428	9.52
250.644	9.63
250.859	9.71
251.075	9.73
251.29	9.86
251.506	9.47
251.721	9.49
251.937	9.58
252.152	9.64
252.368	9.38
252.583	9.84
252.798	9.9
253.014	9.99
253.229	10.11
253.445	9.64
253.66	9.5
253.875	9.67
254.091	9.41
254.306	8.53
254.521	8.36
254.737	8.49
254.952	8
255.167	7.27
255.383	7.53
255.598	7.45
255.813	8.16
256.028	7.75
256.244	7.91
256.459	7.92
256.674	8.29
256.889	8.32
257.104	7.99
257.32	8.05
257.535	8
257.75	7.75
257.965	7.43
258.18	7.24
258.395	7.44
258.61	7.47
258.826	7.55
259.041	7.42
259.256	7.34
259.471	7.3
259.686	7.25
259.901	7.24
260.116	7.24
260.331	7.39
260.546	7.47
260.761	7.38
260.976	7.1
261.191	6.83
261.406	6.74
261.621	6.58
261.836	6.6
262.05	6.2
262.265	6.14
262.48	6.16
262.695	6.02
262.91	6.1
263.125	5.98
263.34	6.62
263.555	6.89
263.769	7.03
263.984	7.26
264.199	7.29
264.414	7.69
264.629	7.68
264.843	7.59
265.058	7.23
265.273	7.27
265.488	7.41
265.702	7.29
265.917	7.7
266.132	7.73
266.346	7.86
266.561	7.86
266.776	7.89
266.99	8.18
267.205	8.1
267.42	8.4
267.634	8.19
267.849	8.19
268.063	7.94
268.278	7.53
268.492	7.55
268.707	7.39
268.922	7.38
269.136	7.22
269.351	7.02
269.565	7.16
269.78	6.86
269.994	6.69
270.209	6.71
270.423	6.98
270.637	7.04
270.852	7.06
271.066	7.04
271.281	7.13
271.495	7.16
271.709	7.04
271.924	6.9
272.138	7.04
272.353	7.22
272.567	6.95
272.781	6.78
272.996	6.76
273.21	6.68
273.424	6.66
273.638	6.54
273.853	6.78
274.067	6.79
274.281	6.87
274.495	6.86
274.71	6.95
274.924	6.95
275.138	6.69
275.352	6.55
275.566	6.6
275.781	6.62
275.995	6.67
276.209	6.59
276.423	6.48
276.637	6.24
276.851	6.17
277.065	5.99
277.279	6.29
277.493	6.7
277.707	6.73
277.921	7.09
278.135	7.09
278.349	6.9
278.563	6.63
278.777	6.58
278.991	6.86
279.205	7.16
279.419	7.21
279.633	7.09
279.847	6.91
280.061	6.99
280.275	6.79
280.489	6.98
280.703	6.78
280.917	6.7
281.131	6.86
281.344	6.78
281.558	6.56
281.772	6.53
281.986	6.63
282.2	6.65
282.414	6.66
282.627	6.55
282.841	6.35
283.055	6.58
283.269	6.58
283.482	6.59
283.696	6.64
283.91	6.81
284.123	6.8
284.337	6.68
284.551	6.59
284.764	6.44
284.978	6.47
285.192	6.37
285.405	6.46
285.619	6.68
285.833	6.54
286.046	6.43
286.26	6.34
286.473	6.28
286.687	6.34
286.9	6.7
287.114	6.79
287.327	6.85
287.541	6.94
287.754	6.86
287.968	6.67
288.181	6.88
288.395	7.01
288.608	6.94
288.822	7.07
289.035	7.16
289.248	6.85
289.462	7
289.675	7.01
289.889	7.06
290.102	6.97
290.315	7.13
290.529	7.19
290.742	7.02
290.955	7.06
291.169	7.08
291.382	6.85
291.595	6.85
291.808	6.79
292.022	6.72
292.235	6.83
292.448	7.33
292.661	7.46
292.875	7.63
293.088	7.67
293.301	7.69
293.514	7.73
293.727	7.79
293.94	7.98
294.153	8.03
294.367	7.92
294.58	7.77
294.793	7.5
295.006	7.32
295.219	7.21
295.432	7.41
295.645	7.64
295.858	7.55
296.071	7.61
296.284	7.44
296.497	7.54
296.71	7.63
296.923	7.84
297.136	7.81
297.349	8.06
297.562	7.93
297.775	7.95
297.988	7.85
298.201	7.95
298.414	8.08
298.626	8.29
298.839	8.24
299.052	8.37
299.265	8.19
299.478	8.2
299.691	7.87
299.903	8.11
300.116	8
300.329	8.05
300.542	7.89
300.755	7.71
300.967	7.82
301.18	7.95
301.393	7.92
301.605	7.89
301.818	7.93
302.031	8.06
302.243	7.81
302.456	8.15
302.669	7.97
302.881	8.21
303.094	8.39
303.307	8.39
303.519	8.38
303.732	8.45
303.944	8.57
304.157	8.47
304.37	8.73
304.582	9.03
304.795	8.75
305.007	8.75
305.22	8.76
305.432	8.62
305.645	8.74
305.857	8.76
306.069	8.98
306.282	8.9
306.494	9.17
306.707	9.04
306.919	9.1
307.132	9.06
307.344	9.06
307.556	9.04
307.769	9.2
307.981	9.01
308.193	8.87
308.406	8.45
308.618	8.6
308.83	8.53
309.043	8.45
309.255	8.3
309.467	8.42
309.679	8.46
309.892	8.47
310.104	8.3
310.316	8.33
310.528	8.31
310.74	8.64
310.953	8.68
311.165	8.77
311.377	8.69
311.589	8.84
311.801	8.69
312.013	8.9
312.225	8.96
312.437	9.36
312.649	9.2
312.862	9.27
313.074	9.19
313.286	8.98
313.498	8.93
313.71	9.35
313.922	9.2
314.134	9.42
314.346	9.46
314.558	9.45
314.77	9.23
314.982	9.21
315.193	9.32
315.405	9.15
315.617	9.27
315.829	9.26
316.041	8.93
316.253	8.9
316.465	8.9
316.677	8.62
316.888	8.66
317.1	8.76
317.312	9.14
317.524	9.2
317.736	9.35
317.947	9.36
318.159	9.56
318.371	9.95
318.583	10.04
318.794	10.08
319.006	10.34
319.218	10.21
319.43	10.1
319.641	10.1
319.853	10.13
320.064	10.32
320.276	10.4
320.488	10.35
320.699	10.13
320.911	10.34
321.123	10.56
321.334	10.32
321.546	10.43
321.757	10.55
321.969	10.38
322.18	10.35
322.392	9.98
322.603	9.8
322.815	9.68
323.026	9.61
323.238	9.46
323.449	9.33
323.661	9.41
323.872	9.58
324.083	9.51
324.295	9.43
324.506	9.3
324.718	9.3
324.929	9.54
325.14	9.57
325.352	9.73
325.563	9.99
325.774	9.87
325.986	9.89
326.197	9.68
326.408	9.64
326.62	9.78
326.831	9.83
327.042	9.96
327.253	9.98
327.464	9.82
327.676	9.39
327.887	9.35
328.098	9.35
328.309	9.46
328.52	9.7
328.732	10.03
328.943	10.17
329.154	10.36
329.365	10.31
329.576	10.48
329.787	10.6
329.998	10.96
330.209	10.83
330.42	11.01
330.631	10.84
330.842	10.64
331.053	10.5
331.264	10.32
331.475	10.19
331.686	10.44
331.897	10.33
332.108	10.41
332.319	10.31
332.53	10.37
332.741	10.27
332.952	10.34
333.163	10.47
333.374	10.66
333.585	10.6
333.795	10.68
334.006	10.5
334.217	10.45
334.428	10.59
334.639	10.62
334.849	10.74
335.06	10.8
335.271	10.64
335.482	10.62
335.692	10.47
335.903	10.45
336.114	10.2
336.325	10.29
336.535	10.15
336.746	9.86
336.957	9.98
337.167	9.82
337.378	9.69
337.589	9.77
337.799	9.69
338.01	9.68
338.22	9.67
338.431	9.78
338.642	9.64
338.852	9.6
339.063	9.61
339.273	9.47
339.484	9.5
339.694	9.61
339.905	9.64
340.115	9.53
340.326	9.2
340.536	9.37
340.746	9.38
340.957	9.32
341.167	9.56
341.378	9.62
341.588	9.68
341.799	9.57
342.009	9.38
342.219	9.5
342.43	9.63
342.64	9.72
342.85	9.55
343.061	9.55
343.271	9.62
343.481	9.57
343.691	9.57
343.902	9.38
344.112	9.27
344.322	9.37
344.532	9.21
344.743	9.17
344.953	9.05
345.163	9
345.373	8.93
345.583	8.83
345.793	8.61
346.004	8.57
346.214	8.79
346.424	8.95
346.634	9.05
346.844	9.08
347.054	9.22
347.264	9.51
347.474	9.49
347.684	9.42
347.894	9.62
348.104	9.7
348.314	9.72
348.524	9.68
348.734	9.66
348.944	9.55
349.154	9.53
349.364	9.17
349.574	9.01
349.784	9.09
349.994	9.24
350.204	9.05
350.413	8.87
350.623	8.84
350.833	8.75
351.043	8.63
351.253	8.62
351.463	8.59
351.672	8.62
351.882	8.78
352.092	8.65
352.302	8.57
352.511	8.57
352.721	8.61
352.931	8.56
353.141	8.39
353.35	8.29
353.56	8.24
353.77	8.31
353.979	8.48
354.189	8.26
354.399	8.45
354.608	8.36
354.818	8.35
355.027	8.44
355.237	8.49
355.447	8.63
355.656	8.68
355.866	8.65
356.075	8.61
356.285	8.5
356.494	8.51
356.704	8.28
356.913	8.43
357.123	8.42
357.332	8.38
357.542	8.38
357.751	8.3
357.96	8.19
358.17	8.13
358.379	8.16
358.589	8.08
358.798	8.17
359.007	8.22
359.217	7.96
359.426	8.05
359.635	7.99
359.845	7.99
360.054	7.9
360.263	8
360.472	8.05
360.682	7.94
360.891	8.03
361.1	8.04
361.309	8.08
361.519	8.08
361.728	8
361.937	8.09
362.146	7.94
362.355	8.03
362.564	7.99
362.774	7.91
362.983	7.86
363.192	7.79
363.401	7.73
363.61	7.64
363.819	7.77
364.028	7.83
364.237	7.75
364.446	8.04
364.655	8.02
364.864	8.09
365.073	8.19
365.282	8.17
365.491	8.15
365.7	8.1
365.909	8.06
366.118	8.09
366.327	7.99
366.536	7.88
366.745	7.69
366.954	7.64
367.162	7.45
367.371	7.31
367.58	7.39
367.789	7.31
367.998	7.22
368.207	7.25
368.415	7.16
368.624	7.12
368.833	7.26
369.042	7.26
369.25	7.37
369.459	7.52
369.668	7.49
369.877	7.5
370.085	7.48
370.294	7.47
370.503	7.5
370.711	7.5
370.92	7.32
371.129	7.3
371.337	7.29
371.546	7.1
371.754	7.04
371.963	7.09
372.171	7.03
372.38	7.02
372.589	7.12
372.797	7.03
373.006	6.95
373.214	7.07
373.423	6.97
373.631	6.91
373.84	6.95
374.048	6.94
374.256	6.77
374.465	6.65
374.673	6.57
374.882	6.48
375.09	6.51
375.298	6.48
375.507	6.46
375.715	6.45
375.923	6.35
376.132	6.27
376.34	6.17
376.548	6.29
376.757	6.38
376.965	6.47
377.173	6.53
377.381	6.49
377.59	6.5
377.798	6.5
378.006	6.5
378.214	6.57
378.423	6.68
378.631	6.64
378.839	6.5
379.047	6.46
379.255	6.43
379.463	6.34
379.671	6.33
379.879	6.33
380.088	6.31
380.296	6.29
380.504	6.33
380.712	6.37
380.92	6.54
381.128	6.6
381.336	6.61
381.544	6.61
381.752	6.66
381.96	6.56
382.168	6.57
382.376	6.57
382.584	6.57
382.791	6.49
382.999	6.31
383.207	6.21
383.415	6.14
383.623	6.09
383.831	6
384.039	5.99
384.247	6.05
384.454	6.01
384.662	6.07
384.87	6.03
385.078	6.09
385.285	6.17
385.493	6.09
385.701	6.18
385.909	6.21
386.116	6.34
386.324	6.28
386.532	6.28
386.739	6.25
386.947	6.05
387.155	5.98
387.362	5.96
387.57	5.97
387.778	5.97
387.985	5.99
388.193	5.96
388.4	6.02
388.608	5.95
388.816	5.91
389.023	5.91
389.231	5.99
389.438	5.99
389.646	5.83
389.853	5.81
390.061	5.82
390.268	5.78
390.475	5.81
390.683	5.54
390.89	5.56
391.098	5.53
391.305	5.5
391.512	5.45
391.72	5.43
391.927	5.44
392.135	5.34
392.342	5.39
392.549	5.33
392.756	5.19
392.964	5.24
393.171	5.26
393.378	5.25
393.586	5.26
393.793	5.34
394	5.31
394.207	5.34
394.414	5.42
394.622	5.43
394.829	5.39
395.036	5.4
395.243	5.47
395.45	5.43
395.657	5.44
395.864	5.37
396.072	5.37
396.279	5.38
396.486	5.34
396.693	5.33
396.9	5.25
397.107	5.3
397.314	5.3
397.521	5.31
397.728	5.21
397.935	5.12
398.142	5.1
398.349	5.03
398.556	5.1
398.763	5.12
398.97	5.01
399.177	5
399.383	4.94
399.59	4.96
399.797	4.9
400.004	4.94
400.211	5
400.418	5.02
400.625	4.99
400.831	4.8
401.038	4.83
401.245	4.81
401.452	4.78
401.658	4.84
401.865	4.83
402.072	4.84
402.279	4.88
402.485	4.91
402.692	4.93
402.899	5.02
403.105	5.15
403.312	5.06
403.519	5.07
403.725	5.14
403.932	5.11
404.138	5.07
404.345	5.06
404.552	4.99
404.758	5
404.965	5
405.171	4.86
405.378	4.79
405.584	4.89
405.791	4.9
405.997	4.88
406.204	4.89
406.41	4.94
406.617	4.94
406.823	4.99
407.029	4.94
407.236	4.9
407.442	4.96
407.649	5.08
407.855	5.05
408.061	5.05
408.268	4.94
408.474	4.88
408.68	4.85
408.887	4.83
409.093	4.82
409.299	4.86
409.505	4.84
409.712	4.85
409.918	4.7
410.124	4.67
410.33	4.58
410.537	4.58
410.743	4.58
410.949	4.55
411.155	4.58
411.361	4.55
411.567	4.45
411.773	4.42
411.98	4.38
412.186	4.42
412.392	4.37
412.598	4.47
412.804	4.48
413.01	4.45
413.216	4.45
413.422	4.38
413.628	4.37
413.834	4.42
414.04	4.46
414.246	4.48
414.452	4.49
414.658	4.5
414.864	4.45
415.07	4.47
415.275	4.44
415.481	4.42
415.687	4.43
415.893	4.42
416.099	4.41
416.305	4.44
416.511	4.5
416.716	4.47
416.922	4.49
417.128	4.49
417.334	4.47
417.539	4.46
417.745	4.47
417.951	4.43
418.157	4.44
418.362	4.42
418.568	4.36
418.774	4.27
418.979	4.22
419.185	4.19
419.391	4.18
419.596	4.19
419.802	4.21
420.008	4.18
420.213	4.51
420.419	4.52
420.624	4.51
420.83	4.5
421.035	4.51
421.241	4.53
421.446	4.56
421.652	4.55
421.857	4.54
422.063	4.54
422.268	4.55
422.474	4.25
422.679	4.21
422.885	4.19
423.09	4.19
423.295	4.2
423.501	4.21
423.706	4.16
423.911	4.14
424.117	4.13
424.322	4.13
424.527	4.14
424.733	4.1
424.938	4.11
425.143	4.14
425.349	4.11
425.554	4.12
425.759	4.11
425.964	4.11
426.169	4.16
426.375	4.14
426.58	4.1
426.785	4.12
426.99	4.12
427.195	4.06
427.4	4.05
427.605	4.06
427.811	4.03
428.016	4.06
428.221	4.13
428.426	4.08
428.631	4.07
428.836	4.06
429.041	3.97
429.246	4.05
429.451	4.08
429.656	4.09
429.861	4.09
430.066	4.12
430.271	4.08
430.476	4.04
430.681	4.01
430.886	4
431.09	4.02
431.295	4.04
431.5	4
431.705	4
431.91	3.99
432.115	3.97
432.32	3.95
432.524	3.91
432.729	3.87
432.934	3.93
433.139	3.94
433.343	3.99
433.548	3.99
433.753	4.01
433.958	4
434.162	3.99
434.367	4.02
434.572	3.98
434.776	4.04
434.981	4.05
435.186	4.04
435.39	4.05
435.595	4.03
435.799	4
436.004	3.98
436.209	3.99
436.413	3.96
436.618	3.9
436.822	3.92
437.027	3.86
437.231	3.86
437.436	3.82
437.64	3.81
437.845	3.78
438.049	3.81
438.253	3.74
438.458	3.72
438.662	3.75
438.867	3.78
439.071	3.81
439.275	3.85
439.48	3.86
439.684	3.87
439.888	3.85
440.093	3.84
440.297	3.82
440.501	3.88
440.706	3.9
440.91	3.93
441.114	3.92
441.318	3.91
441.523	3.89
441.727	3.88
441.931	3.94
442.135	3.96
442.339	3.97
442.543	3.97
442.748	3.91
442.952	3.9
443.156	3.85
443.36	3.86
443.564	3.8
443.768	3.78
443.972	3.74
444.176	3.66
444.38	3.65
444.584	3.6
444.788	3.6
444.992	3.63
445.196	3.61
445.4	3.65
445.604	3.61
445.808	3.62
446.012	3.63
446.216	3.64
446.42	3.61
446.624	3.6
446.828	3.59
447.032	3.61
447.235	3.59
447.439	3.6
447.643	3.57
447.847	3.58
448.051	3.53
448.254	3.54
448.458	3.53
448.662	3.59
448.866	3.57
449.069	3.63
449.273	3.66
449.477	3.68
449.681	3.69
449.884	3.7
450.088	3.74
450.292	3.81
450.495	3.79
450.699	3.85
450.902	3.88
451.106	3.87
451.31	3.81
451.513	3.75
451.717	3.71
451.92	3.72
452.124	3.68
452.327	3.7
452.531	3.71
452.734	3.7
452.938	3.63
453.141	3.56
453.345	3.62
453.548	3.66
453.752	3.66
453.955	3.66
454.158	3.63
454.362	3.66
454.565	3.59
454.769	3.53
454.972	3.5
455.175	3.48
455.379	3.48
455.582	3.42
455.785	3.38
455.988	3.36
456.192	3.33
456.395	3.34
456.598	3.34
456.801	3.35
457.005	3.36
457.208	3.36
457.411	3.4
457.614	3.44
457.817	3.46
458.021	3.46
458.224	3.49
458.427	3.55
458.63	3.57
458.833	3.53
459.036	3.53
459.239	3.55
459.442	3.55
459.645	3.57
459.848	3.55
460.051	3.54
460.254	3.56
460.457	3.54
460.66	3.52
460.863	3.5
461.066	3.54
461.269	3.54
461.472	3.53
461.675	3.58
461.878	3.57
462.081	3.55
462.284	3.54
462.486	3.57
462.689	3.6
462.892	3.61
463.095	3.6
463.298	3.58
463.5	3.57
463.703	3.59
463.906	3.56
464.109	3.53
464.311	3.56
464.514	3.59
464.717	3.6
464.92	3.61
465.122	3.62
465.325	3.65
465.528	3.65
465.73	3.66
465.933	3.65
466.135	3.69
466.338	3.73
466.541	3.72
466.743	3.73
466.946	3.67
467.148	3.67
467.351	3.62
467.553	3.6
467.756	3.65
467.958	3.66
468.161	3.68
468.363	3.64
468.566	3.59
468.768	3.55
468.971	3.51
469.173	3.53
469.375	3.49
469.578	3.62
469.78	3.61
469.983	3.6
470.185	3.59
470.387	3.58
470.59	3.57
470.792	3.58
470.994	3.62
471.196	3.61
471.399	3.55
471.601	3.55
471.803	3.43
472.005	3.43
472.208	3.42
472.41	3.4
472.612	3.41
472.814	3.42
473.016	3.45
473.218	3.47
473.421	3.49
473.623	3.53
473.825	3.57
474.027	3.61
474.229	3.58
474.431	3.53
474.633	3.53
474.835	3.51
475.037	3.49
475.239	3.49
475.441	3.52
475.643	3.51
475.845	3.54
476.047	3.52
476.249	3.47
476.451	3.54
476.653	3.59
476.855	3.58
477.057	3.61
477.258	3.6
477.46	3.58
477.662	3.51
477.864	3.52
478.066	3.48
478.268	3.46
478.469	3.48
478.671	3.41
478.873	3.37
479.075	3.38
479.276	3.37
479.478	3.38
479.68	3.39
479.882	3.42
480.083	3.45
480.285	3.47
480.487	3.48
480.688	3.47
480.89	3.49
481.091	3.49
481.293	3.48
481.495	3.47
481.696	3.45
481.898	3.43
482.099	3.41
482.301	3.4
482.502	3.38
482.704	3.37
482.905	3.36
483.107	3.35
483.308	3.35
483.51	3.33
483.711	3.33
483.913	3.34
484.114	3.34
484.315	3.34
484.517	3.33
484.718	3.34
484.92	3.33
485.121	3.33
485.322	3.34
485.524	3.34
485.725	3.37
485.926	3.38
486.127	3.37
486.329	3.36
486.53	3.35
486.731	3.35
486.932	3.35
487.134	3.34
487.335	3.32
487.536	3.3
487.737	3.3
487.938	3.29
488.139	3.26
488.341	3.26
488.542	3.26
488.743	3.28
488.944	3.27
489.145	3.28
489.346	3.29
489.547	3.34
489.748	3.35
489.949	3.36
490.15	3.37
490.351	3.38
490.552	3.39
490.753	3.39
490.954	3.39
491.155	3.4
491.356	3.38
491.557	3.4
491.758	3.39
491.959	3.4
492.159	3.37
492.36	3.4
492.561	3.39
492.762	3.39
492.963	3.41
493.164	3.41
493.364	3.41
493.565	3.44
493.766	3.44
493.967	3.42
494.167	3.43
494.368	3.46
494.569	3.43
494.769	3.44
494.97	3.41
495.171	3.42
495.371	3.43
495.572	3.47
495.773	3.5
495.973	3.51
496.174	3.54
496.375	3.55
496.575	3.57
496.776	3.58
496.976	3.63
497.177	3.66
497.377	3.65
497.578	3.67
497.778	3.64
497.979	3.65
498.179	3.67
498.38	3.63
498.58	3.66
498.78	3.66
498.981	3.68
499.181	3.67
499.382	3.68
499.582	3.71
499.782	3.74
499.983	3.78
500.183	3.8
500.383	3.77
500.584	3.78
500.784	3.77
500.984	3.79
501.184	3.77
501.385	3.78
501.585	3.83
501.785	3.84
501.985	3.83
502.185	3.84
502.386	3.82
502.586	3.83
502.786	3.93
502.986	3.95
503.186	3.99
503.386	4.02
503.586	4.03
503.786	3.98
503.987	3.98
504.187	4.01
504.387	4.06
504.587	4.07
504.787	4.11
504.987	4.08
505.187	4.09
505.387	4.07
505.587	4.08
505.786	4.11
505.986	4.12
506.186	4.15
506.386	4.18
506.586	4.2
506.786	4.23
506.986	4.24
507.186	4.25
507.386	4.27
507.585	4.33
507.785	4.34
507.985	4.33
508.185	4.42
508.384	4.41
508.584	4.42
508.784	4.43
508.984	4.46
509.183	4.51
509.383	4.55
509.583	4.55
509.782	4.55
509.982	4.57
510.182	4.61
510.381	4.58
510.581	4.62
510.781	4.65
510.98	4.63
511.18	4.63
511.379	4.63
511.579	4.67
511.778	4.7
511.978	4.72
512.177	4.72
512.377	4.76
512.576	4.81
512.776	4.86
512.975	4.84
513.175	4.9
513.374	4.96
513.573	4.99
513.773	5.04
513.972	5.08
514.172	5.13
514.371	5.2
514.57	5.2
514.77	5.19
514.969	5.2
515.168	5.29
515.367	5.3
515.567	5.28
515.766	5.3
515.965	5.29
516.164	5.31
516.364	5.32
516.563	5.35
516.762	5.43
516.961	5.46
517.16	5.49
517.359	5.51
517.559	5.53
517.758	5.57
517.957	5.61
518.156	5.64
518.355	5.63
518.554	5.66
518.753	5.64
518.952	5.66
519.151	5.71
519.35	5.75
519.549	5.75
519.748	5.77
519.947	5.82
520.146	5.81
520.345	5.83
520.544	5.91
520.743	5.96
520.942	5.98
521.141	5.98
521.339	5.96
521.538	5.99
521.737	6.03
521.936	6.03
522.135	6.02
522.333	6.06
522.532	6.05
522.731	6.09
522.93	6.09
523.129	6.17
523.327	6.18
523.526	6.2
523.725	6.22
523.923	6.24
524.122	6.27
524.321	6.36
524.519	6.37
524.718	6.4
524.917	6.42
525.115	6.46
525.314	6.47
525.512	6.49
525.711	6.53
525.909	6.53
526.108	6.54
526.306	6.57
526.505	6.54
526.703	6.58
526.902	6.6
527.1	6.59
527.299	6.61
527.497	6.63
527.696	6.64
527.894	6.66
528.092	6.67
528.291	6.7
528.489	6.72
528.688	6.74
528.886	6.74
529.084	6.76
529.283	6.79
529.481	6.8
529.679	6.81
529.877	6.83
530.076	6.83
530.274	6.87
530.472	6.91
530.67	6.94
530.869	6.97
531.067	7.01
531.265	7.04
531.463	7.06
531.661	7.07
531.859	7.09
532.057	7.16
532.255	7.17
532.454	7.17
532.652	7.18
532.85	7.19
533.048	7.22
533.246	7.24
533.444	7.24
533.642	7.27
533.84	7.28
534.038	7.33
534.236	7.34
534.434	7.39
534.632	7.42
534.83	7.44
535.027	7.48
535.225	7.51
535.423	7.54
535.621	7.58
535.819	7.62
536.017	7.67
536.215	7.67
536.412	7.67
536.61	7.71
536.808	7.74
537.006	7.76
537.203	7.77
537.401	7.77
537.599	7.81
537.797	7.85
537.994	7.88
538.192	7.88
538.39	7.93
538.587	7.92
538.785	7.96
538.983	8
539.18	8.07
539.378	8.09
539.575	8.14
539.773	8.15
539.97	8.15
540.168	8.15
540.366	8.19
540.563	8.2
540.761	8.22
540.958	8.23
541.155	8.23
541.353	8.23
541.55	8.26
541.748	8.26
541.945	8.27
542.143	8.28
542.34	8.29
542.537	8.28
542.735	8.32
542.932	8.35
543.129	8.37
543.327	8.43
543.524	8.45
543.721	8.48
543.919	8.53
544.116	8.57
544.313	8.64
544.51	8.66
544.708	8.71
544.905	8.73
545.102	8.73
545.299	8.75
545.496	8.76
545.693	8.77
545.891	8.79
546.088	8.82
546.285	8.86
546.482	8.86
546.679	8.94
546.876	8.97
547.073	8.96
547.27	9.02
547.467	9.04
547.664	9.03
547.861	9.08
548.058	9.08
548.255	9.06
548.452	9.05
548.649	9.11
548.846	9.12
549.043	9.1
549.24	9.18
549.437	9.17
549.633	9.21
549.83	9.29
550.027	9.29
550.224	9.35
550.421	9.39
550.618	9.42
550.814	9.43
551.011	9.43
551.208	9.53
551.405	9.53
551.601	9.61
551.798	9.61
551.995	9.63
552.191	9.66
552.388	9.6
552.585	9.64
552.781	9.68
552.978	9.69
553.175	9.71
553.371	9.65
553.568	9.65
553.764	9.58
553.961	9.64
554.157	9.66
554.354	9.67
554.55	9.76
554.747	9.8
554.943	9.76
555.14	9.78
555.336	9.8
555.533	9.9
555.729	9.98
555.926	10.05
556.122	10.04
556.318	10.05
556.515	10.07
556.711	10.11
556.907	10.06
557.104	10.17
557.3	10.17
557.496	10.17
557.693	10.17
557.889	10.14
558.085	10.2
558.281	10.21
558.478	10.19
558.674	10.22
558.87	10.2
559.066	10.24
559.262	10.17
559.459	10.18
559.655	10.22
559.851	10.24
560.047	10.23
560.243	10.19
560.439	10.2
560.635	10.21
560.831	10.17
561.027	10.18
561.223	10.22
561.419	10.31
561.615	10.28
561.811	10.25
562.007	10.25
562.203	10.29
562.399	10.3
562.595	10.28
562.791	10.27
562.987	10.32
563.183	10.31
563.379	10.33
563.575	10.3
563.771	10.38
563.966	10.46
564.162	10.5
564.358	10.5
564.554	10.52
564.75	10.57
564.945	10.62
565.141	10.63
565.337	10.66
565.533	10.65
565.728	10.69
565.924	10.68
566.12	10.67
566.315	10.69
566.511	10.71
566.707	10.71
566.902	10.68
567.098	10.67
567.293	10.69
567.489	10.72
567.684	10.69
567.88	10.69
568.076	10.71
568.271	10.69
568.467	10.65
568.662	10.67
568.858	10.72
569.053	10.78
569.248	10.82
569.444	10.8
569.639	10.78
569.835	10.83
570.03	10.82
570.225	10.8
570.421	10.87
570.616	10.9
570.812	10.91
571.007	10.86
571.202	10.88
571.397	10.89
571.593	10.88
571.788	10.88
571.983	10.92
572.178	10.92
572.374	10.96
572.569	10.97
572.764	10.96
572.959	10.96
573.154	11.01
573.35	11
573.545	10.96
573.74	10.99
573.935	11
574.13	10.99
574.325	11
574.52	10.97
574.715	10.92
574.91	10.92
575.105	10.89
575.3	10.91
575.495	10.91
575.69	10.99
575.885	11
576.08	10.98
576.275	10.95
576.47	10.96
576.665	10.99
576.86	11.07
577.055	11.11
577.25	11.12
577.444	11.13
577.639	11.15
577.834	11.12
578.029	11.14
578.224	11.19
578.418	11.24
578.613	11.24
578.808	11.27
579.003	11.23
579.197	11.2
579.392	11.23
579.587	11.23
579.781	11.2
579.976	11.13
580.171	11.07
580.365	11.11
580.56	11.06
580.755	11.07
580.949	11.07
581.144	11.07
581.338	11.09
581.533	11.06
581.727	11.06
581.922	11.1
582.116	11.2
582.311	11.27
582.505	11.24
582.7	11.28
582.894	11.29
583.089	11.25
583.283	11.22
583.478	11.24
583.672	11.29
583.866	11.29
584.061	11.27
584.255	11.22
584.449	11.18
584.644	11.26
584.838	11.23
585.032	11.23
585.226	11.23
585.421	11.27
585.615	11.24
585.809	11.21
586.003	11.09
586.198	11.12
586.392	11.22
586.586	11.31
586.78	11.26
586.974	11.32
587.168	11.33
587.363	11.29
587.557	11.29
587.751	11.32
587.945	11.28
588.139	11.4
588.333	11.38
588.527	11.32
588.721	11.3
588.915	11.26
589.109	11.23
589.303	11.17
589.497	11.23
589.691	11.28
589.885	11.29
590.079	11.37
590.273	11.34
590.466	11.37
590.66	11.39
590.854	11.37
591.048	11.36
591.242	11.34
591.436	11.36
591.629	11.32
591.823	11.31
592.017	11.32
592.211	11.3
592.404	11.29
592.598	11.22
592.792	11.19
592.986	11.17
593.179	11.21
593.373	11.22
593.567	11.23
593.76	11.29
593.954	11.24
594.147	11.25
594.341	11.24
594.535	11.31
594.728	11.34
594.922	11.36
595.115	11.36
595.309	11.41
595.502	11.48
595.696	11.53
595.889	11.53
596.083	11.51
596.276	11.46
596.47	11.46
596.663	11.42
596.856	11.43
597.05	11.46
597.243	11.45
597.437	11.39
597.63	11.33
597.823	11.36
598.017	11.36
598.21	11.38
598.403	11.43
598.596	11.45
598.79	11.51
598.983	11.52
599.176	11.53
599.369	11.56
599.563	11.61
599.756	11.61
599.949	11.58
600.142	11.55
600.335	11.61
600.528	11.62
600.722	11.63
600.915	11.55
601.108	11.53
601.301	11.55
601.494	11.54
601.687	11.55
601.88	11.55
602.073	11.55
602.266	11.58
602.459	11.56
602.652	11.58
602.845	11.61
603.038	11.61
603.231	11.61
603.424	11.57
603.617	11.58
603.809	11.53
604.002	11.57
604.195	11.55
604.388	11.56
604.581	11.54
604.774	11.48
604.966	11.49
605.159	11.5
605.352	11.5
605.545	11.49
605.737	11.45
605.93	11.46
606.123	11.43
606.316	11.48
606.508	11.42
606.701	11.5
606.894	11.58
607.086	11.51
607.279	11.5
607.471	11.53
607.664	11.54
607.857	11.62
608.049	11.68
608.242	11.66
608.434	11.62
608.627	11.62
608.819	11.55
609.012	11.58
609.204	11.6
609.397	11.66
609.589	11.66
609.782	11.65
609.974	11.66
610.166	11.68
610.359	11.75
610.551	11.77
610.743	11.8
610.936	11.83
611.128	11.75
611.32	11.71
611.513	11.64
611.705	11.65
611.897	11.63
612.09	11.58
612.282	11.51
612.474	11.36
612.666	11.43
612.858	11.45
613.051	11.45
613.243	11.46
613.435	11.54
613.627	11.6
613.819	11.64
614.011	11.69
614.203	11.68
614.395	11.64
614.588	11.71
614.78	11.72
614.972	11.74
615.164	11.67
615.356	11.63
615.548	11.6
615.74	11.66
615.932	11.61
616.124	11.58
616.315	11.56
616.507	11.6
616.699	11.66
616.891	11.65
617.083	11.75
617.275	11.85
617.467	11.87
617.659	11.82
617.85	11.79
618.042	11.8
618.234	11.88
618.426	11.91
618.618	11.98
618.809	11.93
619.001	11.85
619.193	11.8
619.384	11.74
619.576	11.81
619.768	11.85
619.959	11.73
620.151	11.76
620.343	11.73
620.534	11.75
620.726	11.7
620.917	11.72
621.109	11.81
621.301	11.76
621.492	11.77
621.684	11.68
621.875	11.65
622.067	11.71
622.258	11.72
622.45	11.78
622.641	11.8
622.832	11.86
623.024	11.88
623.215	11.81
623.407	11.84
623.598	11.9
623.789	11.93
623.981	12.03
624.172	12.12
624.363	12.09
624.555	12.01
624.746	11.99
624.937	12.01
625.129	11.95
625.32	11.93
625.511	11.92
625.702	11.88
625.893	11.94
626.085	11.88
626.276	11.85
626.467	11.88
626.658	11.94
626.849	11.9
627.04	11.88
627.231	11.89
627.422	11.96
627.614	11.96
627.805	11.94
627.996	11.87
628.187	11.87
628.378	11.85
628.569	11.8
628.76	11.75
628.951	11.73
629.142	11.67
629.332	11.66
629.523	11.6
629.714	11.61
629.905	11.63
630.096	11.65
630.287	11.6
630.478	11.67
630.669	11.75
630.859	11.71
631.05	11.76
631.241	11.83
631.432	11.89
631.623	11.95
631.813	11.93
632.004	11.91
632.195	11.98
632.385	12.01
632.576	11.97
632.767	11.87
632.957	11.93
633.148	11.99
633.339	11.89
633.529	11.89
633.72	11.89
633.91	11.82
634.101	11.91
634.292	11.87
634.482	11.91
634.673	11.9
634.863	11.91
635.054	11.85
635.244	11.79
635.435	11.88
635.625	11.83
635.815	11.74
636.006	11.79
636.196	11.84
636.387	11.75
636.577	11.75
636.767	11.81
636.958	11.88
637.148	11.87
637.338	11.84
637.529	11.83
637.719	11.84
637.909	11.9
638.099	11.88
638.29	11.73
638.48	11.86
638.67	11.87
638.86	11.85
639.05	11.79
639.241	11.84
639.431	11.85
639.621	11.86
639.811	11.94
640.001	11.85
640.191	11.87
640.381	11.8
640.571	11.75
640.761	11.77
640.951	11.7
641.141	11.71
641.331	11.62
641.521	11.64
641.711	11.64
641.901	11.56
642.091	11.67
642.281	11.72
642.471	11.77
642.661	11.83
642.851	11.86
643.041	11.89
643.231	11.97
643.42	12.05
643.61	11.99
643.8	11.94
643.99	12.04
644.18	12.01
644.369	12.02
644.559	12.14
644.749	12.04
644.939	12.01
645.128	11.94
645.318	11.9
645.508	11.95
645.697	11.98
645.887	12.02
646.076	12.01
646.266	12.01
646.456	11.98
646.645	11.83
646.835	11.77
647.024	11.77
647.214	11.78
647.403	11.81
647.593	11.84
647.782	11.84
647.972	11.85
648.161	11.73
648.351	11.73
648.54	11.76
648.73	11.81
648.919	11.94
649.108	11.88
649.298	11.83
649.487	11.8
649.677	11.71
649.866	11.77
650.055	11.77
650.244	11.86
650.434	11.79
650.623	11.74
650.812	11.75
651.002	11.63
651.191	11.7
651.38	11.76
651.569	11.86
651.758	11.82
651.947	11.79
652.137	11.77
652.326	11.76
652.515	11.79
652.704	11.88
652.893	11.9
653.082	11.97
653.271	12.01
653.46	12
653.649	11.91
653.838	11.94
654.027	11.89
654.216	11.87
654.405	11.86
654.594	11.91
654.783	11.91
654.972	11.96
655.161	12
655.35	11.95
655.539	11.99
655.728	11.96
655.916	11.89
656.105	11.9
656.294	11.89
656.483	11.82
656.672	11.82
656.86	11.71
657.049	11.75
657.238	11.75
657.427	11.73
657.615	11.73
657.804	11.66
657.993	11.75
658.181	11.74
658.37	11.73
658.559	11.77
658.747	11.81
658.936	11.85
659.125	11.83
659.313	11.8
659.502	11.81
659.69	11.81
659.879	11.83
660.067	11.85
660.256	11.95
660.444	12.11
660.633	12.13
660.821	12.1
661.01	12.11
661.198	12.12
661.387	12.07
661.575	12.1
661.763	12.14
661.952	12.2
662.14	12.16
662.328	12.15
662.517	11.97
662.705	11.94
662.893	11.99
663.082	12.03
663.27	12
663.458	12.03
663.646	12
663.834	11.99
664.023	11.97
664.211	12.01
664.399	11.93
664.587	12.02
664.775	11.99
664.963	11.99
665.152	11.95
665.34	12.03
665.528	12.1
665.716	12.12
665.904	12.06
666.092	12.08
666.28	12.11
666.468	12.19
666.656	12.13
666.844	12.22
667.032	12.15
667.22	12.18
667.408	12.14
667.596	12.17
667.784	12.22
667.971	12.32
668.159	12.3
668.347	12.29
668.535	12.16
668.723	12.13
668.911	12.07
669.098	12.04
669.286	12.09
669.474	12.13
669.662	12.05
669.849	12.02
670.037	11.92
670.225	11.93
670.413	11.92
670.6	12.06
670.788	12.12
670.976	12.19
671.163	12.18
671.351	12.07
671.538	11.92
671.726	12.05
671.913	12.03
672.101	11.94
672.289	11.98
672.476	12
672.664	11.96
672.851	11.88
673.039	11.81
673.226	11.82
673.413	11.78
673.601	11.79
673.788	11.77
673.976	11.68
674.163	11.81
674.35	11.79
674.538	11.71
674.725	11.73
674.912	11.91
675.1	11.83
675.287	11.86
675.474	11.89
675.662	12.16
675.849	12.07
676.036	12.21
676.223	12.34
676.411	12.3
676.598	12.29
676.785	12.28
676.972	12.29
677.159	12.4
677.346	12.42
677.533	12.5
677.721	12.35
677.908	12.41
678.095	12.37
678.282	12.3
678.469	12.29
678.656	12.33
678.843	12.35
679.03	12.26
679.217	12.25
679.404	12.2
679.591	12.07
679.778	12.01
679.964	11.98
680.151	11.98
680.338	12
680.525	12.06
680.712	12.05
680.899	12.08
681.086	12.06
681.272	12.08
681.459	12.23
681.646	12.26
681.833	12.38
682.02	12.33
682.206	12.33
682.393	12.21
682.58	12.2
682.766	12.19
682.953	12.16
683.14	12.25
683.326	12.3
683.513	12.26
683.7	12.28
683.886	12.14
684.073	12.06
684.259	12.01
684.446	12.03
684.632	12.06
684.819	12.04
685.005	12.03
685.192	12.03
685.378	12.04
685.565	11.93
685.751	11.96
685.938	11.93
686.124	12.1
686.31	12.15
686.497	12.28
686.683	12.23
686.87	12.29
687.056	12.21
687.242	12.17
687.429	12.17
687.615	12.25
687.801	12.35
687.987	12.41
688.174	12.35
688.36	12.52
688.546	12.42
688.732	12.47
688.918	12.49
689.105	12.62
689.291	12.53
689.477	12.61
689.663	12.69
689.849	12.6
690.035	12.67
690.221	12.68
690.407	12.46
690.593	12.43
690.779	12.52
690.965	12.52
691.151	12.48
691.337	12.59
691.523	12.43
691.709	12.27
691.895	12.26
692.081	12.13
692.267	12.24
692.453	12.3
692.639	12.43
692.825	12.33
693.011	12.35
693.196	12.37
693.382	12.35
693.568	12.39
693.754	12.47
693.94	12.53
694.125	12.62
694.311	12.6
694.497	12.53
694.682	12.45
694.868	12.5
695.054	12.54
695.239	12.46
695.425	12.4
695.611	12.33
695.796	12.46
695.982	12.36
696.168	12.33
696.353	12.4
696.539	12.47
696.724	12.41
696.91	12.48
697.095	12.4
697.281	12.41
697.466	12.43
697.652	12.39
697.837	12.36
698.023	12.34
698.208	12.43
698.393	12.34
698.579	12.36
698.764	12.41
698.949	12.32
699.135	12.33
699.32	12.38
699.505	12.38
699.691	12.41
699.876	12.31
700.061	12.41
700.246	12.33
700.432	12.24
700.617	12.29
700.802	12.39
700.987	12.41
701.172	12.39
701.358	12.32
701.543	12.45
701.728	12.52
701.913	12.69
702.098	12.79
702.283	12.91
702.468	12.94
702.653	12.7
702.838	12.69
703.023	12.55
703.208	12.63
703.393	12.68
703.578	12.53
703.763	12.56
703.948	12.59
704.133	12.5
704.318	12.24
704.503	12.38
704.688	12.67
704.873	12.55
705.057	12.61
705.242	12.5
705.427	12.67
705.612	12.67
705.797	12.68
705.981	12.56
706.166	12.59
706.351	12.68
706.536	12.64
706.72	12.42
706.905	12.37
707.09	12.51
707.274	12.58
707.459	12.28
707.644	12.23
707.828	12.24
708.013	12.24
708.197	12.2
708.382	12.24
708.567	12.25
708.751	12.37
708.936	12.45
709.12	12.32
709.305	12.37
709.489	12.49
709.673	12.5
709.858	12.39
710.042	12.47
710.227	12.41
710.411	12.26
710.596	12.3
710.78	12.24
710.964	12.24
711.149	12.24
711.333	12.24
711.517	12.21
711.702	12.33
711.886	12.4
712.07	12.23
712.254	12.28
712.438	12.35
712.623	12.24
712.807	12.39
712.991	12.46
713.175	12.5
713.359	12.54
713.544	12.59
713.728	12.65
713.912	12.65
714.096	12.68
714.28	12.63
714.464	12.76
714.648	12.79
714.832	12.58
715.016	12.58
715.2	12.52
715.384	12.58
715.568	12.72
715.752	12.61
715.936	12.62
716.12	12.78
716.304	12.66
716.488	12.71
716.671	12.69
716.855	12.85
717.039	12.91
717.223	12.99
717.407	12.9
717.59	12.68
717.774	12.64
717.958	12.61
718.142	12.48
718.325	12.65
718.509	12.5
718.693	12.54
718.877	12.43
719.06	12.17
719.244	11.92
719.428	11.88
719.611	12.04
719.795	12.07
719.978	12.11
720.162	12.08
720.345	12.05
720.529	12.08
720.713	12.15
720.896	12.26
721.08	12.42
721.263	12.62
721.446	12.69
721.63	12.6
721.813	12.6
721.997	12.59
722.18	12.71
722.364	12.92
722.547	12.99
722.73	12.92
722.914	12.87
723.097	12.78
723.28	13.02
723.464	12.98
723.647	12.98
723.83	13.01
724.013	12.95
724.197	12.97
724.38	12.89
724.563	12.69
724.746	12.96
724.929	13.11
725.112	13.18
725.296	12.96
725.479	12.87
725.662	12.78
725.845	12.65
726.028	12.55
726.211	12.6
726.394	12.52
726.577	12.59
726.76	12.41
726.943	12.22
727.126	12.1
727.309	12.15
727.492	12.3
727.675	12.43
727.858	12.45
728.041	12.66
728.224	12.5
728.407	12.47
728.589	12.55
728.772	12.74
728.955	12.91
729.138	13.2
729.321	13.23
729.503	13.25
729.686	13.06
729.869	13.21
730.052	13.28
730.234	13.15
730.417	13.22
730.6	13.2
730.782	12.94
730.965	12.69
731.148	12.48
731.33	12.45
731.513	12.43
731.695	12.49
731.878	12.61
732.061	12.45
732.243	12.63
732.426	12.53
732.608	12.6
732.791	12.53
732.973	12.69
733.156	12.81
733.338	12.86
733.52	12.78
733.703	12.81
733.885	12.67
734.068	12.59
734.25	12.63
734.432	12.83
734.615	13.11
734.797	13.19
734.979	13.04
735.162	12.92
735.344	12.83
735.526	12.82
735.708	12.83
735.891	12.85
736.073	13.13
736.255	13.23
736.437	13.26
736.619	12.87
736.802	12.95
736.984	13.05
737.166	13.31
737.348	13.32
737.53	13.41
737.712	13.37
737.894	13.3
738.076	13.1
738.258	12.95
738.44	12.73
738.622	12.66
738.804	12.55
738.986	12.68
739.168	12.54
739.35	12.72
739.532	12.5
739.714	12.39
739.896	12.52
740.078	12.66
740.259	12.74
740.441	12.84
740.623	13.01
740.805	12.94
740.987	12.88
741.168	12.72
741.35	12.41
741.532	12.73
741.714	12.92
741.895	12.94
742.077	12.99
742.259	13.1
742.44	13.02
742.622	13.17
742.804	13.27
742.985	13.17
743.167	13.28
743.348	13.36
743.53	13.25
743.711	13.16
743.893	13
744.075	12.85
744.256	12.48
744.438	12.64
744.619	12.36
744.8	12.18
744.982	12.38
745.163	12.6
745.345	12.46
745.526	12.61
745.707	12.92
745.889	12.91
746.07	12.94
746.252	13.19
746.433	13.15
746.614	13.36
746.795	13.63
746.977	13.56
747.158	13.51
747.339	13.61
747.52	13.4
747.702	13.21
747.883	12.81
748.064	12.99
748.245	12.95
748.426	12.66
748.607	12.66
748.788	12.64
748.97	12.56
749.151	12.59
749.332	12.85
749.513	12.93
749.694	12.82
749.875	13.43
750.056	13.07
750.237	13.01
750.418	13.05
750.599	12.91
750.78	12.98
750.96	13.25
751.141	13.17
751.322	13.14
751.503	13.12
751.684	13.32
751.865	13.18
752.046	13.46
752.226	13.5
752.407	13.64
752.588	13.92
752.769	13.84
752.949	13.8
753.13	13.5
753.311	13.53
753.492	13.48
753.672	13.43
753.853	13.14
754.034	13.37
754.214	13.55
754.395	13.3
754.575	13.24
754.756	13.05
754.937	12.77
755.117	12.94
755.298	12.97
755.478	13.26
755.659	13.44
755.839	13.6
756.02	13.3
756.2	13.16
756.381	13.13
756.561	12.9
756.741	13.3
756.922	13.42
757.102	13.58
757.283	13.38
757.463	13.21
757.643	12.99
757.823	13.05
758.004	12.97
758.184	13.1
758.364	13.39
758.545	13.41
758.725	13.28
758.905	13.39
759.085	13.36
759.265	13.18
759.446	13.03
759.626	13.36
759.806	13.54
759.986	13.6
760.166	13.43
760.346	13.04
760.526	13.01
760.706	13.02
760.886	12.81
761.066	12.69
761.246	12.8
761.426	12.84
761.606	12.43
761.786	12.57
761.966	12.59
762.146	12.63
762.326	12.92
762.506	12.97
762.686	13.09
762.866	13.06
763.046	13.06
763.225	13.22
763.405	13.29
763.585	13.54
763.765	13.42
763.945	13.33
764.124	13.29
764.304	13.32
764.484	13.37
764.664	13.4
764.843	13.52
765.023	13.53
765.203	13.52
765.382	13.53
765.562	13.41
765.741	13.58
765.921	13.64
766.101	13.57
766.28	13.6
766.46	13.47
766.639	13.42
766.819	13.17
766.998	13.39
767.178	13.23
767.357	13.38
767.537	13.22
767.716	12.84
767.896	12.93
768.075	13.14
768.254	13.03
768.434	13.28
768.613	12.92
768.792	13.22
768.972	13.26
769.151	13.27
769.33	13.02
769.51	13.27
769.689	12.98
769.868	13.22
770.047	13.33
770.226	13.83
770.406	13.7
770.585	14.19
770.764	14.02
770.943	13.85
771.122	14.07
771.301	14.2
771.48	14.32
771.66	14.8
771.839	14.64
772.018	14.16
772.197	13.98
772.376	13.98
772.555	13.81
772.734	14.1
772.913	14.23
773.092	14.15
773.271	13.76
773.449	13.56
773.628	13.8
773.807	13.63
773.986	13.62
774.165	13.6
774.344	13.47
774.523	13.17
774.701	12.96
774.88	12.89
775.059	12.9
775.238	13.45
775.417	13.19
775.595	12.76
775.774	13.35
775.953	13.68
776.131	13.37
776.31	13.64
776.489	13.81
776.667	13.88
776.846	13.97
777.025	13.69
777.203	13.38
777.382	13.71
777.56	13.85
777.739	13.37
777.917	13.24
778.096	13.16
778.274	13.12
778.453	13.61
778.631	13.19
778.81	12.71
778.988	12.63
779.166	12.89
779.345	12.92
779.523	13.03
779.702	13.39
779.88	13.77
780.058	14.19
780.237	13.89
780.415	13.87
780.593	14.64
780.771	14.92
780.95	15.37
781.128	15.49
781.306	15.81
781.484	15.77
781.662	15.55
781.841	15.47
782.019	15.37
782.197	15.65
782.375	15.14
782.553	15.2
782.731	15.77
782.909	16.05
783.087	15.64
783.265	15.41
783.443	15.53
783.621	15.09
783.799	15.23
783.977	15.02
784.155	15.11
784.333	15.3
784.511	14.61
784.689	14.11
784.867	13.9
785.045	13.42
785.223	13.44
785.4	13.37
785.578	13.71
785.756	14.02
785.934	14.24
786.112	14.37
786.289	13.91
786.467	14.16
786.645	14.61
786.823	14.5
787	15.11
787.178	15.03
787.356	14.63
787.533	15.09
787.711	14.64
787.889	14.54
788.066	14.55
788.244	14.75
788.421	14.88
788.599	14.42
788.776	14.2
788.954	14.13
789.131	14
789.309	14.19
789.486	13.6
789.664	13.83
789.841	13.62
790.019	13.26
790.196	13.33
790.373	12.93
790.551	12.84
790.728	13.1
790.906	13.08
791.083	12.51
791.26	12.37
791.437	12.04
791.615	11.88
791.792	12.17
791.969	11.62
792.146	11.73
792.324	12.79
792.501	13.16
792.678	13.11
792.855	12.92
793.032	13.36
793.209	14.3
793.387	15.32
793.564	15
793.741	14.86
793.918	15.36
794.095	15.51
794.272	15.3
794.449	15.24
794.626	15.42
794.803	15.41
794.98	15.14
795.157	14.96
795.334	14.46
795.511	14.39
795.688	14.16
795.864	14.58
796.041	14.57
796.218	14.05
796.395	14.38
796.572	14.21
796.749	14.27
796.925	15.04
797.102	14.86
797.279	15.08
797.456	15.55
797.632	15.86
797.809	15.55
797.986	15.31
798.162	15.86
798.339	15.47
798.516	15.25
798.692	15.43
798.869	15.4
799.046	15.01
799.222	15.06
799.399	14.68
799.575	15
799.752	14.94
799.928	14.91
800.105	14.28
800.281	14.04
800.458	14.59
800.634	14.29
800.811	14.28
800.987	14.78
801.163	14.68
801.34	14.74
801.516	14.67
801.692	14.99
801.869	15.38
802.045	15.33
802.221	15.52
802.398	15.08
802.574	15.26
802.75	14.93
802.926	15
803.103	14.45
803.279	14.82
803.455	14.6
803.631	15.1
803.807	14.87
803.983	15.46
804.16	15.72
804.336	16
804.512	16.07
804.688	16.62
804.864	16.03
805.04	17.01
805.216	16.58
805.392	16.38
805.568	15.43
805.744	15.73
805.92	15.43
806.096	15.08
806.272	15.18
806.448	15
806.623	14.18
806.799	14.74
806.975	14.24
807.151	14.41
807.327	14.27
807.503	14.46
807.678	13.66
807.854	13.59
808.03	13.81
808.206	13.84
808.381	14.07
808.557	14.76
808.733	13.8
808.908	13.76
809.084	13.18
809.26	13.08
809.435	13.19
809.611	13.4
809.787	13.26
809.962	13.06
810.138	12.6
810.313	12.84
810.489	12.52
810.664	13.68
810.84	13.23
811.015	14.02
811.191	14.03
811.366	13.7
811.542	13.45
811.717	13.92
811.892	14.68
812.068	15.71
812.243	15.29
812.419	14.97
812.594	15.21
812.769	16.05
812.944	15.81
813.12	15.32
813.295	15.8
813.47	16.58
813.645	16.55
813.821	16.01
813.996	15.23
814.171	15.54
814.346	15.73
814.521	14.78
814.697	13.87
814.872	14.55
815.047	15.32
815.222	14.82
815.397	15.4
815.572	15.54
815.747	15.3
815.922	15.06
816.097	14.99
816.272	15.04
816.447	14.99
816.622	15.39
816.797	14.37
816.972	14.97
817.147	14.87
817.322	13.58
817.496	13.17
817.671	14.22
817.846	13.96
818.021	13.79
818.196	13.78
818.371	14.38
818.545	14.82
818.72	15.06
818.895	14.8
819.069	15.47
819.244	15.81
819.419	15.78
819.594	15.51
819.768	15.52
819.943	15.47
820.117	15.28
820.292	15.03
820.467	14.91
820.641	14.98
820.816	14.79
820.99	14.52
821.165	14.43
821.339	14.3
821.514	14.09
821.688	14.04
821.863	14.01
822.037	14.09
822.212	14.13
822.386	14.03
822.56	13.78
822.735	13.79
822.909	13.81
823.084	13.72
823.258	13.76
823.432	13.82
823.606	13.84
823.781	13.92
823.955	13.8
824.129	13.6
824.303	13.58
824.478	13.87
824.652	13.9
824.826	13.88
825	14.13
825.174	14.08
825.348	13.74
825.523	13.83
825.697	13.61
825.871	13.65
826.045	13.94
826.219	13.88
826.393	14.01
826.567	13.82
826.741	13.81
826.915	13.77
827.089	13.85
827.263	14.1
827.437	14.1
827.611	14.1
827.784	14.13
827.958	14.01
828.132	14.25
828.306	14.21
828.48	14.43
828.654	14.38
828.827	13.98
829.001	13.92
829.175	14
829.349	14.44
829.522	15.06
829.696	15.39
829.87	15.57
830.044	15.73
830.217	15.82
830.391	15.76
830.565	16.63
830.738	17.25
830.912	17.49
831.085	17.81
831.259	17.53
831.432	16.49
831.606	16.15
831.779	16.09
831.953	15.46
832.126	15.37
832.3	15.29
832.473	14.6
832.647	14.3
832.82	14.53
832.994	14.3
833.167	14.06
833.34	14.32
833.514	14.06
833.687	13.8
833.86	13.84
834.034	13.68
834.207	13.89
834.38	13.75
834.553	13.96
834.727	13.85
834.9	14.02
835.073	13.99
835.246	13.34
835.419	13.4
835.593	13.96
835.766	14.1
835.939	13.99
836.112	13.88
836.285	14.66
836.458	14.97
836.631	14.98
836.804	14.56
836.977	14.5
837.15	15.66
837.323	15.26
837.496	14.37
837.669	14.69
837.842	15.28
838.015	15.6
838.188	14.73
838.361	14.65
838.533	15.16
838.706	14.14
838.879	14.55
839.052	14.43
839.225	15.52
839.398	15.72
839.57	15.43
839.743	14.81
839.916	14.33
840.088	14.45
840.261	14.5
840.434	14.13
840.607	14.99
840.779	15.73
840.952	16.2
841.124	15.94
841.297	16.76
841.47	17.04
841.642	16.86
841.815	17.14
841.987	18.28
842.16	17.96
842.332	16.56
842.505	16.27
842.677	16.47
842.85	16.66
843.022	17.48
843.194	17.64
843.367	17.71
843.539	18.89
843.712	19.09
843.884	18.53
844.056	20.21
844.229	22.28
844.401	22.96
844.573	23.49
844.745	22
844.918	21.36
845.09	21.1
845.262	20.45
845.434	21.49
845.606	20.71
845.779	20.75
845.951	19.2
846.123	18.15
846.295	18.18
846.467	16.62
846.639	17.64
846.811	17.67
846.983	16.92
847.155	17.5
847.327	14.45
847.499	14.55
847.671	14.04
847.843	15.1
848.015	14.66
848.187	16.27
848.359	14.87
848.531	15.1
848.703	15.33
848.875	16.53
849.047	17.75
849.218	19.5
849.39	20.02
849.562	22.74
849.734	20.89
849.905	20.91
850.077	20.79
850.249	22.55
850.421	24.25
850.592	23.86
850.764	22.45
850.936	21.36
851.107	22.43
851.279	22.54
851.451	19.59
851.622	20.72
851.794	22.36
851.965	20.74
852.137	20.64
852.308	19.17
852.48	20.32
852.651	18.44
852.823	18.83
852.994	19.2
853.166	20.46
853.337	23.59
853.509	23.69
853.68	23.9
853.851	25.02
854.023	24.55
854.194	25.43
854.365	24.87
854.537	25.35
854.708	24.04
854.879	21.86
855.05	19.42
855.222	18.35
855.393	16.13
855.564	13.98
855.735	12.13
855.906	12.6
856.078	10.96
856.249	12.28
856.42	12.83
856.591	13.6
856.762	15.45
856.933	18
857.104	14.65
857.275	17.52
857.446	18.64
857.617	19.74
857.788	19.71
857.959	20.62
858.13	20.43
858.301	20.76
858.472	19.22
858.643	16.98
858.814	16.44
858.985	19.34
859.155	17.96
859.326	21.27
859.497	21.56
859.668	17.96
859.839	20.13
860.009	21.88
860.18	21.87
860.351	24.26
860.522	26.24
860.692	27.04
860.863	27.22
861.034	28.36
861.204	24.75
861.375	24.4
861.546	29.18
861.716	25.64
861.887	22.87
862.057	24.83
862.228	22.72
862.398	20.95
862.569	20.97
862.739	19.5
862.91	18.87
863.08	20.51
863.251	19.15
863.421	15.89
863.592	16.84
863.762	16.7
863.932	14.61
864.103	14.34
864.273	13.06
864.443	12.8
864.614	11.77
864.784	11.79
864.954	9.89
865.125	12.91
865.295	15.08
865.465	14.35
865.635	15.19
865.805	16.01
865.976	15.75
866.146	18.44
866.316	16.25
866.486	18.3
866.656	15.45
866.826	15.45
866.996	14.29
867.166	13.14
867.336	14.62
867.506	15.13
867.676	14.74
867.846	16.38
868.016	15.23
868.186	15.58
868.356	14.97
868.526	17.18
868.696	18.56
868.866	18.53
869.036	18.36
869.206	20.89
869.376	21.44
869.545	20.93
869.715	21.56
869.885	23.06
870.055	23.89
870.224	24.81
870.394	26.42
870.564	27.73
870.734	27.68
870.903	27.73
871.073	25.13
871.243	25.86
871.412	25.59
871.582	26.77
871.751	25.3
871.921	26.33
872.091	24.03
872.26	23.25
872.43	20.75
872.599	20.57
872.769	20.39
872.938	19.7
873.108	17.98
873.277	18.95
873.446	20.56
873.616	21.39
873.785	22.75
873.955	24.14
874.124	23.99
874.293	24.7
874.463	23.36
874.632	23.23
874.801	23.9
874.971	24.72
875.14	24.37
875.309	20.74
875.478	20.66
875.647	18.43
875.817	16.18
875.986	13.53
876.155	12.23
876.324	13.12
876.493	14.68
876.662	15.69
876.831	11.8
877	11.19
877.17	12.62
877.339	13.62
877.508	15.04
877.677	18.91
877.846	19.94
878.015	22.25
878.184	22.26
878.352	21.85
878.521	20.69
878.69	21.83
878.859	21.11
879.028	20.1
879.197	19.34
879.366	17.46
879.534	15.94
879.703	15.84
879.872	15.85
880.041	16.6
880.21	16.18
880.378	16.06
880.547	16.45
880.716	16.22
880.884	15.78
881.053	15.87
881.222	16.01
881.39	15.84
881.559	16.21
881.727	15.89
881.896	15.57
882.065	15.49
882.233	15.86
882.402	15.87
882.57	15.92
882.739	16.03
882.907	15.9
883.076	16.25
883.244	16.47
883.412	16
883.581	15.83
883.749	15.76
883.918	15.97
884.086	15.56
884.254	15.58
884.423	15.84
884.591	16.11
884.759	15.52
884.927	15.35
885.096	14.83
885.264	15.81
885.432	16.33
885.6	16.13
885.769	15.73
885.937	15.98
886.105	14.39
886.273	14.67
886.441	14.99
886.609	16.28
886.777	14.17
886.945	14.56
887.113	14.44
887.281	13.65
887.449	15.11
887.617	14.99
887.785	14.17
887.953	16.76
888.121	16.84
888.289	16.64
888.457	18.07
888.625	21.66
888.793	21.71
888.961	19.05
889.129	20.78
889.296	20.04
889.464	21.11
889.632	23.05
889.8	21.18
889.967	20.14
890.135	21.44
