Data from JASIL_3246_Reflection_1.txt Node
Date: Mon Nov 16 20:36:42 EST 2015
User: Geneva
Spectrometer: USB4E03002
Autoset integration time: false
Trigger mode: 4
Integration Time (sec): 1.000000E-1
Scans to average: 10
Electric dark correction enabled: false
Nonlinearity correction enabled: false
Boxcar width: 5
Stray light correction enabled: false
XAxis mode: Wavelengths
Stop averaging: false
Number of Pixels in Spectrum: 3648
>>>>>Begin Spectral Data<<<<<
177.575	-614.53
177.794	-659.29
178.014	-573.49
178.233	-898.13
178.452	-1314.46
178.672	-853.79
178.891	-1199.06
179.11	3597.3
179.33	1214.29
179.549	-6059.09
179.768	1121.19
179.987	1341.94
180.207	767.1
180.426	468.29
180.645	523.53
180.864	898.7
181.084	422.11
181.303	350.93
181.522	730.91
181.741	2125.35
181.96	486.61
182.179	617.84
182.398	668.44
182.618	658.05
182.837	650.84
183.056	571.03
183.275	387.47
183.494	390.93
183.713	441.23
183.932	346.61
184.151	381.62
184.37	360.05
184.589	306.85
184.808	268.22
185.027	254.25
185.246	308.94
185.465	432.76
185.684	453.39
185.903	1612.64
186.122	595.52
186.341	723.6
186.56	354.21
186.779	644.04
186.998	912.31
187.216	969.29
187.435	775.45
187.654	769.73
187.873	405.34
188.092	360.77
188.311	354.58
188.53	563.23
188.748	530.43
188.967	1323.2
189.186	693.1
189.405	717.32
189.623	758.33
189.842	709.05
190.061	750.72
190.28	2001.28
190.498	-1882.5
190.717	1272.22
190.936	-2708.47
191.154	-1368.75
191.373	-28783.33
191.592	-14436.36
191.81	-935.06
192.029	-1221.37
192.248	-378.07
192.466	-339.13
192.685	-399.74
192.904	-537.36
193.122	-383.2
193.341	-756.22
193.559	-681.73
193.778	-689.7
193.996	-838.17
194.215	27700
194.433	-2435.71
194.652	593.6
194.87	492.21
195.089	353.28
195.307	441.58
195.526	1289.83
195.744	721.05
195.963	550
196.181	10750
196.399	-741.88
196.618	4990
196.836	18050
197.055	-846.72
197.273	-1994.83
197.491	-1337.78
197.71	-2349.02
197.928	1595
198.146	3390.48
198.365	-13120
198.583	693.94
198.801	974.27
199.019	2105.19
199.238	-3790.48
199.456	1560.38
199.674	644.07
199.892	496.41
200.111	644.23
200.329	649.81
200.547	476.06
200.765	428.8
200.983	486.45
201.202	386.43
201.42	646.46
201.638	416.51
201.856	489.2
202.074	1413.22
202.292	1689.9
202.51	1106.12
202.728	1581.44
202.946	-3685
203.165	4757.58
203.383	-1614.43
203.601	-1869.77
203.819	3224
204.037	15560
204.255	1662.89
204.473	784.58
204.691	1105.33
204.909	753.47
205.127	850.23
205.345	957.39
205.562	777.23
205.78	534.23
205.998	601.63
206.216	543.57
206.434	542.57
206.652	454.85
206.87	330.17
207.088	277.8
207.306	321.58
207.523	297.61
207.741	245.34
207.959	286.83
208.177	288
208.395	249.37
208.612	271.17
208.83	257.94
209.048	310
209.266	403.75
209.483	422.82
209.701	363.68
209.919	412.11
210.136	442.37
210.354	931
210.572	868.33
210.79	1343.7
211.007	767.25
211.225	1195.35
211.442	-6580.95
211.66	-1955.56
211.878	-904.17
212.095	343.48
212.313	364.91
212.53	479.67
212.748	303.77
212.966	300.14
213.183	271.46
213.401	271.96
213.618	234.17
213.836	264.72
214.053	255.95
214.271	257.91
214.488	1178.15
214.705	627.52
214.923	504.84
215.14	519.22
215.358	383.69
215.575	500.94
215.793	525.11
216.01	862.58
216.227	307.23
216.445	254.32
216.662	258.78
216.879	260.77
217.097	229.59
217.314	238.65
217.531	300.7
217.749	339.7
217.966	420.33
218.183	364.46
218.4	404.56
218.618	516.93
218.835	507.02
219.052	372.61
219.269	337.03
219.487	493.75
219.704	345.71
219.921	265.28
220.138	219.17
220.355	238.36
220.572	251.57
220.79	261.94
221.007	334.4
221.224	433.43
221.441	419.13
221.658	454.7
221.875	316.88
222.092	323.02
222.309	456.16
222.526	508.06
222.743	418.03
222.96	540.09
223.177	271.76
223.394	263.7
223.611	186.09
223.828	197.71
224.045	217.32
224.262	262.2
224.479	194.43
224.696	168.81
224.913	190.28
225.13	165.9
225.347	137.11
225.564	134.05
225.781	107.77
225.997	120.19
226.214	102.31
226.431	89.54
226.648	78.31
226.865	69.69
227.082	63.24
227.298	56.18
227.515	45.77
227.732	45.39
227.949	38.48
228.165	34.18
228.382	28.37
228.599	27.45
228.816	27.55
229.032	30.44
229.249	27.95
229.466	26.9
229.682	27.13
229.899	29.58
230.116	30.43
230.332	37.54
230.549	41.36
230.765	44.84
230.982	49.09
231.199	52.55
231.415	54.2
231.632	55.09
231.848	63.05
232.065	68.77
232.281	68.27
232.498	74.78
232.714	75.77
232.931	77.13
233.147	74.86
233.364	76.87
233.58	74.02
233.797	76.66
234.013	78.91
234.23	75.46
234.446	74
234.662	71.52
234.879	69.76
235.095	67.42
235.312	72.05
235.528	71.6
235.744	67.23
235.961	64.3
236.177	56.38
236.393	65.39
236.61	61.31
236.826	65.14
237.042	67.43
237.258	64.75
237.475	66.43
237.691	58.76
237.907	61.23
238.123	62.83
238.339	62.89
238.556	62.29
238.772	52.58
238.988	50.02
239.204	47.62
239.42	50.69
239.636	47.79
239.853	43.41
240.069	41.7
240.285	39.88
240.501	36.51
240.717	33.64
240.933	29.52
241.149	26.99
241.365	25.95
241.581	25.39
241.797	22.66
242.013	22.38
242.229	21.57
242.445	20.7
242.661	20.07
242.877	19.86
243.093	21.3
243.309	23.05
243.525	25.27
243.741	28.16
243.957	27.28
244.173	27.4
244.388	27.56
244.604	28.19
244.82	26.91
245.036	25.82
245.252	25.56
245.468	22.31
245.683	20.53
245.899	19.94
246.115	17.64
246.331	15.35
246.547	13.89
246.762	11.88
246.978	13.08
247.194	13.69
247.409	13.35
247.625	13.33
247.841	14.6
248.057	15.03
248.272	15.54
248.488	17.88
248.703	19.79
248.919	24.09
249.135	29.2
249.35	29.15
249.566	31.13
249.782	31.07
249.997	33.3
250.213	34.38
250.428	32.53
250.644	32.65
250.859	32.75
251.075	30.88
251.29	27.8
251.506	24.15
251.721	26.7
251.937	26.61
252.152	27.45
252.368	26.36
252.583	25.64
252.798	26.98
253.014	25.97
253.229	25.48
253.445	28.39
253.66	29.4
253.875	32.62
254.091	34.45
254.306	34.6
254.521	35.82
254.737	37.03
254.952	38.72
255.167	41.06
255.383	39.09
255.598	36.91
255.813	35.45
256.028	32.83
256.244	34.78
256.459	31.91
256.674	31.73
256.889	29.81
257.104	28.14
257.32	28.18
257.535	25.77
257.75	25.55
257.965	23.69
258.18	22.99
258.395	22.5
258.61	20.05
258.826	18.32
259.041	17.27
259.256	17.44
259.471	16.81
259.686	14.61
259.901	14.46
260.116	14.4
260.331	14.99
260.546	15.21
260.761	15.26
260.976	14.83
261.191	15.24
261.406	15.13
261.621	15.9
261.836	16.61
262.05	18.34
262.265	19.15
262.48	20.59
262.695	19.7
262.91	17.15
263.125	16.98
263.34	18.85
263.555	20.19
263.769	22.21
263.984	22.11
264.199	22.15
264.414	23.37
264.629	23.12
264.843	21.58
265.058	22.46
265.273	22.19
265.488	21.8
265.702	22.37
265.917	22.65
266.132	21.32
266.346	22.17
266.561	20.94
266.776	19.99
266.99	20.07
267.205	20.2
267.42	18.72
267.634	19.84
267.849	19.77
268.063	20.08
268.278	19.49
268.492	19.06
268.707	17.41
268.922	16.96
269.136	15.57
269.351	14.76
269.565	16.12
269.78	16.78
269.994	16.53
270.209	16.78
270.423	14.04
270.637	14.02
270.852	14.25
271.066	14.76
271.281	16.79
271.495	17.29
271.709	17.67
271.924	17.69
272.138	17.84
272.353	18.98
272.567	18.37
272.781	19.59
272.996	18.92
273.21	18.44
273.424	18.56
273.638	19.48
273.853	20.66
274.067	21.83
274.281	20.74
274.495	21.09
274.71	19.69
274.924	19.9
275.138	20.08
275.352	20.37
275.566	21.3
275.781	19.33
275.995	16.51
276.209	15.47
276.423	15.15
276.637	14.21
276.851	14.01
277.065	14.65
277.279	15.94
277.493	14.43
277.707	14.12
277.921	13.95
278.135	16.53
278.349	17.62
278.563	16.12
278.777	15.57
278.991	16.1
279.205	16.19
279.419	16.2
279.633	17.34
279.847	18.2
280.061	18.06
280.275	17.87
280.489	15.58
280.703	14.69
280.917	16.74
281.131	15.7
281.344	16.74
281.558	16.85
281.772	16.24
281.986	15.45
282.2	16.25
282.414	15.28
282.627	14.24
282.841	13.85
283.055	14.12
283.269	13.26
283.482	14.02
283.696	13.27
283.91	12.21
284.123	11.87
284.337	11.09
284.551	10.53
284.764	12.5
284.978	12.46
285.192	13.58
285.405	13.49
285.619	13.49
285.833	13.64
286.046	12.72
286.26	12.96
286.473	12.99
286.687	12.97
286.9	13.93
287.114	13.03
287.327	13.9
287.541	13.56
287.754	13.83
287.968	14.14
288.181	14.61
288.395	14.96
288.608	16.66
288.822	17.5
289.035	17.74
289.248	17.32
289.462	17.35
289.675	17.32
289.889	17.27
290.102	16.54
290.315	16.3
290.529	15.05
290.742	15.18
290.955	14.31
291.169	15.01
291.382	14.97
291.595	15.7
291.808	15.16
292.022	15.64
292.235	16.35
292.448	17.53
292.661	17.82
292.875	20.49
293.088	21.68
293.301	21.81
293.514	20.09
293.727	18.92
293.94	18.06
294.153	19.47
294.367	18.79
294.58	17.7
294.793	17.02
295.006	17.45
295.219	14.75
295.432	13.91
295.645	12.82
295.858	12.86
296.071	13.69
296.284	13.09
296.497	11.9
296.71	12.22
296.923	12.83
297.136	12.89
297.349	12.01
297.562	12.96
297.775	13.53
297.988	13.17
298.201	13.89
298.414	13.32
298.626	13.54
298.839	13.28
299.052	12.5
299.265	12.39
299.478	12.47
299.691	12.63
299.903	12.66
300.116	12.5
300.329	13.68
300.542	13.85
300.755	14.59
300.967	14.94
301.18	15.18
301.393	17.12
301.605	18.07
301.818	16.92
302.031	17.67
302.243	17.3
302.456	18.22
302.669	19.21
302.881	19.13
303.094	19.03
303.307	19.4
303.519	20.39
303.732	19.8
303.944	17.47
304.157	18.23
304.37	18.55
304.582	19.77
304.795	18.68
305.007	17.14
305.22	16.75
305.432	16.81
305.645	17.33
305.857	17.54
306.069	17.78
306.282	19.17
306.494	18.33
306.707	16.93
306.919	15.44
307.132	15.51
307.344	16.85
307.556	17.94
307.769	17.22
307.981	15.93
308.193	13.9
308.406	13.54
308.618	13.98
308.83	15.49
309.043	16.74
309.255	17.25
309.467	17.34
309.679	16.04
309.892	14.75
310.104	14.97
310.316	15
310.528	15.77
310.74	14.29
310.953	13.79
311.165	13.83
311.377	13.29
311.589	13.57
311.801	13
312.013	12.86
312.225	15.01
312.437	15.19
312.649	15.67
312.862	16.69
313.074	17.04
313.286	17.94
313.498	18.43
313.71	17.32
313.922	17.71
314.134	17.79
314.346	17.95
314.558	16.37
314.77	15.15
314.982	15.07
315.193	14.36
315.405	14.97
315.617	14.22
315.829	14.5
316.041	15.61
316.253	15.37
316.465	15.83
316.677	16.5
316.888	16.62
317.1	17.4
317.312	18.74
317.524	18.15
317.736	19.77
317.947	19.61
318.159	19.23
318.371	19.63
318.583	18.18
318.794	18.33
319.006	19.73
319.218	19.22
319.43	19.6
319.641	18.37
319.853	19.04
320.064	19.3
320.276	20.03
320.488	18.71
320.699	17.94
320.911	18.75
321.123	19.13
321.334	19.87
321.546	20.32
321.757	21.48
321.969	21.76
322.18	20.96
322.392	19.9
322.603	19
322.815	18.77
323.026	19.97
323.238	20.82
323.449	19.85
323.661	17.37
323.872	16.97
324.083	16.25
324.295	15.62
324.506	16.61
324.718	15.72
324.929	16.03
325.14	16.39
325.352	16.3
325.563	16.54
325.774	15.63
325.986	15.57
326.197	16.06
326.408	16.85
326.62	17.26
326.831	15.69
327.042	16.32
327.253	16.31
327.464	18.29
327.676	16.97
327.887	15.78
328.098	17
328.309	17.18
328.52	17.9
328.732	17
328.943	16.53
329.154	18.6
329.365	19.64
329.576	19.67
329.787	17.43
329.998	19.47
330.209	18.32
330.42	18.9
330.631	21.46
330.842	19.99
331.053	21.55
331.264	22.48
331.475	20.88
331.686	20.53
331.897	20.71
332.108	21.75
332.319	21.17
332.53	21.86
332.741	21.1
332.952	19.32
333.163	18.98
333.374	17.2
333.585	16.82
333.795	18.39
334.006	17.07
334.217	16.84
334.428	15.76
334.639	15.82
334.849	15.52
335.06	15.94
335.271	17.02
335.482	17.9
335.692	18.26
335.903	17.58
336.114	17.14
336.325	18.19
336.535	18.22
336.746	19.28
336.957	19.79
337.167	20.89
337.378	21.78
337.589	20.4
337.799	20.81
338.01	21.64
338.22	21.43
338.431	22.05
338.642	21.24
338.852	21.01
339.063	20.92
339.273	19.3
339.484	18.57
339.694	17.35
339.905	18.8
340.115	18.14
340.326	17.36
340.536	18.03
340.746	17.69
340.957	17.69
341.167	17.5
341.378	17.23
341.588	17.16
341.799	17.4
342.009	17.99
342.219	17.53
342.43	18.1
342.64	18.6
342.85	18.96
343.061	17.43
343.271	17.9
343.481	17.41
343.691	16.9
343.902	17.22
344.112	16.61
344.322	15.14
344.532	14.89
344.743	15.24
344.953	15.47
345.163	15.31
345.373	16.98
345.583	17.09
345.793	17.61
346.004	17.91
346.214	17.51
346.424	18.63
346.634	18.82
346.844	19.22
347.054	18.36
347.264	18.02
347.474	18.73
347.684	17.79
347.894	17.48
348.104	17.97
348.314	17.31
348.524	17.79
348.734	17.51
348.944	18.6
349.154	18.14
349.364	18.17
349.574	16.89
349.784	15.98
349.994	15.73
350.204	16.36
350.413	16.36
350.623	16.14
350.833	14.91
351.043	14.54
351.253	15.28
351.463	15.42
351.672	15.46
351.882	16.01
352.092	16.73
352.302	16.73
352.511	15.67
352.721	15.31
352.931	15.14
353.141	15.94
353.35	15.52
353.56	14.92
353.77	15.27
353.979	15.69
354.189	15.34
354.399	13.94
354.608	14.63
354.818	14.37
355.027	14.25
355.237	13.62
355.447	13.44
355.656	13.94
355.866	13.05
356.075	12.5
356.285	11.38
356.494	11.44
356.704	12.13
356.913	12.05
357.123	12.53
357.332	12.13
357.542	12.4
357.751	12.45
357.96	12.57
358.17	12.41
358.379	12.75
358.589	12.72
358.798	12.96
359.007	13.23
359.217	11.93
359.426	11.87
359.635	12.45
359.845	12.33
360.054	12
360.263	11.34
360.472	11.59
360.682	10.99
360.891	11.17
361.1	10.97
361.309	9.75
361.519	10.03
361.728	10.22
361.937	10.01
362.146	10.94
362.355	11.8
362.564	11.59
362.774	11.28
362.983	11.72
363.192	12.16
363.401	12.32
363.61	13.38
363.819	14.03
364.028	13.24
364.237	13.67
364.446	12.65
364.655	12.33
364.864	12.62
365.073	13.28
365.282	13.11
365.491	12.77
365.7	12.41
365.909	12.12
366.118	11.67
366.327	12.18
366.536	12.38
366.745	12.56
366.954	13.44
367.162	13.94
367.371	13.91
367.58	14.34
367.789	15.15
367.998	15.53
368.207	15.77
368.415	16.63
368.624	17.22
368.833	16.39
369.042	17.2
369.25	16.5
369.459	16.74
369.668	16.95
369.877	16.86
370.085	16.2
370.294	16.45
370.503	15.83
370.711	15.08
370.92	14.48
371.129	15.9
371.337	15.72
371.546	15.47
371.754	14.94
371.963	14.92
372.171	14.76
372.38	14.78
372.589	14.74
372.797	15.38
373.006	15.72
373.214	15.93
373.423	14.21
373.631	13.96
373.84	13.16
374.048	12.12
374.256	11.85
374.465	11.68
374.673	10.93
374.882	10.37
375.09	10.04
375.298	9.85
375.507	9.18
375.715	9.09
375.923	7.96
376.132	8.23
376.34	9.26
376.548	9.23
376.757	9.53
376.965	10.59
377.173	10.56
377.381	10.33
377.59	10.53
377.798	10.11
378.006	10.78
378.214	11.69
378.423	12.03
378.631	12.38
378.839	12.18
379.047	12.48
379.255	11.68
379.463	11.98
379.671	12.78
379.879	12.06
380.088	13.51
380.296	12.99
380.504	13.54
380.712	13.34
380.92	12.83
381.128	12.95
381.336	12.46
381.544	12.42
381.752	11.58
381.96	11.66
382.168	11.57
382.376	11.23
382.584	10.69
382.791	9.71
382.999	10.41
383.207	9.79
383.415	9.99
383.623	9.39
383.831	9.36
384.039	10.26
384.247	9.92
384.454	10.41
384.662	9.45
384.87	9.8
385.078	10.06
385.285	9.23
385.493	9.73
385.701	9.54
385.909	9.85
386.116	10.05
386.324	10.16
386.532	10.04
386.739	9.65
386.947	10.37
387.155	11.07
387.362	11.22
387.57	11.4
387.778	12.12
387.985	11.78
388.193	11.87
388.4	11.91
388.608	11.87
388.816	11.22
389.023	11.35
389.231	11.39
389.438	10.85
389.646	11.25
389.853	11.3
390.061	10.38
390.268	10.65
390.475	10.02
390.683	9.67
390.89	9.4
391.098	9.2
391.305	9.82
391.512	8.88
391.72	8.31
391.927	8.01
392.135	8.19
392.342	8.62
392.549	8.43
392.756	8.93
392.964	9.54
393.171	10.09
393.378	10.55
393.586	10.17
393.793	10.28
394	11.43
394.207	11.49
394.414	11.36
394.622	11.22
394.829	10.9
395.036	10.55
395.243	10.09
395.45	9.86
395.657	10.72
395.864	10.69
396.072	11.76
396.279	10.92
396.486	11.02
396.693	11.34
396.9	10.88
397.107	11.58
397.314	11.61
397.521	11.75
397.728	11.2
397.935	10.67
398.142	10.67
398.349	9.87
398.556	9.41
398.763	9.29
398.97	9.01
399.177	9.1
399.383	9.55
399.59	10.38
399.797	10.1
400.004	10.74
400.211	10.65
400.418	10.8
400.625	11.54
400.831	11.93
401.038	11.46
401.245	11.3
401.452	11.6
401.658	11.5
401.865	11.02
402.072	11.03
402.279	10.49
402.485	10.42
402.692	9.52
402.899	9.41
403.105	9.52
403.312	10.03
403.519	10.25
403.725	9.94
403.932	9.51
404.138	9.42
404.345	9.81
404.552	9.83
404.758	9.48
404.965	9.41
405.171	9.34
405.378	9.35
405.584	9.34
405.791	9.34
405.997	9.49
406.204	9.17
406.41	9.25
406.617	8.32
406.823	8.65
407.029	9.11
407.236	9.76
407.442	9.72
407.649	9.42
407.855	9.32
408.061	8.94
408.268	9.53
408.474	10.06
408.68	9.39
408.887	10.17
409.093	9.47
409.299	9.17
409.505	8.98
409.712	8.85
409.918	9.19
410.124	8.71
410.33	8.57
410.537	8.06
410.743	7.61
410.949	7.89
411.155	7.45
411.361	8.03
411.567	8.25
411.773	7.8
411.98	7.55
412.186	7.21
412.392	7.5
412.598	7.29
412.804	7.55
413.01	7.28
413.216	8.26
413.422	8.57
413.628	8.12
413.834	8.16
414.04	8.57
414.246	8.97
414.452	9.13
414.658	9.55
414.864	10.1
415.07	10.34
415.275	10.96
415.481	10.74
415.687	10.76
415.893	10.76
416.099	10.77
416.305	11.03
416.511	10.61
416.716	10.23
416.922	9.82
417.128	9.32
417.334	9
417.539	8.56
417.745	8.19
417.951	7.8
418.157	7.65
418.362	7.24
418.568	7.04
418.774	6.85
418.979	7.1
419.185	6.91
419.391	7.07
419.596	6.76
419.802	6.73
420.008	6.47
420.213	6.33
420.419	6.35
420.624	6.4
420.83	6.31
421.035	6.36
421.241	5.96
421.446	5.93
421.652	5.65
421.857	5.68
422.063	5.62
422.268	5.77
422.474	6.06
422.679	5.97
422.885	6.02
423.09	5.94
423.295	5.82
423.501	6.31
423.706	6.37
423.911	6.32
424.117	6.39
424.322	6.33
424.527	6.17
424.733	6.05
424.938	6.04
425.143	5.96
425.349	5.9
425.554	6.34
425.759	6.06
425.964	6.04
426.169	6.24
426.375	6.08
426.58	6.2
426.785	6.52
426.99	6.63
427.195	6.91
427.4	6.62
427.605	7.1
427.811	6.23
428.016	6.64
428.221	6.78
428.426	7.11
428.631	7.38
428.836	7.27
429.041	7.03
429.246	7.2
429.451	7.43
429.656	8.03
429.861	7.63
430.066	8.22
430.271	8.1
430.476	7.78
430.681	7.73
430.886	7.84
431.09	7.96
431.295	8.06
431.5	7.89
431.705	7.42
431.91	7.2
432.115	6.96
432.32	6.8
432.524	6.53
432.729	6.66
432.934	6.23
433.139	5.73
433.343	5.42
433.548	5.08
433.753	4.98
433.958	5.34
434.162	5.21
434.367	5.36
434.572	5.18
434.776	5.06
434.981	5.18
435.186	5.34
435.39	5.69
435.595	6.41
435.799	6.51
436.004	6.57
436.209	6.21
436.413	6.25
436.618	6.44
436.822	6.88
437.027	6.94
437.231	6.5
437.436	6.38
437.64	6.01
437.845	5.6
438.049	5.66
438.253	5.77
438.458	5.69
438.662	5.68
438.867	5.56
439.071	5.36
439.275	5.24
439.48	5.52
439.684	5.6
439.888	5.62
440.093	5.73
440.297	5.66
440.501	5.51
440.706	5.52
440.91	5.62
441.114	5.49
441.318	5.64
441.523	5.83
441.727	5.98
441.931	5.83
442.135	5.99
442.339	6.13
442.543	6.1
442.748	6.43
442.952	6.73
443.156	6.54
443.36	6.61
443.564	6.54
443.768	6.15
443.972	6.3
444.176	6.19
444.38	6.16
444.584	5.87
444.788	5.94
444.992	5.49
445.196	5.35
445.4	5.52
445.604	5.47
445.808	5.41
446.012	5.73
446.216	5.32
446.42	5.31
446.624	5.46
446.828	5.41
447.032	5.39
447.235	5.7
447.439	5.49
447.643	5.26
447.847	5.42
448.051	5.51
448.254	5.33
448.458	5.44
448.662	5.41
448.866	5.27
449.069	5.19
449.273	5.35
449.477	4.86
449.681	5.2
449.884	5.18
450.088	5.29
450.292	5.3
450.495	5.64
450.699	5.79
450.902	6.06
451.106	6.16
451.31	6.8
451.513	7
451.717	7.16
451.92	7.13
452.124	7.29
452.327	7.08
452.531	6.96
452.734	6.68
452.938	6.46
453.141	6.23
453.345	6.16
453.548	5.58
453.752	5.48
453.955	5.73
454.158	5.47
454.362	5.18
454.565	5.02
454.769	5.2
454.972	5.45
455.175	5.28
455.379	5.54
455.582	5.48
455.785	5.72
455.988	5.59
456.192	5.51
456.395	5.72
456.598	6.08
456.801	6.06
457.005	5.84
457.208	6.06
457.411	6.27
457.614	6.27
457.817	6.39
458.021	6.56
458.224	6.4
458.427	6.26
458.63	6.36
458.833	6.07
459.036	6.04
459.239	6.02
459.442	5.53
459.645	5.47
459.848	5.44
460.051	5.3
460.254	5.02
460.457	4.91
460.66	4.78
460.863	4.57
461.066	4.73
461.269	5.12
461.472	5.15
461.675	5.44
461.878	5.6
462.081	5.83
462.284	6.01
462.486	6.33
462.689	6.71
462.892	7.28
463.095	7.31
463.298	7.55
463.5	7.33
463.703	7.11
463.906	7.12
464.109	7.37
464.311	7.12
464.514	7.56
464.717	7.49
464.92	7.32
465.122	7.28
465.325	7.23
465.528	6.88
465.73	6.54
465.933	6.81
466.135	6.8
466.338	6.39
466.541	6.35
466.743	5.87
466.946	5.62
467.148	5.79
467.351	5.61
467.553	5.58
467.756	5.96
467.958	6.25
468.161	5.95
468.363	6.02
468.566	6.23
468.768	6.48
468.971	6.75
469.173	6.83
469.375	6.61
469.578	6.48
469.78	6.52
469.983	6.5
470.185	6.52
470.387	6.98
470.59	7.05
470.792	7.03
470.994	6.9
471.196	6.67
471.399	6.91
471.601	6.99
471.803	7.02
472.005	7.01
472.208	6.71
472.41	6.51
472.612	6.37
472.814	6.14
473.016	5.98
473.218	6.01
473.421	5.99
473.623	5.85
473.825	5.84
474.027	5.9
474.229	5.81
474.431	5.76
474.633	6.15
474.835	6.19
475.037	6.2
475.239	6.15
475.441	6.17
475.643	6.51
475.845	6.34
476.047	6.23
476.249	5.93
476.451	6
476.653	5.91
476.855	5.55
477.057	5.31
477.258	5.13
477.46	5.29
477.662	5.26
477.864	4.88
478.066	4.99
478.268	4.84
478.469	4.8
478.671	4.56
478.873	4.74
479.075	4.79
479.276	4.73
479.478	4.78
479.68	4.42
479.882	4.18
480.083	4.2
480.285	4.19
480.487	4.72
480.688	4.77
480.89	4.98
481.091	4.9
481.293	4.81
481.495	4.86
481.696	4.97
481.898	4.99
482.099	5.01
482.301	4.98
482.502	4.82
482.704	4.38
482.905	4.34
483.107	4.18
483.308	4.08
483.51	4.01
483.711	3.94
483.913	3.75
484.114	3.81
484.315	3.76
484.517	3.62
484.718	3.59
484.92	3.66
485.121	3.6
485.322	3.67
485.524	3.72
485.725	3.79
485.926	3.8
486.127	3.95
486.329	3.83
486.53	3.79
486.731	3.8
486.932	3.81
487.134	3.89
487.335	3.99
487.536	3.91
487.737	3.97
487.938	3.92
488.139	4.01
488.341	3.93
488.542	4.07
488.743	4.21
488.944	4.39
489.145	4.36
489.346	4.48
489.547	4.4
489.748	4.61
489.949	4.54
490.15	4.7
490.351	4.67
490.552	4.88
490.753	4.84
490.954	4.72
491.155	4.74
491.356	4.93
491.557	4.85
491.758	4.91
491.959	4.75
492.159	4.92
492.36	4.89
492.561	4.91
492.762	4.84
492.963	4.84
493.164	4.82
493.364	4.76
493.565	4.78
493.766	4.78
493.967	4.91
494.167	5.08
494.368	4.93
494.569	4.8
494.769	4.92
494.97	5.01
495.171	5.01
495.371	5.29
495.572	5.13
495.773	5
495.973	4.88
496.174	4.86
496.375	5
496.575	5.18
496.776	5.22
496.976	4.92
497.177	4.86
497.377	5.14
497.578	5.19
497.778	5.38
497.979	5.54
498.179	5.6
498.38	5.58
498.58	5.72
498.78	5.53
498.981	5.67
499.181	5.95
499.382	6.02
499.582	5.79
499.782	5.77
499.983	5.71
500.183	5.69
500.383	5.81
500.584	5.81
500.784	5.66
500.984	5.77
501.184	5.61
501.385	5.7
501.585	5.5
501.785	5.64
501.985	5.81
502.185	5.86
502.386	5.84
502.586	5.74
502.786	5.88
502.986	5.81
503.186	5.68
503.386	5.79
503.586	5.71
503.786	5.96
503.987	5.82
504.187	5.86
504.387	6.16
504.587	6.01
504.787	6.13
504.987	6.29
505.187	6.57
505.387	6.65
505.587	6.59
505.786	6.48
505.986	6.65
506.186	6.76
506.386	6.62
506.586	6.36
506.786	6.42
506.986	6.42
507.186	6.31
507.386	6.17
507.585	6.14
507.785	6.3
507.985	6.37
508.185	6.08
508.384	6.14
508.584	6.06
508.784	6
508.984	6
509.183	5.99
509.383	5.97
509.583	5.84
509.782	6.1
509.982	6.11
510.182	6.09
510.381	6.21
510.581	6.26
510.781	6.24
510.98	6.31
511.18	6.56
511.379	6.47
511.579	6.49
511.778	6.67
511.978	6.69
512.177	6.68
512.377	6.82
512.576	6.76
512.776	6.72
512.975	6.85
513.175	6.98
513.374	6.85
513.573	6.94
513.773	6.93
513.972	6.87
514.172	6.91
514.371	7.12
514.57	7.23
514.77	7.2
514.969	7.37
515.168	7.38
515.367	7.46
515.567	7.58
515.766	7.69
515.965	7.85
516.164	7.97
516.364	7.89
516.563	7.9
516.762	7.86
516.961	7.87
517.16	7.85
517.359	7.75
517.559	7.66
517.758	7.77
517.957	7.68
518.156	7.64
518.355	7.57
518.554	7.78
518.753	7.71
518.952	7.68
519.151	7.69
519.35	7.55
519.549	7.6
519.748	7.7
519.947	7.65
520.146	7.84
520.345	7.94
520.544	7.91
520.743	7.87
520.942	8.1
521.141	8.13
521.339	8.25
521.538	8.41
521.737	8.4
521.936	8.27
522.135	8.23
522.333	8.32
522.532	8.07
522.731	8.06
522.93	7.97
523.129	7.71
523.327	7.92
523.526	8.24
523.725	8.33
523.923	8.35
524.122	8.27
524.321	8.3
524.519	8.25
524.718	8.46
524.917	8.6
525.115	8.49
525.314	8.69
525.512	8.6
525.711	8.52
525.909	8.47
526.108	8.47
526.306	8.65
526.505	8.62
526.703	8.64
526.902	8.58
527.1	8.57
527.299	8.65
527.497	8.45
527.696	8.49
527.894	8.44
528.092	8.48
528.291	8.6
528.489	8.52
528.688	8.46
528.886	8.5
529.084	8.52
529.283	8.47
529.481	8.37
529.679	8.46
529.877	8.43
530.076	8.57
530.274	8.63
530.472	8.59
530.67	8.72
530.869	8.94
531.067	8.95
531.265	9.01
531.463	9.38
531.661	9.5
531.859	9.48
532.057	9.58
532.255	9.53
532.454	9.43
532.652	9.57
532.85	9.63
533.048	9.7
533.246	9.7
533.444	9.82
533.642	9.76
533.84	9.96
534.038	10.05
534.236	10.22
534.434	10.2
534.632	10.42
534.83	10.47
535.027	10.49
535.225	10.46
535.423	10.85
535.621	10.94
535.819	10.76
536.017	10.56
536.215	10.54
536.412	10.42
536.61	10.74
536.808	10.75
537.006	10.61
537.203	10.83
537.401	10.91
537.599	10.78
537.797	10.78
537.994	10.98
538.192	11.27
538.39	11.73
538.587	11.7
538.785	11.7
538.983	11.51
539.18	11.69
539.378	11.71
539.575	11.75
539.773	11.63
539.97	11.57
540.168	11.64
540.366	11.61
540.563	11.55
540.761	11.64
540.958	11.63
541.155	11.84
541.353	11.82
541.55	11.75
541.748	11.85
541.945	11.99
542.143	12.1
542.34	12.05
542.537	12.04
542.735	12.03
542.932	12.18
543.129	12.25
543.327	12.26
543.524	12.51
543.721	12.57
543.919	12.65
544.116	12.66
544.313	12.77
544.51	12.97
544.708	13.44
544.905	13.63
545.102	13.7
545.299	13.94
545.496	14.16
545.693	14.08
545.891	14.22
546.088	14.41
546.285	14.63
546.482	14.76
546.679	14.73
546.876	14.56
547.073	14.54
547.27	14.53
547.467	14.28
547.664	14.28
547.861	14.39
548.058	14.66
548.255	14.64
548.452	14.74
548.649	14.9
548.846	15.24
549.043	15.22
549.24	15.62
549.437	15.7
549.633	16.02
549.83	16.03
550.027	16.32
550.224	16.02
550.421	16.35
550.618	16.47
550.814	16.12
551.011	16.45
551.208	16.43
551.405	16.2
551.601	16.42
551.798	16.61
551.995	16.57
552.191	16.44
552.388	16.63
552.585	16.64
552.781	16.48
552.978	16.71
553.175	16.3
553.371	16.57
553.568	16.69
553.764	16.92
553.961	16.85
554.157	16.92
554.354	17.14
554.55	17.38
554.747	17.21
554.943	17.07
555.14	17.18
555.336	17.64
555.533	17.85
555.729	18.13
555.926	18.1
556.122	17.83
556.318	18.01
556.515	18.13
556.711	18.28
556.907	18.32
557.104	18.57
557.3	18.71
557.496	18.39
557.693	18.31
557.889	18.67
558.085	18.92
558.281	19.65
558.478	19.89
558.674	19.75
558.87	19.72
559.066	19.68
559.262	20
559.459	20.1
559.655	20.52
559.851	20.82
560.047	20.19
560.243	19.72
560.439	19.69
560.635	19.3
560.831	19.51
561.027	19.38
561.223	19.62
561.419	19.79
561.615	19.8
561.811	19.67
562.007	19.63
562.203	20.07
562.399	20.19
562.595	20.35
562.791	20.78
562.987	21.07
563.183	21.53
563.379	21.69
563.575	21.89
563.771	22.08
563.966	22.36
564.162	22.26
564.358	22.37
564.554	22.39
564.75	22.25
564.945	22.07
565.141	21.83
565.337	21.8
565.533	21.64
565.728	21.33
565.924	21.47
566.12	21.51
566.315	21.5
566.511	21.24
566.707	21.52
566.902	21.43
567.098	21.72
567.293	21.86
567.489	21.62
567.684	22.01
567.88	22.15
568.076	21.96
568.271	21.8
568.467	21.74
568.662	22.09
568.858	22.17
569.053	22.34
569.248	22.37
569.444	22.25
569.639	22.46
569.835	22.05
570.03	22.06
570.225	22.32
570.421	22.33
570.616	22.74
570.812	22.57
571.007	22.49
571.202	22.2
571.397	22.22
571.593	22.71
571.788	22.85
571.983	23.29
572.178	23.64
572.374	23.57
572.569	23.76
572.764	23.7
572.959	24.02
573.154	24.23
573.35	24.65
573.545	24.78
573.74	24.57
573.935	24.78
574.13	24.62
574.325	24.54
574.52	24.5
574.715	24.91
574.91	24.85
575.105	24.63
575.3	24.66
575.495	24.66
575.69	24.65
575.885	24.85
576.08	24.94
576.275	25.1
576.47	24.97
576.665	25.12
576.86	24.89
577.055	24.99
577.25	25.42
577.444	25.43
577.639	25.6
577.834	25.87
578.029	25.83
578.224	25.76
578.418	25.99
578.613	26.37
578.808	26.77
579.003	26.83
579.197	27.09
579.392	27.21
579.587	27.19
579.781	26.8
579.976	26.86
580.171	26.92
580.365	26.49
580.56	26.32
580.755	26.4
580.949	26.24
581.144	26.7
581.338	26.5
581.533	26.25
581.727	26.72
581.922	27.49
582.116	27.85
582.311	27.88
582.505	28.66
582.7	28.58
582.894	28.78
583.089	28.83
583.283	28.64
583.478	28.89
583.672	29.17
583.866	29.15
584.061	28.74
584.255	28.33
584.449	28.16
584.644	28.27
584.838	28.69
585.032	28.68
585.226	28.91
585.421	28.77
585.615	28.75
585.809	29.04
586.003	28.73
586.198	29.06
586.392	29.41
586.586	29.78
586.78	29.41
586.974	29.28
587.168	28.95
587.363	28.94
587.557	29.38
587.751	29.7
587.945	29.38
588.139	29.79
588.333	29.36
588.527	29.07
588.721	29
588.915	28.85
589.109	28.91
589.303	29.26
589.497	29.31
589.691	29.33
589.885	28.88
590.079	28.8
590.273	28.34
590.466	28.92
590.66	29.2
590.854	29.37
591.048	29.59
591.242	29.53
591.436	28.99
591.629	28.57
591.823	28.13
592.017	28.47
592.211	28.67
592.404	28.89
592.598	28.44
592.792	27.9
592.986	27.94
593.179	27.78
593.373	27.79
593.567	28.16
593.76	28.78
593.954	28.56
594.147	28.54
594.341	28.67
594.535	29.06
594.728	29.42
594.922	29.66
595.115	29.33
595.309	29.24
595.502	29.44
595.696	29.3
595.889	29
596.083	29.35
596.276	29.36
596.47	29.44
596.663	29.36
596.856	29.3
597.05	29.33
597.243	29.43
597.437	29.8
597.63	30
597.823	30.23
598.017	30.53
598.21	30.6
598.403	30.95
598.596	31.05
598.79	30.83
598.983	30.96
599.176	30.91
599.369	30.97
599.563	31.28
599.756	31.17
599.949	31.22
600.142	31.07
600.335	30.87
600.528	30.7
600.722	30.22
600.915	30.44
601.108	30.8
601.301	31
601.494	31.22
601.687	30.87
601.88	30.54
602.073	30.93
602.266	30.57
602.459	30.94
602.652	30.98
602.845	31.13
603.038	31.14
603.231	30.66
603.424	30.51
603.617	30.56
603.809	30.63
604.002	30.53
604.195	30.18
604.388	30.47
604.581	30.28
604.774	30.24
604.966	30.03
605.159	30.16
605.352	29.85
605.545	30.21
605.737	29.82
605.93	30.08
606.123	30.59
606.316	30.5
606.508	30.8
606.701	30.9
606.894	31.02
607.086	31.26
607.279	30.86
607.471	31.31
607.664	31.12
607.857	31.42
608.049	31.29
608.242	31.3
608.434	31.61
608.627	31.19
608.819	31.14
609.012	31.01
609.204	30.85
609.397	30.74
609.589	30.88
609.782	30.88
609.974	31.11
610.166	30.82
610.359	30.57
610.551	30.54
610.743	30.83
610.936	30.86
611.128	30.65
611.32	30.9
611.513	31.29
611.705	31.63
611.897	31.82
612.09	31.56
612.282	31.65
612.474	31.51
612.666	31.46
612.858	31.34
613.051	31.56
613.243	32.08
613.435	32.1
613.627	32.03
613.819	31.91
614.011	32.15
614.203	32.6
614.395	33.53
614.588	34.31
614.78	34.56
614.972	35.1
615.164	35.25
615.356	35.31
615.548	35.4
615.74	35.48
615.932	35.66
616.124	35.05
616.315	34.86
616.507	34.46
616.699	34.3
616.891	33.76
617.083	33.2
617.275	32.97
617.467	32.94
617.659	32.82
617.85	33.52
618.042	33.39
618.234	34.06
618.426	33.65
618.618	33.41
618.809	33.44
619.001	33.65
619.193	34.33
619.384	34.67
619.576	34.68
619.768	34.71
619.959	33.88
620.151	33.87
620.343	33.71
620.534	34.22
620.726	34.02
620.917	33.63
621.109	34.02
621.301	33.71
621.492	33.12
621.684	33.5
621.875	33.69
622.067	34.17
622.258	33.88
622.45	33.83
622.641	33.52
622.832	33.56
623.024	33.43
623.215	33.11
623.407	32.54
623.598	33.49
623.789	33.03
623.981	33.25
624.172	32.75
624.363	32.71
624.555	32.41
624.746	32.39
624.937	32.32
625.129	33.02
625.32	33.03
625.511	33.66
625.702	32.76
625.893	32.4
626.085	32.33
626.276	32.65
626.467	32.69
626.658	33.1
626.849	33.38
627.04	33.48
627.231	33.06
627.422	33.05
627.614	32.84
627.805	32.92
627.996	33.95
628.187	33.69
628.378	33.78
628.569	34.4
628.76	34.45
628.951	34.55
629.142	35.14
629.332	35.26
629.523	35.24
629.714	35.35
629.905	35.65
630.096	35.44
630.287	35.8
630.478	36.15
630.669	35.8
630.859	35.76
631.05	35.69
631.241	35.1
631.432	35.18
631.623	35.7
631.813	35.84
632.004	35.31
632.195	34.2
632.385	33.78
632.576	33.62
632.767	33.4
632.957	33.86
633.148	34.23
633.339	34.07
633.529	33.8
633.72	33.61
633.91	33.69
634.101	34.58
634.292	35.23
634.482	35.67
634.673	35.85
634.863	36.53
635.054	36.11
635.244	35.4
635.435	36.13
635.625	36.96
635.815	36.99
636.006	36.78
636.196	36.98
636.387	37.11
636.577	37.27
636.767	36.86
636.958	36.13
637.148	36.04
637.338	36.14
637.529	35.72
637.719	34.69
637.909	34.47
638.099	35.09
638.29	34.59
638.48	35.42
638.67	35.43
638.86	35.99
639.05	35.99
639.241	36.13
639.431	36.57
639.621	37.15
639.811	37.37
640.001	37.86
640.191	37.01
640.381	37.06
640.571	36.13
640.761	35.79
640.951	35.76
641.141	36.25
641.331	36.74
641.521	36.58
641.711	36.6
641.901	36.32
642.091	35.64
642.281	36.05
642.471	35.78
642.661	35.74
642.851	36.03
643.041	35.97
643.231	35.66
643.42	35.89
643.61	35.55
643.8	35.39
643.99	35.83
644.18	36.56
644.369	36.38
644.559	37.07
644.749	37.17
644.939	36.98
645.128	36.79
645.318	37.38
645.508	36.51
645.697	37.79
645.887	37.32
646.076	37.29
646.266	37.34
646.456	37.08
646.645	36.72
646.835	36.08
647.024	36.01
647.214	36.11
647.403	35.56
647.593	35.79
647.782	35.08
647.972	35.04
648.161	35.68
648.351	35.61
648.54	35.65
648.73	36.1
648.919	36.32
649.108	36.48
649.298	36.74
649.487	36.87
649.677	37.2
649.866	37.17
650.055	37.05
650.244	37
650.434	36.09
650.623	36.48
650.812	36.39
651.002	36.93
651.191	37.07
651.38	36.75
651.569	36.64
651.758	36.46
651.947	37.05
652.137	37.57
652.326	37.07
652.515	37.63
652.704	37.92
652.893	37.81
653.082	37.79
653.271	37.7
653.46	37.3
653.649	36.93
653.838	36.77
654.027	36.52
654.216	36.24
654.405	36.31
654.594	36.63
654.783	36.45
654.972	36.58
655.161	36.8
655.35	36.86
655.539	36.82
655.728	37.25
655.916	36.86
656.105	36.69
656.294	36.92
656.483	37.44
656.672	36.91
656.86	36.47
657.049	36.54
657.238	35.74
657.427	35.95
657.615	36
657.804	35.89
657.993	35.51
658.181	35.17
658.37	35.93
658.559	36.18
658.747	36.21
658.936	36.62
659.125	37.27
659.313	37.47
659.502	37.47
659.69	37.99
659.879	38.05
660.067	38.63
660.256	38.54
660.444	37.76
660.633	37.22
660.821	37.5
661.01	36.8
661.198	35.89
661.387	36.17
661.575	35.48
661.763	35.09
661.952	35.04
662.14	35.21
662.328	35.67
662.517	35.67
662.705	35.33
662.893	35.98
663.082	36.56
663.27	36.07
663.458	36.19
663.646	36.96
663.834	37.72
664.023	37.97
664.211	38.18
664.399	38.28
664.587	38.36
664.775	38.36
664.963	38.52
665.152	38.79
665.34	39.25
665.528	39.27
665.716	38.98
665.904	38.99
666.092	38.71
666.28	38.82
666.468	37.83
666.656	38.3
666.844	38.91
667.032	37.67
667.22	38.05
667.408	37.84
667.596	37.76
667.784	38.14
667.971	37.7
668.159	38.02
668.347	37.36
668.535	38.23
668.723	37.76
668.911	37.89
669.098	38.21
669.286	37.67
669.474	37.77
669.662	38.7
669.849	38.75
670.037	38.8
670.225	39.06
670.413	38.93
670.6	39.4
670.788	39.46
670.976	39.32
671.163	40
671.351	40.48
671.538	40.47
671.726	39.71
671.913	39.6
672.101	39.68
672.289	39.73
672.476	39.92
672.664	39.61
672.851	39.42
673.039	38.67
673.226	37.95
673.413	37.75
673.601	37.32
673.788	37.86
673.976	37.76
674.163	37.8
674.35	37.44
674.538	38.55
674.725	38.75
674.912	39.19
675.1	39.98
675.287	39.52
675.474	39.75
675.662	40.04
675.849	39.89
676.036	39.37
676.223	40.03
676.411	40.23
676.598	39.62
676.785	39.76
676.972	39.93
677.159	40.34
677.346	41.37
677.533	41.27
677.721	40.91
677.908	40.6
678.095	41.86
678.282	41.12
678.469	40.86
678.656	40.71
678.843	40.37
679.03	39.58
679.217	39.58
679.404	39.31
679.591	39.67
679.778	39.95
679.964	40.11
680.151	39.05
680.338	38.54
680.525	38.42
680.712	37.95
680.899	37.85
681.086	37.96
681.272	37.65
681.459	37.95
681.646	38.02
681.833	37.92
682.02	37.43
682.206	37.98
682.393	38.87
682.58	39.07
682.766	40.42
682.953	40.52
683.14	40.81
683.326	41.13
683.513	40.79
683.7	39.7
683.886	39.98
684.073	39.49
684.259	39.1
684.446	39.47
684.632	40.6
684.819	40.01
685.005	40.6
685.192	40.92
685.378	40.84
685.565	41.15
685.751	41.58
685.938	42.14
686.124	42.2
686.31	42.62
686.497	42.59
686.683	41.52
686.87	41.49
687.056	41.31
687.242	42.06
687.429	41.51
687.615	40.88
687.801	42.04
687.987	42.58
688.174	43.49
688.36	43.7
688.546	42.26
688.732	42.58
688.918	42.93
689.105	43.07
689.291	42.56
689.477	42.93
689.663	43.84
689.849	43.03
690.035	42.24
690.221	42.86
690.407	43
690.593	44.4
690.779	45.57
690.965	44.82
691.151	44.36
691.337	44.68
691.523	45.29
691.709	44.21
691.895	44.44
692.081	44.62
692.267	44.12
692.453	43.93
692.639	43.08
692.825	42.79
693.011	43.05
693.196	43.63
693.382	43.05
693.568	42.99
693.754	44.2
693.94	43.37
694.125	43.47
694.311	42.92
694.497	42.51
694.682	43.23
694.868	43.2
695.054	43.2
695.239	42.95
695.425	42.69
695.611	42.07
695.796	41.88
695.982	41.98
696.168	41.57
696.353	41.51
696.539	40.97
696.724	40.2
696.91	39.14
697.095	39.68
697.281	39.49
697.466	39.82
697.652	39.08
697.837	38.91
698.023	39.7
698.208	39.25
698.393	39.42
698.579	39.34
698.764	39.41
698.949	39.31
699.135	38.68
699.32	38.4
699.505	38.19
699.691	38.49
699.876	37.61
700.061	36.5
700.246	36.98
700.432	36.36
700.617	37.27
700.802	37.44
700.987	38.51
701.172	39.93
701.358	39.92
701.543	40.41
701.728	41.54
701.913	43.2
702.098	44.45
702.283	44.02
702.468	44.87
702.653	44.8
702.838	45.65
703.023	45.52
703.208	43.67
703.393	44.73
703.578	45.45
703.763	45.68
703.948	44.93
704.133	45.31
704.318	46.57
704.503	46.65
704.688	46.97
704.873	46.6
705.057	47.04
705.242	47.34
705.427	47.45
705.612	47.52
705.797	47.69
705.981	47.58
706.166	46.18
706.351	45.47
706.536	45.82
706.72	44.89
706.905	45.56
707.09	45.88
707.274	47.19
707.459	47.08
707.644	46.2
707.828	46.02
708.013	48.03
708.197	49.16
708.382	49.83
708.567	49.72
708.751	49.03
708.936	47.93
709.12	47.08
709.305	46.75
709.489	47.62
709.673	46.97
709.858	46.92
710.042	45.27
710.227	44.15
710.411	44.15
710.596	44.08
710.78	44.78
710.964	44.53
711.149	44.54
711.333	43.9
711.517	42.68
711.702	43.45
711.886	42.97
712.07	43.74
712.254	43.56
712.438	43.49
712.623	43.67
712.807	43.68
712.991	44.06
713.175	43.58
713.359	44.22
713.544	43.83
713.728	43.77
713.912	44.4
714.096	44.81
714.28	45.14
714.464	44.98
714.648	44.72
714.832	44.75
715.016	44.86
715.2	45.45
715.384	45.19
715.568	45.5
715.752	44.93
715.936	43.85
716.12	42.14
716.304	42.24
716.488	41.75
716.671	42.08
716.855	42.25
717.039	42.34
717.223	42.46
717.407	43.65
717.59	44.52
717.774	45.54
717.958	45.62
718.142	46.95
718.325	46.96
718.509	46.61
718.693	45.94
718.877	46.49
719.06	46.72
719.244	45.64
719.428	44.55
719.611	44.34
719.795	44.95
719.978	45.88
720.162	44.38
720.345	44.8
720.529	45.53
720.713	46.58
720.896	46.11
721.08	47.49
721.263	49.12
721.446	51.05
721.63	50.49
721.813	48.46
721.997	50.01
722.18	51.01
722.364	51.01
722.547	51.85
722.73	50.93
722.914	51.5
723.097	50.12
723.28	50.31
723.464	49.94
723.647	49.89
723.83	51.92
724.013	49.41
724.197	50.41
724.38	50.88
724.563	51.11
724.746	51.66
724.929	51.68
725.112	51.52
725.296	51.45
725.479	50.67
725.662	50.6
725.845	48.95
726.028	51.04
726.211	50.81
726.394	49.77
726.577	48.83
726.76	48.29
726.943	47.41
727.126	47.04
727.309	46.44
727.492	46.27
727.675	46.37
727.858	46.39
728.041	45.68
728.224	44.56
728.407	44.35
728.589	44.66
728.772	44.6
728.955	45.05
729.138	45.86
729.321	44.74
729.503	44.9
729.686	44.35
729.869	45.71
730.052	45.45
730.234	46.05
730.417	45.97
730.6	45.9
730.782	45.14
730.965	45.77
731.148	45.56
731.33	46.33
731.513	46.77
731.695	48.5
731.878	47.34
732.061	46.64
732.243	46.74
732.426	47.26
732.608	47.54
732.791	48.51
732.973	47.35
733.156	47.37
733.338	47.92
733.52	47.58
733.703	46.32
733.885	46.78
734.068	46.24
734.25	45.56
734.432	46.9
734.615	45.11
734.797	44.66
734.979	45.28
735.162	44.46
735.344	45.86
735.526	45.57
735.708	45.51
735.891	45.01
736.073	47.18
736.255	49.15
736.437	47.79
736.619	50.13
736.802	50.48
736.984	51.62
737.166	54.12
737.348	54.53
737.53	55.09
737.712	55.51
737.894	56.37
738.076	54.61
738.258	53.88
738.44	54.06
738.622	53.48
738.804	54.09
738.986	52.21
739.168	51.77
739.35	48.24
739.532	46.86
739.714	47.18
739.896	45.2
740.078	45.52
740.259	45.98
740.441	48.17
740.623	48.25
740.805	48.31
740.987	49.61
741.168	48.32
741.35	50.07
741.532	49.69
741.714	49.54
741.895	51.7
742.077	50.25
742.259	49.91
742.44	47.48
742.622	46.76
742.804	46.83
742.985	45.31
743.167	45.29
743.348	44.13
743.53	45
743.711	45.28
743.893	45.51
744.075	47.19
744.256	47.14
744.438	47.95
744.619	48.82
744.8	48.91
744.982	52.53
745.163	55.75
745.345	56.37
745.526	56.76
745.707	56.96
745.889	56.38
746.07	57.08
746.252	55.34
746.433	54.82
746.614	55.18
746.795	53.78
746.977	53.71
747.158	52.95
747.339	51.93
747.52	51.52
747.702	51.49
747.883	51.44
748.064	50.45
748.245	52.8
748.426	54.92
748.607	52.01
748.788	55.39
748.97	53.44
749.151	53.66
749.332	54.9
749.513	58.06
749.694	57.81
749.875	60.06
750.056	61.31
750.237	61.29
750.418	60.59
750.599	64.7
750.78	62.03
750.96	63.46
751.141	59.33
751.322	60.54
751.503	56.1
751.684	56.75
751.865	54.29
752.046	54.82
752.226	54.37
752.407	53.42
752.588	52.35
752.769	53.45
752.949	50.99
753.13	53.12
753.311	52.81
753.492	54.78
753.672	54.28
753.853	55.42
754.034	54.3
754.214	51.78
754.395	52.61
754.575	51.06
754.756	50.5
754.937	54.51
755.117	52.83
755.298	53.06
755.478	53.65
755.659	54.08
755.839	53.67
756.02	54.54
756.2	58.86
756.381	58.27
756.561	59.98
756.741	59.87
756.922	57.94
757.102	60.88
757.283	60.35
757.463	59.07
757.643	60.41
757.823	60.65
758.004	61.08
758.184	58.5
758.364	56.93
758.545	57.79
758.725	57.77
758.905	59.56
759.085	58.13
759.265	57.92
759.446	56.36
759.626	54.76
759.806	53.06
759.986	50.82
760.166	50.14
760.346	51.31
760.526	48.67
760.706	48.69
760.886	46.85
761.066	47.78
761.246	48.55
761.426	49.24
761.606	49.14
761.786	48.26
761.966	50.4
762.146	51.42
762.326	51.08
762.506	52.04
762.686	50.62
762.866	49.34
763.046	47.85
763.225	45.07
763.405	44.67
763.585	44.59
763.765	46.15
763.945	46.02
764.124	45.5
764.304	47.21
764.484	47.55
764.664	48.82
764.843	49.43
765.023	50.42
765.203	51.44
765.382	53.33
765.562	53.81
765.741	53.47
765.921	54.81
766.101	56.65
766.28	54.63
766.46	54.09
766.639	54.38
766.819	52.98
766.998	52.66
767.178	52.1
767.357	52.69
767.537	55.25
767.716	56.45
767.896	54.31
768.075	51.57
768.254	51.72
768.434	52.13
768.613	53.35
768.792	55.85
768.972	56.71
769.151	58.59
769.33	57.62
769.51	54.65
769.689	55.54
769.868	54.06
770.047	55.53
770.226	54.84
770.406	53.62
770.585	54.33
770.764	54.87
770.943	53.87
771.122	54.67
771.301	57.05
771.48	57.99
771.66	56.65
771.839	58.58
772.018	60.7
772.197	65.05
772.376	67.63
772.555	68.08
772.734	68.84
772.913	68.46
773.092	68.34
773.271	65.2
773.449	67.9
773.628	68.28
773.807	69.81
773.986	64.96
774.165	62.41
774.344	63.72
774.523	60.14
774.701	60.21
774.88	63.47
775.059	62.29
775.238	62.31
775.417	61.83
775.595	61.61
775.774	61.16
775.953	64.3
776.131	66.14
776.31	60.94
776.489	63.34
776.667	60.39
776.846	59.28
777.025	61.09
777.203	63.13
777.382	58.91
777.56	56.44
777.739	58.6
777.917	59.25
778.096	60.68
778.274	64.17
778.453	63.35
778.631	64.14
778.81	64.57
778.988	64.97
779.166	65.98
779.345	70.41
779.523	74.89
779.702	74.87
779.88	77.22
780.058	73.43
780.237	74.22
780.415	73.56
780.593	75.45
780.771	78.39
780.95	80
781.128	77.22
781.306	74.6
781.484	74.4
781.662	74.67
781.841	72.22
782.019	70.25
782.197	68.61
782.375	69.65
782.553	68.67
782.731	67.32
782.909	67.37
783.087	70.6
783.265	71.06
783.443	70.8
783.621	70.04
783.799	68.56
783.977	75.22
784.155	82.5
784.333	80.34
784.511	79.71
784.689	78.76
784.867	76.83
785.045	76.28
785.223	77.1
785.4	77.78
785.578	72.28
785.756	69.68
785.934	66.73
786.112	63.82
786.289	65.84
786.467	68.05
786.645	70.76
786.823	74.05
787	74.71
787.178	75.03
787.356	73.54
787.533	76.82
787.711	78.54
787.889	77.9
788.066	71.82
788.244	72.47
788.421	72.38
788.599	73.28
788.776	72.15
788.954	69.16
789.131	68.35
789.309	70.91
789.486	69.18
789.664	71.06
789.841	69.74
790.019	71.66
790.196	68.7
790.373	67.11
790.551	63
790.728	62.35
790.906	62.75
791.083	69.18
791.26	63.9
791.437	60.84
791.615	60.86
791.792	61.46
791.969	62.33
792.146	65.38
792.324	63.3
792.501	65.1
792.678	67.97
792.855	64.72
793.032	57.33
793.209	56.15
793.387	61.01
793.564	62.57
793.741	62.86
793.918	67.69
794.095	67.18
794.272	72.6
794.449	73.09
794.626	74.65
794.803	75.82
794.98	74.03
795.157	79.43
795.334	77.3
795.511	73.51
795.688	73.9
795.864	67.44
796.041	66.21
796.218	65.34
796.395	60.22
796.572	57.69
796.749	58.53
796.925	60.35
797.102	59.31
797.279	60.87
797.456	65.08
797.632	63.37
797.809	69.53
797.986	71.25
798.162	72.08
798.339	76.46
798.516	76.81
798.692	77.8
798.869	83.14
799.046	84.43
799.222	85.2
799.399	84.14
799.575	87.52
799.752	82.89
799.928	77.22
800.105	72.79
800.281	73.42
800.458	71.08
800.634	66.91
800.811	65.16
800.987	65.81
801.163	63.79
801.34	62.23
801.516	61.25
801.692	61.68
801.869	68.65
802.045	75.08
802.221	73.89
802.398	76.4
802.574	78.62
802.75	76.41
802.926	77.44
803.103	76.29
803.279	71.96
803.455	70.06
803.631	73.89
803.807	74.34
803.983	72.21
804.16	78.56
804.336	80.72
804.512	85.24
804.688	93.58
804.864	94.05
805.04	95.07
805.216	101.62
805.392	102.15
805.568	104.54
805.744	98.48
805.92	92.75
806.096	90.5
806.272	89.93
806.448	85.47
806.623	84.84
806.799	86.35
806.975	84.16
807.151	80.87
807.327	82.45
807.503	77.5
807.678	80
807.854	87.86
808.03	87.5
808.206	88.26
808.381	89.64
808.557	80.65
808.733	75.57
808.908	79.75
809.084	85.94
809.26	88.48
809.435	89.84
809.611	93.98
809.787	84.24
809.962	88.94
810.138	88.71
810.313	94.33
810.489	95.21
810.664	96.7
810.84	88.25
811.015	81.8
811.191	84.47
811.366	85.86
811.542	84.18
811.717	86
811.892	78.24
812.068	81.1
812.243	80.36
812.419	86.27
812.594	86.02
812.769	96.53
812.944	100.94
813.12	94.62
813.295	97.47
813.47	95.6
813.645	97.59
813.821	101.75
813.996	103.77
814.171	102.55
814.346	101.51
814.521	102.9
814.697	103.48
814.872	99.36
815.047	100.39
815.222	98.04
815.397	97.09
815.572	102.92
815.747	103.65
815.922	94.54
816.097	93.03
816.272	88.34
816.447	84.83
816.622	83.79
816.797	83.19
816.972	85.78
817.147	79.22
817.322	81.87
817.496	75.31
817.671	71.25
817.846	71.55
818.021	75.11
818.196	74.3
818.371	76.45
818.545	74
818.72	72.32
818.895	68.69
819.069	67.34
819.244	63.41
819.419	68.18
819.594	63.42
819.768	60.19
819.943	55.45
820.117	52
820.292	49.59
820.467	49.42
820.641	49.06
820.816	45.95
820.99	45.44
821.165	43.11
821.339	41.02
821.514	40.71
821.688	40.28
821.863	39.66
822.037	39.72
822.212	39.61
822.386	40.19
822.56	39.76
822.735	39.98
822.909	39.83
823.084	40.15
823.258	39.99
823.432	40.51
823.606	41.27
823.781	40.64
823.955	42.93
824.129	43.78
824.303	43.16
824.478	43.49
824.652	43.43
824.826	44
825	44.57
825.174	44.42
825.348	43.86
825.523	42.62
825.697	45
825.871	44.02
826.045	43.75
826.219	42.89
826.393	43.02
826.567	43.55
826.741	45.08
826.915	45.16
827.089	47.97
827.263	48.74
827.437	50.91
827.611	50.78
827.784	51.29
827.958	51.86
828.132	53.08
828.306	53.06
828.48	55.69
828.654	55.59
828.827	57.71
829.001	56.05
829.175	56.85
829.349	59.92
829.522	63.69
829.696	60.55
829.87	61.81
830.044	64.17
830.217	68.37
830.391	71.06
830.565	72.57
830.738	76.84
830.912	76.77
831.085	79.8
831.259	70.89
831.432	68.97
831.606	80.41
831.779	79.45
831.953	70.97
832.126	67.78
832.3	65.3
832.473	61.43
832.647	60.17
832.82	59.8
832.994	62.24
833.167	60.85
833.34	59.76
833.514	56.65
833.687	54.48
833.86	56.01
834.034	57.11
834.207	55.9
834.38	58.41
834.553	54.58
834.727	56.03
834.9	55.99
835.073	62.35
835.246	63.7
835.419	63.99
835.593	67.44
835.766	72.66
835.939	74.86
836.112	80.41
836.285	78.4
836.458	88.84
836.631	86.24
836.804	82.77
836.977	81.31
837.15	82.37
837.323	82.5
837.496	87.58
837.669	91.26
837.842	90.38
838.015	82.48
838.188	84
838.361	77.86
838.533	83.56
838.706	93.69
838.879	96.82
839.052	94.96
839.225	104.57
839.398	93.43
839.57	87.59
839.743	94.27
839.916	101.91
840.088	96.45
840.261	102.53
840.434	110.39
840.607	102.3
840.779	104.1
840.952	103.59
841.124	92.95
841.297	107.04
841.47	109.86
841.642	105.7
841.815	110.32
841.987	131.44
842.16	125.42
842.332	129.27
842.505	135.85
842.677	125.47
842.85	149.09
843.022	143.63
843.194	149.29
843.367	158.16
843.539	156.19
843.712	143.63
843.884	140.37
844.056	149.75
844.229	142.27
844.401	147.64
844.573	145.45
844.745	143.3
844.918	158
845.09	148.34
845.262	161.2
845.434	169.36
845.606	173.33
845.779	158.08
845.951	159.6
846.123	143.11
846.295	144.65
846.467	158.6
846.639	142.68
846.811	155.59
846.983	155.84
847.155	150.54
847.327	127.88
847.499	129.52
847.671	168.39
847.843	163.87
848.015	225.04
848.187	218.03
848.359	219.55
848.531	226.58
848.703	201.37
848.875	241.49
849.047	216.47
849.218	290.22
849.39	270.73
849.562	214.79
849.734	203.06
849.905	170.5
850.077	177
850.249	225.43
850.421	299.5
850.592	280.57
850.764	253.54
850.936	274.07
851.107	309.98
851.279	380.69
851.451	286.24
851.622	257.31
851.794	234.34
851.965	218.44
852.137	195.91
852.308	179.7
852.48	191.99
852.651	176.36
852.823	164.87
852.994	160.75
853.166	145.65
853.337	154.34
853.509	178.9
853.68	222.54
853.851	219.78
854.023	254.48
854.194	248.7
854.365	265.52
854.537	292.1
854.708	430.4
854.879	673.85
855.05	624.42
855.222	548.62
855.393	311.72
855.564	333.16
855.735	278.06
855.906	210.39
856.078	236.07
856.249	291.4
856.42	262.27
856.591	240.15
856.762	222.42
856.933	286.03
857.104	344.66
857.275	415.48
857.446	271.32
857.617	281.59
857.788	293.35
857.959	233.42
858.13	174.13
858.301	219.59
858.472	250.29
858.643	272.42
858.814	296.28
858.985	272.11
859.155	259.23
859.326	347.18
859.497	343.95
859.668	318.42
859.839	578.89
860.009	440.27
860.18	283.69
860.351	218.9
860.522	210.34
860.692	171.91
860.863	165.25
861.034	178.4
861.204	155.05
861.375	169.22
861.546	187.68
861.716	182.38
861.887	189.73
862.057	258.41
862.228	238.74
862.398	251.67
862.569	252.91
862.739	253.76
862.91	242.59
863.08	316.72
863.251	307.17
863.421	310.8
863.592	285.74
863.762	303.34
863.932	233
864.103	259.08
864.273	226.95
864.443	239.62
864.614	228.59
864.784	228.31
864.954	202.83
865.125	213.54
865.295	223.67
865.465	218.13
865.635	234.28
865.805	226.82
865.976	250.07
866.146	253.59
866.316	288.98
866.486	398.12
866.656	321.3
866.826	352.66
866.996	322.8
867.166	299.35
867.336	267.63
867.506	224.09
867.676	225.43
867.846	212.19
868.016	230.76
868.186	216.65
868.356	196.65
868.526	210.92
868.696	210.67
868.866	214.03
869.036	194.72
869.206	190.9
869.376	209.32
869.545	210.9
869.715	218.31
869.885	228.55
870.055	260.14
870.224	297.92
870.394	432.35
870.564	349.68
870.734	374.55
870.903	350.51
871.073	451.12
871.243	357.91
871.412	348.68
871.582	282.32
871.751	281.83
871.921	259.78
872.091	226.36
872.26	195.91
872.43	149.71
872.599	151.4
872.769	175.6
872.938	163.57
873.108	230.1
873.277	251.07
873.446	323.67
873.616	284.24
873.785	317.7
873.955	435.68
874.124	328.85
874.293	880
874.463	933.53
874.632	1129.55
874.801	1188.24
874.971	346.68
875.14	353.77
875.309	240.23
875.478	214.73
875.647	196.47
875.817	147.88
875.986	173.11
876.155	168.42
876.324	181.77
876.493	174.28
876.662	158.42
876.831	183.91
877	183.96
877.17	212.57
877.339	282.56
877.508	216.98
877.677	267.65
877.846	280.74
878.015	241.68
878.184	212.15
878.352	198.04
878.521	206.85
878.69	205.27
878.859	183.17
879.028	194.11
879.197	166.89
879.366	197.21
879.534	178.17
879.703	165.99
879.872	165.33
880.041	151.86
880.21	136.94
880.378	133.62
880.547	125.22
880.716	123.5
880.884	108.47
881.053	94.79
881.222	81.01
881.39	70.42
881.559	61.48
881.727	55.61
881.896	59.52
882.065	59.31
882.233	58.66
882.402	58.03
882.57	52.99
882.739	53.23
882.907	56.48
883.076	58.57
883.244	66.14
883.412	69.51
883.581	72.64
883.749	74.69
883.918	76.6
884.086	74.61
884.254	71.98
884.423	75.5
884.591	81.46
884.759	84.44
884.927	83
885.096	78.31
885.264	82.92
885.432	80.86
885.6	79.71
885.769	86.91
885.937	99.25
886.105	104.85
886.273	106.51
886.441	101.32
886.609	106.43
886.777	113.62
886.945	128.71
887.113	123.77
887.281	143.99
887.449	150.38
887.617	133.09
887.785	141.69
887.953	141.35
888.121	153.74
888.289	176.05
888.457	208.27
888.625	249.91
888.793	193.99
888.961	221.44
889.129	151.97
889.296	154.47
889.464	179.12
889.632	149.26
889.8	170.31
889.967	168.07
890.135	161.37
