Data from JASIL_3379_Reflection_1.txt Node
Date: Thu Nov 19 19:01:21 EST 2015
User: Geneva
Spectrometer: USB4E03002
Autoset integration time: false
Trigger mode: 4
Integration Time (sec): 1.000000E-1
Scans to average: 10
Electric dark correction enabled: false
Nonlinearity correction enabled: false
Boxcar width: 5
Stray light correction enabled: false
XAxis mode: Wavelengths
Stop averaging: false
Number of Pixels in Spectrum: 3648
>>>>>Begin Spectral Data<<<<<
177.575	124.15
177.794	142.89
178.014	135.52
178.233	148.08
178.452	129.92
178.672	155.41
178.891	166.48
179.11	207.07
179.33	250.39
179.549	338.74
179.768	477.6
179.987	288.13
180.207	350.15
180.426	1288
180.645	76800
180.864	-3453.85
181.084	1503.7
181.303	-3441.67
181.522	3517.39
181.741	586.39
181.96	331.72
182.179	246.89
182.398	324.9
182.618	180.5
182.837	147.54
183.056	167.63
183.275	157.55
183.494	184.73
183.713	134.83
183.932	111.32
184.151	120.24
184.37	127.03
184.589	125.64
184.808	165.28
185.027	257.43
185.246	262.99
185.465	201.28
185.684	182.02
185.903	155.43
186.122	187.67
186.341	306.44
186.56	338.64
186.779	291.29
186.998	297.89
187.216	270.69
187.435	183.96
187.654	198.84
187.873	224.1
188.092	265.98
188.311	278.84
188.53	233.33
188.748	155.23
188.967	120.66
189.186	133.08
189.405	123.55
189.623	116.77
189.842	136.03
190.061	116.89
190.28	65.42
190.498	66.85
190.717	96.79
190.936	74.18
191.154	93.48
191.373	137.95
191.592	111.63
191.81	161.94
192.029	189.21
192.248	198.5
192.466	241.83
192.685	269.89
192.904	276.94
193.122	335.81
193.341	369.32
193.559	670.93
193.778	327.48
193.996	522.33
194.215	311.17
194.433	313.24
194.652	253.1
194.87	198.82
195.089	199.29
195.307	221.15
195.526	224.5
195.744	216.93
195.963	157.2
196.181	183.26
196.399	183.21
196.618	206.11
196.836	172.74
197.055	167.14
197.273	175.09
197.491	167.04
197.71	145.14
197.928	132.2
198.146	208.05
198.365	463.51
198.583	303.64
198.801	311.16
199.019	233.84
199.238	350.79
199.456	252.51
199.674	210.7
199.892	156.78
200.111	138.9
200.329	134.99
200.547	99.71
200.765	94.89
200.983	92.43
201.202	91.48
201.42	91.53
201.638	159.9
201.856	209.76
202.074	219.63
202.292	214.95
202.51	212.78
202.728	185.91
202.946	169.79
203.165	188.36
203.383	173.89
203.601	187.37
203.819	193.57
204.037	132.54
204.255	127.44
204.473	116.95
204.691	139.57
204.909	126.49
205.127	190.59
205.345	265.42
205.562	196.91
205.78	182.59
205.998	193.98
206.216	172.33
206.434	167.92
206.652	161.03
206.87	163.11
207.088	153.18
207.306	182.18
207.523	165.72
207.741	118.19
207.959	123.47
208.177	129.17
208.395	103.81
208.612	97.95
208.83	106.37
209.048	106.84
209.266	109
209.483	116.21
209.701	115.03
209.919	120.63
210.136	148.11
210.354	174.44
210.572	187.54
210.79	221.44
211.007	235.48
211.225	198.02
211.442	234.99
211.66	428.99
211.878	629.92
212.095	319.2
212.313	203.75
212.53	257.45
212.748	190.87
212.966	234.79
213.183	269.2
213.401	253.15
213.618	264.63
213.836	327.17
214.053	214.71
214.271	168.58
214.488	238.65
214.705	245.05
214.923	213.99
215.14	223.04
215.358	183.27
215.575	160.73
215.793	140.67
216.01	136.95
216.227	142.84
216.445	203.27
216.662	197.63
216.879	161.51
217.097	165.14
217.314	168.85
217.531	185.55
217.749	184.03
217.966	187.68
218.183	207.81
218.4	209.49
218.618	204.02
218.835	151.99
219.052	167.99
219.269	165.43
219.487	162.24
219.704	175.35
219.921	147.83
220.138	152.04
220.355	140.36
220.572	155.29
220.79	211.59
221.007	176.88
221.224	148.34
221.441	128.61
221.658	126.78
221.875	135.74
222.092	122.83
222.309	125.5
222.526	126.84
222.743	122.89
222.96	109.25
223.177	93.78
223.394	101.27
223.611	109.51
223.828	98.72
224.045	111.33
224.262	97.32
224.479	102.87
224.696	117.95
224.913	128.7
225.13	129.73
225.347	143.38
225.564	132.3
225.781	120.21
225.997	104.84
226.214	102.33
226.431	95.42
226.648	82.99
226.865	68.83
227.082	56.8
227.298	54.41
227.515	48.78
227.732	39.86
227.949	38.18
228.165	36.6
228.382	34.22
228.599	36.07
228.816	31.83
229.032	33.28
229.249	34.78
229.466	34.68
229.682	27.73
229.899	30.08
230.116	31.94
230.332	28.9
230.549	26.43
230.765	24.97
230.982	24.52
231.199	31.04
231.415	36.4
231.632	39.18
231.848	41.74
232.065	48.96
232.281	50.97
232.498	58.69
232.714	72.07
232.931	74.58
233.147	78.65
233.364	80.23
233.58	78.73
233.797	71.72
234.013	70.44
234.23	66.04
234.446	62.18
234.662	58.83
234.879	56.06
235.095	52.76
235.312	49.45
235.528	45.12
235.744	47.75
235.961	44.32
236.177	43.05
236.393	45.32
236.61	44.94
236.826	45
237.042	48.24
237.258	38.49
237.475	34.56
237.691	39.07
237.907	44.83
238.123	42.65
238.339	45.96
238.556	46.38
238.772	43.55
238.988	41.85
239.204	44.79
239.42	46.72
239.636	48.26
239.853	46.62
240.069	42.22
240.285	41.66
240.501	38.81
240.717	38.77
240.933	36.36
241.149	36.48
241.365	39.75
241.581	39.63
241.797	36.09
242.013	33.75
242.229	32.67
242.445	31.93
242.661	29.55
242.877	32.57
243.093	30.14
243.309	29.03
243.525	29.96
243.741	29.6
243.957	28.71
244.173	24.88
244.388	28.04
244.604	25.71
244.82	25.27
245.036	23.53
245.252	20.16
245.468	20.99
245.683	21.7
245.899	20.4
246.115	19.49
246.331	17.64
246.547	18.68
246.762	17.54
246.978	18.11
247.194	18.29
247.409	19.51
247.625	20.21
247.841	20.11
248.057	20.02
248.272	18.92
248.488	18.6
248.703	18.22
248.919	20.03
249.135	20.82
249.35	22.98
249.566	23.28
249.782	21.96
249.997	20.47
250.213	21.47
250.428	23.04
250.644	24.09
250.859	22.7
251.075	23.53
251.29	21.48
251.506	21
251.721	18.35
251.937	18.98
252.152	17.85
252.368	16.96
252.583	17.13
252.798	15.74
253.014	16.96
253.229	18.85
253.445	18.62
253.66	20.14
253.875	21.67
254.091	23.3
254.306	22.74
254.521	26.71
254.737	30.22
254.952	30.14
255.167	31.95
255.383	31.95
255.598	28.92
255.813	29
256.028	28.14
256.244	27.82
256.459	26.71
256.674	25.81
256.889	23.06
257.104	20.91
257.32	20.82
257.535	18.25
257.75	17.22
257.965	16.37
258.18	15.79
258.395	14.66
258.61	14.3
258.826	14.02
259.041	13.68
259.256	14.75
259.471	15.2
259.686	14.67
259.901	14.85
260.116	13.79
260.331	14.43
260.546	15.4
260.761	16.97
260.976	18.42
261.191	19.43
261.406	20.27
261.621	19.53
261.836	19.82
262.05	18.51
262.265	21.07
262.48	23.19
262.695	24.26
262.91	24.82
263.125	23.39
263.34	23.05
263.555	21.81
263.769	22.69
263.984	22.88
264.199	22.61
264.414	23.86
264.629	22.94
264.843	23.24
265.058	22.83
265.273	19.48
265.488	18.29
265.702	17.35
265.917	18.21
266.132	17.74
266.346	16.65
266.561	16
266.776	15.66
266.99	14.94
267.205	14.3
267.42	15.03
267.634	19.2
267.849	20.94
268.063	19.27
268.278	18.46
268.492	18.6
268.707	18.52
268.922	18.18
269.136	18.62
269.351	17.67
269.565	19.06
269.78	19.31
269.994	16.67
270.209	15.09
270.423	15.97
270.637	15.51
270.852	14.99
271.066	15.53
271.281	15.27
271.495	15.4
271.709	16.22
271.924	16.06
272.138	14.28
272.353	13.03
272.567	13.49
272.781	13.87
272.996	13.53
273.21	14.42
273.424	15.04
273.638	16.17
273.853	17.29
274.067	15.12
274.281	14.45
274.495	15.44
274.71	14.55
274.924	15.06
275.138	12.28
275.352	13.07
275.566	13.6
275.781	13.09
275.995	13.04
276.209	11.21
276.423	12.18
276.637	11.73
276.851	10.45
277.065	12.68
277.279	13.91
277.493	15.53
277.707	16.15
277.921	14.71
278.135	14.63
278.349	14.87
278.563	15.86
278.777	15.93
278.991	17.27
279.205	15.88
279.419	17.38
279.633	14.77
279.847	15.2
280.061	14.27
280.275	15.18
280.489	16.09
280.703	15.23
280.917	13.79
281.131	14.32
281.344	12.48
281.558	15.55
281.772	15.15
281.986	15.16
282.2	15.93
282.414	16.8
282.627	16.21
282.841	15.8
283.055	16.01
283.269	16.58
283.482	16.88
283.696	16.91
283.91	15.8
284.123	15.24
284.337	15.88
284.551	15.77
284.764	15.06
284.978	14.98
285.192	14.77
285.405	13.99
285.619	14.29
285.833	14.65
286.046	14.28
286.26	14.09
286.473	13.72
286.687	13.69
286.9	13.4
287.114	13.63
287.327	12.69
287.541	12.65
287.754	14.52
287.968	15.54
288.181	15.63
288.395	16.03
288.608	16.79
288.822	16.94
289.035	16.15
289.248	15.98
289.462	16.93
289.675	18.04
289.889	19.37
290.102	18.33
290.315	17.75
290.529	16.95
290.742	17.73
290.955	16.69
291.169	16.97
291.382	18.33
291.595	18.95
291.808	18.52
292.022	18.9
292.235	16.39
292.448	16.72
292.661	16.96
292.875	17.14
293.088	16.2
293.301	16.33
293.514	15.42
293.727	15.49
293.94	14.64
294.153	13.53
294.367	12.76
294.58	14.09
294.793	13.32
295.006	12.1
295.219	10.99
295.432	11.45
295.645	11.2
295.858	11.24
296.071	10.5
296.284	10.11
296.497	10.13
296.71	9.66
296.923	9.11
297.136	9.55
297.349	9.99
297.562	11.08
297.775	10.75
297.988	10.17
298.201	9.72
298.414	8.91
298.626	9.62
298.839	10.52
299.052	11.73
299.265	12.14
299.478	11.94
299.691	11.64
299.903	11.6
300.116	10.99
300.329	12.75
300.542	14.27
300.755	14.78
300.967	13.99
301.18	14.19
301.393	13.04
301.605	12.48
301.818	12.74
302.031	14.08
302.243	14.54
302.456	15.35
302.669	15.06
302.881	14.82
303.094	15.04
303.307	15.41
303.519	14.92
303.732	15.86
303.944	15.8
304.157	15.9
304.37	13.67
304.582	12.49
304.795	13.23
305.007	12.38
305.22	10.69
305.432	11.24
305.645	11.42
305.857	11.22
306.069	11.09
306.282	11.79
306.494	11.01
306.707	12.66
306.919	12.03
307.132	13.54
307.344	14.33
307.556	15.44
307.769	15.6
307.981	16.73
308.193	16.49
308.406	16.01
308.618	15.58
308.83	16.44
309.043	16.08
309.255	15.79
309.467	13.94
309.679	14.11
309.892	14.17
310.104	13.8
310.316	12.21
310.528	12.77
310.74	13.23
310.953	13.7
311.165	13.32
311.377	12.37
311.589	13.78
311.801	13.49
312.013	13.75
312.225	12.39
312.437	11.61
312.649	12.29
312.862	12.55
313.074	11.21
313.286	10.95
313.498	12.06
313.71	14.33
313.922	14.03
314.134	13.99
314.346	12.99
314.558	14.02
314.77	15.62
314.982	15.51
315.193	14.13
315.405	14.09
315.617	15.44
315.829	15.42
316.041	14.97
316.253	14.35
316.465	14.82
316.677	14.72
316.888	16.73
317.1	17.05
317.312	18.54
317.524	19.51
317.736	19.81
317.947	18.82
318.159	18.27
318.371	16.23
318.583	18.23
318.794	18.31
319.006	19.23
319.218	16.89
319.43	15.79
319.641	14.47
319.853	15.24
320.064	16.57
320.276	17.18
320.488	14.93
320.699	16.14
320.911	14.08
321.123	14.09
321.334	13.29
321.546	15.62
321.757	14.86
321.969	14.39
322.18	13.72
322.392	14.22
322.603	13.02
322.815	15.5
323.026	15.13
323.238	17.19
323.449	17.75
323.661	18.24
323.872	17.82
324.083	18.96
324.295	19.61
324.506	19.22
324.718	18.05
324.929	18.16
325.14	18.25
325.352	18.63
325.563	17.79
325.774	18.23
325.986	19.11
326.197	19.39
326.408	19.02
326.62	17.96
326.831	18.18
327.042	17.47
327.253	16.94
327.464	15.85
327.676	16.96
327.887	18.03
328.098	17.82
328.309	17.53
328.52	16.66
328.732	16.08
328.943	16.38
329.154	16.98
329.365	19.75
329.576	20.9
329.787	21.83
329.998	21.3
330.209	19.45
330.42	18.62
330.631	19.13
330.842	19.93
331.053	21.43
331.264	21.44
331.475	21.97
331.686	21.85
331.897	22.25
332.108	21.64
332.319	20.58
332.53	21.15
332.741	21.08
332.952	20.13
333.163	19.69
333.374	19.31
333.585	20.23
333.795	20.91
334.006	20.43
334.217	19.65
334.428	21.01
334.639	22.92
334.849	23.03
335.06	24.26
335.271	24.21
335.482	24.39
335.692	24.96
335.903	24.97
336.114	23.99
336.325	24.45
336.535	24.54
336.746	24.07
336.957	23.37
337.167	23.33
337.378	23.55
337.589	24.45
337.799	24.54
338.01	22.87
338.22	22.78
338.431	22.08
338.642	21.1
338.852	22.43
339.063	21.63
339.273	22.84
339.484	21.93
339.694	21.67
339.905	21.05
340.115	22.04
340.326	22.9
340.536	22.44
340.746	22.67
340.957	23.86
341.167	23.63
341.378	24.05
341.588	22.49
341.799	23.82
342.009	22.92
342.219	22.83
342.43	21.19
342.64	20.51
342.85	21.33
343.061	21.63
343.271	22.2
343.481	21.01
343.691	20.52
343.902	20.55
344.112	20.13
344.322	19.79
344.532	19.98
344.743	20.78
344.953	20.87
345.163	20.76
345.373	20.8
345.583	19.58
345.793	19.47
346.004	19.77
346.214	21.04
346.424	20.84
346.634	22.41
346.844	22.29
347.054	22.12
347.264	22.37
347.474	21.47
347.684	20.8
347.894	20.2
348.104	20.5
348.314	21.28
348.524	19.41
348.734	20.46
348.944	20.58
349.154	20.86
349.364	21.12
349.574	21.29
349.784	22.29
349.994	22.64
350.204	23.67
350.413	24.66
350.623	24.32
350.833	24.82
351.043	23.98
351.253	23.09
351.463	22.52
351.672	21.85
351.882	22.09
352.092	21.32
352.302	21.92
352.511	22.01
352.721	20.69
352.931	20.5
353.141	20.72
353.35	20.91
353.56	19.81
353.77	19.73
353.979	20.88
354.189	20.77
354.399	20.75
354.608	20.68
354.818	20.52
355.027	20.74
355.237	21.24
355.447	20.73
355.656	20.4
355.866	20.95
356.075	21.04
356.285	19.79
356.494	20.13
356.704	20.11
356.913	20.25
357.123	19.93
357.332	19.48
357.542	19.01
357.751	19.51
357.96	19.44
358.17	19.47
358.379	19.74
358.589	20.46
358.798	19.57
359.007	20.6
359.217	19.53
359.426	19.26
359.635	19.38
359.845	19.06
360.054	18.33
360.263	18.32
360.472	18.36
360.682	18.66
360.891	17.89
361.1	17.97
361.309	17.49
361.519	18.84
361.728	18.83
361.937	19.26
362.146	18.97
362.355	19.62
362.564	19.12
362.774	19.22
362.983	18.72
363.192	19.23
363.401	19.79
363.61	19.36
363.819	18.32
364.028	18.49
364.237	18.05
364.446	18.71
364.655	18.27
364.864	18.54
365.073	18.99
365.282	18.41
365.491	18.64
365.7	18.54
365.909	18.49
366.118	18.74
366.327	18.53
366.536	18.6
366.745	18.41
366.954	18.39
367.162	18.53
367.371	17.94
367.58	18.85
367.789	18.65
367.998	18.44
368.207	18.56
368.415	18.17
368.624	17.97
368.833	19.01
369.042	18.92
369.25	19.1
369.459	18.73
369.668	18.2
369.877	17.8
370.085	17.03
370.294	17.37
370.503	17.62
370.711	17.93
370.92	17.96
371.129	16.92
371.337	16.47
371.546	16.95
371.754	17.06
371.963	17.05
372.171	16.75
372.38	17.26
372.589	17.75
372.797	17.53
373.006	17.35
373.214	17.05
373.423	17.82
373.631	18.03
373.84	17.22
374.048	18.07
374.256	18.27
374.465	18.74
374.673	18.73
374.882	18.46
375.09	18.75
375.298	18.54
375.507	18.17
375.715	18.2
375.923	18.46
376.132	18.3
376.34	17.85
376.548	17.77
376.757	18.45
376.965	17.84
377.173	17.39
377.381	16.85
377.59	16.67
377.798	17.3
378.006	16.81
378.214	16.83
378.423	17.21
378.631	16.89
378.839	16.84
379.047	16.28
379.255	16.91
379.463	16.62
379.671	16.24
379.879	16.15
380.088	16.2
380.296	15.71
380.504	15.32
380.712	15.7
380.92	16.23
381.128	17.08
381.336	16.39
381.544	16.15
381.752	16.03
381.96	16.88
382.168	16.93
382.376	16.46
382.584	16.7
382.791	17.2
382.999	17.18
383.207	17.06
383.415	16.36
383.623	16.94
383.831	17.3
384.039	17.79
384.247	17.26
384.454	17
384.662	17.38
384.87	16.65
385.078	16.66
385.285	15.66
385.493	15.1
385.701	15.34
385.909	15.04
386.116	14.48
386.324	13.93
386.532	14.11
386.739	14.31
386.947	14.34
387.155	14.7
387.362	14.32
387.57	14.8
387.778	14.87
387.985	14.89
388.193	14.39
388.4	14.07
388.608	14.18
388.816	14.65
389.023	14.57
389.231	14.13
389.438	14.64
389.646	14.39
389.853	14.38
390.061	14.7
390.268	14.73
390.475	14.7
390.683	15.24
390.89	15.22
391.098	15.25
391.305	15.34
391.512	15.25
391.72	15.11
391.927	15.14
392.135	15.32
392.342	15.19
392.549	14.71
392.756	15.35
392.964	15.45
393.171	15.91
393.378	15.57
393.586	15.79
393.793	15.88
394	15.65
394.207	15.97
394.414	15.65
394.622	15.97
394.829	16.28
395.036	15.83
395.243	15.58
395.45	15.06
395.657	14.63
395.864	14.25
396.072	14.53
396.279	15.44
396.486	15.08
396.693	14.76
396.9	14.06
397.107	13.92
397.314	14.01
397.521	14.17
397.728	14.04
397.935	14.06
398.142	14.05
398.349	14.13
398.556	13.85
398.763	13.58
398.97	13.66
399.177	13.97
399.383	13.99
399.59	13.99
399.797	13.84
400.004	13.64
400.211	13.91
400.418	14.17
400.625	13.95
400.831	13.95
401.038	14.33
401.245	14.26
401.452	14.26
401.658	14.32
401.865	14.26
402.072	14.8
402.279	15.23
402.485	15.06
402.692	15.04
402.899	14.85
403.105	14.6
403.312	14.57
403.519	15.16
403.725	15.33
403.932	15.16
404.138	15.41
404.345	14.88
404.552	15.31
404.758	15.36
404.965	15.48
405.171	15.9
405.378	15.83
405.584	15.78
405.791	15.68
405.997	15.48
406.204	15.87
406.41	15.96
406.617	16.39
406.823	15.84
407.029	16.06
407.236	15.88
407.442	15.75
407.649	15.32
407.855	15.15
408.061	14.8
408.268	14.84
408.474	14.43
408.68	14.15
408.887	14.07
409.093	14.23
409.299	13.83
409.505	14.21
409.712	14.65
409.918	14.67
410.124	15.23
410.33	15.58
410.537	16.28
410.743	16.59
410.949	16.88
411.155	16.35
411.361	15.6
411.567	15.71
411.773	15.48
411.98	15.21
412.186	15.47
412.392	15.32
412.598	15.14
412.804	14.68
413.01	14.54
413.216	14.59
413.422	15.11
413.628	15.58
413.834	15.75
414.04	15.78
414.246	15.62
414.452	15.71
414.658	15.69
414.864	15.56
415.07	15.33
415.275	15.12
415.481	14.61
415.687	14.68
415.893	15.13
416.099	15.11
416.305	15.47
416.511	15.13
416.716	15.5
416.922	15.66
417.128	15.92
417.334	15.87
417.539	16.19
417.745	16.69
417.951	16.53
418.157	16.68
418.362	16.64
418.568	16.35
418.774	16.66
418.979	16.61
419.185	16.23
419.391	16.24
419.596	16.4
419.802	16.2
420.008	16.4
420.213	16.47
420.419	16.27
420.624	16.31
420.83	16.44
421.035	16.47
421.241	16.49
421.446	16.69
421.652	16.68
421.857	16.79
422.063	16.93
422.268	16.68
422.474	16.88
422.679	17.01
422.885	17.25
423.09	17.2
423.295	17.17
423.501	17.08
423.706	17.23
423.911	17.46
424.117	17.39
424.322	17.59
424.527	17.74
424.733	17.65
424.938	17.69
425.143	17.56
425.349	17.61
425.554	17.73
425.759	17.89
425.964	17.87
426.169	17.79
426.375	17.83
426.58	17.89
426.785	18.21
426.99	18.21
427.195	18.26
427.4	18.58
427.605	18.89
427.811	19.15
428.016	19.45
428.221	19.6
428.426	20.05
428.631	20.18
428.836	19.95
429.041	19.52
429.246	19.89
429.451	19.69
429.656	19.61
429.861	19.49
430.066	19.45
430.271	19.42
430.476	19.38
430.681	19.28
430.886	19.12
431.09	19.42
431.295	19.72
431.5	19.74
431.705	20.3
431.91	20.44
432.115	20.71
432.32	20.79
432.524	20.78
432.729	21.01
432.934	20.93
433.139	21.21
433.343	21.17
433.548	20.96
433.753	21.15
433.958	21.12
434.162	21.3
434.367	21.46
434.572	21.55
434.776	21.86
434.981	21.97
435.186	22.18
435.39	22.26
435.595	22.43
435.799	22.51
436.004	22.38
436.209	22.78
436.413	22.66
436.618	22.55
436.822	22.86
437.027	22.54
437.231	22.75
437.436	22.83
437.64	23.03
437.845	23.22
438.049	23.65
438.253	23.87
438.458	23.72
438.662	23.91
438.867	24.24
439.071	24.13
439.275	24.39
439.48	24.24
439.684	24.4
439.888	24.45
440.093	24.4
440.297	24.38
440.501	24.34
440.706	24.44
440.91	24.65
441.114	24.73
441.318	24.72
441.523	25.18
441.727	25.59
441.931	25.62
442.135	25.56
442.339	25.81
442.543	25.99
442.748	26.29
442.952	26.44
443.156	26.42
443.36	26.42
443.564	26.75
443.768	26.43
443.972	26.34
444.176	26.14
444.38	26.33
444.584	26.11
444.788	26.02
444.992	26.17
445.196	26.37
445.4	26.37
445.604	26.3
445.808	26.51
446.012	26.59
446.216	26.69
446.42	26.91
446.624	27.14
446.828	27.48
447.032	27.52
447.235	27.44
447.439	27.44
447.643	27.52
447.847	27.93
448.051	27.69
448.254	27.83
448.458	27.96
448.662	28.05
448.866	28.02
449.069	28.04
449.273	28.33
449.477	28.13
449.681	28.2
449.884	28.55
450.088	28.15
450.292	28.45
450.495	28.64
450.699	28.38
450.902	28.29
451.106	28.29
451.31	28.62
451.513	28.67
451.717	29.1
451.92	29.24
452.124	29.08
452.327	29.31
452.531	29.06
452.734	29.01
452.938	29.46
453.141	29.56
453.345	29.64
453.548	29.62
453.752	29.63
453.955	29.56
454.158	29.22
454.362	29.57
454.565	29.64
454.769	29.94
454.972	29.87
455.175	29.86
455.379	30.23
455.582	30.31
455.785	30.22
455.988	30.29
456.192	30.67
456.395	30.86
456.598	30.78
456.801	30.35
457.005	30.17
457.208	30.5
457.411	30.42
457.614	30.25
457.817	30.22
458.021	30.1
458.224	29.9
458.427	29.72
458.63	29.75
458.833	29.67
459.036	29.94
459.239	30.06
459.442	29.87
459.645	29.8
459.848	29.73
460.051	29.66
460.254	29.79
460.457	29.94
460.66	30.14
460.863	30.17
461.066	30.15
461.269	30.41
461.472	30.46
461.675	30.4
461.878	30.61
462.081	30.73
462.284	31.21
462.486	31.25
462.689	31.17
462.892	31.12
463.095	31.27
463.298	31.39
463.5	31.32
463.703	31.38
463.906	31.48
464.109	31.26
464.311	31.29
464.514	30.91
464.717	30.97
464.92	31.06
465.122	30.81
465.325	30.81
465.528	31.08
465.73	31.1
465.933	31.09
466.135	30.99
466.338	31.05
466.541	31
466.743	31.47
466.946	31.62
467.148	31.79
467.351	31.81
467.553	31.79
467.756	31.7
467.958	31.43
468.161	31.26
468.363	31.53
468.566	31.85
468.768	31.94
468.971	31.92
469.173	31.72
469.375	31.58
469.578	31.73
469.78	31.63
469.983	31.15
470.185	31.16
470.387	31.44
470.59	31.33
470.792	30.94
470.994	30.92
471.196	30.56
471.399	30.45
471.601	30.42
471.803	30.41
472.005	30.66
472.208	30.77
472.41	30.64
472.612	30.45
472.814	30.62
473.016	30.31
473.218	30.68
473.421	30.65
473.623	30.76
473.825	31.24
474.027	31.36
474.229	30.99
474.431	31.15
474.633	31.13
474.835	31.23
475.037	31.03
475.239	31.24
475.441	30.88
475.643	30.96
475.845	30.82
476.047	30.48
476.249	30.53
476.451	30.48
476.653	30.59
476.855	30.86
477.057	31.06
477.258	30.92
477.46	31.2
477.662	31.21
477.864	31.31
478.066	31.1
478.268	31.21
478.469	31.02
478.671	31.22
478.873	31
479.075	31.02
479.276	30.9
479.478	30.98
479.68	30.91
479.882	31.06
480.083	30.88
480.285	31.13
480.487	30.93
480.688	30.94
480.89	30.85
481.091	30.93
481.293	30.96
481.495	30.98
481.696	31.11
481.898	31.07
482.099	30.93
482.301	30.99
482.502	31.04
482.704	31.07
482.905	30.97
483.107	30.96
483.308	31
483.51	30.94
483.711	30.81
483.913	30.77
484.114	30.79
484.315	30.83
484.517	30.8
484.718	30.77
484.92	30.75
485.121	30.9
485.322	30.98
485.524	30.95
485.725	30.96
485.926	31.06
486.127	31.07
486.329	31.15
486.53	31.24
486.731	31.36
486.932	31.33
487.134	31.28
487.335	31.19
487.536	31.22
487.737	31.23
487.938	31.23
488.139	31.33
488.341	31.32
488.542	31.24
488.743	31.11
488.944	30.99
489.145	31.16
489.346	31.25
489.547	31.26
489.748	31.12
489.949	31.23
490.15	31.19
490.351	31.2
490.552	31.3
490.753	31.25
490.954	31.3
491.155	31.32
491.356	31.2
491.557	31.18
491.758	31.25
491.959	31.26
492.159	31.18
492.36	31.28
492.561	31.14
492.762	31.08
492.963	31.22
493.164	31.31
493.364	31.37
493.565	31.35
493.766	31.44
493.967	31.51
494.167	31.64
494.368	31.77
494.569	31.79
494.769	31.83
494.97	31.68
495.171	31.63
495.371	31.56
495.572	31.53
495.773	31.62
495.973	31.55
496.174	31.37
496.375	31.48
496.575	31.26
496.776	31.15
496.976	31.22
497.177	31.38
497.377	31.41
497.578	31.41
497.778	31.4
497.979	31.45
498.179	31.4
498.38	31.53
498.58	31.4
498.78	31.4
498.981	31.62
499.181	31.49
499.382	31.64
499.582	31.77
499.782	31.66
499.983	31.98
500.183	31.88
500.383	32.1
500.584	32.1
500.784	32.03
500.984	32.23
501.184	32.11
501.385	32.46
501.585	32.37
501.785	32.13
501.985	32.42
502.185	32.2
502.386	32.44
502.586	32.21
502.786	32.13
502.986	32.15
503.186	31.9
503.386	32.18
503.586	32.04
503.786	31.92
503.987	31.92
504.187	31.64
504.387	31.55
504.587	31.35
504.787	31.73
504.987	31.78
505.187	32.12
505.387	32.26
505.587	32.2
505.786	32.02
505.986	32.06
506.186	32.4
506.386	32.68
506.586	32.72
506.786	32.67
506.986	32.47
507.186	32.72
507.386	32.57
507.585	32.54
507.785	32.29
507.985	32.55
508.185	32.51
508.384	32.48
508.584	32.41
508.784	32.62
508.984	32.7
509.183	32.59
509.383	32.5
509.583	32.4
509.782	32.37
509.982	32.7
510.182	32.67
510.381	32.86
510.581	32.78
510.781	32.8
510.98	32.58
511.18	32.59
511.379	32.75
511.579	32.64
511.778	32.67
511.978	32.76
512.177	32.59
512.377	32.66
512.576	32.48
512.776	32.48
512.975	32.59
513.175	32.66
513.374	32.65
513.573	32.55
513.773	32.68
513.972	32.66
514.172	32.75
514.371	32.83
514.57	33.06
514.77	33.28
514.969	33.28
515.168	32.96
515.367	33.18
515.567	33.26
515.766	33.35
515.965	33.41
516.164	33.54
516.364	33.59
516.563	33.59
516.762	33.24
516.961	33.14
517.16	33.12
517.359	33.34
517.559	33.21
517.758	33.03
517.957	33.07
518.156	32.87
518.355	32.91
518.554	32.99
518.753	32.9
518.952	32.92
519.151	32.82
519.35	32.9
519.549	32.99
519.748	33.04
519.947	33.32
520.146	33.38
520.345	33.7
520.544	33.81
520.743	33.87
520.942	33.93
521.141	34.09
521.339	34.23
521.538	34.24
521.737	34.14
521.936	34.03
522.135	33.78
522.333	33.77
522.532	33.56
522.731	33.47
522.93	33.29
523.129	33.26
523.327	33.4
523.526	33.49
523.725	33.49
523.923	33.32
524.122	33.35
524.321	33.49
524.519	33.47
524.718	33.53
524.917	33.63
525.115	33.74
525.314	33.83
525.512	33.77
525.711	33.78
525.909	33.73
526.108	33.88
526.306	33.89
526.505	33.92
526.703	33.84
526.902	33.72
527.1	33.72
527.299	33.64
527.497	33.56
527.696	33.48
527.894	33.54
528.092	33.44
528.291	33.39
528.489	33.46
528.688	33.4
528.886	33.44
529.084	33.46
529.283	33.42
529.481	33.44
529.679	33.51
529.877	33.6
530.076	33.52
530.274	33.74
530.472	33.8
530.67	33.84
530.869	34.01
531.067	34.06
531.265	34.33
531.463	34.37
531.661	34.47
531.859	34.59
532.057	34.7
532.255	34.82
532.454	34.82
532.652	34.89
532.85	34.82
533.048	34.7
533.246	34.74
533.444	34.64
533.642	34.71
533.84	34.67
534.038	34.55
534.236	34.49
534.434	34.51
534.632	34.52
534.83	34.62
535.027	34.78
535.225	34.85
535.423	34.95
535.621	35.02
535.819	35.09
536.017	35
536.215	35.1
536.412	35.1
536.61	35.08
536.808	35.11
537.006	35.16
537.203	35.07
537.401	35.25
537.599	35.25
537.797	35.33
537.994	35.37
538.192	35.67
538.39	35.78
538.587	35.92
538.785	36.12
538.983	36.21
539.18	36.27
539.378	36.55
539.575	36.54
539.773	36.68
539.97	36.54
540.168	36.52
540.366	36.56
540.563	36.53
540.761	36.53
540.958	36.45
541.155	36.5
541.353	36.5
541.55	36.4
541.748	36.51
541.945	36.52
542.143	36.62
542.34	36.62
542.537	36.78
542.735	36.86
542.932	37.1
543.129	37.22
543.327	37.33
543.524	37.27
543.721	37.39
543.919	37.41
544.116	37.48
544.313	37.92
544.51	38.18
544.708	38.36
544.905	38.69
545.102	38.67
545.299	38.81
545.496	38.85
545.693	39.03
545.891	39.09
546.088	39.01
546.285	39.01
546.482	38.61
546.679	38.54
546.876	38.19
547.073	38.02
547.27	37.94
547.467	37.79
547.664	37.55
547.861	37.59
548.058	37.5
548.255	37.67
548.452	37.62
548.649	37.67
548.846	37.62
549.043	37.86
549.24	38.02
549.437	37.95
549.633	37.82
549.83	37.92
550.027	37.78
550.224	37.61
550.421	37.47
550.618	37.52
550.814	37.55
551.011	37.57
551.208	37.55
551.405	37.09
551.601	36.94
551.798	37.29
551.995	37.46
552.191	37.54
552.388	37.54
552.585	37.46
552.781	37.38
552.978	37.38
553.175	37.29
553.371	36.97
553.568	37.08
553.764	37.36
553.961	37.3
554.157	37.26
554.354	37.05
554.55	37.23
554.747	37.14
554.943	37.07
555.14	37.36
555.336	37.49
555.533	37.59
555.729	37.83
555.926	37.74
556.122	37.62
556.318	37.64
556.515	37.9
556.711	37.75
556.907	37.79
557.104	38.1
557.3	37.72
557.496	37.77
557.693	37.87
557.889	37.92
558.085	37.7
558.281	37.8
558.478	37.94
558.674	37.81
558.87	37.97
559.066	38.06
559.262	37.8
559.459	37.68
559.655	37.53
559.851	37.63
560.047	37.46
560.243	37.59
560.439	37.35
560.635	37.07
560.831	37.11
561.027	37.15
561.223	37.51
561.419	37.54
561.615	37.99
561.811	38.11
562.007	37.78
562.203	37.82
562.399	37.97
562.595	38.18
562.791	38.38
562.987	38.39
563.183	38.4
563.379	38.11
563.575	38.2
563.771	37.98
563.966	38.04
564.162	38.37
564.358	38.53
564.554	38.48
564.75	38.38
564.945	38.29
565.141	38.14
565.337	38.17
565.533	38.12
565.728	37.93
565.924	37.79
566.12	38.15
566.315	37.96
566.511	37.68
566.707	37.6
566.902	37.52
567.098	37.79
567.293	38.21
567.489	38.17
567.684	38.41
567.88	38.64
568.076	39.04
568.271	38.64
568.467	38.98
568.662	39.15
568.858	39.1
569.053	39.52
569.248	39.32
569.444	39.07
569.639	39.02
569.835	38.97
570.03	39.1
570.225	38.89
570.421	38.93
570.616	38.77
570.812	38.88
571.007	38.87
571.202	38.55
571.397	38.16
571.593	38.15
571.788	37.97
571.983	38.02
572.178	38.1
572.374	38.33
572.569	38.09
572.764	38.28
572.959	38.25
573.154	38.34
573.35	38.48
573.545	38.85
573.74	38.94
573.935	39.61
574.13	39.48
574.325	39.23
574.52	39.18
574.715	39.34
574.91	39.33
575.105	39.22
575.3	39.19
575.495	38.99
575.69	39.22
575.885	39.28
576.08	38.89
576.275	38.95
576.47	39.11
576.665	39.24
576.86	39.57
577.055	39.67
577.25	39.78
577.444	39.84
577.639	40.34
577.834	40.55
578.029	40.51
578.224	40.6
578.418	40.75
578.613	40.79
578.808	40.63
579.003	40.74
579.197	40.61
579.392	40.42
579.587	40.41
579.781	40.25
579.976	40.08
580.171	40.01
580.365	40.04
580.56	39.86
580.755	39.94
580.949	39.8
581.144	39.37
581.338	39.43
581.533	39.64
581.727	40.08
581.922	40.04
582.116	39.83
582.311	39.94
582.505	40.18
582.7	40.34
582.894	40.38
583.089	40.54
583.283	40.8
583.478	40.58
583.672	41.05
583.866	40.68
584.061	41.1
584.255	40.98
584.449	41.01
584.644	41.2
584.838	41.48
585.032	41.61
585.226	41.88
585.421	41.38
585.615	41.61
585.809	41.28
586.003	41.54
586.198	41.05
586.392	41.31
586.586	41.3
586.78	41.22
586.974	41.03
587.168	40.75
587.363	40.73
587.557	41.32
587.751	41.53
587.945	41.46
588.139	41.23
588.333	41.53
588.527	41.43
588.721	41.39
588.915	41.41
589.109	41.3
589.303	41.53
589.497	41.35
589.691	41.45
589.885	40.98
590.079	41.31
590.273	41.48
590.466	41.39
590.66	41.84
590.854	42.06
591.048	42.21
591.242	42.28
591.436	42.19
591.629	42.19
591.823	42.23
592.017	42.59
592.211	42.49
592.404	42.64
592.598	42.3
592.792	41.74
592.986	41.42
593.179	41.01
593.373	40.75
593.567	40.74
593.76	40.6
593.954	40.55
594.147	40.41
594.341	40.12
594.535	40.05
594.728	40.26
594.922	40.36
595.115	40.52
595.309	40.59
595.502	40.6
595.696	40.31
595.889	40.45
596.083	40.2
596.276	40.33
596.47	40.39
596.663	40.22
596.856	40.36
597.05	40.37
597.243	40.47
597.437	40.67
597.63	40.84
597.823	41.22
598.017	41.13
598.21	41.22
598.403	41.24
598.596	41.51
598.79	41.57
598.983	41.51
599.176	41.6
599.369	41.77
599.563	41.33
599.756	41.69
599.949	41.77
600.142	42.05
600.335	41.98
600.528	41.87
600.722	42
600.915	42.38
601.108	42.38
601.301	42.83
601.494	42.44
601.687	42.58
601.88	42.39
602.073	42.33
602.266	42.11
602.459	42.16
602.652	42.08
602.845	41.9
603.038	41.42
603.231	41.52
603.424	41.14
603.617	41
603.809	40.81
604.002	41.07
604.195	40.97
604.388	41.17
604.581	41.21
604.774	41.21
604.966	41.26
605.159	41.41
605.352	41.59
605.545	41.82
605.737	42.56
605.93	42.77
606.123	42.43
606.316	42.41
606.508	42.6
606.701	42.49
606.894	42.81
607.086	42.98
607.279	43.59
607.471	43.46
607.664	43.79
607.857	43.68
608.049	44.41
608.242	44.68
608.434	45.56
608.627	46.06
608.819	47.18
609.012	47.8
609.204	48.71
609.397	49.31
609.589	50.67
609.782	51.59
609.974	52.22
610.166	52.88
610.359	54.01
610.551	54.71
610.743	55.44
610.936	55.73
611.128	56.38
611.32	56.21
611.513	56.38
611.705	55.7
611.897	54.63
612.09	54.16
612.282	53.93
612.474	53.37
612.666	52.61
612.858	51.91
613.051	51.65
613.243	50.75
613.435	50.57
613.627	49.52
613.819	49.13
614.011	49.21
614.203	49.79
614.395	49.42
614.588	49
614.78	48.54
614.972	47.96
615.164	47.44
615.356	47.05
615.548	46.46
615.74	46.45
615.932	46.34
616.124	46.51
616.315	45.7
616.507	45
616.699	44.44
616.891	44.15
617.083	43.84
617.275	43.69
617.467	44
617.659	43.98
617.85	43.82
618.042	43.51
618.234	42.97
618.426	43.01
618.618	43.27
618.809	43.42
619.001	43.22
619.193	43.52
619.384	42.95
619.576	42.76
619.768	42.73
619.959	42.91
620.151	43.05
620.343	43.58
620.534	43.55
620.726	43.63
620.917	43.8
621.109	44.14
621.301	44.31
621.492	45.07
621.684	45.02
621.875	45.29
622.067	45.42
622.258	45.72
622.45	45.14
622.641	45.49
622.832	44.94
623.024	44.82
623.215	45.31
623.407	45.1
623.598	44.96
623.789	45.04
623.981	44.65
624.172	44.66
624.363	44.41
624.555	44.55
624.746	44.48
624.937	44.78
625.129	45.02
625.32	44.71
625.511	44.5
625.702	44.61
625.893	44.46
626.085	44.61
626.276	44.26
626.467	44.09
626.658	44.12
626.849	43.98
627.04	43.98
627.231	44.03
627.422	43.98
627.614	44.11
627.805	44.2
627.996	44.58
628.187	44.73
628.378	45.12
628.569	45.18
628.76	45.56
628.951	45.79
629.142	46.14
629.332	45.95
629.523	46.38
629.714	46.3
629.905	46.11
630.096	45.95
630.287	45.85
630.478	45.72
630.669	46.56
630.859	46.07
631.05	45.49
631.241	45.36
631.432	44.74
631.623	44.41
631.813	44.52
632.004	44.42
632.195	44.24
632.385	44.46
632.576	44.34
632.767	43.51
632.957	43.61
633.148	43.79
633.339	43
633.529	43.37
633.72	43.09
633.91	43.33
634.101	43.46
634.292	43.26
634.482	43.37
634.673	43.97
634.863	44.36
635.054	44.68
635.244	44.63
635.435	45.12
635.625	45.23
635.815	45.23
636.006	45.26
636.196	45.15
636.387	45.3
636.577	44.71
636.767	44.24
636.958	44.14
637.148	44
637.338	43.74
637.529	43.94
637.719	44
637.909	44.22
638.099	44.05
638.29	44.09
638.48	44.08
638.67	44.21
638.86	43.97
639.05	44.08
639.241	44.08
639.431	44.46
639.621	44.23
639.811	44.48
640.001	44.45
640.191	44.66
640.381	44.35
640.571	44.04
640.761	44.53
640.951	44.59
641.141	44.08
641.331	43.51
641.521	43.58
641.711	43.24
641.901	42.82
642.091	42.73
642.281	42.59
642.471	42.95
642.661	43.29
642.851	43.12
643.041	42.77
643.231	43.11
643.42	43.18
643.61	43.3
643.8	43.68
643.99	43.66
644.18	43.61
644.369	43.4
644.559	43.43
644.749	42.81
644.939	42.81
645.128	43.06
645.318	43.07
645.508	43.71
645.697	43.55
645.887	43.42
646.076	43.21
646.266	43.19
646.456	43.15
646.645	43.13
646.835	43.95
647.024	43.85
647.214	44.14
647.403	44.33
647.593	44.26
647.782	43.75
647.972	44.36
648.161	44.67
648.351	44.73
648.54	44.96
648.73	45.16
648.919	45.1
649.108	45.23
649.298	44.98
649.487	44.65
649.677	44.84
649.866	44.86
650.055	44.65
650.244	44.92
650.434	44.9
650.623	44.92
650.812	44.65
651.002	44.95
651.191	44.97
651.38	45.28
651.569	45.3
651.758	45.29
651.947	45.43
652.137	45.08
652.326	44.77
652.515	45.76
652.704	46.05
652.893	46.14
653.082	45.95
653.271	45.91
653.46	46.08
653.649	46.2
653.838	45.79
654.027	45.57
654.216	46
654.405	46.34
654.594	44.89
654.783	43.69
654.972	43.38
655.161	43.39
655.35	43.49
655.539	43.2
655.728	42.72
655.916	42.47
656.105	42.81
656.294	42.98
656.483	42.67
656.672	43.04
656.86	44.42
657.049	44.42
657.238	44.25
657.427	43.98
657.615	43.98
657.804	43.91
657.993	43.81
658.181	43.75
658.37	43.39
658.559	43.59
658.747	43.71
658.936	43.05
659.125	43.08
659.313	42.86
659.502	43.15
659.69	43.44
659.879	44.03
660.067	44.62
660.256	44.92
660.444	45.36
660.633	45.29
660.821	45.34
661.01	45.13
661.198	45.15
661.387	45.52
661.575	45.04
661.763	44.09
661.952	43.67
662.14	43.62
662.328	43.72
662.517	43.53
662.705	43.71
662.893	43.77
663.082	44.14
663.27	44.05
663.458	43.83
663.646	43.79
663.834	44.32
664.023	43.94
664.211	43.92
664.399	44.03
664.587	44.05
664.775	44.13
664.963	43.62
665.152	43.64
665.34	44.16
665.528	44.55
665.716	44.77
665.904	45.07
666.092	45.33
666.28	45.13
666.468	44.31
666.656	43.69
666.844	44.28
667.032	45.27
667.22	45.13
667.408	45.46
667.596	45.76
667.784	45.71
667.971	45.6
668.159	45.47
668.347	44.71
668.535	45.27
668.723	45.38
668.911	45.29
669.098	44.92
669.286	45.78
669.474	44.98
669.662	44.9
669.849	45.05
670.037	44.86
670.225	45.44
670.413	46.17
670.6	46.36
670.788	46.58
670.976	46.54
671.163	46.68
671.351	45.98
671.538	46.56
671.726	45.97
671.913	45.67
672.101	46.43
672.289	45.92
672.476	46.12
672.664	46.64
672.851	47.26
673.039	46.55
673.226	46.33
673.413	46.34
673.601	45.89
673.788	46.14
673.976	46.56
674.163	46.38
674.35	46.71
674.538	46.27
674.725	45.2
674.912	44.34
675.1	45.15
675.287	45.56
675.474	46.04
675.662	46.19
675.849	46.12
676.036	45.91
676.223	45.95
676.411	45.37
676.598	45.4
676.785	46.04
676.972	46.29
677.159	45.78
677.346	45.08
677.533	44.42
677.721	44.66
677.908	44.51
678.095	44.95
678.282	44.35
678.469	45.13
678.656	45.71
678.843	45.54
679.03	45.64
679.217	45.67
679.404	45.84
679.591	46.13
679.778	45.83
679.964	45.75
680.151	45.52
680.338	45.68
680.525	44.94
680.712	44.32
680.899	44.26
681.086	44.02
681.272	43.94
681.459	44.54
681.646	44.16
681.833	43.93
682.02	44.39
682.206	44.46
682.393	44.36
682.58	45.3
682.766	45.48
682.953	45.06
683.14	44.98
683.326	44.57
683.513	44.73
683.7	44.68
683.886	44.72
684.073	44.4
684.259	44.49
684.446	45.23
684.632	44.76
684.819	44.66
685.005	44.99
685.192	45.17
685.378	46.01
685.565	45.05
685.751	46.07
685.938	46.01
686.124	45.98
686.31	45.5
686.497	45.27
686.683	44.58
686.87	44.96
687.056	44.96
687.242	45.47
687.429	45.46
687.615	44.81
687.801	43.7
687.987	44.58
688.174	44.92
688.36	45.36
688.546	45.26
688.732	46.51
688.918	46.3
689.105	47.16
689.291	46.93
689.477	46.97
689.663	47.62
689.849	48.22
690.035	47.47
690.221	47.15
690.407	47.06
690.593	46.72
690.779	46.33
690.965	46.66
691.151	45.78
691.337	45.84
691.523	45.49
691.709	45.14
691.895	45.95
692.081	46.71
692.267	46.62
692.453	46.99
692.639	47.38
692.825	48.42
693.011	49.11
693.196	49.86
693.382	49.72
693.568	49.02
693.754	50
693.94	48.9
694.125	49.11
694.311	48.64
694.497	47.96
694.682	48.09
694.868	47.48
695.054	47.04
695.239	46.44
695.425	47.16
695.611	47.78
695.796	47.74
695.982	47.77
696.168	47.48
696.353	47.76
696.539	47.98
696.724	47.5
696.91	46.7
697.095	46.11
697.281	45.54
697.466	44.93
697.652	44.83
697.837	44.4
698.023	44.11
698.208	43.49
698.393	43.55
698.579	43.24
698.764	43.48
698.949	43.22
699.135	43.28
699.32	43.99
699.505	44.26
699.691	44.28
699.876	44.16
700.061	43.94
700.246	44.36
700.432	44.46
700.617	44.29
700.802	44.57
700.987	45.32
701.172	46.65
701.358	46.44
701.543	46.72
701.728	47.06
701.913	48.27
702.098	49.53
702.283	50.14
702.468	50.54
702.653	51.99
702.838	52.66
703.023	53.21
703.208	52.28
703.393	51.58
703.578	51.64
703.763	51.99
703.948	52.04
704.133	53.3
704.318	51.97
704.503	51.34
704.688	50.92
704.873	49.94
705.057	50.03
705.242	50.8
705.427	51.79
705.612	51.84
705.797	50.34
705.981	50.38
706.166	49.33
706.351	50.71
706.536	51.26
706.72	51.8
706.905	52
707.09	52.42
707.274	51.25
707.459	51.46
707.644	51.42
707.828	52.15
708.013	51.54
708.197	50.99
708.382	50.97
708.567	50.66
708.751	49.56
708.936	49.2
709.12	48.22
709.305	48.9
709.489	49.01
709.673	49.14
709.858	49.6
710.042	49.92
710.227	50.76
710.411	50.72
710.596	51.11
710.78	51.5
710.964	52.08
711.149	52.4
711.333	51.71
711.517	51.15
711.702	50.69
711.886	50.18
712.07	50.3
712.254	49.52
712.438	48.79
712.623	48.54
712.807	47.76
712.991	47.97
713.175	48.09
713.359	47.8
713.544	47.79
713.728	47.7
713.912	47.93
714.096	46.83
714.28	47.23
714.464	47.24
714.648	47.02
714.832	47.25
715.016	46.98
715.2	46.15
715.384	46.54
715.568	46.65
715.752	45.97
715.936	45.05
716.12	45.8
716.304	46.28
716.488	46.21
716.671	46.22
716.855	46.94
717.039	46.78
717.223	47.5
717.407	47.6
717.59	47.17
717.774	48.57
717.958	49.87
718.142	48.72
718.325	47.44
718.509	48.33
718.693	48.83
718.877	47.38
719.06	47.12
719.244	47.17
719.428	47.43
719.611	47.85
719.795	47.82
719.978	47.79
720.162	48.69
720.345	49.71
720.529	49.47
720.713	49.45
720.896	49.74
721.08	50.45
721.263	50.19
721.446	50.16
721.63	51.65
721.813	51.73
721.997	51.4
722.18	51.57
722.364	51.12
722.547	50.95
722.73	51.17
722.914	51.91
723.097	52.38
723.28	52.6
723.464	52.91
723.647	52.16
723.83	50.39
724.013	51.18
724.197	51.28
724.38	51.34
724.563	50.91
724.746	49.61
724.929	48.88
725.112	47.51
725.296	47.23
725.479	47.3
725.662	46.17
725.845	47.58
726.028	46.93
726.211	46.7
726.394	46.78
726.577	46.38
726.76	46.35
726.943	47.09
727.126	46.6
727.309	46.47
727.492	45.66
727.675	46.3
727.858	45.86
728.041	45.65
728.224	47.01
728.407	46.85
728.589	47.16
728.772	47.09
728.955	47.6
729.138	48.57
729.321	48.12
729.503	48.98
729.686	48.98
729.869	49.42
730.052	50.12
730.234	49.5
730.417	48.96
730.6	49.95
730.782	50.33
730.965	49.67
731.148	48.2
731.33	49.41
731.513	48.52
731.695	48.08
731.878	48
732.061	48
732.243	47.49
732.426	48.08
732.608	47.56
732.791	48.66
732.973	48.83
733.156	49.73
733.338	48.34
733.52	49.66
733.703	49.62
733.885	47.95
734.068	47.28
734.25	47.54
734.432	46.62
734.615	47.36
734.797	46.55
734.979	46.18
735.162	47.87
735.344	48.58
735.526	48.14
735.708	49.47
735.891	51.83
736.073	51.54
736.255	52.31
736.437	54.01
736.619	54.49
736.802	53.87
736.984	54.27
737.166	54.12
737.348	53.67
737.53	52.27
737.712	50.61
737.894	50.49
738.076	51.15
738.258	50.6
738.44	51.1
738.622	50.42
738.804	50.82
738.986	50.15
739.168	49.58
739.35	50.06
739.532	50.87
739.714	51.88
739.896	50.89
740.078	50.97
740.259	49.57
740.441	49.15
740.623	48.22
740.805	48.43
740.987	48.75
741.168	47.59
741.35	47.13
741.532	47.17
741.714	46.47
741.895	47.48
742.077	48.93
742.259	50.7
742.44	50.22
742.622	49.49
742.804	49.56
742.985	48.64
743.167	49.6
743.348	51.22
743.53	52.52
743.711	53.31
743.893	55.25
744.075	54.32
744.256	52.52
744.438	51.47
744.619	53.43
744.8	53.79
744.982	57.19
745.163	57.61
745.345	55.61
745.526	55.15
745.707	54.98
745.889	51.85
746.07	50.89
746.252	53.25
746.433	53.86
746.614	54.2
746.795	53.66
746.977	52.06
747.158	51.07
747.339	52.6
747.52	51.54
747.702	50.55
747.883	51.02
748.064	50.77
748.245	50.02
748.426	49.89
748.607	47.9
748.788	48.96
748.97	49.31
749.151	50.27
749.332	51.92
749.513	53.41
749.694	55.45
749.875	54.96
750.056	55.45
750.237	54.31
750.418	55.07
750.599	54.74
750.78	55.42
750.96	54.13
751.141	52.96
751.322	49.33
751.503	45.6
751.684	45.28
751.865	45.97
752.046	46.8
752.226	47.23
752.407	46.96
752.588	47.75
752.769	45.84
752.949	46.65
753.13	46.61
753.311	47.2
753.492	49.12
753.672	49.7
753.853	48.88
754.034	48.37
754.214	49.08
754.395	48.53
754.575	49.29
754.756	50.03
754.937	49.28
755.117	50.66
755.298	52.4
755.478	55.56
755.659	55.62
755.839	56.17
756.02	54.99
756.2	53.55
756.381	53.95
756.561	51.5
756.741	51.43
756.922	52.1
757.102	52.5
757.283	52.63
757.463	50.68
757.643	50.17
757.823	51.47
758.004	52.49
758.184	54.53
758.364	54.79
758.545	55.89
758.725	55.84
758.905	55.3
759.085	54.09
759.265	54.81
759.446	53.99
759.626	54
759.806	50.95
759.986	51.44
760.166	49.42
760.346	49.85
760.526	52.45
760.706	52.48
760.886	54.68
761.066	54.33
761.246	53.85
761.426	53.33
761.606	52.54
761.786	54.21
761.966	53.22
762.146	53.14
762.326	52.68
762.506	51.84
762.686	51.6
762.866	49.73
763.046	49.57
763.225	49.31
763.405	49.02
763.585	48.59
763.765	49.68
763.945	48.88
764.124	49.15
764.304	48.78
764.484	47.82
764.664	47.56
764.843	48.31
765.023	49.15
765.203	49.41
765.382	51.65
765.562	51.5
765.741	50.8
765.921	52.02
766.101	52.7
766.28	52.66
766.46	54.23
766.639	55.43
766.819	55.22
766.998	54.54
767.178	53.29
767.357	51.68
767.537	53.84
767.716	52.82
767.896	52.94
768.075	52.99
768.254	53.2
768.434	52.75
768.613	51.45
768.792	53.41
768.972	54.24
769.151	53.84
769.33	55.71
769.51	54.53
769.689	55.89
769.868	56.7
770.047	57.86
770.226	58.32
770.406	57.25
770.585	59.28
770.764	59.3
770.943	60.83
771.122	61.78
771.301	59.58
771.48	59.62
771.66	60.44
771.839	59.42
772.018	59.06
772.197	58.47
772.376	58.99
772.555	55.5
772.734	54.96
772.913	50.07
773.092	50.51
773.271	52.16
773.449	52.05
773.628	51.55
773.807	52.94
773.986	52.63
774.165	53.01
774.344	51.79
774.523	54.25
774.701	54.84
774.88	58.24
775.059	56.91
775.238	56.34
775.417	58.24
775.595	59.45
775.774	58.13
775.953	57.76
776.131	56.98
776.31	59.18
776.489	59.53
776.667	61.72
776.846	61.17
777.025	63.73
777.203	63.35
777.382	63.24
777.56	62.45
777.739	61.32
777.917	59.73
778.096	61.22
778.274	58.81
778.453	55.22
778.631	53.87
778.81	54.06
778.988	52.37
779.166	51.27
779.345	50.79
779.523	49.12
779.702	51.12
779.88	52.25
780.058	50.61
780.237	52.05
780.415	55.49
780.593	53.16
780.771	53.29
780.95	55.24
781.128	55.98
781.306	57.28
781.484	57.5
781.662	56.78
781.841	56.8
782.019	58.86
782.197	58.86
782.375	57.13
782.553	57.21
782.731	57.43
782.909	56.9
783.087	57.9
783.265	55.35
783.443	56.1
783.621	56.67
783.799	58.12
783.977	60.78
784.155	61.77
784.333	62.18
784.511	65.59
784.689	65.49
784.867	64.49
785.045	63.96
785.223	66.13
785.4	66.05
785.578	65.52
785.756	62.68
785.934	60.15
786.112	59.88
786.289	59.54
786.467	54.6
786.645	56.39
786.823	56.23
787	57.04
787.178	56.91
787.356	55.23
787.533	56.02
787.711	58.17
787.889	57.11
788.066	55.91
788.244	56.98
788.421	57.64
788.599	55.11
788.776	54.61
788.954	54.05
789.131	53.06
789.309	54.36
789.486	55.62
789.664	53.99
789.841	52.27
790.019	52.27
790.196	52.2
790.373	53.71
790.551	53.25
790.728	54.32
790.906	52.71
791.083	50.96
791.26	51.29
791.437	50.58
791.615	52.75
791.792	53.59
791.969	54.36
792.146	55.59
792.324	55.53
792.501	58.6
792.678	58.22
792.855	60.36
793.032	63.82
793.209	61.84
793.387	60.81
793.564	60.57
793.741	65.28
793.918	63.35
794.095	62.94
794.272	59.83
794.449	58.43
794.626	60.29
794.803	58.82
794.98	59.41
795.157	60.06
795.334	59.57
795.511	57.8
795.688	54.7
795.864	55.44
796.041	53.84
796.218	54.52
796.395	54.08
796.572	54.74
796.749	54.11
796.925	51.16
797.102	55.07
797.279	54.07
797.456	56.94
797.632	58.07
797.809	59.85
797.986	59.41
798.162	61.58
798.339	60.56
798.516	55.74
798.692	58.36
798.869	58.93
799.046	54.56
799.222	57.07
799.399	55.16
799.575	52.95
799.752	51.17
799.928	52.52
800.105	53.34
800.281	57.58
800.458	60.3
800.634	59.31
800.811	61.42
800.987	62.77
801.163	62.29
801.34	60.7
801.516	62.82
801.692	63.71
801.869	63.89
802.045	61.75
802.221	57.43
802.398	58.76
802.574	55.41
802.75	54.28
802.926	56.24
803.103	57.03
803.279	56.85
803.455	57.59
803.631	58.81
803.807	61.56
803.983	60.1
804.16	63.2
804.336	59.76
804.512	65.62
804.688	65.01
804.864	65.39
805.04	63.11
805.216	65.92
805.392	62.32
805.568	60.8
805.744	53.75
805.92	55.37
806.096	56.52
806.272	58.08
806.448	56.33
806.623	58.2
806.799	57.26
806.975	58.6
807.151	54.98
807.327	55.8
807.503	56.71
807.678	59.4
807.854	60.31
808.03	60.8
808.206	61.43
808.381	61.78
808.557	59.19
808.733	56.07
808.908	56.42
809.084	59.91
809.26	62.04
809.435	63.58
809.611	64.27
809.787	69.76
809.962	67.52
810.138	68.3
810.313	66.45
810.489	68.82
810.664	73
810.84	73.57
811.015	72.69
811.191	70.6
811.366	69.54
811.542	69.03
811.717	64.06
811.892	60.37
812.068	61.19
812.243	60.41
812.419	61
812.594	59.5
812.769	60.18
812.944	58.49
813.12	61.27
813.295	59.13
813.47	60.17
813.645	61.72
813.821	64.31
813.996	65.01
814.171	70.83
814.346	70.92
814.521	70.55
814.697	67.45
814.872	70.65
815.047	66.13
815.222	66.12
815.397	68.05
815.572	66.1
815.747	66.38
815.922	64.88
816.097	60.26
816.272	62.18
816.447	64.09
816.622	67.56
816.797	68.4
816.972	68.32
817.147	71
817.322	66.64
817.496	69.32
817.671	69.42
817.846	68.34
818.021	74.16
818.196	70.39
818.371	70.3
818.545	67.3
818.72	64.86
818.895	63.9
819.069	63.47
819.244	63.71
819.419	59.57
819.594	58.35
819.768	56.18
819.943	51.47
820.117	51.82
820.292	49.74
820.467	47.64
820.641	47.34
820.816	47.2
820.99	46.14
821.165	46.29
821.339	46.43
821.514	46.03
821.688	45.43
821.863	45.35
822.037	44.7
822.212	44.3
822.386	45.12
822.56	45.31
822.735	45.27
822.909	44.98
823.084	45.22
823.258	45.42
823.432	45.82
823.606	46.3
823.781	46.65
823.955	45.93
824.129	46.69
824.303	44.81
824.478	44.48
824.652	44.51
824.826	45.12
825	44.09
825.174	42.72
825.348	42.55
825.523	41.48
825.697	41.66
825.871	43.25
826.045	42.08
826.219	43.97
826.393	43.77
826.567	44.62
826.741	44.06
826.915	44.82
827.089	46.49
827.263	46.24
827.437	47.47
827.611	47.11
827.784	47.75
827.958	49.48
828.132	50.32
828.306	50.3
828.48	51.38
828.654	53.91
828.827	53.4
829.001	53.78
829.175	52.53
829.349	53.1
829.522	54.44
829.696	53.96
829.87	54.16
830.044	54.03
830.217	56.38
830.391	54.42
830.565	54.52
830.738	54.89
830.912	53.05
831.085	53.6
831.259	54.5
831.432	52.21
831.606	55.51
831.779	53.92
831.953	54.47
832.126	55.39
832.3	55.31
832.473	51.55
832.647	52.24
832.82	53.55
832.994	53.27
833.167	53.68
833.34	54.46
833.514	53.24
833.687	53.76
833.86	53.09
834.034	51.12
834.207	52.88
834.38	53.66
834.553	54.47
834.727	52.97
834.9	54.56
835.073	55.94
835.246	57.55
835.419	58.04
835.593	59.4
835.766	58.56
835.939	59.93
836.112	61.83
836.285	64.49
836.458	63.53
836.631	67.87
836.804	70.73
836.977	66.82
837.15	65.82
837.323	62.45
837.496	61.58
837.669	67
837.842	68.99
838.015	64.41
838.188	61.43
838.361	63.19
838.533	60.55
838.706	58.03
838.879	60.36
839.052	59.77
839.225	64.74
839.398	63.12
839.57	63
839.743	59.72
839.916	58.35
840.088	60.61
840.261	59.67
840.434	56.35
840.607	56.08
840.779	54.79
840.952	54.3
841.124	54.03
841.297	57.21
841.47	57.14
841.642	55.77
841.815	60.14
841.987	60.2
842.16	59.96
842.332	66.36
842.505	72.71
842.677	71.48
842.85	76.42
843.022	74.52
843.194	74.61
843.367	74.47
843.539	74.23
843.712	73.11
843.884	74.24
844.056	73.58
844.229	77.59
844.401	74.61
844.573	76.22
844.745	73.48
844.918	74.33
845.09	80.66
845.262	80.87
845.434	86.22
845.606	86.42
845.779	93.03
845.951	93.64
846.123	95.57
846.295	84.43
846.467	97.98
846.639	93.49
846.811	98.97
846.983	103.84
847.155	107.17
847.327	107.34
847.499	113.07
847.671	108.09
847.843	99.19
848.015	90.74
848.187	96.89
848.359	93.8
848.531	95.57
848.703	97.74
848.875	85.68
849.047	83.77
849.218	82.86
849.39	83.19
849.562	82.04
849.734	86.75
849.905	86.25
850.077	88
850.249	81.5
850.421	87.8
850.592	86.51
850.764	85.13
850.936	87.44
851.107	95.75
851.279	95.92
851.451	89.13
851.622	97.29
851.794	98.81
851.965	101.84
852.137	107.32
852.308	103
852.48	101.79
852.651	102.24
852.823	94.2
852.994	87.07
853.166	84.19
853.337	89.18
853.509	84.68
853.68	89.6
853.851	87.35
854.023	84.27
854.194	84.31
854.365	83.73
854.537	84.25
854.708	93.25
854.879	101.27
855.05	105.16
855.222	110.73
855.393	105.34
855.564	95.57
855.735	103.31
855.906	111.18
856.078	102.94
856.249	101.94
856.42	100.06
856.591	96.38
856.762	95.77
856.933	105.62
857.104	99.03
857.275	98.8
857.446	98.92
857.617	87.55
857.788	81.16
857.959	84.99
858.13	90.14
858.301	89
858.472	92.44
858.643	86.84
858.814	68.7
858.985	71.7
859.155	81.54
859.326	75.45
859.497	76.78
859.668	74.89
859.839	76.83
860.009	76.41
860.18	80.57
860.351	80.66
860.522	84.6
860.692	89.19
860.863	89.03
861.034	83.96
861.204	92.04
861.375	95.98
861.546	95.65
861.716	103.14
861.887	114.88
862.057	120.78
862.228	122.13
862.398	124.53
862.569	122.12
862.739	130.22
862.91	132.68
863.08	141.85
863.251	141.08
863.421	152.03
863.592	149.12
863.762	126.4
863.932	116.13
864.103	110.78
864.273	115.08
864.443	111.43
864.614	105.7
864.784	108
864.954	96.93
865.125	88.68
865.295	83.2
865.465	76.63
865.635	77.55
865.805	83.77
865.976	86.61
866.146	74.89
866.316	76.62
866.486	72.3
866.656	72.88
866.826	67.86
866.996	66.51
867.166	60.34
867.336	66.71
867.506	69.76
867.676	69.11
867.846	73.31
868.016	71.69
868.186	77.44
868.356	78.81
868.526	80.76
868.696	90.28
868.866	97.17
869.036	110.63
869.206	106.68
869.376	105.04
869.545	98.29
869.715	95.57
869.885	109.04
870.055	97.24
870.224	95.89
870.394	89.03
870.564	90.99
870.734	89.72
870.903	88.22
871.073	78.84
871.243	76.18
871.412	78.43
871.582	68.89
871.751	62.6
871.921	72.51
872.091	87.32
872.26	93.52
872.43	91.56
872.599	97.25
872.769	93.66
872.938	101.49
873.108	105.89
873.277	99.34
873.446	101.12
873.616	110.76
873.785	96.88
873.955	95.83
874.124	105.31
874.293	108.34
874.463	105.71
874.632	108.82
874.801	102.48
874.971	107.02
875.14	112.28
875.309	119.72
875.478	110.37
875.647	130.16
875.817	139.29
875.986	129.41
876.155	138.27
876.324	130.51
876.493	134.57
876.662	148.44
876.831	139.35
877	157.55
877.17	148.17
877.339	148.97
877.508	136.65
877.677	129.98
877.846	133.47
878.015	118.29
878.184	123.63
878.352	116.69
878.521	101.15
878.69	97.49
878.859	81.22
879.028	73.62
879.197	71
879.366	71.75
879.534	69.06
879.703	68.28
879.872	67.83
880.041	63.48
880.21	61.98
880.378	59.66
880.547	62.21
880.716	64.6
880.884	64.93
881.053	61.64
881.222	59.83
881.39	58.34
881.559	56.64
881.727	56.55
881.896	56.47
882.065	54.29
882.233	54.85
882.402	53.63
882.57	52.65
882.739	52.41
882.907	51.11
883.076	51.62
883.244	51.66
883.412	51.4
883.581	49.49
883.749	48.97
883.918	49.42
884.086	53.75
884.254	53.28
884.423	51.2
884.591	52.24
884.759	51.3
884.927	54.74
885.096	58
885.264	62.53
885.432	66.53
885.6	71.14
885.769	71.75
885.937	65.95
886.105	75.24
886.273	85.85
886.441	82.21
886.609	91.53
886.777	80.48
886.945	69.88
887.113	60.32
887.281	62.64
887.449	65.53
887.617	67.06
887.785	68.99
887.953	62.1
888.121	63.01
888.289	67.38
888.457	70.06
888.625	78.38
888.793	82.43
888.961	85.89
889.129	80.53
889.296	76.56
889.464	80.34
889.632	79.07
889.8	78.44
889.967	72.42
890.135	71.63
