Data from JASIL_2997_Reflection_02.txt Node
Date: Mon Nov 09 09:56:31 EST 2015
User: Geneva
Spectrometer: USB4E03002
Autoset integration time: false
Trigger mode: 4
Integration Time (sec): 1.000000E-1
Scans to average: 10
Electric dark correction enabled: false
Nonlinearity correction enabled: false
Boxcar width: 5
Stray light correction enabled: false
XAxis mode: Wavelengths
Stop averaging: false
Number of Pixels in Spectrum: 3648
>>>>>Begin Spectral Data<<<<<
177.575	65.93
177.794	52.79
178.014	44.59
178.233	34.18
178.452	33.18
178.672	35.84
178.891	13.75
179.11	-27.94
179.33	-75.32
179.549	-104.59
179.768	-142.82
179.987	-107.75
180.207	-42.43
180.426	-39.87
180.645	-46.92
180.864	-43.31
181.084	-45.41
181.303	-40.81
181.522	-29.67
181.741	-8.64
181.96	6.15
182.179	25.3
182.398	7
182.618	18.17
182.837	5.42
183.056	39.55
183.275	40.7
183.494	68.98
183.713	97.01
183.932	107.76
184.151	115.63
184.37	84.27
184.589	66.79
184.808	66.67
185.027	47.61
185.246	34.36
185.465	18.88
185.684	20.89
185.903	4.14
186.122	-1.95
186.341	-35.02
186.56	-140.66
186.779	-46.48
186.998	-28.96
187.216	9.24
187.435	11.48
187.654	20.64
187.873	12.55
188.092	-8.67
188.311	-29.11
188.53	-44.99
188.748	-19.28
188.967	-17.09
189.186	-55.11
189.405	-65.22
189.623	-59.59
189.842	-49.76
190.061	-64.47
190.28	-61.09
190.498	-82.47
190.717	-62.04
190.936	-62.18
191.154	9.84
191.373	3.47
191.592	14.34
191.81	48.94
192.029	-99.31
192.248	-295.27
192.466	-126.88
192.685	-84.35
192.904	-20.18
193.122	-58.62
193.341	-129.11
193.559	-157
193.778	-163.58
193.996	-76.43
194.215	-88.15
194.433	-19.47
194.652	16.83
194.87	29.38
195.089	-58.69
195.307	-106.35
195.526	-23.45
195.744	19.11
195.963	-29.77
196.181	-67.34
196.399	-90.39
196.618	-76.6
196.836	-109.57
197.055	-115.69
197.273	-119.65
197.491	-57.06
197.71	-57.35
197.928	-106.47
198.146	-102.36
198.365	-87.23
198.583	-14.29
198.801	-10.64
199.019	-48.89
199.238	-73.15
199.456	-53.23
199.674	-74.31
199.892	-63.08
200.111	-166.46
200.329	-172.7
200.547	-101.15
200.765	-103.49
200.983	-207.09
201.202	-608.7
201.42	-500.84
201.638	-191.04
201.856	-538.03
202.074	478.38
202.292	-14.63
202.51	133
202.728	92.46
202.946	94.16
203.165	25.29
203.383	5.73
203.601	5.94
203.819	-29.07
204.037	-50.41
204.255	-26.8
204.473	-27.87
204.691	-73.06
204.909	-143.71
205.127	-91.1
205.345	-22.71
205.562	-157.3
205.78	-53.12
205.998	-31.4
206.216	-63.25
206.434	-72.05
206.652	-77.78
206.87	-97.89
207.088	-143.75
207.306	-118.85
207.523	-161.48
207.741	-130.06
207.959	-44.53
208.177	-88.93
208.395	-49.47
208.612	-12.54
208.83	-8.16
209.048	14.88
209.266	-16.15
209.483	14.32
209.701	85.22
209.919	64.01
210.136	9.3
210.354	0
210.572	-21.9
210.79	-48.84
211.007	24.47
211.225	42.14
211.442	48.18
211.66	68.03
211.878	77.3
212.095	25.9
212.313	24.55
212.53	33.16
212.748	36.34
212.966	47.89
213.183	44.11
213.401	34.94
213.618	35.25
213.836	35.43
214.053	30.27
214.271	31.97
214.488	50.37
214.705	51.34
214.923	53.59
215.14	57.94
215.358	39.06
215.575	54.66
215.793	73.81
216.01	65.2
216.227	48.22
216.445	84.35
216.662	32.08
216.879	25.64
217.097	12.63
217.314	27.49
217.531	-5.81
217.749	7.47
217.966	25.51
218.183	36.12
218.4	-7.44
218.618	50
218.835	-5.05
219.052	-87.14
219.269	-149.12
219.487	-81.87
219.704	-542.86
219.921	485.96
220.138	192.31
220.355	267.12
220.572	0
220.79	-654.55
221.007	-242.42
221.224	-55.15
221.441	29.25
221.658	3.97
221.875	36.14
222.092	29.13
222.309	19.03
222.526	8.28
222.743	16.19
222.96	6.98
223.177	14.55
223.394	16.59
223.611	-8.26
223.828	-89.68
224.045	-56.62
224.262	-28.8
224.479	-28.69
224.696	-26.65
224.913	-35.48
225.13	-53.49
225.347	-25.79
225.564	-24.38
225.781	-21.11
225.997	-27.89
226.214	1.7
226.431	3.78
226.648	-6.45
226.865	4.04
227.082	-0.58
227.298	-0.75
227.515	2.65
227.732	-6.36
227.949	-9.04
228.165	-7.26
228.382	3.6
228.599	-1.83
228.816	-0.23
229.032	-2.52
229.249	-1.55
229.466	1.03
229.682	2.77
229.899	-0.3
230.116	-0.68
230.332	-11.2
230.549	1.02
230.765	-36.09
230.982	-30.87
231.199	-29.06
231.415	0.09
231.632	-14.39
231.848	-13.33
232.065	-7.95
232.281	-15.65
232.498	-3.91
232.714	18.05
232.931	7.89
233.147	20.34
233.364	26.67
233.58	24.29
233.797	18.82
234.013	9.57
234.23	0.32
234.446	6.8
234.662	16.84
234.879	12.73
235.095	10.02
235.312	9.88
235.528	3.65
235.744	5.71
235.961	6.29
236.177	3.07
236.393	16.09
236.61	16.83
236.826	2.67
237.042	9.36
237.258	10.27
237.475	10.81
237.691	10.24
237.907	15.06
238.123	-2.95
238.339	-6.98
238.556	-6.61
238.772	-27.86
238.988	-19.17
239.204	-10.52
239.42	-13.32
239.636	1.89
239.853	2.86
240.069	-1.12
240.285	0.5
240.501	9.22
240.717	6.72
240.933	6.92
241.149	8.65
241.365	11.25
241.581	11.31
241.797	9.87
242.013	3.74
242.229	1.94
242.445	6.86
242.661	8.2
242.877	4.97
243.093	2.78
243.309	-2.13
243.525	0.46
243.741	-0.34
243.957	0.28
244.173	2.63
244.388	3.01
244.604	4.72
244.82	3.15
245.036	3.8
245.252	6.89
245.468	11.91
245.683	14.1
245.899	16.15
246.115	15.46
246.331	14.98
246.547	11.66
246.762	12.14
246.978	12.7
247.194	13.93
247.409	14.42
247.625	12.15
247.841	12.6
248.057	12.05
248.272	10.69
248.488	9.1
248.703	9.65
248.919	10.21
249.135	2.47
249.35	-2.07
249.566	-3.11
249.782	-5.59
249.997	-7.28
250.213	-14.28
250.428	-10.95
250.644	-13.27
250.859	-8.55
251.075	-8.93
251.29	-5.79
251.506	2.18
251.721	6.8
251.937	9.12
252.152	4.33
252.368	9.68
252.583	12.7
252.798	14.66
253.014	22.2
253.229	15.47
253.445	9.77
253.66	5.19
253.875	1.05
254.091	-2.26
254.306	-5.64
254.521	10.6
254.737	10.7
254.952	12.04
255.167	4.73
255.383	-2.25
255.598	0.53
255.813	5.63
256.028	13.72
256.244	7.23
256.459	6.45
256.674	8.3
256.889	5.53
257.104	2.28
257.32	1.75
257.535	6.76
257.75	8.4
257.965	8.49
258.18	8.59
258.395	7.97
258.61	10.69
258.826	10.38
259.041	8.49
259.256	5.63
259.471	6.55
259.686	7.07
259.901	5.79
260.116	2.77
260.331	-0.23
260.546	-0.91
260.761	-2.22
260.976	-4.35
261.191	-5.33
261.406	-6.46
261.621	-1.28
261.836	-2.06
262.05	-1.99
262.265	0.81
262.48	6.75
262.695	9.21
262.91	11.28
263.125	11.32
263.34	11.72
263.555	13.53
263.769	15.6
263.984	18.04
264.199	14.02
264.414	11.96
264.629	7.76
264.843	4.8
265.058	3.2
265.273	2
265.488	3.39
265.702	0.44
265.917	-0.31
266.132	-0.68
266.346	-4.53
266.561	1.1
266.776	-0.29
266.99	-0.94
267.205	-0.24
267.42	3.36
267.634	3.26
267.849	1.79
268.063	4.03
268.278	3.84
268.492	5.8
268.707	9.12
268.922	10.34
269.136	9.56
269.351	9.5
269.565	12.72
269.78	10.69
269.994	11.18
270.209	10.44
270.423	8.21
270.637	9.57
270.852	9.41
271.066	6.92
271.281	6.15
271.495	7.67
271.709	9.38
271.924	6.22
272.138	6.14
272.353	5.5
272.567	6.3
272.781	8.36
272.996	7.76
273.21	6.41
273.424	5.04
273.638	1.65
273.853	1.89
274.067	4.26
274.281	3.76
274.495	2.26
274.71	3.32
274.924	3.3
275.138	4.23
275.352	5.94
275.566	5.93
275.781	7.6
275.995	10.02
276.209	10.68
276.423	6.29
276.637	5.33
276.851	7.54
277.065	5.24
277.279	3.38
277.493	0.62
277.707	-0.8
277.921	-3.04
278.135	-5.22
278.349	-9.15
278.563	-11.8
278.777	-9.84
278.991	-5.94
279.205	-6.41
279.419	-5.49
279.633	-6.63
279.847	-5.5
280.061	-8.33
280.275	-2.19
280.489	0.6
280.703	1.72
280.917	2.16
281.131	2.02
281.344	3.39
281.558	3.41
281.772	4.23
281.986	7.24
282.2	6.14
282.414	7.65
282.627	5.37
282.841	6.07
283.055	6.49
283.269	8.73
283.482	10.56
283.696	7.35
283.91	7.81
284.123	6.26
284.337	5.96
284.551	7.95
284.764	8.65
284.978	8.81
285.192	7.35
285.405	6.97
285.619	3.17
285.833	1.67
286.046	0.73
286.26	-2.12
286.473	-0.3
286.687	-2.5
286.9	-2.25
287.114	-4.41
287.327	-3.59
287.541	-3.02
287.754	-3.72
287.968	0.39
288.181	-1.36
288.395	-2.32
288.608	-1.98
288.822	-2.21
289.035	-0.37
289.248	-2.37
289.462	-1.32
289.675	0.18
289.889	-1.6
290.102	-0.02
290.315	0.15
290.529	2.35
290.742	4.94
290.955	6.51
291.169	3.28
291.382	0.49
291.595	0.99
291.808	2.01
292.022	1.26
292.235	4.46
292.448	7.24
292.661	2.22
292.875	-0.06
293.088	0.46
293.301	2.53
293.514	5
293.727	7.72
293.94	8.77
294.153	8.63
294.367	5.98
294.58	3.03
294.793	-0.26
295.006	-0.19
295.219	2.54
295.432	1.46
295.645	0.69
295.858	0.28
296.071	-0.97
296.284	-1.67
296.497	-3.93
296.71	-2.5
296.923	-0.23
297.136	0.28
297.349	5.46
297.562	5.15
297.775	7.17
297.988	8.65
298.201	10.42
298.414	11.61
298.626	12.91
298.839	15.38
299.052	16.6
299.265	17.75
299.478	17.13
299.691	14.91
299.903	15.12
300.116	12.04
300.329	9.29
300.542	8.5
300.755	9.32
300.967	7.77
301.18	7.9
301.393	6.88
301.605	6.27
301.818	6.4
302.031	7.85
302.243	5.83
302.456	7.7
302.669	9.11
302.881	8.78
303.094	8.36
303.307	9.5
303.519	8.58
303.732	6.21
303.944	4.07
304.157	5.3
304.37	3.3
304.582	3.18
304.795	5.32
305.007	6.02
305.22	4.57
305.432	1.76
305.645	0.38
305.857	1.3
306.069	2.99
306.282	5.7
306.494	6.4
306.707	4.06
306.919	4.89
307.132	3.6
307.344	0.98
307.556	2.48
307.769	5.45
307.981	5.98
308.193	3.7
308.406	6
308.618	5.92
308.83	7.79
309.043	12.2
309.255	13.07
309.467	11.6
309.679	12.03
309.892	12.52
310.104	12.48
310.316	11.03
310.528	13.57
310.74	12.78
310.953	13.14
311.165	12.69
311.377	10.71
311.589	8.98
311.801	11.07
312.013	13.78
312.225	14.59
312.437	14.85
312.649	16.46
312.862	13.68
313.074	13.75
313.286	13.72
313.498	11.31
313.71	10.39
313.922	11.52
314.134	11.92
314.346	9.22
314.558	7.04
314.77	5.18
314.982	6.81
315.193	9.24
315.405	7.24
315.617	5.78
315.829	7.14
316.041	4.88
316.253	3.33
316.465	0.75
316.677	2.23
316.888	4.49
317.1	4.28
317.312	1.4
317.524	3.91
317.736	6.15
317.947	5.91
318.159	4.44
318.371	7.8
318.583	8.14
318.794	11.03
319.006	10.64
319.218	8.72
319.43	9.59
319.641	14.88
319.853	13.65
320.064	11.89
320.276	12.69
320.488	14.27
320.699	13.74
320.911	13.09
321.123	11.35
321.334	10.84
321.546	9.34
321.757	6.88
321.969	3.47
322.18	4.73
322.392	4.24
322.603	3.35
322.815	4.52
323.026	5.38
323.238	8.58
323.449	7.8
323.661	6.15
323.872	6.98
324.083	9.4
324.295	7.05
324.506	4.07
324.718	3.36
324.929	3.3
325.14	1.39
325.352	1.88
325.563	2.81
325.774	3.53
325.986	4.16
326.197	6.43
326.408	5.56
326.62	8.04
326.831	11.22
327.042	10.86
327.253	11.48
327.464	12.54
327.676	12.19
327.887	9.52
328.098	12.98
328.309	14.45
328.52	12.11
328.732	14.4
328.943	13.6
329.154	9.33
329.365	9.95
329.576	11.16
329.787	11.54
329.998	11.89
330.209	14.13
330.42	10.22
330.631	8.19
330.842	6.74
331.053	4.67
331.264	4.56
331.475	6.4
331.686	8.8
331.897	9.98
332.108	10.29
332.319	11.59
332.53	10.3
332.741	11.37
332.952	11.48
333.163	14.4
333.374	15.63
333.585	15.58
333.795	16.87
334.006	16.67
334.217	15.3
334.428	15.29
334.639	14.9
334.849	13.04
335.06	12.54
335.271	13.47
335.482	13.17
335.692	13.33
335.903	15.08
336.114	13.25
336.325	13.88
336.535	13.8
336.746	12.88
336.957	12.8
337.167	13.95
337.378	14.22
337.589	14.95
337.799	13.98
338.01	13.26
338.22	12.78
338.431	11.02
338.642	9.13
338.852	7.98
339.063	5.01
339.273	7.95
339.484	8.33
339.694	6.48
339.905	6.24
340.115	9.04
340.326	6.81
340.536	5.46
340.746	8.94
340.957	10.67
341.167	12.67
341.378	14.92
341.588	11.6
341.799	13.49
342.009	16.74
342.219	15.28
342.43	15.54
342.64	18.22
342.85	20.29
343.061	19.31
343.271	18.95
343.481	17.88
343.691	17.94
343.902	18.57
344.112	17.1
344.322	14.68
344.532	16.83
344.743	15.14
344.953	14.27
345.163	13.1
345.373	12.44
345.583	11.43
345.793	10.84
346.004	10.73
346.214	10.12
346.424	10.26
346.634	9.58
346.844	9.5
347.054	10.79
347.264	8.08
347.474	7.86
347.684	10.19
347.894	9.77
348.104	10.84
348.314	11.87
348.524	11.44
348.734	11.89
348.944	12.35
349.154	10.88
349.364	11.46
349.574	13.49
349.784	13.74
349.994	13.56
350.204	12.91
350.413	12.15
350.623	12.7
350.833	14.11
351.043	12.78
351.253	15.57
351.463	16.77
351.672	14.74
351.882	17.76
352.092	17.29
352.302	18.25
352.511	19.49
352.721	19.97
352.931	18.16
353.141	15.85
353.35	16.99
353.56	14.38
353.77	10.68
353.979	11.46
354.189	10.57
354.399	9.52
354.608	9.14
354.818	8.5
355.027	7.39
355.237	8.66
355.447	9.45
355.656	8.22
355.866	8.43
356.075	10.73
356.285	9.85
356.494	7.34
356.704	7.6
356.913	5.54
357.123	6.2
357.332	7.24
357.542	5.37
357.751	5.32
357.96	6.66
358.17	8.03
358.379	8.59
358.589	9.36
358.798	11.76
359.007	12.46
359.217	12.79
359.426	11.56
359.635	11.66
359.845	10.98
360.054	9.42
360.263	9.77
360.472	8.66
360.682	8.03
360.891	8.12
361.1	7.69
361.309	8.22
361.519	8.04
361.728	8.82
361.937	7.79
362.146	9.85
362.355	11.08
362.564	8.93
362.774	9.25
362.983	9.38
363.192	9.65
363.401	9.59
363.61	9.69
363.819	10.66
364.028	8.55
364.237	9.4
364.446	9
364.655	9.15
364.864	10.7
365.073	10.89
365.282	11.37
365.491	10.71
365.7	10.64
365.909	9.22
366.118	9.21
366.327	8.88
366.536	9.99
366.745	8.67
366.954	9.4
367.162	8.68
367.371	7.23
367.58	7.81
367.789	8.38
367.998	7.37
368.207	8.56
368.415	9.56
368.624	11.84
368.833	11.26
369.042	11.5
369.25	10.84
369.459	10.13
369.668	10.32
369.877	9.05
370.085	9.06
370.294	9.97
370.503	8.69
370.711	7.71
370.92	9.04
371.129	9.09
371.337	9.33
371.546	10.45
371.754	11.89
371.963	14.3
372.171	14.3
372.38	14.59
372.589	14.61
372.797	14.55
373.006	13.76
373.214	12.33
373.423	12.31
373.631	12.46
373.84	11.76
374.048	11.72
374.256	9.83
374.465	10.92
374.673	9.42
374.882	9.37
375.09	10.49
375.298	10.23
375.507	10.05
375.715	10.75
375.923	10.96
376.132	9.96
376.34	9.95
376.548	11.17
376.757	9.28
376.965	9.94
377.173	9.98
377.381	8.52
377.59	9.39
377.798	10.01
378.006	7.94
378.214	8.92
378.423	9.87
378.631	9.99
378.839	8.56
379.047	9.64
379.255	9.93
379.463	9.93
379.671	10.13
379.879	8.67
380.088	8.48
380.296	7.71
380.504	7.25
380.712	6.39
380.92	7.6
381.128	8.82
381.336	9.43
381.544	9.64
381.752	9.79
381.96	10.75
382.168	10.78
382.376	10.55
382.584	11.47
382.791	10.8
382.999	10.59
383.207	9.37
383.415	8.74
383.623	8.58
383.831	7.86
384.039	7.24
384.247	6.95
384.454	6.85
384.662	6.63
384.87	7.22
385.078	7.06
385.285	6.79
385.493	7.23
385.701	7.04
385.909	6.03
386.116	6.18
386.324	6.84
386.532	6.08
386.739	7.93
386.947	7.09
387.155	8.01
387.362	8.95
387.57	8.7
387.778	7.39
387.985	7.47
388.193	7.64
388.4	7.82
388.608	6.94
388.816	7.45
389.023	6.36
389.231	7.39
389.438	6.59
389.646	6.51
389.853	8.1
390.061	8.11
390.268	7
390.475	8.33
390.683	7.31
390.89	7.84
391.098	8.29
391.305	8.66
391.512	9.19
391.72	9.13
391.927	7.27
392.135	7.65
392.342	8.21
392.549	8.36
392.756	7.28
392.964	7.68
393.171	6.86
393.378	6.32
393.586	6.15
393.793	5.4
394	5.74
394.207	7.49
394.414	7.09
394.622	6.59
394.829	7.38
395.036	7.25
395.243	8.47
395.45	9.71
395.657	9.6
395.864	8.95
396.072	8.9
396.279	9.72
396.486	9.06
396.693	8.73
396.9	10.51
397.107	11.12
397.314	10.71
397.521	9.83
397.728	9.91
397.935	9.39
398.142	9.24
398.349	8.97
398.556	7.8
398.763	8.18
398.97	6.96
399.177	5.94
399.383	4.81
399.59	4.31
399.797	4.71
400.004	3.34
400.211	3.47
400.418	4.31
400.625	5.69
400.831	5.39
401.038	4.58
401.245	4.43
401.452	4
401.658	5.97
401.865	7.08
402.072	7.11
402.279	6.4
402.485	7.87
402.692	7.86
402.899	6.87
403.105	6.49
403.312	6.45
403.519	7.92
403.725	7.98
403.932	7.17
404.138	7.06
404.345	7.22
404.552	7.8
404.758	6.78
404.965	7.51
405.171	7.55
405.378	8.81
405.584	9.19
405.791	8.71
405.997	8.52
406.204	7.9
406.41	7.92
406.617	7.65
406.823	7.48
407.029	8.01
407.236	6.65
407.442	7.94
407.649	6.88
407.855	7.13
408.061	6.27
408.268	6.52
408.474	6.77
408.68	7.47
408.887	7.63
409.093	8.71
409.299	8.67
409.505	9.04
409.712	7.54
409.918	8.47
410.124	8.22
410.33	9.51
410.537	9.99
410.743	9.95
410.949	8.78
411.155	8.84
411.361	9.6
411.567	10
411.773	10.31
411.98	10.57
412.186	10.68
412.392	10.79
412.598	10.83
412.804	9.47
413.01	9.24
413.216	9.67
413.422	8.82
413.628	7.56
413.834	6.89
414.04	5.3
414.246	5.4
414.452	4.46
414.658	4.29
414.864	3.53
415.07	4.72
415.275	4.95
415.481	5.96
415.687	6.05
415.893	6.81
416.099	6.78
416.305	7.33
416.511	7.06
416.716	7.46
416.922	7.96
417.128	8.03
417.334	7.63
417.539	7.95
417.745	7.72
417.951	7.34
418.157	6.55
418.362	6.69
418.568	6.73
418.774	6.87
418.979	7.05
419.185	7.38
419.391	7.1
419.596	7.03
419.802	7.07
420.008	7.13
420.213	7.35
420.419	7.74
420.624	7.4
420.83	8.13
421.035	8.28
421.241	8.01
421.446	7.17
421.652	7.89
421.857	8.08
422.063	7.76
422.268	7.35
422.474	6.89
422.679	7.36
422.885	7.15
423.09	6.9
423.295	6.95
423.501	7.01
423.706	7.05
423.911	6.53
424.117	6.52
424.322	6.38
424.527	6.02
424.733	6.33
424.938	5.54
425.143	5.49
425.349	5.29
425.554	5.86
425.759	5.27
425.964	5.86
426.169	6.42
426.375	6.08
426.58	6.49
426.785	6.86
426.99	7
427.195	7.42
427.4	8.7
427.605	8.01
427.811	7.11
428.016	7.32
428.221	7.28
428.426	6.53
428.631	7.15
428.836	6.9
429.041	6.77
429.246	6.24
429.451	6.02
429.656	5.67
429.861	6.27
430.066	6.68
430.271	7.49
430.476	7.14
430.681	7.51
430.886	6.89
431.09	7.22
431.295	7.62
431.5	8.14
431.705	7.95
431.91	8.21
432.115	7.99
432.32	7.2
432.524	6.7
432.729	6.67
432.934	5.76
433.139	5.76
433.343	5.15
433.548	5.66
433.753	5.78
433.958	6.32
434.162	6.28
434.367	6.6
434.572	6.9
434.776	7.22
434.981	7.26
435.186	8.23
435.39	8.27
435.595	8.75
435.799	7.87
436.004	8.17
436.209	8.42
436.413	7.31
436.618	7.11
436.822	7.06
437.027	6.27
437.231	6.32
437.436	5.94
437.64	5.88
437.845	5.28
438.049	5.83
438.253	4.99
438.458	4.2
438.662	4.49
438.867	4.27
439.071	4.04
439.275	4.58
439.48	3.96
439.684	4.2
439.888	4.4
440.093	4.41
440.297	4.38
440.501	5.05
440.706	5.03
440.91	5.04
441.114	5.19
441.318	5.32
441.523	5.11
441.727	5.64
441.931	5.63
442.135	5.82
442.339	6.09
442.543	5.91
442.748	5.47
442.952	5.23
443.156	4.86
443.36	4.94
443.564	4.81
443.768	4.97
443.972	4.37
444.176	4.77
444.38	4.42
444.584	4.75
444.788	4.36
444.992	4.56
445.196	4.71
445.4	5.65
445.604	5.74
445.808	5.65
446.012	5.71
446.216	6.23
446.42	5.88
446.624	5.97
446.828	5.94
447.032	6.2
447.235	6.03
447.439	6.23
447.643	5.92
447.847	5.65
448.051	5.67
448.254	5.86
448.458	5.81
448.662	5.74
448.866	5.89
449.069	5.62
449.273	5.68
449.477	6.12
449.681	6.25
449.884	6.19
450.088	6.13
450.292	6.62
450.495	6.18
450.699	6.77
450.902	6.85
451.106	7.07
451.31	7.29
451.513	7.31
451.717	7.36
451.92	7.42
452.124	7.23
452.327	7.38
452.531	7.23
452.734	7.07
452.938	6.47
453.141	6.54
453.345	5.93
453.548	5.39
453.752	5.37
453.955	5.08
454.158	4.47
454.362	5.08
454.565	5.67
454.769	6.12
454.972	6.52
455.175	6.4
455.379	6.25
455.582	6.53
455.785	7.26
455.988	6.63
456.192	6.64
456.395	7.12
456.598	6.11
456.801	5.2
457.005	5.18
457.208	4.73
457.411	4.95
457.614	4.99
457.817	4.87
458.021	4.6
458.224	5.02
458.427	4.86
458.63	4.71
458.833	4.62
459.036	4.63
459.239	4.27
459.442	4.36
459.645	4.58
459.848	4.34
460.051	4.5
460.254	4.78
460.457	4.6
460.66	4.39
460.863	4.5
461.066	4.51
461.269	4.36
461.472	4.67
461.675	4.64
461.878	4.52
462.081	4.48
462.284	4.4
462.486	3.72
462.689	3.7
462.892	4.26
463.095	4.27
463.298	4.75
463.5	5.19
463.703	5.19
463.906	5.68
464.109	5.88
464.311	6.02
464.514	5.84
464.717	6.13
464.92	6.44
465.122	6.32
465.325	6.35
465.528	5.92
465.73	5.75
465.933	5.43
466.135	4.66
466.338	3.95
466.541	4.69
466.743	5.28
466.946	5.74
467.148	5.64
467.351	5.85
467.553	5.32
467.756	5.65
467.958	5.89
468.161	5.52
468.363	5.6
468.566	5.99
468.768	4.94
468.971	4.7
469.173	4.46
469.375	4.02
469.578	3.71
469.78	4.15
469.983	4.07
470.185	3.9
470.387	4.23
470.59	4.95
470.792	4.64
470.994	4.74
471.196	4.13
471.399	4.3
471.601	4.69
471.803	4.11
472.005	3.97
472.208	4.31
472.41	4.52
472.612	5.08
472.814	4.23
473.016	4.05
473.218	4.46
473.421	4.95
473.623	4.15
473.825	4.05
474.027	4.43
474.229	3.97
474.431	3.87
474.633	3.72
474.835	3.65
475.037	4.84
475.239	5.03
475.441	5.2
475.643	5.43
475.845	5.88
476.047	5.87
476.249	5.95
476.451	6.28
476.653	6.05
476.855	6.4
477.057	5.66
477.258	5.51
477.46	5.93
477.662	5.9
477.864	5.67
478.066	5.09
478.268	4.95
478.469	5.15
478.671	5.46
478.873	5.54
479.075	5.3
479.276	5.85
479.478	5.18
479.68	5.03
479.882	4.66
480.083	4.55
480.285	4.99
480.487	5.11
480.688	4.92
480.89	4.61
481.091	4.6
481.293	4.53
481.495	4.53
481.696	4.8
481.898	4.73
482.099	4.85
482.301	4.78
482.502	4.84
482.704	4.88
482.905	4.89
483.107	5.01
483.308	5.09
483.51	5.02
483.711	4.98
483.913	5.02
484.114	4.76
484.315	4.74
484.517	4.9
484.718	4.82
484.92	4.58
485.121	4.64
485.322	4.65
485.524	4.74
485.725	4.8
485.926	4.74
486.127	4.66
486.329	4.8
486.53	4.97
486.731	5.08
486.932	5.23
487.134	5.37
487.335	5.28
487.536	5.26
487.737	5.03
487.938	5
488.139	5.01
488.341	5.1
488.542	5.51
488.743	5.21
488.944	5.06
489.145	4.69
489.346	4.59
489.547	4.66
489.748	4.47
489.949	4.56
490.15	4.84
490.351	4.94
490.552	4.8
490.753	4.46
490.954	4.39
491.155	4.34
491.356	4.44
491.557	4.69
491.758	4.8
491.959	4.97
492.159	4.81
492.36	4.5
492.561	4.68
492.762	4.81
492.963	4.83
493.164	4.81
493.364	4.65
493.565	4.96
493.766	4.4
493.967	4.33
494.167	4.08
494.368	4.23
494.569	4.54
494.769	3.98
494.97	4.01
495.171	4.23
495.371	4.46
495.572	4.51
495.773	4.41
495.973	4.47
496.174	4.65
496.375	4.58
496.575	4.63
496.776	4.5
496.976	5.05
497.177	5.02
497.377	5.19
497.578	4.92
497.778	5.12
497.979	4.97
498.179	5.54
498.38	5.23
498.58	5.55
498.78	5.71
498.981	5.49
499.181	4.76
499.382	4.68
499.582	4.48
499.782	4.8
499.983	4.91
500.183	4.91
500.383	4.31
500.584	4.34
500.784	4.35
500.984	4.25
501.184	4.83
501.385	5.46
501.585	5.5
501.785	5.41
501.985	5.56
502.185	5.38
502.386	5.09
502.586	5.58
502.786	5.65
502.986	5.87
503.186	5.77
503.386	6.4
503.586	6.1
503.786	6.13
503.987	6
504.187	5.94
504.387	6.11
504.587	6.06
504.787	6.58
504.987	6.28
505.187	6.48
505.387	6.36
505.587	4.62
505.786	5.13
505.986	5.14
506.186	5.16
506.386	5.15
506.586	5.15
506.786	6.17
506.986	5.43
507.186	5.83
507.386	5.48
507.585	6.13
507.785	6.76
507.985	6.42
508.185	6.52
508.384	6.66
508.584	6.45
508.784	6.03
508.984	5.44
509.183	5.63
509.383	5.42
509.583	5.78
509.782	5.16
509.982	5.63
510.182	5.68
510.381	5.73
510.581	5.85
510.781	6.38
510.98	6.57
511.18	6.85
511.379	6.99
511.579	6.62
511.778	6.37
511.978	6.65
512.177	6.7
512.377	6.52
512.576	6.95
512.776	6.92
512.975	6.24
513.175	6.24
513.374	6.16
513.573	5.97
513.773	6.42
513.972	6.34
514.172	6.38
514.371	6.1
514.57	5.88
514.77	5.94
514.969	5.93
515.168	6.61
515.367	7.03
515.567	6.77
515.766	6.81
515.965	6.89
516.164	7.03
516.364	7.06
516.563	7.25
516.762	7.33
516.961	7.03
517.16	7.46
517.359	7.52
517.559	7.4
517.758	7.73
517.957	7.99
518.156	8.13
518.355	8.15
518.554	8.01
518.753	7.72
518.952	8.17
519.151	8.03
519.35	7.64
519.549	7.71
519.748	7.67
519.947	7.47
520.146	7
520.345	7.18
520.544	7.1
520.743	7.02
520.942	7.53
521.141	7.31
521.339	7.76
521.538	8.07
521.737	8.22
521.936	8.85
522.135	8.89
522.333	8.95
522.532	8.6
522.731	8.73
522.93	9.06
523.129	8.93
523.327	9.3
523.526	8.49
523.725	8.24
523.923	7.92
524.122	7.55
524.321	7.81
524.519	7.93
524.718	8.05
524.917	8.3
525.115	8.41
525.314	8.35
525.512	8.38
525.711	8.74
525.909	8.78
526.108	8.88
526.306	8.85
526.505	8.59
526.703	8.83
526.902	8.83
527.1	8.71
527.299	8.86
527.497	9.05
527.696	8.95
527.894	8.89
528.092	8.92
528.291	8.97
528.489	8.89
528.688	9.17
528.886	9.01
529.084	9.21
529.283	9.25
529.481	9.07
529.679	8.81
529.877	8.92
530.076	8.95
530.274	9.06
530.472	9.18
530.67	9.77
530.869	9.65
531.067	9.48
531.265	9.18
531.463	9.22
531.661	9.26
531.859	9.22
532.057	9.16
532.255	9.16
532.454	9.18
532.652	9.3
532.85	9.08
533.048	8.88
533.246	9.23
533.444	9.54
533.642	9.54
533.84	9.61
534.038	9.83
534.236	9.87
534.434	10.28
534.632	10.18
534.83	10.2
535.027	10.25
535.225	10.45
535.423	10.59
535.621	10.5
535.819	10.39
536.017	10.32
536.215	10.38
536.412	10.2
536.61	10.5
536.808	10.77
537.006	10.75
537.203	10.62
537.401	11.08
537.599	10.93
537.797	11.29
537.994	11.33
538.192	10.94
538.39	11.1
538.587	11.67
538.785	11.28
538.983	11.48
539.18	11.37
539.378	11.3
539.575	10.95
539.773	11.02
539.97	10.81
540.168	11.11
540.366	11.3
540.563	11.06
540.761	10.67
540.958	10.61
541.155	10.19
541.353	10.16
541.55	10.56
541.748	10.71
541.945	10.71
542.143	10.61
542.34	10.53
542.537	10.48
542.735	10.72
542.932	11.22
543.129	11.48
543.327	11.84
543.524	12.12
543.721	11.82
543.919	11.73
544.116	11.76
544.313	12.25
544.51	12.36
544.708	12.56
544.905	12.62
545.102	12.39
545.299	12.54
545.496	12.88
545.693	13.01
545.891	13.16
546.088	12.92
546.285	13.13
546.482	12.95
546.679	12.82
546.876	12.92
547.073	12.97
547.27	13.43
547.467	13.42
547.664	12.93
547.861	12.44
548.058	12.1
548.255	12.6
548.452	11.9
548.649	12.3
548.846	12.52
549.043	13.08
549.24	13.42
549.437	13.6
549.633	13.83
549.83	14.06
550.027	14.12
550.224	14.42
550.421	14.77
550.618	15.39
550.814	14.67
551.011	14.53
551.208	14.52
551.405	14.21
551.601	14.12
551.798	13.48
551.995	13.3
552.191	13.33
552.388	13.26
552.585	12.98
552.781	12.5
552.978	12.61
553.175	13
553.371	13.3
553.568	13.6
553.764	12.96
553.961	13.67
554.157	13.93
554.354	14.44
554.55	14.79
554.747	14.74
554.943	15.2
555.14	15.8
555.336	16.24
555.533	15.66
555.729	15.4
555.926	15.99
556.122	16.18
556.318	16.2
556.515	15.98
556.711	16.01
556.907	16.29
557.104	16.72
557.3	16.9
557.496	16.27
557.693	16.93
557.889	17.13
558.085	16.9
558.281	16.85
558.478	16.91
558.674	17.33
558.87	17.88
559.066	17.9
559.262	17.84
559.459	17.28
559.655	17.89
559.851	17.56
560.047	17.81
560.243	17.88
560.439	17.69
560.635	17.51
560.831	17.09
561.027	16.4
561.223	16.8
561.419	17.29
561.615	17.55
561.811	17.24
562.007	17.17
562.203	16.96
562.399	16.9
562.595	16.56
562.791	17.55
562.987	17.97
563.183	18.79
563.379	18.32
563.575	18.27
563.771	18.76
563.966	18.26
564.162	18.61
564.358	18.87
564.554	19.07
564.75	19.67
564.945	19.09
565.141	18.57
565.337	18.14
565.533	18.03
565.728	17.33
565.924	16.6
566.12	16.85
566.315	16.61
566.511	16.7
566.707	16.61
566.902	16.36
567.098	17.07
567.293	17.92
567.489	17.94
567.684	18.11
567.88	18.27
568.076	18.53
568.271	18.9
568.467	19.47
568.662	19.54
568.858	19.87
569.053	20.77
569.248	20.3
569.444	19.53
569.639	19.89
569.835	20.54
570.03	21.13
570.225	21.89
570.421	21.51
570.616	21.46
570.812	20.62
571.007	20.71
571.202	20.21
571.397	20.79
571.593	21.52
571.788	21.18
571.983	21.42
572.178	21.69
572.374	21.24
572.569	21.46
572.764	21.25
572.959	21.65
573.154	21.24
573.35	21.83
573.545	21.29
573.74	21.31
573.935	21.91
574.13	21.53
574.325	21.25
574.52	21.6
574.715	21.64
574.91	21.59
575.105	22.07
575.3	22.16
575.495	21.15
575.69	21.5
575.885	21.96
576.08	21.53
576.275	21.43
576.47	21.87
576.665	22.17
576.86	22.84
577.055	22.71
577.25	22.97
577.444	23
577.639	23.49
577.834	23.24
578.029	22.59
578.224	22.62
578.418	22.71
578.613	22.3
578.808	21.44
579.003	20.97
579.197	21.78
579.392	21.38
579.587	22.26
579.781	22.19
579.976	22.33
580.171	21.94
580.365	21.41
580.56	22.19
580.755	23.58
580.949	23.64
581.144	24.26
581.338	24.28
581.533	25
581.727	24.8
581.922	25.07
582.116	25.15
582.311	25.73
582.505	26.64
582.7	26.4
582.894	25.21
583.089	26.33
583.283	26.14
583.478	26.1
583.672	25.72
583.866	25.87
584.061	25.86
584.255	25.73
584.449	25.53
584.644	26.07
584.838	26.37
585.032	27.41
585.226	27.34
585.421	27.92
585.615	27.99
585.809	28.12
586.003	28.35
586.198	28.19
586.392	28.24
586.586	28.83
586.78	27.81
586.974	27.59
587.168	26.82
587.363	26.27
587.557	25.62
587.751	25.05
587.945	25.16
588.139	24.93
588.333	25.49
588.527	26.22
588.721	25.73
588.915	26.2
589.109	26.51
589.303	25.76
589.497	25.26
589.691	24.27
589.885	24.77
590.079	25.25
590.273	25.53
590.466	25.33
590.66	24.24
590.854	25.2
591.048	25.74
591.242	25.16
591.436	25.42
591.629	25.73
591.823	27.41
592.017	26.77
592.211	25.92
592.404	25.74
592.598	25.88
592.792	25.94
592.986	24.64
593.179	23.74
593.373	23.95
593.567	23.82
593.76	24.08
593.954	23.19
594.147	24.46
594.341	25.21
594.535	25.27
594.728	25.25
594.922	25.69
595.115	26.19
595.309	26.44
595.502	26.47
595.696	26.76
595.889	27.34
596.083	27.25
596.276	26.41
596.47	25.29
596.663	25.27
596.856	25.09
597.05	25.58
597.243	25.62
597.437	25.77
597.63	25.3
597.823	25.33
598.017	24.41
598.21	25.36
598.403	25.67
598.596	27.23
598.79	27.35
598.983	27.71
599.176	27.19
599.369	27.76
599.563	27.79
599.756	28.83
599.949	30.14
600.142	30.41
600.335	29.7
600.528	29.75
600.722	29.31
600.915	29.02
601.108	28.94
601.301	28.69
601.494	28.38
601.687	28.66
601.88	28.23
602.073	27.4
602.266	27.23
602.459	27.51
602.652	27.19
602.845	27.5
603.038	27.23
603.231	27.2
603.424	27.37
603.617	27.66
603.809	27.76
604.002	27.08
604.195	26.87
604.388	27.07
604.581	26.98
604.774	27.32
604.966	26.89
605.159	27.11
605.352	26.89
605.545	26.5
605.737	26.49
605.93	25.82
606.123	26.66
606.316	26.88
606.508	27.67
606.701	27.26
606.894	27.41
607.086	26.56
607.279	27.3
607.471	27.17
607.664	27.9
607.857	27.54
608.049	28.26
608.242	28.59
608.434	28.49
608.627	27.9
608.819	28.4
609.012	28.57
609.204	29.27
609.397	28.47
609.589	28.91
609.782	29.33
609.974	29.52
610.166	29.77
610.359	29.67
610.551	29.87
610.743	30.74
610.936	30.59
611.128	30.65
611.32	31.37
611.513	32.32
611.705	32.88
611.897	32.4
612.09	33.4
612.282	32.65
612.474	32.5
612.666	32.42
612.858	31.78
613.051	32.45
613.243	32.46
613.435	31.69
613.627	30.82
613.819	30.51
614.011	30.18
614.203	28.66
614.395	28.23
614.588	27.95
614.78	28.02
614.972	28.06
615.164	27.23
615.356	28.27
615.548	28.62
615.74	29.43
615.932	29.22
616.124	29.27
616.315	29.24
616.507	29.65
616.699	30.09
616.891	30.1
617.083	30.53
617.275	30.57
617.467	29.31
617.659	28.87
617.85	29.37
618.042	29.18
618.234	29.64
618.426	29.96
618.618	29.69
618.809	30.13
619.001	29.91
619.193	29.64
619.384	29.88
619.576	30.27
619.768	30.76
619.959	29.59
620.151	30.63
620.343	30.92
620.534	31.52
620.726	32.38
620.917	30.95
621.109	31.59
621.301	32.02
621.492	32.68
621.684	31.99
621.875	32.09
622.067	33.21
622.258	32.21
622.45	32.17
622.641	31.85
622.832	31.36
623.024	32.56
623.215	32.2
623.407	31.59
623.598	30.86
623.789	31.29
623.981	30.77
624.172	30.88
624.363	31.63
624.555	31.02
624.746	30.75
624.937	30.81
625.129	31.11
625.32	31.37
625.511	31.43
625.702	31.53
625.893	32.09
626.085	32.48
626.276	31.84
626.467	31.32
626.658	31.86
626.849	31.86
627.04	31.94
627.231	31.65
627.422	31.84
627.614	31.81
627.805	31.87
627.996	32.09
628.187	32.51
628.378	32.72
628.569	32.96
628.76	32.53
628.951	33.3
629.142	33.95
629.332	33.27
629.523	33.16
629.714	32.34
629.905	31.83
630.096	30.52
630.287	29.25
630.478	28.14
630.669	27.83
630.859	29.81
631.05	29.6
631.241	29.16
631.432	29.57
631.623	29.39
631.813	31.07
632.004	32.22
632.195	32.17
632.385	31.99
632.576	32.76
632.767	32.89
632.957	32.07
633.148	31.96
633.339	31.51
633.529	32.4
633.72	32.95
633.91	31.83
634.101	31.73
634.292	31.67
634.482	31.71
634.673	32.57
634.863	32.19
635.054	32.41
635.244	33.02
635.435	33.18
635.625	32.04
635.815	32.36
636.006	32.46
636.196	32.21
636.387	32.08
636.577	32.64
636.767	32.12
636.958	31.7
637.148	32.17
637.338	32.04
637.529	32.43
637.719	33.43
637.909	32.02
638.099	32.25
638.29	31.63
638.48	32.26
638.67	32.77
638.86	32.67
639.05	33.49
639.241	31.23
639.431	30.09
639.621	29.32
639.811	27.72
640.001	28.83
640.191	28.77
640.381	29.51
640.571	29.28
640.761	29.43
640.951	30.14
641.141	29.77
641.331	30.36
641.521	31.07
641.711	31.24
641.901	33.09
642.091	31.71
642.281	32.22
642.471	31.85
642.661	33.87
642.851	32.66
643.041	31.43
643.231	31.32
643.42	31.79
643.61	30.55
643.8	30.78
643.99	30.54
644.18	31.56
644.369	31.33
644.559	31.04
644.749	28.84
644.939	29.88
645.128	30.9
645.318	31.11
645.508	30.13
645.697	30.81
645.887	30.28
646.076	28.82
646.266	29.74
646.456	29.22
646.645	30.17
646.835	30.95
647.024	31.21
647.214	30.58
647.403	30.31
647.593	31.83
647.782	32.31
647.972	33.28
648.161	33.85
648.351	32.54
648.54	32.83
648.73	31.67
648.919	30.99
649.108	31.28
649.298	31.19
649.487	31.12
649.677	30.63
649.866	31.1
650.055	31.12
650.244	32.28
650.434	32.87
650.623	33.62
650.812	34.32
651.002	36.02
651.191	35.19
651.38	35.12
651.569	36.31
651.758	36.06
651.947	35.12
652.137	35.8
652.326	35.32
652.515	34.64
652.704	34.53
652.893	34.2
653.082	34.16
653.271	34.07
653.46	33.86
653.649	33.45
653.838	34.28
654.027	35.07
654.216	32.9
654.405	33.56
654.594	34.05
654.783	33.21
654.972	33.84
655.161	31.32
655.35	32.03
655.539	32.86
655.728	32.41
655.916	30.85
656.105	29.9
656.294	31.82
656.483	30.24
656.672	29.94
656.86	30.87
657.049	30.66
657.238	31.12
657.427	31.13
657.615	31.66
657.804	31.8
657.993	32.91
658.181	34.12
658.37	33.34
658.559	34.24
658.747	34.42
658.936	33.61
659.125	33.77
659.313	35.14
659.502	35.64
659.69	34.91
659.879	35.46
660.067	34.53
660.256	34.25
660.444	34.18
660.633	34.73
660.821	34.82
661.01	35.81
661.198	35.93
661.387	36.15
661.575	35.1
661.763	34.87
661.952	35.71
662.14	35.66
662.328	34.91
662.517	36.47
662.705	35.72
662.893	36.72
663.082	35.08
663.27	35.13
663.458	33.62
663.646	33.72
663.834	34.66
664.023	32.68
664.211	33.47
664.399	33.23
664.587	31.71
664.775	31.33
664.963	30.94
665.152	32.67
665.34	32.8
665.528	32.68
665.716	32.59
665.904	31.71
666.092	32.25
666.28	32.14
666.468	32.82
666.656	33.17
666.844	32.98
667.032	33.63
667.22	33.09
667.408	32.03
667.596	32.97
667.784	33.61
667.971	33.87
668.159	33.74
668.347	32.54
668.535	31.8
668.723	32.1
668.911	33.15
669.098	31.8
669.286	31.77
669.474	31.62
669.662	31.06
669.849	30.88
670.037	31.62
670.225	31.09
670.413	32.06
670.6	32.36
670.788	30.36
670.976	29.55
671.163	29.79
671.351	28.94
671.538	30.41
671.726	30.41
671.913	31.87
672.101	31.99
672.289	33.85
672.476	35.81
672.664	35.42
672.851	37.33
673.039	36.15
673.226	35.13
673.413	35.41
673.601	33.51
673.788	33.6
673.976	32.26
674.163	31.78
674.35	31.19
674.538	30.5
674.725	31.33
674.912	31.82
675.1	34.01
675.287	35.39
675.474	36.87
675.662	38.07
675.849	38.44
676.036	37.84
676.223	36.57
676.411	35.65
676.598	35.49
676.785	36.37
676.972	36.39
677.159	35.79
677.346	34.33
677.533	32.8
677.721	32.16
677.908	32.74
678.095	33.86
678.282	34.27
678.469	34.72
678.656	33.88
678.843	33.7
679.03	34.2
679.217	33.99
679.404	33.64
679.591	35.07
679.778	35.05
679.964	34.03
680.151	32.98
680.338	33.84
680.525	33.13
680.712	32.98
680.899	32.42
681.086	30.97
681.272	31.1
681.459	33.12
681.646	32.7
681.833	34.62
682.02	35.21
682.206	36.68
682.393	37.62
682.58	37.82
682.766	37.32
682.953	38.24
683.14	38.22
683.326	38.88
683.513	37.99
683.7	36.79
683.886	35.88
684.073	35.85
684.259	34.52
684.446	33.04
684.632	32.49
684.819	32.95
685.005	31.93
685.192	31.7
685.378	31.91
685.565	32.61
685.751	33.41
685.938	33.18
686.124	33.04
686.31	31.81
686.497	30.88
686.683	32.19
686.87	31.67
687.056	30.54
687.242	31.52
687.429	31.25
687.615	30.77
687.801	30.73
687.987	29.57
688.174	30.05
688.36	31.08
688.546	31.37
688.732	31.31
688.918	32.9
689.105	34.22
689.291	34.26
689.477	33.54
689.663	33.57
689.849	33.47
690.035	36.33
690.221	35.34
690.407	35.03
690.593	36
690.779	35.38
690.965	32.27
691.151	31.31
691.337	30.78
691.523	31.01
691.709	32.57
691.895	32.66
692.081	31.53
692.267	31.91
692.453	33.02
692.639	32.08
692.825	32.67
693.011	35.72
693.196	36.04
693.382	34.35
693.568	32.86
693.754	30.75
693.94	31.47
694.125	29.54
694.311	29.49
694.497	29.7
694.682	30.32
694.868	29.22
695.054	28.23
695.239	28.93
695.425	29.83
695.611	32.14
695.796	33.9
695.982	32.36
696.168	34.02
696.353	32.88
696.539	31.87
696.724	32.19
696.91	32.05
697.095	31.25
697.281	30.94
697.466	31.04
697.652	30.17
697.837	28.87
698.023	29.91
698.208	30.02
698.393	30.74
698.579	30.73
698.764	30.27
698.949	31.33
699.135	32.74
699.32	32.76
699.505	33.29
699.691	33.23
699.876	33.74
700.061	33.81
700.246	32.42
700.432	33.19
700.617	33.62
700.802	34.54
700.987	33.45
701.172	36.13
701.358	35.98
701.543	34.68
701.728	32.59
701.913	32.41
702.098	32.13
702.283	35.73
702.468	34.45
702.653	32.86
702.838	33
703.023	32.38
703.208	29.77
703.393	29.06
703.578	31.92
703.763	35.18
703.948	37.03
704.133	36.65
704.318	33.72
704.503	35.02
704.688	36.62
704.873	36.11
705.057	37.32
705.242	37.25
705.427	40.82
705.612	40.02
705.797	38.22
705.981	35.7
706.166	34.57
706.351	34.51
706.536	34.86
706.72	35.18
706.905	35.54
707.09	35.63
707.274	36.65
707.459	35.99
707.644	35.28
707.828	36.8
708.013	38.23
708.197	38.55
708.382	39.13
708.567	38.64
708.751	38.16
708.936	37.79
709.12	36.83
709.305	34.93
709.489	32.86
709.673	34.16
709.858	36.42
710.042	34.73
710.227	34.82
710.411	33.5
710.596	32.59
710.78	33.31
710.964	31.7
711.149	32.94
711.333	33.13
711.517	33.42
711.702	32.99
711.886	29.3
712.07	32.62
712.254	33.78
712.438	35.14
712.623	36.62
712.807	36.51
712.991	37.08
713.175	37.46
713.359	37.32
713.544	37.94
713.728	36.8
713.912	37.63
714.096	36.92
714.28	38.46
714.464	36.93
714.648	36.32
714.832	35.74
715.016	34.02
715.2	32.29
715.384	32.16
715.568	30.59
715.752	32.58
715.936	31.51
716.12	30.85
716.304	28.79
716.488	27.52
716.671	27.47
716.855	27.58
717.039	30.39
717.223	31.38
717.407	30.53
717.59	31.5
717.774	31.49
717.958	33.26
718.142	31.17
718.325	32.5
718.509	34.68
718.693	34.41
718.877	33.62
719.06	31.45
719.244	33.42
719.428	35.65
719.611	37.16
719.795	31.94
719.978	31.38
720.162	33.73
720.345	33.55
720.529	33.39
720.713	33.6
720.896	34.89
721.08	37.14
721.263	35.56
721.446	32.54
721.63	31.07
721.813	33.81
721.997	33.02
722.18	35.22
722.364	35
722.547	36.04
722.73	34.93
722.914	34.55
723.097	37
723.28	37.5
723.464	38.85
723.647	39.09
723.83	39.72
724.013	40.06
724.197	37.31
724.38	37.93
724.563	36.91
724.746	37.22
724.929	36.19
725.112	32.3
725.296	33.83
725.479	33.95
725.662	33.27
725.845	33.57
726.028	36.02
726.211	36.47
726.394	35.71
726.577	36.43
726.76	36.76
726.943	36.04
727.126	35.28
727.309	33.03
727.492	34.6
727.675	35.78
727.858	35.75
728.041	32.44
728.224	30.75
728.407	30.17
728.589	29.99
728.772	29.02
728.955	32.89
729.138	35.17
729.321	36.63
729.503	34.95
729.686	35.19
729.869	33.3
730.052	35.31
730.234	35.51
730.417	35.01
730.6	33.32
730.782	34.97
730.965	30.62
731.148	30.11
731.33	29.12
731.513	29.23
731.695	30.19
731.878	33.58
732.061	32.51
732.243	33.06
732.426	32.66
732.608	35.26
732.791	35.37
732.973	39.15
733.156	38.72
733.338	40.04
733.52	41.77
733.703	36.65
733.885	34.35
734.068	37.08
734.25	36.39
734.432	38.14
734.615	38.9
734.797	39.59
734.979	38.08
735.162	38.88
735.344	35.84
735.526	34.68
735.708	40.27
735.891	43.26
736.073	43.55
736.255	44.66
736.437	44.75
736.619	41.68
736.802	41.68
736.984	40.72
737.166	41.39
737.348	43.54
737.53	42.92
737.712	41.89
737.894	39.97
738.076	38.13
738.258	37.41
738.44	36.92
738.622	35.59
738.804	34.57
738.986	36.76
739.168	38.65
739.35	38.41
739.532	36.6
739.714	36.86
739.896	38.59
740.078	41.56
740.259	41.95
740.441	44.72
740.623	49.32
740.805	50.09
740.987	51.58
741.168	47.24
741.35	47.59
741.532	49.24
741.714	49.05
741.895	48.31
742.077	43.58
742.259	45.57
742.44	42.07
742.622	38.22
742.804	38.9
742.985	35.39
743.167	35.7
743.348	34.6
743.53	35.4
743.711	33.33
743.893	33.63
744.075	37.45
744.256	35.57
744.438	37.24
744.619	41.8
744.8	41.66
744.982	41.36
745.163	40.09
745.345	40.6
745.526	38.19
745.707	40.01
745.889	39.56
746.07	35.76
746.252	39.85
746.433	38.63
746.614	37.74
746.795	41.26
746.977	43.87
747.158	50.25
747.339	53.26
747.52	57
747.702	53.39
747.883	53.81
748.064	56.8
748.245	54.46
748.426	51.73
748.607	54.54
748.788	52.48
748.97	50.91
749.151	52.2
749.332	52.1
749.513	48.24
749.694	48.57
749.875	43.65
750.056	43.11
750.237	43.29
750.418	47.14
750.599	43.07
750.78	43.18
750.96	42.92
751.141	38.62
751.322	36.79
751.503	41.39
751.684	43.41
751.865	47.96
752.046	44.5
752.226	39.6
752.407	40.59
752.588	40.56
752.769	37.35
752.949	35.81
753.13	39.86
753.311	42.19
753.492	41.14
753.672	44.52
753.853	42.05
754.034	45.01
754.214	50.86
754.395	50.14
754.575	52.15
754.756	54.36
754.937	54.8
755.117	57.06
755.298	53.15
755.478	50.96
755.659	48.87
755.839	52.1
756.02	52.45
756.2	53.88
756.381	53.63
756.561	49.39
756.741	46.98
756.922	47.81
757.102	40.74
757.283	38.85
757.463	39.46
757.643	37.06
757.823	33.17
758.004	31.13
758.184	26.87
758.364	24.51
758.545	21.8
758.725	22.93
758.905	22.97
759.085	24.15
759.265	27.92
759.446	27.05
759.626	25.18
759.806	27.01
759.986	27.9
760.166	27.29
760.346	23.95
760.526	26.75
760.706	21.8
760.886	22.17
761.066	19.45
761.246	15.7
761.426	16.64
761.606	19.7
761.786	16.51
761.966	17.82
762.146	18.85
762.326	20.86
762.506	23.07
762.686	25.45
762.866	25.03
763.046	27.92
763.225	30.92
763.405	31.41
763.585	32.24
763.765	34.42
763.945	38.06
764.124	37.8
764.304	41.67
764.484	39.9
764.664	41.25
764.843	42.98
765.023	42.62
765.203	38.51
765.382	39.58
765.562	35.89
765.741	39.64
765.921	34.75
766.101	37.85
766.28	36.7
766.46	41.81
766.639	41.55
766.819	42.47
766.998	41.26
767.178	48.98
767.357	46.65
767.537	51.26
767.716	51.7
767.896	52
768.075	51.71
768.254	50.13
768.434	50.77
768.613	50.6
768.792	51.79
768.972	54.83
769.151	47.22
769.33	47.48
769.51	44.85
769.689	36.69
769.868	37.32
770.047	36.96
770.226	38.84
770.406	35.04
770.585	38.49
770.764	37.14
770.943	35.3
771.122	40.71
771.301	40.22
771.48	40.77
771.66	45.37
771.839	42.83
772.018	43.19
772.197	41.36
772.376	42.91
772.555	42.14
772.734	38.55
772.913	38.76
773.092	39.74
773.271	40.52
773.449	47.48
773.628	48.06
773.807	52.09
773.986	52.55
774.165	52.85
774.344	56
774.523	54.53
774.701	60.54
774.88	61.8
775.059	56.73
775.238	62.52
775.417	54.16
775.595	54.54
775.774	53.68
775.953	52.88
776.131	57.4
776.31	47.87
776.489	48.85
776.667	44.86
776.846	46.76
777.025	50.09
777.203	45.09
777.382	53.63
777.56	53.71
777.739	51.52
777.917	56.12
778.096	54.91
778.274	57.28
778.453	59.01
778.631	61.71
778.81	56.65
778.988	55.5
779.166	55.6
779.345	48.26
779.523	51.23
779.702	56.65
779.88	52.4
780.058	48.36
780.237	49.07
780.415	45.55
780.593	45.72
780.771	44.71
780.95	45.17
781.128	49.65
781.306	52.35
781.484	50.7
781.662	46.13
781.841	43.51
782.019	42.75
782.197	51.79
782.375	56.87
782.553	57.87
782.731	56.82
782.909	55.49
783.087	55.5
783.265	49.52
783.443	49.59
783.621	52.06
783.799	53.48
783.977	59.57
784.155	47.8
784.333	34.86
784.511	34.81
784.689	35.35
784.867	31.73
785.045	23.48
785.223	25.21
785.4	25.72
785.578	29.03
785.756	29.9
785.934	25.58
786.112	26.79
786.289	29.21
786.467	20.57
786.645	24.53
786.823	28.98
787	31.02
787.178	36.1
787.356	32.15
787.533	24.48
787.711	25.44
787.889	20.49
788.066	21.66
788.244	23.54
788.421	30.95
788.599	28.36
788.776	30.05
788.954	32.7
789.131	30.45
789.309	36.34
789.486	42.77
789.664	41.25
789.841	46.45
790.019	47.77
790.196	49.55
790.373	52.04
790.551	51.16
790.728	47.78
790.906	41.99
791.083	50.56
791.26	47.7
791.437	46.77
791.615	44.99
791.792	47.94
791.969	51.1
792.146	55.5
792.324	51.24
792.501	57.1
792.678	45.93
792.855	49.37
793.032	47.26
793.209	46.17
793.387	44.48
793.564	48.99
793.741	45.22
793.918	36.88
794.095	31.15
794.272	33.73
794.449	30.17
794.626	41.51
794.803	39.66
794.98	32.51
795.157	28.81
795.334	35.53
795.511	35.56
795.688	42.3
795.864	48.12
796.041	55.64
796.218	54.41
796.395	60.11
796.572	59.41
796.749	64.93
796.925	68.91
797.102	71.36
797.279	65.52
797.456	60.91
797.632	56.9
797.809	59.79
797.986	53.34
798.162	57.66
798.339	53.15
798.516	54.1
798.692	46.38
798.869	38.9
799.046	41.3
799.222	31.46
799.399	33.68
799.575	34.49
799.752	26.21
799.928	30.57
800.105	28.4
800.281	36.21
800.458	27.47
800.634	32
800.811	31.27
800.987	30.76
801.163	34.95
801.34	38.15
801.516	33.23
801.692	35.47
801.869	38.05
802.045	39.47
802.221	39.8
802.398	50.08
802.574	49.29
802.75	54.82
802.926	56.82
803.103	57.29
803.279	57.3
803.455	59.22
803.631	53.25
803.807	57.71
803.983	53.78
804.16	40.74
804.336	34.93
804.512	35.99
804.688	39.72
804.864	31.65
805.04	30.33
805.216	23.25
805.392	14.96
805.568	14.09
805.744	13.17
805.92	10.88
806.096	22.42
806.272	19.03
806.448	22.77
806.623	22.33
806.799	29.65
806.975	27.07
807.151	26.25
807.327	35.24
807.503	43.85
807.678	42.79
807.854	39.26
808.03	39.34
808.206	42.72
808.381	34.85
808.557	29.91
808.733	28.7
808.908	31.57
809.084	36.49
809.26	33.45
809.435	30.65
809.611	30.3
809.787	44.57
809.962	46.81
810.138	47.27
810.313	44.92
810.489	48.63
810.664	40.24
810.84	43.5
811.015	40.08
811.191	34.94
811.366	45.14
811.542	40.04
811.717	32.84
811.892	30.9
812.068	28.04
812.243	34.84
812.419	36.37
812.594	26.6
812.769	20.82
812.944	21.32
813.12	28.11
813.295	18.12
813.47	19.23
813.645	18.04
813.821	21.55
813.996	27.46
814.171	20.26
814.346	24.95
814.521	35.25
814.697	36.47
814.872	38.61
815.047	31.2
815.222	34.1
815.397	36.12
815.572	32.26
815.747	24.42
815.922	15.48
816.097	27.42
816.272	25.53
816.447	24.33
816.622	24.29
816.797	23.41
816.972	22.68
817.147	25.22
817.322	21.79
817.496	30.23
817.671	33.46
817.846	36.23
818.021	31.57
818.196	30.09
818.371	34.15
818.545	36.01
818.72	33.29
818.895	43.56
819.069	44.09
819.244	43.9
819.419	41.64
819.594	35.03
819.768	31.61
819.943	30.28
820.117	28.72
820.292	28
820.467	25.23
820.641	27.26
820.816	25.19
820.99	25.58
821.165	24.53
821.339	23.43
821.514	25.28
821.688	25.77
821.863	25.75
822.037	25.66
822.212	25.82
822.386	26.87
822.56	24.53
822.735	24.11
822.909	22.17
823.084	24.12
823.258	25.51
823.432	22.95
823.606	26.68
823.781	25.29
823.955	25.74
824.129	24.71
824.303	27.24
824.478	34.36
824.652	35.78
824.826	33.16
825	28.31
825.174	28.12
825.348	31.5
825.523	25.79
825.697	27.7
825.871	30.25
826.045	32.2
826.219	30.1
826.393	26.61
826.567	24.88
826.741	27.28
826.915	30.97
827.089	31.2
827.263	27.6
827.437	32.55
827.611	32.95
827.784	29.67
827.958	23.3
828.132	24.11
828.306	23.7
828.48	21.59
828.654	28
828.827	18.06
829.001	24.8
829.175	30.57
829.349	25.82
829.522	19.44
829.696	22.74
829.87	32.43
830.044	30.72
830.217	28.81
830.391	23.26
830.565	20.3
830.738	33.9
830.912	30.85
831.085	17.16
831.259	18.97
831.432	35.89
831.606	32.7
831.779	32.57
831.953	33.3
832.126	38.49
832.3	39.73
832.473	37.61
832.647	33.77
832.82	29.37
832.994	34.88
833.167	36.42
833.34	34.76
833.514	34.91
833.687	32.28
833.86	34.9
834.034	35.39
834.207	41.78
834.38	42.02
834.553	42.43
834.727	45.95
834.9	43.05
835.073	40.87
835.246	41.06
835.419	41.5
835.593	43.73
835.766	38.79
835.939	32.09
836.112	20.35
836.285	21.89
836.458	28.35
836.631	31.28
836.804	40.71
836.977	39.24
837.15	53.52
837.323	43.41
837.496	33.3
837.669	54.66
837.842	56.57
838.015	60.52
838.188	54.67
838.361	33.33
838.533	31.3
838.706	42.79
838.879	39.92
839.052	15.83
839.225	32.43
839.398	43.11
839.57	43.63
839.743	46.27
839.916	50.41
840.088	64.91
840.261	69.08
840.434	71.76
840.607	54
840.779	68.35
840.952	80.62
841.124	81.99
841.297	73.11
841.47	74.65
841.642	72.47
841.815	60.64
841.987	42.23
842.16	35.19
842.332	36.31
842.505	33.9
842.677	34.64
842.85	24.01
843.022	16.2
843.194	10.82
843.367	9.28
843.539	4.12
843.712	12.61
843.884	18.29
844.056	28.9
844.229	25.41
844.401	21.77
844.573	3.03
844.745	15.48
844.918	19.9
845.09	29.19
845.262	16.65
845.434	5.45
845.606	16.78
845.779	-17.77
845.951	-28.81
846.123	-31.07
846.295	16.58
846.467	25.24
846.639	-1.56
846.811	1.7
846.983	-7.1
847.155	-69.74
847.327	-21.73
847.499	-67.46
847.671	-14.22
847.843	-37.38
848.015	-56.08
848.187	-161.75
848.359	-685.39
848.531	-733.33
848.703	-208.7
848.875	-315.32
849.047	-280.39
849.218	-261.86
849.39	-128.02
849.562	-355.77
849.734	-88.74
849.905	-8.84
850.077	61.11
850.249	49.82
850.421	46.72
850.592	21.44
850.764	16.95
850.936	53.78
851.107	50.25
851.279	56.11
851.451	66.95
851.622	58.82
851.794	47.34
851.965	36.96
852.137	49.7
852.308	52.61
852.48	56.43
852.651	55.08
852.823	26.64
852.994	56.51
853.166	77.13
853.337	83.39
853.509	84.97
853.68	68.23
853.851	57.25
854.023	58.71
854.194	70.01
854.365	77.47
854.537	64.24
854.708	55.36
854.879	56.6
855.05	55.03
855.222	50.61
855.393	47.09
855.564	51.83
855.735	60.04
855.906	58.17
856.078	27.02
856.249	-8.67
856.42	35.09
856.591	76.22
856.762	52.54
856.933	53.38
857.104	45.63
857.275	40.05
857.446	42.66
857.617	53.59
857.788	60.21
857.959	56.15
858.13	52.63
858.301	47.7
858.472	31.98
858.643	11.11
858.814	11.51
858.985	10.1
859.155	2.96
859.326	4.05
859.497	-4.1
859.668	-8.7
859.839	1.78
860.009	-6.13
860.18	-0.91
860.351	10.71
860.522	18.32
860.692	-5.98
860.863	-20.32
861.034	-8.82
861.204	-22.46
861.375	-14.37
861.546	-18.05
861.716	-24.61
861.887	34.75
862.057	33.26
862.228	24.02
862.398	38.26
862.569	47.71
862.739	49.61
862.91	56.54
863.08	66.34
863.251	58.63
863.421	60.86
863.592	49.53
863.762	39.59
863.932	51.12
864.103	45.69
864.273	46.48
864.443	44.05
864.614	64.77
864.784	42
864.954	49.94
865.125	35.66
865.295	33.79
865.465	59.09
865.635	49.77
865.805	43.16
865.976	50.8
866.146	51.83
866.316	49.35
866.486	42.81
866.656	61.79
866.826	55.84
866.996	73.98
867.166	87.39
867.336	71.86
867.506	93
867.676	95.49
867.846	60.81
868.016	59.6
868.186	77.67
868.356	45.67
868.526	-91.67
868.696	-2900
868.866	262.35
869.036	-205.5
869.206	-403.23
869.376	-521.95
869.545	-51.67
869.715	57.82
869.885	49.64
870.055	98.52
870.224	80.84
870.394	41.82
870.564	-0.72
870.734	1.89
870.903	-38.36
871.073	5.05
871.243	-1.18
871.412	-55.36
871.582	-33.14
871.751	-79.46
871.921	-146.93
872.091	-95.61
872.26	-48.21
872.43	-11.86
872.599	2.3
872.769	15.37
872.938	3
873.108	-10.26
873.277	-5.95
873.446	-29.15
873.616	-19.94
873.785	-14.66
873.955	-1.14
874.124	6.19
874.293	-7.11
874.463	-4.48
874.632	-27.14
874.801	-10.55
874.971	-7.41
875.14	0.8
875.309	10.55
875.478	8.32
875.647	1.59
875.817	15.29
875.986	-4.79
876.155	-7.68
876.324	3.65
876.493	21.08
876.662	12.76
876.831	10.8
877	2.83
877.17	9.98
877.339	19.49
877.508	26.81
877.677	15.93
877.846	23.21
878.015	33.67
878.184	35.91
878.352	27.19
878.521	24.44
878.69	29.51
878.859	26.42
879.028	20.38
879.197	8.97
879.366	3.9
879.534	3.53
879.703	1.88
879.872	4.06
880.041	6.23
880.21	5.59
880.378	9.33
880.547	8.5
880.716	11.69
880.884	9.46
881.053	12.03
881.222	12.36
881.39	11.45
881.559	11.82
881.727	14.18
881.896	12.99
882.065	20.18
882.233	19.39
882.402	16.99
882.57	14.56
882.739	11.38
882.907	10.35
883.076	3.84
883.244	7.4
883.412	20.4
883.581	15.67
883.749	14.37
883.918	-0.89
884.086	-3.52
884.254	-16.06
884.423	-19.5
884.591	2.97
884.759	-21.46
884.927	-12.24
885.096	-14.15
885.264	-53.49
885.432	-73.81
885.6	-48.06
885.769	-17.49
885.937	-34.17
886.105	19.96
886.273	8.72
886.441	-7.63
886.609	29.58
886.777	31.03
886.945	30.88
887.113	22.9
887.281	41.26
887.449	35.73
887.617	18.1
887.785	43.54
887.953	41.68
888.121	43.72
888.289	35.71
888.457	37.35
888.625	46.23
888.793	49.19
888.961	49.66
889.129	53.92
889.296	64.64
889.464	78.7
889.632	62.67
889.8	46.01
889.967	57.14
890.135	79.13
