Data from JASIL_3264_Reflection_1.txt Node
Date: Mon Nov 16 20:57:46 EST 2015
User: Geneva
Spectrometer: USB4E03002
Autoset integration time: false
Trigger mode: 4
Integration Time (sec): 1.000000E-1
Scans to average: 10
Electric dark correction enabled: false
Nonlinearity correction enabled: false
Boxcar width: 5
Stray light correction enabled: false
XAxis mode: Wavelengths
Stop averaging: false
Number of Pixels in Spectrum: 3648
>>>>>Begin Spectral Data<<<<<
177.575	-903.42
177.794	-897.14
178.014	-900.6
178.233	-1498.13
178.452	-2118.07
178.672	-1488.64
178.891	-1927.36
179.11	5654.05
179.33	1934.82
179.549	-10250
179.768	1905.08
179.987	2190.32
180.207	1349.03
180.426	728.22
180.645	762.98
180.864	1348.05
181.084	566.58
181.303	506.48
181.522	992.27
181.741	3132.39
181.96	643.3
182.179	845.35
182.398	983.56
182.618	951.27
182.837	973.11
183.056	882.94
183.275	546.17
183.494	554.65
183.713	618.27
183.932	509.03
184.151	531.51
184.37	538.8
184.589	420.38
184.808	344.99
185.027	345.89
185.246	419.39
185.465	598.29
185.684	663.28
185.903	2633.33
186.122	1029.6
186.341	1317.98
186.56	627.11
186.779	1080.83
186.998	1426.15
187.216	1430.71
187.435	1123.35
187.654	946.49
187.873	479.13
188.092	412.93
188.311	385.83
188.53	565.98
188.748	550.31
188.967	1304
189.186	763.22
189.405	884.85
189.623	904.63
189.842	772.43
190.061	880.86
190.28	2360.26
190.498	-2202.5
190.717	1482.54
190.936	-3015.25
191.154	-1476.79
191.373	-31466.67
191.592	-17154.55
191.81	-1051.72
192.029	-1486.26
192.248	-510.96
192.466	-485.75
192.685	-520.68
192.904	-795.97
193.122	-554.93
193.341	-1258.92
193.559	-1172.59
193.778	-1345.45
193.996	-1676.34
194.215	58500
194.433	-5435.71
194.652	1038.92
194.87	887.01
195.089	861.57
195.307	1021.58
195.526	3186.44
195.744	1561.4
195.963	1030.77
196.181	21725
196.399	-1559.83
196.618	9120
196.836	31050
197.055	-1647.54
197.273	-3562.07
197.491	-2327.78
197.71	-3911.76
197.928	2625
198.146	5076.19
198.365	-20850
198.583	1029.44
198.801	1321.64
199.019	2844.16
199.238	-4897.62
199.456	2004.72
199.674	910.17
199.892	685.33
200.111	838.85
200.329	832.45
200.547	680
200.765	570.42
200.983	622.29
201.202	446.67
201.42	696.46
201.638	468.16
201.856	561.08
202.074	1542.15
202.292	1863.64
202.51	1362.59
202.728	2156.7
202.946	-4655
203.165	6730.3
203.383	-2147.42
203.601	-2689.53
203.819	5224
204.037	25110
204.255	2760.82
204.473	1244.86
204.691	1750
204.909	1107.35
205.127	1170.7
205.345	1374.43
205.562	1185.15
205.78	801.34
205.998	984.08
206.216	820.71
206.434	812.5
206.652	691.82
206.87	524.78
207.088	442.17
207.306	564.5
207.523	508.17
207.741	424.38
207.959	442.76
208.177	494.36
208.395	378.18
208.612	428.83
208.83	403.85
209.048	440
209.266	571.74
209.483	580.24
209.701	456.67
209.919	538.83
210.136	516.87
210.354	1232.5
210.572	1200.9
210.79	1863.7
211.007	1136.68
211.225	1887.6
211.442	-11028.57
211.66	-3193.06
211.878	-1427.08
212.095	474.43
212.313	486.36
212.53	746.24
212.748	389.16
212.966	358.17
213.183	332.13
213.401	334.37
213.618	319.8
213.836	373.1
214.053	371.83
214.271	370.69
214.488	2098.32
214.705	1134.86
214.923	784.84
215.14	866.19
215.358	728.31
215.575	1069.81
215.793	1085.84
216.01	1438.65
216.227	518.3
216.445	392.59
216.662	428.7
216.879	467.12
217.097	396.75
217.314	438.09
217.531	580.28
217.749	621.59
217.966	790
218.183	610.19
218.4	703.26
218.618	861.42
218.835	908.68
219.052	609.31
219.269	517.52
219.487	785.07
219.704	545.71
219.921	384.14
220.138	298.7
220.355	277.11
220.572	306.43
220.79	323.37
221.007	383.8
221.224	544.68
221.441	509.86
221.658	527.52
221.875	379.49
222.092	393.68
222.309	591.67
222.526	639.92
222.743	574.83
222.96	739.15
223.177	366.88
223.394	391.36
223.611	245.17
223.828	312.02
224.045	334.43
224.262	370.98
224.479	255.07
224.696	205.15
224.913	238.12
225.13	212.72
225.347	190.75
225.564	187.12
225.781	146.15
225.997	143.02
226.214	115.63
226.431	101.61
226.648	87.89
226.865	82.08
227.082	76.26
227.298	68.51
227.515	59.81
227.732	58.83
227.949	52.95
228.165	50.84
228.382	47.71
228.599	43.67
228.816	44
229.032	45.83
229.249	43.38
229.466	44.44
229.682	44.51
229.899	50.61
230.116	48.66
230.332	53.87
230.549	57.67
230.765	60.55
230.982	65.23
231.199	71.25
231.415	74.51
231.632	85.98
231.848	90.52
232.065	96.83
232.281	93.63
232.498	105.06
232.714	103.41
232.931	97.6
233.147	97.61
233.364	103.15
233.58	99.74
233.797	105.93
234.013	97.45
234.23	95.01
234.446	98.75
234.662	92.07
234.879	84.9
235.095	92
235.312	104.48
235.528	108.15
235.744	109.61
235.961	108.8
236.177	96.87
236.393	103.44
236.61	117.77
236.826	114.87
237.042	123.02
237.258	124.48
237.475	108.78
237.691	99.68
237.907	98.94
238.123	99.31
238.339	89.64
238.556	91.82
238.772	88
238.988	75.95
239.204	72.31
239.42	71.03
239.636	71.25
239.853	72.78
240.069	68.51
240.285	64.31
240.501	59.96
240.717	56.78
240.933	51.72
241.149	47.2
241.365	44.22
241.581	42.33
241.797	38.27
242.013	35.6
242.229	33.56
242.445	35.42
242.661	34.7
242.877	34.06
243.093	35.28
243.309	38.43
243.525	41.04
243.741	42.61
243.957	44.12
244.173	46.49
244.388	45.75
244.604	48.63
244.82	42.89
245.036	40.89
245.252	38.57
245.468	35.7
245.683	31.87
245.899	29.57
246.115	29.19
246.331	26.99
246.547	25.46
246.762	24.08
246.978	22.74
247.194	22.69
247.409	21.94
247.625	22.34
247.841	22.87
248.057	23.96
248.272	25.51
248.488	25.71
248.703	28.34
248.919	30.44
249.135	33.91
249.35	33.76
249.566	37.95
249.782	41.52
249.997	42.21
250.213	40.71
250.428	39.94
250.644	39.97
250.859	39.22
251.075	38.78
251.29	39.22
251.506	39.21
251.721	38.98
251.937	38.99
252.152	37.25
252.368	36.53
252.583	40.08
252.798	43.15
253.014	43.61
253.229	46.73
253.445	47.13
253.66	47.79
253.875	48.2
254.091	56.4
254.306	56.2
254.521	60.34
254.737	61.07
254.952	62.14
255.167	61.23
255.383	58.59
255.598	54.09
255.813	51.96
256.028	51.49
256.244	51.89
256.459	44.6
256.674	43.13
256.889	41.74
257.104	40.23
257.32	35.99
257.535	31.48
257.75	29.48
257.965	26.45
258.18	24.48
258.395	23.4
258.61	21.02
258.826	21.26
259.041	19.37
259.256	19.1
259.471	18.72
259.686	17.93
259.901	17.57
260.116	17.96
260.331	18.87
260.546	18.91
260.761	18.37
260.976	19.56
261.191	20.34
261.406	22.39
261.621	22.89
261.836	24.89
262.05	27.7
262.265	32.12
262.48	33.19
262.695	34.56
262.91	36.1
263.125	37.25
263.34	38.22
263.555	37.89
263.769	40.67
263.984	39.16
264.199	40.05
264.414	39.72
264.629	36.2
264.843	35.14
265.058	35.5
265.273	34.15
265.488	33.12
265.702	31.54
265.917	32.02
266.132	29.21
266.346	30.26
266.561	27.96
266.776	29.09
266.99	31
267.205	30.93
267.42	28.47
267.634	30.1
267.849	29.14
268.063	30.15
268.278	30.74
268.492	31.3
268.707	30.59
268.922	30.03
269.136	28.47
269.351	26.45
269.565	25.49
269.78	26.27
269.994	25.47
270.209	25.45
270.423	23.54
270.637	21.93
270.852	20.33
271.066	20.95
271.281	21.72
271.495	20.37
271.709	20.01
271.924	21.58
272.138	21.47
272.353	22.22
272.567	22.47
272.781	23.59
272.996	22.85
273.21	22.74
273.424	23.03
273.638	23.61
273.853	24.47
274.067	26.24
274.281	25.97
274.495	27.01
274.71	26.69
274.924	28.18
275.138	28.16
275.352	28.77
275.566	30.93
275.781	29.75
275.995	28.31
276.209	28.44
276.423	27.66
276.637	26.05
276.851	26.15
277.065	26.53
277.279	26
277.493	24.72
277.707	23.17
277.921	22.92
278.135	24.87
278.349	26.45
278.563	27.37
278.777	26.49
278.991	27.68
279.205	26.42
279.419	23.62
279.633	24.11
279.847	25.91
280.061	27.37
280.275	27.64
280.489	26.35
280.703	24.12
280.917	23.71
281.131	23.9
281.344	23.61
281.558	24.35
281.772	24.75
281.986	24.5
282.2	23.7
282.414	21.87
282.627	20.41
282.841	20.03
283.055	21.98
283.269	21.29
283.482	20.92
283.696	21.35
283.91	20.34
284.123	20.84
284.337	19.33
284.551	18.29
284.764	20.17
284.978	19.65
285.192	19.49
285.405	19.33
285.619	19.35
285.833	19.42
286.046	18.11
286.26	18.63
286.473	17.66
286.687	18.45
286.9	20.53
287.114	19.64
287.327	20.82
287.541	20.02
287.754	19.06
287.968	18.51
288.181	19.58
288.395	19.44
288.608	19.98
288.822	21.52
289.035	22.25
289.248	21.07
289.462	21.5
289.675	21.7
289.889	22.33
290.102	21.25
290.315	22.08
290.529	21.25
290.742	22.44
290.955	21.85
291.169	21.49
291.382	20.42
291.595	21.42
291.808	20.92
292.022	19.89
292.235	20.56
292.448	22.62
292.661	21.6
292.875	22.67
293.088	22.49
293.301	22.52
293.514	22.08
293.727	22.08
293.94	20.25
294.153	21.36
294.367	21.97
294.58	21.24
294.793	20.48
295.006	21.61
295.219	19.78
295.432	19.55
295.645	19.26
295.858	18.89
296.071	18.94
296.284	18.93
296.497	17.64
296.71	17.89
296.923	17.99
297.136	17.24
297.349	16.48
297.562	17.21
297.775	17.95
297.988	17.6
298.201	18.23
298.414	17.84
298.626	18.74
298.839	19.26
299.052	19
299.265	19.13
299.478	20.51
299.691	20.49
299.903	20.12
300.116	19.4
300.329	19.42
300.542	19.46
300.755	21.54
300.967	21.87
301.18	22.39
301.393	22.86
301.605	23.26
301.818	22.53
302.031	23.52
302.243	23.84
302.456	23.66
302.669	24.95
302.881	24.76
303.094	23.5
303.307	22.26
303.519	22.83
303.732	22.99
303.944	21.72
304.157	21.96
304.37	22.75
304.582	24
304.795	23.95
305.007	23.72
305.22	24.41
305.432	24.71
305.645	25.83
305.857	26.31
306.069	25.24
306.282	25.85
306.494	25.8
306.707	24.54
306.919	23.25
307.132	22.37
307.344	22.42
307.556	21.45
307.769	21.68
307.981	21.28
308.193	19.38
308.406	19.64
308.618	20.53
308.83	20.31
309.043	19.64
309.255	20.58
309.467	21.64
309.679	21.53
309.892	21.83
310.104	20.96
310.316	20.57
310.528	21.41
310.74	20.96
310.953	20.07
311.165	20.93
311.377	20.8
311.589	19.95
311.801	19.5
312.013	19.6
312.225	21.05
312.437	21.1
312.649	22.23
312.862	24
313.074	24.03
313.286	25.34
313.498	25.6
313.71	25.51
313.922	27.27
314.134	28.37
314.346	28.3
314.558	25.84
314.77	25.6
314.982	24.2
315.193	23.02
315.405	23.51
315.617	22.92
315.829	22.93
316.041	25.2
316.253	23.06
316.465	23.33
316.677	22.67
316.888	23.8
317.1	24.18
317.312	24.22
317.524	22.65
317.736	23.42
317.947	24.05
318.159	24.6
318.371	23.41
318.583	23.89
318.794	24.15
319.006	24.37
319.218	23.29
319.43	24.85
319.641	26.82
319.853	28.16
320.064	28.42
320.276	28.27
320.488	27.16
320.699	28.61
320.911	29.91
321.123	30.36
321.334	32.06
321.546	33.86
321.757	32.76
321.969	31.95
322.18	31
322.392	29.47
322.603	28.2
322.815	26.92
323.026	25.86
323.238	25.16
323.449	23.14
323.661	22.38
323.872	21.88
324.083	21.12
324.295	20.63
324.506	21.05
324.718	20.3
324.929	20.67
325.14	21.3
325.352	21.96
325.563	21.83
325.774	22.52
325.986	21.74
326.197	21.78
326.408	22.22
326.62	22.4
326.831	22.52
327.042	23.63
327.253	23.23
327.464	23.45
327.676	22.76
327.887	23.65
328.098	23.27
328.309	23.46
328.52	24.12
328.732	25
328.943	25.34
329.154	24.93
329.365	25.35
329.576	26.47
329.787	26.88
329.998	27.93
330.209	27.08
330.42	28.29
330.631	29.79
330.842	28.92
331.053	29.7
331.264	30.21
331.475	28.86
331.686	29.16
331.897	27.99
332.108	28.66
332.319	27.61
332.53	27.11
332.741	26.5
332.952	26.16
333.163	26.53
333.374	24.7
333.585	23.62
333.795	25.36
334.006	24.51
334.217	24.14
334.428	23.02
334.639	22.49
334.849	22.28
335.06	22.47
335.271	21.75
335.482	22.4
335.692	22.44
335.903	23.05
336.114	24.09
336.325	24.45
336.535	26.06
336.746	26.97
336.957	27.75
337.167	27.36
337.378	27.52
337.589	27.12
337.799	27.09
338.01	28.02
338.22	26.98
338.431	26.38
338.642	25.03
338.852	24.43
339.063	24.9
339.273	23.6
339.484	24.96
339.694	24
339.905	24.34
340.115	23.84
340.326	22.88
340.536	24.28
340.746	24.49
340.957	25.3
341.167	24.87
341.378	24.11
341.588	24.95
341.799	23.94
342.009	23.94
342.219	23.15
342.43	23.46
342.64	23.4
342.85	22.61
343.061	21.19
343.271	21.19
343.481	20.6
343.691	20.53
343.902	20.36
344.112	19.72
344.322	19.14
344.532	20.33
344.743	20.11
344.953	20.51
345.163	20.31
345.373	20.76
345.583	21.81
345.793	22.05
346.004	20.71
346.214	19.84
346.424	19.85
346.634	19.67
346.844	19.43
347.054	19.53
347.264	19.13
347.474	19.96
347.684	19.7
347.894	18.24
348.104	18.75
348.314	20.34
348.524	21.33
348.734	22.31
348.944	23.34
349.154	22.87
349.364	22.7
349.574	22.91
349.784	23.18
349.994	22.87
350.204	23.17
350.413	22.47
350.623	21.3
350.833	21.12
351.043	20.1
351.253	19.76
351.463	19.86
351.672	19.45
351.882	19.4
352.092	19.25
352.302	19.84
352.511	20.56
352.721	20.66
352.931	20.92
353.141	21.05
353.35	21.01
353.56	20.73
353.77	20.82
353.979	20.9
354.189	19.87
354.399	18.1
354.608	17.98
354.818	17.55
355.027	17.38
355.237	17.38
355.447	17.11
355.656	17.46
355.866	17.01
356.075	16.54
356.285	16.13
356.494	15.85
356.704	15.78
356.913	15.43
357.123	15.39
357.332	14.97
357.542	14.96
357.751	14.45
357.96	14.51
358.17	14.06
358.379	14.68
358.589	14.61
358.798	15.07
359.007	15.68
359.217	14.87
359.426	14.41
359.635	15.05
359.845	13.77
360.054	13.31
360.263	13.49
360.472	13.42
360.682	13
360.891	13.42
361.1	13.37
361.309	12.6
361.519	13.02
361.728	13.65
361.937	13.36
362.146	14.39
362.355	15.46
362.564	15.61
362.774	16.15
362.983	16.17
363.192	16.21
363.401	16.74
363.61	17.15
363.819	17.5
364.028	17
364.237	17.29
364.446	17.31
364.655	17.04
364.864	17.84
365.073	19.19
365.282	19.21
365.491	18.91
365.7	18.51
365.909	18.91
366.118	18.27
366.327	18.52
366.536	18.64
366.745	18.77
366.954	19.69
367.162	18.79
367.371	17.63
367.58	17.72
367.789	17.78
367.998	17.63
368.207	17.57
368.415	18.53
368.624	17.86
368.833	17.87
369.042	17.9
369.25	17.37
369.459	17.87
369.668	18.08
369.877	18.38
370.085	18.12
370.294	17.95
370.503	18.16
370.711	18.25
370.92	18.57
371.129	19
371.337	19.02
371.546	18.31
371.754	17.93
371.963	17.76
372.171	17.45
372.38	17.45
372.589	18.15
372.797	18.39
373.006	17.64
373.214	17.73
373.423	17.17
373.631	17.02
373.84	17.16
374.048	16.36
374.256	15.96
374.465	16.02
374.673	16.29
374.882	14.98
375.09	13.17
375.298	13.93
375.507	13.07
375.715	12.63
375.923	11.68
376.132	11.86
376.34	12.1
376.548	12.56
376.757	12.6
376.965	12.27
377.173	12.95
377.381	14.44
377.59	14.3
377.798	14.29
378.006	14.38
378.214	14.54
378.423	14.75
378.631	14.51
378.839	14.03
379.047	13.89
379.255	14.11
379.463	14.45
379.671	14.35
379.879	14.03
380.088	14.81
380.296	15.22
380.504	15.74
380.712	14.32
380.92	15.23
381.128	15.1
381.336	14.99
381.544	14.25
381.752	13.77
381.96	13.73
382.168	13.9
382.376	13.27
382.584	13
382.791	12.27
382.999	13.77
383.207	12.61
383.415	13.33
383.623	13.18
383.831	12.87
384.039	13.14
384.247	13.48
384.454	13.68
384.662	13.82
384.87	13.37
385.078	14.02
385.285	13.73
385.493	13.89
385.701	13.65
385.909	13.76
386.116	14.19
386.324	14.11
386.532	14.18
386.739	13.23
386.947	13.32
387.155	14.09
387.362	13.72
387.57	13.47
387.778	13.82
387.985	13.4
388.193	13.56
388.4	13.9
388.608	13.83
388.816	12.75
389.023	12.71
389.231	12.88
389.438	12.28
389.646	12.88
389.853	13.14
390.061	12.77
390.268	12.66
390.475	11.94
390.683	11.52
390.89	11.7
391.098	11.08
391.305	11.89
391.512	11.2
391.72	10.47
391.927	10.33
392.135	10.12
392.342	10.04
392.549	10.23
392.756	10.9
392.964	11.22
393.171	10.99
393.378	11.5
393.586	10.76
393.793	10.7
394	11.81
394.207	11.7
394.414	11.41
394.622	11.66
394.829	11.46
395.036	10.97
395.243	11.28
395.45	11.83
395.657	12.49
395.864	13.29
396.072	14.17
396.279	13.88
396.486	14.2
396.693	15.16
396.9	14.96
397.107	15.37
397.314	15.94
397.521	15.45
397.728	14.95
397.935	14.77
398.142	14.21
398.349	14.12
398.556	13.85
398.763	13.62
398.97	13.06
399.177	13.02
399.383	13.38
399.59	13.33
399.797	13.55
400.004	13.89
400.211	13.67
400.418	14.19
400.625	14.43
400.831	14.17
401.038	13.7
401.245	13.89
401.452	13.98
401.658	13.18
401.865	12.99
402.072	12.58
402.279	12.33
402.485	12.73
402.692	11.78
402.899	11.13
403.105	11.5
403.312	11.95
403.519	11.84
403.725	11.38
403.932	11.47
404.138	10.89
404.345	11.27
404.552	11.13
404.758	10.91
404.965	10.95
405.171	10.98
405.378	11.06
405.584	10.74
405.791	10.69
405.997	11.01
406.204	10.7
406.41	10.93
406.617	10.13
406.823	10.6
407.029	10.14
407.236	10.09
407.442	10.15
407.649	10.16
407.855	10.59
408.061	10.67
408.268	11.02
408.474	11.6
408.68	10.84
408.887	10.98
409.093	10.83
409.299	11.16
409.505	11.46
409.712	10.83
409.918	10.16
410.124	9.69
410.33	8.84
410.537	8.43
410.743	8.07
410.949	8.67
411.155	8.84
411.361	8.78
411.567	8.83
411.773	8.43
411.98	8.91
412.186	9.51
412.392	9.67
412.598	9.39
412.804	9.13
413.01	9.07
413.216	10
413.422	10.33
413.628	9.92
413.834	9.52
414.04	10.51
414.246	10.6
414.452	10.73
414.658	10.93
414.864	11.76
415.07	12.42
415.275	12.55
415.481	12.08
415.687	12
415.893	11.98
416.099	11.83
416.305	11.36
416.511	11.05
416.716	10.22
416.922	9.8
417.128	9.2
417.334	8.72
417.539	8.2
417.745	7.9
417.951	7.37
418.157	7.01
418.362	6.94
418.568	6.33
418.774	5.55
418.979	5.66
419.185	5.46
419.391	5.79
419.596	5.62
419.802	5.76
420.008	5.61
420.213	5.65
420.419	5.73
420.624	5.63
420.83	5.92
421.035	6.35
421.241	6.22
421.446	6.19
421.652	5.83
421.857	5.84
422.063	5.98
422.268	5.87
422.474	6.03
422.679	5.95
422.885	6.03
423.09	5.85
423.295	5.78
423.501	5.96
423.706	6.01
423.911	6.26
424.117	6.25
424.322	5.95
424.527	6.06
424.733	5.94
424.938	6.1
425.143	6.03
425.349	6.05
425.554	6.46
425.759	6.43
425.964	6.45
426.169	6.43
426.375	6.63
426.58	6.87
426.785	6.86
426.99	7.06
427.195	7.04
427.4	6.96
427.605	7.5
427.811	7
428.016	7.04
428.221	7.1
428.426	7.31
428.631	7.38
428.836	7.3
429.041	7.61
429.246	7.86
429.451	8.25
429.656	8.44
429.861	8.17
430.066	8.57
430.271	9.05
430.476	8.84
430.681	8.62
430.886	8.42
431.09	8.24
431.295	7.96
431.5	7.75
431.705	7.32
431.91	7.04
432.115	6.79
432.32	6.98
432.524	6.73
432.729	6.89
432.934	6.59
433.139	6.55
433.343	6.7
433.548	6.17
433.753	6.08
433.958	6.33
434.162	6.29
434.367	6.19
434.572	5.9
434.776	5.92
434.981	5.89
435.186	5.82
435.39	6.04
435.595	6.45
435.799	6.65
436.004	6.2
436.209	5.88
436.413	6.05
436.618	6.3
436.822	6.58
437.027	6.16
437.231	5.8
437.436	6.3
437.64	5.81
437.845	5.3
438.049	5.48
438.253	5.86
438.458	5.78
438.662	5.88
438.867	5.68
439.071	5.32
439.275	5.43
439.48	5.68
439.684	5.41
439.888	5.39
440.093	5.99
440.297	6
440.501	5.94
440.706	5.96
440.91	5.88
441.114	6.01
441.318	6.22
441.523	6.28
441.727	6.4
441.931	6.37
442.135	6.88
442.339	6.54
442.543	6.66
442.748	6.77
442.952	7.02
443.156	7.02
443.36	6.61
443.564	6.75
443.768	6.25
443.972	6.41
444.176	6.17
444.38	5.99
444.584	5.78
444.788	5.29
444.992	4.89
445.196	4.78
445.4	4.63
445.604	4.89
445.808	4.53
446.012	4.82
446.216	4.45
446.42	4.6
446.624	4.57
446.828	4.45
447.032	4.7
447.235	5.12
447.439	5.04
447.643	5.3
447.847	5.44
448.051	5.7
448.254	5.94
448.458	5.85
448.662	5.96
448.866	6.43
449.069	6.54
449.273	6.74
449.477	6.38
449.681	6.52
449.884	6.26
450.088	6.41
450.292	6.05
450.495	5.88
450.699	6.42
450.902	6.39
451.106	5.88
451.31	6.35
451.513	6.49
451.717	6.64
451.92	6.73
452.124	6.84
452.327	6.75
452.531	6.93
452.734	6.79
452.938	6.77
453.141	6.73
453.345	6.68
453.548	6.21
453.752	6.3
453.955	6.7
454.158	6.28
454.362	6.65
454.565	6.75
454.769	6.62
454.972	6.95
455.175	6.77
455.379	7.06
455.582	6.79
455.785	6.69
455.988	6.44
456.192	6.11
456.395	6.47
456.598	6.14
456.801	6.14
457.005	6.54
457.208	6.22
457.411	5.93
457.614	5.9
457.817	6.19
458.021	6.35
458.224	6.16
458.427	5.96
458.63	6.02
458.833	5.92
459.036	5.44
459.239	5.23
459.442	5.2
459.645	5.42
459.848	5.29
460.051	5.21
460.254	5.31
460.457	5.2
460.66	5.21
460.863	5.24
461.066	5.29
461.269	5.83
461.472	5.79
461.675	5.98
461.878	6.06
462.081	6.27
462.284	6.23
462.486	6.19
462.689	6.74
462.892	7.25
463.095	7.46
463.298	7.82
463.5	7.66
463.703	7.86
463.906	7.77
464.109	7.68
464.311	8.02
464.514	8.52
464.717	8.51
464.92	8.18
465.122	8
465.325	7.73
465.528	7.43
465.73	7.12
465.933	7.11
466.135	7.39
466.338	7.35
466.541	6.59
466.743	6.12
466.946	6.01
467.148	6.32
467.351	6.07
467.553	6.07
467.756	6.31
467.958	6.38
468.161	6.44
468.363	6.28
468.566	6.21
468.768	6.54
468.971	6.73
469.173	6.9
469.375	6.86
469.578	6.77
469.78	6.48
469.983	6.15
470.185	6.54
470.387	6.8
470.59	7
470.792	7.11
470.994	6.86
471.196	6.92
471.399	6.79
471.601	6.53
471.803	6.81
472.005	7.12
472.208	7.18
472.41	6.56
472.612	6.3
472.814	5.73
473.016	5.63
473.218	5.79
473.421	5.5
473.623	5.44
473.825	5.55
474.027	5.6
474.229	5.45
474.431	5.46
474.633	5.97
474.835	5.88
475.037	6.07
475.239	5.94
475.441	6.05
475.643	6.53
475.845	6.54
476.047	6.62
476.249	6.31
476.451	6.05
476.653	6.1
476.855	5.95
477.057	5.94
477.258	5.98
477.46	6.27
477.662	6.08
477.864	5.59
478.066	5.66
478.268	5.49
478.469	5.3
478.671	5.29
478.873	5.4
479.075	5.42
479.276	5.39
479.478	5.14
479.68	4.91
479.882	4.58
480.083	4.47
480.285	4.36
480.487	4.31
480.688	4.66
480.89	4.71
481.091	4.53
481.293	4.29
481.495	4.12
481.696	4.17
481.898	4.09
482.099	4.26
482.301	4.15
482.502	3.87
482.704	3.67
482.905	3.5
483.107	3.3
483.308	3.21
483.51	3.12
483.711	3.11
483.913	3.04
484.114	3.05
484.315	3
484.517	3.05
484.718	3.1
484.92	3.15
485.121	3.09
485.322	3.38
485.524	3.35
485.725	3.47
485.926	3.45
486.127	3.51
486.329	3.4
486.53	3.32
486.731	3.26
486.932	3.23
487.134	3.33
487.335	3.35
487.536	3.17
487.737	3.25
487.938	3.29
488.139	3.32
488.341	3.2
488.542	3.37
488.743	3.54
488.944	3.71
489.145	3.79
489.346	3.81
489.547	3.87
489.748	3.95
489.949	3.81
490.15	3.82
490.351	3.78
490.552	3.87
490.753	3.79
490.954	3.6
491.155	3.6
491.356	3.7
491.557	3.69
491.758	3.78
491.959	3.64
492.159	4
492.36	4
492.561	4.09
492.762	4.19
492.963	4.22
493.164	4.49
493.364	4.48
493.565	4.59
493.766	4.79
493.967	4.76
494.167	5.29
494.368	5.03
494.569	5.04
494.769	5.12
494.97	5.26
495.171	5.4
495.371	5.41
495.572	5.38
495.773	5.24
495.973	5.08
496.174	5.1
496.375	5.09
496.575	5.11
496.776	5.2
496.976	5
497.177	5.02
497.377	5.04
497.578	4.89
497.778	4.99
497.979	5.28
498.179	5.24
498.38	5.29
498.58	5.09
498.78	5
498.981	5.19
499.181	5.31
499.382	5.22
499.582	5.25
499.782	5.36
499.983	5.49
500.183	5.11
500.383	5.19
500.584	5.36
500.784	5.51
500.984	5.8
501.184	5.48
501.385	5.54
501.585	5.4
501.785	5.48
501.985	5.71
502.185	5.62
502.386	5.88
502.586	5.82
502.786	5.68
502.986	5.49
503.186	5.63
503.386	5.84
503.586	6.05
503.786	6.16
503.987	5.88
504.187	5.85
504.387	6.06
504.587	5.81
504.787	5.99
504.987	6.04
505.187	6.39
505.387	6.4
505.587	6.29
505.786	6.34
505.986	6.74
506.186	7.02
506.386	7.01
506.586	6.9
506.786	7.08
506.986	7.09
507.186	7.16
507.386	6.91
507.585	6.83
507.785	6.86
507.985	6.82
508.185	6.27
508.384	6.27
508.584	6.18
508.784	6.07
508.984	5.99
509.183	5.87
509.383	5.71
509.583	5.68
509.782	5.64
509.982	5.62
510.182	5.52
510.381	5.71
510.581	5.79
510.781	5.64
510.98	5.58
511.18	5.84
511.379	5.88
511.579	5.96
511.778	6.16
511.978	6.2
512.177	6.19
512.377	6.2
512.576	6.34
512.776	6.29
512.975	6.44
513.175	6.66
513.374	6.58
513.573	6.62
513.773	6.63
513.972	6.49
514.172	6.53
514.371	6.87
514.57	6.93
514.77	6.94
514.969	7.14
515.168	7.21
515.367	7.26
515.567	7.48
515.766	7.5
515.965	7.65
516.164	7.79
516.364	7.88
516.563	7.66
516.762	7.86
516.961	7.76
517.16	7.54
517.359	7.5
517.559	7.35
517.758	7.08
517.957	7.09
518.156	7.16
518.355	7.13
518.554	7.24
518.753	7.19
518.952	6.97
519.151	7.08
519.35	7.21
519.549	7.22
519.748	7.51
519.947	7.59
520.146	7.88
520.345	7.87
520.544	7.87
520.743	7.94
520.942	8.22
521.141	8.59
521.339	8.86
521.538	8.88
521.737	8.82
521.936	8.5
522.135	8.66
522.333	8.79
522.532	8.63
522.731	8.89
522.93	8.33
523.129	7.98
523.327	7.93
523.526	7.84
523.725	7.96
523.923	8.24
524.122	8.17
524.321	8.17
524.519	8
524.718	8.09
524.917	7.78
525.115	8.02
525.314	8.27
525.512	8.18
525.711	7.93
525.909	7.73
526.108	7.51
526.306	7.71
526.505	7.6
526.703	7.33
526.902	7.35
527.1	7.35
527.299	7.23
527.497	7.05
527.696	6.94
527.894	7
528.092	6.92
528.291	6.97
528.489	6.8
528.688	6.69
528.886	6.74
529.084	6.63
529.283	6.7
529.481	6.68
529.679	6.73
529.877	6.75
530.076	6.87
530.274	7.14
530.472	7.29
530.67	7.48
530.869	7.74
531.067	7.88
531.265	8.07
531.463	8.15
531.661	8.27
531.859	8.19
532.057	8.31
532.255	8.21
532.454	8.09
532.652	7.88
532.85	7.92
533.048	7.96
533.246	7.95
533.444	8
533.642	8.03
533.84	8.03
534.038	8.23
534.236	8.45
534.434	8.53
534.632	8.7
534.83	8.99
535.027	9.03
535.225	9.11
535.423	9.41
535.621	9.35
535.819	9.46
536.017	9.3
536.215	9.23
536.412	9.08
536.61	9.23
536.808	9.13
537.006	9.1
537.203	9.46
537.401	9.53
537.599	9.42
537.797	9.69
537.994	9.65
538.192	10.05
538.39	10.33
538.587	10.35
538.785	10.13
538.983	10.22
539.18	10.28
539.378	10.15
539.575	10.11
539.773	10.08
539.97	9.95
540.168	9.83
540.366	9.88
540.563	9.87
540.761	9.8
540.958	9.86
541.155	9.85
541.353	9.84
541.55	9.65
541.748	9.69
541.945	9.74
542.143	9.76
542.34	9.91
542.537	9.87
542.735	9.87
542.932	10.03
543.129	10.3
543.327	10.46
543.524	10.53
543.721	10.69
543.919	10.97
544.116	11.31
544.313	11.37
544.51	11.33
544.708	11.63
544.905	11.89
545.102	12.04
545.299	12
545.496	12
545.693	12.07
545.891	12.3
546.088	12.31
546.285	12.1
546.482	12.28
546.679	12.39
546.876	12.3
547.073	12.12
547.27	11.81
547.467	11.82
547.664	11.75
547.861	11.86
548.058	12.1
548.255	12.01
548.452	12.18
548.649	12.56
548.846	12.76
549.043	13.02
549.24	13.58
549.437	14.16
549.633	14.41
549.83	15.03
550.027	15.39
550.224	15.29
550.421	15.56
550.618	15.62
550.814	15.59
551.011	15.95
551.208	15.66
551.405	15.62
551.601	15.49
551.798	15.59
551.995	15.1
552.191	15.05
552.388	15.2
552.585	15.07
552.781	15.15
552.978	15.08
553.175	14.77
553.371	15
553.568	15.03
553.764	15.43
553.961	15.51
554.157	15.73
554.354	15.64
554.55	15.55
554.747	15.64
554.943	15.26
555.14	15.59
555.336	15.95
555.533	16.23
555.729	16.18
555.926	16.66
556.122	16.5
556.318	17.09
556.515	17.4
556.711	17.61
556.907	17.71
557.104	18.3
557.3	17.99
557.496	17.96
557.693	17.99
557.889	18.31
558.085	18.02
558.281	18.41
558.478	18.24
558.674	18.35
558.87	18.05
559.066	18.18
559.262	17.84
559.459	17.89
559.655	18.22
559.851	18.26
560.047	18.21
560.243	18.12
560.439	18.09
560.635	17.68
560.831	17.84
561.027	18.12
561.223	18.36
561.419	18.72
561.615	19.18
561.811	18.9
562.007	19.02
562.203	18.95
562.399	19.07
562.595	19.15
562.791	19.65
562.987	19.93
563.183	20.1
563.379	20.08
563.575	20.35
563.771	19.97
563.966	20.02
564.162	19.74
564.358	19.96
564.554	19.72
564.75	19.51
564.945	19.32
565.141	18.76
565.337	18.41
565.533	18.24
565.728	17.86
565.924	18.09
566.12	18.36
566.315	18.21
566.511	18.1
566.707	18.37
566.902	18.25
567.098	18.7
567.293	18.88
567.489	19.17
567.684	19.3
567.88	19.55
568.076	19.39
568.271	19.33
568.467	19.72
568.662	19.84
568.858	20.16
569.053	20.55
569.248	20.25
569.444	20.57
569.639	20.79
569.835	20.62
570.03	20.43
570.225	20.42
570.421	20.2
570.616	20.2
570.812	20.1
571.007	19.62
571.202	19.45
571.397	19.58
571.593	19.54
571.788	19.47
571.983	19.79
572.178	20.02
572.374	20.07
572.569	20.16
572.764	20.53
572.959	20.64
573.154	21.05
573.35	21.44
573.545	21.8
573.74	21.48
573.935	21.54
574.13	21.55
574.325	21.67
574.52	22.15
574.715	22.53
574.91	22.11
575.105	22.16
575.3	22.28
575.495	22.19
575.69	21.69
575.885	22.24
576.08	22.49
576.275	22.53
576.47	22.89
576.665	22.97
576.86	23.19
577.055	23.41
577.25	23.45
577.444	23.23
577.639	23.27
577.834	24.08
578.029	24.05
578.224	23.93
578.418	24.27
578.613	23.83
578.808	24.01
579.003	23.9
579.197	23.99
579.392	24.34
579.587	23.92
579.781	23.91
579.976	23.86
580.171	23.95
580.365	23.9
580.56	23.63
580.755	24.38
580.949	23.89
581.144	24.02
581.338	24.15
581.533	24.02
581.727	24.47
581.922	24.68
582.116	24.79
582.311	24.44
582.505	24.51
582.7	24.59
582.894	24.37
583.089	24.47
583.283	24.41
583.478	24.59
583.672	24.34
583.866	24.89
584.061	24.94
584.255	24.31
584.449	24.5
584.644	24.5
584.838	24.53
585.032	24.89
585.226	24.88
585.421	24.86
585.615	24.76
585.809	25.3
586.003	25.02
586.198	25.41
586.392	25.6
586.586	25.66
586.78	25.73
586.974	25.93
587.168	25.52
587.363	25.56
587.557	25.53
587.751	25.92
587.945	25.44
588.139	25.65
588.333	25.33
588.527	25.54
588.721	25.83
588.915	26.2
589.109	25.8
589.303	26.12
589.497	26.2
589.691	26.4
589.885	26.12
590.079	26.63
590.273	26.57
590.466	26.82
590.66	26.86
590.854	26.51
591.048	26.46
591.242	27.03
591.436	26.8
591.629	26.57
591.823	26.5
592.017	26.46
592.211	26.72
592.404	26.72
592.598	26.01
592.792	25.61
592.986	26.09
593.179	25.9
593.373	25.73
593.567	25.6
593.76	25.93
593.954	25.81
594.147	26.22
594.341	25.86
594.535	26.07
594.728	26.7
594.922	26.8
595.115	26.42
595.309	26.43
595.502	26.44
595.696	26.53
595.889	26.64
596.083	26.61
596.276	26.2
596.47	26.37
596.663	26.31
596.856	26.32
597.05	26.23
597.243	26.49
597.437	26.54
597.63	26.54
597.823	26.73
598.017	26.62
598.21	26.67
598.403	26.97
598.596	27.31
598.79	27.34
598.983	27.29
599.176	27.44
599.369	27.86
599.563	28.16
599.756	28.21
599.949	28.22
600.142	27.95
600.335	28.24
600.528	28.11
600.722	27.74
600.915	27.42
601.108	27.69
601.301	28.07
601.494	27.59
601.687	27.37
601.88	27.69
602.073	27.61
602.266	27.61
602.459	27.54
602.652	27.36
602.845	27.23
603.038	27.26
603.231	27.08
603.424	26.77
603.617	26.61
603.809	26.55
604.002	26.19
604.195	26.2
604.388	26.65
604.581	26.81
604.774	26.97
604.966	26.75
605.159	26.98
605.352	26.82
605.545	27.15
605.737	27.27
605.93	27.64
606.123	28.08
606.316	28.11
606.508	27.86
606.701	27.77
606.894	27.83
607.086	28.27
607.279	28.45
607.471	28.69
607.664	28.71
607.857	28.82
608.049	28.17
608.242	28.18
608.434	28.26
608.627	28.04
608.819	27.81
609.012	27.74
609.204	27.82
609.397	27.28
609.589	27.42
609.782	27.62
609.974	27.41
610.166	27.53
610.359	27.27
610.551	27.4
610.743	27.92
610.936	28.21
611.128	28.46
611.32	28.12
611.513	28.34
611.705	28.31
611.897	28.12
612.09	28.43
612.282	29.29
612.474	29.24
612.666	29.11
612.858	28.89
613.051	29.36
613.243	29.19
613.435	29.46
613.627	29.9
613.819	29.63
614.011	30.47
614.203	30.93
614.395	30.86
614.588	30.58
614.78	30.68
614.972	30.76
615.164	30.16
615.356	30.79
615.548	30.89
615.74	31.16
615.932	31.73
616.124	30.61
616.315	31.26
616.507	31.43
616.699	31.96
616.891	31.79
617.083	32.04
617.275	32
617.467	31.64
617.659	31.61
617.85	31.39
618.042	30.96
618.234	31.77
618.426	31.33
618.618	31.11
618.809	31.3
619.001	31.81
619.193	31.49
619.384	32.45
619.576	32.72
619.768	33.39
619.959	33.08
620.151	33.37
620.343	32.94
620.534	32.78
620.726	31.9
620.917	31.58
621.109	31.64
621.301	32.12
621.492	31.48
621.684	31.51
621.875	31.17
622.067	31.55
622.258	31.4
622.45	31.45
622.641	30.67
622.832	30.98
623.024	31.46
623.215	30.26
623.407	29.87
623.598	30.32
623.789	29.83
623.981	30.34
624.172	29.77
624.363	29.57
624.555	29.48
624.746	29.4
624.937	29.49
625.129	29.52
625.32	30.26
625.511	30.41
625.702	29.79
625.893	30.33
626.085	29.52
626.276	30.15
626.467	30.33
626.658	30.32
626.849	30.78
627.04	31.1
627.231	31.07
627.422	31.06
627.614	31.5
627.805	31.57
627.996	31.25
628.187	31.32
628.378	31.25
628.569	31.29
628.76	31.62
628.951	31.42
629.142	31.55
629.332	31.43
629.523	31.17
629.714	31.25
629.905	31.38
630.096	31.42
630.287	31.77
630.478	31.82
630.669	31.88
630.859	32.2
631.05	32.56
631.241	32.37
631.432	32.63
631.623	32.87
631.813	32.12
632.004	31.64
632.195	31.36
632.385	31.77
632.576	31.48
632.767	31.43
632.957	30.85
633.148	30.64
633.339	30.21
633.529	30.07
633.72	30.32
633.91	30.62
634.101	31.22
634.292	31.96
634.482	31.43
634.673	31.58
634.863	31.76
635.054	31.95
635.244	32.11
635.435	33.12
635.625	33.03
635.815	32.82
636.006	33.04
636.196	33.4
636.387	33.3
636.577	33.8
636.767	33.9
636.958	33.99
637.148	34.43
637.338	34.39
637.529	33.65
637.719	33.36
637.909	33.63
638.099	33.42
638.29	32.94
638.48	33.09
638.67	32.98
638.86	32.92
639.05	32.64
639.241	32.23
639.431	32.45
639.621	33.75
639.811	34.6
640.001	34.86
640.191	35.05
640.381	35.91
640.571	35.6
640.761	35.61
640.951	36.46
641.141	37.1
641.331	37.05
641.521	37.6
641.711	36.89
641.901	36.42
642.091	36.75
642.281	36.18
642.471	35.69
642.661	35.59
642.851	36.13
643.041	35.69
643.231	35.34
643.42	35.42
643.61	35.17
643.8	35.23
643.99	34.92
644.18	34.47
644.369	34.66
644.559	34.74
644.749	34.91
644.939	34
645.128	33.73
645.318	33.82
645.508	33.67
645.697	33.74
645.887	33.15
646.076	33.47
646.266	33.43
646.456	33.81
646.645	33.78
646.835	33.56
647.024	33.84
647.214	33.83
647.403	33.02
647.593	33.02
647.782	32.33
647.972	32.02
648.161	31.63
648.351	31.81
648.54	32.17
648.73	31.79
648.919	31.99
649.108	31.75
649.298	31.98
649.487	32.68
649.677	33.03
649.866	33.06
650.055	33.7
650.244	34.52
650.434	33.71
650.623	33.7
650.812	33.9
651.002	34.36
651.191	34.51
651.38	34.94
651.569	34.61
651.758	34.48
651.947	34.93
652.137	35.34
652.326	35.4
652.515	35.74
652.704	36.28
652.893	35.95
653.082	36.17
653.271	36.98
653.46	36.25
653.649	36.85
653.838	36.97
654.027	37.27
654.216	37.01
654.405	36.97
654.594	37.56
654.783	37.61
654.972	38.31
655.161	38.1
655.35	37.13
655.539	36.97
655.728	36.83
655.916	36.5
656.105	36.52
656.294	35.95
656.483	36.2
656.672	35.66
656.86	34.33
657.049	34.44
657.238	33.61
657.427	33.71
657.615	33.59
657.804	33.2
657.993	32.67
658.181	31.51
658.37	32.59
658.559	32.4
658.747	32.14
658.936	32.81
659.125	33.14
659.313	33.59
659.502	33.82
659.69	34.28
659.879	34.03
660.067	35.09
660.256	35.53
660.444	35.25
660.633	35.55
660.821	36.21
661.01	35.57
661.198	35.1
661.387	34.99
661.575	34.55
661.763	34.42
661.952	35.25
662.14	35.44
662.328	36.24
662.517	35.68
662.705	34.31
662.893	33.72
663.082	34.67
663.27	33.92
663.458	32.84
663.646	33.52
663.834	34.04
664.023	34.46
664.211	33.5
664.399	33.67
664.587	33.6
664.775	34.42
664.963	35.9
665.152	35.61
665.34	36.42
665.528	37.2
665.716	37.35
665.904	37.43
666.092	37.27
666.28	37.84
666.468	37.71
666.656	37.76
666.844	37.77
667.032	37.62
667.22	37.44
667.408	36.97
667.596	37.56
667.784	37.68
667.971	37.4
668.159	37.41
668.347	36.8
668.535	36.76
668.723	36.61
668.911	36.77
669.098	36.9
669.286	37.13
669.474	38.08
669.662	37.72
669.849	38.07
670.037	38.28
670.225	38.55
670.413	39.05
670.6	39.19
670.788	40
670.976	40.02
671.163	39.45
671.351	39.11
671.538	38.83
671.726	40.06
671.913	38.89
672.101	38.44
672.289	38.14
672.476	37.44
672.664	37.87
672.851	37.81
673.039	38.52
673.226	37.94
673.413	38.64
673.601	38.73
673.788	37.59
673.976	38.31
674.163	38.74
674.35	38.49
674.538	40.11
674.725	40.68
674.912	40.29
675.1	39.43
675.287	40.15
675.474	39.83
675.662	39.28
675.849	40.54
676.036	40.46
676.223	40.76
676.411	41.6
676.598	40.67
676.785	39.65
676.972	39.84
677.159	39.89
677.346	39.64
677.533	39.39
677.721	40.18
677.908	39.42
678.095	39.87
678.282	39.23
678.469	39.03
678.656	38.73
678.843	38.62
679.03	38.3
679.217	38.67
679.404	38.75
679.591	38.87
679.778	38.19
679.964	37.77
680.151	37.46
680.338	37.41
680.525	36.65
680.712	36.85
680.899	36.25
681.086	36.22
681.272	36.1
681.459	36.33
681.646	36.4
681.833	35.98
682.02	37.03
682.206	37.56
682.393	38.92
682.58	39.06
682.766	39.73
682.953	39.97
683.14	39.87
683.326	40.18
683.513	39.97
683.7	39.74
683.886	40.24
684.073	39.61
684.259	39.01
684.446	38.67
684.632	39.07
684.819	38.92
685.005	40.24
685.192	41.19
685.378	41.59
685.565	42.26
685.751	42.03
685.938	42.01
686.124	41.98
686.31	42.31
686.497	41.42
686.683	41.23
686.87	41.27
687.056	40.05
687.242	39.85
687.429	38.71
687.615	37.1
687.801	38.12
687.987	37.95
688.174	38.23
688.36	37.68
688.546	37.02
688.732	37.28
688.918	37.82
689.105	38.93
689.291	39.22
689.477	39.76
689.663	41.22
689.849	41.01
690.035	42.19
690.221	41.64
690.407	42.64
690.593	43
690.779	42.32
690.965	41.39
691.151	40.24
691.337	39.98
691.523	39.96
691.709	39.91
691.895	40.33
692.081	40.14
692.267	41.65
692.453	41.27
692.639	42
692.825	43.75
693.011	43.78
693.196	45.54
693.382	44.73
693.568	44.91
693.754	44.31
693.94	44.05
694.125	43.56
694.311	42.61
694.497	42.26
694.682	43.33
694.868	42.49
695.054	42.79
695.239	42.57
695.425	43.12
695.611	42.49
695.796	43.03
695.982	41.93
696.168	41.68
696.353	41.67
696.539	41.37
696.724	40.9
696.91	41.19
697.095	40.83
697.281	40.02
697.466	40.15
697.652	40.09
697.837	39.48
698.023	39.64
698.208	38.84
698.393	38.64
698.579	38.07
698.764	37.54
698.949	36.62
699.135	36.8
699.32	36.42
699.505	37.13
699.691	37.32
699.876	36.36
700.061	36.51
700.246	37.45
700.432	37.77
700.617	39.36
700.802	39.42
700.987	41.25
701.172	42.16
701.358	43.07
701.543	40.97
701.728	41.64
701.913	44.57
702.098	44.42
702.283	45.67
702.468	46.27
702.653	46.77
702.838	48.23
703.023	47.81
703.208	46.69
703.393	47.27
703.578	49.2
703.763	49.59
703.948	47.7
704.133	49.05
704.318	49.21
704.503	48.08
704.688	47.21
704.873	46.94
705.057	46.26
705.242	46.36
705.427	46.34
705.612	46.16
705.797	46.59
705.981	48.51
706.166	48.41
706.351	46.97
706.536	47.75
706.72	47.67
706.905	46.82
707.09	47.05
707.274	48.05
707.459	47.92
707.644	46.88
707.828	46.81
708.013	46.03
708.197	45.98
708.382	46.56
708.567	45.66
708.751	45.09
708.936	45.71
709.12	45.56
709.305	44.6
709.489	45.01
709.673	45.24
709.858	45.49
710.042	45.9
710.227	44.65
710.411	45.15
710.596	46.61
710.78	47.11
710.964	45.53
711.149	45.75
711.333	45.61
711.517	45.56
711.702	46.66
711.886	44.91
712.07	44.89
712.254	46.65
712.438	45.69
712.623	44.51
712.807	44.16
712.991	44.48
713.175	43.4
713.359	43.82
713.544	42.42
713.728	41.38
713.912	42.97
714.096	43.17
714.28	42.37
714.464	43.07
714.648	43.02
714.832	44.18
715.016	44.31
715.2	45.59
715.384	44.92
715.568	46.05
715.752	47.51
715.936	46.48
716.12	45.33
716.304	44.81
716.488	44.78
716.671	45.75
716.855	44.34
717.039	44.9
717.223	43.53
717.407	44.61
717.59	45.07
717.774	43.17
717.958	43.21
718.142	44.07
718.325	45.02
718.509	44.43
718.693	44.15
718.877	44.72
719.06	46.04
719.244	47.62
719.428	47.68
719.611	47.55
719.795	49.43
719.978	50.45
720.162	50.88
720.345	50.17
720.529	50.41
720.713	50.24
720.896	49.87
721.08	49.47
721.263	50.69
721.446	50.56
721.63	51.59
721.813	51.14
721.997	52.91
722.18	53.92
722.364	55.71
722.547	55.39
722.73	55.93
722.914	56.56
723.097	56.61
723.28	56.62
723.464	57.18
723.647	56.31
723.83	55.65
724.013	54.79
724.197	53.84
724.38	52.03
724.563	53.3
724.746	55.48
724.929	56.49
725.112	56.32
725.296	55.74
725.479	55.27
725.662	54.38
725.845	54.6
726.028	53.89
726.211	54.61
726.394	55.39
726.577	54.66
726.76	52.82
726.943	51.62
727.126	51.86
727.309	51.33
727.492	51.88
727.675	51.75
727.858	51.93
728.041	52.31
728.224	50.64
728.407	50.62
728.589	50.93
728.772	50.03
728.955	49.95
729.138	49.98
729.321	49.15
729.503	48.31
729.686	48.8
729.869	48.87
730.052	48.04
730.234	49
730.417	48.06
730.6	47.58
730.782	46.93
730.965	47.32
731.148	46.16
731.33	46.24
731.513	47.55
731.695	47.36
731.878	47.05
732.061	45.39
732.243	43.96
732.426	44.89
732.608	45.36
732.791	46.08
732.973	44.8
733.156	46.38
733.338	47.74
733.52	47.21
733.703	47.83
733.885	47.61
734.068	48.87
734.25	49.16
734.432	49.51
734.615	49.43
734.797	48.78
734.979	49.74
735.162	49.02
735.344	47.38
735.526	46.64
735.708	46.23
735.891	45.87
736.073	46.75
736.255	48.65
736.437	49.14
736.619	49.12
736.802	50.6
736.984	51.92
737.166	52.76
737.348	54.39
737.53	55.82
737.712	56.76
737.894	55.82
738.076	55.14
738.258	54.46
738.44	54.14
738.622	53.08
738.804	53.18
738.986	51.83
739.168	52.94
739.35	51.41
739.532	51.2
739.714	50.44
739.896	49.25
740.078	49.79
740.259	49.29
740.441	50.49
740.623	51.38
740.805	51.72
740.987	53.3
741.168	51.31
741.35	51.84
741.532	51.67
741.714	52
741.895	56.11
742.077	56
742.259	56.5
742.44	55.11
742.622	56.81
742.804	57.82
742.985	57.17
743.167	56.91
743.348	58.59
743.53	57.97
743.711	59.28
743.893	58.05
744.075	59.49
744.256	60.59
744.438	60.38
744.619	60.02
744.8	58.79
744.982	59.99
745.163	62.58
745.345	61.64
745.526	61.53
745.707	61.88
745.889	62.1
746.07	64.04
746.252	63.65
746.433	63.73
746.614	64.93
746.795	63.83
746.977	65.47
747.158	64.48
747.339	63.84
747.52	64.73
747.702	63.39
747.883	63.28
748.064	61.52
748.245	61.98
748.426	62.31
748.607	61.17
748.788	64.66
748.97	61.93
749.151	61.8
749.332	64.54
749.513	64.63
749.694	65.94
749.875	68.93
750.056	68.46
750.237	67.11
750.418	69.66
750.599	69.69
750.78	67.05
750.96	64.82
751.141	64.66
751.322	63.69
751.503	62.84
751.684	62.11
751.865	59.26
752.046	60.5
752.226	59.9
752.407	55.5
752.588	55.08
752.769	56.62
752.949	60.04
753.13	59.18
753.311	57.33
753.492	57.88
753.672	57.95
753.853	60.38
754.034	59.9
754.214	58.02
754.395	61.42
754.575	62.06
754.756	60.54
754.937	62.76
755.117	63.4
755.298	64.75
755.478	65.76
755.659	65.35
755.839	63.99
756.02	64.22
756.2	68.93
756.381	69.12
756.561	69
756.741	67.07
756.922	61.99
757.102	62.78
757.283	61.47
757.463	60.05
757.643	60.49
757.823	59.46
758.004	60.2
758.184	59.1
758.364	58.5
758.545	59.05
758.725	59.32
758.905	61.08
759.085	62.01
759.265	59.9
759.446	60.38
759.626	60.71
759.806	60.48
759.986	56.93
760.166	56.34
760.346	55.11
760.526	54.05
760.706	57.08
760.886	55.93
761.066	54.84
761.246	57.97
761.426	55.63
761.606	53.1
761.786	52.15
761.966	53.39
762.146	52.88
762.326	53.81
762.506	52.76
762.686	50.64
762.866	51.11
763.046	47.69
763.225	46.25
763.405	46.42
763.585	46.78
763.765	47.58
763.945	47.25
764.124	47.63
764.304	46.96
764.484	48.33
764.664	48.07
764.843	47.42
765.023	51
765.203	51.67
765.382	53.11
765.562	53.51
765.741	53.46
765.921	54.29
766.101	56.36
766.28	57.88
766.46	57.16
766.639	58.23
766.819	60.29
766.998	59.51
767.178	59.5
767.357	59.64
767.537	64.55
767.716	66.09
767.896	66.62
768.075	64.54
768.254	62.13
768.434	61.49
768.613	61.62
768.792	60.75
768.972	60.52
769.151	63.03
769.33	63.62
769.51	59.23
769.689	61.73
769.868	62.29
770.047	61.91
770.226	63.32
770.406	65.39
770.585	65.36
770.764	65.78
770.943	66.69
771.122	64.12
771.301	67.49
771.48	68.5
771.66	67
771.839	69.76
772.018	72.53
772.197	74.4
772.376	74.06
772.555	75.35
772.734	73.16
772.913	73.07
773.092	71.62
773.271	68.19
773.449	69.61
773.628	69.52
773.807	69.33
773.986	70.39
774.165	67.19
774.344	70.74
774.523	70
774.701	74.83
774.88	79.84
775.059	82.67
775.238	86.21
775.417	88.57
775.595	90.9
775.774	87.67
775.953	84.97
776.131	84.12
776.31	79.59
776.489	80.66
776.667	73.26
776.846	70.36
777.025	73.86
777.203	71.12
777.382	68.86
777.56	69.04
777.739	68.71
777.917	72.1
778.096	75.86
778.274	78.64
778.453	78.48
778.631	84.99
778.81	86.78
778.988	83.54
779.166	83.52
779.345	81.94
779.523	81
779.702	84.39
779.88	84.43
780.058	82.23
780.237	82.62
780.415	79.66
780.593	77.05
780.771	77.42
780.95	80.95
781.128	83.14
781.306	84.18
781.484	80.35
781.662	77.42
781.841	73.7
782.019	73.85
782.197	70.75
782.375	71.44
782.553	71.71
782.731	72.15
782.909	70.92
783.087	73.1
783.265	75.32
783.443	79.35
783.621	80
783.799	82.55
783.977	82.86
784.155	86.76
784.333	89.1
784.511	89.37
784.689	89.75
784.867	89.56
785.045	88.99
785.223	85.61
785.4	87.26
785.578	85.89
785.756	82.62
785.934	81.86
786.112	82.98
786.289	79
786.467	81.2
786.645	79.51
786.823	78.95
787	76.61
787.178	76.65
787.356	74.42
787.533	75.16
787.711	76.04
787.889	74.68
788.066	70.86
788.244	76.32
788.421	75.51
788.599	75.91
788.776	78.11
788.954	76.06
789.131	73.35
789.309	75.27
789.486	76.02
789.664	77.16
789.841	83.7
790.019	84.93
790.196	84.76
790.373	84.25
790.551	83.8
790.728	83.06
790.906	85.3
791.083	91.65
791.26	90.8
791.437	86.93
791.615	90.75
791.792	92.23
791.969	95.12
792.146	91.98
792.324	90.06
792.501	92.28
792.678	89.9
792.855	90.31
793.032	88.92
793.209	86.47
793.387	90.71
793.564	88.08
793.741	84.93
793.918	82.27
794.095	82.34
794.272	83.14
794.449	82.84
794.626	87.72
794.803	86.06
794.98	83.63
795.157	83.16
795.334	82.34
795.511	82.29
795.688	79.53
795.864	82.18
796.041	81.36
796.218	84.01
796.395	83.63
796.572	77
796.749	79.14
796.925	77.84
797.102	77.84
797.279	78.42
797.456	80.27
797.632	83.76
797.809	85.77
797.986	91.39
798.162	93.05
798.339	95.1
798.516	99.41
798.692	99.08
798.869	106.18
799.046	110.94
799.222	107.47
799.399	107.76
799.575	111.51
799.752	108.52
799.928	101.25
800.105	98.56
800.281	98.52
800.458	100.86
800.634	99.16
800.811	99.55
800.987	102.48
801.163	105.06
801.34	106.29
801.516	101.7
801.692	100.68
801.869	103.15
802.045	99.14
802.221	98.56
802.398	100
802.574	101.1
802.75	98.34
802.926	98.16
803.103	98.23
803.279	94.84
803.455	94.62
803.631	99.23
803.807	102.55
803.983	115.26
804.16	116.01
804.336	114.76
804.512	121.99
804.688	128.21
804.864	130.36
805.04	128.09
805.216	130.83
805.392	137.06
805.568	133.95
805.744	128.25
805.92	119.38
806.096	120.24
806.272	118.71
806.448	114.42
806.623	113.8
806.799	113.78
806.975	116.93
807.151	115.29
807.327	114.87
807.503	113.93
807.678	118.56
807.854	121.8
808.03	121.93
808.206	124.35
808.381	120.33
808.557	113.53
808.733	110.92
808.908	106.58
809.084	103.41
809.26	105.67
809.435	108.96
809.611	108.16
809.787	100.03
809.962	104.01
810.138	103.58
810.313	109.7
810.489	111.46
810.664	106.2
810.84	102.9
811.015	106.11
811.191	105.19
811.366	102.63
811.542	105.17
811.717	108.29
811.892	103.34
812.068	99.85
812.243	100.94
812.419	105.4
812.594	113.87
812.769	120.92
812.944	125.74
813.12	122.07
813.295	129.3
813.47	125.4
813.645	138.33
813.821	141.76
813.996	150.7
814.171	148.88
814.346	151.41
814.521	145.51
814.697	149.33
814.872	140.27
815.047	138.16
815.222	134.32
815.397	136.93
815.572	136.63
815.747	135.96
815.922	127.23
816.097	124.77
816.272	116.86
816.447	113.97
816.622	114.23
816.797	114.44
816.972	115.07
817.147	109.61
817.322	105.25
817.496	100.15
817.671	92.82
817.846	97.14
818.021	95.02
818.196	98.93
818.371	100.03
818.545	94.22
818.72	92.4
818.895	87.13
819.069	86.66
819.244	89.83
819.419	84.59
819.594	80.34
819.768	74.16
819.943	71.7
820.117	66.72
820.292	65.21
820.467	64.79
820.641	62.22
820.816	58.97
820.99	55.05
821.165	51.29
821.339	49.32
821.514	49.02
821.688	47.49
821.863	45.74
822.037	45.59
822.212	44.3
822.386	43.07
822.56	42.3
822.735	42.84
822.909	42.91
823.084	43.77
823.258	43.97
823.432	44.33
823.606	45.05
823.781	45.55
823.955	47.83
824.129	48.27
824.303	49.7
824.478	51.94
824.652	52.81
824.826	55.34
825	55.01
825.174	56.98
825.348	55.98
825.523	56.25
825.697	56.22
825.871	52.74
826.045	53.14
826.219	51.4
826.393	51.05
826.567	50.83
826.741	50.33
826.915	50.49
827.089	51.22
827.263	52.73
827.437	53.44
827.611	54.76
827.784	56.9
827.958	58.79
828.132	62.51
828.306	62.85
828.48	64.08
828.654	65.18
828.827	66.78
829.001	66.63
829.175	68.65
829.349	71.13
829.522	75.41
829.696	76.65
829.87	80.81
830.044	83.01
830.217	86.12
830.391	95.09
830.565	98.19
830.738	101.53
830.912	105.6
831.085	107.67
831.259	102.88
831.432	102.15
831.606	107.97
831.779	102.83
831.953	95.05
832.126	90.28
832.3	84.11
832.473	80.42
832.647	80.3
832.82	75.19
832.994	73.35
833.167	69.37
833.34	69.4
833.514	67.04
833.687	66.72
833.86	67.04
834.034	69.99
834.207	66.39
834.38	66.7
834.553	64.84
834.727	68.5
834.9	72.92
835.073	80.57
835.246	82.81
835.419	84.77
835.593	88.89
835.766	93.12
835.939	92.69
836.112	102.61
836.285	107.05
836.458	113.51
836.631	111.71
836.804	108.14
836.977	111.64
837.15	113.67
837.323	116.59
837.496	118.9
837.669	122.26
837.842	130.11
838.015	131.53
838.188	134.71
838.361	136.55
838.533	131.95
838.706	141.78
838.879	139.05
839.052	143.11
839.225	146.61
839.398	141.79
839.57	140.7
839.743	140.61
839.916	136.55
840.088	121.66
840.261	121.68
840.434	138.11
840.607	136.52
840.779	144.2
840.952	136.03
841.124	129.49
841.297	140.47
841.47	147.34
841.642	146.98
841.815	152.87
841.987	187.31
842.16	188.06
842.332	191.35
842.505	196.87
842.677	174.84
842.85	206.39
843.022	210.72
843.194	212.82
843.367	222.26
843.539	211.91
843.712	183.52
843.884	167.68
844.056	176.5
844.229	161.86
844.401	169.68
844.573	175.5
844.745	178.7
844.918	190.15
845.09	192.04
845.262	194.62
845.434	192.71
845.606	224.82
845.779	220.87
845.951	230.32
846.123	211.57
846.295	226.63
846.467	246.59
846.639	222.98
846.811	220.45
846.983	214.95
847.155	215.9
847.327	209.34
847.499	218.33
847.671	268.9
847.843	268.21
848.015	393.99
848.187	328.53
848.359	322.32
848.531	351.52
848.703	340.37
848.875	413.83
849.047	402.82
849.218	527.29
849.39	480.11
849.562	407.55
849.734	372.49
849.905	300.43
850.077	361
850.249	498.5
850.421	554.11
850.592	504.98
850.764	438.18
850.936	409.81
851.107	442.32
851.279	496.78
851.451	368.47
851.622	340.18
851.794	303.26
851.965	278.57
852.137	252.65
852.308	241.52
852.48	251.37
852.651	241.03
852.823	224.51
852.994	208.08
853.166	190.08
853.337	206.15
853.509	223.37
853.68	288.16
853.851	261.32
854.023	291.67
854.194	272.91
854.365	313.79
854.537	315.29
854.708	516.19
854.879	950.77
855.05	924.88
855.222	790.91
855.393	525.69
855.564	589.21
855.735	587.53
855.906	443.83
856.078	516.61
856.249	591
856.42	568.32
856.591	472.62
856.762	441.85
856.933	540.97
857.104	622.01
857.275	688.7
857.446	400.44
857.617	379.75
857.788	396.16
857.959	341.09
858.13	283.8
858.301	317.91
858.472	346.18
858.643	359.09
858.814	416.84
858.985	375.28
859.155	379.03
859.326	511.06
859.497	514.88
859.668	475.88
859.839	791.11
860.009	568.19
860.18	410.77
860.351	336.6
860.522	321.44
860.692	248.01
860.863	278.1
861.034	276.74
861.204	246.85
861.375	246.87
861.546	228.18
861.716	214.42
861.887	219.47
862.057	272.04
862.228	259.03
862.398	277.25
862.569	274.55
862.739	265.17
862.91	250.64
863.08	337.1
863.251	376.17
863.421	434.26
863.592	373.98
863.762	389.15
863.932	304.8
864.103	362.85
864.273	301.75
864.443	338.36
864.614	291.81
864.784	321.2
864.954	287.59
865.125	285.39
865.295	300.76
865.465	321.15
865.635	385.38
865.805	395.04
865.976	385.27
866.146	418.3
866.316	503.54
866.486	750.16
866.656	479.88
866.826	471.31
866.996	401.68
867.166	366.56
867.336	355.42
867.506	267.95
867.676	265.93
867.846	242.37
868.016	284.43
868.186	252.98
868.356	213.67
868.526	259.15
868.696	294.18
868.866	340.91
869.036	345.57
869.206	309.84
869.376	372.03
869.545	342.4
869.715	388.31
869.885	387.26
870.055	423.22
870.224	516.84
870.394	723.24
870.564	530.32
870.734	530.58
870.903	449.9
871.073	548.39
871.243	393.67
871.412	447.45
871.582	359.9
871.751	349.22
871.921	356.68
872.091	307.2
872.26	280.51
872.43	215.32
872.599	225.6
872.769	252.87
872.938	246.43
873.108	346.79
873.277	358.56
873.446	443.37
873.616	392.03
873.785	397.74
873.955	546.48
874.124	389.07
874.293	1058.97
874.463	1215.57
874.632	1455.3
874.801	1600.84
874.971	497.7
875.14	493.19
875.309	336.48
875.478	328.87
875.647	316.08
875.817	261.14
875.986	303.31
876.155	300.77
876.324	282.29
876.493	281.46
876.662	259.06
876.831	294.4
877	286.8
877.17	368.3
877.339	450
877.508	333.96
877.677	349.4
877.846	380.3
878.015	328.31
878.184	287.45
878.352	276.83
878.521	286.81
878.69	280.49
878.859	255.1
879.028	256.19
879.197	219.06
879.366	260.02
879.534	259.98
879.703	242.56
879.872	222.57
880.041	231.34
880.21	207.57
880.378	190.21
880.547	182.83
880.716	169
880.884	144.71
881.053	131.57
881.222	115.52
881.39	104.13
881.559	92.08
881.727	85.83
881.896	84.79
882.065	77.64
882.233	76.42
882.402	71.34
882.57	70.48
882.739	68.23
882.907	68.49
883.076	70.02
883.244	74.15
883.412	74.87
883.581	81.35
883.749	80.51
883.918	82.91
884.086	84.64
884.254	89.64
884.423	89.98
884.591	102.16
884.759	110.41
884.927	109.87
885.096	104.56
885.264	115.6
885.432	116.57
885.6	120.2
885.769	135.69
885.937	146.24
886.105	152.84
886.273	153.68
886.441	149.32
886.609	154.78
886.777	169.29
886.945	202.61
887.113	202.79
887.281	211.85
887.449	210.45
887.617	212.1
887.785	242.17
887.953	248.61
888.121	255.93
888.289	278.16
888.457	350.13
888.625	427.07
888.793	308.68
888.961	340.53
889.129	256.35
889.296	263.87
889.464	280.05
889.632	224.4
889.8	232.91
889.967	244.59
890.135	249.23
