Data from JASIL_3144_Reflection_1.txt Node
Date: Thu Nov 12 21:05:36 EST 2015
User: Geneva
Spectrometer: USB4E03002
Autoset integration time: false
Trigger mode: 4
Integration Time (sec): 1.000000E-1
Scans to average: 10
Electric dark correction enabled: true
Nonlinearity correction enabled: false
Boxcar width: 5
Stray light correction enabled: false
XAxis mode: Wavelengths
Stop averaging: false
Number of Pixels in Spectrum: 3648
>>>>>Begin Spectral Data<<<<<
177.575	1.51
177.794	77.52
178.014	131.64
178.233	67.47
178.452	530.43
178.672	-18.32
178.891	-48.62
179.11	3.15
179.33	37.27
179.549	285.2
179.768	-363.34
179.987	-425.46
180.207	221.59
180.426	132.56
180.645	105.61
180.864	118.74
181.084	93.11
181.303	64.19
181.522	72.87
181.741	76.06
181.96	56.31
182.179	49.54
182.398	45.8
182.618	13.59
182.837	22.41
183.056	24.3
183.275	6.13
183.494	6.76
183.713	-0.31
183.932	14.19
184.151	-0.87
184.37	-41.04
184.589	5.76
184.808	25.94
185.027	29.69
185.246	17.33
185.465	8.03
185.684	-8.74
185.903	-58.11
186.122	-10.75
186.341	-36.45
186.56	-12.41
186.779	19.9
186.998	-15.68
187.216	-63.53
187.435	-102.05
187.654	-72.69
187.873	-177.12
188.092	-30.41
188.311	-37.88
188.53	-47
188.748	-39.22
188.967	-146.57
189.186	-125.1
189.405	-5.77
189.623	-74.82
189.842	-41.3
190.061	-68.28
190.28	-15.41
190.498	-43.65
190.717	-25.64
190.936	-23.4
191.154	-17.69
191.373	21.92
191.592	38.54
191.81	20.9
192.029	51.11
192.248	84.69
192.466	114.36
192.685	98.07
192.904	88.68
193.122	86.43
193.341	111.05
193.559	110.44
193.778	157.62
193.996	106.97
194.215	57.08
194.433	-3.59
194.652	-61.85
194.87	-82.26
195.089	-59.67
195.307	-43.27
195.526	-34.09
195.744	-19.71
195.963	-8.25
196.181	-3.69
196.399	6.39
196.618	9.37
196.836	22.87
197.055	12.92
197.273	41.34
197.491	42.86
197.71	-90.87
197.928	0.72
198.146	-23.62
198.365	-1233.47
198.583	246.41
198.801	94.46
199.019	38.05
199.238	84.54
199.456	155.92
199.674	122.35
199.892	154
200.111	210.7
200.329	846.96
200.547	97.27
200.765	-120.15
200.983	332.98
201.202	-136.13
201.42	-60.8
201.638	-61.8
201.856	-81.61
202.074	-7.17
202.292	-147.19
202.51	-52.25
202.728	-39.33
202.946	-14.49
203.165	-43.04
203.383	-10.45
203.601	-15.09
203.819	22.41
204.037	23.46
204.255	33.91
204.473	11.82
204.691	29.31
204.909	19.79
205.127	9.22
205.345	5.28
205.562	4.29
205.78	-45.97
205.998	-1.7
206.216	-23
206.434	5.69
206.652	38.12
206.87	178.87
207.088	121.83
207.306	112.96
207.523	160.17
207.741	145.02
207.959	169.05
208.177	273.21
208.395	150.41
208.612	215.44
208.83	1037.13
209.048	-558.2
209.266	5760.71
209.483	54.51
209.701	68.41
209.919	-1108.12
210.136	210.87
210.354	114.13
210.572	-9290.74
210.79	-3731.82
211.007	1071.43
211.225	-263.07
211.442	-223.06
211.66	-218.97
211.878	-252.85
212.095	69.21
212.313	76.37
212.53	74.68
212.748	77.57
212.966	104.72
213.183	109.38
213.401	93.42
213.618	114.96
213.836	110.84
214.053	100.39
214.271	101.69
214.488	7.76
214.705	19.34
214.923	2.71
215.14	7.1
215.358	24.57
215.575	33.09
215.793	92.88
216.01	105.75
216.227	121.17
216.445	109.44
216.662	93.31
216.879	90.66
217.097	88.46
217.314	231.86
217.531	59.96
217.749	-190.89
217.966	-60.87
218.183	-72.27
218.4	-77.22
218.618	-186.95
218.835	-129.95
219.052	-376.29
219.269	-732.17
219.487	-215.37
219.704	-37.86
219.921	33.34
220.138	54.17
220.355	66.45
220.572	137.72
220.79	125.46
221.007	83.05
221.224	59.15
221.441	81.45
221.658	89.65
221.875	31.62
222.092	52.47
222.309	-22.54
222.526	41.18
222.743	63.79
222.96	41.79
223.177	62.05
223.394	86.04
223.611	234.72
223.828	145.92
224.045	1008.97
224.262	-91.3
224.479	-10.61
224.696	19.3
224.913	32.35
225.13	24.34
225.347	-11.89
225.564	24.01
225.781	37.2
225.997	38.77
226.214	8.73
226.431	-12.62
226.648	-90.45
226.865	-53.12
227.082	-57.09
227.298	-17.27
227.515	2.11
227.732	8.68
227.949	-3.36
228.165	9.08
228.382	14.08
228.599	17.97
228.816	19.83
229.032	11.04
229.249	12.67
229.466	18.91
229.682	14.44
229.899	11.98
230.116	12.01
230.332	1.45
230.549	-6.91
230.765	-4.16
230.982	-1.72
231.199	-2.23
231.415	8.83
231.632	-2.75
231.848	-5.32
232.065	2.72
232.281	19.06
232.498	14.83
232.714	25.22
232.931	14.51
233.147	6.48
233.364	-2.51
233.58	16.96
233.797	7.79
234.013	27.81
234.23	19.63
234.446	-11.81
234.662	-66.77
234.879	-65.19
235.095	-45.31
235.312	-33.01
235.528	22.1
235.744	48.67
235.961	11.93
236.177	-0.78
236.393	-21.34
236.61	11.69
236.826	45.94
237.042	36.55
237.258	50.36
237.475	21.78
237.691	25.64
237.907	-23.51
238.123	-39.98
238.339	7.92
238.556	16.41
238.772	-2.46
238.988	-1.79
239.204	-6.97
239.42	-2.36
239.636	-5.36
239.853	9.12
240.069	2.12
240.285	3.73
240.501	8.22
240.717	6.15
240.933	9.84
241.149	18.88
241.365	15.04
241.581	17.34
241.797	17.1
242.013	20.93
242.229	22.01
242.445	26.18
242.661	24.58
242.877	23.42
243.093	28.21
243.309	22.6
243.525	23.33
243.741	19.83
243.957	17.76
244.173	12.82
244.388	13.3
244.604	7.04
244.82	1.35
245.036	1.54
245.252	5.49
245.468	5.82
245.683	9.15
245.899	8.53
246.115	9.12
246.331	7.11
246.547	5.27
246.762	3.34
246.978	2
247.194	1.55
247.409	4.02
247.625	0.13
247.841	-4.84
248.057	-4.35
248.272	-5
248.488	-1.15
248.703	3.17
248.919	6.58
249.135	10.19
249.35	13.4
249.566	18.64
249.782	12.34
249.997	14.76
250.213	16.09
250.428	14.9
250.644	5.98
250.859	1.46
251.075	-10.48
251.29	-4.99
251.506	-9.71
251.721	-8.02
251.937	-11.31
252.152	-7.7
252.368	-9.7
252.583	-12.65
252.798	-17.77
253.014	-11.99
253.229	-21.45
253.445	-12.37
253.66	-11.01
253.875	-6.75
254.091	-4.21
254.306	-0.07
254.521	-1.7
254.737	6.09
254.952	9.11
255.167	13.37
255.383	17.5
255.598	16.94
255.813	14.97
256.028	11.22
256.244	2.7
256.459	-1.84
256.674	-6.89
256.889	-8.94
257.104	-6.09
257.32	-2.44
257.535	-2.15
257.75	-7.34
257.965	-1.47
258.18	-3.11
258.395	-4.68
258.61	1.12
258.826	3.75
259.041	6.21
259.256	5.43
259.471	5.56
259.686	4.03
259.901	5.79
260.116	8.05
260.331	6.58
260.546	9.57
260.761	12.87
260.976	11.82
261.191	9.83
261.406	9.49
261.621	9.13
261.836	9.12
262.05	12.07
262.265	7.37
262.48	14.12
262.695	14.19
262.91	10.14
263.125	7.33
263.34	5.58
263.555	7.9
263.769	7.55
263.984	9.04
264.199	9.83
264.414	8.07
264.629	10.95
264.843	7.52
265.058	5.49
265.273	9.49
265.488	9.91
265.702	9.06
265.917	5.7
266.132	-2.65
266.346	-0.59
266.561	-2.48
266.776	-3.54
266.99	-5.03
267.205	-5.63
267.42	-7.01
267.634	-6.49
267.849	-2.49
268.063	-0.21
268.278	0.61
268.492	7.15
268.707	8.72
268.922	5.92
269.136	9.14
269.351	12.94
269.565	13.78
269.78	16.39
269.994	13.99
270.209	14.4
270.423	14.54
270.637	15.57
270.852	15.03
271.066	13.81
271.281	14.99
271.495	15.27
271.709	9.58
271.924	5.96
272.138	5.22
272.353	3.61
272.567	-1.51
272.781	-4.26
272.996	-3.32
273.21	-2.91
273.424	-3.85
273.638	-0.24
273.853	-3.87
274.067	0.2
274.281	2.99
274.495	4.76
274.71	8.23
274.924	7.66
275.138	8.11
275.352	5.61
275.566	3.57
275.781	5.48
275.995	4.27
276.209	5.9
276.423	2.45
276.637	0.25
276.851	-0.6
277.065	-7.83
277.279	-8.15
277.493	-6.82
277.707	-4.22
277.921	-1.93
278.135	-1.76
278.349	4.08
278.563	6.3
278.777	9.72
278.991	11
279.205	11.58
279.419	14.32
279.633	16.91
279.847	17.23
280.061	16.18
280.275	17.64
280.489	14.18
280.703	1.65
280.917	3.74
281.131	2.27
281.344	0.78
281.558	0.1
281.772	0.95
281.986	0.22
282.2	-0.8
282.414	-0.77
282.627	-2.03
282.841	-2.68
283.055	5.9
283.269	4.66
283.482	5.62
283.696	5.16
283.91	8.17
284.123	5.12
284.337	6.19
284.551	8.5
284.764	12.21
284.978	12.12
285.192	14.69
285.405	12.47
285.619	12.6
285.833	13.82
286.046	15.97
286.26	15.09
286.473	18.62
286.687	18.51
286.9	19.51
287.114	15.02
287.327	14.77
287.541	14.33
287.754	16.2
287.968	16.11
288.181	12.82
288.395	10.58
288.608	12.63
288.822	10.66
289.035	8.18
289.248	5.65
289.462	7.66
289.675	8.36
289.889	9.37
290.102	8.44
290.315	7.28
290.529	8.12
290.742	8.51
290.955	6.44
291.169	8.96
291.382	10.69
291.595	12.86
291.808	14.27
292.022	13.08
292.235	12.47
292.448	13.73
292.661	14.53
292.875	13.48
293.088	13.49
293.301	10.79
293.514	7.35
293.727	4.25
293.94	0.75
294.153	-1.48
294.367	-2.21
294.58	-2.24
294.793	-5.12
295.006	-6.4
295.219	-2.69
295.432	-0.98
295.645	1.66
295.858	4.69
296.071	4.88
296.284	5.98
296.497	8.79
296.71	8.96
296.923	9.56
297.136	10.96
297.349	10.09
297.562	10.9
297.775	10.84
297.988	11.76
298.201	9.92
298.414	12.9
298.626	14.43
298.839	11.88
299.052	16.26
299.265	15.34
299.478	16.59
299.691	18.98
299.903	18.34
300.116	18.1
300.329	17.76
300.542	19.08
300.755	17.71
300.967	16.05
301.18	17.21
301.393	14.65
301.605	16.35
301.818	13.31
302.031	10.95
302.243	10.42
302.456	9.77
302.669	9.01
302.881	6.07
303.094	5.06
303.307	4.62
303.519	7.05
303.732	5.71
303.944	5.48
304.157	5.81
304.37	8.3
304.582	6.45
304.795	6.21
305.007	5.77
305.22	8.67
305.432	9.22
305.645	8.98
305.857	6.51
306.069	8.52
306.282	7.84
306.494	12.31
306.707	13.75
306.919	14.23
307.132	12.59
307.344	10.08
307.556	9.48
307.769	9.01
307.981	10.91
308.193	9.18
308.406	7.33
308.618	8.38
308.83	6.31
309.043	7.5
309.255	6.22
309.467	7.96
309.679	11.42
309.892	10.6
310.104	11.78
310.316	12.03
310.528	12.89
310.74	14.77
310.953	11.39
311.165	12.46
311.377	10.9
311.589	12.64
311.801	12.44
312.013	10.45
312.225	12.25
312.437	12.71
312.649	9.78
312.862	11.05
313.074	9.35
313.286	12.03
313.498	13.47
313.71	10.23
313.922	10.32
314.134	8.2
314.346	8.57
314.558	9.07
314.77	8.02
314.982	9.11
315.193	5.81
315.405	5.28
315.617	6.95
315.829	3.06
316.041	5.54
316.253	5.26
316.465	7.58
316.677	6.41
316.888	5.45
317.1	8.51
317.312	8.46
317.524	10.25
317.736	11.49
317.947	8.7
318.159	9.45
318.371	13.9
318.583	13.86
318.794	12.46
319.006	14.64
319.218	15.58
319.43	12.61
319.641	15.93
319.853	18.34
320.064	18.18
320.276	20.54
320.488	20.56
320.699	17.28
320.911	18.26
321.123	16.98
321.334	14.36
321.546	14.28
321.757	16.76
321.969	16.42
322.18	12.26
322.392	12.2
322.603	13.33
322.815	13.31
323.026	11.92
323.238	12.76
323.449	17.71
323.661	17.87
323.872	17.57
324.083	14.85
324.295	14.09
324.506	14.81
324.718	17.11
324.929	15.19
325.14	17.65
325.352	18.39
325.563	18.18
325.774	16.32
325.986	18.72
326.197	18.66
326.408	21.64
326.62	21.1
326.831	19.86
327.042	17.64
327.253	18.4
327.464	16.03
327.676	15.9
327.887	15.32
328.098	16.24
328.309	17
328.52	16.23
328.732	14.67
328.943	13.14
329.154	14.61
329.365	13.93
329.576	15.36
329.787	18.89
329.998	20.42
330.209	21.84
330.42	20.55
330.631	20.59
330.842	23.4
331.053	25.38
331.264	26.4
331.475	27.83
331.686	28.75
331.897	29.85
332.108	25.1
332.319	24.38
332.53	22.62
332.741	24.79
332.952	24.86
333.163	23.57
333.374	22.37
333.585	21.17
333.795	18.66
334.006	18.92
334.217	18.85
334.428	21.13
334.639	18.83
334.849	19.96
335.06	20.19
335.271	18.15
335.482	16.8
335.692	17.93
335.903	18.13
336.114	20.89
336.325	21.42
336.535	21.31
336.746	20.7
336.957	21.58
337.167	22.44
337.378	19.4
337.589	22.15
337.799	23.38
338.01	23.26
338.22	25.31
338.431	27.71
338.642	26.79
338.852	26.93
339.063	26.69
339.273	25.52
339.484	25.78
339.694	26.39
339.905	21.43
340.115	20.17
340.326	18.56
340.536	19.92
340.746	16.03
340.957	16.59
341.167	14.3
341.378	14.01
341.588	15.93
341.799	13.37
342.009	13.5
342.219	16.27
342.43	18.56
342.64	20.58
342.85	18.78
343.061	18.63
343.271	18.26
343.481	19.01
343.691	18.57
343.902	19.13
344.112	19.67
344.322	20.23
344.532	20.9
344.743	19.9
344.953	18.31
345.163	17.12
345.373	18.21
345.583	17.31
345.793	16.81
346.004	17.69
346.214	17.53
346.424	19.95
346.634	20.83
346.844	21.27
347.054	21.79
347.264	21.05
347.474	23.59
347.684	23.11
347.894	23.25
348.104	22.32
348.314	21
348.524	22.6
348.734	21.45
348.944	22.44
349.154	23.76
349.364	23.59
349.574	23.95
349.784	21.88
349.994	22.07
350.204	21.38
350.413	22.85
350.623	22.99
350.833	20.33
351.043	19
351.253	18.53
351.463	15.53
351.672	15.76
351.882	16.32
352.092	15.61
352.302	14.78
352.511	15.33
352.721	13.62
352.931	16.06
353.141	18.81
353.35	18.6
353.56	16.69
353.77	14.05
353.979	12.31
354.189	11.09
354.399	12.85
354.608	11.96
354.818	11.78
355.027	13.65
355.237	14.03
355.447	10.59
355.656	11.95
355.866	11.66
356.075	15.27
356.285	16.57
356.494	18.11
356.704	17.32
356.913	19.69
357.123	20.04
357.332	19.53
357.542	18.67
357.751	20.9
357.96	20.09
358.17	21.51
358.379	21.15
358.589	20.11
358.798	20.04
359.007	21.02
359.217	21.69
359.426	21.68
359.635	21.46
359.845	20.76
360.054	20.38
360.263	20.39
360.472	20.58
360.682	20.48
360.891	21.43
361.1	21.99
361.309	23.2
361.519	22.57
361.728	22.16
361.937	22.5
362.146	23.21
362.355	23.37
362.564	24.31
362.774	22.75
362.983	22.36
363.192	22.1
363.401	22.68
363.61	20.61
363.819	18.68
364.028	21.11
364.237	21.7
364.446	21.71
364.655	21.1
364.864	20.38
365.073	22.59
365.282	23.36
365.491	23.22
365.7	22.61
365.909	23.37
366.118	24.77
366.327	22.84
366.536	22.17
366.745	22.48
366.954	22.14
367.162	21.79
367.371	20.25
367.58	19.99
367.789	21.38
367.998	20.63
368.207	20.2
368.415	20.69
368.624	20.82
368.833	21.03
369.042	20.45
369.25	21.9
369.459	22.77
369.668	23.18
369.877	23.49
370.085	22.56
370.294	22.76
370.503	22.28
370.711	21.48
370.92	22.19
371.129	22.59
371.337	21.96
371.546	21.78
371.754	21.26
371.963	20.65
372.171	20.31
372.38	19.96
372.589	19.27
372.797	19.03
373.006	17.91
373.214	16.45
373.423	15.74
373.631	16.47
373.84	16.23
374.048	16.07
374.256	16.54
374.465	16.01
374.673	15.48
374.882	15.66
375.09	15.95
375.298	17.86
375.507	18.95
375.715	18.02
375.923	18.63
376.132	17.78
376.34	18.17
376.548	18.47
376.757	18.07
376.965	19.3
377.173	18.9
377.381	18.76
377.59	18.32
377.798	17.23
378.006	18.26
378.214	16.63
378.423	17.05
378.631	17.43
378.839	16.73
379.047	18.1
379.255	17.46
379.463	18.12
379.671	17.5
379.879	18.01
380.088	19.16
380.296	19.99
380.504	21.02
380.712	21.36
380.92	20.44
381.128	21.58
381.336	21.23
381.544	21.52
381.752	20.97
381.96	22.26
382.168	22.6
382.376	22.13
382.584	21.34
382.791	21.36
382.999	21.36
383.207	21.39
383.415	21.79
383.623	21.74
383.831	21.28
384.039	21.67
384.247	21.6
384.454	20.98
384.662	21.68
384.87	23.13
385.078	22.78
385.285	23.19
385.493	23.34
385.701	23.62
385.909	24.71
386.116	23.23
386.324	23.77
386.532	24.89
386.739	24.56
386.947	24
387.155	21.55
387.362	21.03
387.57	20.41
387.778	21.02
387.985	19.51
388.193	18.13
388.4	19.02
388.608	18.28
388.816	16.44
389.023	16.77
389.231	16.89
389.438	17.3
389.646	18.86
389.853	18.72
390.061	18.87
390.268	18.61
390.475	20.39
390.683	20.97
390.89	20.29
391.098	20.65
391.305	20.42
391.512	20.38
391.72	20.82
391.927	20.7
392.135	20.76
392.342	20.08
392.549	20.74
392.756	19.62
392.964	20.35
393.171	21.36
393.378	21.23
393.586	20.45
393.793	20.73
394	21
394.207	20.78
394.414	21.13
394.622	22.22
394.829	22.24
395.036	22.4
395.243	20.64
395.45	20.69
395.657	21.02
395.864	22.09
396.072	22.35
396.279	22.76
396.486	22.02
396.693	22.55
396.9	22.86
397.107	22.16
397.314	23.23
397.521	24.34
397.728	23.82
397.935	24.08
398.142	23.86
398.349	23.77
398.556	23.84
398.763	25.17
398.97	24.53
399.177	23.76
399.383	25.3
399.59	24.89
399.797	25.11
400.004	25.85
400.211	25.57
400.418	26.19
400.625	26.52
400.831	26.14
401.038	25.33
401.245	25.53
401.452	25.65
401.658	25.14
401.865	25.24
402.072	25.32
402.279	24.09
402.485	24.27
402.692	24.14
402.899	23.27
403.105	24.01
403.312	25.11
403.519	25.55
403.725	25.97
403.932	25.94
404.138	25.86
404.345	26.27
404.552	26.41
404.758	25.88
404.965	25.87
405.171	26.41
405.378	26.79
405.584	25.58
405.791	25.95
405.997	25.52
406.204	25.35
406.41	24.52
406.617	24.23
406.823	25.13
407.029	25.5
407.236	24.8
407.442	24.24
407.649	23.64
407.855	24.43
408.061	23.26
408.268	24.65
408.474	26.79
408.68	27.38
408.887	27.56
409.093	28.48
409.299	28.21
409.505	29.43
409.712	30.79
409.918	30.53
410.124	31.29
410.33	32.28
410.537	31.97
410.743	31.49
410.949	32.18
411.155	32.19
411.361	32.27
411.567	33.44
411.773	33.97
411.98	34.02
412.186	34.47
412.392	33.71
412.598	33.45
412.804	33.92
413.01	32.64
413.216	32.77
413.422	32.94
413.628	32.96
413.834	32.28
414.04	31.7
414.246	31.97
414.452	31.88
414.658	31.99
414.864	31.79
415.07	31.67
415.275	32
415.481	31.72
415.687	30.97
415.893	30.77
416.099	31.05
416.305	30.54
416.511	30.61
416.716	31.05
416.922	30.85
417.128	31.32
417.334	31.24
417.539	31.24
417.745	31.54
417.951	31.65
418.157	31.69
418.362	31.92
418.568	32.04
418.774	31.38
418.979	30.73
419.185	30.86
419.391	30.58
419.596	30.6
419.802	30.76
420.008	30.44
420.213	31.71
420.419	31.74
420.624	31.89
420.83	32.09
421.035	32.24
421.241	32.95
421.446	32.88
421.652	33.02
421.857	32.48
422.063	32.31
422.268	32.1
422.474	30.83
422.679	31.12
422.885	30.77
423.09	30.81
423.295	31.28
423.501	30.74
423.706	30.82
423.911	30.8
424.117	30.92
424.322	30.86
424.527	31.31
424.733	31.34
424.938	30.65
425.143	30.45
425.349	30.71
425.554	30.49
425.759	30.96
425.964	31.35
426.169	32.18
426.375	32.37
426.58	32.96
426.785	32.78
426.99	33.13
427.195	33.43
427.4	33.67
427.605	32.71
427.811	33.34
428.016	33.11
428.221	33.28
428.426	32.26
428.631	32.46
428.836	32.27
429.041	32.64
429.246	32.91
429.451	33.01
429.656	33.21
429.861	33.4
430.066	32.43
430.271	32.65
430.476	32.28
430.681	32.6
430.886	32.59
431.09	32.69
431.295	32.96
431.5	32.4
431.705	32.41
431.91	32.53
432.115	33.12
432.32	33.18
432.524	33.03
432.729	32.64
432.934	32.15
433.139	32.25
433.343	32.03
433.548	31.59
433.753	31.55
433.958	31.71
434.162	31.63
434.367	31.93
434.572	32.23
434.776	32.55
434.981	33.16
435.186	33.54
435.39	33.43
435.595	33.5
435.799	33.48
436.004	34.61
436.209	34.63
436.413	34.95
436.618	34.65
436.822	34.29
437.027	33.64
437.231	33.73
437.436	33.71
437.64	33.41
437.845	33.77
438.049	34.13
438.253	33.78
438.458	33.51
438.662	33.13
438.867	32.77
439.071	32.68
439.275	32.87
439.48	32.35
439.684	32.01
439.888	32.55
440.093	31.98
440.297	31.27
440.501	31.14
440.706	30.86
440.91	30.97
441.114	31.03
441.318	31.21
441.523	31.21
441.727	31.6
441.931	32.2
442.135	32.16
442.339	32.52
442.543	33.33
442.748	33.58
442.952	33.9
443.156	34.01
443.36	34.28
443.564	34.09
443.768	33.95
443.972	33.39
444.176	33.03
444.38	32.82
444.584	32.25
444.788	32.05
444.992	31.58
445.196	31.29
445.4	30.6
445.604	30.53
445.808	30.6
446.012	30.56
446.216	30.73
446.42	30.69
446.624	30.63
446.828	30.78
447.032	30.85
447.235	30.91
447.439	31.16
447.643	31.82
447.847	31.55
448.051	31.49
448.254	31.65
448.458	31.43
448.662	31.4
448.866	31.33
449.069	31.47
449.273	31.53
449.477	32.14
449.681	32.48
449.884	32.13
450.088	32.11
450.292	32.61
450.495	32.4
450.699	32.65
450.902	33.25
451.106	33.37
451.31	33.65
451.513	33.35
451.717	32.82
451.92	32.18
452.124	31.85
452.327	32.41
452.531	31.52
452.734	31.25
452.938	31.62
453.141	30.86
453.345	30.59
453.548	30.35
453.752	30.32
453.955	30.12
454.158	30.41
454.362	30.41
454.565	30.69
454.769	31.58
454.972	32.34
455.175	31.71
455.379	31.98
455.582	31.88
455.785	31.94
455.988	31.75
456.192	31.69
456.395	32.41
456.598	33.06
456.801	32.15
457.005	31.58
457.208	31.45
457.411	31.63
457.614	31.32
457.817	31.1
458.021	30.96
458.224	30.78
458.427	30.78
458.63	29.96
458.833	30.04
459.036	30.07
459.239	30.11
459.442	29.78
459.645	30.06
459.848	30.01
460.051	30.21
460.254	30.29
460.457	30.48
460.66	30.53
460.863	31.17
461.066	31.11
461.269	31.26
461.472	31.38
461.675	31.64
461.878	31.61
462.081	32.25
462.284	32.47
462.486	32.4
462.689	32.14
462.892	31.98
463.095	31.37
463.298	31.07
463.5	31.06
463.703	30.99
463.906	30.95
464.109	30.89
464.311	30.51
464.514	30.8
464.717	30.88
464.92	30.97
465.122	31.43
465.325	31.99
465.528	32.27
465.73	32.25
465.933	32.31
466.135	32.38
466.338	32.74
466.541	32.9
466.743	32.63
466.946	32.64
467.148	33
467.351	32.67
467.553	32.3
467.756	32.19
467.958	32.16
468.161	32.05
468.363	31.85
468.566	31.05
468.768	31.1
468.971	31.19
469.173	31.43
469.375	31.89
469.578	31.83
469.78	31.92
469.983	31.58
470.185	31.17
470.387	31.79
470.59	32.7
470.792	32.98
470.994	33.4
471.196	33.1
471.399	32.51
471.601	31.8
471.803	32.63
472.005	32.98
472.208	33.03
472.41	33.36
472.612	32.01
472.814	31.45
473.016	31.76
473.218	31.41
473.421	31.59
473.623	31.67
473.825	31.69
474.027	31.34
474.229	31.1
474.431	31.34
474.633	31.98
474.835	32.81
475.037	32.43
475.239	32.16
475.441	31.79
475.643	31.77
475.845	31.69
476.047	31.95
476.249	31.73
476.451	31.8
476.653	31.67
476.855	31.23
477.057	31.55
477.258	31.73
477.46	31.81
477.662	32.27
477.864	32.57
478.066	33.07
478.268	32.91
478.469	32.71
478.671	32.48
478.873	32.75
479.075	32.9
479.276	33.17
479.478	33.27
479.68	32.97
479.882	32.66
480.083	32.59
480.285	32.32
480.487	32.39
480.688	32.33
480.89	32.2
481.091	31.8
481.293	31.41
481.495	30.74
481.696	30.37
481.898	30.37
482.099	30.1
482.301	29.82
482.502	29.7
482.704	29.61
482.905	29.48
483.107	29.42
483.308	29.29
483.51	29.34
483.711	29.39
483.913	29.44
484.114	29.39
484.315	29.53
484.517	29.71
484.718	29.73
484.92	29.77
485.121	29.76
485.322	29.79
485.524	30.17
485.725	30.08
485.926	30.18
486.127	30.26
486.329	30.14
486.53	30.12
486.731	29.83
486.932	29.97
487.134	29.91
487.335	30
487.536	30.06
487.737	29.87
487.938	30.06
488.139	29.98
488.341	30.06
488.542	30.45
488.743	30.46
488.944	30.71
489.145	30.78
489.346	30.73
489.547	30.8
489.748	30.87
489.949	30.93
490.15	30.73
490.351	30.92
490.552	30.66
490.753	30.58
490.954	30.47
491.155	30.49
491.356	30.29
491.557	30.32
491.758	30.24
491.959	30.26
492.159	30.2
492.36	30.42
492.561	30.39
492.762	30.46
492.963	30.28
493.164	30.53
493.364	30.5
493.565	30.44
493.766	30.66
493.967	31.2
494.167	30.91
494.368	31.23
494.569	30.73
494.769	30.67
494.97	30.84
495.171	30.7
495.371	30.72
495.572	30.57
495.773	30.98
495.973	31.18
496.174	30.8
496.375	31.39
496.575	31.48
496.776	31.48
496.976	31.55
497.177	31.81
497.377	32.08
497.578	31.9
497.778	31.96
497.979	31.5
498.179	31.31
498.38	31.5
498.58	31.19
498.78	31.35
498.981	31.52
499.181	31.42
499.382	31.23
499.582	31.19
499.782	31.37
499.983	31.44
500.183	31.91
500.383	32.16
500.584	31.98
500.784	32.24
500.984	31.81
501.184	31.79
501.385	31.9
501.585	31.98
501.785	32.23
501.985	32.28
502.185	32.11
502.386	32.55
502.586	31.94
502.786	32.25
502.986	32.33
503.186	32.31
503.386	32.48
503.586	32.45
503.786	32.24
503.987	31.96
504.187	31.99
504.387	32.36
504.587	32.17
504.787	32.69
504.987	32.27
505.187	32.01
505.387	32.66
505.587	32.84
505.786	33.34
505.986	33.64
506.186	33.41
506.386	33.09
506.586	33.11
506.786	32.81
506.986	32.46
507.186	32.84
507.386	32.86
507.585	32.44
507.785	32.71
507.985	32.37
508.185	32.27
508.384	32.41
508.584	32.38
508.784	32.2
508.984	32.39
509.183	32.63
509.383	32.48
509.583	32.42
509.782	32.82
509.982	32.74
510.182	32.66
510.381	32.95
510.581	33.15
510.781	33.6
510.98	33.65
511.18	33.62
511.379	33.5
511.579	33.77
511.778	34.3
511.978	34.09
512.177	34.09
512.377	34.03
512.576	33.79
512.776	33.63
512.975	33.58
513.175	33.92
513.374	33.85
513.573	33.94
513.773	33.66
513.972	33.56
514.172	33.31
514.371	33.1
514.57	33.04
514.77	32.92
514.969	33.02
515.168	32.79
515.367	32.52
515.567	32.73
515.766	33.22
515.965	33.36
516.164	32.97
516.364	32.94
516.563	32.97
516.762	33.14
516.961	33.55
517.16	33.61
517.359	33.89
517.559	33.89
517.758	33.96
517.957	33.79
518.156	34.07
518.355	34.26
518.554	34.35
518.753	34.51
518.952	34.68
519.151	34.87
519.35	35.03
519.549	34.83
519.748	35.16
519.947	35.1
520.146	35.08
520.345	35.13
520.544	35.32
520.743	35.61
520.942	35.65
521.141	35.6
521.339	35.3
521.538	35.33
521.737	35.56
521.936	35.52
522.135	35.94
522.333	35.75
522.532	35.73
522.731	35.56
522.93	35.4
523.129	35.09
523.327	35.09
523.526	35.21
523.725	35.19
523.923	35.05
524.122	34.85
524.321	34.61
524.519	35.11
524.718	35.11
524.917	34.92
525.115	34.89
525.314	35.04
525.512	35.18
525.711	35.08
525.909	35.07
526.108	35.07
526.306	34.7
526.505	34.98
526.703	34.74
526.902	34.69
527.1	34.76
527.299	34.85
527.497	35
527.696	34.94
527.894	34.97
528.092	35.09
528.291	35.35
528.489	35.71
528.688	35.69
528.886	35.8
529.084	35.97
529.283	36.2
529.481	36.17
529.679	36.12
529.877	36.36
530.076	36.5
530.274	36.57
530.472	36.57
530.67	36.56
530.869	36.36
531.067	36.17
531.265	36.12
531.463	36.11
531.661	36.08
531.859	36.23
532.057	35.82
532.255	35.73
532.454	35.76
532.652	35.43
532.85	35.42
533.048	35.65
533.246	35.82
533.444	35.77
533.642	35.67
533.84	35.94
534.038	35.95
534.236	36.32
534.434	36.39
534.632	36.55
534.83	37.13
535.027	37.34
535.225	37.35
535.423	37.43
535.621	37.4
535.819	37.34
536.017	37.34
536.215	37.32
536.412	37.33
536.61	37.46
536.808	37.31
537.006	36.87
537.203	36.87
537.401	36.63
537.599	36.82
537.797	37.33
537.994	37.75
538.192	37.75
538.39	37.83
538.587	37.83
538.785	37.77
538.983	37.68
539.18	38.01
539.378	38.04
539.575	38.07
539.773	37.75
539.97	37.44
540.168	37.44
540.366	37.33
540.563	37.12
540.761	37
540.958	36.97
541.155	37.03
541.353	37.18
541.55	37.11
541.748	37.34
541.945	37.5
542.143	37.58
542.34	37.44
542.537	37.47
542.735	37.78
542.932	37.75
543.129	37.85
543.327	37.98
543.524	37.58
543.721	37.49
543.919	37.14
544.116	37.05
544.313	36.97
544.51	37.15
544.708	37.45
544.905	37.38
545.102	37.76
545.299	37.97
545.496	38.11
545.693	38.22
545.891	38.52
546.088	38.45
546.285	38.54
546.482	38.46
546.679	38.29
546.876	38.33
547.073	38.58
547.27	38.61
547.467	38.23
547.664	38.1
547.861	38.14
548.058	38.31
548.255	38.62
548.452	38.94
548.649	39.3
548.846	39.73
549.043	39.59
549.24	39.53
549.437	39.87
549.633	40.11
549.83	40.34
550.027	40.06
550.224	40.29
550.421	40.51
550.618	40.76
550.814	40.75
551.011	41.13
551.208	41.35
551.405	41.06
551.601	41.25
551.798	41.73
551.995	41.59
552.191	41.56
552.388	40.9
552.585	40.77
552.781	40.62
552.978	40.85
553.175	40.55
553.371	40.42
553.568	40.69
553.764	40.33
553.961	40.13
554.157	40.26
554.354	40.49
554.55	41.15
554.747	41.63
554.943	41.36
555.14	41.22
555.336	41.41
555.533	41.39
555.729	41.62
555.926	41.82
556.122	41.67
556.318	41.81
556.515	42.09
556.711	42.38
556.907	41.54
557.104	42.31
557.3	42.94
557.496	42.76
557.693	43.09
557.889	42.38
558.085	42.18
558.281	42.1
558.478	41.78
558.674	42.35
558.87	42.16
559.066	42.37
559.262	42.13
559.459	41.92
559.655	41.83
559.851	41.68
560.047	42.31
560.243	42.1
560.439	42.64
560.635	42.93
560.831	42.67
561.027	42.79
561.223	43.33
561.419	43.35
561.615	43.08
561.811	42.94
562.007	42.79
562.203	43.03
562.399	43.11
562.595	43.16
562.791	43.81
562.987	44.02
563.183	43.85
563.379	43.5
563.575	43.39
563.771	43.36
563.966	44.09
564.162	44.22
564.358	44.14
564.554	44.59
564.75	44.5
564.945	44.26
565.141	44.13
565.337	43.93
565.533	43.88
565.728	43.78
565.924	44.45
566.12	44.34
566.315	44.56
566.511	44.97
566.707	45.23
566.902	45.49
567.098	45.61
567.293	45.52
567.489	45.45
567.684	45.57
567.88	45.19
568.076	44.73
568.271	44.57
568.467	44.96
568.662	44.59
568.858	44.23
569.053	44.09
569.248	44.02
569.444	44.07
569.639	44.28
569.835	44.48
570.03	45.18
570.225	45.1
570.421	45.42
570.616	45.01
570.812	44.88
571.007	44.99
571.202	45.24
571.397	45.21
571.593	45.47
571.788	46.02
571.983	46.15
572.178	46.21
572.374	46.76
572.569	46.47
572.764	46.63
572.959	46.91
573.154	47.24
573.35	47.25
573.545	47.23
573.74	47.45
573.935	46.57
574.13	46.08
574.325	45.71
574.52	45.47
574.715	45.99
574.91	45.77
575.105	45.59
575.3	45.56
575.495	45.23
575.69	45.31
575.885	45.48
576.08	45.84
576.275	46.91
576.47	47.59
576.665	47.52
576.86	47.37
577.055	47.87
577.25	48.8
577.444	48.69
577.639	49.08
577.834	48.65
578.029	49.1
578.224	49.46
578.418	49.59
578.613	48.69
578.808	49.31
579.003	49.13
579.197	49.09
579.392	48.27
579.587	48.62
579.781	48.13
579.976	48.56
580.171	48.67
580.365	48.68
580.56	48.17
580.755	48.16
580.949	47.75
581.144	47.76
581.338	47.51
581.533	47.98
581.727	47.4
581.922	48.23
582.116	48.19
582.311	47.36
582.505	47.43
582.7	47.22
582.894	48.28
583.089	48.24
583.283	48.4
583.478	48.48
583.672	48.04
583.866	48.33
584.061	48.36
584.255	48.66
584.449	48.84
584.644	48.35
584.838	48.78
585.032	48.3
585.226	48.42
585.421	49.01
585.615	49.71
585.809	49.89
586.003	50.41
586.198	49.93
586.392	50.05
586.586	50.18
586.78	51.73
586.974	51.43
587.168	52.65
587.363	52.52
587.557	52.07
587.751	51.43
587.945	52.16
588.139	52.41
588.333	52.78
588.527	52.54
588.721	52.39
588.915	51.92
589.109	51.92
589.303	51
589.497	51.09
589.691	51.22
589.885	52.03
590.079	52.19
590.273	51.6
590.466	51.56
590.66	51.19
590.854	50.88
591.048	49.75
591.242	49.68
591.436	49.43
591.629	49.13
591.823	49.53
592.017	49.14
592.211	48.92
592.404	48.86
592.598	49.15
592.792	49.72
592.986	50.69
593.179	51.03
593.373	52.11
593.567	52.46
593.76	53.26
593.954	52.41
594.147	52.76
594.341	52.63
594.535	52.78
594.728	52.41
594.922	52.49
595.115	52.17
595.309	52.45
595.502	51.96
595.696	51.35
595.889	51.22
596.083	51.56
596.276	51.02
596.47	51.39
596.663	51.31
596.856	51.5
597.05	50.88
597.243	50.71
597.437	51.03
597.63	50.88
597.823	51.7
598.017	51.8
598.21	52.07
598.403	52.65
598.596	52.6
598.79	52.89
598.983	53.16
599.176	54.26
599.369	54
599.563	53.99
599.756	53.87
599.949	53.87
600.142	53.63
600.335	54.31
600.528	53.53
600.722	54.07
600.915	53.8
601.108	54.25
601.301	54.72
601.494	55.12
601.687	55.4
601.88	55.37
602.073	55
602.266	54.8
602.459	53.98
602.652	54.43
602.845	53.29
603.038	53.15
603.231	52.45
603.424	52
603.617	51.73
603.809	51.5
604.002	51.42
604.195	51.9
604.388	51.83
604.581	52.24
604.774	52.32
604.966	52.49
605.159	52.73
605.352	52.8
605.545	52.46
605.737	52.79
605.93	52.51
606.123	52.37
606.316	51.39
606.508	51.43
606.701	50.48
606.894	50.98
607.086	51.66
607.279	52.11
607.471	52.97
607.664	53.5
607.857	52.59
608.049	52.48
608.242	52.88
608.434	53.84
608.627	54.37
608.819	55.31
609.012	54.71
609.204	54.65
609.397	55.31
609.589	54.71
609.782	54.88
609.974	55.38
610.166	55.87
610.359	56.76
610.551	56.09
610.743	55.76
610.936	55.3
611.128	55.44
611.32	54.96
611.513	53.64
611.705	53.67
611.897	53.17
612.09	53.31
612.282	53.1
612.474	52.54
612.666	53.29
612.858	52.84
613.051	52.9
613.243	53.38
613.435	53.63
613.627	54.04
613.819	54.27
614.011	53.7
614.203	53.96
614.395	54.03
614.588	53.81
614.78	54.14
614.972	54.63
615.164	55.15
615.356	54.43
615.548	54.03
615.74	53.87
615.932	53.34
616.124	53.88
616.315	54.3
616.507	54.79
616.699	55.38
616.891	54.95
617.083	54.58
617.275	53.77
617.467	54.12
617.659	54.56
617.85	54.62
618.042	54.28
618.234	54.48
618.426	55.25
618.618	55.46
618.809	54.85
619.001	54.34
619.193	55.34
619.384	55.77
619.576	55.59
619.768	55.97
619.959	55.56
620.151	56.48
620.343	56.74
620.534	56.07
620.726	55.63
620.917	55.9
621.109	56.73
621.301	56.81
621.492	56.92
621.684	57.31
621.875	56.88
622.067	57.35
622.258	56.81
622.45	57.17
622.641	57.47
622.832	57.39
623.024	56.66
623.215	56.65
623.407	56.45
623.598	56.7
623.789	56.32
623.981	55.95
624.172	56.48
624.363	57.15
624.555	57.22
624.746	56.53
624.937	56.56
625.129	56.86
625.32	56.1
625.511	55.19
625.702	55.39
625.893	55.85
626.085	56.56
626.276	56.14
626.467	56.07
626.658	56.12
626.849	56.51
627.04	56.08
627.231	56.54
627.422	57.03
627.614	57.42
627.805	57.14
627.996	57.35
628.187	58.02
628.378	58.03
628.569	57.75
628.76	57.77
628.951	58.03
629.142	59.03
629.332	57.95
629.523	57.79
629.714	58.08
629.905	58.57
630.096	58.65
630.287	57.79
630.478	57.92
630.669	57.82
630.859	57.73
631.05	57.27
631.241	57.09
631.432	57.6
631.623	57.43
631.813	57.36
632.004	57.25
632.195	56.83
632.385	57.22
632.576	57.82
632.767	58.69
632.957	58.82
633.148	59.24
633.339	58.62
633.529	58.82
633.72	58.38
633.91	58.03
634.101	57.47
634.292	56.94
634.482	56.23
634.673	56.36
634.863	55.28
635.054	54.69
635.244	54.39
635.435	55.2
635.625	55.64
635.815	57.23
636.006	57.12
636.196	57.92
636.387	58.93
636.577	59.23
636.767	59.44
636.958	59.81
637.148	60.51
637.338	60.27
637.529	60.34
637.719	60.58
637.909	60.47
638.099	60.87
638.29	60.9
638.48	60.1
638.67	60.63
638.86	59.81
639.05	59.97
639.241	59.93
639.431	59.8
639.621	58.99
639.811	58.84
640.001	57.86
640.191	57.6
640.381	56.94
640.571	56.99
640.761	56.1
640.951	56.05
641.141	56.43
641.331	56.5
641.521	56.58
641.711	56.24
641.901	56.4
642.091	58.58
642.281	58.73
642.471	57.67
642.661	57.56
642.851	58.18
643.041	58.37
643.231	57.47
643.42	56.56
643.61	56.44
643.8	56.9
643.99	56.31
644.18	55.94
644.369	56.92
644.559	58.6
644.749	58.76
644.939	59.39
645.128	59.79
645.318	59.44
645.508	60.28
645.697	60.99
645.887	61.77
646.076	61.95
646.266	60.38
646.456	60.81
646.645	59.7
646.835	59.88
647.024	59.37
647.214	57.5
647.403	58.31
647.593	58.18
647.782	57.72
647.972	57.29
648.161	56.61
648.351	56.9
648.54	55.15
648.73	55.16
648.919	55.64
649.108	55.44
649.298	57.25
649.487	56.44
649.677	57.19
649.866	57.54
650.055	57.96
650.244	59.39
650.434	60.37
650.623	61.95
650.812	62.59
651.002	62.99
651.191	63.01
651.38	62.32
651.569	63.55
651.758	61.62
651.947	62.57
652.137	61.87
652.326	60.88
652.515	59.65
652.704	58.5
652.893	58.81
653.082	57.46
653.271	57.55
653.46	57.55
653.649	58.67
653.838	59.54
654.027	59.14
654.216	59.64
654.405	60.53
654.594	60.71
654.783	62.31
654.972	61.49
655.161	63.05
655.35	63.72
655.539	64
655.728	62.72
655.916	62.79
656.105	62.71
656.294	63.01
656.483	63.81
656.672	64.48
656.86	63.18
657.049	64.23
657.238	63.43
657.427	63.17
657.615	63.35
657.804	62.55
657.993	62.62
658.181	61.75
658.37	61.07
658.559	59.13
658.747	58.68
658.936	59.07
659.125	59.53
659.313	59.26
659.502	58.61
659.69	58.43
659.879	60.04
660.067	60.16
660.256	60.57
660.444	60.89
660.633	62.81
660.821	63.09
661.01	62.77
661.198	61.83
661.387	61.78
661.575	61.86
661.763	62.49
661.952	60.95
662.14	59.98
662.328	59.83
662.517	60.44
662.705	59.74
662.893	60
663.082	61.48
663.27	61.65
663.458	62.32
663.646	62.54
663.834	62.18
664.023	63.1
664.211	63.61
664.399	64.29
664.587	63.7
664.775	63.67
664.963	64.04
665.152	63.25
665.34	64.08
665.528	63.55
665.716	64.95
665.904	63.88
666.092	64.08
666.28	64.3
666.468	63.15
666.656	62.96
666.844	62.66
667.032	62.23
667.22	61.81
667.408	59.67
667.596	60.28
667.784	59.05
667.971	60.16
668.159	59.32
668.347	59.98
668.535	60.57
668.723	61.85
668.911	61.14
669.098	60.9
669.286	61.28
669.474	63.03
669.662	62.57
669.849	62.47
670.037	60.97
670.225	60.27
670.413	60.91
670.6	61.18
670.788	61.24
670.976	62.69
671.163	62.74
671.351	61.82
671.538	62.74
671.726	64.29
671.913	64.79
672.101	66.51
672.289	67.25
672.476	66.62
672.664	65.65
672.851	64.27
673.039	64.09
673.226	63.48
673.413	64.12
673.601	62.35
673.788	61.46
673.976	62
674.163	61.83
674.35	61.34
674.538	61.02
674.725	62.43
674.912	63.39
675.1	62.17
675.287	62.8
675.474	62.23
675.662	62.17
675.849	61.05
676.036	59.72
676.223	59.87
676.411	61.1
676.598	61.26
676.785	60.91
676.972	60.88
677.159	60.33
677.346	59.67
677.533	60.69
677.721	61.4
677.908	63.27
678.095	63.69
678.282	63.22
678.469	62.5
678.656	61.76
678.843	61.71
679.03	60.69
679.217	62.21
679.404	62.61
679.591	62.3
679.778	62.65
679.964	61.89
680.151	63.06
680.338	63.8
680.525	63.7
680.712	63.81
680.899	63.34
681.086	63.95
681.272	63.42
681.459	63.64
681.646	63.14
681.833	62.54
682.02	62.74
682.206	60.41
682.393	58.51
682.58	58.77
682.766	59.43
682.953	58.77
683.14	59.9
683.326	59.5
683.513	60.37
683.7	59.88
683.886	58.75
684.073	58.12
684.259	60.25
684.446	61.47
684.632	62.56
684.819	62.36
685.005	63.17
685.192	62.26
685.378	62.33
685.565	62.96
685.751	64.29
685.938	65.78
686.124	64.95
686.31	64.84
686.497	64.64
686.683	63.96
686.87	64.86
687.056	65.28
687.242	65.01
687.429	64.92
687.615	61.99
687.801	62.31
687.987	60.58
688.174	61.3
688.36	60.08
688.546	60.06
688.732	59.49
688.918	58.89
689.105	59.03
689.291	60.82
689.477	60.8
689.663	62.26
689.849	62.66
690.035	63.94
690.221	65.32
690.407	64.37
690.593	65.74
690.779	66.95
690.965	66.5
691.151	65.92
691.337	64.26
691.523	65.13
691.709	64.8
691.895	64.34
692.081	62.9
692.267	60.8
692.453	63.39
692.639	64.62
692.825	63.69
693.011	63.86
693.196	62.76
693.382	62.99
693.568	61.33
693.754	60.66
693.94	61.51
694.125	62.58
694.311	64.17
694.497	63.26
694.682	61.06
694.868	60.11
695.054	62.31
695.239	63.49
695.425	63.55
695.611	65.34
695.796	65.7
695.982	64.72
696.168	63.93
696.353	63.25
696.539	62.6
696.724	62.49
696.91	63.17
697.095	61.78
697.281	61.95
697.466	61.76
697.652	61.72
697.837	61.71
698.023	60.72
698.208	61.28
698.393	61
698.579	62.32
698.764	62.19
698.949	62.61
699.135	62.77
699.32	62.68
699.505	62.22
699.691	61.34
699.876	61.48
700.061	62.85
700.246	62.46
700.432	62.97
700.617	62.56
700.802	62.68
700.987	61.22
701.172	61.22
701.358	62.55
701.543	63.15
701.728	63.61
701.913	62.52
702.098	60.41
702.283	60.03
702.468	60.25
702.653	60.11
702.838	60.45
703.023	62.45
703.208	62.26
703.393	58.83
703.578	59.08
703.763	59.67
703.948	60.84
704.133	62.69
704.318	63.68
704.503	63.33
704.688	64.3
704.873	65.25
705.057	64.34
705.242	62.93
705.427	63.93
705.612	62.76
705.797	62.41
705.981	63.86
706.166	63.88
706.351	62.96
706.536	61.56
706.72	60.48
706.905	59.23
707.09	57.32
707.274	59.29
707.459	59.73
707.644	60.9
707.828	59.88
708.013	59.42
708.197	60.3
708.382	60.97
708.567	62.21
708.751	60.73
708.936	62.37
709.12	64.25
709.305	63.2
709.489	64.63
709.673	64.87
709.858	64.8
710.042	63.66
710.227	60.99
710.411	61.16
710.596	61.33
710.78	63.27
710.964	62.03
711.149	63.26
711.333	64.18
711.517	63.3
711.702	64.33
711.886	64.77
712.07	66.2
712.254	67.9
712.438	67.39
712.623	66.94
712.807	66.86
712.991	66.27
713.175	65.52
713.359	66
713.544	63.77
713.728	59.49
713.912	61
714.096	60.79
714.28	61.55
714.464	62.31
714.648	63.31
714.832	62.22
715.016	62.4
715.2	60.98
715.384	61.81
715.568	65.75
715.752	67.71
715.936	66.36
716.12	65.94
716.304	65.41
716.488	66.57
716.671	64.9
716.855	64.46
717.039	63.91
717.223	63.84
717.407	62.11
717.59	59.83
717.774	60.41
717.958	61.07
718.142	61.41
718.325	62.79
718.509	61.05
718.693	63
718.877	64.09
719.06	64.51
719.244	66.98
719.428	70.3
719.611	68.57
719.795	68.46
719.978	68.69
720.162	72.11
720.345	72.73
720.529	73.26
720.713	74.8
720.896	76.46
721.08	77.96
721.263	76.86
721.446	72.5
721.63	76
721.813	76.71
721.997	76.46
722.18	71.85
722.364	68.42
722.547	68.7
722.73	67.61
722.914	67.12
723.097	66.37
723.28	66.33
723.464	66.25
723.647	63.99
723.83	63.7
724.013	61.79
724.197	59.12
724.38	59.65
724.563	59.77
724.746	58.93
724.929	56.82
725.112	55.87
725.296	56.73
725.479	56.58
725.662	58.99
725.845	59.04
726.028	59.39
726.211	62.31
726.394	63.04
726.577	67.51
726.76	66.18
726.943	68.33
727.126	69.84
727.309	70.72
727.492	70.67
727.675	67.22
727.858	68.48
728.041	71.44
728.224	71.91
728.407	72.34
728.589	67.63
728.772	67.23
728.955	65.46
729.138	64.05
729.321	62.4
729.503	61.31
729.686	63.87
729.869	63.26
730.052	62.58
730.234	62.02
730.417	63.4
730.6	65.13
730.782	66.97
730.965	66.83
731.148	65.39
731.33	66.38
731.513	66.34
731.695	67.04
731.878	66.02
732.061	65.81
732.243	67.36
732.426	64.93
732.608	63.1
732.791	62.49
732.973	63.59
733.156	65.9
733.338	64.57
733.52	68.34
733.703	67.26
733.885	65.77
734.068	68.1
734.25	67.48
734.432	68.62
734.615	69.74
734.797	70.8
734.979	69.42
735.162	68.82
735.344	66.87
735.526	65.01
735.708	66.79
735.891	69.59
736.073	67.58
736.255	66.65
736.437	66.92
736.619	65.71
736.802	64.65
736.984	65.86
737.166	67.9
737.348	70.79
737.53	69.23
737.712	68.52
737.894	66.27
738.076	65.34
738.258	64.58
738.44	63.1
738.622	63.37
738.804	63.26
738.986	62.49
739.168	59.83
739.35	60.38
739.532	61.54
739.714	62.57
739.896	64.48
740.078	64.34
740.259	66.33
740.441	67.97
740.623	69.04
740.805	70.06
740.987	71
741.168	72.37
741.35	72.24
741.532	70.89
741.714	68.71
741.895	69.64
742.077	70.01
742.259	68.39
742.44	67.64
742.622	67.4
742.804	66.01
742.985	64.94
743.167	64.75
743.348	65.98
743.53	71.62
743.711	72.79
743.893	74.61
744.075	75.63
744.256	80.69
744.438	79.49
744.619	78.5
744.8	77.8
744.982	77.62
745.163	77.09
745.345	76.8
745.526	71.27
745.707	72.69
745.889	68.04
746.07	66.55
746.252	63.46
746.433	67.26
746.614	69.24
746.795	70.53
746.977	66.63
747.158	66.6
747.339	64.22
747.52	67.37
747.702	64.4
747.883	66.16
748.064	67.7
748.245	67.3
748.426	63.06
748.607	61.03
748.788	63.98
748.97	65.18
749.151	65.67
749.332	65.72
749.513	63.21
749.694	62.5
749.875	64.26
750.056	65.52
750.237	63.63
750.418	66.43
750.599	63.49
750.78	61.41
750.96	60.92
751.141	61.41
751.322	60.65
751.503	60.2
751.684	63.04
751.865	62.65
752.046	62.96
752.226	66.48
752.407	65.51
752.588	69.65
752.769	70.71
752.949	77.71
753.13	78.37
753.311	80.11
753.492	83.3
753.672	78.6
753.853	79.5
754.034	77.59
754.214	78.2
754.395	76.21
754.575	75.86
754.756	73.34
754.937	69.42
755.117	69.64
755.298	70.98
755.478	73.56
755.659	76.77
755.839	74.33
756.02	74.19
756.2	70.04
756.381	72.64
756.561	71.34
756.741	72.02
756.922	73.66
757.102	71.56
757.283	69.03
757.463	68.02
757.643	69.83
757.823	70.8
758.004	75.64
758.184	75.37
758.364	73.04
758.545	72.68
758.725	72.65
758.905	71.44
759.085	72.82
759.265	74.97
759.446	68.88
759.626	64.55
759.806	61.53
759.986	57.15
760.166	57.1
760.346	56.62
760.526	59.27
760.706	58.95
760.886	59.04
761.066	59.12
761.246	57.19
761.426	61.85
761.606	62.79
761.786	64.02
761.966	66.38
762.146	66.02
762.326	65.26
762.506	63.46
762.686	62.7
762.866	61.28
763.046	61.72
763.225	62.64
763.405	61.76
763.585	62.45
763.765	62.87
763.945	62
764.124	63.25
764.304	66.36
764.484	65.61
764.664	66.71
764.843	68.36
765.023	65.17
765.203	66.58
765.382	66.45
765.562	66.91
765.741	67.76
765.921	67.46
766.101	69.81
766.28	69.03
766.46	67.8
766.639	69.16
766.819	69.79
766.998	74.13
767.178	73.58
767.357	77.8
767.537	77.97
767.716	77.22
767.896	75.81
768.075	73.46
768.254	73.71
768.434	76.51
768.613	77.73
768.792	75.39
768.972	75.3
769.151	78.2
769.33	71.32
769.51	72.03
769.689	76.52
769.868	78.11
770.047	75.11
770.226	73.37
770.406	69.42
770.585	67.24
770.764	71.04
770.943	69.45
771.122	63.32
771.301	65.26
771.48	64.14
771.66	57.4
771.839	59.87
772.018	62.69
772.197	65.23
772.376	69.63
772.555	70.07
772.734	73.21
772.913	75.2
773.092	77.59
773.271	79.24
773.449	78.8
773.628	78.13
773.807	73.35
773.986	70.37
774.165	68.56
774.344	69.7
774.523	68.46
774.701	66.17
774.88	67.78
775.059	66.32
775.238	67.89
775.417	69.7
775.595	70.23
775.774	69.41
775.953	70.84
776.131	65.57
776.31	64.45
776.489	63.3
776.667	58.64
776.846	53.9
777.025	55.63
777.203	51.66
777.382	48.08
777.56	52.35
777.739	52.08
777.917	56.85
778.096	61.4
778.274	59.68
778.453	62.13
778.631	62.71
778.81	65.54
778.988	65.09
779.166	67.25
779.345	64.08
779.523	63.93
779.702	65.37
779.88	61.81
780.058	58.53
780.237	61.6
780.415	64.05
780.593	66.15
780.771	67.92
780.95	67.23
781.128	67.54
781.306	67.35
781.484	61.76
781.662	62.14
781.841	61.82
782.019	66.36
782.197	64.91
782.375	62.51
782.553	62.3
782.731	57.01
782.909	55.23
783.087	52.24
783.265	57.9
783.443	58.86
783.621	56.15
783.799	54.09
783.977	53.72
784.155	51.39
784.333	47.75
784.511	48.81
784.689	50.3
784.867	52.12
785.045	50.5
785.223	47.56
785.4	52.07
785.578	51.53
785.756	54.48
785.934	50.53
786.112	52.3
786.289	57.17
786.467	52.92
786.645	57.08
786.823	63.17
787	69.96
787.178	71.89
787.356	69.43
787.533	72.9
787.711	77.79
787.889	85.26
788.066	84.3
788.244	82.75
788.421	84.98
788.599	83.76
788.776	77.74
788.954	73.11
789.131	74.58
789.309	67.65
789.486	60.84
789.664	55.55
789.841	54.39
790.019	60.65
790.196	62.96
790.373	61.29
790.551	66.77
790.728	71.6
790.906	67.08
791.083	66.23
791.26	76.3
791.437	79.03
791.615	86.73
791.792	84.56
791.969	80.72
792.146	80.06
792.324	83.86
792.501	75.79
792.678	71.93
792.855	70.16
793.032	70.13
793.209	68.73
793.387	72.34
793.564	66.75
793.741	66.96
793.918	65.45
794.095	60.95
794.272	61.22
794.449	63.16
794.626	61.16
794.803	66.59
794.98	63.3
795.157	62.82
795.334	63.78
795.511	62.15
795.688	59.72
795.864	62.69
796.041	65.06
796.218	65.62
796.395	65.46
796.572	67.13
796.749	68.46
796.925	68.15
797.102	67.75
797.279	67.53
797.456	68.36
797.632	72.03
797.809	72.14
797.986	74.5
798.162	76.57
798.339	75.58
798.516	76.44
798.692	75.43
798.869	79.68
799.046	81.79
799.222	82.85
799.399	83.2
799.575	85.65
799.752	77.28
799.928	73.95
800.105	74.17
800.281	75.86
800.458	76.84
800.634	76.32
800.811	75.31
800.987	78.52
801.163	78.75
801.34	77.33
801.516	69.3
801.692	76.23
801.869	80.49
802.045	73.26
802.221	67.47
802.398	66.26
802.574	63.99
802.75	60.43
802.926	58.98
803.103	59.91
803.279	59.83
803.455	61.82
803.631	59.05
803.807	56.89
803.983	67.44
804.16	72.81
804.336	70.54
804.512	71.87
804.688	73.93
804.864	70.38
805.04	64.75
805.216	74.96
805.392	77.08
805.568	75.13
805.744	80.61
805.92	72.81
806.096	70.92
806.272	72.82
806.448	69.61
806.623	70.19
806.799	68.49
806.975	70.93
807.151	63.89
807.327	73.33
807.503	78.17
807.678	73.04
807.854	75.16
808.03	73.5
808.206	71.02
808.381	80.46
808.557	81.27
808.733	79.39
808.908	75.8
809.084	79.9
809.26	73.14
809.435	70.33
809.611	77.37
809.787	70.85
809.962	80.53
810.138	88.41
810.313	71.89
810.489	76.92
810.664	84.36
810.84	85.09
811.015	82.02
811.191	75.77
811.366	76.84
811.542	78.78
811.717	84.06
811.892	83.75
812.068	78.13
812.243	83.37
812.419	77.11
812.594	70.1
812.769	79.08
812.944	78.11
813.12	80.41
813.295	83.42
813.47	85.84
813.645	88.89
813.821	85.29
813.996	86.81
814.171	89.31
814.346	95.57
814.521	99.46
814.697	84.17
814.872	85.49
815.047	99.95
815.222	94.03
815.397	90.15
815.572	82.26
815.747	82.82
815.922	89.44
816.097	88.47
816.272	85.79
816.447	84.46
816.622	89.23
816.797	86.93
816.972	73.1
817.147	70.82
817.322	61.83
817.496	68.86
817.671	62.53
817.846	51.9
818.021	46.23
818.196	55.62
818.371	59.37
818.545	65.65
818.72	65.17
818.895	62.24
819.069	68.44
819.244	70.6
819.419	65.82
819.594	71.49
819.768	72.5
819.943	73.33
820.117	66.15
820.292	61.53
820.467	60.2
820.641	60.43
820.816	63.22
820.99	62.52
821.165	63.28
821.339	62.97
821.514	61.21
821.688	61.21
821.863	60.32
822.037	60.56
822.212	60.74
822.386	60.86
822.56	61.46
822.735	60.02
822.909	59.61
823.084	59.85
823.258	59.88
823.432	60.04
823.606	60.02
823.781	60.6
823.955	60.4
824.129	60.71
824.303	60.94
824.478	60.25
824.652	61.79
824.826	61.04
825	58.3
825.174	57.61
825.348	57.69
825.523	58.02
825.697	59.51
825.871	59.79
826.045	59.48
826.219	59.28
826.393	57.92
826.567	59.67
826.741	61.72
826.915	64.19
827.089	63.48
827.263	63.41
827.437	63.39
827.611	62.85
827.784	62.36
827.958	62.19
828.132	62.36
828.306	64.22
828.48	59.98
828.654	60.2
828.827	57.48
829.001	58.89
829.175	60.54
829.349	60.97
829.522	56.31
829.696	58.33
829.87	61.28
830.044	59.11
830.217	59.5
830.391	60.01
830.565	53.64
830.738	51.85
830.912	54.43
831.085	57.29
831.259	54.01
831.432	63.26
831.606	61.12
831.779	61.78
831.953	69.53
832.126	72.13
832.3	70.97
832.473	70.76
832.647	70.97
832.82	69.65
832.994	64.79
833.167	67.91
833.34	60.64
833.514	59.74
833.687	59.07
833.86	56.13
834.034	51.69
834.207	54.74
834.38	58.6
834.553	61.43
834.727	60.72
834.9	64.13
835.073	62.12
835.246	67.75
835.419	68.99
835.593	65.52
835.766	65.26
835.939	72.11
836.112	71.84
836.285	72.86
836.458	78.81
836.631	84.42
836.804	81.39
836.977	91.14
837.15	83.07
837.323	80.84
837.496	87.58
837.669	84.77
837.842	65.05
838.015	67.95
838.188	71.3
838.361	51.79
838.533	53.73
838.706	70.59
838.879	62.84
839.052	67.65
839.225	84.14
839.398	85.28
839.57	80.34
839.743	92.2
839.916	84.83
840.088	74.68
840.261	80.81
840.434	73.86
840.607	72.78
840.779	70.19
840.952	66.45
841.124	64.57
841.297	69.97
841.47	71.05
841.642	66.44
841.815	65.46
841.987	68.32
842.16	69.4
842.332	69.74
842.505	64.33
842.677	68.61
842.85	72.81
843.022	73.57
843.194	59.68
843.367	68.15
843.539	59.33
843.712	57.43
843.884	56.2
844.056	39.15
844.229	45.44
844.401	44.16
844.573	45.35
844.745	68.02
844.918	74.27
845.09	107.79
845.262	116.28
845.434	179.17
845.606	249.44
845.779	294.31
845.951	590.46
846.123	539.97
846.295	430.59
846.467	311.54
846.639	277.72
846.811	650.37
846.983	346.36
847.155	442.05
847.327	202.95
847.499	154.96
847.671	193.21
847.843	195.2
848.015	225.06
848.187	259.46
848.359	1043.42
848.531	-906.86
848.703	852.43
848.875	-1863.52
849.047	2469.34
849.218	-997.36
849.39	-168.9
849.562	-117.75
849.734	-88.72
849.905	-114.35
850.077	-172.85
850.249	872.2
850.421	746.68
850.592	-694.35
850.764	429.89
850.936	356.48
851.107	126.2
851.279	129.09
851.451	82.13
851.622	76.34
851.794	62.48
851.965	52.14
852.137	64.18
852.308	84.68
852.48	79.2
852.651	70.65
852.823	81.73
852.994	143.65
853.166	151.79
853.337	349.37
853.509	413.55
853.68	-5800
853.851	276.53
854.023	182.25
854.194	151.34
854.365	274.89
854.537	237.12
854.708	186.52
854.879	154.17
855.05	173.5
855.222	145.22
855.393	281.27
855.564	762.47
855.735	-688.98
855.906	-2596.31
856.078	-571.94
856.249	-1155.82
856.42	-22746.43
856.591	943.05
856.762	8653.95
856.933	612.18
857.104	1542.55
857.275	309.92
857.446	172.54
857.617	151.81
857.788	123.93
857.959	107.99
858.13	118.21
858.301	197.98
858.472	259.22
858.643	176.42
858.814	223.24
858.985	139.14
859.155	166.18
859.326	176.9
859.497	431.98
859.668	-95.38
859.839	-45.86
860.009	16.45
860.18	40.55
860.351	17.33
860.522	1.3
860.692	-13.61
860.863	26.6
861.034	-52.63
861.204	-45.76
861.375	-13.15
861.546	-32.05
861.716	-35.65
861.887	-92.81
862.057	5900
862.228	133.64
862.398	320.01
862.569	252.48
862.739	326.08
862.91	178.64
863.08	119.73
863.251	131.1
863.421	145.71
863.592	128.25
863.762	144.57
863.932	152.04
864.103	197.78
864.273	282.08
864.443	722.12
864.614	170.22
864.784	259.51
864.954	322.36
865.125	535.96
865.295	410.84
865.465	984.23
865.635	571.18
865.805	411.11
865.976	231.11
866.146	151.82
866.316	126.87
866.486	183.11
866.656	233.22
866.826	183.55
866.996	240.12
867.166	504.3
867.336	500.75
867.506	1885.56
867.676	-13.32
867.846	-36.56
868.016	-36.86
868.186	-23.23
868.356	-43.39
868.526	9.08
868.696	-47.88
868.866	21.52
869.036	-49.77
869.206	-28.94
869.376	25.88
869.545	173.6
869.715	85.49
869.885	97.75
870.055	95.86
870.224	84.44
870.394	119.3
870.564	103.42
870.734	111.75
870.903	80.85
871.073	78.05
871.243	96.38
871.412	117.24
871.582	118.58
871.751	96.18
871.921	117.54
872.091	132.3
872.26	96.79
872.43	65.85
872.599	47.3
872.769	96.77
872.938	109.77
873.108	84.11
873.277	70.89
873.446	83.11
873.616	73.76
873.785	66.72
873.955	65.68
874.124	46.75
874.293	60.54
874.463	59.69
874.632	12.48
874.801	20.7
874.971	33.9
875.14	13.83
875.309	2.66
875.478	9.76
875.647	36.32
875.817	66.31
875.986	92.91
876.155	92.05
876.324	104.89
876.493	120.58
876.662	134.68
876.831	136.77
877	118.68
877.17	130.17
877.339	152.31
877.508	132.17
877.677	120.92
877.846	150.93
878.015	139.53
878.184	68.72
878.352	41.93
878.521	-10.68
878.69	-22.89
878.859	-23.63
879.028	2.11
879.197	1.55
879.366	11.55
879.534	3.46
879.703	9.69
879.872	13.11
880.041	24.57
880.21	28.94
880.378	40.3
880.547	43.96
880.716	42.5
880.884	37.8
881.053	41.51
881.222	43.18
881.39	45.88
881.559	48.71
881.727	46.6
881.896	44.74
882.065	45.15
882.233	47.33
882.402	47.41
882.57	49.67
882.739	54.63
882.907	54.62
883.076	53.44
883.244	54.39
883.412	55
883.581	58.67
883.749	60.02
883.918	62.33
884.086	61.72
884.254	68.3
884.423	68.55
884.591	65.52
884.759	63.83
884.927	59.26
885.096	59.73
885.264	57.64
885.432	54.29
885.6	55.51
885.769	47.76
885.937	51.22
886.105	34.38
886.273	27.24
886.441	21.98
886.609	5.93
886.777	16.66
886.945	15.76
887.113	9.64
887.281	0.53
887.449	-6.93
887.617	24.04
887.785	0.15
887.953	7.9
888.121	-26.13
888.289	-35.91
888.457	-24.64
888.625	-75.35
888.793	-169.01
888.961	-191.05
889.129	-21.71
889.296	2.53
889.464	-25.99
889.632	-21.98
889.8	-22.36
889.967	-8.78
890.135	7.92
