Data from JASIL_3078_Reflection_01.txt Node
Date: Mon Nov 09 11:50:16 EST 2015
User: Geneva
Spectrometer: USB4E03002
Autoset integration time: false
Trigger mode: 4
Integration Time (sec): 1.000000E-1
Scans to average: 10
Electric dark correction enabled: false
Nonlinearity correction enabled: false
Boxcar width: 5
Stray light correction enabled: false
XAxis mode: Wavelengths
Stop averaging: false
Number of Pixels in Spectrum: 3648
>>>>>Begin Spectral Data<<<<<
177.575	194.49
177.794	-842.11
178.014	608.16
178.233	205.78
178.452	217.39
178.672	196.79
178.891	150.97
179.11	352.08
179.33	232.4
179.549	82.53
179.768	44.27
179.987	79.91
180.207	85.98
180.426	64.08
180.645	96.54
180.864	102.48
181.084	115.36
181.303	118.01
181.522	96.12
181.741	-500
181.96	-81.58
182.179	-253.85
182.398	-33.62
182.618	35.77
182.837	21.43
183.056	57.14
183.275	575
183.494	-97.1
183.713	-2875
183.932	-1163.64
184.151	-52.94
184.37	-16.71
184.589	-21.67
184.808	7.43
185.027	40.72
185.246	60.6
185.465	62.76
185.684	139.3
185.903	274.47
186.122	386.79
186.341	411.63
186.56	1234.21
186.779	-195.77
186.998	-379.78
187.216	-584
187.435	58.7
187.654	-2071.43
187.873	-41.18
188.092	-52
188.311	122.31
188.53	127.88
188.748	98.3
188.967	87.74
189.186	100.87
189.405	106.06
189.623	122.28
189.842	146.18
190.061	292.22
190.28	233.64
190.498	666.67
190.717	203.76
190.936	76.67
191.154	40.55
191.373	24.35
191.592	45.45
191.81	-95.4
192.029	25.35
192.248	16.44
192.466	-5.11
192.685	15.51
192.904	10.32
193.122	29.76
193.341	48.61
193.559	53.87
193.778	38.59
193.996	48.14
194.215	54.14
194.433	52.97
194.652	92.93
194.87	93.31
195.089	108.76
195.307	258.76
195.526	22.22
195.744	-145.71
195.963	59.44
196.181	203.23
196.399	59.93
196.618	102.56
196.836	112.56
197.055	94.07
197.273	101.72
197.491	83.25
197.71	74.62
197.928	95.95
198.146	126.7
198.365	98.85
198.583	108.15
198.801	74.32
199.019	94.29
199.238	194.44
199.456	280.73
199.674	1120.83
199.892	-5636.36
200.111	-714.29
200.329	26266.67
200.547	400.57
200.765	250.29
200.983	249.45
201.202	317.71
201.42	221.77
201.638	156.45
201.856	131.86
202.074	103.16
202.292	95.38
202.51	94.98
202.728	71.63
202.946	96.69
203.165	97.29
203.383	87.86
203.601	54.25
203.819	77.56
204.037	92.42
204.255	129.95
204.473	132.08
204.691	135.59
204.909	129.8
205.127	128.04
205.345	119.8
205.562	168.08
205.78	119.74
205.998	140.65
206.216	169.76
206.434	147.39
206.652	136.26
206.87	126.11
207.088	104.2
207.306	105.77
207.523	121.05
207.741	143.41
207.959	615.15
208.177	-228.13
208.395	915.63
208.612	1777.78
208.83	189.02
209.048	99.03
209.266	7600
209.483	-298.86
209.701	-50
209.919	-12.43
210.136	-44.95
210.354	622.58
210.572	933.33
210.79	-313.04
211.007	-496.87
211.225	-176.44
211.442	-66.05
211.66	-70.16
211.878	-31.73
212.095	-496.77
212.313	415.38
212.53	969.7
212.748	-180
212.966	-488.57
213.183	858.33
213.401	-36.36
213.618	86.43
213.836	142.06
214.053	96.99
214.271	-130.77
214.488	22.9
214.705	30.12
214.923	52.6
215.14	65.22
215.358	107.23
215.575	102.17
215.793	106.56
216.01	107.63
216.227	91.71
216.445	126.64
216.662	216.43
216.879	231.41
217.097	295.3
217.314	334.82
217.531	-246.59
217.749	-662.5
217.966	3470
218.183	-32700
218.4	299.07
218.618	-196.08
218.835	650
219.052	141.38
219.269	244.72
219.487	245.45
219.704	1616
219.921	877.27
220.138	-348.25
220.355	-238.71
220.572	0.94
220.79	52.38
221.007	57.83
221.224	74.86
221.441	56.91
221.658	83.25
221.875	85.8
222.092	83.58
222.309	141.98
222.526	135.88
222.743	106.28
222.96	84.43
223.177	81.32
223.394	68.71
223.611	75.17
223.828	92.02
224.045	97.19
224.262	102.46
224.479	115.9
224.696	95.41
224.913	94.86
225.13	84.15
225.347	50
225.564	23.16
225.781	19.25
225.997	11.39
226.214	2.23
226.431	4.4
226.648	4.42
226.865	3.92
227.082	10.46
227.298	4.62
227.515	6.77
227.732	14.03
227.949	18.1
228.165	16.93
228.382	18.04
228.599	24.75
228.816	32.45
229.032	30.71
229.249	30.78
229.466	29.97
229.682	45.09
229.899	41.59
230.116	46.32
230.332	51.29
230.549	54.22
230.765	44.48
230.982	34.21
231.199	23.07
231.415	22.14
231.632	39.62
231.848	42.5
232.065	34.5
232.281	35.21
232.498	35.83
232.714	23.23
232.931	22.53
233.147	30.74
233.364	30.92
233.58	31.89
233.797	29.06
234.013	13.13
234.23	2.82
234.446	11.14
234.662	14.95
234.879	1.08
235.095	-1.35
235.312	-0.58
235.528	-1.32
235.744	-12.6
235.961	-36.74
236.177	-17.01
236.393	-9.27
236.61	7.98
236.826	-8.29
237.042	-16.42
237.258	-8.16
237.475	-0.88
237.691	10.02
237.907	13.61
238.123	25.44
238.339	39.96
238.556	29.58
238.772	25.7
238.988	20.06
239.204	27.02
239.42	28.95
239.636	42.1
239.853	33.11
240.069	26.11
240.285	25.08
240.501	24.77
240.717	19.61
240.933	19.98
241.149	21.04
241.365	16.73
241.581	14.51
241.797	14.15
242.013	9.48
242.229	14.33
242.445	13.89
242.661	11.84
242.877	11.05
243.093	14.26
243.309	11.94
243.525	13.38
243.741	17.52
243.957	17.83
244.173	19.07
244.388	18.97
244.604	12.88
244.82	13.22
245.036	15.12
245.252	13.63
245.468	11.52
245.683	10.14
245.899	10.8
246.115	10.82
246.331	12.53
246.547	9.23
246.762	11.54
246.978	12.39
247.194	11.28
247.409	8.31
247.625	8.78
247.841	10.31
248.057	13.27
248.272	14.04
248.488	10.45
248.703	2.35
248.919	10.07
249.135	2.57
249.35	0.39
249.566	6.19
249.782	2.86
249.997	2.52
250.213	-0.74
250.428	-5.03
250.644	-5.19
250.859	-1.58
251.075	1.89
251.29	0.92
251.506	1.58
251.721	2.14
251.937	1.29
252.152	6.15
252.368	5.26
252.583	14.06
252.798	24.45
253.014	26.87
253.229	26.85
253.445	26.93
253.66	19.47
253.875	16.51
254.091	17.47
254.306	13.28
254.521	11.91
254.737	9.14
254.952	-1.16
255.167	-11.92
255.383	-8.32
255.598	-9.26
255.813	-1.16
256.028	1.68
256.244	5.21
256.459	3.49
256.674	1.34
256.889	4.29
257.104	7.99
257.32	8.62
257.535	9.92
257.75	6.05
257.965	6.24
258.18	3.53
258.395	4
258.61	3.56
258.826	4.75
259.041	6.65
259.256	5.09
259.471	4.57
259.686	4.98
259.901	4.9
260.116	5.52
260.331	5.44
260.546	4.32
260.761	6.63
260.976	5.46
261.191	3.92
261.406	5.23
261.621	6.79
261.836	9.52
262.05	8.43
262.265	9.99
262.48	13.93
262.695	15.66
262.91	19.16
263.125	19.61
263.34	22.75
263.555	19.13
263.769	16.14
263.984	15.93
264.199	10.9
264.414	12.95
264.629	13.46
264.843	12.47
265.058	9.68
265.273	10.23
265.488	5.99
265.702	2.57
265.917	6.59
266.132	9.07
266.346	6.95
266.561	11.66
266.776	16.22
266.99	10.39
267.205	6.54
267.42	9.87
267.634	9.55
267.849	11.25
268.063	7.9
268.278	8.39
268.492	4.21
268.707	8.27
268.922	3.77
269.136	-4.66
269.351	2.15
269.565	9.49
269.78	7.45
269.994	6.35
270.209	4.95
270.423	11.59
270.637	10.52
270.852	11.67
271.066	9.41
271.281	8.38
271.495	9.52
271.709	6.96
271.924	3.55
272.138	4.18
272.353	4.69
272.567	5.57
272.781	2.37
272.996	3.58
273.21	4.41
273.424	4.59
273.638	4.65
273.853	4.19
274.067	6.22
274.281	3.9
274.495	5.14
274.71	5.56
274.924	2.77
275.138	2.98
275.352	-4.29
275.566	-7.55
275.781	-6.65
275.995	-4.29
276.209	-3.78
276.423	0.71
276.637	5.15
276.851	1.1
277.065	2.27
277.279	4.79
277.493	6.62
277.707	10.43
277.921	9.54
278.135	11.38
278.349	9.58
278.563	9.05
278.777	6.8
278.991	3.87
279.205	7.55
279.419	4.7
279.633	2.01
279.847	-0.04
280.061	1.11
280.275	3.76
280.489	5.16
280.703	5.03
280.917	6.13
281.131	2.39
281.344	2.73
281.558	-1.39
281.772	-0.21
281.986	1.72
282.2	-1.07
282.414	-1.13
282.627	-1.87
282.841	-4.53
283.055	-6.02
283.269	-6.29
283.482	-1.52
283.696	0.08
283.91	5.69
284.123	4.57
284.337	5.39
284.551	7.43
284.764	8.82
284.978	8.85
285.192	7.95
285.405	11.48
285.619	12.89
285.833	11.38
286.046	10.34
286.26	6.61
286.473	8.36
286.687	6.24
286.9	7.92
287.114	4.55
287.327	3.93
287.541	4.45
287.754	-0.24
287.968	-1.45
288.181	-0.28
288.395	0.33
288.608	0.96
288.822	-0.49
289.035	1.5
289.248	-0.26
289.462	1.69
289.675	1.85
289.889	0.54
290.102	4.43
290.315	6.73
290.529	4.84
290.742	4.19
290.955	3.75
291.169	5.68
291.382	5.53
291.595	6.26
291.808	4.19
292.022	5.81
292.235	9.98
292.448	8.96
292.661	8.23
292.875	8.18
293.088	7.96
293.301	11.65
293.514	11.89
293.727	12.32
293.94	14.02
294.153	14.71
294.367	13.06
294.58	10.2
294.793	9.39
295.006	7.82
295.219	8.11
295.432	8.65
295.645	8
295.858	5
296.071	5.36
296.284	3.66
296.497	3.16
296.71	4.83
296.923	4.73
297.136	4.66
297.349	6.01
297.562	5.57
297.775	4.37
297.988	3.99
298.201	5.45
298.414	4.42
298.626	4.1
298.839	4.78
299.052	3.95
299.265	6.61
299.478	9.67
299.691	9.7
299.903	9.11
300.116	9.58
300.329	7.55
300.542	7.9
300.755	8.15
300.967	7.68
301.18	5.79
301.393	3.29
301.605	2.25
301.818	-1.33
302.031	-2.84
302.243	0.78
302.456	0.66
302.669	1.36
302.881	2.41
303.094	0.74
303.307	3.98
303.519	7.37
303.732	8.5
303.944	10.14
304.157	10.91
304.37	10.32
304.582	5.08
304.795	5.76
305.007	4.95
305.22	7.22
305.432	10.71
305.645	9.86
305.857	7.1
306.069	6.05
306.282	3.72
306.494	4.84
306.707	4.21
306.919	7.41
307.132	5.22
307.344	5.87
307.556	3.73
307.769	-1.04
307.981	-3.65
308.193	-0.28
308.406	2.72
308.618	4.16
308.83	4.63
309.043	4.29
309.255	3.91
309.467	4.11
309.679	5.97
309.892	5.67
310.104	9.7
310.316	10.17
310.528	8.75
310.74	7.91
310.953	6.8
311.165	7.69
311.377	9.56
311.589	10.94
311.801	10.96
312.013	7.31
312.225	8.07
312.437	6.26
312.649	7.58
312.862	6.46
313.074	3.35
313.286	1.99
313.498	0.82
313.71	0.5
313.922	-0.93
314.134	1.86
314.346	4.48
314.558	7.02
314.77	7.89
314.982	7.75
315.193	9.67
315.405	10.9
315.617	11.97
315.829	12.17
316.041	13.4
316.253	13.06
316.465	12.16
316.677	13.56
316.888	9.82
317.1	12.12
317.312	12.89
317.524	9.84
317.736	11.56
317.947	12.17
318.159	10.07
318.371	6.86
318.583	10.76
318.794	13.03
319.006	13.9
319.218	14.89
319.43	10.43
319.641	8.67
319.853	12.17
320.064	10.71
320.276	9.59
320.488	7.57
320.699	8.64
320.911	5.87
321.123	4.71
321.334	3.32
321.546	2.83
321.757	1.4
321.969	2.69
322.18	1.64
322.392	3.56
322.603	3.88
322.815	5.54
323.026	5.96
323.238	5.81
323.449	6.15
323.661	3.98
323.872	4.1
324.083	7.6
324.295	4.4
324.506	3.86
324.718	3.24
324.929	6.36
325.14	8.74
325.352	8.13
325.563	9.11
325.774	10.5
325.986	12.9
326.197	12.04
326.408	11.24
326.62	13.99
326.831	15.26
327.042	16.88
327.253	15.77
327.464	17.05
327.676	19.11
327.887	17.36
328.098	14.47
328.309	11.45
328.52	11.13
328.732	7.69
328.943	8.47
329.154	6.04
329.365	5.12
329.576	1.87
329.787	-2.16
329.998	-3.69
330.209	-5.11
330.42	-1.63
330.631	2.49
330.842	6.62
331.053	9.57
331.264	8.6
331.475	9.18
331.686	9.12
331.897	13.29
332.108	13.46
332.319	13.36
332.53	17.89
332.741	17.73
332.952	15.53
333.163	14.77
333.374	15.49
333.585	16.46
333.795	19.3
334.006	17.36
334.217	14.89
334.428	18.82
334.639	19.35
334.849	17.73
335.06	14.85
335.271	15.9
335.482	12.64
335.692	10.15
335.903	9.96
336.114	9.96
336.325	13.81
336.535	13.2
336.746	11.85
336.957	11.55
337.167	13.78
337.378	16.74
337.589	15.27
337.799	17.88
338.01	18.26
338.22	18.7
338.431	15.79
338.642	12.1
338.852	9.84
339.063	7.18
339.273	5.61
339.484	7.31
339.694	6.75
339.905	6.87
340.115	7.31
340.326	6.07
340.536	5.4
340.746	5.93
340.957	7.04
341.167	8.95
341.378	9.98
341.588	12.37
341.799	8.31
342.009	9.33
342.219	9.35
342.43	8.17
342.64	10.8
342.85	9.41
343.061	9.51
343.271	9.71
343.481	11.19
343.691	10.5
343.902	8.44
344.112	8.59
344.322	7.26
344.532	7.89
344.743	6.66
344.953	7.05
345.163	7.92
345.373	9.13
345.583	8.3
345.793	6.59
346.004	7.17
346.214	8.76
346.424	8.28
346.634	10.5
346.844	12.42
347.054	13.24
347.264	12.03
347.474	12.71
347.684	11.59
347.894	11.85
348.104	11.74
348.314	10.26
348.524	9.53
348.734	11.54
348.944	7.65
349.154	6.26
349.364	6.7
349.574	8.06
349.784	7.07
349.994	7.48
350.204	6.78
350.413	8.37
350.623	8.95
350.833	9.24
351.043	7.68
351.253	11.03
351.463	9.96
351.672	8.34
351.882	8.03
352.092	10.23
352.302	10.22
352.511	11.16
352.721	9.76
352.931	10.83
353.141	11.85
353.35	12.15
353.56	10.98
353.77	11.5
353.979	12.5
354.189	11.74
354.399	11.1
354.608	11.8
354.818	12.6
355.027	13.86
355.237	14.51
355.447	13.6
355.656	13.23
355.866	12.3
356.075	12.6
356.285	13.77
356.494	13.73
356.704	12.96
356.913	11.51
357.123	11.23
357.332	9.43
357.542	7.67
357.751	8.3
357.96	7.23
358.17	7.67
358.379	6.32
358.589	6.4
358.798	6.79
359.007	6.85
359.217	7.78
359.426	7.26
359.635	9.17
359.845	11.52
360.054	10.14
360.263	10.94
360.472	10.18
360.682	10.35
360.891	10.18
361.1	9.21
361.309	8.71
361.519	7.56
361.728	8.05
361.937	8.02
362.146	7.03
362.355	8.52
362.564	9.34
362.774	9.17
362.983	10.76
363.192	11.37
363.401	12.32
363.61	14.84
363.819	17.18
364.028	16.19
364.237	16.31
364.446	15.49
364.655	15
364.864	13.62
365.073	14.77
365.282	14.09
365.491	12.03
365.7	13.32
365.909	11.47
366.118	9.48
366.327	9.51
366.536	10.17
366.745	9.5
366.954	9.54
367.162	11.41
367.371	11.22
367.58	11.27
367.789	12.62
367.998	10.56
368.207	10.8
368.415	11.81
368.624	11.54
368.833	10.68
369.042	9.72
369.25	9.65
369.459	9.24
369.668	9.36
369.877	8.66
370.085	5.44
370.294	5.25
370.503	4.88
370.711	4.84
370.92	6.4
371.129	6.42
371.337	8.35
371.546	8.91
371.754	7.41
371.963	6.57
372.171	7.63
372.38	9.71
372.589	11.86
372.797	10.78
373.006	10.17
373.214	9
373.423	9.43
373.631	8.5
373.84	7.7
374.048	8.18
374.256	7.97
374.465	6.52
374.673	7.69
374.882	6.87
375.09	7.58
375.298	8.28
375.507	8.2
375.715	7.07
375.923	7.76
376.132	7.58
376.34	9.47
376.548	9.55
376.757	9.51
376.965	9.22
377.173	9.56
377.381	9.91
377.59	10.44
377.798	11.79
378.006	11.6
378.214	12.45
378.423	13.15
378.631	11.65
378.839	13.61
379.047	14.8
379.255	15.3
379.463	15.49
379.671	15.64
379.879	13.69
380.088	12.56
380.296	12.37
380.504	12.24
380.712	12.23
380.92	10.26
381.128	7.94
381.336	8.29
381.544	7.46
381.752	5.75
381.96	4.89
382.168	4.34
382.376	5.43
382.584	4.25
382.791	3.54
382.999	2.42
383.207	4.73
383.415	5.32
383.623	5.22
383.831	5.39
384.039	7.13
384.247	7.3
384.454	6.97
384.662	5.9
384.87	6.76
385.078	6.87
385.285	5.82
385.493	5.17
385.701	6.47
385.909	5.31
386.116	5.81
386.324	4.41
386.532	5.68
386.739	7.07
386.947	8.57
387.155	7.85
387.362	7.63
387.57	8.37
387.778	8.82
387.985	6.95
388.193	8.44
388.4	7.42
388.608	8.54
388.816	7.66
389.023	7.79
389.231	6.45
389.438	8.01
389.646	8.8
389.853	8.43
390.061	8.93
390.268	10.32
390.475	9.33
390.683	8.76
390.89	7.6
391.098	6.99
391.305	7.33
391.512	7.78
391.72	8.06
391.927	6.67
392.135	7.66
392.342	7.55
392.549	6.11
392.756	5.19
392.964	6.06
393.171	6.62
393.378	6.85
393.586	8.03
393.793	8.37
394	7.39
394.207	7.45
394.414	8.13
394.622	7.42
394.829	8.39
395.036	9.95
395.243	9.28
395.45	8.3
395.657	8.44
395.864	6.84
396.072	5.48
396.279	6.32
396.486	7.51
396.693	7.02
396.9	7.22
397.107	7.64
397.314	8.29
397.521	9.01
397.728	9.5
397.935	8.83
398.142	8.82
398.349	9.54
398.556	9.12
398.763	8.79
398.97	9
399.177	9.4
399.383	9.66
399.59	8.46
399.797	7.85
400.004	7.99
400.211	9.5
400.418	9.91
400.625	9.61
400.831	9.5
401.038	8.91
401.245	9.25
401.452	9.64
401.658	9.2
401.865	9.67
402.072	10.14
402.279	9.74
402.485	9.31
402.692	8.63
402.899	9.88
403.105	9.83
403.312	10.18
403.519	8.88
403.725	8.99
403.932	9.1
404.138	8.7
404.345	7.62
404.552	8.73
404.758	8.69
404.965	9.52
405.171	9.49
405.378	9.36
405.584	10.59
405.791	11.74
405.997	11.53
406.204	11.24
406.41	10.88
406.617	11.82
406.823	11.59
407.029	11.45
407.236	10.62
407.442	9.82
407.649	9.95
407.855	8.56
408.061	7.81
408.268	7.12
408.474	6.94
408.68	8.07
408.887	8.7
409.093	7.63
409.299	8
409.505	8.25
409.712	8.07
409.918	7.79
410.124	9
410.33	9.4
410.537	9.9
410.743	10.23
410.949	9.92
411.155	9.12
411.361	9.88
411.567	10.7
411.773	10.75
411.98	11.09
412.186	10.78
412.392	9.33
412.598	9.23
412.804	8.45
413.01	8
413.216	8.08
413.422	8.63
413.628	8.83
413.834	8.52
414.04	8.29
414.246	7.98
414.452	8.23
414.658	8.55
414.864	8.62
415.07	10.09
415.275	10.35
415.481	10.31
415.687	9.96
415.893	9.88
416.099	9.11
416.305	9.75
416.511	9.3
416.716	10.03
416.922	10.1
417.128	10.53
417.334	9.26
417.539	9.19
417.745	9.19
417.951	8.79
418.157	9.05
418.362	8.84
418.568	8.58
418.774	8.84
418.979	8.15
419.185	7.87
419.391	7.2
419.596	7.93
419.802	8.26
420.008	8.2
420.213	8.06
420.419	8.17
420.624	8.08
420.83	7.71
421.035	7.56
421.241	7.79
421.446	7.91
421.652	8.08
421.857	8.02
422.063	7.84
422.268	7.85
422.474	8.65
422.679	8.16
422.885	8.64
423.09	8.9
423.295	9.26
423.501	9.52
423.706	9.52
423.911	9.52
424.117	8.9
424.322	8.43
424.527	8.78
424.733	8.89
424.938	8.72
425.143	8.72
425.349	8.57
425.554	8.08
425.759	8.54
425.964	8.74
426.169	9.25
426.375	9.6
426.58	10.16
426.785	9.94
426.99	8.96
427.195	9.25
427.4	9.13
427.605	9.51
427.811	10.05
428.016	9.27
428.221	9.5
428.426	9.03
428.631	9.27
428.836	9.2
429.041	9.03
429.246	10.09
429.451	9.85
429.656	9.46
429.861	9.62
430.066	9.34
430.271	8.82
430.476	8.85
430.681	8.41
430.886	8.42
431.09	8.44
431.295	8.37
431.5	7.86
431.705	8.4
431.91	8.51
432.115	8.75
432.32	8.44
432.524	8.67
432.729	9.04
432.934	9.81
433.139	9.57
433.343	9.86
433.548	9.72
433.753	10.42
433.958	10.57
434.162	11.11
434.367	10.01
434.572	10.25
434.776	10.57
434.981	9.37
435.186	9.41
435.39	9.72
435.595	9.73
435.799	9.77
436.004	8.87
436.209	7.95
436.413	8.03
436.618	8.26
436.822	8.46
437.027	8.33
437.231	8.78
437.436	8.18
437.64	7.79
437.845	7.89
438.049	8.04
438.253	8.49
438.458	8.71
438.662	8.67
438.867	9.03
439.071	9.02
439.275	8.61
439.48	8.88
439.684	8.89
439.888	9.2
440.093	8.76
440.297	8.68
440.501	8.52
440.706	8.41
440.91	8.28
441.114	8.62
441.318	8.67
441.523	9.09
441.727	8.82
441.931	9.17
442.135	9.44
442.339	9.66
442.543	9.72
442.748	9.34
442.952	9.89
443.156	9.65
443.36	9.1
443.564	9.32
443.768	9.25
443.972	9.37
444.176	9.4
444.38	9.44
444.584	8.89
444.788	8.64
444.992	9.29
445.196	8.76
445.4	8.82
445.604	8.79
445.808	8.19
446.012	7.9
446.216	7.69
446.42	7.14
446.624	6.5
446.828	7.23
447.032	7.41
447.235	6.76
447.439	6.89
447.643	7.03
447.847	7.36
448.051	7.36
448.254	8
448.458	7.78
448.662	8.25
448.866	8.49
449.069	8.27
449.273	8.76
449.477	9.13
449.681	9.62
449.884	9.46
450.088	9.01
450.292	9.71
450.495	9.61
450.699	10.52
450.902	10.14
451.106	9.78
451.31	9.9
451.513	9.8
451.717	9.36
451.92	8.95
452.124	8.98
452.327	9.06
452.531	9.08
452.734	8.46
452.938	8.26
453.141	8.14
453.345	8.95
453.548	8.82
453.752	8.11
453.955	8.61
454.158	9.13
454.362	8.72
454.565	8.95
454.769	8.24
454.972	8.61
455.175	8.03
455.379	8.15
455.582	7.74
455.785	7.61
455.988	7.25
456.192	7.28
456.395	6.94
456.598	7.57
456.801	7.19
457.005	7.8
457.208	8.05
457.411	8.33
457.614	7.88
457.817	7.8
458.021	7.71
458.224	8.2
458.427	8.21
458.63	8.23
458.833	8.05
459.036	8.4
459.239	8.03
459.442	7.87
459.645	7.85
459.848	8.07
460.051	8.03
460.254	8.03
460.457	7.43
460.66	7.29
460.863	6.8
461.066	6.64
461.269	6.62
461.472	6.61
461.675	6.61
461.878	6.78
462.081	7.41
462.284	7.47
462.486	7.4
462.689	7.88
462.892	8.39
463.095	9.41
463.298	9.45
463.5	9.47
463.703	9.3
463.906	9.63
464.109	9.62
464.311	9.06
464.514	9.3
464.717	9.64
464.92	10.03
465.122	9.44
465.325	8.67
465.528	9.04
465.73	8.29
465.933	8.28
466.135	7.75
466.338	7.72
466.541	8.63
466.743	8.21
466.946	7.92
467.148	7.71
467.351	7.58
467.553	8.36
467.756	8.13
467.958	8.62
468.161	8.83
468.363	8.99
468.566	8.72
468.768	8.44
468.971	8.99
469.173	9.25
469.375	9.01
469.578	9.56
469.78	8.36
469.983	8.53
470.185	8.38
470.387	8.54
470.59	8.39
470.792	7.38
470.994	7.69
471.196	7.25
471.399	6.7
471.601	6.8
471.803	6.35
472.005	6.44
472.208	6.7
472.41	7.16
472.612	7.25
472.814	7.6
473.016	8.81
473.218	8.52
473.421	8.69
473.623	9.39
473.825	8.85
474.027	9.17
474.229	8.84
474.431	7.77
474.633	7.69
474.835	7.84
475.037	7.68
475.239	7.09
475.441	6.87
475.643	7.07
475.845	6.94
476.047	7.73
476.249	7.47
476.451	8.47
476.653	8.52
476.855	8.34
477.057	8.54
477.258	8.45
477.46	9.02
477.662	8.86
477.864	8.91
478.066	8.29
478.268	8
478.469	8.35
478.671	7.94
478.873	8.64
479.075	8.87
479.276	8.56
479.478	8.97
479.68	9.02
479.882	9.39
480.083	9.44
480.285	9.93
480.487	9.76
480.688	9.92
480.89	9.93
481.091	9.78
481.293	9.76
481.495	9.71
481.696	9.53
481.898	9.24
482.099	9
482.301	8.83
482.502	8.73
482.704	8.86
482.905	8.53
483.107	8.4
483.308	8.27
483.51	8.22
483.711	8.17
483.913	8.17
484.114	8.31
484.315	8.33
484.517	8.49
484.718	8.56
484.92	8.49
485.121	8.82
485.322	9.12
485.524	9.21
485.725	9.15
485.926	9.31
486.127	9.21
486.329	9.09
486.53	9.07
486.731	8.97
486.932	9.01
487.134	9.05
487.335	8.8
487.536	8.66
487.737	8.77
487.938	8.67
488.139	8.7
488.341	8.74
488.542	8.66
488.743	8.73
488.944	8.65
489.145	8.38
489.346	8.5
489.547	8.49
489.748	8.38
489.949	8.29
490.15	8.36
490.351	8.28
490.552	8.27
490.753	8.45
490.954	8.29
491.155	8.27
491.356	8.53
491.557	8.24
491.758	8.52
491.959	8.77
492.159	8.82
492.36	8.62
492.561	8.33
492.762	8.17
492.963	7.97
493.164	8.48
493.364	8.8
493.565	8.78
493.766	9.23
493.967	9.04
494.167	8.75
494.368	8.88
494.569	9.17
494.769	9.65
494.97	9.71
495.171	10
495.371	9.79
495.572	9.84
495.773	9.86
495.973	9.65
496.174	9.91
496.375	9.89
496.575	9.75
496.776	9.69
496.976	9.01
497.177	9.18
497.377	8.89
497.578	8.92
497.778	8.72
497.979	8.19
498.179	8.51
498.38	8.07
498.58	8.21
498.78	8.05
498.981	8.11
499.181	8.57
499.382	9.05
499.582	8.86
499.782	8.74
499.983	8.85
500.183	9.43
500.383	9.3
500.584	9.65
500.784	9.71
500.984	10
501.184	10.43
501.385	9.93
501.585	9.54
501.785	9.76
501.985	9.88
502.185	9.74
502.386	9.61
502.586	9.54
502.786	9.51
502.986	9.53
503.186	9.06
503.386	8.89
503.586	9.6
503.786	9.33
503.987	9.58
504.187	9.97
504.387	10.19
504.587	10.26
504.787	10.15
504.987	9.88
505.187	10.1
505.387	10.21
505.587	9.95
505.786	9.82
505.986	9.97
506.186	9.67
506.386	9.32
506.586	8.98
506.786	9.26
506.986	9.53
507.186	9.64
507.386	9.77
507.585	10.29
507.785	10.27
507.985	10.28
508.185	10.23
508.384	10.44
508.584	10.8
508.784	10.81
508.984	10.6
509.183	10.49
509.383	10.71
509.583	10.47
509.782	10.14
509.982	10.66
510.182	10.49
510.381	10.31
510.581	10.23
510.781	9.55
510.98	9.74
511.18	9.66
511.379	9.58
511.579	8.88
511.778	9.15
511.978	8.88
512.177	8.28
512.377	8.52
512.576	9.1
512.776	9.27
512.975	9.51
513.175	10.03
513.374	9.99
513.573	10.07
513.773	10.88
513.972	10.37
514.172	10.72
514.371	11.31
514.57	11.48
514.77	11.27
514.969	10.92
515.168	10.93
515.367	10.52
515.567	10.96
515.766	10.95
515.965	11.1
516.164	11.52
516.364	11.36
516.563	11
516.762	10.74
516.961	10.66
517.16	10.92
517.359	11.32
517.559	10.98
517.758	10.9
517.957	10.78
518.156	10.78
518.355	10.77
518.554	10.77
518.753	10.61
518.952	10.46
519.151	10.63
519.35	10.58
519.549	10.31
519.748	10.67
519.947	10.51
520.146	10.47
520.345	10.37
520.544	10.68
520.743	11.14
520.942	11.83
521.141	12.36
521.339	12.22
521.538	12.46
521.737	12.21
521.936	12.31
522.135	12.59
522.333	12.68
522.532	12.75
522.731	12.59
522.93	12.31
523.129	11.97
523.327	11.79
523.526	11.74
523.725	11.61
523.923	12.62
524.122	12.5
524.321	12.67
524.519	12.77
524.718	12.76
524.917	12.57
525.115	12.77
525.314	12.83
525.512	12.93
525.711	13.09
525.909	13.2
526.108	12.54
526.306	12.51
526.505	12.11
526.703	12.34
526.902	12.3
527.1	12.17
527.299	12.18
527.497	12.26
527.696	12.27
527.894	12.3
528.092	12.2
528.291	12.27
528.489	12.49
528.688	12.66
528.886	12.71
529.084	12.85
529.283	13.04
529.481	12.95
529.679	13.07
529.877	13.35
530.076	13.45
530.274	13.67
530.472	13.78
530.67	13.94
530.869	13.73
531.067	13.7
531.265	13.37
531.463	13.61
531.661	13.67
531.859	13.8
532.057	13.74
532.255	13.63
532.454	13.58
532.652	13.73
532.85	12.98
533.048	13.12
533.246	13.07
533.444	13.31
533.642	13.18
533.84	13.31
534.038	12.98
534.236	13
534.434	13.56
534.632	13.57
534.83	13.43
535.027	14.04
535.225	14.41
535.423	14.56
535.621	14.48
535.819	14.52
536.017	14.45
536.215	14.44
536.412	14.11
536.61	13.86
536.808	14.1
537.006	14.07
537.203	14.19
537.401	14.24
537.599	13.8
537.797	13.97
537.994	14.14
538.192	14.14
538.39	14.56
538.587	14.97
538.785	15.03
538.983	14.79
539.18	14.78
539.378	14.81
539.575	15.02
539.773	15.21
539.97	15.2
540.168	15.26
540.366	15.36
540.563	15.19
540.761	15.28
540.958	15.13
541.155	15.39
541.353	15.41
541.55	15.41
541.748	15.02
541.945	15.09
542.143	15.26
542.34	15.34
542.537	15.43
542.735	15.56
542.932	15.58
543.129	15.83
543.327	15.94
543.524	16.48
543.721	16.41
543.919	16.58
544.116	16.76
544.313	16.44
544.51	16.46
544.708	16.77
544.905	17.13
545.102	17.3
545.299	17.45
545.496	17.2
545.693	16.98
545.891	17.55
546.088	18.09
546.285	18.14
546.482	19.22
546.679	18.97
546.876	18.82
547.073	18.58
547.27	18.44
547.467	18.38
547.664	18.35
547.861	18.35
548.058	18.51
548.255	18.9
548.452	18.74
548.649	17.99
548.846	18.69
549.043	19.18
549.24	18.84
549.437	18.89
549.633	19.21
549.83	19.78
550.027	20.39
550.224	20.74
550.421	20.07
550.618	19.95
550.814	20.04
551.011	20.13
551.208	19.54
551.405	20.17
551.601	20.04
551.798	20.06
551.995	19.79
552.191	19.5
552.388	19.24
552.585	19.57
552.781	19.96
552.978	19.82
553.175	19.9
553.371	20.13
553.568	19.87
553.764	20.47
553.961	20.28
554.157	20.43
554.354	20.1
554.55	19.98
554.747	20.04
554.943	20.16
555.14	20.69
555.336	20.58
555.533	21.35
555.729	21.81
555.926	21.66
556.122	21.79
556.318	21.66
556.515	22.02
556.711	21.58
556.907	21.68
557.104	21.62
557.3	21.71
557.496	22.25
557.693	22.01
557.889	22.42
558.085	22.78
558.281	22.65
558.478	23.34
558.674	24.11
558.87	24.68
559.066	23.91
559.262	24.44
559.459	24.27
559.655	23.62
559.851	23.57
560.047	23.65
560.243	23.71
560.439	24.13
560.635	23.84
560.831	22.98
561.027	22.78
561.223	23.68
561.419	23.35
561.615	23.67
561.811	24.02
562.007	24.35
562.203	23.82
562.399	23.03
562.595	23.38
562.791	23.43
562.987	24.32
563.183	24.34
563.379	24.12
563.575	24.22
563.771	24.49
563.966	24.52
564.162	24.56
564.358	25.67
564.554	26.67
564.75	26.13
564.945	26.27
565.141	26.13
565.337	26.84
565.533	26.85
565.728	26.97
565.924	26.47
566.12	27.13
566.315	26.95
566.511	26.57
566.707	27.07
566.902	27.12
567.098	27.4
567.293	27.25
567.489	26.2
567.684	26.85
567.88	26.94
568.076	26.8
568.271	26.51
568.467	26.32
568.662	25.89
568.858	25
569.053	25.19
569.248	24.83
569.444	24.65
569.639	25.56
569.835	25.58
570.03	25.67
570.225	26.15
570.421	26.67
570.616	27.19
570.812	27.49
571.007	27.86
571.202	28.05
571.397	28.61
571.593	29.19
571.788	29.18
571.983	28.88
572.178	29.39
572.374	29.41
572.569	28.81
572.764	28.86
572.959	28.53
573.154	28.48
573.35	28.29
573.545	27.42
573.74	26.91
573.935	27.25
574.13	27.42
574.325	27.19
574.52	27.5
574.715	27.26
574.91	27.67
575.105	28.14
575.3	27.97
575.495	28.03
575.69	28.99
575.885	29.17
576.08	29.09
576.275	29.68
576.47	29.51
576.665	29.61
576.86	29.86
577.055	29.4
577.25	29.48
577.444	29.91
577.639	30.3
577.834	30.23
578.029	30.71
578.224	30.28
578.418	30.13
578.613	30.7
578.808	30.33
579.003	30.3
579.197	29.81
579.392	29.99
579.587	29.29
579.781	29.16
579.976	29.72
580.171	29.43
580.365	29.93
580.56	29.64
580.755	29
580.949	29.77
581.144	30.51
581.338	31.65
581.533	31.14
581.727	31.87
581.922	31.31
582.116	31.7
582.311	31.43
582.505	31.98
582.7	31.94
582.894	32.91
583.089	33.84
583.283	33.63
583.478	32.77
583.672	33.96
583.866	33.61
584.061	34.34
584.255	34.24
584.449	35.11
584.644	34.72
584.838	34.73
585.032	35.01
585.226	33.49
585.421	34.1
585.615	35.07
585.809	34.85
586.003	35.03
586.198	35.64
586.392	35.27
586.586	35.1
586.78	34.89
586.974	36.02
587.168	35.02
587.363	35.28
587.557	34.18
587.751	33.77
587.945	33.41
588.139	33.22
588.333	32.5
588.527	32.23
588.721	32.35
588.915	32.18
589.109	31.02
589.303	31.49
589.497	31.75
589.691	32.71
589.885	33.08
590.079	32.82
590.273	33.14
590.466	33.14
590.66	33.1
590.854	33.3
591.048	33.68
591.242	33.85
591.436	33.74
591.629	33.64
591.823	33.51
592.017	32.62
592.211	32.84
592.404	32.78
592.598	32.9
592.792	32.69
592.986	33.17
593.179	33.05
593.373	32.85
593.567	33.14
593.76	33.29
593.954	33.18
594.147	33.69
594.341	33.33
594.535	33.95
594.728	34.38
594.922	34.75
595.115	34.14
595.309	35
595.502	35.62
595.696	35.31
595.889	35.33
596.083	35.36
596.276	35.79
596.47	36.01
596.663	35.45
596.856	35.39
597.05	35.87
597.243	36.34
597.437	35.96
597.63	35.15
597.823	35.42
598.017	35.7
598.21	36.23
598.403	35.85
598.596	36.53
598.79	36.44
598.983	36.25
599.176	35.53
599.369	35.71
599.563	35.67
599.756	36.32
599.949	36.74
600.142	36.88
600.335	36.16
600.528	36.31
600.722	36.72
600.915	37.78
601.108	38.3
601.301	39.24
601.494	38.75
601.687	38.72
601.88	38.22
602.073	37.69
602.266	37.46
602.459	38.03
602.652	37.94
602.845	37.35
603.038	37.44
603.231	36.87
603.424	35.74
603.617	35.73
603.809	35.4
604.002	36.02
604.195	36.19
604.388	36.07
604.581	35.59
604.774	35.41
604.966	35.57
605.159	34.44
605.352	35.19
605.545	35.58
605.737	35.56
605.93	36.21
606.123	36.4
606.316	36.3
606.508	36.75
606.701	36.37
606.894	36.43
607.086	36.59
607.279	37.39
607.471	36.99
607.664	38.02
607.857	38.25
608.049	38.35
608.242	38.03
608.434	38.39
608.627	38
608.819	38.39
609.012	38.55
609.204	39.14
609.397	39.2
609.589	39.14
609.782	38.61
609.974	38.31
610.166	38.05
610.359	39.19
610.551	39.97
610.743	39.93
610.936	40.04
611.128	40.21
611.32	39.79
611.513	40.34
611.705	41.84
611.897	41.59
612.09	41.31
612.282	41.7
612.474	40.24
612.666	40.26
612.858	41.02
613.051	41.59
613.243	41.14
613.435	41.22
613.627	41.29
613.819	40.62
614.011	40.39
614.203	42.55
614.395	41.96
614.588	42.41
614.78	40.81
614.972	40.35
615.164	40.88
615.356	42.02
615.548	41.72
615.74	41.48
615.932	42.43
616.124	42.98
616.315	40.98
616.507	42.06
616.699	42.59
616.891	43.27
617.083	43.34
617.275	43.74
617.467	43.71
617.659	44.41
617.85	44.79
618.042	42.83
618.234	43.43
618.426	44.89
618.618	45.01
618.809	45.2
619.001	44.36
619.193	44.75
619.384	43.26
619.576	43.01
619.768	43.21
619.959	42.63
620.151	43.33
620.343	43.16
620.534	43.08
620.726	42.81
620.917	42.32
621.109	43.34
621.301	42.82
621.492	44.4
621.684	45.14
621.875	45.01
622.067	46.08
622.258	46.16
622.45	45.48
622.641	44.21
622.832	43.15
623.024	42.99
623.215	42.11
623.407	42.17
623.598	41.49
623.789	41.38
623.981	40.99
624.172	39.91
624.363	39.44
624.555	39.98
624.746	40.46
624.937	41.13
625.129	41.57
625.32	42.16
625.511	42.81
625.702	42.53
625.893	41.52
626.085	41.73
626.276	42.15
626.467	43.07
626.658	43.73
626.849	44.43
627.04	43.78
627.231	43.66
627.422	44.22
627.614	44.09
627.805	43.9
627.996	44.25
628.187	44.46
628.378	44.64
628.569	44.65
628.76	44.47
628.951	44.25
629.142	45.27
629.332	45.73
629.523	45.12
629.714	44.33
629.905	44.82
630.096	45.46
630.287	45.08
630.478	44.24
630.669	43.14
630.859	42.79
631.05	43.37
631.241	43.77
631.432	44.54
631.623	44.93
631.813	46.04
632.004	46.11
632.195	45.7
632.385	45.64
632.576	45.98
632.767	47.27
632.957	47.66
633.148	46.89
633.339	46.37
633.529	44.49
633.72	43.69
633.91	43.75
634.101	43.89
634.292	43.79
634.482	44.87
634.673	45.43
634.863	44.82
635.054	44.63
635.244	45.32
635.435	46.05
635.625	47.41
635.815	49.04
636.006	48.54
636.196	48.2
636.387	49.35
636.577	48.85
636.767	48.78
636.958	48.99
637.148	49.06
637.338	48.36
637.529	47.9
637.719	47.25
637.909	47.01
638.099	47.53
638.29	47.83
638.48	47.51
638.67	47.22
638.86	46.92
639.05	48.03
639.241	48.66
639.431	49.17
639.621	48.55
639.811	48.67
640.001	48.85
640.191	48.64
640.381	49.19
640.571	48.59
640.761	48.55
640.951	48.3
641.141	47.46
641.331	46.89
641.521	47.31
641.711	47.71
641.901	47.15
642.091	46.27
642.281	45.82
642.471	46.62
642.661	47
642.851	46.81
643.041	47.42
643.231	46.63
643.42	45.31
643.61	44.82
643.8	45.05
643.99	45.83
644.18	46.56
644.369	48.14
644.559	47.51
644.749	46.74
644.939	47.08
645.128	46.73
645.318	47.52
645.508	49.19
645.697	49.19
645.887	48.58
646.076	47.49
646.266	47.5
646.456	45.24
646.645	45.52
646.835	46.38
647.024	47.1
647.214	47.54
647.403	47.26
647.593	46.48
647.782	46.13
647.972	46.99
648.161	48.42
648.351	47.24
648.54	48.78
648.73	47.61
648.919	47.85
649.108	47.43
649.298	46.24
649.487	46.15
649.677	46.76
649.866	47.13
650.055	47.34
650.244	47.31
650.434	48.88
650.623	47.75
650.812	48.11
651.002	47.8
651.191	48.46
651.38	51.04
651.569	51.78
651.758	50.81
651.947	52.03
652.137	51.06
652.326	50.61
652.515	51.01
652.704	51.53
652.893	52.02
653.082	51.25
653.271	50.42
653.46	49.17
653.649	48.72
653.838	49.24
654.027	48.17
654.216	48.14
654.405	48.48
654.594	47.91
654.783	48.2
654.972	47.58
655.161	49.19
655.35	48.26
655.539	47.76
655.728	47.39
655.916	47.8
656.105	48.12
656.294	47.97
656.483	48.52
656.672	47.56
656.86	46.99
657.049	47.38
657.238	46.71
657.427	47.7
657.615	46.77
657.804	46.69
657.993	46.47
658.181	46.47
658.37	46.48
658.559	45.63
658.747	46.37
658.936	46.83
659.125	46.57
659.313	46.78
659.502	47.48
659.69	49.33
659.879	50
660.067	51.01
660.256	50.8
660.444	51.76
660.633	52.08
660.821	52.08
661.01	53.39
661.198	54.1
661.387	54.08
661.575	54.03
661.763	53.76
661.952	54.36
662.14	54.67
662.328	54.58
662.517	53.97
662.705	55.37
662.893	55.76
663.082	54.94
663.27	53.93
663.458	54.34
663.646	53.44
663.834	52.85
664.023	52.49
664.211	50.87
664.399	51.89
664.587	52.75
664.775	51.22
664.963	51.1
665.152	50.65
665.34	51.79
665.528	52.5
665.716	53.12
665.904	53.72
666.092	53.94
666.28	56.64
666.468	56.83
666.656	57.29
666.844	58.75
667.032	58.05
667.22	59.17
667.408	60.19
667.596	59.03
667.784	59.07
667.971	59.56
668.159	58.4
668.347	56.81
668.535	56.82
668.723	56.27
668.911	55.47
669.098	56.36
669.286	55.71
669.474	55.07
669.662	55.26
669.849	54.46
670.037	54.03
670.225	55.63
670.413	56.08
670.6	55.46
670.788	54.94
670.976	54.95
671.163	55.47
671.351	56.51
671.538	55.59
671.726	56.97
671.913	57.43
672.101	57.01
672.289	55.77
672.476	54.34
672.664	55.09
672.851	55.43
673.039	56.34
673.226	57.43
673.413	55.69
673.601	55.86
673.788	53.62
673.976	53.56
674.163	54.69
674.35	55.47
674.538	56.26
674.725	56.25
674.912	56
675.1	54.57
675.287	53.3
675.474	54.17
675.662	55.5
675.849	56.55
676.036	55.7
676.223	56.69
676.411	57.76
676.598	57.8
676.785	57.29
676.972	57.9
677.159	58.87
677.346	58.69
677.533	58.63
677.721	57.86
677.908	56.78
678.095	57.58
678.282	57.26
678.469	56.12
678.656	56.78
678.843	57.63
679.03	56.86
679.217	56.24
679.404	55.01
679.591	54.13
679.778	54.27
679.964	55.13
680.151	55.18
680.338	54.12
680.525	54.16
680.712	53.73
680.899	53.35
681.086	54.04
681.272	54.55
681.459	54.85
681.646	55.53
681.833	55.69
682.02	56.45
682.206	56.69
682.393	57.6
682.58	57.66
682.766	57.12
682.953	58.13
683.14	59.72
683.326	59.82
683.513	61.59
683.7	61.76
683.886	61.73
684.073	60.48
684.259	59.93
684.446	60.1
684.632	59.96
684.819	60.42
685.005	59.14
685.192	57.84
685.378	57.83
685.565	57.26
685.751	56.81
685.938	55.73
686.124	55.92
686.31	56.11
686.497	54.69
686.683	54.94
686.87	54.09
687.056	53.97
687.242	52.55
687.429	52.55
687.615	52.62
687.801	54.43
687.987	54.7
688.174	55.18
688.36	54.52
688.546	56.27
688.732	55.41
688.918	55.68
689.105	55.21
689.291	55.65
689.477	55.22
689.663	52.98
689.849	51.3
690.035	51.44
690.221	51.4
690.407	52.98
690.593	52.11
690.779	51.61
690.965	52.64
691.151	53.2
691.337	54.21
691.523	53.52
691.709	54.26
691.895	53.65
692.081	55.95
692.267	55.91
692.453	54.71
692.639	54.76
692.825	55.04
693.011	54.64
693.196	53.53
693.382	53.28
693.568	53.49
693.754	54.26
693.94	54.13
694.125	52.15
694.311	52.56
694.497	54.4
694.682	53.99
694.868	55.76
695.054	54.88
695.239	55.76
695.425	55.3
695.611	56.27
695.796	56.88
695.982	57.72
696.168	58.68
696.353	57.8
696.539	56.84
696.724	56.9
696.91	54.37
697.095	55.05
697.281	54.95
697.466	55.35
697.652	54.98
697.837	54.9
698.023	55.68
698.208	55.17
698.393	56.08
698.579	55.84
698.764	55.87
698.949	56.3
699.135	56.14
699.32	56.54
699.505	56.54
699.691	56.86
699.876	56.34
700.061	55.33
700.246	55.53
700.432	54.48
700.617	56.25
700.802	56.01
700.987	58.71
701.172	60.51
701.358	61.36
701.543	61.67
701.728	61.61
701.913	62.86
702.098	63.11
702.283	63.44
702.468	65.15
702.653	62.32
702.838	63.84
703.023	63.6
703.208	60.61
703.393	61.16
703.578	58.98
703.763	59.97
703.948	59.5
704.133	59.9
704.318	60.15
704.503	59.91
704.688	62.71
704.873	61.44
705.057	61.73
705.242	63.52
705.427	61.12
705.612	64.2
705.797	65.27
705.981	65.43
706.166	66.44
706.351	67.16
706.536	67.77
706.72	65.67
706.905	64.96
707.09	65.88
707.274	64.46
707.459	64.73
707.644	63.71
707.828	64.64
708.013	64.94
708.197	63.57
708.382	62.41
708.567	60.4
708.751	61.94
708.936	63.24
709.12	62.15
709.305	63.67
709.489	65.62
709.673	65.32
709.858	65
710.042	63.35
710.227	63.25
710.411	63.66
710.596	63.99
710.78	63.94
710.964	63.09
711.149	63.34
711.333	62.5
711.517	63.04
711.702	64.04
711.886	62.03
712.07	63.11
712.254	63.36
712.438	64.17
712.623	65.06
712.807	63.39
712.991	65.49
713.175	65.04
713.359	65.19
713.544	63.86
713.728	63.8
713.912	63.26
714.096	64.83
714.28	64.04
714.464	60.17
714.648	60
714.832	62.34
715.016	60.2
715.2	59.85
715.384	59.03
715.568	58.24
715.752	58.54
715.936	58.21
716.12	55.08
716.304	53.82
716.488	58.02
716.671	55.98
716.855	53.68
717.039	53.83
717.223	52.23
717.407	52.6
717.59	52.62
717.774	50.33
717.958	51.64
718.142	52.34
718.325	53.6
718.509	51.09
718.693	54.43
718.877	53.81
719.06	52.29
719.244	53.93
719.428	55.85
719.611	55.49
719.795	56.62
719.978	53.97
720.162	56.4
720.345	58.97
720.529	64.33
720.713	62.24
720.896	65.07
721.08	67.04
721.263	64.88
721.446	63.89
721.63	63.94
721.813	63.56
721.997	67.02
722.18	65.18
722.364	64.78
722.547	60.83
722.73	59.02
722.914	55.27
723.097	55.48
723.28	56.66
723.464	55.08
723.647	56.69
723.83	56.6
724.013	54.54
724.197	53.84
724.38	51.85
724.563	53.17
724.746	53.29
724.929	54.25
725.112	54.41
725.296	57.37
725.479	58.57
725.662	54.62
725.845	54.97
726.028	56.83
726.211	55.27
726.394	54.49
726.577	53.12
726.76	56.29
726.943	55.41
727.126	53.84
727.309	52.85
727.492	51.02
727.675	53.12
727.858	53.69
728.041	53.58
728.224	52.75
728.407	53.76
728.589	58.03
728.772	56.39
728.955	58.85
729.138	61.2
729.321	59.71
729.503	62.01
729.686	61.55
729.869	62.18
730.052	62.22
730.234	66.82
730.417	66.37
730.6	62.23
730.782	61.83
730.965	61.74
731.148	62.12
731.33	62.7
731.513	63.07
731.695	65.04
731.878	63.75
732.061	61.45
732.243	60.93
732.426	61.13
732.608	60.23
732.791	60.73
732.973	62.66
733.156	60.97
733.338	61.51
733.52	61.42
733.703	62
733.885	64.2
734.068	66.23
734.25	65.17
734.432	65.89
734.615	67.49
734.797	67.68
734.979	68.52
735.162	67.36
735.344	66.67
735.526	67.45
735.708	64.82
735.891	63.65
736.073	63.6
736.255	65.46
736.437	67.55
736.619	68.97
736.802	69.28
736.984	66.78
737.166	69.54
737.348	70.13
737.53	68.93
737.712	70.85
737.894	70.08
738.076	71.65
738.258	72.22
738.44	71.44
738.622	72.43
738.804	75.01
738.986	77.84
739.168	78.24
739.35	77.41
739.532	77.1
739.714	79.06
739.896	82.4
740.078	82.11
740.259	80.74
740.441	80.18
740.623	79.19
740.805	78.08
740.987	76.72
741.168	77.06
741.35	79.05
741.532	79.7
741.714	76.51
741.895	74.65
742.077	72.1
742.259	71.56
742.44	71.39
742.622	72.82
742.804	74.48
742.985	75.18
743.167	75.26
743.348	77.64
743.53	80.13
743.711	82.96
743.893	84.05
744.075	85.15
744.256	86.49
744.438	88.53
744.619	85.58
744.8	82.93
744.982	81.76
745.163	81.07
745.345	79.06
745.526	77.73
745.707	73.93
745.889	73.47
746.07	74.84
746.252	74.11
746.433	71.59
746.614	70.47
746.795	70.12
746.977	72.99
747.158	76.3
747.339	77.73
747.52	78.14
747.702	78.86
747.883	79.04
748.064	76.93
748.245	76.9
748.426	77.88
748.607	78.61
748.788	77.3
748.97	81.58
749.151	80.03
749.332	75.79
749.513	81.71
749.694	83.12
749.875	81.06
750.056	81.41
750.237	84.75
750.418	86.2
750.599	88.64
750.78	91.43
750.96	84.37
751.141	85.71
751.322	90.27
751.503	83.7
751.684	86.03
751.865	88.23
752.046	89.77
752.226	86.58
752.407	84.63
752.588	81.21
752.769	76.15
752.949	79.79
753.13	82.28
753.311	81.59
753.492	84.32
753.672	79.26
753.853	79.7
754.034	78.77
754.214	79.27
754.395	78.31
754.575	80.94
754.756	83.63
754.937	80.65
755.117	77.79
755.298	78.57
755.478	72.79
755.659	77.64
755.839	75.03
756.02	74.84
756.2	76.06
756.381	75.17
756.561	75.44
756.741	79.7
756.922	77.21
757.102	77.71
757.283	77.14
757.463	80.27
757.643	76.65
757.823	76.06
758.004	76.08
758.184	74.85
758.364	72.07
758.545	68.55
758.725	64.35
758.905	68.63
759.085	66.89
759.265	66.85
759.446	68.28
759.626	72.93
759.806	74.89
759.986	76.33
760.166	75.05
760.346	74.63
760.526	75.73
760.706	71.14
760.886	65.69
761.066	63.56
761.246	59.17
761.426	55.85
761.606	53.22
761.786	53.53
761.966	55.61
762.146	55.24
762.326	58.49
762.506	57.55
762.686	59.09
762.866	60.63
763.046	60.57
763.225	61.35
763.405	63.54
763.585	63.85
763.765	64.43
763.945	62.03
764.124	65.17
764.304	66.09
764.484	70.63
764.664	70.15
764.843	72.86
765.023	77.07
765.203	77.92
765.382	79.49
765.562	81.16
765.741	85.36
765.921	89.71
766.101	90.81
766.28	88.68
766.46	85.08
766.639	91.04
766.819	91.84
766.998	90.58
767.178	93.51
767.357	86.94
767.537	87.29
767.716	81.97
767.896	84.32
768.075	79.73
768.254	81.61
768.434	82.55
768.613	76.2
768.792	74.88
768.972	74.14
769.151	74.6
769.33	81.78
769.51	81.45
769.689	84.73
769.868	80.44
770.047	85.65
770.226	82.74
770.406	84.59
770.585	86.25
770.764	87.58
770.943	86.61
771.122	89.5
771.301	87.62
771.48	89.47
771.66	89.22
771.839	93.65
772.018	91.84
772.197	93.6
772.376	95.35
772.555	96.19
772.734	97.49
772.913	102.84
773.092	101.47
773.271	106.62
773.449	112.11
773.628	114.06
773.807	117.83
773.986	125.13
774.165	126.32
774.344	124.44
774.523	122.29
774.701	117.38
774.88	114.35
775.059	115.3
775.238	115.19
775.417	115.71
775.595	114.26
775.774	104.06
775.953	97.37
776.131	97.3
776.31	96.79
776.489	98.29
776.667	102.47
776.846	103.33
777.025	101.09
777.203	97.64
777.382	96.06
777.56	93.86
777.739	98.37
777.917	101.24
778.096	103.44
778.274	108.85
778.453	108.75
778.631	113.81
778.81	109.69
778.988	109.74
779.166	117.71
779.345	114.03
779.523	116.3
779.702	114.1
779.88	110.7
780.058	106.03
780.237	101.37
780.415	101.24
780.593	91.88
780.771	100.22
780.95	99.53
781.128	87.88
781.306	85.05
781.484	84.82
781.662	88.36
781.841	96.29
782.019	90.72
782.197	94.24
782.375	99.88
782.553	104.02
782.731	105.66
782.909	113.68
783.087	117.82
783.265	137.54
783.443	137.82
783.621	130.14
783.799	117.6
783.977	129.31
784.155	117.96
784.333	110.25
784.511	109.54
784.689	99.83
784.867	89.41
785.045	90.59
785.223	79.58
785.4	76.78
785.578	80.08
785.756	85.71
785.934	84.65
786.112	84.17
786.289	82.91
786.467	76.98
786.645	77.87
786.823	80.73
787	85.49
787.178	91.22
787.356	89.47
787.533	91.51
787.711	91.14
787.889	93.6
788.066	93.06
788.244	96.67
788.421	102.95
788.599	100.63
788.776	100.22
788.954	100.48
789.131	98.56
789.309	98.69
789.486	91.24
789.664	93.27
789.841	89.31
790.019	92.76
790.196	85.8
790.373	81.66
790.551	81.74
790.728	81.03
790.906	73.89
791.083	79.11
791.26	76.84
791.437	76.01
791.615	75.75
791.792	78.11
791.969	74.66
792.146	85.33
792.324	82.98
792.501	90.62
792.678	87.35
792.855	87.67
793.032	81.12
793.209	82.51
793.387	88.87
793.564	86.2
793.741	90.3
793.918	90.41
794.095	85.96
794.272	91.32
794.449	85.16
794.626	82.92
794.803	82.65
794.98	79.17
795.157	79.27
795.334	75.11
795.511	75.8
795.688	71.06
795.864	69.52
796.041	71.31
796.218	71.4
796.395	71.7
796.572	72.27
796.749	73.89
796.925	77.91
797.102	79.96
797.279	87.82
797.456	87.14
797.632	88.24
797.809	95.76
797.986	96.45
798.162	94.2
798.339	91.34
798.516	90.15
798.692	86.8
798.869	82.76
799.046	84.12
799.222	83.6
799.399	80.76
799.575	77.73
799.752	75.77
799.928	71.17
800.105	74.26
800.281	75.38
800.458	83.86
800.634	88.58
800.811	86.52
800.987	92.85
801.163	88.95
801.34	93.9
801.516	97.11
801.692	100.7
801.869	104.86
802.045	102.99
802.221	101.12
802.398	98.8
802.574	91.68
802.75	100.9
802.926	94.19
803.103	94.57
803.279	91.05
803.455	94.54
803.631	87.97
803.807	81.47
803.983	85.77
804.16	91.97
804.336	93.87
804.512	93.46
804.688	90.37
804.864	87.96
805.04	93.31
805.216	88.09
805.392	83.38
805.568	88.48
805.744	101.08
805.92	84.25
806.096	80.22
806.272	85.07
806.448	92.32
806.623	92.39
806.799	97.71
806.975	88.77
807.151	104.23
807.327	108.29
807.503	125.05
807.678	104.77
807.854	133.69
808.03	121.67
808.206	105.24
808.381	98.13
808.557	105.82
808.733	104.5
808.908	119.06
809.084	113.53
809.26	114.04
809.435	95.36
809.611	111.65
809.787	98.03
809.962	100.4
810.138	97.67
810.313	105.24
810.489	95.35
810.664	87.06
810.84	89.51
811.015	74.76
811.191	69.43
811.366	81.9
811.542	72.95
811.717	81.55
811.892	81.75
812.068	83.58
812.243	80.89
812.419	75.17
812.594	72.89
812.769	67.52
812.944	63.64
813.12	77.88
813.295	59.66
813.47	57.52
813.645	46.07
813.821	39.65
813.996	48.23
814.171	50.05
814.346	53.87
814.521	55.52
814.697	53.93
814.872	68.11
815.047	57.8
815.222	65.09
815.397	64.69
815.572	70.91
815.747	71.13
815.922	74
816.097	78.75
816.272	78.48
816.447	85.94
816.622	81.14
816.797	84.61
816.972	80.75
817.147	76.89
817.322	76.29
817.496	75.06
817.671	72.1
817.846	65.3
818.021	56.14
818.196	57.1
818.371	53.09
818.545	55.27
818.72	51.33
818.895	56.85
819.069	50.88
819.244	52.76
819.419	51.91
819.594	54.76
819.768	53.64
819.943	54.2
820.117	49.97
820.292	50.54
820.467	48.95
820.641	49.2
820.816	47.79
820.99	47.79
821.165	47.6
821.339	47.7
821.514	46.53
821.688	46.55
821.863	46.53
822.037	47.27
822.212	45.57
822.386	44.73
822.56	44.14
822.735	45.36
822.909	47.5
823.084	49.32
823.258	49.78
823.432	52.89
823.606	56.26
823.781	57.4
823.955	62.02
824.129	68.36
824.303	71.7
824.478	73.98
824.652	69.74
824.826	63.52
825	58.63
825.174	57.53
825.348	55.53
825.523	53.83
825.697	54.87
825.871	52.15
826.045	53.16
826.219	54.33
826.393	54.11
826.567	55.95
826.741	58.83
826.915	59.25
827.089	61.81
827.263	65.22
827.437	65.78
827.611	67.3
827.784	68.25
827.958	67.82
828.132	70.1
828.306	72.97
828.48	67.31
828.654	69.11
828.827	76.74
829.001	74.27
829.175	71.93
829.349	74.76
829.522	77.9
829.696	80.34
829.87	83.17
830.044	86.11
830.217	87.53
830.391	94.02
830.565	86.9
830.738	95.83
830.912	91.21
831.085	77.43
831.259	74.28
831.432	64.93
831.606	67.18
831.779	60.47
831.953	55.87
832.126	47.71
832.3	55.11
832.473	59.82
832.647	56.63
832.82	54.4
832.994	57.48
833.167	59.69
833.34	64.38
833.514	65.05
833.687	66.84
833.86	66.14
834.034	74.42
834.207	69.41
834.38	66.73
834.553	65.21
834.727	63.74
834.9	61.61
835.073	58.66
835.246	56.54
835.419	55.77
835.593	63.56
835.766	71.25
835.939	59.91
836.112	72.13
836.285	72.97
836.458	76.88
836.631	90.37
836.804	87.5
836.977	84.95
837.15	94.85
837.323	90.05
837.496	72.03
837.669	74.01
837.842	85.18
838.015	68.09
838.188	73.24
838.361	69.37
838.533	71.09
838.706	70.38
838.879	71.33
839.052	69.05
839.225	64.55
839.398	70.88
839.57	65.96
839.743	72.83
839.916	89.12
840.088	95.64
840.261	91.37
840.434	95.14
840.607	114.99
840.779	118.19
840.952	116.02
841.124	109.63
841.297	106.45
841.47	135.57
841.642	108.3
841.815	88.69
841.987	83.89
842.16	84.05
842.332	92.62
842.505	83.39
842.677	68.65
842.85	68.09
843.022	90.02
843.194	74.11
843.367	66.14
843.539	87.69
843.712	78.98
843.884	74.86
844.056	101.77
844.229	116.69
844.401	101.29
844.573	119.17
844.745	90.18
844.918	89.44
845.09	115.71
845.262	103.04
845.434	84.27
845.606	94.44
845.779	131.97
845.951	112.91
846.123	66.99
846.295	73.68
846.467	92.39
846.639	112.72
846.811	122.86
846.983	114.25
847.155	112.63
847.327	93.64
847.499	90.12
847.671	70.23
847.843	52.82
848.015	-51.61
848.187	-93.33
848.359	150
848.531	122.22
848.703	-6800
848.875	181.91
849.047	146.81
849.218	129.82
849.39	160.57
849.562	120.28
849.734	86.75
849.905	162.44
850.077	195.88
850.249	181.61
850.421	770.59
850.592	267.05
850.764	286.52
850.936	968
851.107	4333.33
851.279	265.35
851.451	184.04
851.622	216.55
851.794	146.06
851.965	130.75
852.137	119.2
852.308	102.2
852.48	128.57
852.651	109.9
852.823	63.28
852.994	85.83
853.166	91.7
853.337	79.79
853.509	76.7
853.68	75.37
853.851	65.3
854.023	79.66
854.194	83.49
854.365	107.18
854.537	96.38
854.708	122.88
854.879	146.27
855.05	160.94
855.222	184.42
855.393	314.62
855.564	184.04
855.735	198.28
855.906	250.67
856.078	190.95
856.249	177.78
856.42	170.12
856.591	178.26
856.762	149.86
856.933	119.51
857.104	98.9
857.275	116.81
857.446	174.74
857.617	167.77
857.788	151.86
857.959	151.42
858.13	144.31
858.301	151.54
858.472	121.06
858.643	105.42
858.814	131.47
858.985	179.44
859.155	175.77
859.326	199
859.497	551.26
859.668	171.95
859.839	218.13
860.009	222.09
860.18	265.75
860.351	296.15
860.522	385.11
860.692	375.91
860.863	258.19
861.034	171.4
861.204	156.13
861.375	105.4
861.546	129.98
861.716	145.05
861.887	149.72
862.057	156.95
862.228	126.1
862.398	139.24
862.569	153.07
862.739	130.37
862.91	105.48
863.08	120.14
863.251	190
863.421	229.13
863.592	210.29
863.762	230.23
863.932	468.13
864.103	-339.53
864.273	-1100
864.443	-245.83
864.614	-89.41
864.784	-100.56
864.954	-1906.67
865.125	8971.43
865.295	-852.24
865.465	-942.11
865.635	-7600
865.805	768.35
865.976	-12716.67
866.146	-1504.55
866.316	-2204
866.486	1416.67
866.656	-360.53
866.826	-128.52
866.996	-565.38
867.166	231.47
867.336	181.82
867.506	190
867.676	85.96
867.846	36.5
868.016	67.19
868.186	105.08
868.356	49.04
868.526	55.5
868.696	85.2
868.866	140.44
869.036	320.78
869.206	177.81
869.376	218.4
869.545	2957.89
869.715	1502.63
869.885	324.64
870.055	202.39
870.224	565.12
870.394	-454.76
870.564	179.1
870.734	163
870.903	108.92
871.073	174.9
871.243	113.14
871.412	88.65
871.582	74.46
871.751	53.99
871.921	43.34
872.091	45.75
872.26	57.22
872.43	97.79
872.599	100.97
872.769	100.81
872.938	90.48
873.108	85.34
873.277	84.14
873.446	83.47
873.616	93.13
873.785	81.38
873.955	94.69
874.124	101.53
874.293	94.34
874.463	83.73
874.632	87.46
874.801	73.66
874.971	117.05
875.14	121.91
875.309	164.41
875.478	248.19
875.647	401.06
875.817	262.46
875.986	227.23
876.155	140.68
876.324	144.68
876.493	139.11
876.662	149.68
876.831	129.16
877	145.34
877.17	139.66
877.339	122.57
877.508	107.4
877.677	95.33
877.846	108.57
878.015	133.49
878.184	106.55
878.352	110.82
878.521	59.9
878.69	55.25
878.859	50.68
879.028	51.33
879.197	57.63
879.366	60.18
879.534	68.73
879.703	60.52
879.872	66.31
880.041	75.24
880.21	76.14
880.378	75.12
880.547	72.05
880.716	61.9
880.884	62.97
881.053	60.07
881.222	61.83
881.39	57.38
881.559	57.08
881.727	58.64
881.896	52.31
882.065	48.22
882.233	52.34
882.402	57.02
882.57	56.04
882.739	58.89
882.907	60.56
883.076	56.11
883.244	69.16
883.412	68.66
883.581	74.98
883.749	74.74
883.918	74.67
884.086	82.18
884.254	83.83
884.423	87.49
884.591	95.7
884.759	103.94
884.927	149.31
885.096	110.83
885.264	111.26
885.432	113
885.6	121.82
885.769	166.52
885.937	141.67
886.105	131
886.273	174.76
886.441	136.41
886.609	213.22
886.777	42.27
886.945	54.55
887.113	12.28
887.281	-5600
887.449	-76.54
887.617	0
887.785	-52.42
887.953	-51.09
888.121	-124.12
888.289	-77.95
888.457	-631.51
888.625	-16866.67
888.793	2480
888.961	5037.5
889.129	989.8
889.296	217.82
889.464	516.67
889.632	194.44
889.8	209.8
889.967	197.78
890.135	138.79
