Data from JASIL_3049_Reflection_01.txt Node
Date: Mon Nov 09 11:17:21 EST 2015
User: Geneva
Spectrometer: USB4E03002
Autoset integration time: false
Trigger mode: 4
Integration Time (sec): 1.000000E-1
Scans to average: 10
Electric dark correction enabled: false
Nonlinearity correction enabled: false
Boxcar width: 5
Stray light correction enabled: false
XAxis mode: Wavelengths
Stop averaging: false
Number of Pixels in Spectrum: 3648
>>>>>Begin Spectral Data<<<<<
177.575	319.7
177.794	4055.56
178.014	-37900
178.233	-754.72
178.452	-401.3
178.672	-952.94
178.891	341.67
179.11	104.11
179.33	-56.25
179.549	723.08
179.768	-165.62
179.987	150
180.207	2328.57
180.426	-438.24
180.645	-29.31
180.864	30.34
181.084	230.15
181.303	-23500
181.522	-200.96
181.741	-355.26
181.96	-105.56
182.179	-16.61
182.398	-106.5
182.618	-72.28
182.837	-105.85
183.056	-62.47
183.275	-60.94
183.494	-4.91
183.713	-30.46
183.932	-3.84
184.151	42.7
184.37	71.21
184.589	22.03
184.808	-120.91
185.027	-131.46
185.246	-301.12
185.465	-271.96
185.684	602.94
185.903	524.24
186.122	178.93
186.341	189.34
186.56	123.38
186.779	124.32
186.998	119.06
187.216	83.12
187.435	142.73
187.654	123.75
187.873	92.8
188.092	154.25
188.311	136.38
188.53	227.44
188.748	146.81
188.967	129.47
189.186	129.22
189.405	128.75
189.623	193.37
189.842	88.05
190.061	102.76
190.28	148
190.498	84.02
190.717	83.06
190.936	61.33
191.154	235.23
191.373	12266.67
191.592	-33800
191.81	630
192.029	636.54
192.248	-342.86
192.466	-765.85
192.685	768.18
192.904	-594.74
193.122	-370.91
193.341	-459.32
193.559	710.53
193.778	142.11
193.996	920
194.215	35.86
194.433	109.52
194.652	-71.43
194.87	12.05
195.089	-171.26
195.307	-282.26
195.526	-442.86
195.744	129.55
195.963	-850
196.181	49.37
196.399	50.64
196.618	69.7
196.836	150.85
197.055	85.71
197.273	93.07
197.491	50.46
197.71	89.73
197.928	160.71
198.146	116.2
198.365	115.86
198.583	134.31
198.801	351.72
199.019	182.84
199.238	124.89
199.456	159.24
199.674	114.44
199.892	100.86
200.111	305.36
200.329	193.62
200.547	987.23
200.765	860
200.983	-628.57
201.202	1127.08
201.42	-883.02
201.638	-243.23
201.856	-125.57
202.074	-118.87
202.292	-156.49
202.51	-356.92
202.728	-172.4
202.946	-204.55
203.165	-109.85
203.383	-191.67
203.601	-92.86
203.819	-12.86
204.037	-0
204.255	63.21
204.473	28.92
204.691	185.37
204.909	-396.88
205.127	144.83
205.345	92.65
205.562	116.42
205.78	-3.7
205.998	400
206.216	500
206.434	111.11
206.652	160.5
206.87	26.88
207.088	107.64
207.306	587.5
207.523	77.46
207.741	94.62
207.959	118.12
208.177	114.23
208.395	1630.77
208.612	-152
208.83	-398.59
209.048	-458.62
209.266	-408.73
209.483	-1178.69
209.701	1267.65
209.919	-532.89
210.136	-372.73
210.354	-1092.41
210.572	-769.52
210.79	-652.63
211.007	695.12
211.225	-741.76
211.442	-278.88
211.66	-141.37
211.878	-94.72
212.095	-29.28
212.313	16.44
212.53	45.51
212.748	142.65
212.966	20.75
213.183	59.06
213.401	343.24
213.618	-103.68
213.836	-6.36
214.053	21.27
214.271	16.16
214.488	45.28
214.705	214.29
214.923	76.58
215.14	78.06
215.358	63.31
215.575	76.5
215.793	84.56
216.01	112.76
216.227	155.2
216.445	105.76
216.662	41.87
216.879	52.42
217.097	40
217.314	149.43
217.531	-540
217.749	-149.38
217.966	25.56
218.183	141.58
218.4	443.66
218.618	-9433.33
218.835	-82.28
219.052	66.67
219.269	24.59
219.487	-42.05
219.704	-224.27
219.921	-236.61
220.138	231.33
220.355	-375
220.572	2016.67
220.79	321.69
221.007	-168.66
221.224	-135.04
221.441	-396
221.658	-502.9
221.875	-140.36
222.092	-208.86
222.309	-84.91
222.526	-3222.22
222.743	-963.64
222.96	410.87
223.177	-2443.75
223.394	-1576.92
223.611	408.14
223.828	296.63
224.045	243.16
224.262	96.25
224.479	-313.21
224.696	1647.37
224.913	-68.56
225.13	-91.23
225.347	-18.07
225.564	4.29
225.781	-32.49
225.997	-9.02
226.214	-17.06
226.431	-20.26
226.648	-27.96
226.865	-31.35
227.082	-32.88
227.298	-27.92
227.515	-18.24
227.732	-26.49
227.949	-16.94
228.165	-8.09
228.382	-4.22
228.599	-6.53
228.816	-3.72
229.032	7
229.249	9
229.466	18.37
229.682	18.3
229.899	17.6
230.116	15.65
230.332	-3.23
230.549	-33.19
230.765	-50.09
230.982	-29.43
231.199	-42.09
231.415	-60.86
231.632	-113.41
231.848	-80.8
232.065	-71.82
232.281	-74.79
232.498	-84.18
232.714	-59.61
232.931	-35.57
233.147	-43.6
233.364	-31.67
233.58	-28.7
233.797	-22.06
234.013	-19.6
234.23	-35.23
234.446	-32.07
234.662	-18.94
234.879	-14.12
235.095	-18.27
235.312	-3.36
235.528	5.68
235.744	2.11
235.961	4.71
236.177	-10.71
236.393	-0.75
236.61	19.04
236.826	33.16
237.042	21.2
237.258	33.2
237.475	43.75
237.691	34.46
237.907	15.12
238.123	6.87
238.339	3.4
238.556	7.35
238.772	10.86
238.988	6.91
239.204	-4.39
239.42	2.59
239.636	-11.5
239.853	-8.56
240.069	-6.96
240.285	4.86
240.501	5.47
240.717	0.59
240.933	3.15
241.149	-0.03
241.365	0.81
241.581	3.66
241.797	1.79
242.013	1.61
242.229	-1.19
242.445	6
242.661	-0.12
242.877	-1.49
243.093	1.93
243.309	-8.75
243.525	-1.45
243.741	-6.55
243.957	-6.92
244.173	-3.54
244.388	1.75
244.604	1.68
244.82	-5.6
245.036	-4.91
245.252	-3.99
245.468	-1.12
245.683	3.05
245.899	3.37
246.115	4.21
246.331	2.92
246.547	1.97
246.762	2.79
246.978	0.91
247.194	3.22
247.409	4.67
247.625	4.32
247.841	2.64
248.057	2.27
248.272	-1.84
248.488	-7.16
248.703	-8.06
248.919	-12.52
249.135	-18.09
249.35	-21.63
249.566	-18.18
249.782	-26.4
249.997	-23.55
250.213	-24.44
250.428	-24.79
250.644	-16.96
250.859	-13.85
251.075	-13.71
251.29	-11.59
251.506	-9.28
251.721	-0.69
251.937	-5.89
252.152	-0.11
252.368	-2.36
252.583	-0.86
252.798	3.91
253.014	4.58
253.229	10.98
253.445	12.58
253.66	13.4
253.875	12.65
254.091	-7.18
254.306	-9.74
254.521	-16.67
254.737	-7.26
254.952	-8.47
255.167	-13.87
255.383	-34.82
255.598	-37.56
255.813	-40.49
256.028	-31.56
256.244	-30.37
256.459	-18.12
256.674	-5.73
256.889	0.03
257.104	-1.3
257.32	-0.17
257.535	-1.38
257.75	2.9
257.965	2.41
258.18	3.82
258.395	2.67
258.61	4.28
258.826	4.96
259.041	3.33
259.256	0.95
259.471	1.73
259.686	3.32
259.901	5.75
260.116	4.68
260.331	4.11
260.546	2.55
260.761	1.58
260.976	-3.15
261.191	-8.18
261.406	-10.21
261.621	-8.49
261.836	-10.36
262.05	-13.43
262.265	-17.81
262.48	-15.24
262.695	-12.33
262.91	-12.31
263.125	-13.65
263.34	-12.46
263.555	-5.47
263.769	-7.99
263.984	-8.6
264.199	-9.15
264.414	-14.94
264.629	-16.9
264.843	-19.78
265.058	-15.57
265.273	-9.81
265.488	-9.59
265.702	-6.98
265.917	-7.5
266.132	-3.73
266.346	-5.07
266.561	-2.73
266.776	2.09
266.99	2.54
267.205	2.41
267.42	3.13
267.634	-3.73
267.849	-4.67
268.063	-3.46
268.278	-6.73
268.492	-8.58
268.707	-6.68
268.922	-8
269.136	-12.41
269.351	-12.11
269.565	-10.07
269.78	-10.31
269.994	-7.64
270.209	-5.1
270.423	-6.45
270.637	-5.11
270.852	-6.34
271.066	-7.19
271.281	-7.62
271.495	-4.08
271.709	-3.02
271.924	-2.28
272.138	-4.18
272.353	-6.92
272.567	-8.83
272.781	-6.82
272.996	-4.56
273.21	-1.53
273.424	1.92
273.638	1.61
273.853	-2.64
274.067	-3.86
274.281	0.26
274.495	-0.14
274.71	4.24
274.924	6.85
275.138	1.71
275.352	-3.29
275.566	-6.74
275.781	-12.01
275.995	-15.04
276.209	-11.22
276.423	-11.71
276.637	-15.92
276.851	-15.9
277.065	-12.29
277.279	-15.21
277.493	-11.46
277.707	-9.01
277.921	-7.25
278.135	-8.86
278.349	-4.35
278.563	-7.2
278.777	-1.02
278.991	-1.25
279.205	-4.82
279.419	-5.47
279.633	-6.08
279.847	-5.6
280.061	-5.32
280.275	-5.45
280.489	-2.58
280.703	-2.78
280.917	0.53
281.131	-1.68
281.344	-3.64
281.558	-0.96
281.772	-1.96
281.986	-0.72
282.2	1.44
282.414	-0.26
282.627	-0.79
282.841	-0.75
283.055	-1.38
283.269	-3.87
283.482	-5.71
283.696	-5.78
283.91	-6.72
284.123	-7.53
284.337	-7.62
284.551	-8.08
284.764	-6.61
284.978	-5.66
285.192	-5.41
285.405	-5.71
285.619	-3.65
285.833	-4.2
286.046	-2.03
286.26	0.35
286.473	-0.77
286.687	-1.28
286.9	-5.45
287.114	-5.68
287.327	-6.84
287.541	-6.31
287.754	-6.08
287.968	-6.7
288.181	-2.55
288.395	-1.25
288.608	-0.3
288.822	-0.23
289.035	1.71
289.248	0.54
289.462	0.12
289.675	1.47
289.889	0.65
290.102	-0.55
290.315	-0.25
290.529	-1.78
290.742	-6.15
290.955	-7.14
291.169	-7.09
291.382	-7.34
291.595	-3.61
291.808	-2.1
292.022	-4.09
292.235	-3.88
292.448	-1.71
292.661	-1.21
292.875	-4.85
293.088	-1.92
293.301	-2.9
293.514	0.28
293.727	0.14
293.94	1.91
294.153	0.07
294.367	2.94
294.58	2.31
294.793	0.98
295.006	-0.73
295.219	2.67
295.432	1.16
295.645	1.94
295.858	0.82
296.071	-0.3
296.284	1.04
296.497	0.65
296.71	-0.6
296.923	-0.37
297.136	-0.24
297.349	1.32
297.562	-2.74
297.775	0.46
297.988	3.3
298.201	2.65
298.414	3.17
298.626	-1.8
298.839	-1.77
299.052	-1.19
299.265	-1.13
299.478	-0.41
299.691	-1.97
299.903	1.98
300.116	1.22
300.329	-4.61
300.542	-6.8
300.755	-8.04
300.967	-4.12
301.18	-3.62
301.393	-3.77
301.605	-8.73
301.818	-9.02
302.031	-12.52
302.243	-11.04
302.456	-12.48
302.669	-9.42
302.881	-6.94
303.094	-3.9
303.307	-5.25
303.519	-1.8
303.732	-1.87
303.944	3.93
304.157	4.19
304.37	7.67
304.582	6.87
304.795	5.12
305.007	3.7
305.22	2.42
305.432	0.86
305.645	0.64
305.857	-4.64
306.069	-4.03
306.282	-4.88
306.494	-5.03
306.707	-6.12
306.919	-6.33
307.132	-6.96
307.344	-3.38
307.556	-3.33
307.769	-3.53
307.981	-3.38
308.193	-0.49
308.406	-2.51
308.618	-2.13
308.83	-1.64
309.043	-0.6
309.255	0.59
309.467	4.41
309.679	2.96
309.892	4.1
310.104	4.19
310.316	4.22
310.528	3.58
310.74	5.2
310.953	5.05
311.165	6.37
311.377	6.4
311.589	6.74
311.801	4.08
312.013	1.41
312.225	0.48
312.437	0.25
312.649	1.11
312.862	0.02
313.074	-1.81
313.286	-2.84
313.498	-0.37
313.71	2.65
313.922	0.74
314.134	-0.73
314.346	-0.18
314.558	0.79
314.77	0.04
314.982	-1.91
315.193	1.92
315.405	2.17
315.617	3.2
315.829	1.78
316.041	-0.88
316.253	1.77
316.465	2.77
316.677	5.9
316.888	6.25
317.1	5.68
317.312	8.16
317.524	6.75
317.736	8.1
317.947	8.69
318.159	8.1
318.371	7.3
318.583	6.52
318.794	4.25
319.006	0.78
319.218	1.3
319.43	-0.02
319.641	-3.86
319.853	-6.48
320.064	-7.05
320.276	-7.54
320.488	-10.11
320.699	-9.09
320.911	-9.05
321.123	-2.58
321.334	-3.52
321.546	-3.85
321.757	0.2
321.969	-0.2
322.18	0.07
322.392	0.1
322.603	-0.52
322.815	0.59
323.026	3.88
323.238	1.09
323.449	1.22
323.661	4.51
323.872	4.69
324.083	4.87
324.295	7.34
324.506	8.78
324.718	9.77
324.929	9.07
325.14	9.55
325.352	8.32
325.563	9.27
325.774	7.26
325.986	5.94
326.197	4.67
326.408	1.95
326.62	-0.05
326.831	2.69
327.042	0.77
327.253	-0.03
327.464	-2.4
327.676	-2.2
327.887	-0.95
328.098	-2.23
328.309	-0.21
328.52	-1.38
328.732	2.91
328.943	5.25
329.154	1.77
329.365	1.97
329.576	1.73
329.787	3.93
329.998	4.65
330.209	4.01
330.42	3.63
330.631	1.61
330.842	1.44
331.053	-1.72
331.264	-3.43
331.475	-6.34
331.686	-2.43
331.897	3.64
332.108	5.02
332.319	0.13
332.53	0.38
332.741	1.6
332.952	3.47
333.163	6.12
333.374	7.39
333.585	7.42
333.795	11.67
334.006	6.68
334.217	2.75
334.428	2.46
334.639	4.09
334.849	3.9
335.06	5.45
335.271	0.99
335.482	-1.91
335.692	-3.55
335.903	-2.9
336.114	-7.96
336.325	-3.05
336.535	-2.77
336.746	-3.97
336.957	-2.38
337.167	-3.39
337.378	0.32
337.589	3.18
337.799	7.44
338.01	11.36
338.22	11.44
338.431	12.69
338.642	11.25
338.852	13.63
339.063	16
339.273	15.19
339.484	16.37
339.694	13.68
339.905	13.79
340.115	12.27
340.326	8.78
340.536	9.42
340.746	10.53
340.957	11.81
341.167	13.22
341.378	10.95
341.588	11.83
341.799	12.61
342.009	11.29
342.219	12.86
342.43	12.8
342.64	15.3
342.85	15.25
343.061	11.36
343.271	13.2
343.481	11.44
343.691	12.36
343.902	12.86
344.112	13.19
344.322	13.74
344.532	10.73
344.743	8.6
344.953	8.57
345.163	7.24
345.373	10.8
345.583	7.13
345.793	4.85
346.004	2.25
346.214	1.05
346.424	-2.83
346.634	-2.93
346.844	0.93
347.054	1.64
347.264	1.54
347.474	3.31
347.684	2.5
347.894	4.06
348.104	6.51
348.314	5.51
348.524	4.65
348.734	7
348.944	6.19
349.154	6.82
349.364	4.39
349.574	3.55
349.784	5.25
349.994	5.43
350.204	3.08
350.413	2.38
350.623	7.09
350.833	6.1
351.043	8.14
351.253	8.76
351.463	7.14
351.672	10.76
351.882	10.26
352.092	7.79
352.302	8.34
352.511	9.95
352.721	8.28
352.931	6.67
353.141	9.02
353.35	3.94
353.56	2.62
353.77	3.15
353.979	3.69
354.189	2.28
354.399	-0.32
354.608	-0.39
354.818	-0.55
355.027	-0
355.237	0.13
355.447	0.13
355.656	2.26
355.866	3.16
356.075	3.08
356.285	4.18
356.494	4.87
356.704	6.93
356.913	6.33
357.123	5.52
357.332	5.85
357.542	6.47
357.751	6.28
357.96	6.21
358.17	6.03
358.379	5.77
358.589	2.79
358.798	1.94
359.007	2.21
359.217	2.1
359.426	2.41
359.635	4.56
359.845	3.34
360.054	3.35
360.263	4.93
360.472	5.84
360.682	6.38
360.891	7.01
361.1	8.39
361.309	9.61
361.519	9.59
361.728	10.33
361.937	9.33
362.146	10.47
362.355	9.31
362.564	9.08
362.774	8.39
362.983	8.37
363.192	8.87
363.401	8.29
363.61	6.56
363.819	7.76
364.028	8.52
364.237	7.74
364.446	7.76
364.655	9.43
364.864	8.54
365.073	8.03
365.282	6.22
365.491	5.53
365.7	5.02
365.909	5.68
366.118	5.15
366.327	2.84
366.536	3.29
366.745	1.17
366.954	1.11
367.162	0.95
367.371	1.49
367.58	2.52
367.789	3.7
367.998	4.42
368.207	3.71
368.415	3.87
368.624	5.63
368.833	5.48
369.042	6.36
369.25	7.56
369.459	7.49
369.668	7.71
369.877	6.68
370.085	5.27
370.294	5.6
370.503	5.98
370.711	5.26
370.92	3.26
371.129	4.72
371.337	5.41
371.546	2.3
371.754	3.58
371.963	4.27
372.171	5.46
372.38	7.43
372.589	6.09
372.797	6.11
373.006	8.27
373.214	8.98
373.423	7.77
373.631	7.76
373.84	9.01
374.048	8.33
374.256	7.9
374.465	6.88
374.673	5.96
374.882	6.32
375.09	6.72
375.298	5.26
375.507	6.52
375.715	7.75
375.923	7.94
376.132	7.59
376.34	6.04
376.548	5.25
376.757	5.94
376.965	6.01
377.173	5.98
377.381	5.49
377.59	7.31
377.798	6.9
378.006	3.6
378.214	3.42
378.423	4.22
378.631	4.6
378.839	5.15
379.047	5.18
379.255	6.1
379.463	7.08
379.671	7.1
379.879	4.28
380.088	4.97
380.296	6.19
380.504	7.16
380.712	7.91
380.92	8.77
381.128	7.45
381.336	8.03
381.544	6.15
381.752	6.08
381.96	7.47
382.168	8.9
382.376	9.04
382.584	10.18
382.791	9.65
382.999	7.79
383.207	6.6
383.415	6.08
383.623	5.2
383.831	6.45
384.039	7.23
384.247	5.51
384.454	4.86
384.662	3.32
384.87	1.7
385.078	1.53
385.285	2.2
385.493	4.67
385.701	6.79
385.909	6.77
386.116	5.73
386.324	3.67
386.532	3.38
386.739	3.1
386.947	4.22
387.155	4.01
387.362	4.02
387.57	4.94
387.778	3.94
387.985	3.94
388.193	3
388.4	3.25
388.608	5.8
388.816	6.51
389.023	6.31
389.231	6.36
389.438	7.01
389.646	7.13
389.853	5.43
390.061	5.32
390.268	5.14
390.475	7.01
390.683	8.03
390.89	6.63
391.098	5.97
391.305	5.55
391.512	4.73
391.72	5.72
391.927	5.38
392.135	6.02
392.342	6.28
392.549	5.99
392.756	4.71
392.964	3.24
393.171	3.57
393.378	3.25
393.586	4.03
393.793	5.52
394	4.82
394.207	4.48
394.414	4.43
394.622	3.81
394.829	4.26
395.036	4.28
395.243	5.36
395.45	5.61
395.657	5.75
395.864	5.18
396.072	4.48
396.279	3.18
396.486	2.86
396.693	3.97
396.9	4.08
397.107	3.9
397.314	3.25
397.521	3.63
397.728	3.94
397.935	5.18
398.142	6.05
398.349	5.76
398.556	7.7
398.763	8.49
398.97	8.48
399.177	7.64
399.383	6.25
399.59	6.44
399.797	6.34
400.004	5.06
400.211	4.37
400.418	3.95
400.625	6.53
400.831	7.24
401.038	7.32
401.245	7.2
401.452	7.45
401.658	8.22
401.865	9.07
402.072	8.46
402.279	9.06
402.485	9.03
402.692	8.46
402.899	6.74
403.105	5.43
403.312	5.77
403.519	6.21
403.725	6.44
403.932	6.51
404.138	6.5
404.345	6.11
404.552	5.49
404.758	5.69
404.965	6.66
405.171	5.75
405.378	5.26
405.584	3.9
405.791	3.04
405.997	3.39
406.204	4.21
406.41	4.88
406.617	5.76
406.823	6.2
407.029	5.24
407.236	5.26
407.442	5.62
407.649	6.45
407.855	6.58
408.061	6.4
408.268	5.9
408.474	5.05
408.68	6.1
408.887	4.97
409.093	4.02
409.299	4.63
409.505	4.36
409.712	5.17
409.918	4.71
410.124	4.85
410.33	5.14
410.537	6.08
410.743	6.45
410.949	3.56
411.155	3.63
411.361	4.53
411.567	4.36
411.773	3.69
411.98	3.09
412.186	3.69
412.392	3.79
412.598	3.53
412.804	2.77
413.01	1.92
413.216	3.47
413.422	4.47
413.628	5.35
413.834	5.98
414.04	6.65
414.246	5.33
414.452	5.33
414.658	4.83
414.864	5.39
415.07	6.68
415.275	7.91
415.481	7.86
415.687	7.22
415.893	6.3
416.099	6.33
416.305	6.48
416.511	6.9
416.716	6.37
416.922	7.29
417.128	6.88
417.334	6.06
417.539	5.76
417.745	5.14
417.951	5.31
418.157	5.44
418.362	5.57
418.568	5.83
418.774	6.27
418.979	6.8
419.185	6.67
419.391	6.57
419.596	6.6
419.802	7
420.008	7.62
420.213	3.61
420.419	3.81
420.624	3.89
420.83	3.5
421.035	3.94
421.241	3.49
421.446	3.4
421.652	3.83
421.857	4.08
422.063	3.33
422.268	3.52
422.474	7.77
422.679	8.13
422.885	8.06
423.09	7.81
423.295	7.82
423.501	7.88
423.706	8.09
423.911	7.77
424.117	7.93
424.322	8.29
424.527	7.9
424.733	8
424.938	7.3
425.143	7.5
425.349	7.77
425.554	7.1
425.759	7.1
425.964	6.63
426.169	6.89
426.375	7.18
426.58	7.75
426.785	7.57
426.99	7.01
427.195	7.77
427.4	6.27
427.605	6.43
427.811	6.31
428.016	6.35
428.221	6.68
428.426	7.03
428.631	6.21
428.836	5.78
429.041	6
429.246	6.35
429.451	5.96
429.656	7.28
429.861	7.78
430.066	9.12
430.271	9.85
430.476	10.21
430.681	9.26
430.886	8.6
431.09	8.39
431.295	8.59
431.5	9.02
431.705	9.09
431.91	8.88
432.115	8.23
432.32	7.64
432.524	7.04
432.729	6.65
432.934	6.92
433.139	7.93
433.343	7.78
433.548	7.23
433.753	6.45
433.958	5.99
434.162	6.6
434.367	6.98
434.572	7.06
434.776	7.16
434.981	7.34
435.186	7.5
435.39	6.97
435.595	6.94
435.799	7.49
436.004	7.84
436.209	8.47
436.413	7.47
436.618	7.86
436.822	8.03
437.027	7.83
437.231	7.3
437.436	7.02
437.64	7.18
437.845	7.23
438.049	6.86
438.253	7.05
438.458	7.05
438.662	6.7
438.867	5.92
439.071	5.57
439.275	5.13
439.48	5.63
439.684	5.45
439.888	5.85
440.093	6.05
440.297	6.29
440.501	6.52
440.706	6.06
440.91	6.15
441.114	6.38
441.318	6.58
441.523	6.61
441.727	6.07
441.931	6.29
442.135	5.24
442.339	4.82
442.543	4.39
442.748	4.43
442.952	4.58
443.156	4.98
443.36	5.03
443.564	4.61
443.768	5.38
443.972	5.63
444.176	5.88
444.38	5.92
444.584	6.16
444.788	6.08
444.992	6.55
445.196	6.81
445.4	6.88
445.604	7.3
445.808	7.37
446.012	7.06
446.216	7.25
446.42	7.42
446.624	7.81
446.828	7.58
447.032	8
447.235	7.37
447.439	7.04
447.643	7.72
447.847	7.46
448.051	6.9
448.254	7.03
448.458	7.25
448.662	6.62
448.866	7
449.069	7.2
449.273	7.41
449.477	7.58
449.681	8.04
449.884	6.77
450.088	6.49
450.292	7.17
450.495	7.13
450.699	6.37
450.902	6.87
451.106	6.42
451.31	6.4
451.513	7.08
451.717	7.06
451.92	6.54
452.124	6.8
452.327	6.55
452.531	6.51
452.734	6.83
452.938	8.06
453.141	8.36
453.345	8.16
453.548	8.05
453.752	7.17
453.955	6.71
454.158	7.2
454.362	7.7
454.565	8.34
454.769	8.55
454.972	8.25
455.175	6.92
455.379	6.67
455.582	7.37
455.785	7.78
455.988	7.64
456.192	7.84
456.395	7.65
456.598	7.22
456.801	7.14
457.005	7.21
457.208	7.52
457.411	7.94
457.614	7.79
457.817	7.59
458.021	7.57
458.224	7.62
458.427	7.49
458.63	7.49
458.833	7.17
459.036	7
459.239	6.71
459.442	6.53
459.645	6.43
459.848	6.49
460.051	6.44
460.254	5.84
460.457	6.33
460.66	6.33
460.863	5.97
461.066	6.55
461.269	6.89
461.472	7.31
461.675	7.21
461.878	7.44
462.081	7.51
462.284	7.15
462.486	7.89
462.689	7.31
462.892	7.7
463.095	7.17
463.298	7.73
463.5	7.6
463.703	8.1
463.906	8.45
464.109	8.05
464.311	7.47
464.514	8.01
464.717	7.93
464.92	7.76
465.122	7.56
465.325	8.29
465.528	7.43
465.73	7.16
465.933	6.58
466.135	6.17
466.338	5.95
466.541	5.94
466.743	5.7
466.946	5.7
467.148	5.36
467.351	5.61
467.553	5.76
467.756	5.97
467.958	5.91
468.161	6.71
468.363	6.46
468.566	6.93
468.768	7.57
468.971	7.04
469.173	6.83
469.375	7.22
469.578	6.5
469.78	7.21
469.983	8.1
470.185	7.36
470.387	7.2
470.59	7.57
470.792	6.88
470.994	6.53
471.196	7.58
471.399	7.28
471.601	6.75
471.803	7.11
472.005	6.89
472.208	6.34
472.41	6.9
472.612	6.46
472.814	6.38
473.016	7.49
473.218	7.94
473.421	7.33
473.623	7.48
473.825	8.13
474.027	7.95
474.229	7.7
474.431	7.16
474.633	7.48
474.835	7.5
475.037	8.19
475.239	7.85
475.441	7.07
475.643	7.07
475.845	7.25
476.047	6.82
476.249	7.4
476.451	8.04
476.653	8.42
476.855	7.79
477.057	7.97
477.258	7.59
477.46	8.22
477.662	9.15
477.864	9.43
478.066	9.69
478.268	10.17
478.469	10.42
478.671	9.72
478.873	9.72
479.075	10.14
479.276	9.58
479.478	9.47
479.68	8.34
479.882	7.83
480.083	7.54
480.285	7.4
480.487	7.21
480.688	6.41
480.89	6.46
481.091	6.53
481.293	6.81
481.495	6.97
481.696	6.98
481.898	7.47
482.099	7.34
482.301	7.49
482.502	7.66
482.704	7.59
482.905	7.66
483.107	7.58
483.308	7.74
483.51	7.73
483.711	7.79
483.913	7.84
484.114	7.69
484.315	7.78
484.517	7.73
484.718	7.77
484.92	7.9
485.121	8.22
485.322	8.21
485.524	8.12
485.725	7.95
485.926	8.24
486.127	8.2
486.329	8.21
486.53	8.38
486.731	8.53
486.932	8.34
487.134	8.41
487.335	8.11
487.536	8.4
487.737	8.35
487.938	8.33
488.139	8.07
488.341	8.23
488.542	8.32
488.743	8.46
488.944	8.31
489.145	8.21
489.346	8.14
489.547	8.2
489.748	8.09
489.949	8.22
490.15	8.27
490.351	8.28
490.552	8.17
490.753	8.34
490.954	8.22
491.155	8.27
491.356	8.36
491.557	8.74
491.758	8.97
491.959	8.94
492.159	8.76
492.36	8.8
492.561	8.83
492.762	8.92
492.963	8.61
493.164	8.76
493.364	8.2
493.565	8.3
493.766	7.63
493.967	7.57
494.167	7.46
494.368	7.86
494.569	8.43
494.769	8.56
494.97	8.9
495.171	9.26
495.371	9.27
495.572	9.52
495.773	9.17
495.973	9.11
496.174	9.35
496.375	9.22
496.575	8.92
496.776	8.96
496.976	8.88
497.177	8.12
497.377	8.36
497.578	8.46
497.778	8.25
497.979	8.83
498.179	9.13
498.38	8.66
498.58	8.99
498.78	9.11
498.981	9.03
499.181	8.82
499.382	9.46
499.582	9.19
499.782	8.61
499.983	9.55
500.183	9.36
500.383	9.08
500.584	9.08
500.784	8.7
500.984	8.42
501.184	8.22
501.385	8.69
501.585	8.84
501.785	8.84
501.985	8.9
502.185	8.79
502.386	8.96
502.586	8.87
502.786	8.91
502.986	9
503.186	8.73
503.386	8.59
503.586	7.92
503.786	7.33
503.987	6.88
504.187	7.07
504.387	7.07
504.587	6.98
504.787	7.05
504.987	7.19
505.187	7.49
505.387	7.83
505.587	7.74
505.786	8.13
505.986	8.33
506.186	8.05
506.386	8.09
506.586	8.33
506.786	7.99
506.986	7.8
507.186	7.79
507.386	7.81
507.585	7.74
507.785	7.77
507.985	8.05
508.185	8.11
508.384	8.47
508.584	8.57
508.784	8.14
508.984	8.47
509.183	9.17
509.383	9.21
509.583	9.16
509.782	9.35
509.982	8.93
510.182	8.69
510.381	8.62
510.581	9.19
510.781	9.04
510.98	9.01
511.18	8.89
511.379	8.64
511.579	8.46
511.778	8.64
511.978	8.92
512.177	9.05
512.377	9.48
512.576	9.6
512.776	9.16
512.975	9.2
513.175	9.48
513.374	10.07
513.573	10.38
513.773	10.68
513.972	10.73
514.172	10.88
514.371	11.43
514.57	10.95
514.77	10.95
514.969	11.36
515.168	11.24
515.367	10.98
515.567	10.9
515.766	10.27
515.965	10.33
516.164	10.56
516.364	9.96
516.563	10.24
516.762	10.4
516.961	10.5
517.16	10.16
517.359	10.64
517.559	11.04
517.758	10.81
517.957	11.05
518.156	11.09
518.355	10.82
518.554	10.86
518.753	10.43
518.952	10.72
519.151	10.4
519.35	10.24
519.549	9.75
519.748	9.52
519.947	9.36
520.146	9.48
520.345	9.28
520.544	9.49
520.743	9.93
520.942	10.41
521.141	10.21
521.339	10.83
521.538	11.12
521.737	11.15
521.936	11.06
522.135	11.2
522.333	11.26
522.532	11.75
522.731	11.69
522.93	11.82
523.129	11.78
523.327	11.83
523.526	11.86
523.725	11.95
523.923	12.41
524.122	12.48
524.321	12.55
524.519	12.64
524.718	12.59
524.917	12.59
525.115	12.75
525.314	12.71
525.512	13.01
525.711	13.06
525.909	13.07
526.108	12.91
526.306	13.11
526.505	13.2
526.703	13.43
526.902	13.25
527.1	13.46
527.299	13.43
527.497	13.43
527.696	13.32
527.894	13.5
528.092	13.7
528.291	13.81
528.489	13.88
528.688	13.89
528.886	13.73
529.084	13.87
529.283	13.62
529.481	13.63
529.679	13.78
529.877	13.65
530.076	13.57
530.274	13.54
530.472	13.61
530.67	13.41
530.869	13.54
531.067	13.37
531.265	13.4
531.463	13.52
531.661	13.32
531.859	13.06
532.057	13.22
532.255	13.16
532.454	13.1
532.652	13.15
532.85	13.16
533.048	13.16
533.246	13.55
533.444	13.91
533.642	14.19
533.84	14.66
534.038	15.2
534.236	15.23
534.434	15.16
534.632	15.1
534.83	15.41
535.027	15.56
535.225	15.5
535.423	15.2
535.621	15.06
535.819	14.96
536.017	14.57
536.215	14
536.412	14.38
536.61	14.41
536.808	14.33
537.006	13.76
537.203	13.36
537.401	13.4
537.599	13.66
537.797	13.53
537.994	13.14
538.192	13.59
538.39	14.1
538.587	13.56
538.785	13.49
538.983	13.63
539.18	13.68
539.378	14.14
539.575	14.46
539.773	14.62
539.97	14.69
540.168	14.95
540.366	15.06
540.563	14.93
540.761	15.06
540.958	15.22
541.155	15.58
541.353	15.61
541.55	15.76
541.748	15.53
541.945	15.48
542.143	15.46
542.34	15.44
542.537	15.31
542.735	15.55
542.932	15.62
543.129	15.72
543.327	15.41
543.524	15.92
543.721	15.87
543.919	16.08
544.116	15.73
544.313	15.93
544.51	16.08
544.708	15.8
544.905	15.87
545.102	16.06
545.299	16.44
545.496	16.78
545.693	16.63
545.891	16.71
546.088	16.56
546.285	17.06
546.482	17.07
546.679	16.96
546.876	17.55
547.073	17.72
547.27	17.55
547.467	17.36
547.664	17.16
547.861	16.71
548.058	16.46
548.255	16.22
548.452	15.95
548.649	16.41
548.846	16.46
549.043	16.44
549.24	16.67
549.437	17.07
549.633	16.99
549.83	17.29
550.027	17.24
550.224	17.16
550.421	17.88
550.618	17.84
550.814	17.58
551.011	17.4
551.208	16.94
551.405	16.38
551.601	16.49
551.798	16.52
551.995	16.16
552.191	16.66
552.388	17.4
552.585	17.31
552.781	17.46
552.978	16.96
553.175	17.24
553.371	17.44
553.568	17.9
553.764	17.33
553.961	17.12
554.157	17.72
554.354	17.94
554.55	17.52
554.747	17.59
554.943	17.45
555.14	17.18
555.336	17.09
555.533	17.23
555.729	17.16
555.926	17.52
556.122	17.36
556.318	16.97
556.515	16.81
556.711	16.67
556.907	16.48
557.104	16.91
557.3	18.05
557.496	18.11
557.693	17.3
557.889	16.84
558.085	16.63
558.281	17.55
558.478	17.27
558.674	16.22
558.87	16.02
559.066	15.97
559.262	15.62
559.459	15.37
559.655	15.91
559.851	17.16
560.047	18.31
560.243	18.96
560.439	18.84
560.635	19.05
560.831	19.75
561.027	19.89
561.223	20.16
561.419	20.22
561.615	20.32
561.811	20.57
562.007	20.21
562.203	19.74
562.399	19.99
562.595	19.75
562.791	20.2
562.987	20.91
563.183	20.99
563.379	20.66
563.575	21.23
563.771	20.51
563.966	20.42
564.162	20.31
564.358	19.76
564.554	19.24
564.75	19.56
564.945	19.29
565.141	18.28
565.337	18.3
565.533	18.31
565.728	17.71
565.924	18.1
566.12	17.57
566.315	18.45
566.511	18.58
566.707	18.06
566.902	17.4
567.098	17.48
567.293	18.43
567.489	17.68
567.684	17.65
567.88	18.4
568.076	18.07
568.271	17.99
568.467	17.2
568.662	17.82
568.858	18.29
569.053	18.36
569.248	18.75
569.444	18.01
569.639	18.01
569.835	17.87
570.03	18.5
570.225	18.9
570.421	19.31
570.616	18.76
570.812	18.86
571.007	18.87
571.202	18.63
571.397	17.71
571.593	18.1
571.788	18.66
571.983	18.35
572.178	17.26
572.374	17.61
572.569	17.68
572.764	18.38
572.959	17.65
573.154	18.39
573.35	18.91
573.545	19.37
573.74	19.73
573.935	19.69
574.13	20.17
574.325	20.37
574.52	19.99
574.715	20.03
574.91	20.05
575.105	19.72
575.3	19.26
575.495	19.58
575.69	19.49
575.885	18.91
576.08	18.95
576.275	19.39
576.47	19.44
576.665	19.58
576.86	19.85
577.055	20.16
577.25	20.9
577.444	20.75
577.639	20.5
577.834	20.88
578.029	21.28
578.224	21.4
578.418	21
578.613	21.12
578.808	20.97
579.003	20.33
579.197	19.62
579.392	19.52
579.587	20.21
579.781	20.05
579.976	19.64
580.171	19.95
580.365	20.72
580.56	20.86
580.755	20.83
580.949	20.81
581.144	20.48
581.338	20.22
581.533	20.31
581.727	19.69
581.922	19.74
582.116	20.66
582.311	20.3
582.505	18.87
582.7	18.6
582.894	18.59
583.089	18.83
583.283	20.03
583.478	20.12
583.672	19.32
583.866	18.82
584.061	18.97
584.255	17.64
584.449	17.97
584.644	18.55
584.838	18.11
585.032	17.86
585.226	17.34
585.421	17.25
585.615	17.25
585.809	17.96
586.003	18.53
586.198	18.3
586.392	19.42
586.586	19.29
586.78	19.06
586.974	20.2
587.168	20.77
587.363	21.26
587.557	19.96
587.751	19.83
587.945	19.2
588.139	19.68
588.333	19.9
588.527	19.37
588.721	19.14
588.915	19.34
589.109	18.97
589.303	18.7
589.497	18.42
589.691	18.53
589.885	19.18
590.079	19.75
590.273	19.55
590.466	19
590.66	19.05
590.854	18.64
591.048	18.63
591.242	18.57
591.436	19.09
591.629	19.1
591.823	19.23
592.017	19.37
592.211	19.91
592.404	19.24
592.598	19.78
592.792	19.92
592.986	20.44
593.179	21.02
593.373	21.16
593.567	20.48
593.76	21.45
593.954	21.89
594.147	21.04
594.341	19.85
594.535	20.57
594.728	20.56
594.922	20.56
595.115	21.4
595.309	21.42
595.502	21.25
595.696	21.22
595.889	20.54
596.083	20.14
596.276	20.85
596.47	22.52
596.663	21.99
596.856	21.74
597.05	22.09
597.243	21.32
597.437	20.93
597.63	21.99
597.823	22.38
598.017	22.43
598.21	22.89
598.403	22.56
598.596	21.8
598.79	22.3
598.983	23.1
599.176	23.14
599.369	23.35
599.563	22.96
599.756	23.14
599.949	23.43
600.142	23.62
600.335	23.85
600.528	23.91
600.722	24.38
600.915	24.14
601.108	23.61
601.301	23.27
601.494	22.88
601.687	23.29
601.88	22.01
602.073	21.47
602.266	21.52
602.459	21.85
602.652	21.95
602.845	21.4
603.038	20.93
603.231	21.33
603.424	21.06
603.617	20.5
603.809	20.23
604.002	20.41
604.195	19.95
604.388	19.77
604.581	19.6
604.774	19.56
604.966	20.21
605.159	20.42
605.352	20.16
605.545	20.9
605.737	21.36
605.93	22.02
606.123	21.9
606.316	22.78
606.508	23.38
606.701	23.76
606.894	24.03
607.086	23.77
607.279	24.04
607.471	23.65
607.664	23.07
607.857	23
608.049	23.04
608.242	23.48
608.434	23.88
608.627	23.48
608.819	23.41
609.012	22.79
609.204	22.08
609.397	22.22
609.589	22.6
609.782	23.85
609.974	24.58
610.166	24.81
610.359	25.42
610.551	24.74
610.743	24.15
610.936	23.95
611.128	24.04
611.32	24.32
611.513	23.7
611.705	23.65
611.897	22.5
612.09	22.96
612.282	22.62
612.474	22.08
612.666	21.77
612.858	22.77
613.051	21.87
613.243	22.72
613.435	22.92
613.627	22.47
613.819	23.27
614.011	21.93
614.203	21.37
614.395	20.48
614.588	20.5
614.78	20.58
614.972	19.82
615.164	20.2
615.356	20.85
615.548	20.39
615.74	21.9
615.932	21.56
616.124	21.63
616.315	21.09
616.507	21.68
616.699	20.88
616.891	21.51
617.083	21.42
617.275	20.5
617.467	19.89
617.659	20.71
617.85	20.16
618.042	20.06
618.234	20.89
618.426	21.3
618.618	21.16
618.809	22.04
619.001	21.94
619.193	21.95
619.384	23.54
619.576	24.69
619.768	23.92
619.959	23.56
620.151	23.69
620.343	23.61
620.534	23.13
620.726	23.35
620.917	22.67
621.109	23.91
621.301	23.47
621.492	22.87
621.684	21.9
621.875	21.93
622.067	22.19
622.258	22.45
622.45	22.7
622.641	22.69
622.832	22.32
623.024	22.72
623.215	22.53
623.407	22.64
623.598	22.57
623.789	22.02
623.981	21.58
624.172	22.38
624.363	21.86
624.555	21.86
624.746	22.32
624.937	22.43
625.129	22.44
625.32	21.44
625.511	22.11
625.702	23.07
625.893	23.39
626.085	24.21
626.276	22.87
626.467	22.35
626.658	21.68
626.849	21.69
627.04	22.22
627.231	21.51
627.422	22.1
627.614	21.92
627.805	20.6
627.996	20.51
628.187	20.67
628.378	22.02
628.569	22.62
628.76	23.66
628.951	23.82
629.142	23.83
629.332	23.93
629.523	23.65
629.714	23.55
629.905	24.53
630.096	24.37
630.287	24.43
630.478	24.23
630.669	24.52
630.859	24.44
631.05	23.93
631.241	23.07
631.432	23.58
631.623	23.87
631.813	24.67
632.004	24.4
632.195	22.94
632.385	23.05
632.576	23.94
632.767	23.67
632.957	24.8
633.148	25.51
633.339	26.14
633.529	27.04
633.72	26.42
633.91	25.96
634.101	25.81
634.292	26.86
634.482	26.58
634.673	25.05
634.863	23.87
635.054	23.35
635.244	22.46
635.435	22.06
635.625	21.02
635.815	20.84
636.006	21.26
636.196	21.21
636.387	21.25
636.577	20.88
636.767	21.85
636.958	23.3
637.148	23.4
637.338	22.97
637.529	24.41
637.719	24.24
637.909	24.4
638.099	24.47
638.29	22.89
638.48	23.75
638.67	24.75
638.86	24.01
639.05	23.96
639.241	23.49
639.431	24.68
639.621	23.97
639.811	25.62
640.001	26.44
640.191	27
640.381	28.38
640.571	27.28
640.761	27.48
640.951	27.85
641.141	27.21
641.331	25.96
641.521	26.14
641.711	27.09
641.901	26.52
642.091	25.78
642.281	24.77
642.471	24.87
642.661	25.2
642.851	24.86
643.041	24.88
643.231	25.46
643.42	25.78
643.61	23.92
643.8	22.44
643.99	21.23
644.18	20.95
644.369	20.68
644.559	22.14
644.749	21.04
644.939	20.89
645.128	20.14
645.318	20.46
645.508	20.66
645.697	21.13
645.887	20.56
646.076	20.01
646.266	20.3
646.456	19.3
646.645	18.14
646.835	19.86
647.024	18.94
647.214	19.46
647.403	19.47
647.593	19.71
647.782	21.31
647.972	21.02
648.161	22.25
648.351	22.46
648.54	23.37
648.73	23.04
648.919	22.63
649.108	24.73
649.298	24.39
649.487	24.77
649.677	25.24
649.866	25.23
650.055	25.98
650.244	25.69
650.434	26.16
650.623	26.54
650.812	26.3
651.002	26.11
651.191	23.83
651.38	24.21
651.569	22.8
651.758	22.05
651.947	20.28
652.137	20.6
652.326	19.62
652.515	17.53
652.704	16.64
652.893	17.54
653.082	18.68
653.271	19.03
653.46	20.26
653.649	19.95
653.838	19.6
654.027	20.71
654.216	19.69
654.405	20.96
654.594	21.95
654.783	22.34
654.972	22.59
655.161	22.06
655.35	22.59
655.539	22.03
655.728	23.84
655.916	25.4
656.105	24.35
656.294	25.36
656.483	24.81
656.672	24.64
656.86	25.65
657.049	24.52
657.238	24.02
657.427	24.36
657.615	24.73
657.804	23.85
657.993	23.09
658.181	24.18
658.37	24.51
658.559	25.48
658.747	26.06
658.936	26.69
659.125	29.31
659.313	29.68
659.502	28.61
659.69	27.31
659.879	27.43
660.067	28.57
660.256	27.58
660.444	27.52
660.633	26.66
660.821	26.41
661.01	24.91
661.198	23.59
661.387	22.96
661.575	23.68
661.763	24.39
661.952	25.93
662.14	23.33
662.328	24.44
662.517	25.68
662.705	26.11
662.893	27.52
663.082	28.16
663.27	26.81
663.458	27.85
663.646	26.97
663.834	26.81
664.023	25.24
664.211	27.18
664.399	27.49
664.587	24.5
664.775	24.81
664.963	23.56
665.152	24.02
665.34	24.96
665.528	25.89
665.716	26.73
665.904	27.68
666.092	27.12
666.28	27.03
666.468	27.09
666.656	29.03
666.844	29.04
667.032	29.71
667.22	29.28
667.408	28.17
667.596	28.25
667.784	27.38
667.971	26.02
668.159	27.98
668.347	27.85
668.535	25.75
668.723	24.98
668.911	24.87
669.098	24.08
669.286	22.24
669.474	21.71
669.662	20.75
669.849	21.87
670.037	22.79
670.225	21.29
670.413	22.49
670.6	25.11
670.788	24.82
670.976	24.95
671.163	26.12
671.351	28.81
671.538	29.22
671.726	28.76
671.913	28.33
672.101	27.93
672.289	28.58
672.476	26.82
672.664	26.1
672.851	25.43
673.039	25.48
673.226	23.75
673.413	23.46
673.601	22.9
673.788	23.68
673.976	23.69
674.163	24.35
674.35	23.03
674.538	21.87
674.725	21.93
674.912	23.31
675.1	22.99
675.287	23
675.474	22.49
675.662	21.85
675.849	21.07
676.036	20
676.223	19.15
676.411	19.47
676.598	23.05
676.785	24.09
676.972	22.26
677.159	21.58
677.346	22.02
677.533	23.18
677.721	24.27
677.908	24.23
678.095	25.77
678.282	25.39
678.469	25.64
678.656	24.21
678.843	23.31
679.03	24.42
679.217	24.57
679.404	24.37
679.591	23.11
679.778	22.85
679.964	22
680.151	20.28
680.338	19.69
680.525	19.91
680.712	19.77
680.899	20.02
681.086	19.05
681.272	19.38
681.459	19.97
681.646	19.95
681.833	21.28
682.02	21.93
682.206	24.74
682.393	26.78
682.58	26.6
682.766	26.58
682.953	26.74
683.14	27.96
683.326	27.29
683.513	26.23
683.7	25.6
683.886	24.96
684.073	24.37
684.259	22.54
684.446	20.82
684.632	21.34
684.819	21.84
685.005	20.72
685.192	19.73
685.378	21.28
685.565	21.49
685.751	22.17
685.938	22.92
686.124	23.13
686.31	24.31
686.497	23.73
686.683	23.68
686.87	22.57
687.056	22.74
687.242	22.9
687.429	23.21
687.615	23.67
687.801	24.61
687.987	22.78
688.174	23.08
688.36	24.19
688.546	24.54
688.732	25.68
688.918	26.34
689.105	27.44
689.291	25.85
689.477	24.54
689.663	25.79
689.849	24.71
690.035	25.32
690.221	26.74
690.407	23.89
690.593	24.82
690.779	24.66
690.965	24.37
691.151	23.18
691.337	25.9
691.523	25.77
691.709	24.25
691.895	24.48
692.081	25.09
692.267	23.55
692.453	25.91
692.639	24.75
692.825	23.6
693.011	22.96
693.196	21.98
693.382	20.03
693.568	20.86
693.754	19.17
693.94	17.68
694.125	17.61
694.311	17.33
694.497	15.92
694.682	17.97
694.868	19.31
695.054	19.62
695.239	21.12
695.425	21.13
695.611	20
695.796	21.74
695.982	23.82
696.168	24.86
696.353	24.05
696.539	25.18
696.724	24.15
696.91	23.31
697.095	23.41
697.281	23.67
697.466	24.06
697.652	25.06
697.837	24.15
698.023	23.51
698.208	22.35
698.393	23
698.579	22.38
698.764	21.9
698.949	21.98
699.135	22.16
699.32	20.49
699.505	20.89
699.691	19.23
699.876	21.31
700.061	23.13
700.246	24.37
700.432	26.71
700.617	26.11
700.802	27.7
700.987	28.22
701.172	29.36
701.358	31.94
701.543	31.29
701.728	34.1
701.913	33.07
702.098	33.32
702.283	32.55
702.468	28.01
702.653	29.23
702.838	30.82
703.023	29.97
703.208	29.7
703.393	28.51
703.578	30.38
703.763	29.91
703.948	29.92
704.133	27.86
704.318	28.71
704.503	30.14
704.688	29.42
704.873	27.05
705.057	26.22
705.242	26.03
705.427	25.36
705.612	24.12
705.797	22.6
705.981	24.22
706.166	23.35
706.351	22.85
706.536	26.01
706.72	28.01
706.905	30.54
707.09	29.81
707.274	28.88
707.459	30.65
707.644	31.06
707.828	30.58
708.013	28.36
708.197	29.26
708.382	29.87
708.567	28.43
708.751	27.51
708.936	25.84
709.12	25.64
709.305	26.01
709.489	25.83
709.673	27.3
709.858	27.63
710.042	27.22
710.227	28.1
710.411	26.59
710.596	28.62
710.78	28.41
710.964	28.82
711.149	31.4
711.333	33.28
711.517	33.64
711.702	32.3
711.886	33.17
712.07	33.31
712.254	32.69
712.438	31.76
712.623	29.93
712.807	28.03
712.991	26
713.175	24.77
713.359	21.63
713.544	22.77
713.728	22.07
713.912	19.49
714.096	20.58
714.28	19.83
714.464	21.51
714.648	20.78
714.832	22.38
715.016	25.47
715.2	23.02
715.384	24.52
715.568	22.83
715.752	23.68
715.936	24.22
716.12	23.88
716.304	23.5
716.488	24.5
716.671	23.92
716.855	23.01
717.039	20.78
717.223	22.32
717.407	19.55
717.59	19.79
717.774	15.46
717.958	13.72
718.142	12.65
718.325	9.85
718.509	5.22
718.693	3.31
718.877	4.55
719.06	7.17
719.244	5.93
719.428	7.95
719.611	10
719.795	15.3
719.978	16.73
720.162	18.38
720.345	21.3
720.529	27.58
720.713	29.32
720.896	27.61
721.08	25.27
721.263	27.75
721.446	24.52
721.63	21.38
721.813	20.78
721.997	21.64
722.18	23.09
722.364	25.03
722.547	21.77
722.73	22.13
722.914	21.73
723.097	19.88
723.28	18.81
723.464	21.65
723.647	22.31
723.83	19.99
724.013	26.13
724.197	22.13
724.38	18.32
724.563	19.36
724.746	17.25
724.929	23.12
725.112	23.98
725.296	22.99
725.479	24.33
725.662	24.75
725.845	25.8
726.028	21.49
726.211	24.75
726.394	27.01
726.577	26.28
726.76	27.43
726.943	24.26
727.126	24.62
727.309	25.7
727.492	25.56
727.675	21.94
727.858	22.14
728.041	22.5
728.224	22
728.407	21.44
728.589	22.59
728.772	19.31
728.955	16.7
729.138	13.83
729.321	14.75
729.503	15.21
729.686	18.2
729.869	18.19
730.052	16.06
730.234	14.14
730.417	14.09
730.6	11.92
730.782	15.07
730.965	19.55
731.148	20.98
731.33	21.95
731.513	20.52
731.695	20.77
731.878	20.92
732.061	22.23
732.243	22.59
732.426	22.51
732.608	23.4
732.791	23.08
732.973	24.47
733.156	25.85
733.338	24.34
733.52	26.84
733.703	26.35
733.885	27.2
734.068	27.92
734.25	28.28
734.432	28.56
734.615	28.89
734.797	30.43
734.979	24.99
735.162	22.56
735.344	22.71
735.526	20.68
735.708	24.35
735.891	24.06
736.073	21.31
736.255	23.17
736.437	22.95
736.619	23.85
736.802	22.61
736.984	23.57
737.166	25.79
737.348	27.34
737.53	28.33
737.712	27.24
737.894	27.08
738.076	29.77
738.258	30.72
738.44	29.26
738.622	28.95
738.804	29.94
738.986	30.11
739.168	29.13
739.35	26.65
739.532	26.51
739.714	26.3
739.896	21.73
740.078	23.84
740.259	21.96
740.441	24.8
740.623	24.47
740.805	22.75
740.987	24.97
741.168	31.03
741.35	35.12
741.532	34.33
741.714	31.84
741.895	38.56
742.077	38.55
742.259	38.04
742.44	35.89
742.622	39.16
742.804	42.17
742.985	40.92
743.167	34.7
743.348	34.82
743.53	35.82
743.711	40.15
743.893	38.66
744.075	38.28
744.256	42.53
744.438	45.93
744.619	42.28
744.8	43.88
744.982	43.39
745.163	42.67
745.345	38.31
745.526	32.73
745.707	31.56
745.889	28.67
746.07	27.5
746.252	20.71
746.433	16.69
746.614	20.64
746.795	15.44
746.977	10.43
747.158	13.11
747.339	17.48
747.52	26.97
747.702	24.75
747.883	28.21
748.064	28.29
748.245	29.21
748.426	31.29
748.607	24.24
748.788	23.58
748.97	26.16
749.151	22.05
749.332	14.95
749.513	13.62
749.694	16.23
749.875	17.11
750.056	16.99
750.237	19.97
750.418	19.21
750.599	21.05
750.78	20.65
750.96	24.7
751.141	25.19
751.322	25.34
751.503	26.4
751.684	27.16
751.865	30.41
752.046	27.48
752.226	23.66
752.407	27.53
752.588	32.13
752.769	34.04
752.949	28.74
753.13	30.8
753.311	35.04
753.492	31.74
753.672	25.54
753.853	20.64
754.034	23.86
754.214	27.31
754.395	23.8
754.575	20.95
754.756	22.22
754.937	25.08
755.117	29.02
755.298	27.83
755.478	29.47
755.659	34.83
755.839	39.02
756.02	36.92
756.2	39.39
756.381	39.4
756.561	37.85
756.741	37.72
756.922	31.66
757.102	26.08
757.283	25.7
757.463	22.5
757.643	20.83
757.823	12.69
758.004	5.85
758.184	4.32
758.364	2.72
758.545	3.57
758.725	0.87
758.905	8.75
759.085	6.88
759.265	0.77
759.446	1.93
759.626	6.52
759.806	9.56
759.986	12.82
760.166	13.7
760.346	17.71
760.526	19.77
760.706	16.86
760.886	15.59
761.066	21.97
761.246	24.02
761.426	24.23
761.606	20.31
761.786	19.45
761.966	21.69
762.146	20.66
762.326	17.36
762.506	18.26
762.686	19.22
762.866	19.91
763.046	15.46
763.225	16.97
763.405	18.07
763.585	20.03
763.765	23.49
763.945	23.21
764.124	21.7
764.304	24.86
764.484	26
764.664	26.63
764.843	27.32
765.023	29.4
765.203	28.35
765.382	29.06
765.562	28.82
765.741	28.25
765.921	32.71
766.101	37.19
766.28	38.19
766.46	41.24
766.639	40.39
766.819	41.19
766.998	49.22
767.178	48.8
767.357	45.02
767.537	40.44
767.716	44.18
767.896	37.41
768.075	34.21
768.254	32.03
768.434	33.43
768.613	37.81
768.792	36.05
768.972	29.37
769.151	29.24
769.33	32.42
769.51	32.78
769.689	35.22
769.868	38.61
770.047	38.81
770.226	43.09
770.406	34.88
770.585	32.45
770.764	35.5
770.943	35.79
771.122	40.15
771.301	38.02
771.48	42.04
771.66	35.45
771.839	33.77
772.018	37.25
772.197	36
772.376	41.3
772.555	42.66
772.734	47.24
772.913	47.62
773.092	46.84
773.271	50.64
773.449	47.26
773.628	50.6
773.807	49.2
773.986	46.41
774.165	46.43
774.344	46.9
774.523	48.09
774.701	36.62
774.88	36.07
775.059	34.9
775.238	36.36
775.417	38.25
775.595	40.26
775.774	39.75
775.953	40.09
776.131	28.75
776.31	27.38
776.489	22.84
776.667	30.37
776.846	28.73
777.025	28.15
777.203	26.89
777.382	24.57
777.56	19.59
777.739	18.65
777.917	16.15
778.096	19.27
778.274	19.79
778.453	24.82
778.631	22.16
778.81	30.11
778.988	33.6
779.166	36.43
779.345	35.96
779.523	39.62
779.702	44.98
779.88	49.21
780.058	57.18
780.237	53.72
780.415	53.97
780.593	57.46
780.771	54.58
780.95	52.83
781.128	45.15
781.306	50.43
781.484	48.74
781.662	46.46
781.841	39.55
782.019	39.21
782.197	49.1
782.375	53.96
782.553	49.98
782.731	43.84
782.909	46.78
783.087	53.32
783.265	48.74
783.443	41.58
783.621	38.25
783.799	40.94
783.977	39.75
784.155	35.07
784.333	28.37
784.511	27
784.689	22.62
784.867	31.39
785.045	21.96
785.223	13.13
785.4	26.11
785.578	30.22
785.756	28.73
785.934	11.71
786.112	4.72
786.289	3.37
786.467	9.4
786.645	7.8
786.823	-2.95
787	6.17
787.178	12.09
787.356	6.14
787.533	0.3
787.711	-8.1
787.889	5.97
788.066	9.56
788.244	5.25
788.421	7.39
788.599	18.06
788.776	17.38
788.954	16.65
789.131	28.64
789.309	29.22
789.486	35.62
789.664	40.39
789.841	36.78
790.019	40.03
790.196	49.72
790.373	49.16
790.551	49.47
790.728	43.05
790.906	37.8
791.083	15.81
791.26	10.16
791.437	17.17
791.615	21.11
791.792	21.69
791.969	15.85
792.146	11.57
792.324	13.03
792.501	6.52
792.678	8.3
792.855	18.73
793.032	39.63
793.209	58.21
793.387	46.21
793.564	41.35
793.741	45.75
793.918	47.95
794.095	41.25
794.272	37.41
794.449	36.84
794.626	43.22
794.803	38.5
794.98	33.88
795.157	27.72
795.334	33.72
795.511	35.97
795.688	30.32
795.864	28.35
796.041	29.47
796.218	29.47
796.395	28.73
796.572	20.29
796.749	20.45
796.925	19.29
797.102	21.51
797.279	18.98
797.456	7.39
797.632	15.94
797.809	13.38
797.986	11.84
798.162	6.22
798.339	6.89
798.516	19.31
798.692	20.66
798.869	23.91
799.046	20.69
799.222	23.46
799.399	27.05
799.575	18.21
799.752	20.68
799.928	20.97
800.105	25.5
800.281	32.04
800.458	13.74
800.634	11.22
800.811	4.19
800.987	-5.04
801.163	-19.48
801.34	-20.6
801.516	-32.71
801.692	-40.7
801.869	-30.47
802.045	-6.32
802.221	-1.12
802.398	19.18
802.574	29.89
802.75	28.81
802.926	35.13
803.103	39.54
803.279	39.5
803.455	53.06
803.631	50
803.807	44.76
803.983	46.5
804.16	33.44
804.336	40.87
804.512	27.25
804.688	26.48
804.864	45.04
805.04	32.78
805.216	29.3
805.392	1.88
805.568	-12.42
805.744	-35.59
805.92	-59.71
806.096	-63.37
806.272	-91.25
806.448	-112.73
806.623	-66.55
806.799	-58.32
806.975	-11.76
807.151	0.98
807.327	24.79
807.503	14.5
807.678	26.42
807.854	33.44
808.03	36.38
808.206	41.62
808.381	30.86
808.557	18.93
808.733	14.79
808.908	11.33
809.084	7.32
809.26	-7.25
809.435	3.58
809.611	-10.17
809.787	-15.05
809.962	-23.41
810.138	-23.49
810.313	-9.18
810.489	-18.49
810.664	-25.36
810.84	-21.14
811.015	-19.23
811.191	-27.9
811.366	-32.37
811.542	-25.68
811.717	-14.83
811.892	-10.99
812.068	-9.37
812.243	-24.43
812.419	2.24
812.594	14.99
812.769	-4.81
812.944	-4.36
813.12	33.33
813.295	59.89
813.47	85.2
813.645	98.22
813.821	107.67
813.996	117.32
814.171	102.61
814.346	70.68
814.521	56.7
814.697	59.96
814.872	73.26
815.047	44.86
815.222	36.4
815.397	9.73
815.572	-6
815.747	-2.63
815.922	-3.07
816.097	-0.95
816.272	21.63
816.447	32.66
816.622	29
816.797	18.9
816.972	22.74
817.147	38.26
817.322	46.82
817.496	51.36
817.671	38.43
817.846	46.05
818.021	26.07
818.196	12.22
818.371	8.61
818.545	10.68
818.72	16.44
818.895	14.33
819.069	7.92
819.244	1.36
819.419	-7.89
819.594	9.95
819.768	12.3
819.943	15.2
820.117	18.98
820.292	19.99
820.467	22.19
820.641	19.88
820.816	19.3
820.99	19.14
821.165	20.56
821.339	22.15
821.514	19.61
821.688	18.02
821.863	19.59
822.037	18.95
822.212	18.94
822.386	17.27
822.56	17.62
822.735	20.81
822.909	19.17
823.084	20.05
823.258	18.54
823.432	20
823.606	23.13
823.781	25.05
823.955	22.48
824.129	20.65
824.303	16.77
824.478	18.58
824.652	9.82
824.826	12.13
825	10.58
825.174	10.07
825.348	9.01
825.523	8.84
825.697	2.66
825.871	2.98
826.045	2.09
826.219	7.7
826.393	6.01
826.567	6.33
826.741	5.93
826.915	5.47
827.089	11.05
827.263	15.81
827.437	13.42
827.611	19.16
827.784	26.97
827.958	27.62
828.132	23.73
828.306	28.8
828.48	28.01
828.654	24.78
828.827	26.11
829.001	26.92
829.175	21.44
829.349	21.78
829.522	13
829.696	-8.36
829.87	-11.84
830.044	-21.7
830.217	-5.76
830.391	-1.15
830.565	6.64
830.738	15.51
830.912	9.33
831.085	12.93
831.259	7.64
831.432	8.68
831.606	23.39
831.779	26.16
831.953	25.44
832.126	18.16
832.3	20.01
832.473	21.93
832.647	13.92
832.82	9.54
832.994	7.07
833.167	20.36
833.34	27.31
833.514	17.62
833.687	13.51
833.86	18.01
834.034	22.38
834.207	10.13
834.38	9.41
834.553	17.24
834.727	23.43
834.9	20.77
835.073	16.76
835.246	7.21
835.419	14.08
835.593	25.29
835.766	31.45
835.939	22.82
836.112	45
836.285	45.58
836.458	51.38
836.631	38.8
836.804	36.03
836.977	40.21
837.15	36.04
837.323	33.9
837.496	19.48
837.669	10.4
837.842	3.26
838.015	9.09
838.188	10.19
838.361	0.4
838.533	9.26
838.706	7.78
838.879	-15.25
839.052	-23.98
839.225	-12.05
839.398	-21.33
839.57	-24.76
839.743	-20.99
839.916	-37.59
840.088	-67.7
840.261	-38.45
840.434	-43.72
840.607	-35.26
840.779	-32.02
840.952	-20.72
841.124	-36.59
841.297	-33.13
841.47	-38.08
841.642	-40.47
841.815	-12.02
841.987	39.18
842.16	69.72
842.332	135.26
842.505	148.83
842.677	252.94
842.85	-3800
843.022	-631.25
843.194	-31.82
843.367	116.13
843.539	52.94
843.712	118.42
843.884	277.78
844.056	729.09
844.229	-65.69
844.401	-166.09
844.573	-319.28
844.745	-72.22
844.918	-41.78
845.09	-48.76
845.262	-25.57
845.434	11.97
845.606	-16.5
845.779	14.76
845.951	-14.76
846.123	-16.3
846.295	70.77
846.467	109.21
846.639	103.78
846.811	95.14
846.983	145
847.155	-53.03
847.327	57.76
847.499	573.33
847.671	62.67
847.843	-863.64
848.015	-96.94
848.187	-48.55
848.359	45.71
848.531	95.33
848.703	76.64
848.875	113.07
849.047	88.83
849.218	66.47
849.39	67.77
849.562	68.53
849.734	90.13
849.905	99.27
850.077	104.52
850.249	-34
850.421	109.68
850.592	61.85
850.764	65.37
850.936	48.17
851.107	73.57
851.279	82.35
851.451	16.36
851.622	8.38
851.794	32.65
851.965	33.01
852.137	1.39
852.308	-43.15
852.48	-22.04
852.651	-9.23
852.823	4.96
852.994	-15.49
853.166	-35.97
853.337	5.59
853.509	0
853.68	-352.83
853.851	981.08
854.023	144.71
854.194	-79.87
854.365	-59.64
854.537	4.77
854.708	1.52
854.879	47.95
855.05	-53.13
855.222	-1807.69
855.393	-376.42
855.564	-340.78
855.735	-2013.04
855.906	-240.3
856.078	295.03
856.249	386.17
856.42	499.22
856.591	1417.07
856.762	846.75
856.933	377.05
857.104	193.58
857.275	197.54
857.446	78.77
857.617	82.81
857.788	53.82
857.959	113.93
858.13	164.35
858.301	334.38
858.472	-2.63
858.643	9.88
858.814	8.08
858.985	33.76
859.155	9
859.326	-39.67
859.497	-4.43
859.668	-33.18
859.839	-259.85
860.009	-439.8
860.18	-322.12
860.351	716.67
860.522	3408.33
860.692	637.14
860.863	-19600
861.034	-682.05
861.204	-1672.73
861.375	-442.27
861.546	408.73
861.716	3375
861.887	1139.58
862.057	-12850
862.228	3183.33
862.398	7037.5
862.569	-551.9
862.739	-196.8
862.91	-784.85
863.08	-48.56
863.251	845.71
863.421	179
863.592	-67.74
863.762	16
863.932	45.63
864.103	114.89
864.273	148.72
864.443	88.61
864.614	11.11
864.784	-1.33
864.954	-1625
865.125	-96.75
865.295	-71.6
865.465	-988.89
865.635	-363.64
865.805	-2500
865.976	-2232.14
866.146	-202.89
866.316	-220.11
866.486	-295.24
866.656	-155.05
866.826	-34.42
866.996	-41.86
867.166	-28.62
867.336	-5
867.506	-41.1
867.676	-68.61
867.846	-10
868.016	-507.32
868.186	-151.5
868.356	-1135
868.526	-600
868.696	2916.67
868.866	-87.93
869.036	-68.51
869.206	-146.58
869.376	-117.67
869.545	-112.43
869.715	-375.68
869.885	-171.3
870.055	392.86
870.224	5450
870.394	-15.04
870.564	-62.96
870.734	27.81
870.903	47.06
871.073	52.81
871.243	63.38
871.412	-1.59
871.582	19.53
871.751	44.9
871.921	55.61
872.091	-15.44
872.26	5.23
872.43	-29.28
872.599	5.12
872.769	5.47
872.938	3.57
873.108	23.54
873.277	-8.07
873.446	6.44
873.616	16.2
873.785	-19.9
873.955	-20.35
874.124	-14.92
874.293	18.6
874.463	16.34
874.632	32.12
874.801	32.81
874.971	26.81
875.14	21.36
875.309	17.79
875.478	16.78
875.647	12.88
875.817	26.82
875.986	43.18
876.155	46.8
876.324	-11.64
876.493	-6.09
876.662	19.57
876.831	-21.96
877	-44.18
877.17	-28.39
877.339	-15.87
877.508	-18.2
877.677	5.39
877.846	-7.89
878.015	-29.23
878.184	-30.53
878.352	-503.3
878.521	-473.08
878.69	-486.75
878.859	-102.57
879.028	-451.76
879.197	-165.03
879.366	-75.84
879.534	-82.56
879.703	-76.21
879.872	-42.11
880.041	-25.35
880.21	-1.64
880.378	-6.7
880.547	1.72
880.716	3.3
880.884	3.95
881.053	-4.37
881.222	-5.46
881.39	-0.64
881.559	-1.02
881.727	-1.51
881.896	-2.55
882.065	0.79
882.233	5.61
882.402	-1.88
882.57	2.43
882.739	10.4
882.907	9.76
883.076	9.03
883.244	12.5
883.412	21.9
883.581	15.69
883.749	26.47
883.918	18.83
884.086	10.44
884.254	20.28
884.423	9.86
884.591	5.48
884.759	2.61
884.927	1.4
885.096	-7.49
885.264	-33.4
885.432	-30.45
885.6	-89.26
885.769	-45.54
885.937	-40.47
886.105	7.73
886.273	15.94
886.441	36.27
886.609	48.36
886.777	73.1
886.945	49.24
887.113	151.02
887.281	210.34
887.449	-2814.29
887.617	1776.92
887.785	438.46
887.953	-637.14
888.121	-118.47
888.289	-93.24
888.457	-463.93
888.625	-58.06
888.793	19.59
888.961	64.86
889.129	72.66
889.296	188.78
889.464	90.21
889.632	110.28
889.8	158.79
889.967	269.31
890.135	517.65
