Data from JASIL_3139_Reflection_1.txt Node
Date: Thu Nov 12 20:53:07 EST 2015
User: Geneva
Spectrometer: USB4E03002
Autoset integration time: false
Trigger mode: 4
Integration Time (sec): 1.000000E-1
Scans to average: 10
Electric dark correction enabled: true
Nonlinearity correction enabled: false
Boxcar width: 5
Stray light correction enabled: false
XAxis mode: Wavelengths
Stop averaging: false
Number of Pixels in Spectrum: 3648
>>>>>Begin Spectral Data<<<<<
177.575	241.67
177.794	249.18
178.014	425.58
178.233	35.61
178.452	39.13
178.672	133.33
178.891	200
179.11	38.83
179.33	31.05
179.549	-104.76
179.768	-776.67
179.987	208.44
180.207	-10850
180.426	242.28
180.645	339.02
180.864	271.07
181.084	166.02
181.303	232.38
181.522	252.28
181.741	252.42
181.96	228.37
182.179	256.07
182.398	330.13
182.618	208.02
182.837	311.11
183.056	611.72
183.275	-1592.5
183.494	1170.97
183.713	458.91
183.932	568.29
184.151	630.43
184.37	433.76
184.589	388.93
184.808	794.49
185.027	911.46
185.246	594.96
185.465	-818.57
185.684	560.29
185.903	-393.37
186.122	-252.12
186.341	-392.05
186.56	-254.88
186.779	-124.49
186.998	-56.91
187.216	-81.61
187.435	-93.64
187.654	-131.02
187.873	-29700
188.092	-407.48
188.311	400
188.53	-154.55
188.748	52.46
188.967	61.94
189.186	113.39
189.405	-80.25
189.623	-36.17
189.842	139.37
190.061	94.64
190.28	83.49
190.498	73.78
190.717	17.99
190.936	6.32
191.154	12.13
191.373	-51.79
191.592	-123.53
191.81	-75.94
192.029	-223.53
192.248	-517.36
192.466	1684.21
192.685	14800
192.904	2872.22
193.122	272.77
193.341	241.3
193.559	187.89
193.778	176.4
193.996	189.55
194.215	242.21
194.433	233.22
194.652	272.5
194.87	290.84
195.089	380.23
195.307	261.77
195.526	421.18
195.744	731.13
195.963	-4094.12
196.181	973.42
196.399	645.76
196.618	424.44
196.836	357.29
197.055	193.63
197.273	143.01
197.491	98.1
197.71	92.79
197.928	68.2
198.146	68.87
198.365	57.67
198.583	53.89
198.801	67.97
199.019	55.13
199.238	47.33
199.456	59.74
199.674	69.11
199.892	92.15
200.111	104.3
200.329	125.82
200.547	147.36
200.765	215.63
200.983	162.98
201.202	158.22
201.42	163.1
201.638	167.57
201.856	140.43
202.074	255
202.292	1723.53
202.51	-49.45
202.728	-2.03
202.946	33.71
203.165	50.27
203.383	45.01
203.601	71.02
203.819	76.64
204.037	43.6
204.255	5.99
204.473	-39.87
204.691	-224.14
204.909	188.89
205.127	111.79
205.345	123.63
205.562	184.86
205.78	984.62
205.998	-1437.5
206.216	709.52
206.434	-241.03
206.652	13.1
206.87	33.58
207.088	26.42
207.306	34.96
207.523	30.61
207.741	419.05
207.959	-111.63
208.177	22000
208.395	209.66
208.612	171.14
208.83	177.24
209.048	132.76
209.266	181.62
209.483	155.81
209.701	165.75
209.919	181.56
210.136	189.14
210.354	217.21
210.572	193.16
210.79	255.95
211.007	223.5
211.225	205.28
211.442	391.33
211.66	935.94
211.878	-1580
212.095	-170.05
212.313	-93.59
212.53	-78.72
212.748	-131.09
212.966	-142.22
213.183	-55.44
213.401	-38.14
213.618	-25.36
213.836	-15.99
214.053	14.35
214.271	-3.81
214.488	-78.4
214.705	-157.58
214.923	-2783.33
215.14	284.3
215.358	82.58
215.575	94.8
215.793	137.45
216.01	190.91
216.227	545.57
216.445	399.48
216.662	256.49
216.879	321.66
217.097	-786.96
217.314	-2533.33
217.531	-544.94
217.749	-172.78
217.966	-86.67
218.183	-139.91
218.4	-2020.83
218.618	255.81
218.835	131.94
219.052	100.24
219.269	77.67
219.487	56.77
219.704	46.78
219.921	65.21
220.138	43.8
220.355	60.35
220.572	59.42
220.79	48.99
221.007	70.09
221.224	71.12
221.441	93.21
221.658	115.8
221.875	108.16
222.092	114.76
222.309	109.56
222.526	120.51
222.743	107.47
222.96	91.36
223.177	102.19
223.394	83.06
223.611	100.47
223.828	8200
224.045	104.31
224.262	-896.15
224.479	395.19
224.696	2969.23
224.913	-309.52
225.13	-322.82
225.347	-254.69
225.564	-596.4
225.781	-747.62
225.997	-440.43
226.214	-313.07
226.431	-107.48
226.648	-127.82
226.865	-100.4
227.082	-102.78
227.298	-102.58
227.515	-90.27
227.732	-79.17
227.949	-38.68
228.165	-30.99
228.382	-40.54
228.599	-38.39
228.816	-30.03
229.032	-33.49
229.249	-30.2
229.466	-26.43
229.682	-26.54
229.899	-38.72
230.116	-31.18
230.332	-35.28
230.549	-41.98
230.765	-28.69
230.982	-33
231.199	-56.46
231.415	-54.95
231.632	-23.27
231.848	-18.39
232.065	-18.01
232.281	-9.59
232.498	-34.97
232.714	-61.25
232.931	-46.59
233.147	-44.96
233.364	-46.54
233.58	-43.85
233.797	-38.68
234.013	-27.63
234.23	-41.64
234.446	-48.99
234.662	-38.39
234.879	-26.81
235.095	-25.06
235.312	-26.91
235.528	-50.29
235.744	-38.23
235.961	-18.9
236.177	-31.32
236.393	-116.47
236.61	-96.19
236.826	-119.25
237.042	-99.08
237.258	-112.02
237.475	-100
237.691	-120.27
237.907	-80.96
238.123	-105.76
238.339	-100.54
238.556	-86.36
238.772	-56.74
238.988	-55.25
239.204	-39.7
239.42	-38.2
239.636	-49.07
239.853	-27.82
240.069	-19.96
240.285	-10.27
240.501	-16.98
240.717	-25.8
240.933	-19.13
241.149	-15.01
241.365	-10.68
241.581	-11.99
241.797	-1.56
242.013	-0.47
242.229	-5.74
242.445	-4.71
242.661	-10.93
242.877	0
243.093	5.22
243.309	5.4
243.525	8.89
243.741	6.02
243.957	5.41
244.173	-4.11
244.388	-2.62
244.604	0.8
244.82	1.11
245.036	0.33
245.252	-7.24
245.468	-11.08
245.683	-16.07
245.899	-19.31
246.115	-16.88
246.331	-14.45
246.547	-12.79
246.762	-13.22
246.978	-17.29
247.194	-20.83
247.409	-19.79
247.625	-15.74
247.841	-14.14
248.057	-9.73
248.272	-10.84
248.488	-11.98
248.703	-16.04
248.919	-21.89
249.135	-25.26
249.35	-21.51
249.566	-20.06
249.782	-23.44
249.997	-28.81
250.213	-23.28
250.428	-28.43
250.644	-24.64
250.859	-15.77
251.075	-4.85
251.29	-7.06
251.506	-4.04
251.721	-5.74
251.937	-5.52
252.152	-4.85
252.368	1.64
252.583	2.35
252.798	5.48
253.014	3.68
253.229	-4.7
253.445	-8.62
253.66	0.13
253.875	2.85
254.091	7.51
254.306	6.07
254.521	12.32
254.737	-1.21
254.952	-9.16
255.167	-12.43
255.383	-13.24
255.598	-11.21
255.813	-17.08
256.028	-25.17
256.244	-31.37
256.459	-31.21
256.674	-32.44
256.889	-36.65
257.104	-35.06
257.32	-29.39
257.535	-20.83
257.75	-12.4
257.965	-8.05
258.18	-3.41
258.395	-0.35
258.61	2.02
258.826	2.36
259.041	4.71
259.256	4.83
259.471	7.48
259.686	5.4
259.901	3.56
260.116	1.82
260.331	3.39
260.546	-1.25
260.761	-2.96
260.976	-5.55
261.191	-6.76
261.406	-12.82
261.621	-9.56
261.836	-10.39
262.05	-9.63
262.265	-6.92
262.48	-6.6
262.695	-13.82
262.91	-5.72
263.125	-5.46
263.34	-2.81
263.555	4.52
263.769	7.38
263.984	5.18
264.199	0.59
264.414	2.01
264.629	0.52
264.843	-1.4
265.058	-0.05
265.273	-3.42
265.488	-1.24
265.702	-0.05
265.917	-7.26
266.132	-7.55
266.346	-8.76
266.561	-9.56
266.776	-11.41
266.99	-8.54
267.205	-10.19
267.42	-13.73
267.634	-12.13
267.849	-12.64
268.063	-13.7
268.278	-13.09
268.492	-12.42
268.707	-12.32
268.922	-6.05
269.136	-2.32
269.351	-7.67
269.565	-7.67
269.78	-7.53
269.994	-10
270.209	-9.94
270.423	-12.91
270.637	-10.24
270.852	-14.96
271.066	-15.67
271.281	-12.3
271.495	-14.47
271.709	-12.5
271.924	-8.9
272.138	-6.89
272.353	-5.83
272.567	-7.72
272.781	-6.69
272.996	-6.62
273.21	-1.79
273.424	-0.79
273.638	-1.81
273.853	-0.88
274.067	-4.95
274.281	-6.68
274.495	-6.37
274.71	-6.52
274.924	-5.47
275.138	-3.92
275.352	-6.37
275.566	-7.99
275.781	-11.29
275.995	-15.57
276.209	-14.75
276.423	-7.54
276.637	-8.17
276.851	-10.65
277.065	-8.23
277.279	-4.62
277.493	0.79
277.707	2.22
277.921	0.49
278.135	0.21
278.349	-3.98
278.563	-5.49
278.777	-6.14
278.991	-7.58
279.205	-11.98
279.419	-11.42
279.633	-13.47
279.847	-19.91
280.061	-19.38
280.275	-18.68
280.489	-14.82
280.703	-9.97
280.917	-9.71
281.131	-8.03
281.344	-7.06
281.558	-5.08
281.772	-10.94
281.986	-11.72
282.2	-11.25
282.414	-12.94
282.627	-10.34
282.841	-10.11
283.055	-11.44
283.269	-12.34
283.482	-16.26
283.696	-14.11
283.91	-13.55
284.123	-12.15
284.337	-11.14
284.551	-12.16
284.764	-9.53
284.978	-10.01
285.192	-12.12
285.405	-12.84
285.619	-12.44
285.833	-11.14
286.046	-13.1
286.26	-9.09
286.473	-6.81
286.687	-8.6
286.9	-6.52
287.114	-6.16
287.327	-4.95
287.541	-5.67
287.754	-4.42
287.968	-2.79
288.181	-3.33
288.395	-0.69
288.608	-2.76
288.822	-2.66
289.035	-0.53
289.248	-1.31
289.462	-0.71
289.675	-4.03
289.889	-0.78
290.102	-0.92
290.315	0.97
290.529	2.55
290.742	0.68
290.955	-0.87
291.169	-2.39
291.382	-2.3
291.595	-5.26
291.808	-6.71
292.022	-1.97
292.235	-0.87
292.448	-1.67
292.661	-4.18
292.875	-7.74
293.088	-9.16
293.301	-10
293.514	-9.1
293.727	-7.89
293.94	-2.76
294.153	-2.93
294.367	-4.63
294.58	-5.54
294.793	-3.38
295.006	-2.82
295.219	-1.09
295.432	-0.57
295.645	1.01
295.858	2.29
296.071	0.99
296.284	-2.25
296.497	-3.04
296.71	-3.83
296.923	-3.55
297.136	-5.23
297.349	-6.79
297.562	-7.61
297.775	-8.08
297.988	-7.98
298.201	-10.43
298.414	-9.62
298.626	-7.61
298.839	-6.21
299.052	-5.49
299.265	-4.86
299.478	-6.34
299.691	-5.22
299.903	-5.3
300.116	-3.98
300.329	-3.66
300.542	-1.18
300.755	-4.28
300.967	-5.83
301.18	-6.57
301.393	-9.01
301.605	-12.1
301.818	-11.42
302.031	-12.82
302.243	-11.69
302.456	-14.94
302.669	-14.55
302.881	-12.69
303.094	-8.12
303.307	-6.36
303.519	-4.75
303.732	-3.74
303.944	-3.22
304.157	0.18
304.37	1.69
304.582	3.72
304.795	6.28
305.007	6.93
305.22	4.17
305.432	2.1
305.645	1.55
305.857	-2.19
306.069	-2.34
306.282	-2.78
306.494	-6.22
306.707	-6.14
306.919	-8.32
307.132	-8.54
307.344	-12.14
307.556	-12.69
307.769	-13.51
307.981	-12.56
308.193	-12.96
308.406	-10.47
308.618	-9.33
308.83	-7.28
309.043	-5.79
309.255	-4.12
309.467	-3.08
309.679	-0.27
309.892	-3.93
310.104	-2.09
310.316	-2.01
310.528	-0.64
310.74	-1.93
310.953	-0.64
311.165	-1.34
311.377	-3.68
311.589	-4.5
311.801	-4.66
312.013	-3.61
312.225	-0.82
312.437	-2.05
312.649	-2.04
312.862	-0.83
313.074	-0.28
313.286	-2.28
313.498	-1.73
313.71	0.53
313.922	2.13
314.134	2.51
314.346	0.13
314.558	0.71
314.77	0.81
314.982	0.97
315.193	1.07
315.405	-0.16
315.617	0.75
315.829	1.63
316.041	-1.11
316.253	-4
316.465	-6.88
316.677	-7.54
316.888	-7.05
317.1	-5.9
317.312	-6.32
317.524	-5.89
317.736	-3.21
317.947	-0.43
318.159	-2.41
318.371	-1.12
318.583	1.03
318.794	1.05
319.006	1.01
319.218	1.2
319.43	1.29
319.641	2.95
319.853	0.77
320.064	-1.28
320.276	-4.28
320.488	-3.44
320.699	-4
320.911	-4
321.123	-1.39
321.334	-2.29
321.546	-1.79
321.757	-3.86
321.969	-6.54
322.18	-3.77
322.392	-3.49
322.603	-1.03
322.815	-0.86
323.026	0.09
323.238	-1.46
323.449	-0.91
323.661	2.24
323.872	2.47
324.083	3.77
324.295	6.04
324.506	4.3
324.718	7.04
324.929	3.65
325.14	3.32
325.352	6.69
325.563	5.3
325.774	6.46
325.986	7.6
326.197	6.31
326.408	5.86
326.62	3.43
326.831	2.94
327.042	2.93
327.253	4.75
327.464	5.02
327.676	1.33
327.887	1.92
328.098	1.27
328.309	-1.02
328.52	1.35
328.732	0.03
328.943	-0.16
329.154	-0.32
329.365	-2.19
329.576	-4.16
329.787	-5.6
329.998	-4.81
330.209	-4.3
330.42	-6.55
330.631	-5.36
330.842	-4.89
331.053	-3.06
331.264	-1.3
331.475	-1.22
331.686	-1.71
331.897	-1.68
332.108	-1.01
332.319	-3.3
332.53	-1.69
332.741	0.91
332.952	0.32
333.163	0.29
333.374	0.48
333.585	1.79
333.795	2.39
334.006	3.42
334.217	2.31
334.428	2.54
334.639	2.71
334.849	3.33
335.06	-0.33
335.271	-0.36
335.482	-3
335.692	-4.12
335.903	-1.78
336.114	-2.21
336.325	-6.06
336.535	-3.43
336.746	-3.44
336.957	-2.44
337.167	-4.91
337.378	-1.55
337.589	-4.03
337.799	-1.8
338.01	-0.31
338.22	-3
338.431	-2.02
338.642	0.81
338.852	-1.45
339.063	0.13
339.273	-0.64
339.484	2.34
339.694	-0.47
339.905	1.46
340.115	0.2
340.326	-2.41
340.536	-0.71
340.746	-0.04
340.957	-0.39
341.167	2.66
341.378	2.13
341.588	2.37
341.799	1.12
342.009	1.38
342.219	1.61
342.43	-0.64
342.64	2.15
342.85	-0.22
343.061	-1.35
343.271	-2.04
343.481	-5.14
343.691	-4.22
343.902	-3.74
344.112	-5.5
344.322	-4.68
344.532	-4.42
344.743	-2.03
344.953	-3.79
345.163	-3.29
345.373	-3.62
345.583	-0.69
345.793	1.96
346.004	2.09
346.214	1.81
346.424	3.55
346.634	3.3
346.844	4.01
347.054	4.44
347.264	4.77
347.474	4.07
347.684	4.31
347.894	3.62
348.104	0.96
348.314	-0.19
348.524	0.04
348.734	-0.67
348.944	0.7
349.154	0.94
349.364	1.15
349.574	0.85
349.784	0.88
349.994	4.3
350.204	2.96
350.413	3.48
350.623	5.4
350.833	7.18
351.043	7.03
351.253	6.34
351.463	5.85
351.672	5.45
351.882	6.08
352.092	7.11
352.302	4.15
352.511	5.91
352.721	9.38
352.931	6.64
353.141	5.01
353.35	5.94
353.56	5.79
353.77	6.72
353.979	6.8
354.189	6.51
354.399	5.55
354.608	4.83
354.818	4.27
355.027	0.94
355.237	0.5
355.447	0.54
355.656	0.47
355.866	0.92
356.075	1.22
356.285	1.75
356.494	3.13
356.704	4.81
356.913	5.66
357.123	4.27
357.332	5.1
357.542	7.16
357.751	7.65
357.96	7.24
358.17	6.29
358.379	3.38
358.589	3.13
358.798	2.07
359.007	1.8
359.217	2.32
359.426	3.35
359.635	3.42
359.845	3.05
360.054	3.43
360.263	3.27
360.472	3.79
360.682	4.77
360.891	2.99
361.1	2.89
361.309	2.53
361.519	1.62
361.728	1.49
361.937	1.26
362.146	0.84
362.355	-0.05
362.564	0.47
362.774	0.22
362.983	0.23
363.192	0.43
363.401	1.87
363.61	-0.2
363.819	1.89
364.028	2.5
364.237	2.96
364.446	1.94
364.655	1.87
364.864	1.48
365.073	1.11
365.282	1.58
365.491	2.48
365.7	1
365.909	2.87
366.118	0.62
366.327	-0.86
366.536	-0.49
366.745	0.12
366.954	1.92
367.162	1.62
367.371	3.37
367.58	3.26
367.789	2.09
367.998	1.85
368.207	2.17
368.415	3.17
368.624	4.24
368.833	3.43
369.042	4.49
369.25	3.5
369.459	2.94
369.668	3.26
369.877	2.27
370.085	3.08
370.294	3.6
370.503	3.16
370.711	3.15
370.92	2.48
371.129	3.54
371.337	3.12
371.546	2.98
371.754	3.19
371.963	2.98
372.171	4.27
372.38	3.81
372.589	3.91
372.797	4.52
373.006	3.53
373.214	3.54
373.423	2.22
373.631	2.47
373.84	0.9
374.048	0.7
374.256	-1.58
374.465	-0.64
374.673	1.07
374.882	0.99
375.09	0.95
375.298	1.58
375.507	1.54
375.715	3.15
375.923	1.36
376.132	2.79
376.34	3.3
376.548	4.4
376.757	2.52
376.965	1.86
377.173	1.86
377.381	0.56
377.59	-0.15
377.798	0.5
378.006	-0.56
378.214	2.23
378.423	1.44
378.631	2.16
378.839	3.34
379.047	4.35
379.255	3.68
379.463	3.3
379.671	4.58
379.879	4.57
380.088	3.44
380.296	2.76
380.504	-0.08
380.712	0.29
380.92	0.45
381.128	-0.07
381.336	0.2
381.544	1.09
381.752	1.24
381.96	1
382.168	1.7
382.376	2.51
382.584	2.23
382.791	3.03
382.999	3.97
383.207	4.53
383.415	4.38
383.623	2.83
383.831	2.08
384.039	2.13
384.247	0.5
384.454	-0.47
384.662	-0.09
384.87	1.17
385.078	0.99
385.285	-1.34
385.493	-2.95
385.701	-3.52
385.909	-2.38
386.116	-1.29
386.324	-1.87
386.532	-0.54
386.739	-0.24
386.947	-1.28
387.155	-1.74
387.362	-0.66
387.57	0.61
387.778	2.08
387.985	0.82
388.193	1.29
388.4	-0.12
388.608	-0.16
388.816	0.27
389.023	-0.39
389.231	0.12
389.438	-0.41
389.646	0.25
389.853	0.9
390.061	0.01
390.268	1.21
390.475	1.05
390.683	2.96
390.89	4.15
391.098	4.8
391.305	5.55
391.512	5.03
391.72	4.92
391.927	4.64
392.135	3.7
392.342	2.88
392.549	3.91
392.756	3.92
392.964	3.66
393.171	3.11
393.378	2.25
393.586	2.9
393.793	3.47
394	3.28
394.207	3.29
394.414	3.34
394.622	4.02
394.829	2.51
395.036	0.98
395.243	0
395.45	-0.57
395.657	-0.97
395.864	-1.61
396.072	-2.38
396.279	-1.5
396.486	-2.02
396.693	-0.75
396.9	-1.68
397.107	-1.17
397.314	-0.17
397.521	-0.95
397.728	-0.21
397.935	-1.52
398.142	-1.52
398.349	0.65
398.556	-0.06
398.763	-0.15
398.97	-0.62
399.177	1.07
399.383	1.36
399.59	0.62
399.797	1.51
400.004	1.23
400.211	2.82
400.418	3.05
400.625	1.55
400.831	2.72
401.038	3.99
401.245	4.02
401.452	3.16
401.658	3.11
401.865	4.93
402.072	5.54
402.279	6.2
402.485	6.13
402.692	6.06
402.899	5.79
403.105	4.8
403.312	3.51
403.519	3.21
403.725	2.1
403.932	1.49
404.138	0.78
404.345	-0.16
404.552	-0.7
404.758	0.57
404.965	-0.07
405.171	-0.11
405.378	-0.47
405.584	-0.33
405.791	-0.18
405.997	0.98
406.204	1.93
406.41	1.68
406.617	2.63
406.823	1.61
407.029	-0.27
407.236	0.12
407.442	0.54
407.649	1.73
407.855	1.26
408.061	0.76
408.268	0.39
408.474	-0.62
408.68	0.58
408.887	-1.02
409.093	0.5
409.299	0.9
409.505	1.22
409.712	1.42
409.918	0.59
410.124	0.56
410.33	0.56
410.537	0.65
410.743	1.42
410.949	-0.11
411.155	0.66
411.361	-1.05
411.567	-0.31
411.773	-0.37
411.98	-1.12
412.186	-0.49
412.392	0.39
412.598	2.54
412.804	3.07
413.01	2.61
413.216	3.25
413.422	4.1
413.628	4.14
413.834	3.58
414.04	4.26
414.246	4.38
414.452	4.02
414.658	2.97
414.864	1.17
415.07	1.47
415.275	1.61
415.481	1.67
415.687	1.48
415.893	1.83
416.099	1.23
416.305	0.57
416.511	1.39
416.716	1.95
416.922	2.76
417.128	3
417.334	2.63
417.539	2.39
417.745	2.43
417.951	2.31
418.157	3
418.362	3.31
418.568	3.7
418.774	3.28
418.979	2.89
419.185	3.15
419.391	3.58
419.596	3.93
419.802	3.97
420.008	3.97
420.213	8.78
420.419	8.49
420.624	8.62
420.83	8.1
421.035	8.28
421.241	8.3
421.446	8.12
421.652	7.76
421.857	7.32
422.063	7.42
422.268	7.81
422.474	3.31
422.679	3.35
422.885	2.89
423.09	2.84
423.295	2.55
423.501	2.62
423.706	2.71
423.911	2.67
424.117	3.29
424.322	3.29
424.527	3.15
424.733	3.15
424.938	3.5
425.143	3.75
425.349	3.96
425.554	4.27
425.759	3.74
425.964	3.62
426.169	3.7
426.375	2.9
426.58	2.55
426.785	2.39
426.99	2.23
427.195	1.98
427.4	2.1
427.605	2.49
427.811	2.48
428.016	2.57
428.221	2.55
428.426	2.61
428.631	2.9
428.836	3.36
429.041	3.2
429.246	3.01
429.451	3.03
429.656	3.44
429.861	3.09
430.066	2.78
430.271	2.8
430.476	2.36
430.681	2.37
430.886	2.29
431.09	2.08
431.295	2.23
431.5	2.65
431.705	2.66
431.91	2.16
432.115	2.4
432.32	2.43
432.524	2.34
432.729	2.05
432.934	2.07
433.139	2.7
433.343	2.93
433.548	2.37
433.753	1.46
433.958	1.32
434.162	1.64
434.367	1.37
434.572	1.43
434.776	2.06
434.981	2.04
435.186	1.9
435.39	1
435.595	0.79
435.799	0.91
436.004	1.43
436.209	1.21
436.413	0.68
436.618	0.6
436.822	0.46
437.027	0.96
437.231	1.14
437.436	1.45
437.64	2.19
437.845	2.19
438.049	2.11
438.253	2.36
438.458	2.69
438.662	2.74
438.867	2.98
439.071	3.39
439.275	2.72
439.48	2.96
439.684	2.67
439.888	2.25
440.093	2.12
440.297	2.73
440.501	2.58
440.706	2.08
440.91	2.43
441.114	2.1
441.318	1.99
441.523	2.43
441.727	2.53
441.931	2.05
442.135	2.14
442.339	2.01
442.543	1.8
442.748	1.85
442.952	1.75
443.156	1.68
443.36	1.88
443.564	1.7
443.768	1.17
443.972	1.06
444.176	2.13
444.38	2.17
444.584	2.46
444.788	2.29
444.992	2.28
445.196	3.01
445.4	3.01
445.604	3.17
445.808	2.86
446.012	2.99
446.216	3.03
446.42	2.65
446.624	3.17
446.828	3.18
447.032	2.95
447.235	2.84
447.439	2.27
447.643	2.22
447.847	1.98
448.051	1.6
448.254	1.6
448.458	1.39
448.662	1.85
448.866	1.07
449.069	1.62
449.273	1.59
449.477	1.22
449.681	0.86
449.884	1.04
450.088	1.22
450.292	1.37
450.495	1.18
450.699	1.01
450.902	1.24
451.106	1.12
451.31	0.22
451.513	0.31
451.717	0.68
451.92	1.19
452.124	1.04
452.327	1.5
452.531	2.1
452.734	2.41
452.938	2.55
453.141	1.98
453.345	1.99
453.548	2.18
453.752	2.67
453.955	2.94
454.158	3.06
454.362	2.3
454.565	1.93
454.769	1.77
454.972	1.72
455.175	1.28
455.379	0.65
455.582	1.34
455.785	1.3
455.988	0.46
456.192	0.45
456.395	0.02
456.598	0.57
456.801	0.48
457.005	0.35
457.208	0.66
457.411	0.68
457.614	1.12
457.817	0.37
458.021	0.85
458.224	1.07
458.427	1.01
458.63	1.7
458.833	2.11
459.036	1.77
459.239	2.26
459.442	1.91
459.645	2.37
459.848	2.5
460.051	2.87
460.254	2.47
460.457	2.76
460.66	2.53
460.863	2.43
461.066	2.44
461.269	2.67
461.472	2.62
461.675	3.13
461.878	3.22
462.081	2.72
462.284	2.65
462.486	2.66
462.689	2.42
462.892	2.66
463.095	2.18
463.298	2.21
463.5	2.6
463.703	2.57
463.906	2.1
464.109	1.64
464.311	1.91
464.514	1.76
464.717	1.88
464.92	2.18
465.122	2.31
465.325	3.08
465.528	2.04
465.73	2.28
465.933	1.65
466.135	1.36
466.338	1.72
466.541	1.81
466.743	1.29
466.946	1.45
467.148	1.64
467.351	1.84
467.553	1.4
467.756	2.08
467.958	1.08
468.161	1.54
468.363	2.08
468.566	1.79
468.768	1.77
468.971	2.31
469.173	2.1
469.375	2.14
469.578	1.78
469.78	1.36
469.983	1.35
470.185	2.32
470.387	2.33
470.59	2.2
470.792	2.86
470.994	2.35
471.196	2.38
471.399	2.42
471.601	1.91
471.803	2.37
472.005	2.62
472.208	2.44
472.41	1.97
472.612	1.66
472.814	1.93
473.016	1.3
473.218	1.78
473.421	2.09
473.623	1.89
473.825	1.76
474.027	1.62
474.229	1.67
474.431	1.32
474.633	1.62
474.835	1.87
475.037	1.58
475.239	2.03
475.441	2.17
475.643	2.12
475.845	2.19
476.047	2.27
476.249	2.14
476.451	2.02
476.653	2.45
476.855	2.12
477.057	2.51
477.258	2.71
477.46	2.75
477.662	2.65
477.864	2.23
478.066	2.08
478.268	2.5
478.469	2.52
478.671	2.9
478.873	3.11
479.075	3.21
479.276	3.17
479.478	3.32
479.68	2.48
479.882	2.54
480.083	2.96
480.285	3.2
480.487	3.47
480.688	3.54
480.89	3.28
481.091	3.16
481.293	3.28
481.495	3.48
481.696	3.44
481.898	3.77
482.099	3.93
482.301	3.88
482.502	4.07
482.704	3.77
482.905	3.79
483.107	3.79
483.308	3.73
483.51	3.82
483.711	3.57
483.913	3.5
484.114	3.51
484.315	3.34
484.517	3.33
484.718	3.3
484.92	3.47
485.121	3.38
485.322	3.46
485.524	3.58
485.725	3.67
485.926	3.78
486.127	3.8
486.329	3.71
486.53	3.79
486.731	3.63
486.932	3.3
487.134	3.37
487.335	3.29
487.536	3.34
487.737	3.26
487.938	2.85
488.139	2.75
488.341	2.73
488.542	2.93
488.743	2.78
488.944	2.84
489.145	3.18
489.346	2.65
489.547	2.95
489.748	2.81
489.949	2.68
490.15	3.15
490.351	3.26
490.552	3.34
490.753	3.07
490.954	3.03
491.155	3.22
491.356	2.79
491.557	3.14
491.758	2.73
491.959	2.44
492.159	2.71
492.36	2.43
492.561	2.27
492.762	2.29
492.963	2.33
493.164	2.39
493.364	2.04
493.565	2.21
493.766	2.18
493.967	2.6
494.167	3.07
494.368	2.84
494.569	2.85
494.769	2.85
494.97	2.85
495.171	2.89
495.371	3.08
495.572	3.07
495.773	3.38
495.973	3.22
496.174	3.13
496.375	3.05
496.575	3
496.776	2.8
496.976	2.58
497.177	2.17
497.377	1.82
497.578	1.62
497.778	1.68
497.979	1.91
498.179	1.53
498.38	1.79
498.58	0.97
498.78	1.48
498.981	1.79
499.181	2.01
499.382	1.96
499.582	2.32
499.782	2.37
499.983	2.39
500.183	2.1
500.383	2.56
500.584	1.73
500.784	2.54
500.984	1.46
501.184	1.45
501.385	1.65
501.585	1.83
501.785	2.09
501.985	2.27
502.185	2.32
502.386	2.48
502.586	2.61
502.786	3.19
502.986	3.42
503.186	3.96
503.386	4.01
503.586	4.02
503.786	4.15
503.987	3.72
504.187	3.38
504.387	3.61
504.587	2.99
504.787	3.1
504.987	3.25
505.187	3.02
505.387	3.32
505.587	3
505.786	3.4
505.986	3.64
506.186	3.9
506.386	4.36
506.586	4.33
506.786	4.64
506.986	4.39
507.186	4.39
507.386	4.22
507.585	3.83
507.785	3.96
507.985	3.45
508.185	3.13
508.384	3.44
508.584	3.57
508.784	3.2
508.984	3.58
509.183	3.54
509.383	3.68
509.583	3.98
509.782	4.05
509.982	4.44
510.182	4.29
510.381	4.38
510.581	3.99
510.781	3.82
510.98	4
511.18	4.12
511.379	4.14
511.579	4.06
511.778	4.17
511.978	4.15
512.177	4.17
512.377	4.43
512.576	4.77
512.776	5.5
512.975	5.54
513.175	5.7
513.374	5.36
513.573	5.73
513.773	5.43
513.972	5.36
514.172	5.17
514.371	4.61
514.57	4.56
514.77	4.07
514.969	3.9
515.168	3.74
515.367	3.69
515.567	3.84
515.766	3.92
515.965	4.38
516.164	4.12
516.364	4.29
516.563	5.13
516.762	5.85
516.961	6.35
517.16	6.16
517.359	6.5
517.559	6.67
517.758	6.6
517.957	6.59
518.156	6.33
518.355	6.82
518.554	7.26
518.753	6.89
518.952	6.75
519.151	6.56
519.35	6.39
519.549	6.27
519.748	6.52
519.947	6.49
520.146	6.05
520.345	6.2
520.544	6.11
520.743	6.09
520.942	6.09
521.141	6.02
521.339	6.01
521.538	6.51
521.737	6.57
521.936	6.11
522.135	6.45
522.333	6.75
522.532	7.01
522.731	6.83
522.93	6.4
523.129	6.52
523.327	6.65
523.526	6.63
523.725	6.59
523.923	6.72
524.122	7.07
524.321	6.95
524.519	7.24
524.718	7.15
524.917	7.36
525.115	7.95
525.314	8.15
525.512	8.19
525.711	8.37
525.909	8.52
526.108	8.59
526.306	8.57
526.505	8.63
526.703	8.53
526.902	8.64
527.1	8.66
527.299	8.39
527.497	8.51
527.696	8.62
527.894	8.69
528.092	8.66
528.291	8.64
528.489	8.52
528.688	8.62
528.886	8.45
529.084	8.59
529.283	8.65
529.481	8.68
529.679	8.5
529.877	8.22
530.076	8.12
530.274	8.11
530.472	8.19
530.67	8.52
530.869	8.39
531.067	9.12
531.265	9.09
531.463	9.09
531.661	9.44
531.859	9.5
532.057	9.86
532.255	9.94
532.454	9.73
532.652	9.81
532.85	9.84
533.048	10.07
533.246	9.75
533.444	9.56
533.642	9.59
533.84	9.63
534.038	9.79
534.236	9.65
534.434	9.7
534.632	9.94
534.83	10.03
535.027	9.73
535.225	9.44
535.423	9.96
535.621	9.78
535.819	9.48
536.017	9.34
536.215	9.05
536.412	9.24
536.61	9.3
536.808	9.5
537.006	8.97
537.203	8.86
537.401	9.32
537.599	9.29
537.797	9.94
537.994	10.57
538.192	10.68
538.39	10.87
538.587	10.77
538.785	10.91
538.983	11.14
539.18	11.37
539.378	11.8
539.575	11.68
539.773	11.72
539.97	11.59
540.168	11.62
540.366	11.63
540.563	11.89
540.761	12.05
540.958	11.97
541.155	11.84
541.353	12.04
541.55	12.19
541.748	12.17
541.945	12.05
542.143	12.2
542.34	12.38
542.537	12.36
542.735	12.41
542.932	12.27
543.129	12.48
543.327	12.54
543.524	12.74
543.721	12.43
543.919	12.26
544.116	12.28
544.313	12.17
544.51	12.01
544.708	11.84
544.905	11.52
545.102	11.83
545.299	11.61
545.496	11.59
545.693	11.86
545.891	12.55
546.088	13.03
546.285	12.83
546.482	13.09
546.679	13.35
546.876	13.47
547.073	14.12
547.27	14.21
547.467	14.26
547.664	14.59
547.861	14.05
548.058	13.61
548.255	13.44
548.452	13.73
548.649	13.76
548.846	13.5
549.043	13.8
549.24	13.31
549.437	13.02
549.633	13.11
549.83	13.36
550.027	13.45
550.224	13.34
550.421	13.39
550.618	14.07
550.814	13.73
551.011	14.39
551.208	14.39
551.405	14.63
551.601	14.64
551.798	14.55
551.995	14.07
552.191	14.8
552.388	15.53
552.585	16.11
552.781	16.34
552.978	16.35
553.175	15.93
553.371	16.24
553.568	15.94
553.764	15.86
553.961	16.21
554.157	15.91
554.354	14.48
554.55	13.97
554.747	13.36
554.943	12.78
555.14	12.66
555.336	12.59
555.533	12.43
555.729	13.26
555.926	13.68
556.122	14.01
556.318	14.71
556.515	16.35
556.711	17.14
556.907	17.1
557.104	16.66
557.3	17.29
557.496	17.98
557.693	17.98
557.889	18.6
558.085	18.28
558.281	18.29
558.478	18.09
558.674	17.79
558.87	16.65
559.066	16.78
559.262	17.03
559.459	17.2
559.655	16.81
559.851	17.18
560.047	16.26
560.243	16.45
560.439	16.86
560.635	17.48
560.831	17.38
561.027	17.96
561.223	17.86
561.419	17.99
561.615	18.45
561.811	18.4
562.007	18.01
562.203	17.83
562.399	18.13
562.595	17.84
562.791	17.7
562.987	17.54
563.183	17.87
563.379	18.43
563.575	19.22
563.771	18.61
563.966	18.72
564.162	19.47
564.358	20.42
564.554	20.6
564.75	20.33
564.945	20.68
565.141	20.81
565.337	20.13
565.533	20.23
565.728	19.67
565.924	19.83
566.12	19.93
566.315	19.98
566.511	19.17
566.707	19.25
566.902	19.69
567.098	19.2
567.293	19.78
567.489	20.27
567.684	20
567.88	20.21
568.076	21.03
568.271	21.14
568.467	21.02
568.662	21.57
568.858	21.47
569.053	21.52
569.248	21.56
569.444	21.57
569.639	21.37
569.835	21.45
570.03	21.41
570.225	21.06
570.421	20.83
570.616	21.03
570.812	21.09
571.007	21.29
571.202	20.83
571.397	20.71
571.593	20.41
571.788	20.99
571.983	21.24
572.178	20.99
572.374	20.48
572.569	20.51
572.764	20.6
572.959	20.7
573.154	20.55
573.35	20.88
573.545	21.14
573.74	21.18
573.935	21.19
574.13	21.34
574.325	21.73
574.52	22.21
574.715	22.38
574.91	22.08
575.105	22.01
575.3	22.06
575.495	21.92
575.69	22.09
575.885	22.07
576.08	21.52
576.275	22.04
576.47	21.78
576.665	21.41
576.86	21.4
577.055	21.19
577.25	21.55
577.444	21.94
577.639	22.21
577.834	22.14
578.029	22.17
578.224	22.96
578.418	22.44
578.613	22.64
578.808	23.28
579.003	23.46
579.197	23.75
579.392	23.44
579.587	22.86
579.781	23.79
579.976	24.44
580.171	24.47
580.365	23.85
580.56	23.78
580.755	23.86
580.949	23.5
581.144	23.34
581.338	23.65
581.533	23.63
581.727	23.74
581.922	22.94
582.116	22.39
582.311	21.85
582.505	22.38
582.7	21.3
582.894	21.46
583.089	21.67
583.283	22.29
583.478	21.51
583.672	21.02
583.866	21.04
584.061	20.98
584.255	20.77
584.449	21.85
584.644	21.96
584.838	23.26
585.032	22.88
585.226	23.4
585.421	22.71
585.615	23.54
585.809	24.81
586.003	24.95
586.198	25.11
586.392	25.73
586.586	26.04
586.78	25.27
586.974	25.02
587.168	25.78
587.363	25.55
587.557	25.82
587.751	25.38
587.945	25.18
588.139	25.65
588.333	26.07
588.527	26.04
588.721	25.77
588.915	25.68
589.109	25.54
589.303	25.52
589.497	25.38
589.691	25.12
589.885	25.59
590.079	24.96
590.273	24.85
590.466	24.07
590.66	24.52
590.854	23.97
591.048	25.21
591.242	26.31
591.436	26.16
591.629	26.29
591.823	27.04
592.017	27.51
592.211	27.67
592.404	26.61
592.598	26.92
592.792	26.15
592.986	26.48
593.179	25.97
593.373	25.18
593.567	24.69
593.76	24.85
593.954	24.44
594.147	24.27
594.341	24.24
594.535	25.03
594.728	24.28
594.922	24.35
595.115	23.71
595.309	24.03
595.502	23.83
595.696	23.97
595.889	23.72
596.083	23.44
596.276	23.13
596.47	22.94
596.663	23.27
596.856	23.86
597.05	23.46
597.243	23.71
597.437	23.07
597.63	23.21
597.823	23.55
598.017	23.68
598.21	23.87
598.403	23.68
598.596	23.45
598.79	23.38
598.983	23.47
599.176	24.6
599.369	24.83
599.563	24.79
599.756	24.77
599.949	24.17
600.142	23.98
600.335	23.96
600.528	24.8
600.722	25.61
600.915	25.11
601.108	25.49
601.301	25.7
601.494	25.39
601.687	25.84
601.88	26.57
602.073	27.29
602.266	27.29
602.459	27.2
602.652	26.23
602.845	25.99
603.038	25.82
603.231	25.89
603.424	25.33
603.617	25.64
603.809	25.75
604.002	25.28
604.195	25.19
604.388	25.21
604.581	25.56
604.774	25.95
604.966	26.13
605.159	26.57
605.352	25.96
605.545	26.24
605.737	26.31
605.93	26.18
606.123	25.78
606.316	25.71
606.508	26.14
606.701	25.74
606.894	25.71
607.086	25.85
607.279	25.6
607.471	26.59
607.664	25.99
607.857	26.35
608.049	25.9
608.242	26.28
608.434	26.18
608.627	26.26
608.819	26.57
609.012	26.42
609.204	26.69
609.397	26.6
609.589	26.48
609.782	26.74
609.974	26.64
610.166	26.81
610.359	26.49
610.551	26.4
610.743	25.57
610.936	25.4
611.128	25.46
611.32	24.95
611.513	25.8
611.705	25.08
611.897	24.75
612.09	24.69
612.282	24.7
612.474	25.42
612.666	25.9
612.858	26.57
613.051	26.93
613.243	27.34
613.435	27.32
613.627	26.49
613.819	26.26
614.011	25.86
614.203	26.14
614.395	26.86
614.588	27.17
614.78	27.25
614.972	27.03
615.164	26.75
615.356	26.75
615.548	26.43
615.74	26.71
615.932	27.02
616.124	28.87
616.315	28.39
616.507	28.29
616.699	27.34
616.891	27.33
617.083	27.6
617.275	27.93
617.467	28.13
617.659	28.35
617.85	27.83
618.042	27.92
618.234	26.96
618.426	27.01
618.618	27.1
618.809	27.34
619.001	26.53
619.193	26.5
619.384	26.15
619.576	25.73
619.768	25.21
619.959	26.4
620.151	27.65
620.343	27.54
620.534	27
620.726	26.86
620.917	26.61
621.109	26.78
621.301	26.8
621.492	27.22
621.684	26.25
621.875	26.96
622.067	26.23
622.258	25.43
622.45	26.09
622.641	26.68
622.832	26.82
623.024	27.06
623.215	27
623.407	26.04
623.598	26.32
623.789	27.85
623.981	28.1
624.172	27.98
624.363	27.45
624.555	26.94
624.746	26.6
624.937	25.76
625.129	25.81
625.32	25.99
625.511	26.95
625.702	26.27
625.893	25.97
626.085	26.02
626.276	26.64
626.467	27.33
626.658	27.26
626.849	27.18
627.04	27.43
627.231	26.79
627.422	27.09
627.614	26.99
627.805	27.09
627.996	26.75
628.187	26.41
628.378	25.55
628.569	24.57
628.76	24.78
628.951	24.96
629.142	25.57
629.332	26.27
629.523	26.86
629.714	26.12
629.905	27.72
630.096	27.61
630.287	27.37
630.478	27.51
630.669	28.75
630.859	28.66
631.05	29.07
631.241	28.99
631.432	29.17
631.623	27.57
631.813	27.77
632.004	26.68
632.195	26.36
632.385	26.27
632.576	26.3
632.767	26.13
632.957	26.59
633.148	26.99
633.339	27.02
633.529	27.53
633.72	28.79
633.91	28.64
634.101	27.74
634.292	27.93
634.482	28.6
634.673	28.38
634.863	27.57
635.054	27.45
635.244	26.5
635.435	26.2
635.625	26.22
635.815	26.63
636.006	27.72
636.196	28.01
636.387	28.64
636.577	29.15
636.767	29.69
636.958	30.35
637.148	30.32
637.338	30.27
637.529	30.73
637.719	30.66
637.909	29.76
638.099	29.69
638.29	29.96
638.48	29.94
638.67	29.28
638.86	29.56
639.05	29.66
639.241	29.77
639.431	30.79
639.621	29.66
639.811	29.03
640.001	28.91
640.191	28.61
640.381	29.17
640.571	29.05
640.761	28.75
640.951	27.91
641.141	27.4
641.331	26.29
641.521	25.03
641.711	26.18
641.901	26.48
642.091	26.4
642.281	25.94
642.471	25.19
642.661	25.25
642.851	25.69
643.041	26.69
643.231	27.18
643.42	27.14
643.61	27.69
643.8	27.91
643.99	27.77
644.18	27.67
644.369	27.88
644.559	28.49
644.749	28.66
644.939	28.58
645.128	28.65
645.318	28.61
645.508	29.22
645.697	29.49
645.887	28.7
646.076	28.15
646.266	28.35
646.456	29.53
646.645	28.97
646.835	29.44
647.024	29.56
647.214	29.47
647.403	29.88
647.593	30.94
647.782	30.08
647.972	31.11
648.161	32.9
648.351	32.8
648.54	32.25
648.73	33.39
648.919	33.84
649.108	33.51
649.298	33.66
649.487	32.7
649.677	32.52
649.866	33.25
650.055	32.5
650.244	31.91
650.434	32.49
650.623	31.4
650.812	30.43
651.002	29.88
651.191	29.8
651.38	28.86
651.569	29.64
651.758	29.65
651.947	29.06
652.137	29.95
652.326	28.75
652.515	28.63
652.704	28.4
652.893	28.44
653.082	27.58
653.271	28.02
653.46	29.77
653.649	28.84
653.838	27.35
654.027	27.57
654.216	26.62
654.405	28
654.594	28.16
654.783	30.21
654.972	29.97
655.161	30.82
655.35	31.01
655.539	29.19
655.728	29.21
655.916	30.38
656.105	31.25
656.294	30.69
656.483	30.09
656.672	30.46
656.86	29.77
657.049	29.32
657.238	29.77
657.427	29.2
657.615	30.57
657.804	31.34
657.993	30.95
658.181	30.45
658.37	30.19
658.559	29.97
658.747	29.24
658.936	29.07
659.125	29.93
659.313	29.22
659.502	29.49
659.69	29.4
659.879	28.66
660.067	28.81
660.256	28.6
660.444	30.61
660.633	30.78
660.821	31.91
661.01	31.35
661.198	31.47
661.387	31.97
661.575	31.49
661.763	31.16
661.952	31.88
662.14	32.22
662.328	32.39
662.517	30.44
662.705	30.16
662.893	29.19
663.082	29.56
663.27	29.21
663.458	27.75
663.646	27.45
663.834	27.07
664.023	27.49
664.211	26.31
664.399	27.16
664.587	27.1
664.775	27.19
664.963	27.63
665.152	27.2
665.34	26.63
665.528	26.89
665.716	26.92
665.904	26.37
666.092	25.74
666.28	25.9
666.468	25.29
666.656	25.05
666.844	25.52
667.032	24.86
667.22	25.54
667.408	26.52
667.596	28.67
667.784	28.95
667.971	29.06
668.159	27.43
668.347	27.42
668.535	27.22
668.723	28.14
668.911	28.05
669.098	27.9
669.286	28.09
669.474	28.17
669.662	26.7
669.849	26.59
670.037	27.94
670.225	29.23
670.413	29.88
670.6	30.35
670.788	30.47
670.976	30.89
671.163	30.7
671.351	30.63
671.538	30.31
671.726	30.78
671.913	31.25
672.101	30.58
672.289	31
672.476	31.11
672.664	31.24
672.851	31.28
673.039	32.06
673.226	32.77
673.413	32.62
673.601	32.98
673.788	32.23
673.976	32.1
674.163	32.06
674.35	31.67
674.538	31.57
674.725	32.61
674.912	32.48
675.1	30.35
675.287	29.38
675.474	28.53
675.662	27.82
675.849	29.26
676.036	28.52
676.223	27.93
676.411	28.06
676.598	27.48
676.785	25.98
676.972	26.32
677.159	27.46
677.346	29.44
677.533	29.68
677.721	31.57
677.908	30.61
678.095	31.98
678.282	32.44
678.469	32.38
678.656	33.31
678.843	33.28
679.03	32.47
679.217	33.8
679.404	33.39
679.591	34.36
679.778	33.74
679.964	33.6
680.151	32.94
680.338	31.53
680.525	32.08
680.712	32.22
680.899	32.27
681.086	32.33
681.272	30.25
681.459	30.27
681.646	29.77
681.833	28.56
682.02	29.23
682.206	28.66
682.393	30.09
682.58	30.24
682.766	29.05
682.953	29.28
683.14	30.61
683.326	31.62
683.513	30.27
683.7	30.82
683.886	30.65
684.073	30.43
684.259	31.84
684.446	30.47
684.632	30.29
684.819	30.35
685.005	29.86
685.192	29.87
685.378	29.67
685.565	30.07
685.751	29.59
685.938	30.93
686.124	29.87
686.31	28.96
686.497	29.58
686.683	28.79
686.87	29.23
687.056	28.01
687.242	26.42
687.429	26.01
687.615	26.42
687.801	26.62
687.987	26.32
688.174	27.38
688.36	28.91
688.546	28.8
688.732	29.13
688.918	28.53
689.105	30.64
689.291	32.67
689.477	32.75
689.663	33.31
689.849	31.92
690.035	30.78
690.221	31.31
690.407	28.99
690.593	29.08
690.779	27.07
690.965	27
691.151	27.64
691.337	27.66
691.523	29.14
691.709	28.46
691.895	30.3
692.081	31.57
692.267	29.35
692.453	30.1
692.639	30
692.825	32.18
693.011	33.3
693.196	32.58
693.382	31.36
693.568	29.84
693.754	28.36
693.94	26.55
694.125	25.51
694.311	27.53
694.497	28.41
694.682	28.65
694.868	28.38
695.054	28
695.239	27.41
695.425	27.09
695.611	27.53
695.796	28.69
695.982	30.45
696.168	30.58
696.353	30.36
696.539	31.29
696.724	30.74
696.91	30.15
697.095	29.53
697.281	30
697.466	29.81
697.652	30.06
697.837	30.86
698.023	30.65
698.208	30.41
698.393	30.9
698.579	29.82
698.764	29.3
698.949	29.42
699.135	30.69
699.32	30.86
699.505	31.04
699.691	31.21
699.876	29.98
700.061	30.21
700.246	30.63
700.432	29.98
700.617	30.53
700.802	32.76
700.987	33.9
701.172	33.19
701.358	33.33
701.543	34.61
701.728	32.89
701.913	34.53
702.098	32.11
702.283	32.75
702.468	33.22
702.653	32.92
702.838	33.58
703.023	31.93
703.208	31.91
703.393	31.87
703.578	30.97
703.763	32.04
703.948	32.31
704.133	33.9
704.318	33.15
704.503	33.85
704.688	33.52
704.873	32.39
705.057	34.41
705.242	32.93
705.427	31
705.612	31.09
705.797	30.55
705.981	28.94
706.166	28.99
706.351	28.74
706.536	25.98
706.72	24.51
706.905	25.03
707.09	24.88
707.274	26.48
707.459	26.7
707.644	28.2
707.828	29.43
708.013	31.25
708.197	32.04
708.382	32.96
708.567	33.08
708.751	32.61
708.936	33.99
709.12	34.44
709.305	33.24
709.489	35.97
709.673	33.42
709.858	33.29
710.042	32.07
710.227	31.58
710.411	30.32
710.596	31.1
710.78	32.26
710.964	30.47
711.149	30.44
711.333	31.61
711.517	30.42
711.702	31.87
711.886	32.7
712.07	33.46
712.254	33.64
712.438	34.76
712.623	34.66
712.807	34.8
712.991	35.32
713.175	32.98
713.359	32.68
713.544	30.97
713.728	30.64
713.912	30.01
714.096	29.22
714.28	28.91
714.464	29.27
714.648	30.26
714.832	30.69
715.016	29.87
715.2	30.62
715.384	31.27
715.568	31
715.752	29.79
715.936	28.67
716.12	30.55
716.304	30.87
716.488	30.18
716.671	26.96
716.855	28.88
717.039	29.16
717.223	29.92
717.407	28.43
717.59	28.72
717.774	30.11
717.958	32.32
718.142	29.61
718.325	29.29
718.509	29.02
718.693	33.01
718.877	29.31
719.06	29.52
719.244	31.97
719.428	31.01
719.611	31.27
719.795	31
719.978	30.14
720.162	30.92
720.345	31.1
720.529	31.77
720.713	28.81
720.896	30.49
721.08	32.85
721.263	28.27
721.446	30.02
721.63	29.67
721.813	29.95
721.997	29.3
722.18	29.23
722.364	27.47
722.547	29.23
722.73	30.23
722.914	31.95
723.097	29.48
723.28	30
723.464	30.25
723.647	32.2
723.83	31.11
724.013	32.52
724.197	33.2
724.38	33.26
724.563	29.44
724.746	29.61
724.929	26.98
725.112	27.71
725.296	29.6
725.479	28.07
725.662	27.88
725.845	27.49
726.028	26.25
726.211	25.19
726.394	26.96
726.577	28.74
726.76	26.24
726.943	27.57
727.126	27.86
727.309	28.3
727.492	29.27
727.675	30.89
727.858	33.2
728.041	35.71
728.224	35.14
728.407	34.84
728.589	37.47
728.772	38.77
728.955	38.89
729.138	40.7
729.321	38.63
729.503	38.05
729.686	37.69
729.869	35.11
730.052	33.64
730.234	34.45
730.417	32.8
730.6	29.6
730.782	30.23
730.965	27.57
731.148	23.68
731.33	25.67
731.513	28.01
731.695	26.98
731.878	28.7
732.061	27.85
732.243	27.98
732.426	30.15
732.608	32.33
732.791	33.18
732.973	33.72
733.156	34.72
733.338	31.94
733.52	29.61
733.703	29.42
733.885	27.47
734.068	26.41
734.25	24.8
734.432	26.71
734.615	26.14
734.797	27.2
734.979	29.08
735.162	30.27
735.344	32.55
735.526	32.13
735.708	30.88
735.891	31.76
736.073	31.52
736.255	30.38
736.437	26.48
736.619	25.11
736.802	23.63
736.984	23.03
737.166	21.27
737.348	21.31
737.53	23.78
737.712	25.84
737.894	25.78
738.076	27.45
738.258	29.44
738.44	31.1
738.622	31.78
738.804	30.55
738.986	31.21
739.168	31.75
739.35	30.51
739.532	29.09
739.714	29.6
739.896	30.44
740.078	28.57
740.259	26.64
740.441	24.21
740.623	25.71
740.805	27.15
740.987	25.4
741.168	23.63
741.35	26.98
741.532	26.59
741.714	23.95
741.895	21.31
742.077	18.82
742.259	20.64
742.44	24.76
742.622	21.17
742.804	19.68
742.985	21.05
743.167	24.23
743.348	22.87
743.53	24.09
743.711	23.17
743.893	27.74
744.075	32.57
744.256	30.53
744.438	28.09
744.619	28.61
744.8	29.1
744.982	29.71
745.163	27.44
745.345	28.65
745.526	29.43
745.707	27.41
745.889	25.52
746.07	26.6
746.252	27.94
746.433	28.29
746.614	31.17
746.795	30.15
746.977	30.54
747.158	33.75
747.339	30.39
747.52	27.05
747.702	30.53
747.883	30.3
748.064	27.38
748.245	26.81
748.426	27.09
748.607	26.77
748.788	28.77
748.97	26.88
749.151	22.72
749.332	22.67
749.513	23.3
749.694	20.65
749.875	20.4
750.056	23.52
750.237	25.3
750.418	23.91
750.599	18.49
750.78	19.66
750.96	22.2
751.141	25.03
751.322	26.55
751.503	24.78
751.684	24.83
751.865	26.55
752.046	27.28
752.226	30.09
752.407	32.23
752.588	33.72
752.769	32
752.949	30.34
753.13	29.84
753.311	27.62
753.492	29.8
753.672	31.64
753.853	28.98
754.034	25.67
754.214	23.07
754.395	22.39
754.575	27.37
754.756	27.64
754.937	29.99
755.117	29.7
755.298	31.85
755.478	31.95
755.659	29.61
755.839	28.48
756.02	30.36
756.2	29.8
756.381	30.01
756.561	26.25
756.741	24.96
756.922	23.3
757.102	23.45
757.283	18.57
757.463	20.38
757.643	19.34
757.823	20.33
758.004	19.2
758.184	19.06
758.364	18.97
758.545	21.56
758.725	23.05
758.905	22.03
759.085	25.56
759.265	28.45
759.446	27.72
759.626	34.55
759.806	36.06
759.986	36.17
760.166	37.05
760.346	35.11
760.526	34.59
760.706	36.17
760.886	38.5
761.066	36.27
761.246	37.54
761.426	38.74
761.606	33.66
761.786	35.72
761.966	35.11
762.146	35.79
762.326	38.15
762.506	38.74
762.686	37.77
762.866	35.56
763.046	33.84
763.225	31.8
763.405	29.41
763.585	31.27
763.765	28.7
763.945	32.23
764.124	29.49
764.304	27.01
764.484	26.13
764.664	25.13
764.843	25.85
765.023	26.82
765.203	27.96
765.382	27.44
765.562	28.68
765.741	28.2
765.921	22.07
766.101	26.06
766.28	27.4
766.46	24.24
766.639	24.77
766.819	21.67
766.998	23.44
767.178	25.16
767.357	24.68
767.537	22.9
767.716	20.86
767.896	21.85
768.075	19.66
768.254	19.07
768.434	21.73
768.613	20.1
768.792	21.78
768.972	20.7
769.151	24.02
769.33	27.32
769.51	27.8
769.689	29.66
769.868	33.69
770.047	35.96
770.226	35.71
770.406	34.87
770.585	39.42
770.764	39.45
770.943	38.28
771.122	32.97
771.301	30.04
771.48	28.03
771.66	29.33
771.839	28.4
772.018	26.47
772.197	30.11
772.376	28.84
772.555	26.9
772.734	25.38
772.913	32.06
773.092	35.48
773.271	39.34
773.449	38.65
773.628	37.8
773.807	36.77
773.986	36.94
774.165	36.51
774.344	37.67
774.523	31.53
774.701	31.61
774.88	25.12
775.059	22.46
775.238	21.55
775.417	22.52
775.595	26.92
775.774	27.73
775.953	25.96
776.131	24.1
776.31	24.49
776.489	28.19
776.667	30.34
776.846	34.16
777.025	36.5
777.203	37.37
777.382	40.33
777.56	37.11
777.739	34.85
777.917	35.83
778.096	35.18
778.274	36.17
778.453	36.59
778.631	33.37
778.81	30.62
778.988	28.95
779.166	27.83
779.345	23.64
779.523	24.47
779.702	23.89
779.88	21.66
780.058	23.46
780.237	24.82
780.415	23.97
780.593	26.3
780.771	29.04
780.95	27.41
781.128	30.9
781.306	32.5
781.484	33.55
781.662	31.47
781.841	33.16
782.019	35.89
782.197	34.3
782.375	33.92
782.553	32.91
782.731	30.21
782.909	30.36
783.087	23.11
783.265	24.47
783.443	20.25
783.621	29.21
783.799	29.17
783.977	24.68
784.155	20.53
784.333	23.26
784.511	29.34
784.689	32.76
784.867	35.42
785.045	41.62
785.223	33.33
785.4	35.3
785.578	25.96
785.756	26.55
785.934	25.46
786.112	27.43
786.289	28.89
786.467	23.66
786.645	21.84
786.823	18.03
787	14.51
787.178	20.42
787.356	17.68
787.533	17.16
787.711	16.87
787.889	15.9
788.066	16.46
788.244	15.91
788.421	18.06
788.599	18.16
788.776	20.63
788.954	23.79
789.131	24.64
789.309	28.53
789.486	32.71
789.664	34.8
789.841	40.21
790.019	40.01
790.196	40.95
790.373	41.88
790.551	41.02
790.728	40.19
790.906	39.1
791.083	46.22
791.26	47.03
791.437	43.15
791.615	44.69
791.792	39.86
791.969	46.32
792.146	47.68
792.324	44.78
792.501	41.31
792.678	48.78
792.855	45.95
793.032	36
793.209	33.42
793.387	32.22
793.564	26.75
793.741	26.83
793.918	17.61
794.095	19.51
794.272	20.34
794.449	23.82
794.626	17.68
794.803	23.42
794.98	18.55
795.157	21.46
795.334	19.49
795.511	13
795.688	14.6
795.864	18.49
796.041	7.66
796.218	13.41
796.395	8.96
796.572	6.47
796.749	4.84
796.925	6.92
797.102	8.25
797.279	14.51
797.456	15.08
797.632	13.22
797.809	11.86
797.986	12.65
798.162	9.52
798.339	14.88
798.516	19.99
798.692	19.82
798.869	22.79
799.046	19.19
799.222	23.46
799.399	24.88
799.575	27.71
799.752	25.55
799.928	35.04
800.105	33.52
800.281	36.66
800.458	28.91
800.634	28.8
800.811	27.13
800.987	32.58
801.163	31.74
801.34	32.03
801.516	25.19
801.692	27.19
801.869	22.89
802.045	25.97
802.221	23.29
802.398	31.41
802.574	31.06
802.75	29.93
802.926	24.46
803.103	24.15
803.279	20.85
803.455	28.87
803.631	31.12
803.807	27.71
803.983	27.96
804.16	25.69
804.336	13.25
804.512	14.39
804.688	18.23
804.864	26.04
805.04	22.4
805.216	20.54
805.392	19.88
805.568	13.48
805.744	17.06
805.92	17.3
806.096	18.69
806.272	26.13
806.448	20.87
806.623	9.69
806.799	1.39
806.975	0.44
807.151	15.39
807.327	15.66
807.503	7.2
807.678	6.87
807.854	9.72
808.03	4.3
808.206	1.37
808.381	3.87
808.557	12.39
808.733	14.69
808.908	8.84
809.084	-2.95
809.26	1
809.435	13.66
809.611	3.78
809.787	-1.35
809.962	8.98
810.138	-0.55
810.313	-0.24
810.489	-3.92
810.664	-2.45
810.84	5.38
811.015	15
811.191	6.54
811.366	-0.09
811.542	4.88
811.717	10.16
811.892	-0.04
812.068	10.2
812.243	7.26
812.419	12.73
812.594	14.68
812.769	16.26
812.944	9.66
813.12	11.52
813.295	17.14
813.47	14.96
813.645	10.66
813.821	20.45
813.996	15.7
814.171	22.96
814.346	23.22
814.521	27.39
814.697	24.16
814.872	28.73
815.047	27.69
815.222	25.51
815.397	30.4
815.572	29.42
815.747	26.84
815.922	28.66
816.097	25.18
816.272	22.66
816.447	19.23
816.622	19.52
816.797	13.96
816.972	18.35
817.147	12.62
817.322	11.23
817.496	9.72
817.671	12.29
817.846	17.99
818.021	19.05
818.196	21.05
818.371	20.74
818.545	27.83
818.72	30.21
818.895	27.8
819.069	33.45
819.244	34.27
819.419	37.33
819.594	36.16
819.768	33.02
819.943	33.55
820.117	33.55
820.292	29.47
820.467	25.53
820.641	26.76
820.816	26.19
820.99	24.97
821.165	23.47
821.339	22.89
821.514	23.26
821.688	22.71
821.863	22.59
822.037	22.93
822.212	24.29
822.386	24.45
822.56	24.11
822.735	23.92
822.909	24
823.084	25.08
823.258	23.8
823.432	23.43
823.606	23.71
823.781	23.84
823.955	22.64
824.129	20.91
824.303	21.48
824.478	19.45
824.652	22.17
824.826	20.96
825	21.79
825.174	22.8
825.348	22.94
825.523	22.36
825.697	21.89
825.871	20.79
826.045	21.64
826.219	20.29
826.393	21.24
826.567	21.52
826.741	25.92
826.915	22.8
827.089	24.38
827.263	24.14
827.437	23.18
827.611	25.07
827.784	27.67
827.958	29.47
828.132	30.68
828.306	30.63
828.48	26.85
828.654	22.89
828.827	25.17
829.001	22.05
829.175	21.97
829.349	25.15
829.522	25.31
829.696	21.15
829.87	14.07
830.044	14.01
830.217	16.13
830.391	17.98
830.565	15.21
830.738	19.12
830.912	16.82
831.085	12.74
831.259	18.68
831.432	16.64
831.606	19.75
831.779	26.65
831.953	27.44
832.126	25.9
832.3	24
832.473	23.77
832.647	21.95
832.82	26.54
832.994	31.73
833.167	25.19
833.34	25.32
833.514	24.02
833.687	20.5
833.86	19.46
834.034	19.86
834.207	20.74
834.38	19.22
834.553	17.46
834.727	14.38
834.9	10.97
835.073	10.25
835.246	2.98
835.419	-2.53
835.593	-7.54
835.766	-7.38
835.939	-12.89
836.112	-14.92
836.285	-15.26
836.458	-22.79
836.631	-16.29
836.804	-28.4
836.977	-12.68
837.15	-6.93
837.323	-1.67
837.496	9.67
837.669	5.99
837.842	12.57
838.015	9.92
838.188	7.05
838.361	9.93
838.533	0.06
838.706	1.74
838.879	-3.6
839.052	-11.66
839.225	5.21
839.398	-3.34
839.57	-5.89
839.743	-3.91
839.916	-0.97
840.088	-9.95
840.261	-3.3
840.434	-6.24
840.607	1.21
840.779	-2.24
840.952	-0.83
841.124	-11.72
841.297	-10.29
841.47	-9.25
841.642	-21.15
841.815	-15.03
841.987	-0.16
842.16	1.5
842.332	25.36
842.505	11.87
842.677	3.82
842.85	9.08
843.022	6.85
843.194	11.94
843.367	5.6
843.539	20.86
843.712	-5.27
843.884	-13.3
844.056	-32.54
844.229	-82.5
844.401	-72.07
844.573	-62.89
844.745	-115.87
844.918	-162.54
845.09	-151.68
845.262	-263.16
845.434	-423.62
845.606	-102.93
845.779	-88.09
845.951	-100.45
846.123	-5.28
846.295	-14.34
846.467	-30.84
846.639	-20.27
846.811	8.39
846.983	-22.37
847.155	-55.64
847.327	-46.03
847.499	-34.71
847.671	-38.11
847.843	-18.22
848.015	-54.29
848.187	-60.24
848.359	-60.32
848.531	-45.63
848.703	-152.07
848.875	-153.4
849.047	-60
849.218	-37.94
849.39	-158.48
849.562	-115.87
849.734	-209.52
849.905	-203.53
850.077	-141.67
850.249	-254.29
850.421	-112.93
850.592	-108.38
850.764	-57.54
850.936	-40.55
851.107	-91.18
851.279	-38.51
851.451	-12.56
851.622	12.92
851.794	27.03
851.965	26.75
852.137	34.21
852.308	47.29
852.48	89.82
852.651	97.64
852.823	90.74
852.994	104.85
853.166	105.94
853.337	66.01
853.509	43.55
853.68	54.9
853.851	32.94
854.023	28.84
854.194	10.74
854.365	-23.67
854.537	7.36
854.708	-7.77
854.879	12.59
855.05	1.57
855.222	44.6
855.393	35.43
855.564	-8.56
855.735	-7.95
855.906	-26.39
856.078	4.62
856.249	0
856.42	-34.72
856.591	-55.9
856.762	-26.8
856.933	-33.42
857.104	-49.33
857.275	-62.53
857.446	-27.81
857.617	-10.26
857.788	-9.27
857.959	19.07
858.13	34.25
858.301	33.62
858.472	46.74
858.643	0
858.814	-15.64
858.985	-28.71
859.155	-33
859.326	-17.61
859.497	-8.37
859.668	-7.29
859.839	-37.52
860.009	-32.33
860.18	-41.65
860.351	-26.39
860.522	-27.82
860.692	-11.93
860.863	-3.39
861.034	8.31
861.204	-8.11
861.375	-57.09
861.546	-66.13
861.716	-85.01
861.887	-103.44
862.057	-89.59
862.228	-74.93
862.398	-65.43
862.569	-122.28
862.739	-168.52
862.91	-170.35
863.08	-280.51
863.251	-181.66
863.421	-113.46
863.592	-110.06
863.762	-111.42
863.932	-91.89
864.103	-144.55
864.273	-197.1
864.443	-201.28
864.614	-152.13
864.784	-166.67
864.954	-274.79
865.125	-146.85
865.295	-240.35
865.465	-219.06
865.635	-296.96
865.805	-613.51
865.976	-1015.38
866.146	-459.37
866.316	-251.78
866.486	-156.01
866.656	-535.78
866.826	-150
866.996	-211.46
867.166	-104.3
867.336	-56.4
867.506	-28.17
867.676	-14.39
867.846	-16.2
868.016	-28.37
868.186	-16.81
868.356	-39.84
868.526	-22.54
868.696	-31.96
868.866	16.67
869.036	-9.24
869.206	-21.85
869.376	-34.3
869.545	-55.95
869.715	-53.54
869.885	-36.27
870.055	-30.95
870.224	-95.7
870.394	-127.84
870.564	-41.31
870.734	-107.51
870.903	-133.33
871.073	-254.55
871.243	-161.97
871.412	-88.97
871.582	-110.76
871.751	-188.59
871.921	-193.72
872.091	-120.34
872.26	-98.85
872.43	-222.64
872.599	-117.29
872.769	-77.84
872.938	-57.32
873.108	-49.72
873.277	-185
873.446	-72.38
873.616	-49.6
873.785	-48.9
873.955	-26.3
874.124	-25.23
874.293	19.96
874.463	-31.38
874.632	-24.3
874.801	-95.1
874.971	-85.47
875.14	-40.57
875.309	-60.87
875.478	-65.51
875.647	-68.4
875.817	-75.9
875.986	-67.9
876.155	-93.06
876.324	-89.79
876.493	-269.77
876.662	-187.33
876.831	-217.93
877	-211.33
877.17	-555.83
877.339	-206.44
877.508	-234.5
877.677	-242.92
877.846	-322.33
878.015	-360.51
878.184	-159.84
878.352	-212.5
878.521	-122.2
878.69	-154.75
878.859	-84.76
879.028	-69.03
879.197	-63.04
879.366	-58.33
879.534	-39.56
879.703	-16.36
879.872	-13.3
880.041	-18.32
880.21	3.9
880.378	-4.61
880.547	6.94
880.716	1.82
880.884	0.96
881.053	4.71
881.222	8.43
881.39	9.84
881.559	7.29
881.727	9.68
881.896	9.11
882.065	7.9
882.233	14.41
882.402	13.15
882.57	15.82
882.739	20.01
882.907	19.43
883.076	17.89
883.244	14.75
883.412	13.53
883.581	17.13
883.749	18.57
883.918	17.15
884.086	13.55
884.254	13.12
884.423	3.14
884.591	-2.83
884.759	-4.52
884.927	-2.63
885.096	-2.72
885.264	3.3
885.432	-12.13
885.6	-16.4
885.769	-9.66
885.937	-14.09
886.105	-21.06
886.273	1.14
886.441	4.34
886.609	-7.44
886.777	-7.39
886.945	-4.35
887.113	-4.35
887.281	17.08
887.449	19.65
887.617	5.91
887.785	17.1
887.953	28.41
888.121	-3.34
888.289	-33.6
888.457	-3.12
888.625	-60.94
888.793	-55.34
888.961	-141.83
889.129	-140.9
889.296	-99.57
889.464	-123.31
889.632	-179.51
889.8	-166.38
889.967	-294.89
890.135	-126.91
