Data from JASIL_3014_Reflection_01.txt Node
Date: Mon Nov 09 10:37:19 EST 2015
User: Geneva
Spectrometer: USB4E03002
Autoset integration time: false
Trigger mode: 4
Integration Time (sec): 1.000000E-1
Scans to average: 10
Electric dark correction enabled: false
Nonlinearity correction enabled: false
Boxcar width: 5
Stray light correction enabled: false
XAxis mode: Wavelengths
Stop averaging: false
Number of Pixels in Spectrum: 3648
>>>>>Begin Spectral Data<<<<<
177.575	127.42
177.794	156.6
178.014	142.16
178.233	134.6
178.452	177.29
178.672	485.96
178.891	1130.43
179.11	-409.76
179.33	-1000
179.549	1.92
179.768	21.69
179.987	101.39
180.207	96.67
180.426	56.72
180.645	122.15
180.864	102.4
181.084	75.36
181.303	87.96
181.522	115.75
181.741	129.13
181.96	146.38
182.179	182.09
182.398	210.49
182.618	196.58
182.837	283.01
183.056	474.74
183.275	-284.44
183.494	598.89
183.713	1172.5
183.932	324.47
184.151	896.97
184.37	187.43
184.589	66.67
184.808	84.34
185.027	46.82
185.246	80.57
185.465	87.75
185.684	138.73
185.903	56.52
186.122	81.61
186.341	59.2
186.56	21.19
186.779	-18.37
186.998	96.7
187.216	125.2
187.435	130.21
187.654	95.5
187.873	120.83
188.092	123.86
188.311	94.49
188.53	111.54
188.748	108.5
188.967	-17.69
189.186	67.74
189.405	-42.13
189.623	-38.32
189.842	-276.19
190.061	5960
190.28	375.53
190.498	222.86
190.717	167.14
190.936	147.13
191.154	165.31
191.373	315.08
191.592	397.9
191.81	172.05
192.029	162.43
192.248	68.4
192.466	47.79
192.685	-13.3
192.904	530.43
193.122	-60.87
193.341	2540
193.559	-1058.33
193.778	-23.86
193.996	-75
194.215	-25.53
194.433	-14.68
194.652	-43.04
194.87	10.28
195.089	-8.87
195.307	-26
195.526	-18.52
195.744	3.41
195.963	51.47
196.181	-82.98
196.399	43.37
196.618	159.12
196.836	211.87
197.055	214.49
197.273	294.66
197.491	313
197.71	169.43
197.928	147.87
198.146	143.67
198.365	196.24
198.583	3400
198.801	-87.61
199.019	-77.61
199.238	20.67
199.456	-10.61
199.674	69.54
199.892	84.26
200.111	-100
200.329	-421.43
200.547	2866.67
200.765	-533.77
200.983	290.73
201.202	223.81
201.42	176.79
201.638	182.6
201.856	422.22
202.074	644.44
202.292	1096.83
202.51	840.28
202.728	14100
202.946	-403.03
203.165	3305.26
203.383	-1213.46
203.601	-2768.18
203.819	750
204.037	666.25
204.255	263.5
204.473	397.74
204.691	313.73
204.909	-2038.1
205.127	912.12
205.345	437.25
205.562	-194.44
205.78	616
205.998	789.86
206.216	487.74
206.434	625.84
206.652	6500
206.87	-471.19
207.088	-243.03
207.306	-283.44
207.523	-329.55
207.741	-521.98
207.959	-187.84
208.177	-90.4
208.395	-7.66
208.612	4.48
208.83	7.65
209.048	-18.46
209.266	-185.29
209.483	-360.66
209.701	268.97
209.919	-15300
210.136	-500
210.354	-366.67
210.572	293.62
210.79	583.33
211.007	-156.93
211.225	-105.26
211.442	-836.84
211.66	360.66
211.878	459.21
212.095	903.77
212.313	8533.33
212.53	220.49
212.748	289.1
212.966	1073.17
213.183	25400
213.401	268.14
213.618	193.85
213.836	236.65
214.053	249.3
214.271	404.7
214.488	181.5
214.705	183.81
214.923	276.92
215.14	376.38
215.358	300
215.575	206.74
215.793	686.36
216.01	1445.83
216.227	600
216.445	-55.45
216.662	-102.04
216.879	-41.89
217.097	-81.69
217.314	-93.55
217.531	-84.48
217.749	115.35
217.966	93.85
218.183	23.91
218.4	34.22
218.618	14.36
218.835	15.19
219.052	19.34
219.269	2.63
219.487	10.97
219.704	-10.5
219.921	-43.1
220.138	-190.12
220.355	-121.32
220.572	-6600
220.79	291.67
221.007	218.38
221.224	395.83
221.441	256.38
221.658	-101.42
221.875	-75
222.092	8.09
222.309	45.51
222.526	63.52
222.743	47.97
222.96	25.74
223.177	37.5
223.394	39.26
223.611	74.2
223.828	62.9
224.045	69.92
224.262	76.52
224.479	81.06
224.696	64.77
224.913	60.2
225.13	54.48
225.347	65.35
225.564	76.45
225.781	54.99
225.997	38.56
226.214	37.38
226.431	35.07
226.648	25.81
226.865	23.99
227.082	21.87
227.298	19.27
227.515	19.71
227.732	12.19
227.949	8.42
228.165	12.98
228.382	11.16
228.599	13.95
228.816	8.17
229.032	3.69
229.249	-6.53
229.466	-5.37
229.682	-10.17
229.899	-10.67
230.116	-7.47
230.332	-1.99
230.549	-10.85
230.765	-6.9
230.982	-13.71
231.199	3.6
231.415	6.85
231.632	7.16
231.848	3.35
232.065	17.86
232.281	10.47
232.498	4.95
232.714	6.04
232.931	24.34
233.147	14.93
233.364	16.44
233.58	6.17
233.797	7.27
234.013	7.41
234.23	3.18
234.446	4.27
234.662	17.94
234.879	10.98
235.095	18.23
235.312	18.95
235.528	16.64
235.744	15.36
235.961	11.79
236.177	8.62
236.393	17.86
236.61	14.97
236.826	16.16
237.042	15.62
237.258	27.4
237.475	16.7
237.691	4.03
237.907	18.55
238.123	19.81
238.339	24.88
238.556	23.86
238.772	20.43
238.988	20.7
239.204	16.47
239.42	14.18
239.636	9.6
239.853	8.06
240.069	6.96
240.285	0.09
240.501	4.6
240.717	3.13
240.933	5.57
241.149	5.62
241.365	5.05
241.581	3.95
241.797	5.5
242.013	5.74
242.229	6.22
242.445	7.37
242.661	9.65
242.877	5.65
243.093	3.77
243.309	3.23
243.525	-0.33
243.741	5.26
243.957	5.7
244.173	4.43
244.388	7.06
244.604	8.74
244.82	10.12
245.036	9.38
245.252	8.55
245.468	8.37
245.683	8.24
245.899	9.64
246.115	9.16
246.331	9.53
246.547	7.94
246.762	6.86
246.978	6.02
247.194	3.36
247.409	4.68
247.625	4.78
247.841	6.09
248.057	6.14
248.272	5.35
248.488	7.11
248.703	8.79
248.919	13.46
249.135	13.3
249.35	16.41
249.566	23.54
249.782	19.58
249.997	19.44
250.213	20.1
250.428	21.31
250.644	20.13
250.859	14.03
251.075	12.96
251.29	11.46
251.506	19.18
251.721	18.57
251.937	13.71
252.152	16.55
252.368	20.22
252.583	17.48
252.798	19.42
253.014	24.06
253.229	30.25
253.445	25.15
253.66	19.22
253.875	8.4
254.091	3.75
254.306	5.39
254.521	4.57
254.737	-6.01
254.952	1.93
255.167	1.96
255.383	-2.78
255.598	-3.21
255.813	2.63
256.028	3.87
256.244	6.97
256.459	6.98
256.674	9.43
256.889	7.16
257.104	10.37
257.32	6.8
257.535	2.88
257.75	3.14
257.965	4.24
258.18	5.47
258.395	5.01
258.61	6.08
258.826	7.61
259.041	6.28
259.256	5.99
259.471	4.84
259.686	4.4
259.901	5.52
260.116	4.46
260.331	4.25
260.546	3.02
260.761	4.36
260.976	2.74
261.191	1.6
261.406	1.36
261.621	3.3
261.836	7.71
262.05	10.53
262.265	8.28
262.48	11.53
262.695	11.3
262.91	11.99
263.125	13.35
263.34	12
263.555	11.06
263.769	13.03
263.984	12.58
264.199	11.36
264.414	8.75
264.629	9.22
264.843	8.78
265.058	10.7
265.273	10.04
265.488	8.8
265.702	4.59
265.917	2.66
266.132	6.59
266.346	7.08
266.561	7.99
266.776	9.57
266.99	8.26
267.205	8.77
267.42	5.28
267.634	5.09
267.849	5.01
268.063	8.31
268.278	8.31
268.492	6.27
268.707	4.74
268.922	2.67
269.136	3.47
269.351	5.45
269.565	3.03
269.78	1.41
269.994	1.33
270.209	2.1
270.423	2.37
270.637	3.84
270.852	4.41
271.066	6.3
271.281	7.13
271.495	7.05
271.709	6.8
271.924	8.07
272.138	10.56
272.353	10.96
272.567	9.35
272.781	13.03
272.996	13.18
273.21	13.54
273.424	12.78
273.638	11.95
273.853	11.88
274.067	11.4
274.281	11.99
274.495	11.9
274.71	10.24
274.924	10.68
275.138	6.91
275.352	6.02
275.566	4.52
275.781	2.83
275.995	4.82
276.209	2.76
276.423	2.26
276.637	1.46
276.851	2.71
277.065	4.68
277.279	5.48
277.493	5.7
277.707	4.78
277.921	5.63
278.135	7.81
278.349	8.69
278.563	7.53
278.777	9.43
278.991	9.21
279.205	6.97
279.419	5.9
279.633	7.35
279.847	6.7
280.061	5.49
280.275	2.85
280.489	2.52
280.703	-1.77
280.917	-0.37
281.131	-0.18
281.344	0.61
281.558	1.66
281.772	1.28
281.986	-0.9
282.2	-1.82
282.414	2.62
282.627	2.96
282.841	-0.65
283.055	2.53
283.269	2.02
283.482	0.2
283.696	0.73
283.91	1.01
284.123	2.03
284.337	2.65
284.551	3.72
284.764	1.3
284.978	2.88
285.192	5.06
285.405	3.97
285.619	4.98
285.833	4.93
286.046	3.01
286.26	2.11
286.473	1.91
286.687	1.09
286.9	2.03
287.114	2.99
287.327	1.6
287.541	1.61
287.754	2.46
287.968	3.3
288.181	3.87
288.395	5.26
288.608	5.83
288.822	5.04
289.035	6.54
289.248	5.6
289.462	6.48
289.675	6.53
289.889	5.44
290.102	4.09
290.315	3.57
290.529	4.49
290.742	7.05
290.955	6.16
291.169	7.67
291.382	7.54
291.595	7.81
291.808	7.01
292.022	6.59
292.235	6.09
292.448	7.38
292.661	7.29
292.875	6.63
293.088	2.62
293.301	3.99
293.514	1.11
293.727	0.51
293.94	-0.82
294.153	0.25
294.367	2.1
294.58	1.51
294.793	3.1
295.006	2.07
295.219	2.5
295.432	3.07
295.645	2.24
295.858	3.38
296.071	2.7
296.284	2.73
296.497	3.17
296.71	1.55
296.923	3.02
297.136	0.34
297.349	0.94
297.562	-1.65
297.775	-0.29
297.988	1.16
298.201	1.11
298.414	-0.48
298.626	0.17
298.839	-2.32
299.052	-1.74
299.265	-3.18
299.478	-3
299.691	-1.32
299.903	1.27
300.116	-0.2
300.329	-0.15
300.542	0.47
300.755	4.53
300.967	5.47
301.18	2.75
301.393	3.85
301.605	5.15
301.818	5.42
302.031	4.46
302.243	3.75
302.456	2.78
302.669	1.82
302.881	2.45
303.094	-0.87
303.307	-0.69
303.519	1.54
303.732	-1.46
303.944	-1.43
304.157	0.71
304.37	0.16
304.582	-0.03
304.795	2.14
305.007	1.35
305.22	0.58
305.432	0.41
305.645	0.41
305.857	0
306.069	2.16
306.282	1.09
306.494	0.71
306.707	-0.39
306.919	1.21
307.132	0.02
307.344	0.4
307.556	1.51
307.769	3.23
307.981	3.16
308.193	5.63
308.406	5.49
308.618	5.53
308.83	4.56
309.043	4.81
309.255	5.28
309.467	6.07
309.679	6.79
309.892	4.81
310.104	4.65
310.316	5.1
310.528	2.84
310.74	4.07
310.953	7.35
311.165	7.9
311.377	9.05
311.589	7.61
311.801	8.27
312.013	8.17
312.225	7.94
312.437	8.98
312.649	5.21
312.862	5.72
313.074	2.58
313.286	0.1
313.498	-0.62
313.71	0.62
313.922	0.47
314.134	-2.23
314.346	-2.1
314.558	0.89
314.77	0.77
314.982	4.2
315.193	6.58
315.405	9.89
315.617	9.26
315.829	12.74
316.041	12.55
316.253	14.06
316.465	14.84
316.677	13.8
316.888	13.1
317.1	15.01
317.312	15.14
317.524	11.14
317.736	11.15
317.947	11.54
318.159	12.46
318.371	13.65
318.583	14.98
318.794	17.56
319.006	17.5
319.218	17.41
319.43	16.63
319.641	16.23
319.853	19.64
320.064	17.18
320.276	18.4
320.488	15.37
320.699	13.16
320.911	12.15
321.123	12.43
321.334	11.97
321.546	11.64
321.757	12.74
321.969	15.76
322.18	13.43
322.392	15.52
322.603	12.22
322.815	9.25
323.026	8.31
323.238	9.29
323.449	9.13
323.661	9.58
323.872	6.45
324.083	5.61
324.295	2.58
324.506	5.38
324.718	5.16
324.929	4.99
325.14	7.15
325.352	7.33
325.563	4.06
325.774	4.73
325.986	5.2
326.197	8.66
326.408	6.42
326.62	9.69
326.831	5.99
327.042	8.19
327.253	10.09
327.464	11.45
327.676	11.7
327.887	15.14
328.098	13.18
328.309	13.01
328.52	14.88
328.732	18.75
328.943	15.15
329.154	18.4
329.365	15.66
329.576	14.22
329.787	13.24
329.998	13.63
330.209	9.77
330.42	8.92
330.631	10.54
330.842	6.38
331.053	3.72
331.264	4.27
331.475	3.22
331.686	3.12
331.897	7.61
332.108	4.64
332.319	5.73
332.53	6.36
332.741	9
332.952	7.84
333.163	6.54
333.374	6.16
333.585	7.41
333.795	8.12
334.006	10.41
334.217	5.39
334.428	6.16
334.639	4.24
334.849	3.83
335.06	0.49
335.271	3.6
335.482	7.75
335.692	8.08
335.903	7.23
336.114	5.15
336.325	3.85
336.535	8.08
336.746	8.44
336.957	10.41
337.167	12.88
337.378	13.06
337.589	8.84
337.799	6.7
338.01	5.84
338.22	8.33
338.431	9.56
338.642	8.67
338.852	4.98
339.063	4.49
339.273	3.87
339.484	3.48
339.694	3.67
339.905	3.92
340.115	5.56
340.326	6.14
340.536	2.66
340.746	3.49
340.957	3.65
341.167	4.85
341.378	5.5
341.588	3.47
341.799	3.18
342.009	3.22
342.219	3.8
342.43	4.65
342.64	5.86
342.85	7.87
343.061	7.02
343.271	8.49
343.481	7.76
343.691	6.17
343.902	6.86
344.112	6.21
344.322	4.48
344.532	6.11
344.743	3.2
344.953	2.04
345.163	2.98
345.373	5.74
345.583	5.14
345.793	6.28
346.004	7.21
346.214	8.08
346.424	7.49
346.634	10.61
346.844	11.46
347.054	12.77
347.264	13.34
347.474	10.5
347.684	7.7
347.894	7.59
348.104	8.33
348.314	9.42
348.524	10.04
348.734	11.8
348.944	10.09
349.154	11.47
349.364	11.6
349.574	10.75
349.784	11
349.994	12.17
350.204	11.61
350.413	10.18
350.623	9.07
350.833	7.51
351.043	5.98
351.253	5.06
351.463	-0.26
351.672	-0.96
351.882	0.88
352.092	4.06
352.302	4.08
352.511	3.14
352.721	2.73
352.931	2.87
353.141	2.99
353.35	5.12
353.56	7.98
353.77	10.4
353.979	9.2
354.189	9.72
354.399	8.84
354.608	9.72
354.818	10.36
355.027	9.35
355.237	9.79
355.447	9.8
355.656	7.17
355.866	5.85
356.075	5.2
356.285	6.07
356.494	4.8
356.704	3.73
356.913	3.5
357.123	4.85
357.332	4.39
357.542	4.67
357.751	4.43
357.96	5.71
358.17	4.88
358.379	5.34
358.589	5.97
358.798	5.46
359.007	6.93
359.217	5.53
359.426	4.87
359.635	6.45
359.845	6.68
360.054	6.21
360.263	6.65
360.472	7.52
360.682	7.1
360.891	6.26
361.1	7.32
361.309	6.55
361.519	6.73
361.728	6.37
361.937	6.5
362.146	5.56
362.355	6.29
362.564	5.73
362.774	6.46
362.983	6.57
363.192	7.97
363.401	6.39
363.61	6.4
363.819	7.17
364.028	7.85
364.237	7.15
364.446	8.63
364.655	8.04
364.864	9.4
365.073	8.34
365.282	7.92
365.491	9.5
365.7	11.46
365.909	11.71
366.118	11.74
366.327	11.51
366.536	13.49
366.745	13.3
366.954	13.82
367.162	12.42
367.371	12.45
367.58	10.86
367.789	7.73
367.998	7.39
368.207	8.13
368.415	7.66
368.624	6.64
368.833	5
369.042	4.68
369.25	4.53
369.459	5.88
369.668	5.87
369.877	7.13
370.085	6.69
370.294	6.21
370.503	5.71
370.711	5.89
370.92	5.65
371.129	5.16
371.337	4.84
371.546	6.34
371.754	4.74
371.963	4.57
372.171	6.5
372.38	7.97
372.589	8.07
372.797	8.73
373.006	7.22
373.214	7.37
373.423	7.56
373.631	8.24
373.84	7.27
374.048	7.84
374.256	7.94
374.465	6.71
374.673	5.17
374.882	4.26
375.09	4.23
375.298	4.45
375.507	5.39
375.715	5.69
375.923	5.76
376.132	6.26
376.34	5.46
376.548	5.46
376.757	5.83
376.965	7.36
377.173	7.26
377.381	7.67
377.59	7.82
377.798	7.71
378.006	8.28
378.214	7.35
378.423	7.76
378.631	9.31
378.839	8.02
379.047	7.64
379.255	6.9
379.463	6.28
379.671	6.39
379.879	6.68
380.088	5.61
380.296	5.95
380.504	5.67
380.712	4.17
380.92	4.19
381.128	5.64
381.336	4.75
381.544	5.54
381.752	6.96
381.96	5.76
382.168	5.39
382.376	7.68
382.584	6.18
382.791	6.8
382.999	6.67
383.207	7.1
383.415	7.06
383.623	7.13
383.831	5.94
384.039	6.8
384.247	8.05
384.454	7.33
384.662	6.08
384.87	6.67
385.078	6.5
385.285	8.24
385.493	7.25
385.701	6.94
385.909	8.9
386.116	8.22
386.324	7.97
386.532	6.26
386.739	6.95
386.947	8.27
387.155	9.32
387.362	8.8
387.57	8.7
387.778	7.67
387.985	7.2
388.193	5.38
388.4	6.83
388.608	5.69
388.816	6.48
389.023	6.66
389.231	6.19
389.438	5.1
389.646	4.82
389.853	3.24
390.061	4.22
390.268	5.85
390.475	5.96
390.683	6.15
390.89	6.16
391.098	5.73
391.305	6.57
391.512	6.59
391.72	6.53
391.927	7.57
392.135	8.25
392.342	7.97
392.549	6.15
392.756	6.51
392.964	6.69
393.171	7.03
393.378	7.21
393.586	6.82
393.793	6.49
394	7.8
394.207	8.23
394.414	8.3
394.622	7.65
394.829	8.09
395.036	8.76
395.243	8.09
395.45	7.35
395.657	7
395.864	7.56
396.072	7.24
396.279	5.46
396.486	5.18
396.693	5.48
396.9	5.76
397.107	5.77
397.314	5.28
397.521	4.97
397.728	5.76
397.935	5.77
398.142	5.1
398.349	4.19
398.556	3.22
398.763	1.9
398.97	1.73
399.177	1.96
399.383	4.11
399.59	3.36
399.797	3.51
400.004	3.71
400.211	5.18
400.418	5.02
400.625	5.48
400.831	6.99
401.038	7.8
401.245	7.85
401.452	7.23
401.658	5.35
401.865	6.55
402.072	6.91
402.279	7.46
402.485	6.69
402.692	7.67
402.899	6.96
403.105	7.74
403.312	8.01
403.519	7.83
403.725	9.29
403.932	9.18
404.138	9.34
404.345	8.76
404.552	8.29
404.758	7.58
404.965	6.91
405.171	8.07
405.378	6.94
405.584	6.12
405.791	5.4
405.997	4.79
406.204	5.74
406.41	5.55
406.617	6.17
406.823	6.03
407.029	7.17
407.236	6.94
407.442	5.91
407.649	7.15
407.855	7.35
408.061	7.28
408.268	7.07
408.474	5.82
408.68	5.27
408.887	5.48
409.093	5.6
409.299	4.06
409.505	3.78
409.712	4.17
409.918	3.83
410.124	4.71
410.33	4.41
410.537	4.33
410.743	4.42
410.949	3.66
411.155	3.2
411.361	2.6
411.567	3.02
411.773	2.99
411.98	3.22
412.186	2.45
412.392	1.76
412.598	2.4
412.804	2.51
413.01	2.8
413.216	3.59
413.422	4.47
413.628	4.99
413.834	4.57
414.04	4.38
414.246	3.92
414.452	3.58
414.658	4.3
414.864	5.3
415.07	4.69
415.275	3.86
415.481	4.01
415.687	2.8
415.893	2.15
416.099	2.44
416.305	2.97
416.511	3.61
416.716	3.98
416.922	3.18
417.128	2.47
417.334	2.64
417.539	2.56
417.745	2.32
417.951	3.04
418.157	3.51
418.362	3.87
418.568	4.06
418.774	3.66
418.979	2.97
419.185	3.96
419.391	3.6
419.596	4.04
419.802	3.98
420.008	4.02
420.213	4.08
420.419	4.18
420.624	3.87
420.83	3.37
421.035	3.17
421.241	3.93
421.446	3.34
421.652	3.79
421.857	3.44
422.063	3.72
422.268	3.63
422.474	3.25
422.679	2.42
422.885	2.51
423.09	2.7
423.295	2.88
423.501	2.89
423.706	2.88
423.911	2.81
424.117	2.65
424.322	2.75
424.527	2.8
424.733	2.69
424.938	3.3
425.143	3.51
425.349	3.5
425.554	3.3
425.759	3.34
425.964	3.6
426.169	3.87
426.375	4.61
426.58	4.97
426.785	5.31
426.99	5.6
427.195	6.17
427.4	6.5
427.605	6.52
427.811	7.27
428.016	6.83
428.221	6.06
428.426	5.43
428.631	4.37
428.836	4.36
429.041	4
429.246	3.89
429.451	3.68
429.656	2.78
429.861	2.75
430.066	2.82
430.271	3.08
430.476	3.76
430.681	4.93
430.886	5.62
431.09	5.16
431.295	4.74
431.5	5
431.705	4.26
431.91	4.18
432.115	4.83
432.32	4.03
432.524	4.04
432.729	3.75
432.934	3.13
433.139	2.75
433.343	2.92
433.548	3.06
433.753	2.2
433.958	3.05
434.162	4.03
434.367	3.53
434.572	3.59
434.776	3.43
434.981	3.18
435.186	2.24
435.39	2.32
435.595	2.64
435.799	2.85
436.004	3.28
436.209	2.82
436.413	2.06
436.618	1.68
436.822	2.2
437.027	2.41
437.231	2.66
437.436	3.28
437.64	3.31
437.845	3.03
438.049	3.02
438.253	2.97
438.458	3.22
438.662	3.21
438.867	3.03
439.071	2.66
439.275	2.39
439.48	2.24
439.684	1.83
439.888	1.83
440.093	1.63
440.297	1.24
440.501	1.77
440.706	1.34
440.91	1.56
441.114	1.59
441.318	1.82
441.523	1.91
441.727	1.8
441.931	2.82
442.135	3
442.339	3.49
442.543	3.93
442.748	3.97
442.952	4.62
443.156	4.03
443.36	4.41
443.564	4.42
443.768	4.53
443.972	4.98
444.176	4.1
444.38	4.53
444.584	5.04
444.788	5.15
444.992	4.89
445.196	4.37
445.4	4.76
445.604	4.43
445.808	4.23
446.012	3.93
446.216	3.41
446.42	3.41
446.624	3.17
446.828	2.45
447.032	2.54
447.235	2.14
447.439	1.87
447.643	2.27
447.847	2.5
448.051	3.05
448.254	2.97
448.458	3.12
448.662	3.88
448.866	3.01
449.069	3
449.273	2.23
449.477	2.93
449.681	3.91
449.884	3.42
450.088	3.27
450.292	3.64
450.495	4.58
450.699	4.5
450.902	4.35
451.106	4.46
451.31	4.85
451.513	4.98
451.717	4.82
451.92	4.42
452.124	4.21
452.327	4.2
452.531	3.75
452.734	3.38
452.938	3.22
453.141	2.38
453.345	2.74
453.548	2.69
453.752	2.63
453.955	2.68
454.158	2.33
454.362	2.32
454.565	2.87
454.769	2.3
454.972	2.24
455.175	2.02
455.379	2.6
455.582	2.78
455.785	3.34
455.988	3.89
456.192	3.99
456.395	4.47
456.598	4.87
456.801	3.68
457.005	3.81
457.208	2.96
457.411	3.59
457.614	3.74
457.817	3.77
458.021	3.01
458.224	2.95
458.427	2.94
458.63	3.31
458.833	3.04
459.036	3.47
459.239	4.02
459.442	4.29
459.645	4.07
459.848	4.52
460.051	4.7
460.254	5.04
460.457	4.58
460.66	4.69
460.863	4.28
461.066	4.13
461.269	4.07
461.472	3.13
461.675	3.15
461.878	3.4
462.081	2.94
462.284	2.14
462.486	1.64
462.689	2.07
462.892	2.33
463.095	2.54
463.298	2.88
463.5	3.34
463.703	3.6
463.906	4.29
464.109	3.92
464.311	3.26
464.514	3.42
464.717	3.33
464.92	3.3
465.122	2.54
465.325	2.58
465.528	2.67
465.73	2.13
465.933	2.82
466.135	2.78
466.338	2.8
466.541	2.89
466.743	2.86
466.946	2.96
467.148	3.02
467.351	3.17
467.553	3.03
467.756	2.78
467.958	2.43
468.161	1.66
468.363	1.58
468.566	1.8
468.768	2.56
468.971	2.31
469.173	2.1
469.375	2.37
469.578	3.12
469.78	2.3
469.983	2.46
470.185	3.59
470.387	3.35
470.59	3.49
470.792	3.42
470.994	3.08
471.196	4.1
471.399	5.25
471.601	5.11
471.803	4.5
472.005	5.04
472.208	4.64
472.41	4.24
472.612	4.76
472.814	4.34
473.016	4.92
473.218	4.86
473.421	3.89
473.623	3.32
473.825	3.09
474.027	3.62
474.229	3.57
474.431	3.55
474.633	4.21
474.835	4.17
475.037	4.19
475.239	3.59
475.441	3.38
475.643	3.15
475.845	3.11
476.047	3.2
476.249	2.61
476.451	2.18
476.653	3.29
476.855	2.54
477.057	2.42
477.258	2.53
477.46	3.15
477.662	3.29
477.864	3.68
478.066	3.72
478.268	3.42
478.469	3.36
478.671	4
478.873	3.25
479.075	3.69
479.276	4.15
479.478	4.09
479.68	3.94
479.882	3.86
480.083	3.73
480.285	3.95
480.487	4.12
480.688	3.84
480.89	3.54
481.091	3.4
481.293	3.19
481.495	2.82
481.696	2.77
481.898	2.61
482.099	2.61
482.301	2.65
482.502	2.51
482.704	2.6
482.905	2.73
483.107	2.74
483.308	2.87
483.51	2.89
483.711	3.07
483.913	3.11
484.114	3.07
484.315	2.93
484.517	2.97
484.718	2.94
484.92	2.83
485.121	2.69
485.322	2.87
485.524	2.93
485.725	2.92
485.926	2.69
486.127	2.65
486.329	2.65
486.53	2.94
486.731	3.1
486.932	3.18
487.134	2.97
487.335	3.07
487.536	3.04
487.737	2.9
487.938	2.86
488.139	3.14
488.341	3.22
488.542	3.27
488.743	2.95
488.944	2.9
489.145	2.82
489.346	3.09
489.547	3
489.748	2.77
489.949	2.86
490.15	2.87
490.351	2.66
490.552	2.59
490.753	2.49
490.954	2.55
491.155	2.41
491.356	2.26
491.557	2.36
491.758	2.77
491.959	2.83
492.159	2.8
492.36	2.74
492.561	2.85
492.762	2.75
492.963	3.01
493.164	3.3
493.364	3.52
493.565	3.33
493.766	3.39
493.967	3.01
494.167	2.96
494.368	3.07
494.569	2.77
494.769	2.65
494.97	2.62
495.171	2.83
495.371	2.98
495.572	2.78
495.773	3.42
495.973	3.36
496.174	3.58
496.375	3.69
496.575	3.43
496.776	3.83
496.976	3.75
497.177	3.7
497.377	3.56
497.578	3.06
497.778	3.26
497.979	2.81
498.179	2.97
498.38	2.77
498.58	2.39
498.78	2.59
498.981	2.45
499.181	1.99
499.382	2.57
499.582	2.15
499.782	2.48
499.983	2.4
500.183	2.74
500.383	2.5
500.584	2.75
500.784	3.38
500.984	2.99
501.184	3.04
501.385	3.93
501.585	3.68
501.785	3.77
501.985	3.75
502.185	3.96
502.386	3.94
502.586	4.17
502.786	4.26
502.986	4.51
503.186	4.74
503.386	4.78
503.586	4.27
503.786	4.1
503.987	4.63
504.187	4.54
504.387	4.22
504.587	4.24
504.787	4.37
504.987	4.06
505.187	3.88
505.387	3.77
505.587	3.69
505.786	3.64
505.986	3.87
506.186	4.18
506.386	4.49
506.586	4.49
506.786	4.4
506.986	3.83
507.186	3.74
507.386	3.57
507.585	4.17
507.785	4.46
507.985	4.66
508.185	4.69
508.384	4.03
508.584	4.28
508.784	4.25
508.984	4.67
509.183	5.02
509.383	5.19
509.583	5.1
509.782	4.69
509.982	4.69
510.182	4.71
510.381	4.72
510.581	4.68
510.781	4.2
510.98	4.53
511.18	4.08
511.379	3.68
511.579	3.53
511.778	3.88
511.978	4
512.177	3.97
512.377	3.74
512.576	3.56
512.776	3.5
512.975	3.69
513.175	3.68
513.374	3.7
513.573	4.05
513.773	3.63
513.972	3.5
514.172	2.83
514.371	2.95
514.57	2.86
514.77	3.3
514.969	3.62
515.168	3.37
515.367	3.58
515.567	3.5
515.766	3.62
515.965	4.25
516.164	4.29
516.364	4.94
516.563	4.84
516.762	4.86
516.961	4.5
517.16	4.33
517.359	4.59
517.559	4.27
517.758	4.17
517.957	4.39
518.156	4.55
518.355	4.85
518.554	4.77
518.753	4.89
518.952	4.99
519.151	5.14
519.35	5.44
519.549	5.46
519.748	5.71
519.947	6.12
520.146	6.08
520.345	6.24
520.544	6.1
520.743	6.01
520.942	5.82
521.141	6.53
521.339	6.51
521.538	6.59
521.737	7.02
521.936	7.06
522.135	7.27
522.333	6.79
522.532	6.18
522.731	6.44
522.93	6.15
523.129	5.96
523.327	5.72
523.526	5.66
523.725	5.61
523.923	5.35
524.122	5.43
524.321	5.5
524.519	6.04
524.718	6.05
524.917	5.68
525.115	6.12
525.314	6.36
525.512	6.32
525.711	6.46
525.909	6.29
526.108	6.19
526.306	6.26
526.505	6.12
526.703	5.71
526.902	5.79
527.1	5.85
527.299	5.92
527.497	5.95
527.696	5.95
527.894	6.1
528.092	6.2
528.291	6.14
528.489	6.34
528.688	6.23
528.886	6.55
529.084	6.78
529.283	6.69
529.481	6.72
529.679	6.85
529.877	6.74
530.076	6.58
530.274	6.74
530.472	6.83
530.67	6.34
530.869	6.54
531.067	6.83
531.265	6.86
531.463	7.06
531.661	7.25
531.859	7.46
532.057	7.77
532.255	7.71
532.454	7.74
532.652	7.8
532.85	7.99
533.048	8.04
533.246	7.82
533.444	7.75
533.642	7.71
533.84	7.53
534.038	7.29
534.236	6.84
534.434	7.04
534.632	6.96
534.83	7.1
535.027	7.07
535.225	7.03
535.423	7.12
535.621	7.13
535.819	7.2
536.017	6.83
536.215	6.9
536.412	7.61
536.61	7.3
536.808	7.66
537.006	7.6
537.203	7.44
537.401	7.58
537.599	7.7
537.797	7.93
537.994	8.19
538.192	8.6
538.39	8.5
538.587	8.44
538.785	8.85
538.983	8.68
539.18	8.84
539.378	8.89
539.575	9.03
539.773	8.64
539.97	8.5
540.168	8.41
540.366	8.39
540.563	8.29
540.761	8.27
540.958	8.11
541.155	7.87
541.353	7.91
541.55	7.96
541.748	8.04
541.945	8.28
542.143	8.36
542.34	8.91
542.537	9.08
542.735	9.36
542.932	9.18
543.129	9.62
543.327	10.16
543.524	10.15
543.721	10.12
543.919	9.89
544.116	9.72
544.313	9.62
544.51	9.15
544.708	9.04
544.905	8.64
545.102	8.7
545.299	8.61
545.496	8.35
545.693	8.4
545.891	8.29
546.088	8.41
546.285	8.39
546.482	9.01
546.679	8.63
546.876	8.73
547.073	9.28
547.27	9.44
547.467	9.07
547.664	8.9
547.861	8.31
548.058	8.67
548.255	8.51
548.452	8.65
548.649	7.73
548.846	8.12
549.043	8.1
549.24	7.83
549.437	7.94
549.633	7.99
549.83	8.08
550.027	8.84
550.224	8.83
550.421	9.55
550.618	10.3
550.814	10.93
551.011	11.17
551.208	11.04
551.405	11.14
551.601	10.24
551.798	10.95
551.995	10.85
552.191	10.64
552.388	10.68
552.585	10.02
552.781	9.74
552.978	8.96
553.175	9.08
553.371	9.64
553.568	9.52
553.764	10.33
553.961	9.97
554.157	10.37
554.354	10.82
554.55	10.94
554.747	11.27
554.943	11.06
555.14	11.69
555.336	11.51
555.533	10.83
555.729	11.23
555.926	11.54
556.122	11.65
556.318	12
556.515	12.25
556.711	12.62
556.907	13.06
557.104	12.9
557.3	12.79
557.496	12.5
557.693	12.99
557.889	12.49
558.085	12.6
558.281	12.73
558.478	12.31
558.674	12.04
558.87	12.22
559.066	12.25
559.262	12.48
559.459	13.18
559.655	13.46
559.851	13.12
560.047	14.34
560.243	13.59
560.439	13.51
560.635	13.13
560.831	14
561.027	13.81
561.223	13.41
561.419	14.14
561.615	13.33
561.811	13.12
562.007	13.21
562.203	12.17
562.399	12.4
562.595	12.36
562.791	13.49
562.987	12.08
563.183	12.16
563.379	12.12
563.575	11.16
563.771	11.64
563.966	11.4
564.162	11.73
564.358	11.53
564.554	12.13
564.75	11.69
564.945	11.63
565.141	11.85
565.337	12.1
565.533	12.54
565.728	13.09
565.924	12.66
566.12	13.21
566.315	12.88
566.511	13.36
566.707	13.18
566.902	14.06
567.098	13.93
567.293	14.24
567.489	13.78
567.684	13.57
567.88	13.49
568.076	14.01
568.271	13.73
568.467	14.03
568.662	13.49
568.858	13.14
569.053	12.97
569.248	12.83
569.444	12.96
569.639	13.13
569.835	12.62
570.03	12.52
570.225	12.46
570.421	12.2
570.616	12.5
570.812	12.54
571.007	12.9
571.202	12.97
571.397	13.11
571.593	13.41
571.788	13.62
571.983	13.78
572.178	14.72
572.374	14.78
572.569	15.7
572.764	16.06
572.959	16.05
573.154	15.87
573.35	15.39
573.545	15.24
573.74	14.64
573.935	14.39
574.13	14.42
574.325	13.15
574.52	13.16
574.715	12.77
574.91	12.43
575.105	13.25
575.3	13.76
575.495	14.38
575.69	14.64
575.885	14.7
576.08	14.52
576.275	14.46
576.47	14.87
576.665	15.1
576.86	15.79
577.055	15.4
577.25	14.47
577.444	14.09
577.639	13.63
577.834	14.04
578.029	14.08
578.224	13.58
578.418	13.8
578.613	13.37
578.808	13.05
579.003	12.34
579.197	12.54
579.392	12.81
579.587	13.21
579.781	14.4
579.976	13.95
580.171	13.83
580.365	14.78
580.56	14.65
580.755	16.11
580.949	17.09
581.144	16.28
581.338	16.28
581.533	17.73
581.727	17.99
581.922	17.86
582.116	17.02
582.311	16.77
582.505	16.01
582.7	17.15
582.894	16.16
583.089	15.7
583.283	16.33
583.478	15.59
583.672	14.77
583.866	14.29
584.061	13.45
584.255	14.1
584.449	14.42
584.644	14.89
584.838	14.22
585.032	14.75
585.226	15.55
585.421	15.98
585.615	16.93
585.809	16.81
586.003	16.47
586.198	16.34
586.392	15.97
586.586	15.85
586.78	16.16
586.974	16.1
587.168	15.93
587.363	14.8
587.557	14.2
587.751	13.54
587.945	13.45
588.139	14.09
588.333	14.01
588.527	14.38
588.721	14.38
588.915	14.09
589.109	14.45
589.303	14.58
589.497	13.65
589.691	13.99
589.885	13.94
590.079	13.93
590.273	14.01
590.466	14.3
590.66	14.07
590.854	14.75
591.048	15.6
591.242	15.5
591.436	15.21
591.629	16.35
591.823	16.42
592.017	17.64
592.211	17.81
592.404	17.41
592.598	16.97
592.792	17.56
592.986	16.95
593.179	16.42
593.373	16.86
593.567	17.12
593.76	16.74
593.954	16.2
594.147	14.76
594.341	14.8
594.535	14.77
594.728	14.54
594.922	14.36
595.115	14.91
595.309	15
595.502	14.31
595.696	14.59
595.889	14.88
596.083	15.22
596.276	15.65
596.47	16.01
596.663	16.55
596.856	17.48
597.05	17.62
597.243	17.33
597.437	17.77
597.63	18.55
597.823	17.94
598.017	17.88
598.21	18.7
598.403	19.38
598.596	19.25
598.79	19.38
598.983	19.01
599.176	18.81
599.369	19.72
599.563	19.21
599.756	18.99
599.949	18.64
600.142	18.32
600.335	17.69
600.528	17.65
600.722	17.63
600.915	17.13
601.108	17.12
601.301	17.38
601.494	17.05
601.687	17.11
601.88	15.78
602.073	16.05
602.266	16.16
602.459	15.41
602.652	15.44
602.845	15.2
603.038	15.46
603.231	15.02
603.424	14.73
603.617	14.35
603.809	14.16
604.002	14.39
604.195	14.51
604.388	15.29
604.581	16.11
604.774	15.84
604.966	15.37
605.159	14.63
605.352	15.26
605.545	15.45
605.737	15.96
605.93	15.24
606.123	16.33
606.316	16.75
606.508	15.92
606.701	15.33
606.894	15.72
607.086	16.37
607.279	16.69
607.471	16.64
607.664	16.48
607.857	16.09
608.049	17.22
608.242	17.3
608.434	17.01
608.627	16.73
608.819	17.56
609.012	17.89
609.204	17.58
609.397	17.24
609.589	16.6
609.782	16.54
609.974	16.82
610.166	16.41
610.359	16.19
610.551	16.73
610.743	16.92
610.936	16.46
611.128	15.46
611.32	15.62
611.513	16.13
611.705	17.24
611.897	17.83
612.09	17.51
612.282	18.19
612.474	18.11
612.666	18.05
612.858	18.35
613.051	18.73
613.243	18.97
613.435	18.99
613.627	18.63
613.819	18.38
614.011	18.33
614.203	18.94
614.395	17.91
614.588	17.3
614.78	18.15
614.972	18.03
615.164	17.63
615.356	17.6
615.548	18.01
615.74	18.16
615.932	18.4
616.124	17.79
616.315	17.12
616.507	18.31
616.699	18.75
616.891	17.85
617.083	18.24
617.275	18.47
617.467	18.07
617.659	17.85
617.85	18.47
618.042	18.2
618.234	17.69
618.426	17.98
618.618	17.71
618.809	17.94
619.001	17.4
619.193	18.28
619.384	17.89
619.576	17.91
619.768	18.16
619.959	17.16
620.151	16.81
620.343	17.64
620.534	18.01
620.726	18.04
620.917	18.27
621.109	18.89
621.301	17.43
621.492	17.51
621.684	18.22
621.875	18.4
622.067	18.48
622.258	19.16
622.45	19.35
622.641	19.08
622.832	19.53
623.024	19.65
623.215	18.94
623.407	19.78
623.598	19.34
623.789	19.09
623.981	18.32
624.172	18.88
624.363	18.17
624.555	18.18
624.746	17.9
624.937	17.09
625.129	15.99
625.32	14.92
625.511	14.12
625.702	14.22
625.893	14.21
626.085	14.63
626.276	14.04
626.467	14.05
626.658	13.86
626.849	14.01
627.04	14.27
627.231	15.13
627.422	16.64
627.614	17.43
627.805	17.76
627.996	18.15
628.187	17.59
628.378	18.08
628.569	19.01
628.76	19.59
628.951	20.25
629.142	19.25
629.332	18.47
629.523	18.74
629.714	18.02
629.905	18.37
630.096	17.63
630.287	17.68
630.478	18.46
630.669	18.04
630.859	18.16
631.05	17.02
631.241	17.48
631.432	18.58
631.623	18.82
631.813	18.78
632.004	19.05
632.195	18.99
632.385	19.69
632.576	19.43
632.767	19.05
632.957	18.3
633.148	18.87
633.339	19.81
633.529	19.79
633.72	18.75
633.91	19.17
634.101	18.49
634.292	18.82
634.482	18.25
634.673	17.84
634.863	18.16
635.054	17.99
635.244	18.34
635.435	17.58
635.625	17
635.815	16.77
636.006	17.04
636.196	16.98
636.387	16.65
636.577	16.86
636.767	16.95
636.958	16.92
637.148	16.98
637.338	14.74
637.529	15.18
637.719	15.41
637.909	17.23
638.099	16.46
638.29	16.84
638.48	17.21
638.67	17.3
638.86	17.67
639.05	18.19
639.241	18.67
639.431	20.26
639.621	19.53
639.811	19.59
640.001	19.52
640.191	20.82
640.381	22.28
640.571	22.21
640.761	22.5
640.951	21.92
641.141	22.67
641.331	21.73
641.521	22.25
641.711	22.52
641.901	22.02
642.091	21.47
642.281	20.37
642.471	17.66
642.661	18.09
642.851	19.51
643.041	19.27
643.231	19
643.42	20.4
643.61	21.89
643.8	22.36
643.99	22.06
644.18	21.99
644.369	21.77
644.559	23.65
644.749	22.66
644.939	21.73
645.128	21.62
645.318	20.92
645.508	20.66
645.697	19.03
645.887	18.69
646.076	20.38
646.266	19.84
646.456	20.5
646.645	20.95
646.835	22.32
647.024	21.95
647.214	23.12
647.403	23.28
647.593	23.46
647.782	21.93
647.972	22.42
648.161	21.66
648.351	21.26
648.54	22.15
648.73	21.64
648.919	20.4
649.108	20.28
649.298	18.96
649.487	18.27
649.677	17.32
649.866	17.98
650.055	16.15
650.244	15.84
650.434	17.22
650.623	17.19
650.812	16.98
651.002	18.4
651.191	17.47
651.38	19.14
651.569	19.9
651.758	22.11
651.947	22.87
652.137	23.62
652.326	24.82
652.515	24.59
652.704	23.94
652.893	23.69
653.082	22.79
653.271	25.59
653.46	24.81
653.649	24.9
653.838	23.75
654.027	24.88
654.216	25.67
654.405	24.67
654.594	25.09
654.783	24.62
654.972	25.43
655.161	25.28
655.35	23.79
655.539	23.42
655.728	23.16
655.916	21.59
656.105	20.34
656.294	20.54
656.483	19.36
656.672	18.7
656.86	18.82
657.049	18.27
657.238	19.09
657.427	18.54
657.615	18.63
657.804	18.85
657.993	20.42
658.181	20.41
658.37	21.09
658.559	21.86
658.747	22.09
658.936	22.18
659.125	22.29
659.313	22.18
659.502	22.28
659.69	22.03
659.879	20.82
660.067	19.38
660.256	19.41
660.444	18.39
660.633	18.02
660.821	17.18
661.01	17.66
661.198	17.43
661.387	18.18
661.575	18.52
661.763	18.92
661.952	18.59
662.14	20.58
662.328	22
662.517	22.64
662.705	22.28
662.893	23.07
663.082	22.83
663.27	22.26
663.458	21.75
663.646	22.06
663.834	22.55
664.023	24.07
664.211	22.57
664.399	21.34
664.587	20.43
664.775	21.43
664.963	20.45
665.152	19.51
665.34	20.38
665.528	19.86
665.716	20.06
665.904	20.7
666.092	20.87
666.28	20.71
666.468	21.95
666.656	21.51
666.844	21.52
667.032	20.55
667.22	20.64
667.408	20.06
667.596	20.85
667.784	19.83
667.971	19.47
668.159	18.43
668.347	18.9
668.535	18.52
668.723	19.67
668.911	19.63
669.098	20.47
669.286	20.75
669.474	20.44
669.662	18.2
669.849	18.33
670.037	17.09
670.225	18.42
670.413	18.37
670.6	18.2
670.788	17.09
670.976	15.85
671.163	17.82
671.351	17.15
671.538	18.53
671.726	19.01
671.913	18.59
672.101	19.93
672.289	18.92
672.476	19.2
672.664	18.19
672.851	18.24
673.039	20.02
673.226	19.14
673.413	20.11
673.601	20.21
673.788	20.74
673.976	20.13
674.163	18.87
674.35	19.23
674.538	19.64
674.725	20.26
674.912	20.71
675.1	20.44
675.287	20.51
675.474	21.43
675.662	20.24
675.849	19.91
676.036	22.21
676.223	23.33
676.411	24.62
676.598	23.94
676.785	23.1
676.972	23.12
677.159	22.13
677.346	21.35
677.533	20.92
677.721	21.48
677.908	21.8
678.095	22.1
678.282	20.33
678.469	19.7
678.656	19.94
678.843	20.72
679.03	21.72
679.217	23.42
679.404	23.91
679.591	22.87
679.778	22.78
679.964	22.83
680.151	21.35
680.338	22.96
680.525	23.04
680.712	23.58
680.899	23.27
681.086	24.18
681.272	22.85
681.459	21.73
681.646	22.78
681.833	23.43
682.02	23.51
682.206	24.74
682.393	24.01
682.58	24.89
682.766	23.55
682.953	23.63
683.14	21.65
683.326	21.83
683.513	22.44
683.7	22.48
683.886	21.54
684.073	21.53
684.259	20.5
684.446	19.66
684.632	19.24
684.819	21.39
685.005	20.96
685.192	21.49
685.378	20.6
685.565	22.12
685.751	22.76
685.938	22.95
686.124	22.3
686.31	21.87
686.497	22.76
686.683	22.99
686.87	20.46
687.056	21.05
687.242	20.84
687.429	20.5
687.615	20.39
687.801	19.94
687.987	21.14
688.174	20.86
688.36	21.89
688.546	22.33
688.732	21.78
688.918	22.55
689.105	22.2
689.291	20.91
689.477	22.08
689.663	21.6
689.849	20.76
690.035	19.74
690.221	20.75
690.407	21.74
690.593	22.93
690.779	23.24
690.965	24.5
691.151	23.84
691.337	23.87
691.523	23.24
691.709	22
691.895	23.33
692.081	24.45
692.267	23.13
692.453	22.48
692.639	23.68
692.825	21.4
693.011	20.4
693.196	21.14
693.382	22.87
693.568	22.85
693.754	23.19
693.94	21.8
694.125	19.42
694.311	20.38
694.497	19.71
694.682	18.7
694.868	19.27
695.054	19.64
695.239	18.21
695.425	18.01
695.611	18.31
695.796	17.41
695.982	17.98
696.168	19.22
696.353	19.08
696.539	19.53
696.724	17.95
696.91	17.78
697.095	16.73
697.281	17.3
697.466	16.37
697.652	16.91
697.837	18.49
698.023	18.04
698.208	17.06
698.393	18.23
698.579	18.36
698.764	18.25
698.949	19.53
699.135	21.23
699.32	22.1
699.505	22.11
699.691	22
699.876	22.29
700.061	21.59
700.246	21.19
700.432	21.49
700.617	20.84
700.802	20.9
700.987	20.15
701.172	17.91
701.358	16.85
701.543	18.2
701.728	16.44
701.913	15.7
702.098	16.81
702.283	20.16
702.468	19.61
702.653	22.73
702.838	23.54
703.023	24.17
703.208	25.88
703.393	26.18
703.578	26.24
703.763	27.6
703.948	26.23
704.133	24.6
704.318	25.05
704.503	24.03
704.688	21.64
704.873	21.31
705.057	22.12
705.242	22.27
705.427	23.9
705.612	23.17
705.797	24.09
705.981	23.92
706.166	28.69
706.351	27.39
706.536	27.63
706.72	26.77
706.905	27.01
707.09	26.24
707.274	25.49
707.459	25.28
707.644	26.8
707.828	27.02
708.013	29.12
708.197	27.25
708.382	27.11
708.567	28.12
708.751	29.94
708.936	30.91
709.12	30.25
709.305	29.82
709.489	28.84
709.673	28.27
709.858	27.29
710.042	28.51
710.227	27.66
710.411	27.65
710.596	26.92
710.78	25.87
710.964	25.04
711.149	25.92
711.333	26.05
711.517	26.65
711.702	27.15
711.886	27.52
712.07	23.22
712.254	23.48
712.438	24.21
712.623	22.32
712.807	22.38
712.991	21.51
713.175	22.22
713.359	24.32
713.544	25.39
713.728	23.75
713.912	23.73
714.096	24.8
714.28	26.53
714.464	25.05
714.648	26.16
714.832	26.14
715.016	27.46
715.2	27.74
715.384	24.41
715.568	24.42
715.752	25.69
715.936	24.9
716.12	26.24
716.304	24.8
716.488	27.02
716.671	25.67
716.855	25.84
717.039	26.92
717.223	24.8
717.407	25.79
717.59	25.4
717.774	24.12
717.958	25.98
718.142	25.56
718.325	23.37
718.509	21.88
718.693	24.01
718.877	24.34
719.06	23.75
719.244	22.34
719.428	24.7
719.611	23.53
719.795	25.92
719.978	26.35
720.162	24.65
720.345	25.47
720.529	23.96
720.713	23.18
720.896	22.19
721.08	23.46
721.263	23.13
721.446	21.64
721.63	18.67
721.813	16.74
721.997	13.35
722.18	15.29
722.364	16.76
722.547	15.98
722.73	15.72
722.914	15.25
723.097	12.79
723.28	14.77
723.464	13.83
723.647	15.68
723.83	15.03
724.013	18.87
724.197	20.37
724.38	17.78
724.563	18.15
724.746	21.02
724.929	22.33
725.112	25.29
725.296	24.65
725.479	25.77
725.662	24.97
725.845	25.94
726.028	22.33
726.211	20.1
726.394	24.29
726.577	26.04
726.76	24.27
726.943	23.37
727.126	20.59
727.309	24.19
727.492	23.65
727.675	25.56
727.858	23.43
728.041	24.54
728.224	26.46
728.407	21.89
728.589	24.23
728.772	25.31
728.955	25.1
729.138	25.18
729.321	20.87
729.503	22.73
729.686	23.91
729.869	23.72
730.052	25.02
730.234	25.52
730.417	28.02
730.6	25.77
730.782	26.86
730.965	27.66
731.148	26.87
731.33	30.46
731.513	28.67
731.695	27.37
731.878	28.72
732.061	28.06
732.243	28.07
732.426	26.69
732.608	27.51
732.791	26.02
732.973	25.35
733.156	25.84
733.338	23.49
733.52	22.94
733.703	23.72
733.885	23.52
734.068	24.15
734.25	21.18
734.432	24.52
734.615	24.77
734.797	26.86
734.979	27.93
735.162	32.13
735.344	32.45
735.526	34.89
735.708	37.99
735.891	41.16
736.073	42.57
736.255	45.66
736.437	44.95
736.619	42.95
736.802	42.32
736.984	44.53
737.166	42.98
737.348	43.35
737.53	42.31
737.712	39.88
737.894	37.66
738.076	36.74
738.258	34.46
738.44	34.41
738.622	37.74
738.804	36.11
738.986	34.4
739.168	33.67
739.35	32
739.532	38.08
739.714	38.8
739.896	41.3
740.078	40.65
740.259	40
740.441	39.75
740.623	38.81
740.805	41.44
740.987	43.81
741.168	43.13
741.35	45.84
741.532	37.73
741.714	36.45
741.895	30.18
742.077	28.35
742.259	29.19
742.44	30.61
742.622	31.39
742.804	27.65
742.985	22.47
743.167	22.09
743.348	20.36
743.53	21.99
743.711	23.98
743.893	30.57
744.075	30.36
744.256	31.05
744.438	28.54
744.619	24.42
744.8	25.44
744.982	28.15
745.163	31.06
745.345	29
745.526	33.57
745.707	33.24
745.889	32.76
746.07	34.83
746.252	34.31
746.433	34.62
746.614	39.77
746.795	40.49
746.977	39.71
747.158	39.1
747.339	39.53
747.52	35.61
747.702	34.61
747.883	35.63
748.064	36.89
748.245	35.36
748.426	35.81
748.607	35.79
748.788	38.23
748.97	38.91
749.151	37.1
749.332	41.56
749.513	44.47
749.694	45.87
749.875	40.45
750.056	40.07
750.237	41.01
750.418	38.91
750.599	36.64
750.78	36.23
750.96	37.05
751.141	36.74
751.322	35.58
751.503	37.04
751.684	35.99
751.865	39.23
752.046	39.52
752.226	37.83
752.407	39.88
752.588	37.24
752.769	36.13
752.949	35.21
753.13	35.31
753.311	34.48
753.492	29.55
753.672	31.61
753.853	29.51
754.034	29.11
754.214	32.12
754.395	36.88
754.575	42.23
754.756	41.4
754.937	44.3
755.117	46.6
755.298	46.08
755.478	51.4
755.659	50.52
755.839	51.94
756.02	50.81
756.2	50.36
756.381	45.9
756.561	43.69
756.741	46.83
756.922	42.18
757.102	40.23
757.283	40.35
757.463	37.27
757.643	33.58
757.823	31.48
758.004	33.97
758.184	35.23
758.364	35.38
758.545	38.82
758.725	31.68
758.905	30.12
759.085	30.78
759.265	29.28
759.446	27.83
759.626	29.72
759.806	27.93
759.986	28.56
760.166	27.31
760.346	26.83
760.526	24.24
760.706	26.07
760.886	32.34
761.066	29.89
761.246	29.17
761.426	30.84
761.606	31.02
761.786	32.71
761.966	28.8
762.146	28.43
762.326	30.26
762.506	28.44
762.686	25.66
762.866	23.85
763.046	24.96
763.225	26.8
763.405	25.38
763.585	25.79
763.765	24.4
763.945	26.68
764.124	24.65
764.304	23.1
764.484	25.49
764.664	30.81
764.843	28.99
765.023	32
765.203	34.28
765.382	36.21
765.562	35.04
765.741	39.2
765.921	37.97
766.101	43.78
766.28	44.05
766.46	43.76
766.639	39.92
766.819	38.03
766.998	33.9
767.178	32.83
767.357	31.74
767.537	32.01
767.716	32.72
767.896	33.73
768.075	33.34
768.254	30.37
768.434	30.21
768.613	34.19
768.792	41.93
768.972	43.09
769.151	44.45
769.33	44.21
769.51	46.29
769.689	46.89
769.868	44.73
770.047	40.4
770.226	46.38
770.406	45.67
770.585	45.81
770.764	40.71
770.943	44.32
771.122	40.98
771.301	45.11
771.48	41.46
771.66	34.03
771.839	41.73
772.018	41.01
772.197	37.06
772.376	41.29
772.555	42.68
772.734	44.03
772.913	41.72
773.092	35.25
773.271	39.25
773.449	44.6
773.628	52.75
773.807	46.36
773.986	47.76
774.165	51.82
774.344	53.71
774.523	49.37
774.701	51.37
774.88	52.95
775.059	59.98
775.238	56.54
775.417	58.08
775.595	60.03
775.774	58.9
775.953	57.84
776.131	54.62
776.31	53.65
776.489	58.78
776.667	58.13
776.846	57.21
777.025	60.29
777.203	59.66
777.382	57.44
777.56	60.77
777.739	66.08
777.917	67.87
778.096	71.92
778.274	71.16
778.453	68.94
778.631	64.92
778.81	66.9
778.988	58.21
779.166	56.71
779.345	50.57
779.523	36.66
779.702	40.03
779.88	40.52
780.058	41.43
780.237	41.93
780.415	41.88
780.593	45.88
780.771	43.75
780.95	39.73
781.128	35.89
781.306	37.04
781.484	44.84
781.662	39.47
781.841	37.33
782.019	25.06
782.197	16.78
782.375	15.38
782.553	7.52
782.731	8.31
782.909	19.36
783.087	28.18
783.265	29.65
783.443	30.95
783.621	30.21
783.799	32.8
783.977	36.64
784.155	40.72
784.333	39.35
784.511	40.65
784.689	44.07
784.867	40.67
785.045	43.87
785.223	43.01
785.4	35.73
785.578	42.37
785.756	43.08
785.934	52.43
786.112	52.14
786.289	46.76
786.467	49.19
786.645	49.01
786.823	46.51
787	41.81
787.178	44.12
787.356	43.05
787.533	34.56
787.711	30.02
787.889	29.1
788.066	29.8
788.244	34.27
788.421	28.98
788.599	25.72
788.776	26.08
788.954	29.57
789.131	28.31
789.309	38.76
789.486	48.26
789.664	52.01
789.841	49.33
790.019	48.43
790.196	53.87
790.373	58.86
790.551	58.7
790.728	61.34
790.906	64.81
791.083	79.07
791.26	64.06
791.437	52.78
791.615	48.38
791.792	44.58
791.969	51.06
792.146	34.51
792.324	39.13
792.501	36.19
792.678	35.87
792.855	29.64
793.032	19.33
793.209	14.02
793.387	16.26
793.564	22.69
793.741	27.18
793.918	24.91
794.095	40.92
794.272	35.73
794.449	38.35
794.626	38.94
794.803	42.65
794.98	42.8
795.157	49.49
795.334	47.6
795.511	44.62
795.688	46.19
795.864	48.55
796.041	43.02
796.218	53.28
796.395	51.07
796.572	52.66
796.749	41.61
796.925	41.01
797.102	41.81
797.279	42.15
797.456	42.87
797.632	36.52
797.809	33.85
797.986	32.27
798.162	29.14
798.339	29.71
798.516	31.53
798.692	38.45
798.869	36.1
799.046	36.41
799.222	47.41
799.399	46.01
799.575	52.24
799.752	59.13
799.928	64.83
800.105	57.63
800.281	65.35
800.458	65.59
800.634	73.69
800.811	83.31
800.987	82.46
801.163	76.7
801.34	83.11
801.516	78.59
801.692	62.27
801.869	57.03
802.045	65.17
802.221	60.31
802.398	56.48
802.574	55.16
802.75	47.89
802.926	46.43
803.103	45.79
803.279	46.37
803.455	51.15
803.631	64.09
803.807	73.97
803.983	70.48
804.16	67.04
804.336	72.18
804.512	66.81
804.688	77.61
804.864	76.49
805.04	78.68
805.216	65.36
805.392	52.12
805.568	50.11
805.744	37.05
805.92	47.88
806.096	49.65
806.272	52.65
806.448	53.34
806.623	56.37
806.799	60.69
806.975	62.33
807.151	60.15
807.327	71.85
807.503	66.39
807.678	78.57
807.854	61.17
808.03	63.75
808.206	55.94
808.381	60.51
808.557	69.69
808.733	63.67
808.908	68.64
809.084	67.06
809.26	45.62
809.435	37.9
809.611	24.66
809.787	40.56
809.962	38.74
810.138	31.67
810.313	18.02
810.489	8.33
810.664	13.2
810.84	-1.47
811.015	32.63
811.191	41.36
811.366	45.06
811.542	54.4
811.717	45.54
811.892	48.48
812.068	58.32
812.243	60.62
812.419	64.55
812.594	58.71
812.769	51.09
812.944	29.87
813.12	43.06
813.295	52.24
813.47	35.27
813.645	39.08
813.821	46.5
813.996	47.42
814.171	63.36
814.346	69.35
814.521	57.49
814.697	71.11
814.872	75.78
815.047	64
815.222	52.52
815.397	54.78
815.572	61.78
815.747	56.41
815.922	57.04
816.097	48.1
816.272	36.99
816.447	41.13
816.622	30.7
816.797	26.24
816.972	28.73
817.147	31.8
817.322	38.59
817.496	35.36
817.671	31.44
817.846	31.91
818.021	39.66
818.196	39.43
818.371	43.84
818.545	49.04
818.72	48.88
818.895	44.43
819.069	38.66
819.244	31.76
819.419	27.49
819.594	26.48
819.768	25.55
819.943	19.46
820.117	19.47
820.292	16.63
820.467	16.05
820.641	16.05
820.816	17.61
820.99	18.22
821.165	19.11
821.339	18.47
821.514	19.38
821.688	17.62
821.863	19.08
822.037	18.51
822.212	19.1
822.386	20.21
822.56	20.11
822.735	18.74
822.909	20.52
823.084	20.99
823.258	23
823.432	22.69
823.606	23.6
823.781	22.53
823.955	26.28
824.129	27.13
824.303	24.67
824.478	26.59
824.652	30.3
824.826	30.81
825	29.39
825.174	26.73
825.348	24.97
825.523	26.55
825.697	24.85
825.871	21.3
826.045	25.01
826.219	27.58
826.393	28.15
826.567	26.42
826.741	27.86
826.915	29.1
827.089	30.05
827.263	32.15
827.437	36.58
827.611	36.18
827.784	46.17
827.958	36.6
828.132	37.37
828.306	34.95
828.48	37.31
828.654	41.04
828.827	42.74
829.001	49.14
829.175	61.02
829.349	54.75
829.522	69.37
829.696	60.31
829.87	73.02
830.044	71.16
830.217	68.03
830.391	71.15
830.565	58.96
830.738	64.5
830.912	58.01
831.085	55.61
831.259	59.23
831.432	45.68
831.606	44.64
831.779	34.51
831.953	30.03
832.126	36.41
832.3	35.02
832.473	34.74
832.647	31.79
832.82	28.83
832.994	22.38
833.167	20.57
833.34	20.53
833.514	20.9
833.687	27.16
833.86	32.07
834.034	28.05
834.207	28.13
834.38	30.66
834.553	37.53
834.727	41.14
834.9	43.99
835.073	55.8
835.246	50.57
835.419	44.47
835.593	36.23
835.766	48.54
835.939	60.86
836.112	72.94
836.285	75.92
836.458	32.28
836.631	25.19
836.804	44.31
836.977	33.58
837.15	48.15
837.323	60.11
837.496	94.71
837.669	80.16
837.842	65.54
838.015	52.19
838.188	33.82
838.361	49.58
838.533	45.69
838.706	36.3
838.879	29.54
839.052	30.94
839.225	34.22
839.398	26.41
839.57	31.25
839.743	34.19
839.916	24.37
840.088	33.14
840.261	23.69
840.434	20.89
840.607	20.8
840.779	26.62
840.952	19.13
841.124	9.62
841.297	9.65
841.47	-59.53
841.642	-20.43
841.815	-12.55
841.987	-14.88
842.16	13.19
842.332	40.85
842.505	47.99
842.677	37.86
842.85	33.11
843.022	61.62
843.194	67.29
843.367	99.34
843.539	83.99
843.712	90.2
843.884	78.36
844.056	65.81
844.229	73.94
844.401	78.91
844.573	106.89
844.745	155
844.918	129.22
845.09	212.27
845.262	164.87
845.434	196.17
845.606	491.07
845.779	-1484.09
845.951	17075
846.123	-2111.76
846.295	1628.57
846.467	-1618.42
846.639	-2352.17
846.811	839.77
846.983	378.97
847.155	662.5
847.327	605.66
847.499	227.76
847.671	193.83
847.843	233.64
848.015	222.71
848.187	239.59
848.359	198.63
848.531	302.42
848.703	354
848.875	415.29
849.047	2095
849.218	5168.75
849.39	-982.72
849.562	17720
849.734	-3271.43
849.905	12885.71
850.077	-945.95
850.249	-408.57
850.421	995.24
850.592	573.17
850.764	236.95
850.936	140.06
851.107	98.7
851.279	108.98
851.451	108.25
851.622	107.82
851.794	120.97
851.965	166.87
852.137	162.73
852.308	1588.89
852.48	-135.19
852.651	-152.88
852.823	-338.89
852.994	-2162.96
853.166	4662.5
853.337	-466.67
853.509	128.64
853.68	500
853.851	74.44
854.023	67.83
854.194	89.83
854.365	109.91
854.537	62.21
854.708	58.24
854.879	-12.86
855.05	63.9
855.222	89.55
855.393	222.44
855.564	179.79
855.735	152.25
855.906	176.17
856.078	257.46
856.249	149.3
856.42	195.3
856.591	236.69
856.762	-2205.26
856.933	-1173.08
857.104	-437.33
857.275	9750
857.446	576.92
857.617	-7783.33
857.788	22700
857.959	258.29
858.13	679.59
858.301	213.37
858.472	212.78
858.643	145.65
858.814	127.36
858.985	115.85
859.155	71.35
859.326	71.29
859.497	62.66
859.668	123.28
859.839	181.25
860.009	183.33
860.18	166.82
860.351	131.54
860.522	117.07
860.692	124.5
860.863	142.07
861.034	140.64
861.204	184.51
861.375	400.78
861.546	207.77
861.716	101.02
861.887	114.13
862.057	444.12
862.228	666.67
862.398	-49.12
862.569	-907.84
862.739	-965.91
862.91	657.61
863.08	6000
863.251	-1876.19
863.421	-433.33
863.592	-6087.5
863.762	-587.01
863.932	1387.8
864.103	-1191.11
864.273	600
864.443	477.38
864.614	186.21
864.784	168.82
864.954	104.18
865.125	78.67
865.295	87.39
865.465	134
865.635	112.22
865.805	74.61
865.976	56.51
866.146	56.13
866.316	54.32
866.486	66.38
866.656	63.45
866.826	78.69
866.996	84.86
867.166	95.09
867.336	107.63
867.506	100.34
867.676	118.67
867.846	139.36
868.016	128.67
868.186	202.12
868.356	897.59
868.526	716.16
868.696	-3982.35
868.866	-1029.85
869.036	-2333.33
869.206	1400
869.376	-2177.78
869.545	2680
869.715	3395.24
869.885	-980.88
870.055	-609.4
870.224	315.95
870.394	355.45
870.564	528.68
870.734	464.29
870.903	266.2
871.073	465.49
871.243	367.2
871.412	359.63
871.582	664.13
871.751	-1536.36
871.921	-103.8
872.091	-14.59
872.26	-37.39
872.43	-17.8
872.599	-92.73
872.769	-54.63
872.938	-76.99
873.108	-41.11
873.277	-35.48
873.446	1807.69
873.616	-330.11
873.785	187.16
873.955	168.91
874.124	173.55
874.293	298.97
874.463	1270.27
874.632	-671.01
874.801	-314.55
874.971	-40.6
875.14	-23.04
875.309	-3.84
875.478	-23.63
875.647	16.83
875.817	68.05
875.986	16.67
876.155	-3200
876.324	14.39
876.493	11.79
876.662	66.67
876.831	91.36
877	93.71
877.17	97.32
877.339	166.25
877.508	155.68
877.677	0
877.846	-395.83
878.015	-426.67
878.184	-188.98
878.352	-7233.33
878.521	598.53
878.69	165.69
878.859	128.71
879.028	103.36
879.197	117.19
879.366	93.65
879.534	73.39
879.703	88.27
879.872	63.77
880.041	62.95
880.21	48.71
880.378	46.34
880.547	45
880.716	43.64
880.884	41.78
881.053	38.05
881.222	37.2
881.39	31.54
881.559	31.68
881.727	35.09
881.896	25.92
882.065	24.72
882.233	24.62
882.402	21.87
882.57	16.73
882.739	16.23
882.907	19.12
883.076	3.57
883.244	4.87
883.412	-6.02
883.581	0.69
883.749	16.95
883.918	23.1
884.086	7.87
884.254	23.16
884.423	41.88
884.591	47.74
884.759	50
884.927	64.57
885.096	81.9
885.264	82.86
885.432	88.56
885.6	97.09
885.769	75.84
885.937	114.91
886.105	88.17
886.273	103.51
886.441	101.86
886.609	96.81
886.777	116.02
886.945	117.28
887.113	116.34
887.281	120.36
887.449	109.19
887.617	127.84
887.785	124.81
887.953	136.62
888.121	115.87
888.289	199.17
888.457	319.23
888.625	113.1
888.793	-239.47
888.961	787.5
889.129	3075
889.296	564.06
889.464	721.15
889.632	593.85
889.8	414.81
889.967	235.85
890.135	214.41
