Data from JASIL_3231_Reflection_1.txt Node
Date: Mon Nov 16 20:12:41 EST 2015
User: Geneva
Spectrometer: USB4E03002
Autoset integration time: false
Trigger mode: 4
Integration Time (sec): 1.000000E-1
Scans to average: 10
Electric dark correction enabled: false
Nonlinearity correction enabled: false
Boxcar width: 5
Stray light correction enabled: false
XAxis mode: Wavelengths
Stop averaging: false
Number of Pixels in Spectrum: 3648
>>>>>Begin Spectral Data<<<<<
177.575	1398.04
177.794	2656.06
178.014	1522.73
178.233	1369.59
178.452	970.71
178.672	1818.75
178.891	2351.54
179.11	2021.66
179.33	2233.57
179.549	1445.09
179.768	1501.73
179.987	1013.35
180.207	779.87
180.426	1127.98
180.645	1307.74
180.864	1516.27
181.084	992.06
181.303	1161.42
181.522	1280.22
181.741	1033.51
181.96	873.3
182.179	1111.88
182.398	1465.93
182.618	5777.94
182.837	4608.64
183.056	4024.72
183.275	2223.75
183.494	4474.67
183.713	1952.15
183.932	1180.06
184.151	1684.91
184.37	1787.11
184.589	1563.47
184.808	1646.19
185.027	999.14
185.246	843.03
185.465	867.81
185.684	1634.56
185.903	1173.68
186.122	1307.91
186.341	5260.94
186.56	2211.33
186.779	-4203.9
186.998	-3323.23
187.216	-1862.79
187.435	-8148.78
187.654	-4400
187.873	-6028.57
188.092	-9372.22
188.311	-32430
188.53	-3204.08
188.748	4600
188.967	-5636.07
189.186	4544.74
189.405	2042.35
189.623	1684.21
189.842	3242.86
190.061	4900
190.28	2056.63
190.498	2646.09
190.717	4954.41
190.936	3389.11
191.154	7634.88
191.373	4179.75
191.592	3594.44
191.81	4250
192.029	3431.52
192.248	-7641.03
192.466	-9055.88
192.685	-1235.81
192.904	-1794.12
193.122	-1252.09
193.341	-2963.33
193.559	-1768.83
193.778	-2405.26
193.996	5556.6
194.215	-6421.74
194.433	-1492.71
194.652	-1439.61
194.87	-1483.17
195.089	-2818.92
195.307	-1720
195.526	-2331.29
195.744	-1622.37
195.963	-1271.17
196.181	-976.97
196.399	-614.23
196.618	-483.74
196.836	-1063.52
197.055	-1040.33
197.273	-53500
197.491	-9881.82
197.71	2430.43
197.928	7737.5
198.146	4907.94
198.365	2025.97
198.583	1105.45
198.801	824.06
199.019	579.48
199.238	800
199.456	738.24
199.674	1109.93
199.892	970.86
200.111	1057.99
200.329	837.91
200.547	1066.56
200.765	1700
200.983	11596.55
201.202	-3135.58
201.42	-2506.35
201.638	-5468.85
201.856	13811.54
202.074	3318.69
202.292	7802.17
202.51	-5912.07
202.728	6107.27
202.946	3221.5
203.165	1767.68
203.383	1654.81
203.601	1285.09
203.819	2314.86
204.037	4528.77
204.255	9205.88
204.473	-4959.68
204.691	-13527.27
204.909	-17535.29
205.127	-2567.5
205.345	7211.63
205.562	2145.95
205.78	1386.61
205.998	1100.94
206.216	881.88
206.434	1069.49
206.652	989.71
206.87	1210
207.088	940.95
207.306	1368.71
207.523	2222.4
207.741	6994.74
207.959	24837.5
208.177	-10569.44
208.395	-2179.39
208.612	-2914.75
208.83	3019.13
209.048	3107.83
209.266	348200
209.483	-3227.18
209.701	16715
209.919	2535.71
210.136	1162.17
210.354	822.37
210.572	637.52
210.79	502.81
211.007	505.41
211.225	612.5
211.442	620.13
211.66	468.71
211.878	522.25
212.095	438.32
212.313	440.63
212.53	556.55
212.748	639.83
212.966	819.54
213.183	1099.08
213.401	973.22
213.618	1072.76
213.836	907.8
214.053	1021.6
214.271	628.55
214.488	701.05
214.705	772.83
214.923	620.19
215.14	1113.28
215.358	805.51
215.575	1100.34
215.793	1045.91
216.01	634.9
216.227	740.6
216.445	738.69
216.662	945.64
216.879	1086.77
217.097	666.33
217.314	635.06
217.531	514.6
217.749	574.53
217.966	504.73
218.183	559.73
218.4	1236.74
218.618	940.11
218.835	861.93
219.052	791.45
219.269	851.26
219.487	2328.38
219.704	3417.48
219.921	1857
220.138	1645.25
220.355	980.62
220.572	1693.98
220.79	1074.14
221.007	1256.49
221.224	1247.33
221.441	2042.7
221.658	1762.61
221.875	1591.36
222.092	2407.1
222.309	60250
222.526	3612.12
222.743	8300
222.96	1886.96
223.177	670.23
223.394	625.47
223.611	561.79
223.828	577.5
224.045	448.3
224.262	356.9
224.479	352.97
224.696	309.01
224.913	304.56
225.13	308.77
225.347	262.39
225.564	316.22
225.781	274.37
225.997	268.15
226.214	208.98
226.431	187.87
226.648	180.79
226.865	161.04
227.082	148.65
227.298	135.78
227.515	114.02
227.732	103.82
227.949	89.21
228.165	81.93
228.382	77.36
228.599	72.95
228.816	74.4
229.032	70.45
229.249	73.56
229.466	71.35
229.682	75.04
229.899	85.45
230.116	90.38
230.332	98.8
230.549	103.03
230.765	112.03
230.982	120.93
231.199	134.85
231.415	141.58
231.632	144.37
231.848	141.16
232.065	147.27
232.281	147.28
232.498	151.43
232.714	163.26
232.931	167.85
233.147	159.6
233.364	158.96
233.58	154.32
233.797	145.73
234.013	134.95
234.23	138.93
234.446	132.78
234.662	127.59
234.879	129.62
235.095	117.18
235.312	115.34
235.528	122.6
235.744	125.51
235.961	122.54
236.177	128.97
236.393	135.55
236.61	140.8
236.826	141.55
237.042	150.45
237.258	143.15
237.475	162.25
237.691	166.39
237.907	155.1
238.123	145.88
238.339	144.26
238.556	142.44
238.772	140.68
238.988	135.36
239.204	124.74
239.42	114.09
239.636	113.43
239.853	100.53
240.069	92.75
240.285	88.26
240.501	85.48
240.717	81.05
240.933	72.89
241.149	67.25
241.365	63
241.581	58.85
241.797	57.59
242.013	54.4
242.229	55.17
242.445	54.42
242.661	55
242.877	57.08
243.093	56.87
243.309	58.27
243.525	61.23
243.741	61.47
243.957	65.6
244.173	63.13
244.388	62.7
244.604	60.06
244.82	54.05
245.036	50.48
245.252	44.39
245.468	42.53
245.683	40.93
245.899	36.57
246.115	35.24
246.331	32.71
246.547	32.38
246.762	32.17
246.978	30.76
247.194	31.8
247.409	32.91
247.625	34.97
247.841	35.16
248.057	37.08
248.272	39.71
248.488	42.23
248.703	44.22
248.919	45.96
249.135	48.26
249.35	53.73
249.566	58.34
249.782	61.96
249.997	64.22
250.213	64.01
250.428	61.62
250.644	60.97
250.859	62.32
251.075	63.68
251.29	63.54
251.506	64.27
251.721	64.51
251.937	63.56
252.152	59.76
252.368	57.91
252.583	61.98
252.798	65.57
253.014	68.68
253.229	69.19
253.445	71.61
253.66	77.8
253.875	79.88
254.091	81.57
254.306	85.13
254.521	91.33
254.737	95.67
254.952	91.68
255.167	90.95
255.383	90.21
255.598	89.25
255.813	82.42
256.028	80.49
256.244	79.44
256.459	72.87
256.674	65.6
256.889	62.35
257.104	58.43
257.32	56.27
257.535	50.22
257.75	45.35
257.965	43.64
258.18	40.49
258.395	36.42
258.61	32.13
258.826	30.98
259.041	29.76
259.256	27.64
259.471	26.77
259.686	25.56
259.901	25.85
260.116	26.16
260.331	25.27
260.546	26.23
260.761	28.08
260.976	30.75
261.191	32.81
261.406	35.24
261.621	36.56
261.836	37.37
262.05	40.92
262.265	44.13
262.48	44.65
262.695	48.19
262.91	51.93
263.125	50.33
263.34	49.19
263.555	50.72
263.769	49.49
263.984	51.97
264.199	54.27
264.414	52.19
264.629	50.65
264.843	53
265.058	52.52
265.273	48.33
265.488	47.48
265.702	45.96
265.917	44.22
266.132	44.83
266.346	44.8
266.561	43.48
266.776	43.81
266.99	43.17
267.205	41.54
267.42	39.63
267.634	40.48
267.849	39.49
268.063	41.85
268.278	42.55
268.492	40.92
268.707	40.37
268.922	40.27
269.136	39
269.351	39.52
269.565	39.19
269.78	37.48
269.994	36.14
270.209	36.47
270.423	34.85
270.637	32.27
270.852	33.24
271.066	31.46
271.281	31.39
271.495	32.95
271.709	31.33
271.924	31.59
272.138	34.06
272.353	34.07
272.567	33.46
272.781	33.85
272.996	35.33
273.21	35.81
273.424	37.26
273.638	39.47
273.853	39.25
274.067	41.18
274.281	42.13
274.495	41.63
274.71	42.86
274.924	45.21
275.138	44.01
275.352	44.76
275.566	43.26
275.781	44.52
275.995	43.33
276.209	43.62
276.423	42.17
276.637	41.51
276.851	40.51
277.065	41.23
277.279	40.17
277.493	41.31
277.707	41.33
277.921	43.15
278.135	41.86
278.349	42.1
278.563	42.21
278.777	44.08
278.991	44.32
279.205	45.03
279.419	45.2
279.633	46.53
279.847	46.44
280.061	43.89
280.275	42.41
280.489	42.15
280.703	38.55
280.917	37.78
281.131	36.14
281.344	36.03
281.558	35.01
281.772	34.17
281.986	32.69
282.2	32.09
282.414	32.96
282.627	31.71
282.841	32.34
283.055	33.11
283.269	32.94
283.482	32.94
283.696	31.05
283.91	30.39
284.123	29.21
284.337	28.11
284.551	26.82
284.764	27.22
284.978	27.27
285.192	24.88
285.405	25.3
285.619	24.55
285.833	23.91
286.046	25.49
286.26	26.46
286.473	26.81
286.687	27.15
286.9	27.74
287.114	28.26
287.327	27.97
287.541	29.51
287.754	29.69
287.968	30.29
288.181	30.19
288.395	29.38
288.608	28.69
288.822	28.4
289.035	28.52
289.248	29.98
289.462	29.14
289.675	29.67
289.889	29.78
290.102	29.09
290.315	29.14
290.529	29.52
290.742	29.96
290.955	30.52
291.169	30.85
291.382	31.92
291.595	31.65
291.808	31.27
292.022	32.03
292.235	32.11
292.448	33.16
292.661	33.62
292.875	33.32
293.088	32.91
293.301	33.86
293.514	33.06
293.727	32.36
293.94	30.61
294.153	30.58
294.367	30.61
294.58	29.14
294.793	27.6
295.006	26.72
295.219	26.3
295.432	25.48
295.645	23.99
295.858	23.59
296.071	23.02
296.284	22.71
296.497	21.74
296.71	21.42
296.923	21.6
297.136	22.46
297.349	22.09
297.562	22.44
297.775	22.97
297.988	23.35
298.201	24.34
298.414	24.06
298.626	25.59
298.839	26.56
299.052	27.06
299.265	28.4
299.478	27.64
299.691	28.34
299.903	28.22
300.116	28.42
300.329	28.11
300.542	28.88
300.755	30.03
300.967	29.85
301.18	30
301.393	28.95
301.605	29.33
301.818	30.47
302.031	30.83
302.243	29.33
302.456	29.94
302.669	30.47
302.881	30.85
303.094	31.05
303.307	30.62
303.519	30.13
303.732	31.42
303.944	31.47
304.157	32.09
304.37	31.47
304.582	34.09
304.795	32.63
305.007	32.28
305.22	30.87
305.432	31.53
305.645	31.62
305.857	31.97
306.069	31.65
306.282	30.35
306.494	29.79
306.707	29.9
306.919	28.84
307.132	29.7
307.344	30.54
307.556	30.24
307.769	29.39
307.981	29.6
308.193	29.02
308.406	28.62
308.618	29.95
308.83	29.07
309.043	29.14
309.255	29.42
309.467	29.09
309.679	28.54
309.892	27.94
310.104	27.66
310.316	26.79
310.528	27.02
310.74	26.41
310.953	25.68
311.165	26.13
311.377	25.98
311.589	25.11
311.801	24.05
312.013	24.64
312.225	25.61
312.437	25.86
312.649	26.43
312.862	26.76
313.074	27.98
313.286	28.38
313.498	29.33
313.71	30.18
313.922	32.16
314.134	34.12
314.346	34.38
314.558	34.84
314.77	35.89
314.982	36.19
315.193	38.19
315.405	38.51
315.617	38.94
315.829	37.87
316.041	36.6
316.253	35.4
316.465	35.78
316.677	35.45
316.888	34.53
317.1	33.8
317.312	32.67
317.524	31.85
317.736	32.28
317.947	31.68
318.159	33.49
318.371	35.52
318.583	37.68
318.794	37.42
319.006	37.84
319.218	40.45
319.43	40.74
319.641	42.44
319.853	42.93
320.064	44.19
320.276	44.67
320.488	43.77
320.699	44.82
320.911	44.86
321.123	46.05
321.334	46.13
321.546	45.52
321.757	46.09
321.969	46.09
322.18	45.03
322.392	41.9
322.603	41.63
322.815	40.78
323.026	37.66
323.238	36.12
323.449	34.07
323.661	34.39
323.872	32.4
324.083	31.48
324.295	30.92
324.506	29.45
324.718	29.86
324.929	28.96
325.14	29.36
325.352	30.61
325.563	31.16
325.774	31.49
325.986	30.76
326.197	32.11
326.408	33.07
326.62	33.37
326.831	34.82
327.042	35.3
327.253	36.91
327.464	37.5
327.676	37.58
327.887	38.14
328.098	38.33
328.309	37.63
328.52	35.72
328.732	34.1
328.943	35.08
329.154	35.4
329.365	35.95
329.576	35.43
329.787	35.13
329.998	34.82
330.209	33.8
330.42	33.68
330.631	35.47
330.842	36.92
331.053	37.08
331.264	37.48
331.475	36.54
331.686	36.48
331.897	36.58
332.108	36.36
332.319	37.1
332.53	36.27
332.741	35.45
332.952	34.88
333.163	35.04
333.374	34.95
333.585	34.08
333.795	34.27
334.006	33.9
334.217	33.47
334.428	33.49
334.639	33.75
334.849	34.45
335.06	35.82
335.271	36.36
335.482	35.94
335.692	36.64
335.903	36.55
336.114	35.69
336.325	35.91
336.535	36.2
336.746	37.39
336.957	35.96
337.167	36.02
337.378	36.54
337.589	36.63
337.799	37.96
338.01	38.14
338.22	37.92
338.431	38.28
338.642	39.45
338.852	38.62
339.063	37.01
339.273	37.83
339.484	38.3
339.694	37.6
339.905	37.62
340.115	35.93
340.326	35.69
340.536	35.44
340.746	35.45
340.957	33.53
341.167	34.44
341.378	34.29
341.588	34.96
341.799	34.09
342.009	33.68
342.219	32.76
342.43	33.68
342.64	34.25
342.85	34.34
343.061	34.51
343.271	35.48
343.481	34.78
343.691	35.17
343.902	34.3
344.112	33.27
344.322	32.88
344.532	32.35
344.743	32.06
344.953	30.74
345.163	30.88
345.373	31.31
345.583	30.28
345.793	30.01
346.004	29.89
346.214	30.11
346.424	31.01
346.634	31.46
346.844	32.61
347.054	32.64
347.264	33.54
347.474	33.14
347.684	32.68
347.894	33.44
348.104	32.54
348.314	32.69
348.524	32.32
348.734	32.11
348.944	32.83
349.154	31.66
349.364	32.08
349.574	31.09
349.784	32.36
349.994	32.93
350.204	31.69
350.413	33.1
350.623	33.49
350.833	33.37
351.043	34.14
351.253	33.09
351.463	33.15
351.672	33.06
351.882	33.34
352.092	33.63
352.302	33.63
352.511	34.17
352.721	32.77
352.931	32.99
353.141	33.48
353.35	33.12
353.56	33.65
353.77	33.43
353.979	33.03
354.189	31.96
354.399	30.45
354.608	29.55
354.818	29.61
355.027	31.13
355.237	30.44
355.447	29.76
355.656	29.52
355.866	29.34
356.075	29.76
356.285	29.37
356.494	30.9
356.704	31.03
356.913	31.56
357.123	31.24
357.332	30.56
357.542	30.38
357.751	30.54
357.96	30.83
358.17	30.79
358.379	31.06
358.589	31.05
358.798	29.96
359.007	28.73
359.217	28.46
359.426	28.04
359.635	27.89
359.845	26.96
360.054	26.2
360.263	25.59
360.472	25.15
360.682	24.06
360.891	23.99
361.1	23.09
361.309	23.26
361.519	22.21
361.728	22.3
361.937	21.67
362.146	22.02
362.355	22.1
362.564	21.78
362.774	21.83
362.983	22.47
363.192	22.74
363.401	24.07
363.61	24.32
363.819	25.15
364.028	24.93
364.237	25.79
364.446	26.38
364.655	26.85
364.864	27.49
365.073	27.18
365.282	26.93
365.491	26.76
365.7	26.52
365.909	26.57
366.118	27.31
366.327	27.69
366.536	26.91
366.745	26.89
366.954	25.86
367.162	25.94
367.371	26.54
367.58	27.36
367.789	27.39
367.998	27.57
368.207	28.14
368.415	27
368.624	26.85
368.833	27.86
369.042	27.57
369.25	28.9
369.459	28.68
369.668	28.49
369.877	27.06
370.085	26.48
370.294	26.42
370.503	26.02
370.711	26.49
370.92	26.81
371.129	26.17
371.337	25.31
371.546	24.25
371.754	24.4
371.963	24.37
372.171	24.9
372.38	24.72
372.589	23.92
372.797	23.61
373.006	22.91
373.214	23.2
373.423	23.57
373.631	24.54
373.84	25.35
374.048	24.88
374.256	24.57
374.465	24.75
374.673	25.68
374.882	26.42
375.09	26.39
375.298	26.1
375.507	25.55
375.715	25.1
375.923	23.64
376.132	23.35
376.34	23.49
376.548	23.11
376.757	22.47
376.965	21.97
377.173	21.88
377.381	22.34
377.59	23.64
377.798	23.56
378.006	23.33
378.214	24.94
378.423	25.35
378.631	24.92
378.839	26.25
379.047	26.96
379.255	26.94
379.463	27.4
379.671	27.85
379.879	26.82
380.088	26.96
380.296	27.26
380.504	27.46
380.712	27.59
380.92	28.95
381.128	27.98
381.336	27.15
381.544	27.39
381.752	27.45
381.96	26.91
382.168	27.84
382.376	28.16
382.584	28.44
382.791	27.59
382.999	26.37
383.207	25.69
383.415	25.67
383.623	26.13
383.831	26.09
384.039	25.93
384.247	25.68
384.454	25.13
384.662	24.71
384.87	25.08
385.078	24.8
385.285	25.02
385.493	24.58
385.701	24.06
385.909	23.92
386.116	24.09
386.324	23.32
386.532	23.5
386.739	23.16
386.947	22.78
387.155	22.81
387.362	23.94
387.57	24.93
387.778	25.69
387.985	26.35
388.193	27.19
388.4	26.7
388.608	26.92
388.816	26.63
389.023	26.86
389.231	27.31
389.438	26.71
389.646	26.01
389.853	25.21
390.061	24.41
390.268	23.3
390.475	21.98
390.683	22.42
390.89	22.87
391.098	23.44
391.305	23.61
391.512	23.03
391.72	22.79
391.927	22.36
392.135	22.21
392.342	21.71
392.549	22.64
392.756	22.8
392.964	22.54
393.171	22.74
393.378	22.18
393.586	21.6
393.793	22.28
394	22.12
394.207	22.11
394.414	22.46
394.622	23.11
394.829	22.7
395.036	23.35
395.243	23.77
395.45	23.2
395.657	23.63
395.864	24.4
396.072	24.13
396.279	24.56
396.486	23.92
396.693	23.99
396.9	24.17
397.107	24.74
397.314	24.49
397.521	24.13
397.728	24.63
397.935	24.5
398.142	24.64
398.349	24.85
398.556	24.98
398.763	26.55
398.97	26.03
399.177	25.86
399.383	26.07
399.59	26.2
399.797	26.18
400.004	26.07
400.211	25.96
400.418	25.31
400.625	25.41
400.831	24.86
401.038	24.52
401.245	24.51
401.452	24.37
401.658	24.18
401.865	24.05
402.072	24.15
402.279	23.12
402.485	23.09
402.692	23.2
402.899	23.41
403.105	23.52
403.312	23.05
403.519	23.47
403.725	23.24
403.932	23.18
404.138	22.88
404.345	22.65
404.552	23.43
404.758	23.38
404.965	23.97
405.171	23.42
405.378	23.32
405.584	23.56
405.791	23.26
405.997	24.03
406.204	24.63
406.41	25.18
406.617	25.07
406.823	25.02
407.029	24.88
407.236	24.38
407.442	24.68
407.649	25.58
407.855	24.86
408.061	25
408.268	24.46
408.474	23.18
408.68	22.73
408.887	23.1
409.093	23.21
409.299	23.26
409.505	22.39
409.712	21.8
409.918	21
410.124	21.22
410.33	21.11
410.537	21.13
410.743	22.22
410.949	22.02
411.155	22.16
411.361	21.25
411.567	21.91
411.773	23.18
411.98	23.39
412.186	23.84
412.392	23.87
412.598	23.95
412.804	23.84
413.01	22.78
413.216	23.05
413.422	22.59
413.628	22.98
413.834	22.92
414.04	22.36
414.246	22.56
414.452	22.34
414.658	22.7
414.864	22.82
415.07	22.73
415.275	23.05
415.481	22.91
415.687	22.74
415.893	22.97
416.099	21.99
416.305	21.54
416.511	20.87
416.716	20.49
416.922	20.04
417.128	19.99
417.334	20.02
417.539	19.45
417.745	19.45
417.951	19.48
418.157	19.29
418.362	19.6
418.568	19.82
418.774	20.12
418.979	20.28
419.185	20.05
419.391	19.69
419.596	19.53
419.802	19.61
420.008	19.32
420.213	18.86
420.419	18.73
420.624	18.32
420.83	17.96
421.035	17.64
421.241	17.35
421.446	17.34
421.652	17.27
421.857	17.12
422.063	17.06
422.268	17.07
422.474	17.37
422.679	17.42
422.885	17.53
423.09	17.74
423.295	17.99
423.501	18.18
423.706	18.4
423.911	18.57
424.117	18.61
424.322	18.77
424.527	18.84
424.733	18.79
424.938	19
425.143	18.86
425.349	18.85
425.554	18.71
425.759	18.82
425.964	18.64
426.169	18.64
426.375	18.61
426.58	18.8
426.785	18.75
426.99	18.92
427.195	18.53
427.4	19.13
427.605	19.49
427.811	19.51
428.016	19.62
428.221	20.11
428.426	19.95
428.631	20.54
428.836	20.16
429.041	20.5
429.246	20.72
429.451	20.95
429.656	21.05
429.861	21.08
430.066	21.68
430.271	21.83
430.476	21.91
430.681	21.56
430.886	21.22
431.09	21.66
431.295	21.33
431.5	21.02
431.705	21.08
431.91	20.87
432.115	20.95
432.32	21.19
432.524	20.62
432.729	19.99
432.934	20.38
433.139	20.51
433.343	20.17
433.548	20.49
433.753	20.36
433.958	20.33
434.162	20.34
434.367	20
434.572	19.45
434.776	19.77
434.981	20.08
435.186	20.4
435.39	20.53
435.595	20.9
435.799	20.84
436.004	21.06
436.209	21.14
436.413	21.11
436.618	21.14
436.822	21.08
437.027	21.14
437.231	21.19
437.436	20.99
437.64	20.72
437.845	20.17
438.049	19.83
438.253	19.79
438.458	19.74
438.662	19.48
438.867	19.15
439.071	19.21
439.275	18.91
439.48	18.63
439.684	18.49
439.888	18.44
440.093	18.56
440.297	18.69
440.501	18.86
440.706	18.75
440.91	18.95
441.114	19.19
441.318	19.49
441.523	19.43
441.727	19.69
441.931	19.72
442.135	19.74
442.339	19.84
442.543	19.9
442.748	19.8
442.952	19.81
443.156	19.52
443.36	19.31
443.564	18.99
443.768	18.93
443.972	18.76
444.176	18.8
444.38	18.64
444.584	18.56
444.788	18.47
444.992	18.09
445.196	17.97
445.4	18.01
445.604	17.86
445.808	17.77
446.012	17.76
446.216	17.62
446.42	17.69
446.624	17.69
446.828	17.61
447.032	17.63
447.235	17.96
447.439	17.96
447.643	18.02
447.847	18.49
448.051	18.66
448.254	18.85
448.458	19.33
448.662	19.37
448.866	19.57
449.069	19.77
449.273	19.84
449.477	19.82
449.681	19.99
449.884	20.25
450.088	20.04
450.292	19.95
450.495	20.18
450.699	20.09
450.902	20.07
451.106	20
451.31	20.17
451.513	20.09
451.717	19.96
451.92	20.33
452.124	20.57
452.327	20.56
452.531	20.4
452.734	20.43
452.938	20.68
453.141	20.72
453.345	21.04
453.548	21.11
453.752	21.51
453.955	21.78
454.158	21.33
454.362	21
454.565	21.01
454.769	21.41
454.972	21.3
455.175	20.84
455.379	20.84
455.582	20.47
455.785	20.32
455.988	20.28
456.192	19.72
456.395	20.01
456.598	19.87
456.801	19.99
457.005	20
457.208	19.91
457.411	19.94
457.614	19.59
457.817	19.33
458.021	18.96
458.224	18.29
458.427	18.34
458.63	17.89
458.833	18.04
459.036	17.98
459.239	17.62
459.442	17.4
459.645	17.52
459.848	17.61
460.051	17.81
460.254	17.63
460.457	17.98
460.66	17.97
460.863	18.16
461.066	18.22
461.269	18.16
461.472	18.47
461.675	18.91
461.878	19
462.081	19.35
462.284	19.54
462.486	20.48
462.689	20.45
462.892	21
463.095	21.14
463.298	21.15
463.5	22
463.703	22.03
463.906	21.68
464.109	21.53
464.311	21.58
464.514	21.68
464.717	21.42
464.92	21.46
465.122	20.98
465.325	21.18
465.528	21.25
465.73	20.98
465.933	20.65
466.135	20.85
466.338	20.95
466.541	21.07
466.743	20.84
466.946	20.86
467.148	21.01
467.351	20.86
467.553	20.8
467.756	20.78
467.958	20.37
468.161	20.38
468.363	20.42
468.566	20.25
468.768	20.02
468.971	20.08
469.173	19.98
469.375	19.88
469.578	20.14
469.78	19.94
469.983	20.08
470.185	20.36
470.387	20.72
470.59	20.69
470.792	20.93
470.994	20.61
471.196	20.61
471.399	20.31
471.601	20.12
471.803	19.95
472.005	19.73
472.208	19.44
472.41	19.24
472.612	18.95
472.814	19.02
473.016	19.38
473.218	19.54
473.421	19.65
473.623	19.77
473.825	20.01
474.027	20.61
474.229	21.01
474.431	20.78
474.633	20.85
474.835	20.52
475.037	20.24
475.239	19.62
475.441	19.35
475.643	19.13
475.845	19.26
476.047	19.03
476.249	18.53
476.451	18.53
476.653	18.51
476.855	18.45
477.057	18.87
477.258	18.65
477.46	18.67
477.662	19.03
477.864	18.89
478.066	19.01
478.268	19.22
478.469	19.54
478.671	19.23
478.873	19.22
479.075	19.37
479.276	19.05
479.478	19.23
479.68	18.89
479.882	18.71
480.083	18.77
480.285	18.43
480.487	18.26
480.688	17.88
480.89	18
481.091	17.86
481.293	17.65
481.495	17.68
481.696	17.39
481.898	17.18
482.099	16.75
482.301	16.36
482.502	16.09
482.704	15.74
482.905	15.51
483.107	15.08
483.308	14.96
483.51	14.69
483.711	14.49
483.913	14.42
484.114	14.34
484.315	14.4
484.517	14.33
484.718	14.36
484.92	14.39
485.121	14.46
485.322	14.6
485.524	14.61
485.725	14.71
485.926	14.83
486.127	14.87
486.329	14.91
486.53	14.83
486.731	14.9
486.932	14.8
487.134	14.89
487.335	14.85
487.536	14.71
487.737	14.7
487.938	14.72
488.139	14.65
488.341	14.68
488.542	14.79
488.743	14.87
488.944	14.98
489.145	15.21
489.346	15.18
489.547	15.3
489.748	15.67
489.949	15.84
490.15	15.89
490.351	15.98
490.552	16.07
490.753	16.11
490.954	15.88
491.155	15.75
491.356	15.66
491.557	15.77
491.758	15.82
491.959	15.81
492.159	15.76
492.36	15.68
492.561	15.84
492.762	16.04
492.963	16.07
493.164	16.53
493.364	17.02
493.565	17.09
493.766	17.23
493.967	17.24
494.167	17.34
494.368	17.69
494.569	18.13
494.769	18.06
494.97	17.82
495.171	17.83
495.371	17.9
495.572	17.92
495.773	18.16
495.973	18.09
496.174	18.42
496.375	18.48
496.575	18.17
496.776	18.03
496.976	18.19
497.177	18.11
497.377	18.25
497.578	18.11
497.778	18.1
497.979	17.97
498.179	18.04
498.38	17.94
498.58	17.88
498.78	18.11
498.981	18.44
499.181	18.47
499.382	18.94
499.582	18.99
499.782	19.15
499.983	19.34
500.183	19.75
500.383	20.24
500.584	20.07
500.784	20.3
500.984	20.55
501.184	20.73
501.385	20.82
501.585	20.83
501.785	20.52
501.985	20.54
502.185	20.24
502.386	19.95
502.586	19.52
502.786	19.79
502.986	19.76
503.186	19.6
503.386	19.18
503.586	19.21
503.786	19
503.987	19.41
504.187	19.38
504.387	19.59
504.587	19.55
504.787	19.36
504.987	19.48
505.187	19.48
505.387	19.51
505.587	19.72
505.786	19.47
505.986	19.59
506.186	19.38
506.386	19.57
506.586	19.54
506.786	19.69
506.986	20.07
507.186	19.83
507.386	19.82
507.585	19.49
507.785	19.27
507.985	19.49
508.185	19.45
508.384	19.47
508.584	19.28
508.784	18.84
508.984	19.04
509.183	18.73
509.383	18.67
509.583	18.72
509.782	19.09
509.982	19.31
510.182	19.28
510.381	19.3
510.581	19.35
510.781	19.63
510.98	19.93
511.18	20.09
511.379	20.2
511.579	20.74
511.778	20.76
511.978	20.65
512.177	20.51
512.377	20.4
512.576	20.34
512.776	20.45
512.975	20.22
513.175	20.14
513.374	19.97
513.573	20.08
513.773	20.05
513.972	20.05
514.172	20.18
514.371	20.37
514.57	20.41
514.77	20.81
514.969	20.95
515.168	21.03
515.367	21.44
515.567	21.36
515.766	21.3
515.965	21.14
516.164	21.05
516.364	20.94
516.563	20.98
516.762	21.17
516.961	20.83
517.16	20.71
517.359	20.53
517.559	20.43
517.758	20.29
517.957	20.39
518.156	20.15
518.355	20.22
518.554	20.38
518.753	20.19
518.952	20.23
519.151	20.34
519.35	20.45
519.549	20.61
519.748	20.45
519.947	20.63
520.146	20.47
520.345	20.73
520.544	20.88
520.743	20.91
520.942	21.17
521.141	20.98
521.339	20.88
521.538	20.85
521.737	21.12
521.936	21.12
522.135	21.17
522.333	21.47
522.532	21.52
522.731	21.53
522.93	21.57
523.129	21.66
523.327	21.89
523.526	21.82
523.725	21.87
523.923	21.53
524.122	21.74
524.321	21.64
524.519	21.35
524.718	21.38
524.917	21.28
525.115	21.2
525.314	20.88
525.512	20.74
525.711	20.68
525.909	20.67
526.108	20.68
526.306	20.75
526.505	20.73
526.703	20.7
526.902	20.54
527.1	20.55
527.299	20.49
527.497	20.4
527.696	20.43
527.894	20.36
528.092	20.26
528.291	20.34
528.489	20.29
528.688	20.35
528.886	20.26
529.084	20.22
529.283	20.16
529.481	20.17
529.679	20.4
529.877	20.5
530.076	20.83
530.274	21.01
530.472	21.07
530.67	21.23
530.869	21.34
531.067	21.77
531.265	21.91
531.463	22.03
531.661	22.21
531.859	22.21
532.057	22.25
532.255	22.09
532.454	22.01
532.652	21.89
532.85	21.8
533.048	21.83
533.246	21.76
533.444	21.75
533.642	21.88
533.84	21.94
534.038	22.1
534.236	22.05
534.434	22.24
534.632	22.46
534.83	22.73
535.027	22.98
535.225	23.14
535.423	23.44
535.621	23.61
535.819	23.72
536.017	23.75
536.215	23.68
536.412	23.76
536.61	23.71
536.808	23.65
537.006	23.77
537.203	23.78
537.401	23.76
537.599	23.64
537.797	23.9
537.994	24.12
538.192	24.4
538.39	24.67
538.587	24.74
538.785	25
538.983	25.05
539.18	25.1
539.378	25.06
539.575	25.4
539.773	25.41
539.97	25.39
540.168	25.11
540.366	24.87
540.563	24.71
540.761	24.82
540.958	24.68
541.155	24.59
541.353	24.54
541.55	24.53
541.748	24.34
541.945	24.41
542.143	24.42
542.34	24.63
542.537	24.69
542.735	24.79
542.932	24.76
543.129	24.94
543.327	25.37
543.524	25.47
543.721	25.51
543.919	25.61
544.116	25.88
544.313	26.1
544.51	26.15
544.708	26.46
544.905	26.76
545.102	27.06
545.299	27.12
545.496	27.24
545.693	27.21
545.891	27.65
546.088	27.76
546.285	27.77
546.482	27.75
546.679	27.78
546.876	28.17
547.073	28.23
547.27	28.25
547.467	28.36
547.664	28.22
547.861	28.8
548.058	29.23
548.255	29.62
548.452	29.7
548.649	30.46
548.846	30.81
549.043	30.73
549.24	31
549.437	31.36
549.633	31.79
549.83	32.39
550.027	32.53
550.224	32.24
550.421	32.36
550.618	32.66
550.814	32.11
551.011	32.11
551.208	32.2
551.405	31.98
551.601	32.28
551.798	32.41
551.995	32.27
552.191	32.49
552.388	32.66
552.585	32.59
552.781	32.54
552.978	32.77
553.175	33.03
553.371	33.13
553.568	33.34
553.764	33.43
553.961	33.39
554.157	33.59
554.354	33.66
554.55	34.04
554.747	34.48
554.943	34.78
555.14	34.93
555.336	35.32
555.533	35.7
555.729	36.16
555.926	36.36
556.122	36.65
556.318	36.61
556.515	36.9
556.711	36.93
556.907	37.19
557.104	37.34
557.3	37.77
557.496	37.38
557.693	37.28
557.889	37.27
558.085	37.09
558.281	37.21
558.478	37.48
558.674	37.31
558.87	37.04
559.066	37.07
559.262	36.84
559.459	36.73
559.655	36.97
559.851	37.11
560.047	37.79
560.243	37.94
560.439	37.86
560.635	37.81
560.831	37.93
561.027	38.22
561.223	38.2
561.419	38.5
561.615	38.36
561.811	38.75
562.007	38.88
562.203	38.62
562.399	38.58
562.595	38.91
562.791	39.34
562.987	39.55
563.183	39.48
563.379	39.28
563.575	39.28
563.771	39.65
563.966	39.73
564.162	39.85
564.358	39.5
564.554	39.83
564.75	39.4
564.945	39.15
565.141	39.03
565.337	39.28
565.533	39.36
565.728	39.16
565.924	39.28
566.12	39.15
566.315	39.2
566.511	39.43
566.707	39.42
566.902	39.63
567.098	39.78
567.293	39.85
567.489	39.71
567.684	39.7
567.88	40.25
568.076	40.44
568.271	40.7
568.467	40.49
568.662	41.07
568.858	41.05
569.053	41.1
569.248	41.25
569.444	41.44
569.639	41.41
569.835	41.56
570.03	41.39
570.225	41.34
570.421	41.29
570.616	41.5
570.812	41.1
571.007	41.05
571.202	41.38
571.397	41.32
571.593	40.89
571.788	40.96
571.983	41.11
572.178	40.98
572.374	41.02
572.569	41.21
572.764	41.24
572.959	41.08
573.154	41.23
573.35	41.25
573.545	41.51
573.74	41.86
573.935	42.28
574.13	41.95
574.325	42.19
574.52	42.3
574.715	42.1
574.91	42.03
575.105	42.39
575.3	42.49
575.495	42.65
575.69	42.63
575.885	42.82
576.08	42.78
576.275	43.16
576.47	43.65
576.665	43.88
576.86	43.99
577.055	44.44
577.25	44.74
577.444	44.9
577.639	44.8
577.834	44.88
578.029	45.25
578.224	45.59
578.418	46.06
578.613	46.45
578.808	46.6
579.003	47.04
579.197	47.29
579.392	47.39
579.587	47.81
579.781	48.38
579.976	48.77
580.171	48.72
580.365	48.33
580.56	48.02
580.755	47.7
580.949	47.46
581.144	47.23
581.338	47.26
581.533	47.16
581.727	47.1
581.922	47.23
582.116	47.21
582.311	46.82
582.505	47.17
582.7	47.57
582.894	47.72
583.089	47.96
583.283	48.35
583.478	48.36
583.672	48.52
583.866	48.45
584.061	48.15
584.255	48.2
584.449	48.74
584.644	48.61
584.838	48.85
585.032	48.92
585.226	48.81
585.421	48.42
585.615	48.78
585.809	48.97
586.003	48.98
586.198	49.16
586.392	49.16
586.586	49.04
586.78	49.32
586.974	48.86
587.168	48.76
587.363	48.51
587.557	48.67
587.751	48.23
587.945	48.14
588.139	48.11
588.333	47.92
588.527	48.05
588.721	48.35
588.915	48.49
589.109	48.75
589.303	48.98
589.497	49.08
589.691	49.47
589.885	49.68
590.079	49.73
590.273	49.74
590.466	49.88
590.66	49.93
590.854	50.08
591.048	49.83
591.242	49.5
591.436	49.18
591.629	49.2
591.823	49.33
592.017	48.84
592.211	48.87
592.404	49.02
592.598	48.95
592.792	48.76
592.986	48.77
593.179	49.08
593.373	49.65
593.567	49.9
593.76	50.13
593.954	50.08
594.147	50.82
594.341	50.63
594.535	50.56
594.728	50.55
594.922	50.57
595.115	50.2
595.309	49.8
595.502	50.02
595.696	49.93
595.889	50.09
596.083	50.01
596.276	49.58
596.47	49.62
596.663	49.62
596.856	49.84
597.05	50.18
597.243	50.02
597.437	50.01
597.63	49.6
597.823	49.6
598.017	49.39
598.21	49.56
598.403	50.07
598.596	50.49
598.79	50.71
598.983	51.18
599.176	50.91
599.369	51.6
599.563	52.24
599.756	52.74
599.949	53
600.142	53.45
600.335	52.72
600.528	52.37
600.722	52.12
600.915	52.59
601.108	52.31
601.301	52.1
601.494	51.81
601.687	51.6
601.88	51.42
602.073	51.04
602.266	50.63
602.459	50.83
602.652	50.6
602.845	50.94
603.038	50.35
603.231	50.15
603.424	50.44
603.617	50.32
603.809	50.26
604.002	50.02
604.195	50.34
604.388	50.31
604.581	50.46
604.774	50.79
604.966	50.73
605.159	51.12
605.352	51.25
605.545	51.53
605.737	51.83
605.93	51.99
606.123	52.33
606.316	52.41
606.508	52.98
606.701	53.37
606.894	53.62
607.086	54.25
607.279	54.38
607.471	54.3
607.664	53.88
607.857	54.03
608.049	53.81
608.242	53.71
608.434	53.21
608.627	52.85
608.819	52.4
609.012	52.31
609.204	51.78
609.397	51.55
609.589	51.99
609.782	52.05
609.974	51.81
610.166	52.27
610.359	52.58
610.551	53.12
610.743	53.48
610.936	54.26
611.128	54.39
611.32	54.45
611.513	54.24
611.705	54.39
611.897	54.34
612.09	54.9
612.282	54.78
612.474	55.31
612.666	55.76
612.858	56.07
613.051	56.56
613.243	56.65
613.435	57.18
613.627	58.49
613.819	58.35
614.011	60.03
614.203	60.38
614.395	60.46
614.588	59.56
614.78	59.16
614.972	59.17
615.164	58.52
615.356	58.72
615.548	58.46
615.74	57.99
615.932	57.99
616.124	56.2
616.315	55.77
616.507	56.47
616.699	57.45
616.891	57.95
617.083	58.31
617.275	58.33
617.467	58.1
617.659	58.22
617.85	58.58
618.042	58.79
618.234	59.86
618.426	60.11
618.618	59.36
618.809	58.84
619.001	58.24
619.193	58.43
619.384	58.62
619.576	59.07
619.768	58.59
619.959	58.15
620.151	58.1
620.343	57.92
620.534	58.45
620.726	58.6
620.917	58.83
621.109	59.45
621.301	58.69
621.492	58.63
621.684	58.79
621.875	59.2
622.067	58.99
622.258	58.78
622.45	59.43
622.641	58.83
622.832	58.97
623.024	58.53
623.215	58.63
623.407	58.68
623.598	59.27
623.789	59.11
623.981	58.92
624.172	59.03
624.363	58.95
624.555	57.88
624.746	57.82
624.937	57.85
625.129	57.95
625.32	57.2
625.511	57.4
625.702	56.33
625.893	56.05
626.085	56.07
626.276	56.07
626.467	56.68
626.658	56.42
626.849	56.17
627.04	56.51
627.231	56.46
627.422	57.08
627.614	56.42
627.805	57.34
627.996	57.35
628.187	57.71
628.378	58.27
628.569	58
628.76	58.81
628.951	58.93
629.142	58.44
629.332	58.6
629.523	58.53
629.714	58.97
629.905	58.6
630.096	58.24
630.287	57.96
630.478	57.52
630.669	57.46
630.859	57.37
631.05	57.55
631.241	57.76
631.432	58.14
631.623	58.01
631.813	58.62
632.004	57.72
632.195	58.18
632.385	58.11
632.576	57.77
632.767	57.69
632.957	57.81
633.148	57.69
633.339	57.43
633.529	56.83
633.72	56.34
633.91	55.95
634.101	56.34
634.292	56.54
634.482	56.73
634.673	57.09
634.863	56.97
635.054	57.06
635.244	57.59
635.435	57.32
635.625	57.56
635.815	58.57
636.006	58.57
636.196	59.65
636.387	59.62
636.577	59.65
636.767	59.55
636.958	59.21
637.148	59.69
637.338	60.01
637.529	60.87
637.719	61.59
637.909	61.09
638.099	61.44
638.29	60.61
638.48	60.97
638.67	61.5
638.86	62.23
639.05	63.2
639.241	62.65
639.431	62.56
639.621	62.16
639.811	61.96
640.001	61.76
640.191	62
640.381	62.85
640.571	62.49
640.761	62.32
640.951	62.73
641.141	62.87
641.331	63.05
641.521	62.85
641.711	63.44
641.901	63.38
642.091	63.9
642.281	64.2
642.471	64.37
642.661	65.31
642.851	65.96
643.041	65.54
643.231	65.24
643.42	65.43
643.61	65.12
643.8	64.94
643.99	64.76
644.18	64.83
644.369	64.11
644.559	63.45
644.749	63.28
644.939	62.81
645.128	62.22
645.318	61.96
645.508	61.69
645.697	62.75
645.887	62.82
646.076	63.18
646.266	63.88
646.456	64.43
646.645	65.13
646.835	65.49
647.024	65.35
647.214	65.85
647.403	66.39
647.593	66.57
647.782	65.88
647.972	65.89
648.161	66.36
648.351	65.59
648.54	65.24
648.73	64.87
648.919	63.83
649.108	63.89
649.298	63.73
649.487	63.91
649.677	63.75
649.866	63.83
650.055	64.06
650.244	63.89
650.434	63.88
650.623	63.43
650.812	63.4
651.002	63.5
651.191	63.27
651.38	63.55
651.569	63.51
651.758	63.24
651.947	63.05
652.137	62.83
652.326	62.52
652.515	63.08
652.704	63.67
652.893	63.73
653.082	63.48
653.271	63.97
653.46	63.64
653.649	63.86
653.838	64.53
654.027	64.93
654.216	65.53
654.405	65.03
654.594	64.5
654.783	64.84
654.972	65.38
655.161	66.1
655.35	66.31
655.539	66.49
655.728	66.61
655.916	66.03
656.105	65.89
656.294	65.87
656.483	66.02
656.672	66.04
656.86	65.87
657.049	64.78
657.238	63.99
657.427	63.49
657.615	62.74
657.804	61.96
657.993	61.52
658.181	61.21
658.37	60.78
658.559	60.32
658.747	60.09
658.936	60.07
659.125	59.67
659.313	60.24
659.502	59.76
659.69	60.27
659.879	60.13
660.067	60.71
660.256	60.81
660.444	60.66
660.633	61.15
660.821	61.55
661.01	62.07
661.198	63.51
661.387	64
661.575	64.88
661.763	65.22
661.952	65.9
662.14	67.57
662.328	68.64
662.517	69.61
662.705	70.06
662.893	69.83
663.082	69.46
663.27	70.24
663.458	69.41
663.646	69.41
663.834	69.8
664.023	70.82
664.211	69.64
664.399	69.06
664.587	68.54
664.775	68.52
664.963	69.61
665.152	70.13
665.34	69.64
665.528	70.24
665.716	70.14
665.904	70.28
666.092	68.85
666.28	69.27
666.468	69.35
666.656	69.86
666.844	70.78
667.032	70.32
667.22	70.35
667.408	69.83
667.596	70.2
667.784	70.45
667.971	70.81
668.159	71.56
668.347	70.29
668.535	69.66
668.723	68.61
668.911	67.71
669.098	67.5
669.286	66.86
669.474	66.67
669.662	66.49
669.849	67.05
670.037	66.49
670.225	65.99
670.413	67.26
670.6	67.96
670.788	69.21
670.976	69.75
671.163	70.89
671.351	70.9
671.538	71.13
671.726	70.74
671.913	70.84
672.101	71.33
672.289	72.23
672.476	72.5
672.664	72.22
672.851	72
673.039	72.26
673.226	71.96
673.413	71.86
673.601	71.71
673.788	73.05
673.976	72.55
674.163	72.62
674.35	71.16
674.538	70.34
674.725	70.74
674.912	70.86
675.1	70.01
675.287	70.32
675.474	70.66
675.662	71.32
675.849	69.69
676.036	69.5
676.223	69.39
676.411	70.67
676.598	70.15
676.785	70.33
676.972	70.02
677.159	70.56
677.346	69.87
677.533	70.35
677.721	70.12
677.908	71.19
678.095	71.39
678.282	70.33
678.469	69.85
678.656	69.97
678.843	69.54
679.03	69.63
679.217	69.95
679.404	70.3
679.591	69.66
679.778	69.7
679.964	69.17
680.151	68.66
680.338	69.08
680.525	69.48
680.712	69.5
680.899	69.03
681.086	68.88
681.272	68.62
681.459	68.14
681.646	68.73
681.833	68.54
682.02	68.64
682.206	69.53
682.393	69.69
682.58	69.64
682.766	69.85
682.953	70.54
683.14	71.13
683.326	72.98
683.513	73.42
683.7	73.62
683.886	73.69
684.073	73.56
684.259	73.21
684.446	74.19
684.632	74.16
684.819	74.07
685.005	73.65
685.192	73.32
685.378	71.83
685.565	72
685.751	71.32
685.938	71.25
686.124	71.9
686.31	70.92
686.497	70.22
686.683	69.94
686.87	70.08
687.056	71.17
687.242	70.47
687.429	70.42
687.615	69.81
687.801	70.42
687.987	70.46
688.174	70.41
688.36	71.61
688.546	71.31
688.732	72.28
688.918	72.65
689.105	72.11
689.291	73.42
689.477	73.17
689.663	72.43
689.849	71.23
690.035	72.52
690.221	73.06
690.407	73.23
690.593	73.98
690.779	73.28
690.965	73.31
691.151	74.07
691.337	74.25
691.523	74.94
691.709	76.41
691.895	77.9
692.081	76.79
692.267	77.05
692.453	77.27
692.639	76.74
692.825	77.45
693.011	77.9
693.196	78.05
693.382	77.49
693.568	77.37
693.754	78.23
693.94	78.11
694.125	79.15
694.311	78.27
694.497	77.79
694.682	78.55
694.868	77.77
695.054	76.95
695.239	76.32
695.425	76.18
695.611	75.99
695.796	74.34
695.982	73.2
696.168	71.45
696.353	71.12
696.539	70.95
696.724	70.02
696.91	70.08
697.095	70.49
697.281	69.61
697.466	68.65
697.652	67.86
697.837	67.94
698.023	68.14
698.208	67.66
698.393	67.06
698.579	66.93
698.764	66.47
698.949	65.62
699.135	65.65
699.32	66.07
699.505	66.35
699.691	66.32
699.876	66.11
700.061	67.08
700.246	68.31
700.432	68.66
700.617	69.95
700.802	71.54
700.987	73.49
701.172	72.87
701.358	73.06
701.543	74.59
701.728	75.28
701.913	77.3
702.098	77.64
702.283	79.07
702.468	79.75
702.653	78.53
702.838	79.8
703.023	80.28
703.208	80.9
703.393	80.77
703.578	81.37
703.763	82.13
703.948	81.29
704.133	81.22
704.318	80.59
704.503	81.39
704.688	82.99
704.873	80.87
705.057	79.55
705.242	80.74
705.427	81.91
705.612	81.28
705.797	82.02
705.981	82.63
706.166	82.35
706.351	81.54
706.536	81.3
706.72	79.51
706.905	80.28
707.09	81.01
707.274	81.62
707.459	82.73
707.644	82.95
707.828	81.9
708.013	80.61
708.197	80.45
708.382	80.87
708.567	81.04
708.751	80.82
708.936	80.77
709.12	80.98
709.305	80.17
709.489	79
709.673	78.45
709.858	79.02
710.042	80.4
710.227	80.05
710.411	79.98
710.596	79.79
710.78	80.73
710.964	81.66
711.149	81.73
711.333	80.74
711.517	80.78
711.702	81.5
711.886	80.72
712.07	80.27
712.254	81.35
712.438	81.43
712.623	81.04
712.807	80.9
712.991	80.09
713.175	80.4
713.359	81.71
713.544	81.64
713.728	80.05
713.912	79.75
714.096	80.27
714.28	80.06
714.464	80.82
714.648	81.13
714.832	82.03
715.016	81.03
715.2	82.17
715.384	80.96
715.568	80.25
715.752	81.15
715.936	82.65
716.12	82.69
716.304	82.81
716.488	81.99
716.671	84.35
716.855	84.98
717.039	87.38
717.223	86.36
717.407	87.47
717.59	88.46
717.774	88.79
717.958	88.79
718.142	88.24
718.325	89.34
718.509	88.37
718.693	86.7
718.877	85.05
719.06	83.74
719.244	83.92
719.428	85.94
719.611	87.28
719.795	86.42
719.978	85.8
720.162	86.63
720.345	86.87
720.529	87.9
720.713	89.2
720.896	89.41
721.08	88.41
721.263	89.26
721.446	86.93
721.63	87.67
721.813	90.37
721.997	90.41
722.18	89.35
722.364	89.78
722.547	91.5
722.73	91.26
722.914	91.72
723.097	93.01
723.28	92.34
723.464	93.74
723.647	93.97
723.83	92.11
724.013	92.19
724.197	94.42
724.38	91.75
724.563	91.52
724.746	90.87
724.929	92.29
725.112	94.22
725.296	93.55
725.479	93.38
725.662	90.28
725.845	92.33
726.028	93.07
726.211	91.64
726.394	92.72
726.577	92.12
726.76	92.23
726.943	91.2
727.126	88.77
727.309	89.09
727.492	87.87
727.675	89.48
727.858	87.95
728.041	87.79
728.224	87.95
728.407	86.06
728.589	86.45
728.772	84.39
728.955	84.49
729.138	84.07
729.321	83.23
729.503	84.81
729.686	84.21
729.869	85.62
730.052	85.25
730.234	85.4
730.417	87.56
730.6	87.24
730.782	89.23
730.965	88.62
731.148	90.28
731.33	90.21
731.513	89.69
731.695	88.63
731.878	87.51
732.061	88.3
732.243	88.19
732.426	87.99
732.608	87.21
732.791	87.24
732.973	88.36
733.156	86.88
733.338	87.27
733.52	87.3
733.703	87.82
733.885	88.06
734.068	86.73
734.25	87.02
734.432	87.4
734.615	87.98
734.797	88.77
734.979	88.1
735.162	89.21
735.344	89.42
735.526	88.28
735.708	89.67
735.891	89.24
736.073	91.05
736.255	90
736.437	89.2
736.619	89.28
736.802	87.19
736.984	86.83
737.166	86.75
737.348	87.28
737.53	88.96
737.712	86.9
737.894	87.2
738.076	85.99
738.258	85.5
738.44	84.24
738.622	84.5
738.804	84.78
738.986	86.17
739.168	84.85
739.35	85.12
739.532	85.49
739.714	89.47
739.896	87.86
740.078	89.37
740.259	92.73
740.441	95.51
740.623	95.76
740.805	96.37
740.987	94.48
741.168	96.73
741.35	97.48
741.532	97.61
741.714	95.13
741.895	97.51
742.077	98.69
742.259	99.02
742.44	97.92
742.622	97.18
742.804	99.81
742.985	101.21
743.167	101.6
743.348	103.52
743.53	103.9
743.711	103.43
743.893	106.11
744.075	104.88
744.256	104.2
744.438	106.54
744.619	110.04
744.8	107.58
744.982	110.19
745.163	111.9
745.345	106.2
745.526	104.55
745.707	106.56
745.889	104.1
746.07	104.23
746.252	102.66
746.433	100.43
746.614	99.11
746.795	101.39
746.977	99.77
747.158	98.87
747.339	101.64
747.52	102.53
747.702	101.62
747.883	102.07
748.064	102.72
748.245	102.75
748.426	104.87
748.607	102.93
748.788	100.99
748.97	103.02
749.151	102.51
749.332	101.93
749.513	99.96
749.694	99.91
749.875	99.78
750.056	100.22
750.237	101.71
750.418	103.64
750.599	105.98
750.78	106.44
750.96	105.16
751.141	105.86
751.322	109.97
751.503	113.83
751.684	115.03
751.865	114.38
752.046	113.35
752.226	111.39
752.407	108.06
752.588	107.96
752.769	108.76
752.949	107.41
753.13	107.45
753.311	102.86
753.492	101.85
753.672	102.72
753.853	102.56
754.034	102.8
754.214	104.93
754.395	103.38
754.575	106.15
754.756	107.08
754.937	108.29
755.117	104.36
755.298	105.68
755.478	105.24
755.659	101.32
755.839	102.82
756.02	104.37
756.2	103.97
756.381	104.23
756.561	102.46
756.741	100.77
756.922	98.71
757.102	103.71
757.283	105.75
757.463	106.19
757.643	110.37
757.823	109.08
758.004	108.87
758.184	110.22
758.364	112.85
758.545	111.77
758.725	113.43
758.905	113.21
759.085	111.13
759.265	110.35
759.446	110.56
759.626	107.56
759.806	108.77
759.986	108.59
760.166	107.63
760.346	105.4
760.526	105.73
760.706	103.28
760.886	103.72
761.066	103.74
761.246	101
761.426	96.81
761.606	94.06
761.786	90.7
761.966	89.49
762.146	88.24
762.326	86.98
762.506	85.44
762.686	84.73
762.866	81.99
763.046	79.6
763.225	79.93
763.405	81.22
763.585	82.23
763.765	82.43
763.945	82.44
764.124	82.17
764.304	84.78
764.484	85.56
764.664	86.58
764.843	90.38
765.023	94
765.203	95.35
765.382	97.52
765.562	99.64
765.741	101.17
765.921	102.11
766.101	103.01
766.28	100.95
766.46	102.24
766.639	101.87
766.819	101.71
766.998	102.18
767.178	101.67
767.357	101.86
767.537	102.39
767.716	104.69
767.896	104.72
768.075	104.93
768.254	106.71
768.434	106.45
768.613	109.26
768.792	109.68
768.972	111.45
769.151	114.26
769.33	115.68
769.51	119.42
769.689	118.28
769.868	123.24
770.047	124.66
770.226	124.3
770.406	125.92
770.585	127.64
770.764	127.42
770.943	124.53
771.122	124.53
771.301	122.52
771.48	120.48
771.66	123.2
771.839	119.67
772.018	120.38
772.197	118.63
772.376	119.8
772.555	119.73
772.734	122.36
772.913	124.98
773.092	123.65
773.271	121.22
773.449	124.43
773.628	123.34
773.807	122.43
773.986	125.24
774.165	126.98
774.344	126.71
774.523	124.66
774.701	122.33
774.88	125.33
775.059	127.49
775.238	135.51
775.417	127.33
775.595	130.04
775.774	133.8
775.953	130.48
776.131	131.29
776.31	127.99
776.489	133.84
776.667	133.97
776.846	130.39
777.025	131.21
777.203	128.38
777.382	128.32
777.56	126.28
777.739	122.12
777.917	122.43
778.096	122.94
778.274	127.09
778.453	121.04
778.631	121.54
778.81	120.22
778.988	116.78
779.166	118.85
779.345	125.77
779.523	125.62
779.702	127.18
779.88	126.07
780.058	126.54
780.237	126.38
780.415	127.57
780.593	129.07
780.771	131.18
780.95	137.81
781.128	139.26
781.306	136.96
781.484	140.04
781.662	152.64
781.841	150.48
782.019	152.64
782.197	149.77
782.375	148.65
782.553	150.25
782.731	150.88
782.909	144.98
783.087	144.41
783.265	144.57
783.443	145.86
783.621	133.42
783.799	139.99
783.977	140.05
784.155	146.28
784.333	145.58
784.511	143.83
784.689	145.42
784.867	147.75
785.045	148.54
785.223	151.09
785.4	142.91
785.578	143.56
785.756	141.53
785.934	136.22
786.112	131.78
786.289	131.04
786.467	125.74
786.645	121.17
786.823	117.83
787	114.28
787.178	113.73
787.356	114.29
787.533	116.27
787.711	115.7
787.889	122.28
788.066	123.26
788.244	125.78
788.421	130.87
788.599	128.26
788.776	126.76
788.954	127.57
789.131	122.28
789.309	126.02
789.486	125.9
789.664	125.23
789.841	118.66
790.019	113.72
790.196	119.74
790.373	120.82
790.551	128.19
790.728	131.02
790.906	130.16
791.083	138.61
791.26	139.45
791.437	137.95
791.615	144.78
791.792	152.5
791.969	156.62
792.146	147.22
792.324	146.58
792.501	146.9
792.678	150.41
792.855	148.69
793.032	150.53
793.209	147.54
793.387	143.68
793.564	141.11
793.741	140.2
793.918	139.67
794.095	145.81
794.272	145.56
794.449	138.19
794.626	136.96
794.803	136.34
794.98	134.19
795.157	132.59
795.334	136.11
795.511	132.93
795.688	130.88
795.864	130.81
796.041	126.05
796.218	127.62
796.395	132.51
796.572	135.39
796.749	143.2
796.925	141.41
797.102	144.97
797.279	147.83
797.456	150.69
797.632	150.59
797.809	158.11
797.986	162.4
798.162	163.88
798.339	164.31
798.516	167.86
798.692	166.26
798.869	158.98
799.046	156.06
799.222	154.12
799.399	153.17
799.575	157.21
799.752	155.92
799.928	154.53
800.105	151.27
800.281	157.23
800.458	148.98
800.634	149.62
800.811	165.43
800.987	178.59
801.163	183.09
801.34	187.76
801.516	186.11
801.692	198.65
801.869	198.17
802.045	210.09
802.221	200.43
802.398	204.17
802.574	199.23
802.75	187.58
802.926	182.85
803.103	182.78
803.279	176.28
803.455	178.08
803.631	167.14
803.807	169.04
803.983	162.89
804.16	168.61
804.336	169.32
804.512	173.12
804.688	173.05
804.864	170.47
805.04	171.49
805.216	177.95
805.392	176.35
805.568	186.67
805.744	186.25
805.92	197.86
806.096	195.86
806.272	201.26
806.448	202.6
806.623	213.73
806.799	211.2
806.975	210.4
807.151	211.05
807.327	220.88
807.503	211.77
807.678	219.84
807.854	211.44
808.03	210.66
808.206	201.76
808.381	190.94
808.557	180.45
808.733	177.44
808.908	181.53
809.084	182.88
809.26	173.7
809.435	172.91
809.611	167.06
809.787	160.47
809.962	161.82
810.138	160.7
810.313	163.15
810.489	166.87
810.664	172.18
810.84	174.6
811.015	174.68
811.191	184.34
811.366	183.99
811.542	179.47
811.717	176.82
811.892	172.98
812.068	181.91
812.243	185.23
812.419	180.64
812.594	182.46
812.769	175.14
812.944	171.07
813.12	165.64
813.295	168.71
813.47	170.88
813.645	183.03
813.821	181.74
813.996	180.23
814.171	184.76
814.346	180.97
814.521	179.67
814.697	186.08
814.872	182.88
815.047	189.83
815.222	191.59
815.397	188.44
815.572	185.95
815.747	183.62
815.922	181.14
816.097	182.33
816.272	191.24
816.447	185.7
816.622	180.78
816.797	186.71
816.972	178.14
817.147	175.33
817.322	177.24
817.496	183.83
817.671	182.6
817.846	187.82
818.021	178.75
818.196	171.83
818.371	164.19
818.545	156.68
818.72	157.07
818.895	154.46
819.069	150.08
819.244	146.26
819.419	134.3
819.594	134.31
819.768	126.29
819.943	120.62
820.117	113.2
820.292	108.47
820.467	102.01
820.641	92.96
820.816	88.39
820.99	84.79
821.165	79.43
821.339	76.82
821.514	74.03
821.688	71.31
821.863	70.72
822.037	69.08
822.212	68.19
822.386	68.38
822.56	67.88
822.735	68.09
822.909	67.05
823.084	68.09
823.258	68.84
823.432	69.46
823.606	70.98
823.781	71.88
823.955	73.58
824.129	76.66
824.303	79.82
824.478	82.85
824.652	83.44
824.826	86.32
825	87.14
825.174	90.07
825.348	89.74
825.523	91.92
825.697	92.3
825.871	94.25
826.045	92.16
826.219	91.1
826.393	91.26
826.567	94.26
826.741	96.5
826.915	95.87
827.089	95.4
827.263	96.42
827.437	94.44
827.611	94.75
827.784	93.59
827.958	94.74
828.132	97.29
828.306	100.53
828.48	101.03
828.654	101.07
828.827	103.51
829.001	104.32
829.175	108.09
829.349	113.32
829.522	115.78
829.696	122
829.87	129.01
830.044	130.8
830.217	132.42
830.391	137.11
830.565	142.8
830.738	148.35
830.912	150.11
831.085	150.96
831.259	160.8
831.432	159.22
831.606	157.8
831.779	154.49
831.953	150.65
832.126	142.29
832.3	138.58
832.473	129.69
832.647	127.18
832.82	124.43
832.994	122.27
833.167	118.6
833.34	115.34
833.514	109
833.687	109.04
833.86	111.64
834.034	111.47
834.207	114.86
834.38	115.02
834.553	116.29
834.727	116.98
834.9	120.09
835.073	121.31
835.246	128.14
835.419	135.77
835.593	134.89
835.766	132.32
835.939	139.95
836.112	134.92
836.285	147.17
836.458	158.34
836.631	168.62
836.804	173.56
836.977	172.17
837.15	175.61
837.323	185.67
837.496	184.09
837.669	179.52
837.842	173.45
838.015	183.98
838.188	178.31
838.361	180.91
838.533	168.73
838.706	172.85
838.879	175.34
839.052	176.59
839.225	177.75
839.398	186.61
839.57	194.47
839.743	204.18
839.916	202.88
840.088	212.31
840.261	212.03
840.434	213.08
840.607	221.12
840.779	224.43
840.952	217.34
841.124	242.86
841.297	275.8
841.47	298.72
841.642	310.48
841.815	317.34
841.987	316.01
842.16	295.22
842.332	350.4
842.505	347.95
842.677	317.09
842.85	289.69
843.022	262.36
843.194	247.21
843.367	279.91
843.539	262.17
843.712	264.03
843.884	259.25
844.056	282.12
844.229	265.26
844.401	254.59
844.573	295.63
844.745	387.43
844.918	417.17
845.09	383.76
845.262	360.48
845.434	388.24
845.606	398.36
845.779	527.57
845.951	533.19
846.123	739.08
846.295	710.06
846.467	560.28
846.639	581.59
846.811	555.82
846.983	544.44
847.155	456.68
847.327	510.73
847.499	553.95
847.671	533.14
847.843	483.86
848.015	381.98
848.187	488.38
848.359	496.45
848.531	409.05
848.703	347.6
848.875	432.2
849.047	405.01
849.218	375.87
849.39	351.67
849.562	281.08
849.734	304.09
849.905	363.77
850.077	317.99
850.249	333.77
850.421	363.76
850.592	362.87
850.764	350.19
850.936	366.84
851.107	396.53
851.279	391.63
851.451	519.67
851.622	465.26
851.794	415.75
851.965	440.83
852.137	437.24
852.308	409.1
852.48	480.14
852.651	394.1
852.823	419.66
852.994	417.74
853.166	418.26
853.337	402.45
853.509	441.02
853.68	504.11
853.851	424.24
854.023	395.26
854.194	362.02
854.365	351.73
854.537	390.45
854.708	369.37
854.879	377.35
855.05	389.44
855.222	332.21
855.393	324.12
855.564	291.05
855.735	309.86
855.906	357.71
856.078	503.61
856.249	466.25
856.42	456.9
856.591	466.46
856.762	482.07
856.933	426.82
857.104	503.39
857.275	489.54
857.446	555.77
857.617	504.7
857.788	450.55
857.959	332.63
858.13	356.62
858.301	344.41
858.472	343.44
858.643	320.96
858.814	360.53
858.985	394.97
859.155	467.16
859.326	505.47
859.497	832.38
859.668	1599.54
859.839	1761.03
860.009	1950.81
860.18	9880.56
860.351	-11040.63
860.522	10137.14
860.692	-17873.68
860.863	5101.61
861.034	2010.06
861.204	1292.8
861.375	638.14
861.546	461.96
861.716	493.03
861.887	417.67
862.057	397.68
862.228	398.11
862.398	450.83
862.569	384.32
862.739	408.99
862.91	376.41
863.08	394
863.251	483.62
863.421	595.8
863.592	807.83
863.762	1758.82
863.932	1212.97
864.103	1001.82
864.273	894.2
864.443	1057.26
864.614	1397.2
864.784	784.19
864.954	640.28
865.125	509.62
865.295	481.14
865.465	371.92
865.635	335.33
865.805	328.31
865.976	349.72
866.146	361.31
866.316	374.7
866.486	323.76
866.656	407.04
866.826	422.34
866.996	425.62
867.166	356.42
867.336	408.02
867.506	354.25
867.676	355.27
867.846	374.7
868.016	372.98
868.186	345.51
868.356	346.28
868.526	320.13
868.696	368.93
868.866	384.39
869.036	490.11
869.206	471.09
869.376	520.73
869.545	457.87
869.715	463.01
869.885	427.68
870.055	404.67
870.224	427.69
870.394	457.49
870.564	407.78
870.734	442.45
870.903	415.9
871.073	409.69
871.243	364.39
871.412	442.12
871.582	408.81
871.751	447.27
871.921	563.88
872.091	568.19
872.26	562.7
872.43	589.67
872.599	512.91
872.769	467.55
872.938	548.58
873.108	666.9
873.277	607.64
873.446	565.68
873.616	556.98
873.785	494.44
873.955	526.01
874.124	372.87
874.293	375.44
874.463	385.11
874.632	322.71
874.801	306.6
874.971	365.2
875.14	379.35
875.309	346.18
875.478	351.5
875.647	350.86
875.817	301.05
875.986	399.54
876.155	370.61
876.324	401.57
876.493	505.42
876.662	379.71
876.831	291.36
877	302.31
877.17	348.72
877.339	386.46
877.508	418.7
877.677	439.97
877.846	360.39
878.015	411.62
878.184	422.98
878.352	402.53
878.521	446.16
878.69	476.86
878.859	453.3
879.028	396.13
879.197	375
879.366	419.07
879.534	393.61
879.703	376.09
879.872	321.75
880.041	270.46
880.21	250.3
880.378	233.54
880.547	217.1
880.716	180.01
880.884	171.28
881.053	154.23
881.222	139.7
881.39	129.66
881.559	122.52
881.727	118.01
881.896	110.66
882.065	106.26
882.233	108.85
882.402	106.63
882.57	108.7
882.739	107.95
882.907	107.59
883.076	102.66
883.244	107.77
883.412	110.68
883.581	116.62
883.749	122.31
883.918	127.8
884.086	132.45
884.254	137.77
884.423	141.47
884.591	147.57
884.759	151.8
884.927	166.81
885.096	172.31
885.264	186.55
885.432	197.89
885.6	213.28
885.769	243.85
885.937	250.56
886.105	268.31
886.273	280.8
886.441	307.17
886.609	353.71
886.777	357.58
886.945	384.11
887.113	429.7
887.281	486.5
887.449	466.04
887.617	406.44
887.785	407.77
887.953	434.27
888.121	542.43
888.289	489.61
888.457	418.64
888.625	425.25
888.793	515.14
888.961	463.43
889.129	459.17
889.296	439.59
889.464	439.56
889.632	469.32
889.8	437.78
889.967	390.19
890.135	404.11
