Data from JASIL_3105_Reflection_1.txt Node
Date: Thu Nov 12 19:42:29 EST 2015
User: Geneva
Spectrometer: USB4E03002
Autoset integration time: false
Trigger mode: 4
Integration Time (sec): 1.000000E-1
Scans to average: 10
Electric dark correction enabled: true
Nonlinearity correction enabled: false
Boxcar width: 5
Stray light correction enabled: false
XAxis mode: Wavelengths
Stop averaging: false
Number of Pixels in Spectrum: 3648
>>>>>Begin Spectral Data<<<<<
177.575	234.28
177.794	-313.58
178.014	1271.65
178.233	148.9
178.452	107.25
178.672	123.36
178.891	132.72
179.11	146.36
179.33	52.93
179.549	5.48
179.768	12.7
179.987	-23.98
180.207	8.51
180.426	18.56
180.645	48.6
180.864	63.52
181.084	74.91
181.303	-47.15
181.522	-626.84
181.741	-279.14
181.96	-129.76
182.179	-75.31
182.398	-71.2
182.618	-243.75
182.837	-231.39
183.056	-4339.04
183.275	2020.71
183.494	667.18
183.713	231.17
183.932	-1306.16
184.151	-425.16
184.37	330.95
184.589	247.86
184.808	12.36
185.027	-45.92
185.246	100.18
185.465	39.65
185.684	56
185.903	124.8
186.122	127.96
186.341	312.12
186.56	586.19
186.779	82.42
186.998	1149.33
187.216	236.17
187.435	248.13
187.654	147.18
187.873	131.81
188.092	253.73
188.311	-1268.08
188.53	380.57
188.748	1279.63
188.967	-824.13
189.186	340.23
189.405	913.99
189.623	6195.61
189.842	-363.3
190.061	-262.7
190.28	-243.91
190.498	-395.49
190.717	880.28
190.936	-820.83
191.154	542.65
191.373	287.48
191.592	-2512.58
191.81	1507.74
192.029	-973.53
192.248	-325.17
192.466	-300.33
192.685	-627.05
192.904	1188.02
193.122	491.13
193.341	224.93
193.559	244.33
193.778	206.74
193.996	159.33
194.215	728.09
194.433	50.82
194.652	65.55
194.87	87.11
195.089	66.79
195.307	-251.52
195.526	854.59
195.744	-569.22
195.963	297.84
196.181	219.31
196.399	149.28
196.618	116.79
196.836	91.85
197.055	298.17
197.273	193.75
197.491	154.17
197.71	104.81
197.928	95.57
198.146	59.9
198.365	51.44
198.583	62.52
198.801	85.07
199.019	75.04
199.238	74
199.456	56.37
199.674	21.09
199.892	-61.57
200.111	217.72
200.329	-19.09
200.547	-44.01
200.765	-5.25
200.983	-24.72
201.202	15.68
201.42	23.65
201.638	-12.28
201.856	-12.21
202.074	-24.06
202.292	-62.57
202.51	-123.5
202.728	-63.57
202.946	-90.34
203.165	1103.42
203.383	192.68
203.601	229.71
203.819	708.66
204.037	-624.33
204.255	43.21
204.473	-441.95
204.691	42.26
204.909	65.88
205.127	-40.48
205.345	108.84
205.562	117.4
205.78	97.7
205.998	12.26
206.216	21.28
206.434	34.94
206.652	44.95
206.87	73.02
207.088	76.42
207.306	88.58
207.523	76.77
207.741	63.7
207.959	207.98
208.177	17720
208.395	170.09
208.612	296.73
208.83	-512.5
209.048	-614.98
209.266	-410.51
209.483	-97.47
209.701	-12.6
209.919	41.87
210.136	31.23
210.354	75.52
210.572	65.39
210.79	71
211.007	62.17
211.225	77.7
211.442	66.3
211.66	71.86
211.878	79.5
212.095	70
212.313	72.77
212.53	99.9
212.748	81.47
212.966	63.29
213.183	40.18
213.401	-0.92
213.618	-16.11
213.836	-56.12
214.053	-96.25
214.271	249.87
214.488	93.6
214.705	338.7
214.923	-281.47
215.14	-4691.36
215.358	568.61
215.575	-8161.82
215.793	-41.34
216.01	51.2
216.227	-211.95
216.445	-94.69
216.662	138.75
216.879	-687.22
217.097	160.06
217.314	107.13
217.531	197.26
217.749	161.29
217.966	-212.62
218.183	168.76
218.4	75.21
218.618	626.36
218.835	-414.57
219.052	141.33
219.269	34.19
219.487	28.76
219.704	49.3
219.921	39.13
220.138	75.15
220.355	173.56
220.572	99.18
220.79	115.65
221.007	20.6
221.224	64.83
221.441	79.07
221.658	74.72
221.875	87.27
222.092	282.84
222.309	388.11
222.526	932.69
222.743	403.87
222.96	317.53
223.177	-1491.11
223.394	-472.16
223.611	-278.9
223.828	-5407.53
224.045	1700.53
224.262	-780.13
224.479	-959.1
224.696	-113.74
224.913	-143.62
225.13	-48.59
225.347	-52.41
225.564	-64.42
225.781	-59.56
225.997	-46.49
226.214	-31.56
226.431	-26.21
226.648	-21.58
226.865	-0.22
227.082	-14.93
227.298	-3.6
227.515	-0.4
227.732	8.19
227.949	-1.75
228.165	-11.89
228.382	-10.91
228.599	-5.52
228.816	-3.37
229.032	-1.26
229.249	-3.72
229.466	-2.42
229.682	-5.54
229.899	-13.79
230.116	-11.24
230.332	-8.23
230.549	3.1
230.765	3.77
230.982	1.69
231.199	9.64
231.415	-7.61
231.632	-10.92
231.848	0.15
232.065	-2.72
232.281	-1.94
232.498	-13.18
232.714	-14.02
232.931	-12.5
233.147	-24.74
233.364	-18.1
233.58	-32.39
233.797	-15.56
234.013	-25.57
234.23	-47.34
234.446	-49.1
234.662	-36.78
234.879	-47.65
235.095	-37.51
235.312	-42.37
235.528	-28.24
235.744	-27.71
235.961	-31.77
236.177	-13.77
236.393	-8.1
236.61	5.57
236.826	17.61
237.042	9.77
237.258	5.99
237.475	14.14
237.691	25.89
237.907	26.15
238.123	18.45
238.339	7.41
238.556	5.92
238.772	3.03
238.988	-6.47
239.204	-21.36
239.42	-14.06
239.636	2.52
239.853	-9.69
240.069	-9.94
240.285	-4.46
240.501	-2.71
240.717	2.47
240.933	-1.79
241.149	-1.05
241.365	1.41
241.581	0.97
241.797	-0.39
242.013	-5.74
242.229	3.86
242.445	2.4
242.661	4.72
242.877	8.1
243.093	7.71
243.309	5.99
243.525	9.73
243.741	4.82
243.957	5.09
244.173	6.15
244.388	13.47
244.604	11.36
244.82	14.81
245.036	8.96
245.252	5.78
245.468	2.4
245.683	2.8
245.899	1.22
246.115	1.69
246.331	1.23
246.547	1.28
246.762	-1.27
246.978	-1.37
247.194	-4.39
247.409	-3.59
247.625	-6.38
247.841	-4.7
248.057	-4.47
248.272	-6.41
248.488	-10.04
248.703	-8.32
248.919	-11.16
249.135	-9.7
249.35	-17.03
249.566	-19.29
249.782	-20.54
249.997	-11.68
250.213	-12.17
250.428	-9.3
250.644	-7.6
250.859	2.05
251.075	0.4
251.29	8.01
251.506	10.45
251.721	15.02
251.937	21.85
252.152	18.27
252.368	15.14
252.583	19.16
252.798	16.88
253.014	18.87
253.229	19.84
253.445	24.06
253.66	18.04
253.875	11.38
254.091	3.56
254.306	-3.72
254.521	0.64
254.737	0.29
254.952	-8.71
255.167	-13.11
255.383	-12.98
255.598	-18.24
255.813	-24.52
256.028	-22.19
256.244	-17.87
256.459	-9.99
256.674	-4.56
256.889	-3.93
257.104	-7.42
257.32	-6.61
257.535	-3.63
257.75	-4.28
257.965	-1.64
258.18	0.15
258.395	-1
258.61	-2.6
258.826	-1.59
259.041	-4.44
259.256	-4.12
259.471	-3.61
259.686	-2.77
259.901	-3.63
260.116	-0.48
260.331	-0.49
260.546	0.68
260.761	1.32
260.976	-0.4
261.191	-2.91
261.406	-0.15
261.621	-0.54
261.836	-1.26
262.05	-1.83
262.265	-2.1
262.48	-10.15
262.695	-14.96
262.91	-23.33
263.125	-15.47
263.34	-10.31
263.555	-9.29
263.769	-10.49
263.984	-10.08
264.199	-3.75
264.414	2.19
264.629	3.06
264.843	3.38
265.058	4.69
265.273	8.78
265.488	3.17
265.702	4.45
265.917	3.72
266.132	3.88
266.346	3.25
266.561	2.76
266.776	-3.45
266.99	-3.82
267.205	-3.28
267.42	-4.4
267.634	-2.51
267.849	-2.89
268.063	-5.48
268.278	-4.87
268.492	-8.7
268.707	-8.52
268.922	-7.88
269.136	-5.84
269.351	-5.22
269.565	-2.15
269.78	-0.7
269.994	-3.36
270.209	-2.86
270.423	-1.54
270.637	-0.73
270.852	-0.39
271.066	1.28
271.281	0.15
271.495	3.31
271.709	4.11
271.924	3.28
272.138	3.14
272.353	2.65
272.567	2.37
272.781	-0.06
272.996	-0.35
273.21	0.97
273.424	-4
273.638	-3.29
273.853	-3.75
274.067	-5.82
274.281	-6.71
274.495	-7.49
274.71	-6.54
274.924	-7.64
275.138	-3.71
275.352	-8.22
275.566	-6.48
275.781	-1.76
275.995	-3.79
276.209	-2.34
276.423	0.61
276.637	-0.77
276.851	-0.77
277.065	-2.86
277.279	-0.99
277.493	0.56
277.707	3.43
277.921	1.69
278.135	0.88
278.349	0.7
278.563	-4.35
278.777	-4.11
278.991	-2.37
279.205	-2.22
279.419	-0.04
279.633	-1.79
279.847	-5.32
280.061	-4.19
280.275	-3.17
280.489	-6.42
280.703	-4.34
280.917	-3.54
281.131	-3.05
281.344	-3.33
281.558	-0.25
281.772	-4.22
281.986	-2.65
282.2	-2.17
282.414	-3.58
282.627	-3.93
282.841	-0.69
283.055	-2.25
283.269	0.39
283.482	-1.3
283.696	-4.03
283.91	-5.09
284.123	-1.02
284.337	-1.66
284.551	-1.33
284.764	-1.23
284.978	-1.62
285.192	-0.93
285.405	-0.53
285.619	-1.14
285.833	0.78
286.046	3.29
286.26	1.95
286.473	0.92
286.687	2.08
286.9	1.36
287.114	1.39
287.327	2.45
287.541	2.41
287.754	1.62
287.968	1.55
288.181	0.04
288.395	-0.77
288.608	-0.63
288.822	-0.25
289.035	-0.41
289.248	0.3
289.462	1.73
289.675	-0.27
289.889	-0.24
290.102	0.06
290.315	-0.88
290.529	-1.08
290.742	0.85
290.955	2.73
291.169	-0.17
291.382	-1.86
291.595	-3.21
291.808	-3.58
292.022	-3.23
292.235	-6.81
292.448	-5.17
292.661	-3.02
292.875	-4.13
293.088	-5.37
293.301	-4.82
293.514	-5.18
293.727	-5.39
293.94	-3.03
294.153	-5.24
294.367	-4.61
294.58	-4.02
294.793	-3.71
295.006	-6.04
295.219	-3.91
295.432	-4.27
295.645	-6.44
295.858	-5.47
296.071	-4.29
296.284	-4.91
296.497	-3.59
296.71	-3.45
296.923	-2
297.136	-2.7
297.349	-1.29
297.562	-2.38
297.775	-2.57
297.988	-2.04
298.201	-0.56
298.414	-0.34
298.626	-1.75
298.839	-2.04
299.052	-1.64
299.265	-1
299.478	-2.47
299.691	-1.91
299.903	0.06
300.116	-1.06
300.329	0.71
300.542	1.02
300.755	0.35
300.967	1.83
301.18	2.28
301.393	3.11
301.605	1.54
301.818	4.06
302.031	1.86
302.243	2.27
302.456	1.96
302.669	2.54
302.881	2.07
303.094	3.18
303.307	2.46
303.519	1.8
303.732	-0.25
303.944	0.49
304.157	-2.33
304.37	-0
304.582	-1.43
304.795	0.94
305.007	-1.78
305.22	0.67
305.432	-1.85
305.645	0.67
305.857	1.09
306.069	3.39
306.282	0.77
306.494	2.54
306.707	2.93
306.919	0.7
307.132	-0.32
307.344	-0.21
307.556	-3.39
307.769	-3.24
307.981	-6.6
308.193	-6.2
308.406	-6.64
308.618	-3.69
308.83	-2.4
309.043	-3.66
309.255	-1.92
309.467	-1.91
309.679	-3.19
309.892	-0.57
310.104	0.38
310.316	2.21
310.528	2.48
310.74	1.44
310.953	0.78
311.165	1.18
311.377	0.14
311.589	-1.02
311.801	-0.78
312.013	3.74
312.225	1.07
312.437	0.46
312.649	2.35
312.862	2.38
313.074	2.3
313.286	3.47
313.498	2.26
313.71	3.22
313.922	5.55
314.134	3.98
314.346	-0.2
314.558	-0.44
314.77	0.39
314.982	-4.12
315.193	-1.61
315.405	-0.22
315.617	-2.71
315.829	-2.02
316.041	-2.66
316.253	-2.79
316.465	-1.1
316.677	-1.88
316.888	-0.13
317.1	0.81
317.312	2.58
317.524	-0.14
317.736	-0.96
317.947	-1.62
318.159	-3.57
318.371	-3.67
318.583	-5.47
318.794	-3.56
319.006	0.83
319.218	1.91
319.43	0.29
319.641	-1.77
319.853	-1.17
320.064	1.66
320.276	4.05
320.488	5.24
320.699	8.15
320.911	9.9
321.123	6.75
321.334	1.83
321.546	-1.38
321.757	-2.13
321.969	-1.22
322.18	-1.37
322.392	-3.49
322.603	-4.05
322.815	-2.91
323.026	-4.76
323.238	-6.72
323.449	-5.33
323.661	-1.3
323.872	-1.1
324.083	0.34
324.295	3.68
324.506	3.7
324.718	4.09
324.929	6.14
325.14	7.45
325.352	7.36
325.563	10.17
325.774	11.8
325.986	11.15
326.197	12.45
326.408	12.25
326.62	11.95
326.831	13.28
327.042	13.44
327.253	13.03
327.464	10.59
327.676	12.6
327.887	13
328.098	10.47
328.309	8.86
328.52	9.47
328.732	11.02
328.943	10.57
329.154	10.53
329.365	10.47
329.576	10.11
329.787	10.82
329.998	9.71
330.209	4.85
330.42	5.01
330.631	6.14
330.842	7.24
331.053	5.73
331.264	3.31
331.475	2.48
331.686	2.15
331.897	-1.2
332.108	0.06
332.319	1.12
332.53	7.79
332.741	9.05
332.952	8.7
333.163	6.07
333.374	7.14
333.585	9.26
333.795	7.37
334.006	6.79
334.217	8.22
334.428	6.78
334.639	4.57
334.849	-0.91
335.06	-3.59
335.271	-4.31
335.482	-6.28
335.692	-6.58
335.903	-8.78
336.114	-8.05
336.325	-7.73
336.535	-7.91
336.746	-5.89
336.957	-5.74
337.167	-3.05
337.378	-2.72
337.589	-1.68
337.799	1.63
338.01	-0.53
338.22	0.61
338.431	-1.25
338.642	-2.19
338.852	-2.32
339.063	-2.47
339.273	-1.73
339.484	-3.69
339.694	-2.56
339.905	-2.95
340.115	-1.56
340.326	-0.54
340.536	0.32
340.746	3.82
340.957	4.69
341.167	2.92
341.378	1.56
341.588	1.14
341.799	3.02
342.009	3.51
342.219	4.46
342.43	1.69
342.64	2.08
342.85	0.57
343.061	-0.24
343.271	-0.95
343.481	-0.52
343.691	0.82
343.902	0.19
344.112	-1.89
344.322	-1.84
344.532	-0.91
344.743	-0.31
344.953	-1.04
345.163	-1.36
345.373	-1.64
345.583	-0.42
345.793	0.78
346.004	-0.26
346.214	0.84
346.424	1.93
346.634	1.66
346.844	1.03
347.054	0.85
347.264	1.42
347.474	1.3
347.684	2
347.894	2.66
348.104	4.44
348.314	5.2
348.524	5.61
348.734	5.58
348.944	7.5
349.154	6.68
349.364	7.3
349.574	6.82
349.784	8.95
349.994	8.96
350.204	7.62
350.413	7.22
350.623	7.07
350.833	6.67
351.043	7.08
351.253	5.96
351.463	5.13
351.672	3.28
351.882	5.01
352.092	2.78
352.302	2.6
352.511	3.9
352.721	3.34
352.931	3.74
353.141	2.73
353.35	0.9
353.56	1.44
353.77	1.54
353.979	2.34
354.189	1.15
354.399	2.65
354.608	2.01
354.818	2.39
355.027	1.88
355.237	-0.14
355.447	0.71
355.656	1.26
355.866	0.85
356.075	0.99
356.285	2.32
356.494	3.89
356.704	3.88
356.913	5.58
357.123	2.92
357.332	3.57
357.542	3.27
357.751	2.96
357.96	4.2
358.17	3.24
358.379	4.86
358.589	4.26
358.798	2.56
359.007	2.65
359.217	-0.24
359.426	1.67
359.635	0.55
359.845	2.5
360.054	3.9
360.263	3.81
360.472	4.4
360.682	4.01
360.891	3.29
361.1	3.82
361.309	3.45
361.519	4.22
361.728	4.43
361.937	4.72
362.146	3.96
362.355	3.46
362.564	3.23
362.774	3.44
362.983	4.38
363.192	5.13
363.401	5.81
363.61	5.47
363.819	6.57
364.028	5.96
364.237	6.99
364.446	7.05
364.655	6.26
364.864	6.05
365.073	4.54
365.282	2.68
365.491	3.82
365.7	3.78
365.909	4.3
366.118	4.31
366.327	4.75
366.536	3.85
366.745	3.65
366.954	4.68
367.162	5.32
367.371	6.08
367.58	6.93
367.789	4.72
367.998	2.39
368.207	1.52
368.415	-0.11
368.624	-0.51
368.833	-0.94
369.042	-0.7
369.25	-0.21
369.459	-1.18
369.668	-0.81
369.877	-2.04
370.085	-0.63
370.294	2.31
370.503	2.25
370.711	3.42
370.92	3.19
371.129	3.69
371.337	3.28
371.546	0.24
371.754	1.08
371.963	0.33
372.171	1.09
372.38	0.61
372.589	-0.43
372.797	-1.01
373.006	-1.9
373.214	-1.33
373.423	-0.63
373.631	0.94
373.84	2.54
374.048	1.95
374.256	1.71
374.465	1.13
374.673	0.88
374.882	0.93
375.09	3.25
375.298	2.6
375.507	4.01
375.715	3.93
375.923	1.91
376.132	1.34
376.34	0.99
376.548	1.91
376.757	1.77
376.965	1.98
377.173	1.95
377.381	0.71
377.59	1.52
377.798	-0.11
378.006	0.27
378.214	1.56
378.423	3.65
378.631	4.5
378.839	6.58
379.047	6.46
379.255	6.25
379.463	6.66
379.671	7.74
379.879	7.82
380.088	8.4
380.296	7.76
380.504	7.79
380.712	6.68
380.92	7.6
381.128	5.07
381.336	6.03
381.544	7.22
381.752	6.36
381.96	5.88
382.168	6.72
382.376	4.99
382.584	5.18
382.791	4.5
382.999	5.75
383.207	4.16
383.415	4.81
383.623	4.33
383.831	3.97
384.039	3.6
384.247	3.88
384.454	3.72
384.662	5.19
384.87	5.33
385.078	4.6
385.285	3.58
385.493	4.04
385.701	3.81
385.909	2.62
386.116	2.02
386.324	3.14
386.532	2.71
386.739	1.56
386.947	0.95
387.155	0.36
387.362	2.15
387.57	2.04
387.778	2.5
387.985	0.74
388.193	0.31
388.4	-0.11
388.608	-0.31
388.816	0.16
389.023	0.62
389.231	2.16
389.438	2.28
389.646	2.48
389.853	2.67
390.061	2.52
390.268	3.7
390.475	5.67
390.683	5.83
390.89	5.66
391.098	5.13
391.305	5.34
391.512	3.69
391.72	3.84
391.927	2.6
392.135	2.52
392.342	2.37
392.549	2.97
392.756	3.31
392.964	3.78
393.171	3.17
393.378	3.5
393.586	3.76
393.793	3.78
394	3.95
394.207	4.66
394.414	3.76
394.622	3.49
394.829	3.03
395.036	1.25
395.243	0.74
395.45	0.96
395.657	0.6
395.864	0.4
396.072	0.83
396.279	0.91
396.486	0.25
396.693	0.4
396.9	0.31
397.107	0.53
397.314	1.59
397.521	1.51
397.728	0.84
397.935	1.27
398.142	0.54
398.349	0.65
398.556	0.29
398.763	0.09
398.97	0.77
399.177	1.32
399.383	2.58
399.59	2.95
399.797	3.93
400.004	5.59
400.211	4.98
400.418	5.98
400.625	6.08
400.831	5.98
401.038	7.22
401.245	7.82
401.452	7.93
401.658	6.49
401.865	6.32
402.072	5.08
402.279	3.87
402.485	4.4
402.692	4.86
402.899	4.05
403.105	3.41
403.312	2.96
403.519	2.92
403.725	2.1
403.932	3.06
404.138	2.66
404.345	2.66
404.552	3.42
404.758	3.25
404.965	2.38
405.171	3.88
405.378	4.36
405.584	3.96
405.791	4.64
405.997	4.26
406.204	4.52
406.41	4.8
406.617	4.83
406.823	4.76
407.029	4.94
407.236	5.07
407.442	4.92
407.649	5.31
407.855	4.9
408.061	4.33
408.268	5.06
408.474	4.55
408.68	4.57
408.887	3.66
409.093	3.43
409.299	3.82
409.505	4.2
409.712	3.98
409.918	3.81
410.124	4.54
410.33	3.87
410.537	3.67
410.743	3.41
410.949	2.82
411.155	4.2
411.361	3.16
411.567	2.22
411.773	1.42
411.98	1.06
412.186	1.25
412.392	1.37
412.598	1.17
412.804	2.41
413.01	2.53
413.216	2.78
413.422	2.6
413.628	3.47
413.834	3.58
414.04	3.99
414.246	3.92
414.452	4.56
414.658	4.42
414.864	4.67
415.07	3.45
415.275	3.16
415.481	3.49
415.687	2.92
415.893	2.52
416.099	2.22
416.305	1.96
416.511	1.76
416.716	1.02
416.922	1.55
417.128	1.62
417.334	2.61
417.539	2
417.745	1.56
417.951	1.82
418.157	2.23
418.362	2.75
418.568	3.33
418.774	3.35
418.979	2.9
419.185	2.8
419.391	2.45
419.596	1.86
419.802	2.37
420.008	2.84
420.213	2.8
420.419	2.52
420.624	2.57
420.83	1.99
421.035	1.91
421.241	2.48
421.446	2.08
421.652	2.31
421.857	1.9
422.063	2.03
422.268	1.78
422.474	1.58
422.679	2.19
422.885	2.34
423.09	2.61
423.295	2.79
423.501	2.76
423.706	2.93
423.911	3.42
424.117	3.76
424.322	4.06
424.527	4.25
424.733	4.85
424.938	4.67
425.143	4.81
425.349	4.53
425.554	4.74
425.759	4.81
425.964	4.94
426.169	4.28
426.375	4
426.58	3.32
426.785	3.04
426.99	3.51
427.195	3.17
427.4	2.4
427.605	2.58
427.811	2.28
428.016	1.79
428.221	0.79
428.426	1.33
428.631	1.19
428.836	0.89
429.041	1.08
429.246	0.24
429.451	0.27
429.656	-0.06
429.861	0.17
430.066	-0.04
430.271	0.77
430.476	1.17
430.681	1.24
430.886	2.41
431.09	3.13
431.295	2.98
431.5	2.75
431.705	2.82
431.91	3.26
432.115	2.75
432.32	2.58
432.524	2.43
432.729	2.37
432.934	2.24
433.139	1.56
433.343	1.58
433.548	2.1
433.753	2.28
433.958	2.78
434.162	2.81
434.367	3.44
434.572	3.92
434.776	4.31
434.981	4.8
435.186	4.56
435.39	5.02
435.595	4.81
435.799	4.41
436.004	4.43
436.209	3.57
436.413	2.94
436.618	2.94
436.822	3.01
437.027	1.97
437.231	2.21
437.436	2.44
437.64	1.95
437.845	1.97
438.049	2.32
438.253	2.57
438.458	3.03
438.662	3.82
438.867	3.88
439.071	3.28
439.275	3.96
439.48	3.53
439.684	3.33
439.888	3.9
440.093	4.03
440.297	3.91
440.501	3.18
440.706	2.85
440.91	2.6
441.114	2.3
441.318	2.25
441.523	2.22
441.727	2.66
441.931	3.04
442.135	2.57
442.339	2.43
442.543	2.16
442.748	2.89
442.952	2.22
443.156	2.31
443.36	2.34
443.564	2.66
443.768	2.78
443.972	1.83
444.176	1.4
444.38	1.38
444.584	1.44
444.788	2.03
444.992	2.08
445.196	2.62
445.4	2.27
445.604	2.55
445.808	2.65
446.012	2.37
446.216	2.73
446.42	2.85
446.624	3.21
446.828	3.43
447.032	3.04
447.235	3.22
447.439	3.14
447.643	3.36
447.847	3.34
448.051	3.16
448.254	3.03
448.458	2.52
448.662	2.39
448.866	2.05
449.069	1.22
449.273	0.73
449.477	0.23
449.681	-0.07
449.884	0.28
450.088	-0.22
450.292	0.56
450.495	0.51
450.699	0.92
450.902	1.03
451.106	1.29
451.31	2.03
451.513	2.1
451.717	2.06
451.92	2.85
452.124	2.15
452.327	2.58
452.531	2.04
452.734	2.32
452.938	2.92
453.141	3.1
453.345	2.9
453.548	2.98
453.752	3.29
453.955	3.49
454.158	2.83
454.362	2.58
454.565	2.93
454.769	2.97
454.972	2.64
455.175	2.61
455.379	2.14
455.582	2.52
455.785	2.94
455.988	3.12
456.192	3.15
456.395	3.55
456.598	4.01
456.801	3.16
457.005	3.74
457.208	3.62
457.411	3.19
457.614	3.41
457.817	3.02
458.021	2.76
458.224	2.65
458.427	2.48
458.63	2.18
458.833	2.05
459.036	2.51
459.239	1.94
459.442	2.29
459.645	2.13
459.848	2.11
460.051	2.08
460.254	2.06
460.457	1.96
460.66	2.33
460.863	2.33
461.066	2.6
461.269	2.39
461.472	2.23
461.675	1.63
461.878	1.93
462.081	1.82
462.284	1.9
462.486	1.53
462.689	1.13
462.892	0.51
463.095	1.46
463.298	1.39
463.5	0.95
463.703	1.27
463.906	1.66
464.109	1.43
464.311	1.06
464.514	0.94
464.717	0.91
464.92	0.75
465.122	1.72
465.325	1.09
465.528	1.39
465.73	1.61
465.933	2.31
466.135	2.37
466.338	2.46
466.541	3.11
466.743	2.6
466.946	2.17
467.148	3.26
467.351	2.84
467.553	3.14
467.756	3.08
467.958	2.65
468.161	1.91
468.363	1.62
468.566	2.11
468.768	2.17
468.971	2.41
469.173	3.44
469.375	2.67
469.578	2.05
469.78	2.12
469.983	2.06
470.185	2.96
470.387	3.26
470.59	3.64
470.792	3.32
470.994	3.01
471.196	3.07
471.399	3.21
471.601	3.3
471.803	3.99
472.005	3.67
472.208	3.29
472.41	2.8
472.612	2.83
472.814	1.92
473.016	1.84
473.218	2.46
473.421	3.05
473.623	2.62
473.825	2.74
474.027	2.22
474.229	2.29
474.431	2.27
474.633	2.45
474.835	2.14
475.037	2.89
475.239	3.03
475.441	2.51
475.643	2.03
475.845	2.04
476.047	2.01
476.249	2.34
476.451	2.6
476.653	3.47
476.855	3.5
477.057	4.05
477.258	4.04
477.46	4.17
477.662	4.33
477.864	4.66
478.066	4.38
478.268	4.48
478.469	4.31
478.671	4.36
478.873	4.05
479.075	4.03
479.276	3.58
479.478	3.87
479.68	3.64
479.882	3.39
480.083	3.15
480.285	3.09
480.487	3.32
480.688	3.17
480.89	2.98
481.091	2.54
481.293	2.78
481.495	3.11
481.696	2.93
481.898	3
482.099	3
482.301	3.26
482.502	3.23
482.704	3.08
482.905	3.27
483.107	3.23
483.308	3.41
483.51	3.27
483.711	3.08
483.913	3.08
484.114	3.04
484.315	3.16
484.517	2.95
484.718	3.05
484.92	3.16
485.121	3.21
485.322	3.4
485.524	3.37
485.725	3.32
485.926	3.36
486.127	3.46
486.329	3.42
486.53	3.4
486.731	3.4
486.932	3.32
487.134	3.2
487.335	3.12
487.536	2.9
487.737	2.78
487.938	2.83
488.139	2.89
488.341	2.78
488.542	2.98
488.743	2.77
488.944	2.66
489.145	2.66
489.346	2.7
489.547	2.5
489.748	2.71
489.949	3.25
490.15	3.31
490.351	3.56
490.552	3.75
490.753	3.61
490.954	3.81
491.155	4.28
491.356	4.31
491.557	4.45
491.758	4.61
491.959	4.53
492.159	3.92
492.36	3.97
492.561	3.87
492.762	3.59
492.963	3.83
493.164	3.51
493.364	3.05
493.565	3.18
493.766	3.28
493.967	3.06
494.167	3.31
494.368	3.82
494.569	3.8
494.769	3.25
494.97	3.38
495.171	3.31
495.371	3.66
495.572	3.44
495.773	3.27
495.973	2.96
496.174	3.12
496.375	3.21
496.575	3.15
496.776	2.98
496.976	3.2
497.177	3.28
497.377	3
497.578	2.82
497.778	3.11
497.979	3.42
498.179	3.42
498.38	3.25
498.58	2.66
498.78	2.25
498.981	2.78
499.181	2.76
499.382	2.9
499.582	2.73
499.782	2.76
499.983	2.98
500.183	2.85
500.383	3.14
500.584	3.45
500.784	3.94
500.984	4.52
501.184	4.02
501.385	4.19
501.585	4.18
501.785	4.35
501.985	4.54
502.185	4.06
502.386	3.66
502.586	3.6
502.786	3.67
502.986	3.82
503.186	3.85
503.386	3.8
503.586	3.92
503.786	4
503.987	3.95
504.187	4.14
504.387	4.31
504.587	4.61
504.787	4.32
504.987	3.93
505.187	3.72
505.387	3.11
505.587	3.12
505.786	3.09
505.986	3.5
506.186	3.94
506.386	3.65
506.586	3.33
506.786	3.32
506.986	3.46
507.186	3.74
507.386	3.83
507.585	4.37
507.785	4.34
507.985	4.35
508.185	3.57
508.384	3.78
508.584	3.89
508.784	4.76
508.984	4.61
509.183	4.45
509.383	4.4
509.583	4.25
509.782	4.27
509.982	4.32
510.182	4.3
510.381	4.76
510.581	4.62
510.781	4.72
510.98	4.37
511.18	4.66
511.379	4.58
511.579	4.49
511.778	4.85
511.978	4.97
512.177	5.37
512.377	5.32
512.576	4.98
512.776	4.83
512.975	4.76
513.175	4.9
513.374	4.63
513.573	4.66
513.773	5.28
513.972	5.44
514.172	5.82
514.371	5.31
514.57	5.43
514.77	5.38
514.969	5.24
515.168	5.56
515.367	5.43
515.567	5.8
515.766	6.61
515.965	6.2
516.164	5.78
516.364	5.07
516.563	5.19
516.762	4.99
516.961	5.32
517.16	5.43
517.359	5.61
517.559	5.76
517.758	5.5
517.957	5.34
518.156	5.51
518.355	5.98
518.554	6.21
518.753	6.31
518.952	6.12
519.151	6.49
519.35	6.79
519.549	6.59
519.748	6.64
519.947	7.1
520.146	6.85
520.345	6.94
520.544	6.91
520.743	6.98
520.942	7.09
521.141	7.68
521.339	7.37
521.538	7.24
521.737	7.71
521.936	7.43
522.135	7.18
522.333	7.37
522.532	7.32
522.731	6.62
522.93	6.44
523.129	6.63
523.327	6.82
523.526	6.8
523.725	6.75
523.923	6.33
524.122	6.45
524.321	6.74
524.519	6.51
524.718	6.52
524.917	6.94
525.115	7.07
525.314	7.21
525.512	7.18
525.711	7.28
525.909	7.26
526.108	7.29
526.306	7.23
526.505	7.35
526.703	7.54
526.902	7.6
527.1	7.71
527.299	8.03
527.497	8.08
527.696	8.14
527.894	8.13
528.092	8.29
528.291	8.34
528.489	8.64
528.688	8.47
528.886	8.4
529.084	8.42
529.283	8.36
529.481	8.26
529.679	8.36
529.877	8.34
530.076	8.57
530.274	8.75
530.472	8.9
530.67	9.03
530.869	9.3
531.067	9.57
531.265	9.71
531.463	9.81
531.661	9.84
531.859	9.75
532.057	9.93
532.255	9.81
532.454	9.75
532.652	9.49
532.85	9.29
533.048	9.37
533.246	9.33
533.444	9.28
533.642	9.4
533.84	9.54
534.038	9.48
534.236	9.47
534.434	9.41
534.632	9.34
534.83	9.74
535.027	9.87
535.225	9.95
535.423	9.85
535.621	9.86
535.819	9.76
536.017	9.66
536.215	9.44
536.412	9.37
536.61	9.57
536.808	9.26
537.006	9.34
537.203	9.51
537.401	9.62
537.599	10.19
537.797	10.65
537.994	10.57
538.192	10.46
538.39	10.78
538.587	11.01
538.785	10.71
538.983	11.26
539.18	11.12
539.378	10.8
539.575	10.53
539.773	10.41
539.97	10.04
540.168	10.18
540.366	10.35
540.563	10.68
540.761	10.44
540.958	10.56
541.155	10.57
541.353	10.71
541.55	10.78
541.748	10.78
541.945	10.93
542.143	11.13
542.34	11.35
542.537	11.55
542.735	11.41
542.932	11.53
543.129	11.69
543.327	11.62
543.524	11.61
543.721	11.73
543.919	12.07
544.116	11.87
544.313	12.03
544.51	11.98
544.708	11.93
544.905	11.93
545.102	12.46
545.299	12.78
545.496	12.79
545.693	13
545.891	13.18
546.088	13.14
546.285	13.07
546.482	13.13
546.679	13.03
546.876	13.15
547.073	13.14
547.27	13.19
547.467	12.34
547.664	12.5
547.861	12.48
548.058	12.14
548.255	12.08
548.452	12.73
548.649	12.83
548.846	13.33
549.043	13.41
549.24	13.55
549.437	13.15
549.633	14.1
549.83	14.07
550.027	14.29
550.224	14.36
550.421	15.02
550.618	14.77
550.814	14.74
551.011	14.37
551.208	14.1
551.405	14.28
551.601	14.76
551.798	14.93
551.995	14.99
552.191	14.48
552.388	14.4
552.585	13.92
552.781	14.07
552.978	14.17
553.175	14.55
553.371	14.94
553.568	14.89
553.764	14.47
553.961	14.71
554.157	14.42
554.354	14.64
554.55	15.02
554.747	15.45
554.943	15.49
555.14	15.78
555.336	15.82
555.533	15.3
555.729	15.25
555.926	15.45
556.122	15.33
556.318	15.71
556.515	15.47
556.711	16.31
556.907	15.62
557.104	15.78
557.3	14.7
557.496	14.24
557.693	14.81
557.889	15.22
558.085	15
558.281	15.19
558.478	15.26
558.674	15.89
558.87	15.37
559.066	16.12
559.262	15.58
559.459	16.09
559.655	16.97
559.851	16.43
560.047	16.45
560.243	16.91
560.439	16.61
560.635	16.48
560.831	16.59
561.027	16.16
561.223	16.05
561.419	15.74
561.615	15.76
561.811	15.15
562.007	15.51
562.203	15.54
562.399	15.51
562.595	15.71
562.791	16.33
562.987	16.33
563.183	16.67
563.379	16.96
563.575	17.63
563.771	17.98
563.966	18.06
564.162	17.98
564.358	17.99
564.554	17.29
564.75	17.11
564.945	16.96
565.141	17.34
565.337	17.48
565.533	16.75
565.728	16.82
565.924	16.84
566.12	16.83
566.315	17.18
566.511	16.95
566.707	17.87
566.902	17.82
567.098	17.86
567.293	17.53
567.489	17.88
567.684	18.29
567.88	18.14
568.076	18.17
568.271	18.19
568.467	17.69
568.662	18.04
568.858	17.78
569.053	18.54
569.248	18.3
569.444	18.64
569.639	18.31
569.835	18.33
570.03	19.05
570.225	18.59
570.421	18.76
570.616	18.91
570.812	18.61
571.007	18.89
571.202	18.34
571.397	18.58
571.593	18.21
571.788	17.99
571.983	18.49
572.178	18.12
572.374	19.03
572.569	19.29
572.764	19.04
572.959	19.35
573.154	18.82
573.35	19.12
573.545	19.21
573.74	19.41
573.935	19.78
574.13	19.44
574.325	19.64
574.52	19.51
574.715	18.71
574.91	19.35
575.105	19.12
575.3	19.52
575.495	19.22
575.69	19.21
575.885	19.1
576.08	19.13
576.275	19.6
576.47	19.2
576.665	18.98
576.86	19.81
577.055	20.12
577.25	20.13
577.444	20.68
577.639	21.15
577.834	21.59
578.029	21.84
578.224	21.47
578.418	21.18
578.613	21.4
578.808	21.68
579.003	22.04
579.197	21.66
579.392	21.83
579.587	20.97
579.781	20.71
579.976	20.37
580.171	20.32
580.365	19.78
580.56	19.9
580.755	19.69
580.949	19.08
581.144	18.53
581.338	18.77
581.533	18.81
581.727	19.18
581.922	19.3
582.116	19.89
582.311	19.66
582.505	20.42
582.7	20.1
582.894	20.32
583.089	20.21
583.283	20.05
583.478	19.65
583.672	19.71
583.866	19.77
584.061	20.01
584.255	19.51
584.449	19.91
584.644	20.09
584.838	20.47
585.032	20.87
585.226	21.08
585.421	21.8
585.615	21.7
585.809	22.2
586.003	22.16
586.198	22.24
586.392	22.48
586.586	21.94
586.78	22.3
586.974	21.73
587.168	21.45
587.363	21.92
587.557	21.48
587.751	21.34
587.945	20.97
588.139	20.86
588.333	20.62
588.527	19.71
588.721	19.37
588.915	19.72
589.109	20.33
589.303	20.64
589.497	19.98
589.691	19.57
589.885	20.31
590.079	20.63
590.273	20.4
590.466	20.77
590.66	21.57
590.854	22.9
591.048	22.34
591.242	21.59
591.436	21.4
591.629	21.98
591.823	22.96
592.017	22.78
592.211	22.82
592.404	23.11
592.598	22.63
592.792	21.9
592.986	21.72
593.179	21.77
593.373	22.41
593.567	22.67
593.76	22.9
593.954	22.36
594.147	22.23
594.341	22.07
594.535	22.21
594.728	22.43
594.922	22.67
595.115	22.18
595.309	22.24
595.502	22.35
595.696	22.61
595.889	22.94
596.083	23.05
596.276	23.31
596.47	23.37
596.663	23.36
596.856	23.27
597.05	23.81
597.243	23.89
597.437	24.14
597.63	24.13
597.823	23.65
598.017	22.23
598.21	22.64
598.403	22.93
598.596	22.9
598.79	22.97
598.983	23.63
599.176	23.72
599.369	24.67
599.563	24.56
599.756	24.69
599.949	25.13
600.142	25.87
600.335	25.52
600.528	24.79
600.722	24.32
600.915	24.54
601.108	23.97
601.301	23.9
601.494	22.62
601.687	22
601.88	21.97
602.073	22
602.266	22.45
602.459	21.98
602.652	22.22
602.845	22.68
603.038	22.93
603.231	23.12
603.424	23.13
603.617	23.32
603.809	23.54
604.002	23.55
604.195	23.78
604.388	23.73
604.581	23.67
604.774	23.57
604.966	23.32
605.159	23.18
605.352	23.22
605.545	23.18
605.737	23.39
605.93	24.11
606.123	23.96
606.316	23.34
606.508	23.58
606.701	23.97
606.894	24.56
607.086	23.88
607.279	23.36
607.471	22.71
607.664	22.74
607.857	22.93
608.049	21.97
608.242	22.15
608.434	22.12
608.627	22.27
608.819	22.17
609.012	22
609.204	22.49
609.397	23
609.589	23.37
609.782	23.39
609.974	23.7
610.166	23.9
610.359	24.27
610.551	24.31
610.743	23.75
610.936	24.05
611.128	23.32
611.32	23.52
611.513	22.53
611.705	22.23
611.897	21.84
612.09	22.55
612.282	22.83
612.474	23.11
612.666	23.24
612.858	24.11
613.051	24.12
613.243	24.97
613.435	25.39
613.627	26.65
613.819	27.6
614.011	27.87
614.203	27.08
614.395	27.2
614.588	26.06
614.78	26.47
614.972	26.39
615.164	26.64
615.356	26.79
615.548	26.99
615.74	26.41
615.932	25.66
616.124	25.68
616.315	25.07
616.507	25.1
616.699	25.23
616.891	24.13
617.083	23.92
617.275	23.73
617.467	23
617.659	22.52
617.85	22.42
618.042	23.29
618.234	23.09
618.426	23.07
618.618	23.01
618.809	22.52
619.001	24.14
619.193	24.03
619.384	23.66
619.576	24.23
619.768	24.18
619.959	24.81
620.151	24.39
620.343	23.85
620.534	23.98
620.726	24.78
620.917	25.57
621.109	25.31
621.301	25.76
621.492	26.23
621.684	25.62
621.875	26.6
622.067	26.25
622.258	26.74
622.45	27.52
622.641	28.12
622.832	26.83
623.024	26.99
623.215	25.97
623.407	25.34
623.598	25.91
623.789	26.03
623.981	24.89
624.172	25.17
624.363	24.34
624.555	24.16
624.746	23.42
624.937	24.46
625.129	24.71
625.32	24.81
625.511	24.5
625.702	23.86
625.893	24.05
626.085	24.98
626.276	25.09
626.467	25.79
626.658	25.04
626.849	25.6
627.04	24.36
627.231	23.46
627.422	23.9
627.614	24.16
627.805	23.85
627.996	23.34
628.187	22.35
628.378	22.17
628.569	21.78
628.76	22.53
628.951	21.3
629.142	22.91
629.332	24
629.523	23.85
629.714	23.5
629.905	23.9
630.096	25.49
630.287	26.47
630.478	26.34
630.669	26.2
630.859	25.81
631.05	26.6
631.241	26.12
631.432	25.57
631.623	25.73
631.813	26.57
632.004	26.39
632.195	25.09
632.385	24.37
632.576	23.94
632.767	23.72
632.957	24.53
633.148	24.87
633.339	24.96
633.529	24.28
633.72	24.08
633.91	23.26
634.101	24.28
634.292	25.13
634.482	25.34
634.673	25.8
634.863	26.15
635.054	27.02
635.244	26.84
635.435	26
635.625	26.91
635.815	27.21
636.006	27.92
636.196	27.66
636.387	27.25
636.577	26.16
636.767	25.97
636.958	26.15
637.148	24.93
637.338	24.41
637.529	24.99
637.719	25.21
637.909	25.07
638.099	24.69
638.29	23.54
638.48	23.85
638.67	25.25
638.86	25.29
639.05	25.41
639.241	26.11
639.431	26.87
639.621	26.02
639.811	25.5
640.001	25.26
640.191	25.53
640.381	25.78
640.571	25.14
640.761	24.8
640.951	25.43
641.141	24.69
641.331	24
641.521	23.9
641.711	24.02
641.901	24.69
642.091	25.04
642.281	25.49
642.471	25.65
642.661	26.55
642.851	27.45
643.041	27.57
643.231	27.5
643.42	27.34
643.61	27.64
643.8	27.59
643.99	26.2
644.18	27.1
644.369	26.53
644.559	27.12
644.749	26.92
644.939	26.93
645.128	25.48
645.318	25.65
645.508	27.44
645.697	27.12
645.887	27.86
646.076	29.62
646.266	29.23
646.456	29.19
646.645	29.03
646.835	29.21
647.024	29.29
647.214	29.9
647.403	29.99
647.593	29.94
647.782	30.93
647.972	31.32
648.161	30.67
648.351	29.7
648.54	30.35
648.73	29.95
648.919	29.1
649.108	27.53
649.298	27.44
649.487	27.78
649.677	27.15
649.866	26.72
650.055	26.19
650.244	25.03
650.434	25.65
650.623	25.89
650.812	26.36
651.002	27.07
651.191	28.11
651.38	27.92
651.569	29.06
651.758	28.43
651.947	28.26
652.137	29
652.326	29.29
652.515	29.7
652.704	28.69
652.893	28.06
653.082	27.04
653.271	26.6
653.46	27.01
653.649	25.87
653.838	26.76
654.027	26.47
654.216	26.69
654.405	27.85
654.594	27.73
654.783	28.33
654.972	28.84
655.161	29.91
655.35	29.05
655.539	29.05
655.728	28.17
655.916	27.3
656.105	28.43
656.294	27.62
656.483	27.17
656.672	27.21
656.86	26.61
657.049	26.5
657.238	25.84
657.427	26.71
657.615	26.31
657.804	27.29
657.993	28.05
658.181	27.19
658.37	26.78
658.559	26.67
658.747	26.94
658.936	26.49
659.125	25.83
659.313	25.47
659.502	25.95
659.69	26.77
659.879	26.34
660.067	25.94
660.256	26.26
660.444	26.74
660.633	27.15
660.821	26.3
661.01	27.3
661.198	28.57
661.387	30.49
661.575	30.53
661.763	29.93
661.952	30.11
662.14	29.57
662.328	29.32
662.517	29.1
662.705	29.29
662.893	29.64
663.082	29.13
663.27	28.99
663.458	27.39
663.646	26.78
663.834	27.88
664.023	27.81
664.211	28.3
664.399	27.47
664.587	27.57
664.775	26.62
664.963	26.13
665.152	28.18
665.34	27.66
665.528	28.41
665.716	28.77
665.904	28.9
666.092	29.01
666.28	28.41
666.468	28.89
666.656	29.36
666.844	29.52
667.032	30.08
667.22	27.97
667.408	28.96
667.596	28.34
667.784	27.55
667.971	25.96
668.159	26.59
668.347	27.1
668.535	27.26
668.723	27.52
668.911	28.04
669.098	28.05
669.286	29.21
669.474	29.33
669.662	30.25
669.849	30.01
670.037	30.31
670.225	29.94
670.413	29.51
670.6	29.54
670.788	29.49
670.976	29.49
671.163	29.12
671.351	29.95
671.538	29.72
671.726	28.99
671.913	30.44
672.101	30.93
672.289	29.89
672.476	29.25
672.664	29.85
672.851	29.52
673.039	29.42
673.226	30.3
673.413	29.14
673.601	26.91
673.788	26.96
673.976	26.86
674.163	27.36
674.35	28.76
674.538	28.88
674.725	29.2
674.912	28.78
675.1	28.8
675.287	29.23
675.474	29.3
675.662	31.25
675.849	30.43
676.036	29.67
676.223	30.32
676.411	29.98
676.598	31.21
676.785	30.36
676.972	29.22
677.159	29.28
677.346	30.09
677.533	29.25
677.721	29.71
677.908	30.78
678.095	31.24
678.282	30.12
678.469	28.42
678.656	27.55
678.843	27.74
679.03	28.65
679.217	28.62
679.404	27.47
679.591	27.98
679.778	26.51
679.964	26.62
680.151	26.96
680.338	26.07
680.525	27.59
680.712	27.92
680.899	28.39
681.086	29.25
681.272	29.44
681.459	29
681.646	29.12
681.833	30.43
682.02	29.48
682.206	31.36
682.393	34.06
682.58	33.41
682.766	33.51
682.953	33.64
683.14	34.02
683.326	34.12
683.513	33.28
683.7	32.17
683.886	32.16
684.073	33.34
684.259	29.98
684.446	27.47
684.632	28.56
684.819	28.82
685.005	28.27
685.192	28.1
685.378	26.26
685.565	28.41
685.751	29.74
685.938	29.67
686.124	27.9
686.31	27.95
686.497	29.43
686.683	29.61
686.87	29.31
687.056	29.07
687.242	29.28
687.429	29.67
687.615	28.54
687.801	28.57
687.987	27
688.174	27.15
688.36	28.2
688.546	27.44
688.732	27.14
688.918	27.26
689.105	27.81
689.291	27.08
689.477	28.11
689.663	26.96
689.849	27.25
690.035	29.57
690.221	33.31
690.407	33.35
690.593	34.43
690.779	32.46
690.965	32.67
691.151	30.89
691.337	30.9
691.523	31.21
691.709	33.03
691.895	32.27
692.081	31.43
692.267	27.2
692.453	26.91
692.639	27.95
692.825	28.03
693.011	30.88
693.196	31.59
693.382	30.3
693.568	30.15
693.754	29.85
693.94	28.61
694.125	27.82
694.311	29.95
694.497	29.96
694.682	28.54
694.868	29.61
695.054	26.1
695.239	26.52
695.425	28.13
695.611	28.66
695.796	29.85
695.982	30.55
696.168	30.58
696.353	29.35
696.539	28.69
696.724	28.02
696.91	28.21
697.095	28.71
697.281	27.96
697.466	27.61
697.652	27.08
697.837	26.32
698.023	26.49
698.208	26.53
698.393	26.48
698.579	26.72
698.764	26.44
698.949	26.46
699.135	26.83
699.32	28.69
699.505	29.29
699.691	29.35
699.876	28.54
700.061	29.3
700.246	30.14
700.432	31.81
700.617	32.48
700.802	32.92
700.987	33.13
701.172	34.39
701.358	34.71
701.543	35.04
701.728	35.01
701.913	36.14
702.098	36.42
702.283	36.17
702.468	34.78
702.653	34.85
702.838	36.54
703.023	34.89
703.208	32.15
703.393	30.78
703.578	29.63
703.763	31.63
703.948	32.11
704.133	29.72
704.318	31
704.503	30.81
704.688	30.05
704.873	28.38
705.057	29.85
705.242	30.09
705.427	29.23
705.612	28.55
705.797	26.9
705.981	25.09
706.166	26.24
706.351	25.19
706.536	25.38
706.72	23.45
706.905	25.08
707.09	24.45
707.274	25.34
707.459	25.52
707.644	27.47
707.828	26.93
708.013	27.66
708.197	28.42
708.382	28.4
708.567	27.21
708.751	28.16
708.936	28.21
709.12	29.45
709.305	29.1
709.489	30.18
709.673	29.74
709.858	29.21
710.042	28.8
710.227	28.28
710.411	27.64
710.596	29.52
710.78	29.42
710.964	29.47
711.149	30.26
711.333	30.54
711.517	29.73
711.702	28.46
711.886	29.92
712.07	30.67
712.254	31.59
712.438	32.3
712.623	32.15
712.807	31.77
712.991	31
713.175	29
713.359	27.42
713.544	27.56
713.728	28.2
713.912	26.7
714.096	27.56
714.28	27.2
714.464	24.27
714.648	25.71
714.832	28.27
715.016	28.57
715.2	28.77
715.384	30.97
715.568	30.7
715.752	32.25
715.936	32.01
716.12	31.37
716.304	31.95
716.488	34.98
716.671	33.37
716.855	33.92
717.039	34.64
717.223	36.53
717.407	35.67
717.59	38.26
717.774	37.1
717.958	38.84
718.142	37.66
718.325	35.9
718.509	35
718.693	36.72
718.877	34.55
719.06	34.93
719.244	34.43
719.428	32.72
719.611	30.76
719.795	31.54
719.978	29.79
720.162	30.01
720.345	31.75
720.529	32.48
720.713	32.43
720.896	32.45
721.08	30.9
721.263	28.38
721.446	30.38
721.63	30.53
721.813	29.23
721.997	30.61
722.18	31
722.364	31.16
722.547	27.68
722.73	26
722.914	27.88
723.097	25.87
723.28	25.31
723.464	23.54
723.647	23.79
723.83	25.99
724.013	28.03
724.197	28.78
724.38	27.45
724.563	30.78
724.746	30.88
724.929	29.94
725.112	27.74
725.296	29.42
725.479	31.3
725.662	32.63
725.845	31.69
726.028	30.01
726.211	31.03
726.394	31.23
726.577	29.21
726.76	30.81
726.943	30.62
727.126	34.91
727.309	33.66
727.492	33.02
727.675	32.06
727.858	33.35
728.041	33.3
728.224	32.2
728.407	32.17
728.589	36.33
728.772	33.78
728.955	37.15
729.138	36.36
729.321	37.87
729.503	38.33
729.686	38.4
729.869	35.07
730.052	36.19
730.234	36.16
730.417	35.98
730.6	33
730.782	35.72
730.965	32.33
731.148	32.61
731.33	32.79
731.513	31.78
731.695	30.47
731.878	30.57
732.061	30.26
732.243	28.98
732.426	29.04
732.608	30.06
732.791	27.82
732.973	26.9
733.156	24.94
733.338	25.83
733.52	25.98
733.703	28.49
733.885	28.86
734.068	29.27
734.25	30.65
734.432	32.63
734.615	31.39
734.797	30.82
734.979	31.36
735.162	33.34
735.344	32.83
735.526	30.1
735.708	28.67
735.891	31.08
736.073	29.64
736.255	28.76
736.437	24.53
736.619	25.61
736.802	28.03
736.984	29.53
737.166	30.25
737.348	30.26
737.53	34.55
737.712	33.43
737.894	33.85
738.076	34.09
738.258	35.52
738.44	35.91
738.622	33.47
738.804	34.25
738.986	35.31
739.168	34.72
739.35	32.68
739.532	31.42
739.714	32.35
739.896	31.84
740.078	32
740.259	33.14
740.441	38.11
740.623	40.18
740.805	38.75
740.987	38.79
741.168	37.75
741.35	39.95
741.532	41.1
741.714	39.93
741.895	36.84
742.077	38.13
742.259	36.96
742.44	37.34
742.622	36.48
742.804	38.2
742.985	35.84
743.167	36.17
743.348	37.52
743.53	34.66
743.711	37.33
743.893	42.19
744.075	39.1
744.256	38.36
744.438	35.11
744.619	38.44
744.8	36.83
744.982	40.98
745.163	41.88
745.345	41.11
745.526	43.81
745.707	40.85
745.889	40.24
746.07	41.52
746.252	40.2
746.433	40.1
746.614	39.03
746.795	40.07
746.977	38.52
747.158	38.97
747.339	37.07
747.52	34.64
747.702	36.36
747.883	36.23
748.064	34.5
748.245	34.25
748.426	32.22
748.607	31.45
748.788	28.43
748.97	24.29
749.151	26.45
749.332	26.91
749.513	27.56
749.694	26.12
749.875	23.29
750.056	24.27
750.237	28.83
750.418	29.69
750.599	33.38
750.78	33.39
750.96	35.43
751.141	32.48
751.322	34.04
751.503	35.09
751.684	35.57
751.865	36.39
752.046	37.42
752.226	36.33
752.407	37.37
752.588	34.68
752.769	35.97
752.949	37.82
753.13	39.44
753.311	39.78
753.492	39.33
753.672	38.24
753.853	38.98
754.034	38.81
754.214	38.7
754.395	38.13
754.575	37.43
754.756	39
754.937	36.9
755.117	35.08
755.298	32.04
755.478	34.16
755.659	36.96
755.839	33.82
756.02	32.09
756.2	34.5
756.381	34.24
756.561	34.29
756.741	32.47
756.922	33.42
757.102	32.71
757.283	38.11
757.463	35.08
757.643	34.36
757.823	37.28
758.004	38.61
758.184	35.34
758.364	36.57
758.545	35.62
758.725	39.78
758.905	37.38
759.085	37.02
759.265	33.61
759.446	36.02
759.626	34.89
759.806	35.28
759.986	35.96
760.166	35.64
760.346	32.26
760.526	33.06
760.706	31.46
760.886	36.14
761.066	35.36
761.246	33.81
761.426	30.35
761.606	29.1
761.786	29.52
761.966	30.62
762.146	32.02
762.326	32
762.506	33.61
762.686	32.77
762.866	31.65
763.046	33.35
763.225	35.31
763.405	36.21
763.585	37.51
763.765	35.18
763.945	34.38
764.124	33.52
764.304	34.83
764.484	33.55
764.664	33.96
764.843	35.13
765.023	34.35
765.203	33.17
765.382	33.86
765.562	35.23
765.741	36.08
765.921	37.31
766.101	37.79
766.28	36.7
766.46	38.61
766.639	38.05
766.819	35.63
766.998	35
767.178	33.54
767.357	32.81
767.537	34.62
767.716	33.66
767.896	34.49
768.075	34.57
768.254	35.65
768.434	34.27
768.613	34.17
768.792	33.18
768.972	32.53
769.151	35.45
769.33	37.62
769.51	31.3
769.689	29.84
769.868	23.74
770.047	21.13
770.226	20.74
770.406	19.83
770.585	24.05
770.764	28.56
770.943	32.82
771.122	31.23
771.301	29.8
771.48	36.2
771.66	40.48
771.839	45.87
772.018	48.51
772.197	48.9
772.376	51.3
772.555	49.43
772.734	48.83
772.913	46.69
773.092	50.3
773.271	49.47
773.449	49.78
773.628	44.97
773.807	40.38
773.986	41.8
774.165	44.58
774.344	38.52
774.523	38.5
774.701	39.3
774.88	38.19
775.059	36.56
775.238	39.21
775.417	36.39
775.595	38.46
775.774	44.56
775.953	36.76
776.131	31.93
776.31	33.14
776.489	35.06
776.667	32.33
776.846	33.32
777.025	33.57
777.203	30.95
777.382	32.35
777.56	36.42
777.739	30.94
777.917	39.19
778.096	45.39
778.274	45.47
778.453	43.72
778.631	41.94
778.81	45.07
778.988	45.3
779.166	46.93
779.345	46.71
779.523	39.86
779.702	42.79
779.88	37.8
780.058	31.29
780.237	37.47
780.415	36.86
780.593	36.65
780.771	31.03
780.95	26.46
781.128	31.5
781.306	30.2
781.484	36.38
781.662	32.27
781.841	35.5
782.019	36.29
782.197	32.19
782.375	35.03
782.553	36.57
782.731	37.5
782.909	47.55
783.087	42.91
783.265	44.96
783.443	47.01
783.621	56.85
783.799	55.1
783.977	57
784.155	55.03
784.333	52.05
784.511	55.93
784.689	58.67
784.867	49.33
785.045	50.14
785.223	45.52
785.4	39.32
785.578	35.75
785.756	39.92
785.934	38.28
786.112	40.9
786.289	37.96
786.467	35.09
786.645	35.08
786.823	41.89
787	37.02
787.178	38.25
787.356	40.86
787.533	40.16
787.711	33.5
787.889	34.24
788.066	33.63
788.244	35.81
788.421	36.11
788.599	36.65
788.776	30.42
788.954	35.64
789.131	35.69
789.309	32.32
789.486	27.81
789.664	26.32
789.841	27.95
790.019	23.36
790.196	23.69
790.373	20.8
790.551	24.7
790.728	27.58
790.906	23.55
791.083	32.16
791.26	35.1
791.437	39.36
791.615	45.27
791.792	48.04
791.969	48.8
792.146	51.4
792.324	53.42
792.501	48.54
792.678	50.69
792.855	53.54
793.032	47.4
793.209	46.63
793.387	45.33
793.564	43.1
793.741	42.06
793.918	43.78
794.095	39.54
794.272	42.91
794.449	44.35
794.626	34.68
794.803	36.02
794.98	38.5
795.157	42.71
795.334	38.19
795.511	33.84
795.688	34.01
795.864	34.66
796.041	38.25
796.218	35.16
796.395	37.08
796.572	41.58
796.749	37.16
796.925	33.95
797.102	28.23
797.279	40.13
797.456	42.1
797.632	41.4
797.809	38.93
797.986	33.2
798.162	34.04
798.339	32.72
798.516	35.1
798.692	41.13
798.869	42.49
799.046	48.94
799.222	45.9
799.399	44.43
799.575	39.2
799.752	42.46
799.928	49.9
800.105	48.24
800.281	51.08
800.458	50.66
800.634	46.21
800.811	42.59
800.987	35.54
801.163	35.2
801.34	36.59
801.516	42.57
801.692	47.23
801.869	47.58
802.045	44.72
802.221	40.2
802.398	36.16
802.574	34.06
802.75	43.47
802.926	47.03
803.103	43.58
803.279	42.71
803.455	38.94
803.631	39.51
803.807	36.73
803.983	39.78
804.16	39.2
804.336	42.03
804.512	44.98
804.688	42.09
804.864	41.62
805.04	43.72
805.216	45.42
805.392	43.49
805.568	38.34
805.744	37.29
805.92	35.73
806.096	37.99
806.272	42.86
806.448	33
806.623	30.11
806.799	32.55
806.975	25.33
807.151	22.09
807.327	24.32
807.503	23.71
807.678	20.26
807.854	22.17
808.03	27.29
808.206	27.8
808.381	32.29
808.557	30.62
808.733	27.16
808.908	34.02
809.084	32.14
809.26	36.83
809.435	33.42
809.611	28.98
809.787	26.16
809.962	23.66
810.138	17.82
810.313	21.03
810.489	24.89
810.664	30.15
810.84	31.11
811.015	33.96
811.191	33.07
811.366	37.44
811.542	44.11
811.717	45.83
811.892	49.09
812.068	45.11
812.243	40.4
812.419	34.82
812.594	35.69
812.769	32.28
812.944	17.62
813.12	20.57
813.295	17.2
813.47	18.63
813.645	6.31
813.821	20.6
813.996	30.16
814.171	38.78
814.346	39.08
814.521	38.07
814.697	35.22
814.872	47.37
815.047	34.04
815.222	30.61
815.397	23.52
815.572	28.94
815.747	11.56
815.922	6.07
816.097	-6.09
816.272	-0.47
816.447	-11.34
816.622	-3.5
816.797	3.57
816.972	9.29
817.147	8.44
817.322	17.3
817.496	20.18
817.671	23.42
817.846	26.8
818.021	35.09
818.196	33.27
818.371	35.64
818.545	32.64
818.72	26.43
818.895	24.06
819.069	27.79
819.244	25
819.419	27.47
819.594	27.28
819.768	25.4
819.943	24.58
820.117	29.58
820.292	28.27
820.467	28.7
820.641	28.45
820.816	28.37
820.99	27.47
821.165	27.52
821.339	26.35
821.514	26.08
821.688	25.51
821.863	23.12
822.037	21.35
822.212	21.8
822.386	21.72
822.56	21.84
822.735	21.63
822.909	21.62
823.084	21.87
823.258	21.68
823.432	21.97
823.606	24.07
823.781	25.16
823.955	25.11
824.129	22.8
824.303	22.45
824.478	21.67
824.652	23.63
824.826	25.66
825	24.74
825.174	26.02
825.348	24.53
825.523	22.89
825.697	24.01
825.871	24.85
826.045	28.11
826.219	30.01
826.393	30.94
826.567	29.73
826.741	28.01
826.915	26.49
827.089	23.85
827.263	24.35
827.437	23.5
827.611	22.51
827.784	24.14
827.958	24.25
828.132	22.09
828.306	21.13
828.48	22.95
828.654	24.11
828.827	28.21
829.001	29.81
829.175	31.86
829.349	35.94
829.522	35.94
829.696	31.26
829.87	28.3
830.044	27.01
830.217	31.82
830.391	32.48
830.565	30.91
830.738	29.27
830.912	31.93
831.085	31.97
831.259	26.2
831.432	26.08
831.606	33.23
831.779	38.04
831.953	40.13
832.126	35.83
832.3	31.9
832.473	30.39
832.647	29.51
832.82	30.12
832.994	29.37
833.167	29.49
833.34	30.55
833.514	26.62
833.687	27.61
833.86	26.75
834.034	27.6
834.207	27.27
834.38	28.4
834.553	29.01
834.727	29.08
834.9	29.05
835.073	30.29
835.246	32.34
835.419	31.53
835.593	30.83
835.766	36.29
835.939	37.05
836.112	38.89
836.285	37.91
836.458	42.4
836.631	40.27
836.804	37.76
836.977	37.63
837.15	30.11
837.323	35.42
837.496	38.43
837.669	34.52
837.842	33.28
838.015	31.51
838.188	39.13
838.361	27.3
838.533	24.23
838.706	27.71
838.879	26.97
839.052	29.64
839.225	26.42
839.398	22.87
839.57	16.18
839.743	18.52
839.916	12.1
840.088	-3.26
840.261	10.11
840.434	17.19
840.607	9.62
840.779	14.74
840.952	14.27
841.124	15.63
841.297	11.5
841.47	24.71
841.642	19.12
841.815	33.98
841.987	50.74
842.16	38.03
842.332	28.79
842.505	44.27
842.677	42.83
842.85	49.57
843.022	48.94
843.194	54.48
843.367	47.03
843.539	58.87
843.712	55.6
843.884	51.42
844.056	64.88
844.229	78.68
844.401	61.33
844.573	65.82
844.745	58.68
844.918	54.72
845.09	36.8
845.262	45.51
845.434	26.67
845.606	31.96
845.779	39.2
845.951	38.65
846.123	30.84
846.295	37.09
846.467	30.68
846.639	17.98
846.811	20.79
846.983	24.73
847.155	-40.82
847.327	22.75
847.499	-26.82
847.671	32.42
847.843	14.18
848.015	-25.45
848.187	9.55
848.359	5.61
848.531	14.8
848.703	44.43
848.875	33.92
849.047	30.65
849.218	25.29
849.39	34.64
849.562	10.19
849.734	14.66
849.905	36.68
850.077	35.77
850.249	41.91
850.421	59.72
850.592	55.58
850.764	70.49
850.936	81.68
851.107	78.16
851.279	83.6
851.451	86.21
851.622	83.32
851.794	83.67
851.965	86.5
852.137	78.37
852.308	60.52
852.48	67.86
852.651	60.01
852.823	52.09
852.994	46.16
853.166	33.36
853.337	34.08
853.509	30.1
853.68	26.28
853.851	21.84
854.023	-0.66
854.194	4.54
854.365	-5.27
854.537	-20.13
854.708	20.36
854.879	56.23
855.05	79.64
855.222	104.59
855.393	100.99
855.564	81.98
855.735	105.73
855.906	126.51
856.078	99.79
856.249	94.26
856.42	80.22
856.591	45.64
856.762	28.24
856.933	23.2
857.104	24.99
857.275	24.07
857.446	37.16
857.617	37.37
857.788	47.84
857.959	44.48
858.13	43.5
858.301	64.49
858.472	74.81
858.643	110.62
858.814	93.33
858.985	96.18
859.155	102.92
859.326	91.19
859.497	85.72
859.668	63.07
859.839	81.34
860.009	93.68
860.18	88.08
860.351	75.17
860.522	53.59
860.692	37.52
860.863	39.28
861.034	27.6
861.204	25.69
861.375	37.37
861.546	57.17
861.716	57.93
861.887	40.05
862.057	27.91
862.228	35.62
862.398	32.04
862.569	22.66
862.739	1
862.91	-20.91
863.08	9.19
863.251	-3.78
863.421	8.42
863.592	5.14
863.762	20.59
863.932	8.11
864.103	-11.6
864.273	-58.61
864.443	-3.53
864.614	-13.88
864.784	28.02
864.954	37.37
865.125	48.07
865.295	45.77
865.465	39.59
865.635	41.78
865.805	56.18
865.976	107.66
866.146	115.3
866.316	301.9
866.486	3661.62
866.656	-562.49
866.826	-158.41
866.996	-58.01
867.166	-78.72
867.336	-109.93
867.506	-363.7
867.676	1486.96
867.846	302.47
868.016	300
868.186	133.35
868.356	93.23
868.526	72.91
868.696	80.99
868.866	67.99
869.036	47.96
869.206	43.87
869.376	34
869.545	29.23
869.715	26.48
869.885	35.08
870.055	29.99
870.224	44.94
870.394	37.68
870.564	35.48
870.734	34.61
870.903	54.01
871.073	47.92
871.243	44.91
871.412	31.96
871.582	20.42
871.751	41.85
871.921	51.97
872.091	43.87
872.26	29.7
872.43	17.26
872.599	25.71
872.769	-2.08
872.938	10.59
873.108	5.03
873.277	13.88
873.446	21.12
873.616	12.11
873.785	-39.27
873.955	-28.75
874.124	-14.31
874.293	9.95
874.463	-11.27
874.632	-9.63
874.801	-10.04
874.971	0.12
875.14	-0.07
875.309	30.89
875.478	32.93
875.647	41.41
875.817	45.6
875.986	43.59
876.155	61.85
876.324	85.97
876.493	86.75
876.662	92.26
876.831	95.03
877	90.52
877.17	72.5
877.339	-18.97
877.508	130.56
877.677	-243.44
877.846	83.09
878.015	13.94
878.184	21.25
878.352	27.4
878.521	29.02
878.69	37.56
878.859	46.15
879.028	50.26
879.197	51.21
879.366	42.27
879.534	47.93
879.703	46.3
879.872	44.04
880.041	39.23
880.21	34.52
880.378	36.61
880.547	35.42
880.716	30.5
880.884	31.53
881.053	32.71
881.222	32.77
881.39	29.94
881.559	27.76
881.727	26.94
881.896	25.25
882.065	25.81
882.233	22.85
882.402	23.74
882.57	24.91
882.739	25.72
882.907	20.48
883.076	21.28
883.244	18.22
883.412	15.84
883.581	17.93
883.749	20.48
883.918	20.53
884.086	16.86
884.254	10.61
884.423	7.92
884.591	5.47
884.759	11.21
884.927	9.58
885.096	19.59
885.264	24.77
885.432	32.36
885.6	39.22
885.769	36.27
885.937	33.52
886.105	36.37
886.273	51.55
886.441	38.88
886.609	27.81
886.777	23.59
886.945	7.84
887.113	4.98
887.281	6.21
887.449	-11.79
887.617	-6.8
887.785	13.34
887.953	20.94
888.121	-13.03
888.289	-6.3
888.457	-19.85
888.625	-8.09
888.793	3.61
888.961	-17.31
889.129	-42.25
889.296	-61.2
889.464	-114.31
889.632	-90.43
889.8	-195.55
889.967	-95.45
890.135	-78.59
