Data from JASIL_2909_Reflection_1.txt Node
Date: Sat Nov 07 20:25:19 EST 2015
User: Geneva
Spectrometer: USB4E03002
Autoset integration time: false
Trigger mode: 4
Integration Time (sec): 1.000000E-1
Scans to average: 10
Electric dark correction enabled: true
Nonlinearity correction enabled: false
Boxcar width: 5
Stray light correction enabled: false
XAxis mode: Wavelengths
Stop averaging: false
Number of Pixels in Spectrum: 3648
>>>>>Begin Spectral Data<<<<<
177.575	114.52
177.794	145.66
178.014	106.06
178.233	88.13
178.452	84.54
178.672	132.68
178.891	-175.58
179.11	115.75
179.33	59.52
179.549	70.29
179.768	80.38
179.987	92.82
180.207	108.08
180.426	91.3
180.645	93.24
180.864	98.64
181.084	105.11
181.303	104.21
181.522	98.22
181.741	121.17
181.96	116.07
182.179	104.22
182.398	119.09
182.618	100.41
182.837	104.88
183.056	91.84
183.275	91.09
183.494	78
183.713	63.41
183.932	66.99
184.151	61.3
184.37	72.16
184.589	82.86
184.808	71.24
185.027	74.37
185.246	80.24
185.465	84.96
185.684	75.98
185.903	88.57
186.122	111.77
186.341	108.1
186.56	106.69
186.779	110.81
186.998	115.14
187.216	116.96
187.435	108.72
187.654	102.6
187.873	104.26
188.092	111.96
188.311	101.92
188.53	94.59
188.748	93
188.967	94.42
189.186	87.1
189.405	82.32
189.623	88.1
189.842	97.8
190.061	93.18
190.28	88.56
190.498	89.65
190.717	93.96
190.936	95.52
191.154	82.21
191.373	80.89
191.592	85.14
191.81	86.19
192.029	73.79
192.248	59.86
192.466	64.01
192.685	62.6
192.904	59.32
193.122	54.62
193.341	46.3
193.559	56.98
193.778	63.75
193.996	62.98
194.215	69.63
194.433	78.07
194.652	80.66
194.87	91.08
195.089	97.56
195.307	103.29
195.526	110.42
195.744	115.39
195.963	113.89
196.181	107.28
196.399	105.88
196.618	104.31
196.836	104.48
197.055	105.21
197.273	98.81
197.491	95.58
197.71	89.04
197.928	84.91
198.146	83.55
198.365	83.07
198.583	73.81
198.801	77.66
199.019	75.29
199.238	70.05
199.456	68.56
199.674	74.29
199.892	72.22
200.111	83.13
200.329	85.46
200.547	82.38
200.765	73.41
200.983	88.7
201.202	77.95
201.42	68.04
201.638	64.98
201.856	73.49
202.074	67.94
202.292	65.4
202.51	64.64
202.728	70.92
202.946	72.09
203.165	76.58
203.383	73.13
203.601	74.83
203.819	73.74
204.037	77.58
204.255	73.2
204.473	67.81
204.691	71.71
204.909	67.12
205.127	61.75
205.345	62.09
205.562	70.53
205.78	71.48
205.998	67.5
206.216	74.13
206.434	74.95
206.652	72.73
206.87	77.63
207.088	71.25
207.306	71.42
207.523	67.39
207.741	69.21
207.959	59.37
208.177	55.26
208.395	54.82
208.612	55.33
208.83	58.05
209.048	63.51
209.266	62.03
209.483	60.4
209.701	63.8
209.919	72.42
210.136	68.41
210.354	73.06
210.572	78.75
210.79	80.86
211.007	77.36
211.225	66.04
211.442	61.85
211.66	63.2
211.878	66.03
212.095	55.81
212.313	39.68
212.53	39.99
212.748	37.37
212.966	31.22
213.183	28.69
213.401	37.25
213.618	42.07
213.836	40.68
214.053	41.23
214.271	39.66
214.488	56.32
214.705	55.71
214.923	54.37
215.14	55.7
215.358	52.69
215.575	54.98
215.793	49.7
216.01	56.18
216.227	56.15
216.445	60.74
216.662	64.01
216.879	59.19
217.097	57.98
217.314	58.91
217.531	57.33
217.749	64.4
217.966	66.83
218.183	62.86
218.4	52.35
218.618	54.74
218.835	46.91
219.052	41.28
219.269	39.44
219.487	41.59
219.704	40.09
219.921	37.94
220.138	30.34
220.355	23.17
220.572	24.27
220.79	29.55
221.007	32.85
221.224	28.46
221.441	30.79
221.658	34.68
221.875	37.01
222.092	33.58
222.309	34
222.526	37.19
222.743	41.29
222.96	45.54
223.177	44.56
223.394	41.34
223.611	46.31
223.828	43.71
224.045	42.42
224.262	40.88
224.479	39.55
224.696	38.54
224.913	36.04
225.13	32.73
225.347	30.53
225.564	28.66
225.781	25.92
225.997	24.06
226.214	22.69
226.431	19.88
226.648	18.32
226.865	18.18
227.082	17.48
227.298	17.25
227.515	17.24
227.732	16.65
227.949	16.5
228.165	16.32
228.382	15.83
228.599	16
228.816	16.54
229.032	16.52
229.249	16.58
229.466	16.63
229.682	16.65
229.899	16.86
230.116	17.12
230.332	16.57
230.549	17.17
230.765	18.26
230.982	17.8
231.199	17.65
231.415	17.56
231.632	17.49
231.848	18.19
232.065	17.96
232.281	17.76
232.498	17.71
232.714	18.72
232.931	19.66
233.147	19
233.364	19.25
233.58	18.49
233.797	19.83
234.013	20.64
234.23	19.82
234.446	18.92
234.662	18.75
234.879	18.46
235.095	18.15
235.312	16.95
235.528	18.12
235.744	17.83
235.961	18.73
236.177	17.24
236.393	17.52
236.61	18.3
236.826	18.66
237.042	18.79
237.258	19.22
237.475	19.54
237.691	20.51
237.907	18.09
238.123	18.31
238.339	17.69
238.556	18.93
238.772	17.36
238.988	16.87
239.204	17.11
239.42	17
239.636	16.69
239.853	16.27
240.069	15.14
240.285	15.11
240.501	14.38
240.717	14.23
240.933	13.72
241.149	13.68
241.365	13.3
241.581	13.26
241.797	12.92
242.013	12.39
242.229	12.26
242.445	12.17
242.661	12.18
242.877	12.66
243.093	12.57
243.309	12.13
243.525	11.95
243.741	12.18
243.957	11.68
244.173	11.55
244.388	11.96
244.604	11.29
244.82	10.9
245.036	10.74
245.252	10.57
245.468	10.58
245.683	10.85
245.899	10.62
246.115	10.62
246.331	10.52
246.547	10.36
246.762	10.3
246.978	10.4
247.194	10.58
247.409	10.56
247.625	10.46
247.841	10.43
248.057	10.4
248.272	10.41
248.488	10.09
248.703	10.02
248.919	10.65
249.135	10.47
249.35	10.46
249.566	10.64
249.782	10.61
249.997	10.57
250.213	10.63
250.428	10.16
250.644	10.96
250.859	11.18
251.075	11.36
251.29	10.67
251.506	10.7
251.721	10.59
251.937	10.69
252.152	10.77
252.368	11.09
252.583	11.35
252.798	11.73
253.014	11.24
253.229	11.05
253.445	10.91
253.66	11.8
253.875	11.68
254.091	12.28
254.306	12.19
254.521	12.21
254.737	11.72
254.952	10.56
255.167	10.76
255.383	10.42
255.598	10.62
255.813	10.21
256.028	9.74
256.244	9.64
256.459	9.51
256.674	8.69
256.889	7.99
257.104	7.86
257.32	8.39
257.535	8.03
257.75	8.12
257.965	8.25
258.18	8.5
258.395	8.32
258.61	8.2
258.826	7.97
259.041	8.17
259.256	8.26
259.471	8.28
259.686	8.18
259.901	8.33
260.116	8.24
260.331	8.02
260.546	8.2
260.761	8.02
260.976	8.18
261.191	8.03
261.406	8
261.621	8.26
261.836	8.39
262.05	8
262.265	7.68
262.48	7.48
262.695	7.56
262.91	7.11
263.125	7.71
263.34	7.93
263.555	8.89
263.769	8.89
263.984	8.67
264.199	8.51
264.414	8.78
264.629	8.64
264.843	9.12
265.058	9.27
265.273	8.95
265.488	8.56
265.702	8.21
265.917	8.16
266.132	8.13
266.346	8.12
266.561	8.15
266.776	8.41
266.99	8.47
267.205	8.56
267.42	8.66
267.634	8.66
267.849	8.84
268.063	9.07
268.278	8.85
268.492	8.66
268.707	8.44
268.922	8.55
269.136	8.38
269.351	8.18
269.565	8.07
269.78	7.65
269.994	7.77
270.209	7.74
270.423	7.64
270.637	7.62
270.852	7.79
271.066	7.96
271.281	7.74
271.495	7.66
271.709	7.94
271.924	7.86
272.138	8.05
272.353	8.05
272.567	7.96
272.781	8
272.996	7.94
273.21	7.99
273.424	8.04
273.638	8.18
273.853	8.34
274.067	8.2
274.281	8.31
274.495	8.12
274.71	7.88
274.924	7.83
275.138	7.66
275.352	7.77
275.566	7.87
275.781	7.94
275.995	8.06
276.209	8.03
276.423	7.84
276.637	7.54
276.851	7.57
277.065	7.75
277.279	7.66
277.493	7.83
277.707	7.74
277.921	7.34
278.135	6.88
278.349	6.46
278.563	6.21
278.777	6.58
278.991	6.8
279.205	6.88
279.419	6.79
279.633	7.03
279.847	7.07
280.061	7
280.275	6.97
280.489	7.44
280.703	7.46
280.917	7.49
281.131	7.35
281.344	7.46
281.558	7.18
281.772	7.24
281.986	7.1
282.2	6.86
282.414	6.82
282.627	6.78
282.841	6.83
283.055	7.04
283.269	6.93
283.482	6.9
283.696	6.69
283.91	6.59
284.123	6.46
284.337	6.55
284.551	6.52
284.764	6.55
284.978	6.66
285.192	6.61
285.405	6.41
285.619	6.42
285.833	6.36
286.046	6.3
286.26	6.57
286.473	6.79
286.687	6.56
286.9	6.91
287.114	6.96
287.327	6.9
287.541	6.67
287.754	6.84
287.968	7.05
288.181	7.05
288.395	7.06
288.608	6.95
288.822	6.73
289.035	6.72
289.248	6.48
289.462	6.58
289.675	6.49
289.889	6.5
290.102	6.39
290.315	6.28
290.529	6.17
290.742	6.33
290.955	6.43
291.169	6.32
291.382	6.4
291.595	6.41
291.808	6.16
292.022	6.09
292.235	6.36
292.448	6.19
292.661	6.19
292.875	6
293.088	5.86
293.301	5.66
293.514	5.79
293.727	5.78
293.94	5.88
294.153	5.93
294.367	6.06
294.58	5.55
294.793	6.03
295.006	5.91
295.219	6.29
295.432	6.25
295.645	6.33
295.858	6.26
296.071	6.15
296.284	6.03
296.497	5.98
296.71	5.97
296.923	6.25
297.136	5.96
297.349	6.23
297.562	6.07
297.775	6.13
297.988	6.15
298.201	6.21
298.414	6.52
298.626	6.5
298.839	6.43
299.052	6.64
299.265	6.66
299.478	6.66
299.691	6.62
299.903	6.58
300.116	6.62
300.329	6.69
300.542	6.8
300.755	6.8
300.967	6.88
301.18	6.9
301.393	6.74
301.605	6.68
301.818	6.7
302.031	6.57
302.243	6.51
302.456	6.51
302.669	6.45
302.881	6.51
303.094	6.21
303.307	5.94
303.519	6
303.732	6.01
303.944	5.8
304.157	5.92
304.37	5.81
304.582	5.85
304.795	5.72
305.007	5.87
305.22	6.06
305.432	6.3
305.645	6.56
305.857	6.63
306.069	6.37
306.282	6.7
306.494	6.8
306.707	6.9
306.919	6.86
307.132	6.73
307.344	6.61
307.556	6.49
307.769	6.7
307.981	6.74
308.193	6.7
308.406	6.73
308.618	6.59
308.83	6.34
309.043	6.32
309.255	6.43
309.467	6.52
309.679	6.68
309.892	6.63
310.104	6.35
310.316	6.41
310.528	6.42
310.74	6.52
310.953	6.44
311.165	6.53
311.377	6.5
311.589	6.46
311.801	6.56
312.013	6.48
312.225	6.39
312.437	6.61
312.649	6.69
312.862	6.64
313.074	6.54
313.286	6.74
313.498	6.8
313.71	6.82
313.922	6.9
314.134	6.91
314.346	6.79
314.558	6.97
314.77	7.12
314.982	7.19
315.193	7.04
315.405	7.17
315.617	7.06
315.829	6.96
316.041	7.35
316.253	7.34
316.465	7.28
316.677	7.4
316.888	7.37
317.1	7.16
317.312	7.04
317.524	7.54
317.736	7.82
317.947	7.91
318.159	8.2
318.371	7.85
318.583	8.03
318.794	8.14
319.006	8.06
319.218	7.99
319.43	8.02
319.641	8.18
319.853	8.24
320.064	8.37
320.276	8.46
320.488	8.38
320.699	8.46
320.911	8.42
321.123	8.55
321.334	8.67
321.546	8.87
321.757	9.16
321.969	8.98
322.18	8.74
322.392	8.46
322.603	8.42
322.815	8.49
323.026	8.53
323.238	8.5
323.449	8.42
323.661	8.62
323.872	8.74
324.083	8.64
324.295	8.69
324.506	8.87
324.718	9.12
324.929	9.18
325.14	9.48
325.352	9.74
325.563	9.96
325.774	10.1
325.986	10.05
326.197	10.23
326.408	10.35
326.62	10.39
326.831	10.49
327.042	10.68
327.253	10.83
327.464	10.84
327.676	10.96
327.887	11.01
328.098	11.19
328.309	11.52
328.52	11.65
328.732	11.79
328.943	12.4
329.154	12.51
329.365	12.62
329.576	12.87
329.787	13.05
329.998	13.16
330.209	13.54
330.42	13.64
330.631	13.77
330.842	13.81
331.053	13.95
331.264	13.89
331.475	14.25
331.686	14.34
331.897	14.48
332.108	14.43
332.319	14.45
332.53	14.35
332.741	14.27
332.952	14.49
333.163	14.53
333.374	14.43
333.585	14.4
333.795	14.41
334.006	14.41
334.217	14.51
334.428	14.5
334.639	14.6
334.849	14.51
335.06	14.66
335.271	14.43
335.482	14.39
335.692	14.36
335.903	14.28
336.114	14.23
336.325	14.38
336.535	14.43
336.746	14.51
336.957	14.5
337.167	14.64
337.378	14.81
337.589	14.95
337.799	14.93
338.01	15.07
338.22	15.2
338.431	15.09
338.642	14.96
338.852	14.78
339.063	14.7
339.273	14.74
339.484	14.66
339.694	14.65
339.905	14.56
340.115	14.67
340.326	14.77
340.536	14.68
340.746	14.84
340.957	14.81
341.167	14.98
341.378	15.21
341.588	15.16
341.799	15.22
342.009	15.06
342.219	15.04
342.43	15.04
342.64	15
342.85	14.88
343.061	14.66
343.271	14.67
343.481	14.51
343.691	14.23
343.902	14.13
344.112	13.97
344.322	13.95
344.532	13.89
344.743	13.71
344.953	13.57
345.163	13.61
345.373	13.67
345.583	13.7
345.793	13.58
346.004	13.75
346.214	13.83
346.424	13.98
346.634	13.94
346.844	14.09
347.054	14.15
347.264	14.34
347.474	14.42
347.684	14.3
347.894	14.24
348.104	14.52
348.314	14.41
348.524	14.36
348.734	14.35
348.944	14.29
349.154	14.23
349.364	14.05
349.574	13.93
349.784	13.89
349.994	13.92
350.204	13.66
350.413	13.41
350.623	13.31
350.833	13.25
351.043	13.04
351.253	13.15
351.463	13.1
351.672	13.35
351.882	13.35
352.092	13.28
352.302	13.36
352.511	13.59
352.721	13.67
352.931	13.71
353.141	13.67
353.35	13.88
353.56	13.8
353.77	13.84
353.979	13.72
354.189	13.7
354.399	13.64
354.608	13.54
354.818	13.41
355.027	13.36
355.237	13.34
355.447	13.26
355.656	13.09
355.866	13
356.075	12.91
356.285	12.9
356.494	12.81
356.704	12.84
356.913	12.9
357.123	12.94
357.332	12.82
357.542	12.91
357.751	13.02
357.96	13.06
358.17	13.1
358.379	13.05
358.589	13.05
358.798	12.98
359.007	13.11
359.217	13.12
359.426	13.06
359.635	13.14
359.845	13.13
360.054	13.1
360.263	13.2
360.472	13.17
360.682	13.18
360.891	13.14
361.1	13.16
361.309	13.05
361.519	12.93
361.728	12.9
361.937	12.87
362.146	12.79
362.355	12.69
362.564	12.52
362.774	12.51
362.983	12.45
363.192	12.43
363.401	12.52
363.61	12.46
363.819	12.52
364.028	12.54
364.237	12.4
364.446	12.31
364.655	12.31
364.864	12.32
365.073	12.37
365.282	12.44
365.491	12.41
365.7	12.32
365.909	12.42
366.118	12.34
366.327	12.26
366.536	12.35
366.745	12.4
366.954	12.49
367.162	12.55
367.371	12.47
367.58	12.4
367.789	12.54
367.998	12.57
368.207	12.5
368.415	12.68
368.624	12.77
368.833	12.75
369.042	12.77
369.25	12.76
369.459	12.94
369.668	12.9
369.877	12.82
370.085	12.64
370.294	12.5
370.503	12.41
370.711	12.3
370.92	12.22
371.129	12.13
371.337	12.03
371.546	11.91
371.754	11.71
371.963	11.69
372.171	11.82
372.38	11.82
372.589	11.89
372.797	12
373.006	11.95
373.214	11.96
373.423	11.97
373.631	11.99
373.84	11.98
374.048	11.92
374.256	11.83
374.465	11.81
374.673	11.75
374.882	11.64
375.09	11.55
375.298	11.51
375.507	11.45
375.715	11.59
375.923	11.49
376.132	11.49
376.34	11.51
376.548	11.6
376.757	11.6
376.965	11.68
377.173	11.78
377.381	11.9
377.59	11.99
377.798	12.06
378.006	11.87
378.214	11.91
378.423	11.87
378.631	11.81
378.839	11.81
379.047	11.66
379.255	11.6
379.463	11.53
379.671	11.42
379.879	11.4
380.088	11.39
380.296	11.38
380.504	11.41
380.712	11.49
380.92	11.47
381.128	11.48
381.336	11.35
381.544	11.3
381.752	11.33
381.96	11.26
382.168	11.21
382.376	11.22
382.584	11.25
382.791	11.25
382.999	11.38
383.207	11.43
383.415	11.39
383.623	11.54
383.831	11.56
384.039	11.54
384.247	11.48
384.454	11.45
384.662	11.29
384.87	11.35
385.078	11.33
385.285	11.02
385.493	10.91
385.701	10.85
385.909	10.75
386.116	10.8
386.324	10.77
386.532	10.73
386.739	10.69
386.947	10.75
387.155	10.72
387.362	10.71
387.57	10.85
387.778	10.84
387.985	10.92
388.193	11.02
388.4	11.04
388.608	10.99
388.816	10.92
389.023	10.87
389.231	10.81
389.438	10.72
389.646	10.58
389.853	10.46
390.061	10.4
390.268	10.36
390.475	10.25
390.683	10.27
390.89	10.28
391.098	10.39
391.305	10.47
391.512	10.54
391.72	10.58
391.927	10.64
392.135	10.68
392.342	10.72
392.549	10.71
392.756	10.75
392.964	10.59
393.171	10.57
393.378	10.54
393.586	10.47
393.793	10.4
394	10.36
394.207	10.35
394.414	10.35
394.622	10.36
394.829	10.37
395.036	10.41
395.243	10.43
395.45	10.36
395.657	10.36
395.864	10.33
396.072	10.37
396.279	10.35
396.486	10.31
396.693	10.28
396.9	10.25
397.107	10.12
397.314	10.11
397.521	10.06
397.728	10.06
397.935	10.16
398.142	10.04
398.349	10.05
398.556	10
398.763	9.93
398.97	9.93
399.177	9.91
399.383	9.89
399.59	9.81
399.797	9.89
400.004	9.8
400.211	9.73
400.418	9.87
400.625	9.8
400.831	9.82
401.038	9.89
401.245	9.94
401.452	9.96
401.658	9.99
401.865	9.91
402.072	9.82
402.279	9.86
402.485	9.75
402.692	9.66
402.899	9.66
403.105	9.69
403.312	9.68
403.519	9.58
403.725	9.53
403.932	9.57
404.138	9.55
404.345	9.53
404.552	9.6
404.758	9.64
404.965	9.63
405.171	9.6
405.378	9.54
405.584	9.59
405.791	9.54
405.997	9.55
406.204	9.51
406.41	9.58
406.617	9.64
406.823	9.53
407.029	9.55
407.236	9.63
407.442	9.69
407.649	9.69
407.855	9.57
408.061	9.71
408.268	9.77
408.474	9.7
408.68	9.62
408.887	9.64
409.093	9.66
409.299	9.65
409.505	9.54
409.712	9.42
409.918	9.41
410.124	9.47
410.33	9.41
410.537	9.3
410.743	9.41
410.949	9.42
411.155	9.41
411.361	9.43
411.567	9.41
411.773	9.48
411.98	9.58
412.186	9.67
412.392	9.66
412.598	9.61
412.804	9.63
413.01	9.52
413.216	9.58
413.422	9.54
413.628	9.52
413.834	9.4
414.04	9.41
414.246	9.4
414.452	9.34
414.658	9.33
414.864	9.37
415.07	9.33
415.275	9.41
415.481	9.31
415.687	9.3
415.893	9.23
416.099	9.26
416.305	9.13
416.511	9.11
416.716	9.07
416.922	9.02
417.128	8.94
417.334	8.98
417.539	8.89
417.745	8.88
417.951	8.82
418.157	8.8
418.362	8.78
418.568	8.81
418.774	8.77
418.979	8.8
419.185	8.83
419.391	8.85
419.596	8.81
419.802	8.81
420.008	8.8
420.213	8.57
420.419	8.61
420.624	8.57
420.83	8.56
421.035	8.55
421.241	8.52
421.446	8.46
421.652	8.43
421.857	8.43
422.063	8.39
422.268	8.4
422.474	8.63
422.679	8.62
422.885	8.63
423.09	8.61
423.295	8.62
423.501	8.58
423.706	8.58
423.911	8.57
424.117	8.57
424.322	8.61
424.527	8.6
424.733	8.57
424.938	8.58
425.143	8.62
425.349	8.64
425.554	8.64
425.759	8.65
425.964	8.69
426.169	8.72
426.375	8.71
426.58	8.73
426.785	8.77
426.99	8.81
427.195	8.78
427.4	8.71
427.605	8.76
427.811	8.82
428.016	8.84
428.221	8.78
428.426	8.74
428.631	8.75
428.836	8.73
429.041	8.71
429.246	8.71
429.451	8.7
429.656	8.77
429.861	8.71
430.066	8.69
430.271	8.65
430.476	8.64
430.681	8.65
430.886	8.69
431.09	8.7
431.295	8.63
431.5	8.62
431.705	8.63
431.91	8.61
432.115	8.63
432.32	8.61
432.524	8.64
432.729	8.68
432.934	8.68
433.139	8.66
433.343	8.63
433.548	8.66
433.753	8.67
433.958	8.67
434.162	8.68
434.367	8.66
434.572	8.65
434.776	8.61
434.981	8.6
435.186	8.6
435.39	8.6
435.595	8.59
435.799	8.59
436.004	8.59
436.209	8.57
436.413	8.52
436.618	8.48
436.822	8.46
437.027	8.46
437.231	8.46
437.436	8.45
437.64	8.39
437.845	8.4
438.049	8.44
438.253	8.38
438.458	8.39
438.662	8.42
438.867	8.48
439.071	8.46
439.275	8.49
439.48	8.49
439.684	8.5
439.888	8.51
440.093	8.51
440.297	8.47
440.501	8.51
440.706	8.55
440.91	8.5
441.114	8.49
441.318	8.49
441.523	8.5
441.727	8.46
441.931	8.47
442.135	8.49
442.339	8.5
442.543	8.53
442.748	8.5
442.952	8.44
443.156	8.48
443.36	8.43
443.564	8.44
443.768	8.35
443.972	8.37
444.176	8.31
444.38	8.35
444.584	8.33
444.788	8.32
444.992	8.32
445.196	8.34
445.4	8.28
445.604	8.27
445.808	8.26
446.012	8.3
446.216	8.26
446.42	8.31
446.624	8.26
446.828	8.24
447.032	8.26
447.235	8.25
447.439	8.26
447.643	8.34
447.847	8.39
448.051	8.42
448.254	8.45
448.458	8.5
448.662	8.54
448.866	8.52
449.069	8.5
449.273	8.51
449.477	8.55
449.681	8.53
449.884	8.46
450.088	8.43
450.292	8.41
450.495	8.33
450.699	8.34
450.902	8.3
451.106	8.33
451.31	8.37
451.513	8.33
451.717	8.29
451.92	8.31
452.124	8.3
452.327	8.28
452.531	8.29
452.734	8.34
452.938	8.36
453.141	8.37
453.345	8.36
453.548	8.35
453.752	8.38
453.955	8.41
454.158	8.41
454.362	8.43
454.565	8.48
454.769	8.47
454.972	8.48
455.175	8.45
455.379	8.41
455.582	8.36
455.785	8.35
455.988	8.32
456.192	8.3
456.395	8.28
456.598	8.27
456.801	8.25
457.005	8.23
457.208	8.21
457.411	8.22
457.614	8.18
457.817	8.2
458.021	8.19
458.224	8.18
458.427	8.17
458.63	8.19
458.833	8.18
459.036	8.1
459.239	8.13
459.442	8.12
459.645	8.1
459.848	8.15
460.051	8.16
460.254	8.21
460.457	8.21
460.66	8.2
460.863	8.23
461.066	8.22
461.269	8.28
461.472	8.32
461.675	8.32
461.878	8.34
462.081	8.31
462.284	8.31
462.486	8.28
462.689	8.34
462.892	8.35
463.095	8.32
463.298	8.35
463.5	8.38
463.703	8.33
463.906	8.33
464.109	8.35
464.311	8.39
464.514	8.39
464.717	8.39
464.92	8.36
465.122	8.34
465.325	8.35
465.528	8.36
465.73	8.38
465.933	8.36
466.135	8.3
466.338	8.28
466.541	8.24
466.743	8.18
466.946	8.19
467.148	8.2
467.351	8.28
467.553	8.28
467.756	8.27
467.958	8.22
468.161	8.25
468.363	8.3
468.566	8.31
468.768	8.31
468.971	8.36
469.173	8.37
469.375	8.35
469.578	8.18
469.78	8.18
469.983	8.17
470.185	8.17
470.387	8.12
470.59	8.13
470.792	8.15
470.994	8.15
471.196	8.15
471.399	8.15
471.601	8.12
471.803	8.23
472.005	8.22
472.208	8.26
472.41	8.27
472.612	8.27
472.814	8.34
473.016	8.4
473.218	8.43
473.421	8.37
473.623	8.39
473.825	8.43
474.027	8.48
474.229	8.48
474.431	8.43
474.633	8.46
474.835	8.47
475.037	8.39
475.239	8.37
475.441	8.34
475.643	8.43
475.845	8.39
476.047	8.39
476.249	8.37
476.451	8.36
476.653	8.35
476.855	8.32
477.057	8.33
477.258	8.3
477.46	8.3
477.662	8.31
477.864	8.29
478.066	8.32
478.268	8.3
478.469	8.29
478.671	8.28
478.873	8.26
479.075	8.25
479.276	8.23
479.478	8.29
479.68	8.21
479.882	8.18
480.083	8.17
480.285	8.14
480.487	8.16
480.688	8.13
480.89	8.16
481.091	8.14
481.293	8.16
481.495	8.16
481.696	8.13
481.898	8.12
482.099	8.09
482.301	8.05
482.502	8.03
482.704	7.98
482.905	7.97
483.107	7.94
483.308	7.94
483.51	7.93
483.711	7.92
483.913	7.93
484.114	7.93
484.315	7.95
484.517	7.98
484.718	8.01
484.92	8.04
485.121	8.04
485.322	8.05
485.524	8.08
485.725	8.07
485.926	8.07
486.127	8.04
486.329	8.05
486.53	8.06
486.731	8.03
486.932	8
487.134	7.99
487.335	8
487.536	8
487.737	7.99
487.938	8
488.139	8.02
488.341	8.06
488.542	8.07
488.743	8.07
488.944	8.1
489.145	8.12
489.346	8.18
489.547	8.18
489.748	8.17
489.949	8.19
490.15	8.18
490.351	8.15
490.552	8.15
490.753	8.14
490.954	8.11
491.155	8.09
491.356	8.09
491.557	8.07
491.758	8.09
491.959	8.13
492.159	8.12
492.36	8.15
492.561	8.16
492.762	8.19
492.963	8.21
493.164	8.28
493.364	8.32
493.565	8.36
493.766	8.4
493.967	8.4
494.167	8.4
494.368	8.41
494.569	8.37
494.769	8.38
494.97	8.37
495.171	8.38
495.371	8.35
495.572	8.32
495.773	8.3
495.973	8.31
496.174	8.34
496.375	8.37
496.575	8.38
496.776	8.42
496.976	8.45
497.177	8.46
497.377	8.5
497.578	8.52
497.778	8.56
497.979	8.6
498.179	8.64
498.38	8.62
498.58	8.6
498.78	8.65
498.981	8.65
499.181	8.67
499.382	8.66
499.582	8.64
499.782	8.68
499.983	8.71
500.183	8.71
500.383	8.69
500.584	8.74
500.784	8.8
500.984	8.8
501.184	8.8
501.385	8.86
501.585	8.93
501.785	8.96
501.985	8.98
502.185	9
502.386	9.01
502.586	9.01
502.786	9.06
502.986	9.06
503.186	9.11
503.386	9.15
503.586	9.16
503.786	9.13
503.987	9.15
504.187	9.14
504.387	9.14
504.587	9.15
504.787	9.19
504.987	9.18
505.187	9.2
505.387	9.19
505.587	9.22
505.786	9.2
505.986	9.24
506.186	9.25
506.386	9.27
506.586	9.28
506.786	9.32
506.986	9.33
507.186	9.32
507.386	9.33
507.585	9.3
507.785	9.33
507.985	9.36
508.185	9.35
508.384	9.38
508.584	9.37
508.784	9.39
508.984	9.41
509.183	9.47
509.383	9.48
509.583	9.48
509.782	9.54
509.982	9.54
510.182	9.58
510.381	9.67
510.581	9.71
510.781	9.78
510.98	9.84
511.18	9.88
511.379	9.87
511.579	9.96
511.778	10.04
511.978	10.08
512.177	10.13
512.377	10.17
512.576	10.17
512.776	10.2
512.975	10.26
513.175	10.31
513.374	10.36
513.573	10.45
513.773	10.49
513.972	10.5
514.172	10.57
514.371	10.63
514.57	10.68
514.77	10.72
514.969	10.77
515.168	10.76
515.367	10.75
515.567	10.78
515.766	10.75
515.965	10.78
516.164	10.86
516.364	10.91
516.563	10.92
516.762	10.93
516.961	10.98
517.16	11.01
517.359	11.05
517.559	11.11
517.758	11.15
517.957	11.22
518.156	11.24
518.355	11.26
518.554	11.27
518.753	11.33
518.952	11.32
519.151	11.33
519.35	11.37
519.549	11.42
519.748	11.5
519.947	11.51
520.146	11.52
520.345	11.52
520.544	11.6
520.743	11.63
520.942	11.64
521.141	11.74
521.339	11.79
521.538	11.84
521.737	11.86
521.936	11.85
522.135	11.9
522.333	11.96
522.532	12.04
522.731	12.05
522.93	12.09
523.129	12.18
523.327	12.23
523.526	12.26
523.725	12.28
523.923	12.32
524.122	12.35
524.321	12.38
524.519	12.42
524.718	12.47
524.917	12.48
525.115	12.51
525.314	12.49
525.512	12.52
525.711	12.55
525.909	12.61
526.108	12.63
526.306	12.67
526.505	12.7
526.703	12.72
526.902	12.73
527.1	12.77
527.299	12.78
527.497	12.81
527.696	12.81
527.894	12.84
528.092	12.83
528.291	12.86
528.489	12.88
528.688	12.91
528.886	12.93
529.084	12.98
529.283	13.01
529.481	13.05
529.679	13.11
529.877	13.17
530.076	13.22
530.274	13.3
530.472	13.35
530.67	13.42
530.869	13.44
531.067	13.49
531.265	13.5
531.463	13.55
531.661	13.56
531.859	13.6
532.057	13.62
532.255	13.62
532.454	13.62
532.652	13.65
532.85	13.67
533.048	13.74
533.246	13.76
533.444	13.82
533.642	13.83
533.84	13.9
534.038	13.95
534.236	14
534.434	14.05
534.632	14.12
534.83	14.14
535.027	14.17
535.225	14.18
535.423	14.2
535.621	14.22
535.819	14.27
536.017	14.28
536.215	14.25
536.412	14.26
536.61	14.29
536.808	14.3
537.006	14.32
537.203	14.39
537.401	14.44
537.599	14.51
537.797	14.52
537.994	14.55
538.192	14.61
538.39	14.72
538.587	14.75
538.785	14.8
538.983	14.83
539.18	14.88
539.378	14.86
539.575	14.9
539.773	14.89
539.97	14.92
540.168	14.93
540.366	14.93
540.563	14.93
540.761	14.94
540.958	14.97
541.155	15
541.353	15.02
541.55	15.07
541.748	15.08
541.945	15.11
542.143	15.14
542.34	15.17
542.537	15.22
542.735	15.25
542.932	15.28
543.129	15.32
543.327	15.36
543.524	15.42
543.721	15.47
543.919	15.52
544.116	15.56
544.313	15.64
544.51	15.65
544.708	15.71
544.905	15.74
545.102	15.84
545.299	15.89
545.496	15.91
545.693	15.91
545.891	15.96
546.088	15.95
546.285	16.02
546.482	16
546.679	16.06
546.876	16.08
547.073	16.13
547.27	16.13
547.467	16.14
547.664	16.19
547.861	16.21
548.058	16.25
548.255	16.32
548.452	16.35
548.649	16.44
548.846	16.5
549.043	16.53
549.24	16.55
549.437	16.59
549.633	16.62
549.83	16.65
550.027	16.7
550.224	16.69
550.421	16.69
550.618	16.69
550.814	16.71
551.011	16.72
551.208	16.74
551.405	16.73
551.601	16.8
551.798	16.85
551.995	16.82
552.191	16.89
552.388	16.91
552.585	16.96
552.781	16.94
552.978	16.97
553.175	17.04
553.371	17.12
553.568	17.19
553.764	17.22
553.961	17.25
554.157	17.34
554.354	17.36
554.55	17.43
554.747	17.48
554.943	17.57
555.14	17.6
555.336	17.61
555.533	17.66
555.729	17.69
555.926	17.71
556.122	17.72
556.318	17.71
556.515	17.76
556.711	17.73
556.907	17.72
557.104	17.78
557.3	17.78
557.496	17.82
557.693	17.75
557.889	17.81
558.085	17.82
558.281	17.91
558.478	18
558.674	18
558.87	18.1
559.066	18.16
559.262	18.13
559.459	18.19
559.655	18.19
559.851	18.27
560.047	18.32
560.243	18.3
560.439	18.25
560.635	18.2
560.831	18.25
561.027	18.27
561.223	18.29
561.419	18.39
561.615	18.4
561.811	18.47
562.007	18.51
562.203	18.53
562.399	18.64
562.595	18.71
562.791	18.83
562.987	18.84
563.183	18.85
563.379	18.91
563.575	18.87
563.771	18.91
563.966	18.89
564.162	18.97
564.358	18.93
564.554	18.96
564.75	18.96
564.945	18.95
565.141	18.95
565.337	18.96
565.533	18.97
565.728	18.99
565.924	19.02
566.12	19.08
566.315	19.07
566.511	19.07
566.707	19.06
566.902	19.1
567.098	19.14
567.293	19.17
567.489	19.18
567.684	19.2
567.88	19.24
568.076	19.28
568.271	19.34
568.467	19.3
568.662	19.39
568.858	19.41
569.053	19.4
569.248	19.37
569.444	19.43
569.639	19.51
569.835	19.54
570.03	19.63
570.225	19.64
570.421	19.66
570.616	19.72
570.812	19.72
571.007	19.74
571.202	19.82
571.397	19.86
571.593	19.88
571.788	19.91
571.983	19.93
572.178	19.87
572.374	19.91
572.569	19.89
572.764	19.9
572.959	19.92
573.154	19.88
573.35	19.86
573.545	19.93
573.74	19.91
573.935	19.95
574.13	19.95
574.325	19.98
574.52	19.98
574.715	20
574.91	20.03
575.105	20.04
575.3	20.12
575.495	20.16
575.69	20.15
575.885	20.23
576.08	20.21
576.275	20.22
576.47	20.32
576.665	20.35
576.86	20.4
577.055	20.37
577.25	20.4
577.444	20.44
577.639	20.48
577.834	20.46
578.029	20.49
578.224	20.5
578.418	20.6
578.613	20.6
578.808	20.59
579.003	20.58
579.197	20.65
579.392	20.64
579.587	20.68
579.781	20.64
579.976	20.71
580.171	20.64
580.365	20.64
580.56	20.56
580.755	20.58
580.949	20.61
581.144	20.58
581.338	20.58
581.533	20.72
581.727	20.69
581.922	20.75
582.116	20.74
582.311	20.81
582.505	20.8
582.7	20.84
582.894	20.8
583.089	20.8
583.283	20.87
583.478	20.96
583.672	20.92
583.866	20.95
584.061	21.03
584.255	21.07
584.449	21.05
584.644	21.11
584.838	21.15
585.032	21.22
585.226	21.25
585.421	21.31
585.615	21.25
585.809	21.22
586.003	21.24
586.198	21.18
586.392	21.2
586.586	21.24
586.78	21.23
586.974	21.26
587.168	21.22
587.363	21.18
587.557	21.15
587.751	21.16
587.945	21.23
588.139	21.31
588.333	21.37
588.527	21.37
588.721	21.39
588.915	21.42
589.109	21.39
589.303	21.45
589.497	21.49
589.691	21.49
589.885	21.59
590.079	21.59
590.273	21.57
590.466	21.56
590.66	21.55
590.854	21.55
591.048	21.54
591.242	21.53
591.436	21.54
591.629	21.56
591.823	21.62
592.017	21.59
592.211	21.57
592.404	21.55
592.598	21.54
592.792	21.54
592.986	21.5
593.179	21.59
593.373	21.59
593.567	21.59
593.76	21.59
593.954	21.64
594.147	21.64
594.341	21.71
594.535	21.72
594.728	21.69
594.922	21.68
595.115	21.74
595.309	21.67
595.502	21.73
595.696	21.69
595.889	21.7
596.083	21.65
596.276	21.64
596.47	21.59
596.663	21.61
596.856	21.64
597.05	21.72
597.243	21.7
597.437	21.74
597.63	21.71
597.823	21.79
598.017	21.73
598.21	21.74
598.403	21.74
598.596	21.82
598.79	21.87
598.983	21.88
599.176	21.83
599.369	21.82
599.563	21.85
599.756	21.97
599.949	22.02
600.142	22.1
600.335	22.16
600.528	22.26
600.722	22.24
600.915	22.29
601.108	22.36
601.301	22.41
601.494	22.49
601.687	22.5
601.88	22.42
602.073	22.36
602.266	22.36
602.459	22.32
602.652	22.26
602.845	22.31
603.038	22.23
603.231	22.16
603.424	22.19
603.617	22.15
603.809	22.15
604.002	22.19
604.195	22.23
604.388	22.28
604.581	22.29
604.774	22.29
604.966	22.18
605.159	22.22
605.352	22.21
605.545	22.24
605.737	22.26
605.93	22.27
606.123	22.25
606.316	22.24
606.508	22.24
606.701	22.35
606.894	22.37
607.086	22.51
607.279	22.51
607.471	22.58
607.664	22.53
607.857	22.62
608.049	22.72
608.242	22.75
608.434	22.71
608.627	22.72
608.819	22.68
609.012	22.75
609.204	22.82
609.397	22.86
609.589	22.92
609.782	22.99
609.974	22.97
610.166	22.98
610.359	23.08
610.551	23.13
610.743	23.16
610.936	23.2
611.128	23.17
611.32	23.11
611.513	23.12
611.705	23.11
611.897	23.13
612.09	23.13
612.282	23.08
612.474	22.96
612.666	22.92
612.858	22.91
613.051	22.92
613.243	22.88
613.435	22.85
613.627	22.88
613.819	22.87
614.011	22.99
614.203	22.94
614.395	22.9
614.588	22.87
614.78	22.94
614.972	23.05
615.164	22.98
615.356	22.98
615.548	22.98
615.74	23.02
615.932	22.98
616.124	22.81
616.315	22.93
616.507	22.98
616.699	23.01
616.891	23.03
617.083	22.92
617.275	22.99
617.467	23.02
617.659	23.13
617.85	23.05
618.042	23.15
618.234	23.14
618.426	23.07
618.618	23.02
618.809	23.07
619.001	23.06
619.193	23.09
619.384	23.13
619.576	23.2
619.768	23.08
619.959	23.13
620.151	23.11
620.343	23.18
620.534	23.2
620.726	23.22
620.917	23.25
621.109	23.24
621.301	23.25
621.492	23.21
621.684	23.14
621.875	23.16
622.067	23.14
622.258	23.11
622.45	23.15
622.641	23.16
622.832	23.14
623.024	23.1
623.215	23.17
623.407	23.12
623.598	23.1
623.789	23.15
623.981	23.13
624.172	23.17
624.363	23.17
624.555	23.13
624.746	23.08
624.937	23.11
625.129	23.13
625.32	23.07
625.511	23.14
625.702	23.14
625.893	23.12
626.085	23.16
626.276	23.1
626.467	23.04
626.658	23.03
626.849	23.03
627.04	23.03
627.231	23.09
627.422	23.06
627.614	23.04
627.805	23.06
627.996	23.08
628.187	23.07
628.378	23.09
628.569	23.16
628.76	23.16
628.951	23.15
629.142	23.17
629.332	23.15
629.523	23.21
629.714	23.21
629.905	23.27
630.096	23.24
630.287	23.31
630.478	23.29
630.669	23.23
630.859	23.22
631.05	23.18
631.241	23.23
631.432	23.19
631.623	23.22
631.813	23.21
632.004	23.12
632.195	23.14
632.385	23.06
632.576	23.19
632.767	23.24
632.957	23.21
633.148	23.29
633.339	23.21
633.529	23.26
633.72	23.11
633.91	23.15
634.101	23.17
634.292	23.17
634.482	23.21
634.673	23.25
634.863	23.27
635.054	23.36
635.244	23.28
635.435	23.36
635.625	23.29
635.815	23.3
636.006	23.29
636.196	23.33
636.387	23.31
636.577	23.33
636.767	23.22
636.958	23.23
637.148	23.2
637.338	23.29
637.529	23.19
637.719	23.25
637.909	23.42
638.099	23.36
638.29	23.33
638.48	23.33
638.67	23.32
638.86	23.3
639.05	23.3
639.241	23.25
639.431	23.25
639.621	23.3
639.811	23.27
640.001	23.18
640.191	23.16
640.381	23.19
640.571	23.13
640.761	23.09
640.951	23.05
641.141	23.07
641.331	23.11
641.521	23.06
641.711	23.05
641.901	23
642.091	23
642.281	23.08
642.471	22.96
642.661	23.09
642.851	23.19
643.041	23.26
643.231	23.19
643.42	23.22
643.61	23.34
643.8	23.37
643.99	23.42
644.18	23.45
644.369	23.52
644.559	23.61
644.749	23.53
644.939	23.47
645.128	23.47
645.318	23.49
645.508	23.45
645.697	23.38
645.887	23.41
646.076	23.44
646.266	23.4
646.456	23.37
646.645	23.39
646.835	23.53
647.024	23.45
647.214	23.4
647.403	23.37
647.593	23.41
647.782	23.44
647.972	23.44
648.161	23.41
648.351	23.43
648.54	23.5
648.73	23.48
648.919	23.37
649.108	23.43
649.298	23.47
649.487	23.52
649.677	23.5
649.866	23.5
650.055	23.52
650.244	23.51
650.434	23.56
650.623	23.54
650.812	23.54
651.002	23.59
651.191	23.62
651.38	23.64
651.569	23.64
651.758	23.61
651.947	23.71
652.137	23.74
652.326	23.74
652.515	23.66
652.704	23.65
652.893	23.61
653.082	23.52
653.271	23.53
653.46	23.56
653.649	23.6
653.838	23.74
654.027	23.63
654.216	23.55
654.405	23.58
654.594	23.72
654.783	23.73
654.972	23.8
655.161	23.91
655.35	23.83
655.539	23.82
655.728	23.87
655.916	23.84
656.105	23.87
656.294	23.9
656.483	23.85
656.672	23.83
656.86	23.74
657.049	23.68
657.238	23.65
657.427	23.74
657.615	23.7
657.804	23.59
657.993	23.52
658.181	23.44
658.37	23.4
658.559	23.38
658.747	23.28
658.936	23.27
659.125	23.24
659.313	23.19
659.502	23.15
659.69	23.12
659.879	23.16
660.067	23.23
660.256	23.25
660.444	23.26
660.633	23.39
660.821	23.49
661.01	23.55
661.198	23.69
661.387	23.76
661.575	23.73
661.763	23.85
661.952	23.79
662.14	23.74
662.328	23.84
662.517	23.76
662.705	23.72
662.893	23.75
663.082	23.8
663.27	23.67
663.458	23.7
663.646	23.78
663.834	23.71
664.023	23.82
664.211	23.81
664.399	23.8
664.587	23.87
664.775	23.7
664.963	23.5
665.152	23.55
665.34	23.63
665.528	23.59
665.716	23.66
665.904	23.68
666.092	23.67
666.28	23.61
666.468	23.53
666.656	23.55
666.844	23.8
667.032	23.99
667.22	23.88
667.408	23.87
667.596	23.92
667.784	23.88
667.971	23.88
668.159	23.83
668.347	23.85
668.535	23.86
668.723	23.84
668.911	23.76
669.098	23.68
669.286	23.71
669.474	23.71
669.662	23.67
669.849	23.7
670.037	23.72
670.225	23.72
670.413	23.7
670.6	23.71
670.788	23.68
670.976	23.58
671.163	23.6
671.351	23.54
671.538	23.58
671.726	23.61
671.913	23.52
672.101	23.43
672.289	23.44
672.476	23.49
672.664	23.63
672.851	23.71
673.039	23.77
673.226	23.72
673.413	23.81
673.601	23.76
673.788	23.79
673.976	23.76
674.163	23.78
674.35	23.78
674.538	23.83
674.725	23.7
674.912	23.68
675.1	23.75
675.287	23.9
675.474	23.83
675.662	23.85
675.849	23.86
676.036	23.83
676.223	23.84
676.411	23.85
676.598	23.77
676.785	23.82
676.972	23.85
677.159	23.72
677.346	23.55
677.533	23.66
677.721	23.63
677.908	23.62
678.095	23.62
678.282	23.66
678.469	23.6
678.656	23.67
678.843	23.62
679.03	23.7
679.217	23.75
679.404	23.77
679.591	23.64
679.778	23.67
679.964	23.72
680.151	23.83
680.338	23.88
680.525	23.9
680.712	23.88
680.899	23.9
681.086	23.8
681.272	23.76
681.459	23.77
681.646	23.82
681.833	23.79
682.02	23.67
682.206	23.7
682.393	23.56
682.58	23.58
682.766	23.65
682.953	23.69
683.14	23.72
683.326	23.83
683.513	23.88
683.7	24.05
683.886	23.99
684.073	24.04
684.259	23.9
684.446	24.1
684.632	24.12
684.819	24.06
685.005	23.97
685.192	23.97
685.378	24.02
685.565	24.07
685.751	24.01
685.938	24.11
686.124	24.26
686.31	24.29
686.497	24.16
686.683	24.06
686.87	24.03
687.056	24.01
687.242	23.97
687.429	23.91
687.615	23.85
687.801	23.79
687.987	23.75
688.174	23.65
688.36	23.65
688.546	23.64
688.732	23.85
688.918	23.74
689.105	23.92
689.291	24.02
689.477	23.98
689.663	24.03
689.849	24
690.035	24.19
690.221	24.15
690.407	24.27
690.593	24.35
690.779	24.18
690.965	24.34
691.151	24.31
691.337	24.23
691.523	24.36
691.709	24.52
691.895	24.55
692.081	24.35
692.267	24.36
692.453	24.32
692.639	24.41
692.825	24.47
693.011	24.52
693.196	24.43
693.382	24.29
693.568	24.21
693.754	24.1
693.94	24.14
694.125	24.19
694.311	24.21
694.497	24.07
694.682	24.04
694.868	23.98
695.054	23.98
695.239	24
695.425	24.18
695.611	24.26
695.796	24.1
695.982	23.98
696.168	23.99
696.353	23.93
696.539	24.09
696.724	23.99
696.91	24.09
697.095	24.05
697.281	24.03
697.466	23.91
697.652	23.82
697.837	23.9
698.023	23.9
698.208	23.87
698.393	23.97
698.579	23.91
698.764	23.86
698.949	23.72
699.135	23.67
699.32	23.63
699.505	23.71
699.691	23.66
699.876	23.64
700.061	23.7
700.246	23.72
700.432	23.62
700.617	23.51
700.802	23.53
700.987	23.8
701.172	23.67
701.358	23.77
701.543	23.88
701.728	23.95
701.913	23.93
702.098	23.98
702.283	23.87
702.468	23.8
702.653	24.1
702.838	24.28
703.023	23.99
703.208	24.1
703.393	24.03
703.578	23.95
703.763	24.05
703.948	24.1
704.133	24.08
704.318	24.2
704.503	24.33
704.688	24.29
704.873	24.09
705.057	24.25
705.242	24.34
705.427	24.26
705.612	24.26
705.797	24.29
705.981	24.22
706.166	24.38
706.351	24.23
706.536	24.25
706.72	24.14
706.905	24.33
707.09	24.4
707.274	24.36
707.459	24.57
707.644	24.58
707.828	24.51
708.013	24.56
708.197	24.43
708.382	24.58
708.567	24.55
708.751	24.71
708.936	24.45
709.12	24.44
709.305	24.46
709.489	24.22
709.673	24.24
709.858	24.16
710.042	24.18
710.227	24.05
710.411	24.19
710.596	24.14
710.78	24.05
710.964	24.27
711.149	24.28
711.333	24.33
711.517	24.41
711.702	24.46
711.886	24.54
712.07	24.45
712.254	24.64
712.438	24.5
712.623	24.38
712.807	24.41
712.991	24.34
713.175	24.3
713.359	24.31
713.544	24.33
713.728	24.23
713.912	24.25
714.096	24.34
714.28	24.32
714.464	24.28
714.648	24.45
714.832	24.36
715.016	24.31
715.2	24.29
715.384	24.35
715.568	24.38
715.752	24.24
715.936	24.18
716.12	24.24
716.304	24.24
716.488	24.22
716.671	24.34
716.855	24.4
717.039	24.53
717.223	24.49
717.407	24.44
717.59	24.63
717.774	24.76
717.958	24.79
718.142	24.64
718.325	24.46
718.509	24.5
718.693	24.32
718.877	24.15
719.06	24.14
719.244	24.21
719.428	24.13
719.611	23.88
719.795	23.98
719.978	24.11
720.162	24.21
720.345	24.43
720.529	24.54
720.713	24.61
720.896	24.84
721.08	24.66
721.263	24.69
721.446	24.6
721.63	24.66
721.813	24.57
721.997	24.55
722.18	24.57
722.364	24.34
722.547	24.16
722.73	24.07
722.914	23.98
723.097	24.1
723.28	24.03
723.464	24.2
723.647	24.29
723.83	24.41
724.013	24.26
724.197	24.26
724.38	24.82
724.563	24.96
724.746	24.85
724.929	24.94
725.112	25.06
725.296	24.88
725.479	24.93
725.662	24.94
725.845	24.9
726.028	24.93
726.211	24.94
726.394	24.55
726.577	24.34
726.76	24.41
726.943	24.34
727.126	24.31
727.309	24.55
727.492	24.57
727.675	24.49
727.858	24.37
728.041	24.56
728.224	24.58
728.407	24.35
728.589	24.58
728.772	24.5
728.955	24.62
729.138	24.54
729.321	24.24
729.503	24.34
729.686	24.24
729.869	24.33
730.052	24.16
730.234	24.02
730.417	24.23
730.6	24.19
730.782	24.34
730.965	24.18
731.148	24.41
731.33	24.81
731.513	24.61
731.695	24.69
731.878	24.65
732.061	24.43
732.243	24.65
732.426	24.47
732.608	24.58
732.791	24.63
732.973	24.68
733.156	24.41
733.338	24.09
733.52	24.26
733.703	24.22
733.885	24.42
734.068	24.52
734.25	24.5
734.432	24.6
734.615	24.31
734.797	24.02
734.979	23.83
735.162	23.86
735.344	24.07
735.526	24.12
735.708	24.03
735.891	23.86
736.073	24.07
736.255	23.79
736.437	23.93
736.619	24.07
736.802	24.26
736.984	24.4
737.166	24.41
737.348	24.38
737.53	24.04
737.712	24.19
737.894	24.17
738.076	24.12
738.258	24.29
738.44	24.12
738.622	24.03
738.804	23.98
738.986	24.18
739.168	24.2
739.35	24.08
739.532	24.21
739.714	24.49
739.896	24.44
740.078	24.52
740.259	24.55
740.441	24.75
740.623	24.81
740.805	25.01
740.987	24.74
741.168	24.72
741.35	24.8
741.532	24.63
741.714	24.21
741.895	24.26
742.077	24.08
742.259	23.81
742.44	23.74
742.622	23.92
742.804	23.76
742.985	23.8
743.167	23.83
743.348	23.86
743.53	23.95
743.711	24.26
743.893	24.47
744.075	24.46
744.256	24.67
744.438	24.83
744.619	24.59
744.8	24.54
744.982	24.61
745.163	24.14
745.345	24.16
745.526	24.45
745.707	24.35
745.889	23.94
746.07	24.04
746.252	24.12
746.433	23.95
746.614	23.81
746.795	23.64
746.977	23.57
747.158	24.16
747.339	24.13
747.52	24.04
747.702	23.63
747.883	23.82
748.064	23.9
748.245	23.87
748.426	23.73
748.607	24.13
748.788	24.31
748.97	24.36
749.151	24.11
749.332	24.15
749.513	24.2
749.694	24.87
749.875	25.04
750.056	24.99
750.237	24.68
750.418	24.76
750.599	24.64
750.78	24.89
750.96	24.72
751.141	24.72
751.322	24.45
751.503	24.56
751.684	24.39
751.865	23.98
752.046	23.97
752.226	24.49
752.407	24.49
752.588	24.67
752.769	24.67
752.949	24.67
753.13	24.87
753.311	24.97
753.492	24.6
753.672	24.83
753.853	25.41
754.034	25.3
754.214	25
754.395	24.87
754.575	24.81
754.756	24.44
754.937	24.75
755.117	24.64
755.298	24.82
755.478	24.53
755.659	24.14
755.839	23.71
756.02	23.86
756.2	23.85
756.381	23.73
756.561	23.64
756.741	23.93
756.922	23.84
757.102	24
757.283	24.13
757.463	24.42
757.643	24.34
757.823	24.53
758.004	24.44
758.184	24.75
758.364	25.52
758.545	25.7
758.725	25.97
758.905	25.79
759.085	25.66
759.265	25.52
759.446	25.31
759.626	25.61
759.806	25.43
759.986	25.6
760.166	25.37
760.346	25.09
760.526	24.82
760.706	24.44
760.886	24.5
761.066	24.49
761.246	24.58
761.426	25.07
761.606	24.68
761.786	24.6
761.966	24.54
762.146	24.61
762.326	24.57
762.506	24.42
762.686	24.47
762.866	24.59
763.046	24.59
763.225	24.53
763.405	24.32
763.585	24.4
763.765	24.46
763.945	24.19
764.124	24.11
764.304	24.11
764.484	24.19
764.664	24.07
764.843	24.06
765.023	23.96
765.203	23.95
765.382	23.76
765.562	23.74
765.741	23.83
765.921	24.13
766.101	24.06
766.28	24.06
766.46	24.15
766.639	24.29
766.819	24.3
766.998	24.43
767.178	24.36
767.357	24.53
767.537	24.54
767.716	24.65
767.896	24.59
768.075	24.7
768.254	24.18
768.434	24.47
768.613	24.69
768.792	24.56
768.972	24.84
769.151	24.57
769.33	24.47
769.51	25.08
769.689	25.14
769.868	25.35
770.047	25.71
770.226	26.27
770.406	25.81
770.585	25.68
770.764	25.6
770.943	25.33
771.122	25.48
771.301	25.9
771.48	25.67
771.66	25.66
771.839	25.4
772.018	24.94
772.197	24.83
772.376	25.15
772.555	25
772.734	25.07
772.913	25.16
773.092	25.34
773.271	24.8
773.449	24.49
773.628	24.57
773.807	24.67
773.986	25.01
774.165	24.77
774.344	24.6
774.523	24.35
774.701	24.42
774.88	24.48
775.059	24.23
775.238	24.6
775.417	24.87
775.595	24.43
775.774	24.32
775.953	24.04
776.131	24.12
776.31	24.02
776.489	23.69
776.667	23.65
776.846	23.33
777.025	23.51
777.203	23.37
777.382	23.29
777.56	23.16
777.739	23.61
777.917	23.46
778.096	23.84
778.274	24.17
778.453	25.02
778.631	25.17
778.81	25.11
778.988	25.09
779.166	24.96
779.345	25.12
779.523	25.45
779.702	25.43
779.88	25.58
780.058	25.56
780.237	25.43
780.415	25.3
780.593	25.07
780.771	25.59
780.95	26
781.128	26.41
781.306	26.2
781.484	26.17
781.662	25.45
781.841	25.63
782.019	25.46
782.197	25.51
782.375	25.23
782.553	25.45
782.731	25.06
782.909	24.78
783.087	25.23
783.265	25.46
783.443	25.25
783.621	25.68
783.799	25.77
783.977	25.97
784.155	25.85
784.333	26.87
784.511	26.41
784.689	26.53
784.867	26.68
785.045	25.98
785.223	25.31
785.4	25.41
785.578	25.25
785.756	24.78
785.934	24.61
786.112	24.35
786.289	23.82
786.467	24.25
786.645	23.74
786.823	23.53
787	23.72
787.178	23.7
787.356	23.85
787.533	23.68
787.711	23.65
787.889	23.5
788.066	23.73
788.244	23.77
788.421	23.74
788.599	24.18
788.776	24.09
788.954	24.33
789.131	24.47
789.309	24.84
789.486	25.45
789.664	25.76
789.841	26.65
790.019	26.83
790.196	26.6
790.373	26.46
790.551	27.21
790.728	27.35
790.906	27.54
791.083	27.43
791.26	27.43
791.437	27.19
791.615	27.25
791.792	26.24
791.969	26.27
792.146	26.11
792.324	26.64
792.501	26.31
792.678	26.21
792.855	25.24
793.032	25.54
793.209	24.87
793.387	24.9
793.564	25.13
793.741	25.42
793.918	25.14
794.095	24.86
794.272	24.33
794.449	23.86
794.626	24.57
794.803	25.31
794.98	25.4
795.157	25.81
795.334	26.19
795.511	25.88
795.688	25.72
795.864	25.86
796.041	26.16
796.218	26.97
796.395	27.05
796.572	26.38
796.749	25.8
796.925	25.91
797.102	25.71
797.279	25.42
797.456	25.45
797.632	25.59
797.809	25.62
797.986	26.19
798.162	25.6
798.339	25.46
798.516	26.37
798.692	26.66
798.869	26.38
799.046	26.46
799.222	26.9
799.399	26.69
799.575	26.77
799.752	27.06
799.928	26.88
800.105	26.78
800.281	26.64
800.458	25.72
800.634	25.64
800.811	25.82
800.987	25.45
801.163	24.46
801.34	24.9
801.516	24.81
801.692	25.17
801.869	25.02
802.045	25.12
802.221	25.35
802.398	25.22
802.574	25.26
802.75	25.73
802.926	26.75
803.103	27.37
803.279	27.34
803.455	27.27
803.631	26.27
803.807	26.06
803.983	26.67
804.16	26.62
804.336	26.98
804.512	27.38
804.688	27.37
804.864	26.97
805.04	27.36
805.216	27.02
805.392	27.21
805.568	27.92
805.744	28.86
805.92	28.74
806.096	29.52
806.272	29.96
806.448	29.66
806.623	29.2
806.799	28.68
806.975	29.11
807.151	29.08
807.327	28.86
807.503	28.39
807.678	27.26
807.854	26.87
808.03	26.64
808.206	26.48
808.381	26.8
808.557	26.61
808.733	26.42
808.908	25.02
809.084	25.36
809.26	25.11
809.435	25.33
809.611	25.92
809.787	25.46
809.962	25.09
810.138	24.97
810.313	24.84
810.489	25.06
810.664	25.38
810.84	25.6
811.015	25.92
811.191	26.49
811.366	27.04
811.542	27.04
811.717	27.51
811.892	28.41
812.068	28.38
812.243	28.47
812.419	28.46
812.594	28.37
812.769	28.85
812.944	28.74
813.12	28.75
813.295	28.22
813.47	27.56
813.645	27.65
813.821	26.73
813.996	26.82
814.171	26.67
814.346	26.49
814.521	27.25
814.697	27.79
814.872	27.92
815.047	27.76
815.222	28.34
815.397	28.39
815.572	28.17
815.747	28.03
815.922	28.59
816.097	29.02
816.272	29.43
816.447	28.92
816.622	28.26
816.797	27.74
816.972	28.05
817.147	27.36
817.322	27.3
817.496	27.12
817.671	27.57
817.846	27.23
818.021	26.69
818.196	26.58
818.371	25.98
818.545	25.69
818.72	25.77
818.895	25.8
819.069	25.1
819.244	25.31
819.419	25.23
819.594	24.77
819.768	24.37
819.943	24.37
820.117	24.34
820.292	24.38
820.467	24.22
820.641	24
820.816	23.79
820.99	23.9
821.165	23.69
821.339	23.6
821.514	23.78
821.688	23.65
821.863	23.38
822.037	23.22
822.212	23.23
822.386	23.23
822.56	23.21
822.735	23.26
822.909	23.23
823.084	23.34
823.258	23.38
823.432	23.12
823.606	23.22
823.781	23.53
823.955	23.64
824.129	23.52
824.303	23.51
824.478	23.6
824.652	23.36
824.826	23.2
825	23.04
825.174	22.98
825.348	22.88
825.523	22.67
825.697	22.72
825.871	22.82
826.045	23.09
826.219	23.16
826.393	23.36
826.567	23.49
826.741	23.88
826.915	23.86
827.089	23.84
827.263	24.11
827.437	24.24
827.611	24.04
827.784	23.98
827.958	23.95
828.132	24.07
828.306	23.93
828.48	24.18
828.654	24.14
828.827	24.45
829.001	24.42
829.175	24.61
829.349	25.26
829.522	25.25
829.696	25.62
829.87	26.25
830.044	26.94
830.217	26.93
830.391	26.49
830.565	26.67
830.738	27.04
830.912	27.23
831.085	26.81
831.259	26.56
831.432	26.93
831.606	26.36
831.779	25.51
831.953	24.71
832.126	24.78
832.3	24.77
832.473	24.19
832.647	23.81
832.82	23.85
832.994	23.84
833.167	23.61
833.34	23.58
833.514	23.64
833.687	23.68
833.86	24.13
834.034	24.23
834.207	24.39
834.38	24.53
834.553	24.53
834.727	24.97
834.9	25.18
835.073	25.07
835.246	25.2
835.419	25.51
835.593	25.88
835.766	25.65
835.939	25.51
836.112	25.4
836.285	26.24
836.458	27.08
836.631	26.51
836.804	26.82
836.977	26.53
837.15	26.62
837.323	25.77
837.496	25.59
837.669	24.66
837.842	25.11
838.015	26.3
838.188	25.44
838.361	24.55
838.533	23.85
838.706	23.97
838.879	24.94
839.052	24.87
839.225	26
839.398	26.18
839.57	27.13
839.743	26.75
839.916	25.76
840.088	26.27
840.261	26.47
840.434	27.65
840.607	27.39
840.779	28.65
840.952	29.03
841.124	28.85
841.297	29.3
841.47	29.62
841.642	29.66
841.815	30.16
841.987	30
842.16	30.05
842.332	30.31
842.505	30.91
842.677	29.83
842.85	28.44
843.022	28.51
843.194	28.19
843.367	28.79
843.539	28.81
843.712	28.62
843.884	28.82
844.056	30.34
844.229	31.39
844.401	31.1
844.573	30.48
844.745	32.15
844.918	31.33
845.09	30.9
845.262	28.65
845.434	29.08
845.606	29.04
845.779	29.38
845.951	28.88
846.123	28.24
846.295	26.18
846.467	27.41
846.639	27.72
846.811	29.44
846.983	28.62
847.155	30.62
847.327	30.23
847.499	31.47
847.671	30.31
847.843	29.72
848.015	28.32
848.187	30.55
848.359	29.21
848.531	29.75
848.703	28.72
848.875	29.22
849.047	28.08
849.218	28.14
849.39	27.87
849.562	28.04
849.734	28.98
849.905	31.37
850.077	31.99
850.249	32.85
850.421	30.3
850.592	28.74
850.764	29.84
850.936	30.26
851.107	31.76
851.279	30.67
851.451	31.17
851.622	31.67
851.794	29.84
851.965	30.21
852.137	28.92
852.308	31.62
852.48	34.12
852.651	32.87
852.823	34.57
852.994	33.22
853.166	35
853.337	36.68
853.509	35.24
853.68	35.34
853.851	35.4
854.023	35.41
854.194	34.48
854.365	34.4
854.537	34.1
854.708	31.33
854.879	33.37
855.05	33.18
855.222	33.12
855.393	31.99
855.564	31.76
855.735	29.96
855.906	30.88
856.078	30.82
856.249	31.05
856.42	30.45
856.591	32.84
856.762	30.39
856.933	30.19
857.104	28.43
857.275	29.54
857.446	31.83
857.617	32.04
857.788	33.06
857.959	34.14
858.13	33.03
858.301	35.22
858.472	33.61
858.643	36.23
858.814	36.97
858.985	38.11
859.155	37.66
859.326	36.18
859.497	36.21
859.668	34.31
859.839	35.18
860.009	37.02
860.18	36.26
860.351	36.16
860.522	34.48
860.692	32.75
860.863	35.09
861.034	36.47
861.204	36.63
861.375	37.83
861.546	40.44
861.716	40.04
861.887	39.32
862.057	41.07
862.228	40.85
862.398	42.24
862.569	43.97
862.739	42.61
862.91	41.55
863.08	41.81
863.251	42.41
863.421	41.24
863.592	39.94
863.762	38.11
863.932	37.24
864.103	37.66
864.273	35.5
864.443	35.91
864.614	33.14
864.784	34.17
864.954	33.6
865.125	33.87
865.295	35.83
865.465	35.56
865.635	35.56
865.805	36.01
865.976	37.09
866.146	38.72
866.316	37.93
866.486	39.37
866.656	39.36
866.826	37.26
866.996	35.62
867.166	35.39
867.336	34.77
867.506	35.16
867.676	34.39
867.846	34.56
868.016	30.94
868.186	29.55
868.356	27.24
868.526	24.72
868.696	26.85
868.866	26.89
869.036	25.82
869.206	26.56
869.376	26.45
869.545	25.39
869.715	24.43
869.885	26.13
870.055	26.03
870.224	28.76
870.394	32.07
870.564	34.63
870.734	33.82
870.903	32.64
871.073	30.35
871.243	32.04
871.412	33.7
871.582	33.34
871.751	34.45
871.921	35.81
872.091	34.2
872.26	34.89
872.43	31.86
872.599	33.21
872.769	33.67
872.938	37.13
873.108	36.26
873.277	35.04
873.446	32.91
873.616	32.49
873.785	32.72
873.955	35.48
874.124	34.31
874.293	33.51
874.463	34.19
874.632	36.64
874.801	36.65
874.971	35.43
875.14	35.7
875.309	38.32
875.478	36.18
875.647	33.79
875.817	30.11
875.986	28.65
876.155	30.57
876.324	30.13
876.493	27.82
876.662	25.8
876.831	26.1
877	27.03
877.17	27.31
877.339	29.87
877.508	31.2
877.677	34.34
877.846	33.95
878.015	34.22
878.184	33.44
878.352	32.5
878.521	33.63
878.69	35.22
878.859	34.06
879.028	32.55
879.197	31.92
879.366	30.55
879.534	29.06
879.703	27.59
879.872	26.77
880.041	26.53
880.21	25.86
880.378	25.02
880.547	23.54
880.716	23.44
880.884	23.02
881.053	22.54
881.222	22.49
881.39	22.39
881.559	22.6
881.727	22.53
881.896	22.36
882.065	22.55
882.233	22.76
882.402	23.35
882.57	23.55
882.739	23.85
882.907	24.15
883.076	24.07
883.244	23.91
883.412	24.19
883.581	24.24
883.749	24.71
883.918	24.81
884.086	24.61
884.254	25.13
884.423	25.46
884.591	25.98
884.759	25.95
884.927	26.75
885.096	27.59
885.264	29.02
885.432	29.95
885.6	29.45
885.769	28.37
885.937	29.42
886.105	28.34
886.273	28.38
886.441	27.73
886.609	29.36
886.777	29.94
886.945	31.8
887.113	31.22
887.281	29.76
887.449	29.49
887.617	31.93
887.785	30.69
887.953	31.5
888.121	29.72
888.289	29.83
888.457	27.04
888.625	25.82
888.793	25.23
888.961	25.29
889.129	26.38
889.296	29.24
889.464	29.83
889.632	31.64
889.8	30.77
889.967	32.54
890.135	34.18
