Data from JASIL_3237_Reflection_1.txt Node
Date: Mon Nov 16 20:20:44 EST 2015
User: Geneva
Spectrometer: USB4E03002
Autoset integration time: false
Trigger mode: 4
Integration Time (sec): 1.000000E-1
Scans to average: 10
Electric dark correction enabled: false
Nonlinearity correction enabled: false
Boxcar width: 5
Stray light correction enabled: false
XAxis mode: Wavelengths
Stop averaging: false
Number of Pixels in Spectrum: 3648
>>>>>Begin Spectral Data<<<<<
177.575	1900
177.794	3286.36
178.014	1902.27
178.233	1708.19
178.452	1216.43
178.672	2271.87
178.891	2896.92
179.11	2397.45
179.33	2705.71
179.549	1732.59
179.768	1728.14
179.987	1121.87
180.207	914.13
180.426	1313.69
180.645	1454.21
180.864	1723.02
181.084	1146.65
181.303	1409.88
181.522	1658.63
181.741	1262.5
181.96	1048.14
182.179	1350
182.398	1773.26
182.618	6961.76
182.837	5709.88
183.056	5315.73
183.275	2950.62
183.494	5970.67
183.713	2445.7
183.932	1419.94
184.151	2112.26
184.37	2328.87
184.589	2098.17
184.808	2223.33
185.027	1380.23
185.246	1156.5
185.465	1211.79
185.684	2261.75
185.903	1584.52
186.122	1787.05
186.341	7623.44
186.56	3278.67
186.779	-6411.69
186.998	-4820.2
187.216	-2739.53
187.435	-11170.73
187.654	-6013.33
187.873	-7939.29
188.092	-12091.67
188.311	-42480
188.53	-4261.22
188.748	5758.11
188.967	-6868.85
189.186	5338.16
189.405	2480
189.623	2000
189.842	3960.95
190.061	5992.75
190.28	2512.05
190.498	3260.94
190.717	6148.53
190.936	4282.18
191.154	10076.74
191.373	5522.78
191.592	4928.89
191.81	5974.32
192.029	4850
192.248	-10974.36
192.466	-12911.76
192.685	-1877.73
192.904	-2720.92
193.122	-1935.81
193.341	-4548.89
193.559	-2700
193.778	-3780.7
193.996	8149.06
194.215	-9258.7
194.433	-2242.19
194.652	-2141.55
194.87	-2134.16
195.089	-3875.68
195.307	-2344.21
195.526	-2991.84
195.744	-2010.05
195.963	-1614.6
196.181	-1202.53
196.399	-790.51
196.618	-642.48
196.836	-1395.11
197.055	-1416
197.273	-75316.67
197.491	-13833.33
197.71	3338.41
197.928	11597.5
198.146	7450.79
198.365	3038.31
198.583	1680.73
198.801	1229.95
199.019	790.69
199.238	1094.46
199.456	986.15
199.674	1450.66
199.892	1272.57
200.111	1418.5
200.329	1088.6
200.547	1442.11
200.765	2319
200.983	15872.41
201.202	-4314.42
201.42	-3644.44
201.638	-7573.77
201.856	18338.46
202.074	4525.23
202.292	10339.13
202.51	-7970.69
202.728	8292.73
202.946	4318.69
203.165	2269.7
203.383	2200.48
203.601	1755.27
203.819	3233.78
204.037	6436.99
204.255	13664.71
204.473	-7300
204.691	-20168.18
204.909	-25923.53
205.127	-3648.33
205.345	10465.12
205.562	3087.16
205.78	1794.88
205.998	1377.74
206.216	1091.55
206.434	1292.66
206.652	1257.78
206.87	1502.5
207.088	1177.38
207.306	1655.78
207.523	2709.29
207.741	8433.33
207.959	29918.75
208.177	-13752.78
208.395	-2904.24
208.612	-3892.62
208.83	4167.83
209.048	4014.78
209.266	449400
209.483	-4284.47
209.701	22835
209.919	3523.02
210.136	1534.21
210.354	1102.74
210.572	854.8
210.79	676.2
211.007	665.41
211.225	804.63
211.442	838.15
211.66	629.82
211.878	680.79
212.095	667
212.313	660.57
212.53	881.25
212.748	986.5
212.966	1244.83
213.183	1675.23
213.401	1497.44
213.618	1674.04
213.836	1396.51
214.053	1656.79
214.271	986.73
214.488	957.77
214.705	1059.48
214.923	839.25
215.14	1576.75
215.358	1164.41
215.575	1520
215.793	1413.84
216.01	853.28
216.227	1008.33
216.445	973.36
216.662	1319.77
216.879	1450.65
217.097	910.36
217.314	857.09
217.531	706.06
217.749	773.85
217.966	693.64
218.183	766.78
218.4	1674.24
218.618	1244.7
218.835	1127.16
219.052	1018.01
219.269	1112.81
219.487	2968.92
219.704	4316.5
219.921	2297.5
220.138	2057.47
220.355	1197.67
220.572	2164.81
220.79	1380.46
221.007	1581.17
221.224	1595
221.441	2641.08
221.658	2170.27
221.875	1923.46
222.092	2926.45
222.309	70783.33
222.526	4252.53
222.743	9569.05
222.96	2125.54
223.177	780.92
223.394	749.62
223.611	669.54
223.828	678.03
224.045	580.54
224.262	485.18
224.479	487.54
224.696	438.28
224.913	432.44
225.13	455.65
225.347	373.54
225.564	425.44
225.781	355.12
225.997	359.62
226.214	275.93
226.431	248.56
226.648	228.95
226.865	205.72
227.082	188.05
227.298	174.49
227.515	151.8
227.732	145.69
227.949	134.34
228.165	127.52
228.382	116.06
228.599	113.72
228.816	111.09
229.032	111.21
229.249	105.13
229.466	104.22
229.682	103.88
229.899	114.52
230.116	118.97
230.332	125.07
230.549	130.44
230.765	140.59
230.982	149.62
231.199	167.38
231.415	171.12
231.632	184.14
231.848	186.39
232.065	200.04
232.281	195.16
232.498	202.65
232.714	227.69
232.931	233.4
233.147	221.24
233.364	230.03
233.58	218.52
233.797	206.1
234.013	191.33
234.23	192.09
234.446	176.37
234.662	173.67
234.879	173.57
235.095	151.89
235.312	150.54
235.528	157.62
235.744	154.08
235.961	160
236.177	166.07
236.393	177.28
236.61	180.74
236.826	184.18
237.042	199.3
237.258	184.56
237.475	207.26
237.691	211.54
237.907	207.88
238.123	198.93
238.339	193.39
238.556	190.22
238.772	187.5
238.988	179.31
239.204	168.18
239.42	152.57
239.636	155.16
239.853	138.87
240.069	128.79
240.285	120.53
240.501	116.22
240.717	106.07
240.933	97.15
241.149	87.75
241.365	84.71
241.581	81.75
241.797	77.75
242.013	72.74
242.229	72.47
242.445	69.59
242.661	68.03
242.877	70.53
243.093	71.12
243.309	73.44
243.525	78.23
243.741	79.19
243.957	81.73
244.173	78.13
244.388	77.12
244.604	73.63
244.82	70.3
245.036	67.55
245.252	60.82
245.468	57.45
245.683	54.66
245.899	49.17
246.115	46.36
246.331	42.55
246.547	40.39
246.762	39.49
246.978	39.45
247.194	40.45
247.409	41.06
247.625	41.92
247.841	42.09
248.057	43.83
248.272	47.73
248.488	51.58
248.703	54.09
248.919	61.02
249.135	65.85
249.35	72.17
249.566	76.3
249.782	81.08
249.997	83.83
250.213	85.44
250.428	85.57
250.644	84.77
250.859	83.09
251.075	82.76
251.29	80.51
251.506	79.55
251.721	76.18
251.937	75.06
252.152	73.14
252.368	71.47
252.583	77.67
252.798	79.93
253.014	84.42
253.229	86.71
253.445	92.57
253.66	97.82
253.875	102.21
254.091	106.38
254.306	111.94
254.521	118.53
254.737	129.16
254.952	123.54
255.167	125.16
255.383	120.9
255.598	118.78
255.813	113.92
256.028	112.12
256.244	106.9
256.459	103.49
256.674	95.75
256.889	87.3
257.104	79.39
257.32	76.16
257.535	66.84
257.75	62.18
257.965	59.5
258.18	54.02
258.395	48.95
258.61	46.5
258.826	43.88
259.041	41.64
259.256	39.98
259.471	38.08
259.686	36.18
259.901	36.8
260.116	36.47
260.331	35.86
260.546	37.01
260.761	38.11
260.976	39.38
261.191	40.65
261.406	43.03
261.621	45.05
261.836	48.35
262.05	52.1
262.265	54.48
262.48	56.04
262.695	59.32
262.91	62.7
263.125	64.51
263.34	66.79
263.555	69.94
263.769	70.12
263.984	73.78
264.199	74.73
264.414	73.03
264.629	71.16
264.843	71.31
265.058	71.7
265.273	69.31
265.488	67.25
265.702	64.13
265.917	62.32
266.132	60.49
266.346	58.36
266.561	57.51
266.776	56.13
266.99	55.84
267.205	54.05
267.42	51.17
267.634	50.31
267.849	49.88
268.063	50.87
268.278	50.87
268.492	51.03
268.707	50.1
268.922	48.55
269.136	47.61
269.351	48.81
269.565	49.69
269.78	49.39
269.994	50.15
270.209	51.52
270.423	50.15
270.637	49.03
270.852	48.59
271.066	47.74
271.281	48.89
271.495	50.63
271.709	49.5
271.924	50.44
272.138	50.67
272.353	49.47
272.567	48.26
272.781	48.03
272.996	48.4
273.21	49.71
273.424	50.19
273.638	50.54
273.853	50.85
274.067	52.53
274.281	53.61
274.495	54.51
274.71	55.73
274.924	55.92
275.138	55.15
275.352	57.41
275.566	56.48
275.781	59.03
275.995	58.91
276.209	59.73
276.423	58.73
276.637	58.48
276.851	58.68
277.065	58.19
277.279	59.38
277.493	61.52
277.707	58.89
277.921	60.31
278.135	58.9
278.349	57.3
278.563	55.32
278.777	55.8
278.991	53.5
279.205	52.78
279.419	52.94
279.633	52
279.847	51.9
280.061	50.72
280.275	49.38
280.489	48.6
280.703	48.79
280.917	48.85
281.131	46.3
281.344	47.26
281.558	47
281.772	47.83
281.986	48.25
282.2	47.32
282.414	48.44
282.627	47.11
282.841	47.25
283.055	46.86
283.269	46.23
283.482	46.68
283.696	44.23
283.91	42.93
284.123	40.98
284.337	39.1
284.551	38.38
284.764	36.96
284.978	37.11
285.192	35.36
285.405	36.14
285.619	36.2
285.833	35.58
286.046	36.49
286.26	37.74
286.473	37.35
286.687	37.66
286.9	37.39
287.114	37.58
287.327	36.81
287.541	38.07
287.754	37.84
287.968	37.81
288.181	38.02
288.395	37.6
288.608	37.34
288.822	37.65
289.035	37.86
289.248	37.7
289.462	38.4
289.675	39.35
289.889	39.49
290.102	38.42
290.315	37.73
290.529	38.66
290.742	39.02
290.955	39.02
291.169	39.6
291.382	40.21
291.595	42.7
291.808	42.6
292.022	41.69
292.235	41.26
292.448	43
292.661	42.62
292.875	42.44
293.088	42.08
293.301	41.24
293.514	40.67
293.727	40.84
293.94	38.74
294.153	38.12
294.367	38.06
294.58	36.79
294.793	34.59
295.006	34.69
295.219	32.89
295.432	33.23
295.645	32.91
295.858	32.53
296.071	30.42
296.284	29.39
296.497	28.92
296.71	28.48
296.923	29.18
297.136	29.36
297.349	30.59
297.562	31
297.775	30.72
297.988	30.74
298.201	30.8
298.414	31.84
298.626	32.87
298.839	33.17
299.052	33.76
299.265	34.76
299.478	35.89
299.691	36.08
299.903	36.51
300.116	36.79
300.329	37.61
300.542	38.69
300.755	39.62
300.967	40.32
301.18	40.86
301.393	41.71
301.605	41.61
301.818	39.88
302.031	38.24
302.243	38.89
302.456	38.38
302.669	38.39
302.881	39.42
303.094	38.56
303.307	38.39
303.519	37.87
303.732	38.17
303.944	38.33
304.157	40.35
304.37	42.54
304.582	43.18
304.795	43.76
305.007	44.32
305.22	42.93
305.432	44.05
305.645	44.25
305.857	44.88
306.069	45.5
306.282	44.75
306.494	43.67
306.707	41.67
306.919	41.72
307.132	41.71
307.344	40.61
307.556	39.67
307.769	38.67
307.981	38.59
308.193	38.39
308.406	35.95
308.618	35.29
308.83	35.34
309.043	34.88
309.255	33.51
309.467	32.96
309.679	32.42
309.892	32.92
310.104	32.37
310.316	31.2
310.528	30.97
310.74	32.99
310.953	33.61
311.165	33.39
311.377	34.24
311.589	34.87
311.801	35.18
312.013	36.44
312.225	36.53
312.437	38.27
312.649	40.08
312.862	40.84
313.074	41.55
313.286	43.68
313.498	44.69
313.71	45.63
313.922	46.8
314.134	47.5
314.346	47.03
314.558	48.15
314.77	47.69
314.982	47.46
315.193	48.47
315.405	47.62
315.617	45.64
315.829	46.47
316.041	45.11
316.253	44.89
316.465	46.13
316.677	45.47
316.888	44.26
317.1	44.1
317.312	44.07
317.524	44.91
317.736	45.35
317.947	45.51
318.159	46.67
318.371	47.39
318.583	47.3
318.794	46.39
319.006	47.92
319.218	49.21
319.43	50.95
319.641	51.53
319.853	49.48
320.064	49.7
320.276	51.23
320.488	49.13
320.699	50.15
320.911	51.53
321.123	53.57
321.334	53.96
321.546	53.37
321.757	52.46
321.969	52.78
322.18	52.51
322.392	50.74
322.603	48.4
322.815	48.2
323.026	46.58
323.238	44.74
323.449	42.71
323.661	41.74
323.872	41.45
324.083	41.07
324.295	39.95
324.506	40.08
324.718	39.61
324.929	39.92
325.14	39.19
325.352	39.92
325.563	40.31
325.774	40.99
325.986	40.15
326.197	41.15
326.408	41.96
326.62	42.42
326.831	43.32
327.042	44.37
327.253	44.26
327.464	45.64
327.676	46
327.887	46.38
328.098	46.2
328.309	47.84
328.52	46.66
328.732	45.71
328.943	47
329.154	45.75
329.365	47.63
329.576	48.31
329.787	48.6
329.998	48.84
330.209	48.74
330.42	49.14
330.631	50.61
330.842	50.85
331.053	51.32
331.264	50.1
331.475	50.38
331.686	48.83
331.897	48.64
332.108	48.56
332.319	48.21
332.53	49.09
332.741	47.45
332.952	46.56
333.163	47.13
333.374	46.9
333.585	46.79
333.795	47.9
334.006	47.12
334.217	46.64
334.428	46.3
334.639	47.03
334.849	47
335.06	47.35
335.271	47.42
335.482	47.22
335.692	46.87
335.903	47.08
336.114	45.67
336.325	46.18
336.535	47.3
336.746	47.2
336.957	46.85
337.167	44.75
337.378	45.53
337.589	44.36
337.799	44.18
338.01	44.99
338.22	44.85
338.431	45.47
338.642	46.32
338.852	46.08
339.063	46.12
339.273	44.53
339.484	46.06
339.694	46.07
339.905	47.59
340.115	46.83
340.326	46.85
340.536	46.64
340.746	46.2
340.957	43.91
341.167	43.88
341.378	43.41
341.588	44.07
341.799	43.48
342.009	42.7
342.219	41.13
342.43	41.06
342.64	40.38
342.85	39.72
343.061	38.82
343.271	40.64
343.481	40.18
343.691	40.45
343.902	40.15
344.112	39.65
344.322	38.96
344.532	39.11
344.743	38.2
344.953	37.73
345.163	39
345.373	39.91
345.583	39.06
345.793	38.27
346.004	38.07
346.214	38.09
346.424	38.01
346.634	38.98
346.844	39.55
347.054	40.95
347.264	42.14
347.474	41.73
347.684	41.57
347.894	41.94
348.104	42.67
348.314	42.41
348.524	42.13
348.734	42.3
348.944	41.98
349.154	40.54
349.364	39.65
349.574	38.37
349.784	38.28
349.994	38.34
350.204	36.99
350.413	36.52
350.623	37.83
350.833	37.86
351.043	37.78
351.253	36.84
351.463	36.46
351.672	37.75
351.882	36.94
352.092	36.09
352.302	36.6
352.511	36.83
352.721	36.53
352.931	35.63
353.141	35.82
353.35	35.17
353.56	35.39
353.77	34.97
353.979	34.26
354.189	34.41
354.399	34.71
354.608	34.02
354.818	34.39
355.027	35.68
355.237	35.76
355.447	35.58
355.656	35.79
355.866	35.1
356.075	35.24
356.285	34.71
356.494	34.68
356.704	34.54
356.913	34.56
357.123	34.7
357.332	33.96
357.542	33.02
357.751	33.31
357.96	33.75
358.17	33.9
358.379	35.13
358.589	35.61
358.798	35.31
359.007	33.87
359.217	33.2
359.426	32.55
359.635	32.41
359.845	31.65
360.054	30.58
360.263	30.03
360.472	30.27
360.682	29.48
360.891	28.38
361.1	27.92
361.309	28.39
361.519	28.04
361.728	27.57
361.937	27.47
362.146	28.06
362.355	27.82
362.564	27.55
362.774	27.02
362.983	27.07
363.192	27.24
363.401	27.84
363.61	27.95
363.819	29.21
364.028	29
364.237	29.19
364.446	29.43
364.655	29.73
364.864	30.54
365.073	31.01
365.282	30.98
365.491	31.59
365.7	31.47
365.909	32.23
366.118	31.74
366.327	32.55
366.536	31.98
366.745	32.46
366.954	33.21
367.162	32.9
367.371	33.66
367.58	34.36
367.789	34
367.998	34.54
368.207	34.07
368.415	34.41
368.624	34.73
368.833	34.76
369.042	34.22
369.25	34.05
369.459	34.49
369.668	34.06
369.877	32.56
370.085	32.81
370.294	31.95
370.503	31.59
370.711	30.89
370.92	30.61
371.129	30.87
371.337	30.47
371.546	29.84
371.754	29.27
371.963	28.62
372.171	29.18
372.38	28.95
372.589	29.16
372.797	29.08
373.006	29.43
373.214	29.91
373.423	30.12
373.631	30.19
373.84	30.53
374.048	30.62
374.256	30.62
374.465	30.52
374.673	30.46
374.882	30.6
375.09	30.74
375.298	29.94
375.507	29.9
375.715	29.35
375.923	29.18
376.132	28.75
376.34	28.47
376.548	27.87
376.757	28.41
376.965	28.7
377.173	28.45
377.381	28.16
377.59	29.1
377.798	28.12
378.006	28.13
378.214	28.83
378.423	29.32
378.631	29.28
378.839	30.02
379.047	29.49
379.255	28.83
379.463	29.2
379.671	30.12
379.879	28.61
380.088	29.81
380.296	29.89
380.504	29.5
380.712	29.11
380.92	28.78
381.128	29.07
381.336	28.82
381.544	29.25
381.752	29.54
381.96	28.62
382.168	29.32
382.376	29.4
382.584	29.68
382.791	29.41
382.999	29.3
383.207	29.14
383.415	29.25
383.623	29.39
383.831	28.67
384.039	28.23
384.247	28.32
384.454	28.54
384.662	27.21
384.87	26.32
385.078	25.68
385.285	25.64
385.493	25.83
385.701	24.9
385.909	24.62
386.116	24.98
386.324	25.47
386.532	25.09
386.739	24.53
386.947	25.06
387.155	25.9
387.362	26.4
387.57	27.31
387.778	28.07
387.985	28.26
388.193	28.94
388.4	29.18
388.608	28.65
388.816	28.55
389.023	28.75
389.231	28.26
389.438	28.3
389.646	28
389.853	26.84
390.061	25.41
390.268	24.34
390.475	23.12
390.683	22.94
390.89	22.51
391.098	22.85
391.305	22.92
391.512	23.03
391.72	22.18
391.927	22.05
392.135	22.46
392.342	23.2
392.549	24.35
392.756	24.64
392.964	24.53
393.171	24.78
393.378	24.8
393.586	24.8
393.793	25.12
394	24.91
394.207	24.52
394.414	24.53
394.622	24.16
394.829	24.18
395.036	24.43
395.243	24.9
395.45	24.88
395.657	24.94
395.864	25.19
396.072	25.12
396.279	25.48
396.486	25.86
396.693	25.87
396.9	25.37
397.107	25.16
397.314	24.89
397.521	24.4
397.728	24.35
397.935	24.14
398.142	23.71
398.349	23.28
398.556	22.98
398.763	23.7
398.97	22.66
399.177	23.11
399.383	23.17
399.59	23.16
399.797	23.12
400.004	22.97
400.211	23.11
400.418	22.62
400.625	22.81
400.831	22.76
401.038	22.19
401.245	22.62
401.452	22.98
401.658	22.3
401.865	22.26
402.072	22.29
402.279	22.22
402.485	22.07
402.692	21.77
402.899	21.69
403.105	21.52
403.312	21.16
403.519	21.24
403.725	20.46
403.932	20.75
404.138	20.84
404.345	20.66
404.552	20.99
404.758	20.88
404.965	21.31
405.171	21.09
405.378	21.27
405.584	21.51
405.791	21.3
405.997	21.94
406.204	22.38
406.41	22.82
406.617	22.66
406.823	22.32
407.029	22.35
407.236	23.09
407.442	23.21
407.649	23.54
407.855	23.08
408.061	23.36
408.268	23.06
408.474	22.65
408.68	21.99
408.887	22.37
409.093	22.35
409.299	22.46
409.505	20.93
409.712	21.13
409.918	20.42
410.124	20.44
410.33	19.74
410.537	20.1
410.743	20.22
410.949	20.8
411.155	20.89
411.361	19.97
411.567	20.03
411.773	20.84
411.98	20.54
412.186	21.72
412.392	21.93
412.598	22.33
412.804	21.87
413.01	21.4
413.216	21.24
413.422	20.77
413.628	21.19
413.834	20.74
414.04	20.75
414.246	20.94
414.452	19.95
414.658	20.4
414.864	20.61
415.07	20.97
415.275	21.41
415.481	20.46
415.687	20.33
415.893	20.64
416.099	20.43
416.305	19.91
416.511	19.43
416.716	19.07
416.922	18.29
417.128	18.02
417.334	17.47
417.539	16.43
417.745	16.74
417.951	16.35
418.157	15.78
418.362	15.63
418.568	15.75
418.774	15.5
418.979	15.68
419.185	15.59
419.391	15.25
419.596	14.94
419.802	15.01
420.008	14.44
420.213	16.35
420.419	16.48
420.624	16.17
420.83	15.62
421.035	15.43
421.241	15.14
421.446	14.64
421.652	14.45
421.857	14.48
422.063	14.41
422.268	14.55
422.474	12.57
422.679	12.68
422.885	12.95
423.09	13.11
423.295	13.16
423.501	12.93
423.706	13.5
423.911	13.74
424.117	13.85
424.322	14.19
424.527	14.27
424.733	14.37
424.938	14.38
425.143	13.86
425.349	13.94
425.554	13.95
425.759	14.42
425.964	14.36
426.169	14.29
426.375	14.42
426.58	14.13
426.785	14.32
426.99	14.58
427.195	14.39
427.4	15.52
427.605	15.95
427.811	16.11
428.016	16.3
428.221	16.48
428.426	16.88
428.631	16.9
428.836	16.93
429.041	17.08
429.246	17.26
429.451	17.26
429.656	17.02
429.861	16.98
430.066	17.6
430.271	17.57
430.476	17.48
430.681	17.22
430.886	16.89
431.09	17.17
431.295	16.74
431.5	16.72
431.705	16.73
431.91	16.76
432.115	16.59
432.32	16.36
432.524	15.64
432.729	15.17
432.934	15.11
433.139	15.5
433.343	15.08
433.548	15.3
433.753	15.2
433.958	15.18
434.162	15.18
434.367	15.33
434.572	15.31
434.776	15.9
434.981	16.23
435.186	16.46
435.39	16.21
435.595	16.52
435.799	16.39
436.004	16.37
436.209	16.57
436.413	16.28
436.618	16.07
436.822	15.78
437.027	15.82
437.231	15.99
437.436	15.78
437.64	15.83
437.845	15.72
438.049	15.58
438.253	15.32
438.458	15.03
438.662	14.9
438.867	14.78
439.071	14.7
439.275	14.3
439.48	14.2
439.684	13.93
439.888	13.7
440.093	13.99
440.297	14.04
440.501	14.37
440.706	14.3
440.91	14.34
441.114	14.09
441.318	14.1
441.523	14.11
441.727	14.12
441.931	14.43
442.135	14.72
442.339	14.77
442.543	14.57
442.748	14.11
442.952	14.23
443.156	13.88
443.36	14.12
443.564	14.16
443.768	14.13
443.972	14.22
444.176	14.15
444.38	14.01
444.584	13.29
444.788	13.46
444.992	13.4
445.196	13.3
445.4	13.21
445.604	13.17
445.808	13.02
446.012	12.92
446.216	12.53
446.42	12.53
446.624	12.38
446.828	12.58
447.032	12.55
447.235	12.64
447.439	12.48
447.643	12.82
447.847	13
448.051	13.33
448.254	13.82
448.458	14.42
448.662	14.57
448.866	14.9
449.069	15.07
449.273	15.32
449.477	15.4
449.681	15.53
449.884	15.6
450.088	15.72
450.292	15.2
450.495	15.03
450.699	14.7
450.902	14.72
451.106	14.48
451.31	14.71
451.513	14.63
451.717	14.74
451.92	15.37
452.124	15.61
452.327	15.3
452.531	15.69
452.734	15.72
452.938	16.3
453.141	16.37
453.345	16.31
453.548	16.31
453.752	16.58
453.955	16.79
454.158	16.35
454.362	15.98
454.565	16.15
454.769	16.49
454.972	16.56
455.175	16.41
455.379	16.42
455.582	16.81
455.785	16.62
455.988	16.51
456.192	15.84
456.395	15.91
456.598	15.97
456.801	15.95
457.005	15.75
457.208	15.26
457.411	15.04
457.614	14.85
457.817	14.55
458.021	14.32
458.224	13.77
458.427	13.67
458.63	13.24
458.833	13.11
459.036	12.84
459.239	12.44
459.442	12.48
459.645	12.19
459.848	11.92
460.051	12.06
460.254	11.94
460.457	12.35
460.66	12.66
460.863	13.21
461.066	13.34
461.269	13.62
461.472	13.94
461.675	14.14
461.878	14.31
462.081	14.69
462.284	14.69
462.486	15.21
462.689	15.19
462.892	15.46
463.095	15.25
463.298	15.47
463.5	15.99
463.703	16.03
463.906	16.04
464.109	16.24
464.311	16.58
464.514	16.86
464.717	16.95
464.92	16.78
465.122	16.47
465.325	16.54
465.528	16.58
465.73	16.57
465.933	16.12
466.135	16.08
466.338	16.22
466.541	15.85
466.743	15.47
466.946	15.4
467.148	15.9
467.351	15.71
467.553	15.81
467.756	15.94
467.958	15.44
468.161	15.95
468.363	16.11
468.566	15.88
468.768	15.98
468.971	15.92
469.173	16.04
469.375	15.35
469.578	15.71
469.78	15.66
469.983	15.64
470.185	15.57
470.387	15.5
470.59	15.59
470.792	15.88
470.994	16.04
471.196	16.17
471.399	15.74
471.601	16.19
471.803	15.92
472.005	15.68
472.208	15.72
472.41	15.81
472.612	15.81
472.814	15.41
473.016	15.52
473.218	15.22
473.421	15.11
473.623	15.34
473.825	15.26
474.027	15.53
474.229	15.84
474.431	15.59
474.633	15.68
474.835	15.25
475.037	15.48
475.239	15.26
475.441	15.18
475.643	15.26
475.845	15.1
476.047	14.91
476.249	14.6
476.451	14.54
476.653	14.08
476.855	13.76
477.057	14.06
477.258	13.9
477.46	14.02
477.662	14.1
477.864	13.79
478.066	13.6
478.268	13.74
478.469	13.77
478.671	13.18
478.873	13.4
479.075	13.59
479.276	13.09
479.478	13.18
479.68	12.58
479.882	12.5
480.083	12.51
480.285	12.51
480.487	12.26
480.688	12.17
480.89	12.54
481.091	12.3
481.293	12.09
481.495	11.95
481.696	11.54
481.898	11.22
482.099	10.8
482.301	10.36
482.502	9.93
482.704	9.47
482.905	9.13
483.107	8.57
483.308	8.4
483.51	8.15
483.711	8.13
483.913	8.02
484.114	8.12
484.315	8.14
484.517	8.16
484.718	8.19
484.92	8.34
485.121	8.34
485.322	8.59
485.524	8.71
485.725	8.82
485.926	8.79
486.127	8.86
486.329	8.68
486.53	8.62
486.731	8.64
486.932	8.7
487.134	8.8
487.335	8.97
487.536	8.89
487.737	8.88
487.938	8.92
488.139	8.99
488.341	8.97
488.542	9.02
488.743	9.12
488.944	9.31
489.145	9.37
489.346	9.33
489.547	9.22
489.748	9.37
489.949	9.55
490.15	9.52
490.351	9.49
490.552	9.62
490.753	9.69
490.954	9.64
491.155	9.33
491.356	9.34
491.557	9.43
491.758	9.52
491.959	9.56
492.159	9.54
492.36	9.62
492.561	9.97
492.762	10.07
492.963	10.15
493.164	10.56
493.364	11.2
493.565	11.32
493.766	11.53
493.967	11.73
494.167	11.88
494.368	11.87
494.569	12.19
494.769	11.91
494.97	12.16
495.171	12.3
495.371	12.26
495.572	12.45
495.773	12.64
495.973	12.47
496.174	12.51
496.375	12.65
496.575	12.5
496.776	12.3
496.976	12.6
497.177	12.37
497.377	12.52
497.578	12.56
497.778	12.33
497.979	12.23
498.179	12.27
498.38	12.63
498.58	12.61
498.78	12.96
498.981	13.23
499.181	13.24
499.382	13.43
499.582	13.24
499.782	13.17
499.983	13.33
500.183	13.76
500.383	14.09
500.584	13.88
500.784	14.05
500.984	14.2
501.184	14.36
501.385	14.21
501.585	14.5
501.785	14.46
501.985	14.39
502.185	14.44
502.386	14.23
502.586	13.81
502.786	14.03
502.986	13.96
503.186	13.91
503.386	13.7
503.586	13.8
503.786	13.63
503.987	13.9
504.187	14.05
504.387	14.02
504.587	13.89
504.787	14.09
504.987	14.11
505.187	14.18
505.387	14.21
505.587	14.42
505.786	14.37
505.986	14.38
506.186	14.56
506.386	14.42
506.586	14.42
506.786	14.5
506.986	14.72
507.186	14.47
507.386	14.47
507.585	14.24
507.785	14
507.985	13.99
508.185	13.92
508.384	13.5
508.584	13.63
508.784	13.37
508.984	13.71
509.183	13.44
509.383	13.46
509.583	13.58
509.782	13.86
509.982	14.14
510.182	14
510.381	13.91
510.581	14.13
510.781	14.3
510.98	14.8
511.18	14.78
511.379	14.88
511.579	15.08
511.778	15.12
511.978	14.88
512.177	14.89
512.377	15.12
512.576	15.18
512.776	15.39
512.975	15.18
513.175	14.56
513.374	14.38
513.573	14.26
513.773	14.17
513.972	14
514.172	14.14
514.371	14.32
514.57	14.08
514.77	14.28
514.969	14.26
515.168	14.29
515.367	14.95
515.567	15.05
515.766	14.89
515.965	15.05
516.164	14.9
516.364	14.89
516.563	14.68
516.762	14.88
516.961	14.72
517.16	14.37
517.359	14.28
517.559	13.9
517.758	13.61
517.957	13.88
518.156	13.72
518.355	13.81
518.554	13.86
518.753	13.67
518.952	13.67
519.151	13.92
519.35	14.33
519.549	14.48
519.748	14.51
519.947	14.91
520.146	14.74
520.345	14.9
520.544	15.04
520.743	15.11
520.942	15.68
521.141	15.67
521.339	15.36
521.538	15.42
521.737	15.32
521.936	15.41
522.135	15.09
522.333	15.27
522.532	15.41
522.731	15.41
522.93	15.27
523.129	14.84
523.327	14.91
523.526	15.07
523.725	14.97
523.923	15.11
524.122	15.2
524.321	15.2
524.519	15.14
524.718	14.9
524.917	14.85
525.115	14.68
525.314	14.68
525.512	14.6
525.711	14.39
525.909	14.41
526.108	14.3
526.306	14.23
526.505	14.23
526.703	14.13
526.902	14.01
527.1	13.99
527.299	13.97
527.497	13.9
527.696	13.78
527.894	13.75
528.092	13.57
528.291	13.48
528.489	13.4
528.688	13.42
528.886	13.35
529.084	13.35
529.283	13.25
529.481	13.37
529.679	13.41
529.877	13.59
530.076	13.73
530.274	13.92
530.472	14.04
530.67	14.26
530.869	14.44
531.067	14.73
531.265	15.02
531.463	15.17
531.661	15.14
531.859	15.33
532.057	15.35
532.255	15.3
532.454	15.32
532.652	15.39
532.85	15.42
533.048	15.38
533.246	15.37
533.444	15.29
533.642	15.38
533.84	15.43
534.038	15.43
534.236	15.47
534.434	15.49
534.632	15.53
534.83	15.79
535.027	15.94
535.225	16.12
535.423	16.35
535.621	16.23
535.819	16.39
536.017	16.67
536.215	16.51
536.412	16.55
536.61	16.76
536.808	16.89
537.006	16.93
537.203	17.1
537.401	16.99
537.599	17.1
537.797	17.61
537.994	17.79
538.192	17.78
538.39	18.12
538.587	18.21
538.785	18.22
538.983	18.13
539.18	17.8
539.378	17.64
539.575	17.85
539.773	17.45
539.97	17.28
540.168	17.03
540.366	16.88
540.563	16.73
540.761	16.77
540.958	16.74
541.155	16.65
541.353	16.65
541.55	16.63
541.748	16.45
541.945	16.43
542.143	16.38
542.34	16.55
542.537	16.67
542.735	16.7
542.932	16.53
543.129	16.78
543.327	17.04
543.524	17.18
543.721	17.23
543.919	17.4
544.116	17.95
544.313	18.23
544.51	18.32
544.708	18.55
544.905	18.76
545.102	19.14
545.299	18.94
545.496	19.21
545.693	19.21
545.891	19.26
546.088	19.5
546.285	19.49
546.482	19.58
546.679	19.58
546.876	19.69
547.073	19.99
547.27	20.07
547.467	20.37
547.664	20.22
547.861	20.54
548.058	20.71
548.255	20.96
548.452	21.26
548.649	21.65
548.846	21.8
549.043	21.61
549.24	21.62
549.437	22.08
549.633	22.29
549.83	22.8
550.027	23.31
550.224	23.89
550.421	23.7
550.618	23.76
550.814	23.23
551.011	23.39
551.208	23.76
551.405	23.6
551.601	23.42
551.798	23.57
551.995	23.52
552.191	23.51
552.388	23.14
552.585	23.44
552.781	23.43
552.978	23.88
553.175	24.21
553.371	24.43
553.568	24.81
553.764	25.38
553.961	25.54
554.157	25.8
554.354	25.9
554.55	26.61
554.747	26.93
554.943	27.13
555.14	27.41
555.336	27.75
555.533	27.97
555.729	28.17
555.926	27.73
556.122	27.47
556.318	27.14
556.515	27.13
556.711	26.9
556.907	26.68
557.104	26.75
557.3	26.82
557.496	26.41
557.693	26.29
557.889	26.32
558.085	26.44
558.281	26.95
558.478	27.1
558.674	27.11
558.87	27.24
559.066	27.51
559.262	27.29
559.459	26.95
559.655	27.04
559.851	27.26
560.047	27.5
560.243	27.67
560.439	27.37
560.635	27.01
560.831	27.13
561.027	26.97
561.223	26.89
561.419	27.26
561.615	27.7
561.811	27.87
562.007	27.67
562.203	27.19
562.399	26.98
562.595	27.29
562.791	27.86
562.987	28.1
563.183	28.01
563.379	28.19
563.575	27.95
563.771	27.77
563.966	27.8
564.162	28.21
564.358	28.38
564.554	28.31
564.75	27.94
564.945	27.77
565.141	27.29
565.337	27.73
565.533	27.5
565.728	27.32
565.924	27.45
566.12	27.23
566.315	27.04
566.511	27.12
566.707	27.37
566.902	27.46
567.098	27.39
567.293	27.72
567.489	27.44
567.684	27.42
567.88	27.89
568.076	27.84
568.271	27.8
568.467	27.8
568.662	28.07
568.858	28.24
569.053	28.86
569.248	28.87
569.444	28.84
569.639	29.1
569.835	29.39
570.03	29.03
570.225	28.81
570.421	29.01
570.616	28.81
570.812	28.59
571.007	28.27
571.202	27.92
571.397	28.03
571.593	27.94
571.788	27.98
571.983	27.65
572.178	28.22
572.374	28.66
572.569	28.94
572.764	29.26
572.959	29.15
573.154	29.56
573.35	29.73
573.545	29.96
573.74	30.22
573.935	29.94
574.13	30.14
574.325	30
574.52	29.84
574.715	29.83
574.91	29.71
575.105	30.27
575.3	30.4
575.495	30.6
575.69	30.7
575.885	31.08
576.08	31.42
576.275	31.78
576.47	32.1
576.665	32.4
576.86	32.46
577.055	32.69
577.25	32.64
577.444	32.53
577.639	32.42
577.834	32.28
578.029	31.94
578.224	32.02
578.418	32.12
578.613	32.11
578.808	32.16
579.003	32.4
579.197	32.88
579.392	33
579.587	33.22
579.781	33.73
579.976	34.27
580.171	34.68
580.365	34.89
580.56	34.97
580.755	35.45
580.949	35.43
581.144	35.73
581.338	35.42
581.533	35.37
581.727	35.26
581.922	35.11
582.116	35.27
582.311	34.86
582.505	34.72
582.7	34.51
582.894	34.28
583.089	34.68
583.283	34.4
583.478	34.03
583.672	34.2
583.866	34.77
584.061	34.75
584.255	34.46
584.449	34.88
584.644	35.24
584.838	35.34
585.032	35.21
585.226	34.99
585.421	35.36
585.615	36.15
585.809	36.35
586.003	36.18
586.198	36.43
586.392	36.73
586.586	36.48
586.78	36.4
586.974	36.21
587.168	35.72
587.363	35.64
587.557	35.02
587.751	34.91
587.945	34.69
588.139	34.67
588.333	34.59
588.527	34.56
588.721	35.01
588.915	34.93
589.109	35.26
589.303	35.62
589.497	36.01
589.691	36.47
589.885	36.21
590.079	36.21
590.273	36
590.466	36.13
590.66	35.81
590.854	36.13
591.048	36.12
591.242	35.8
591.436	35.65
591.629	35.4
591.823	35.55
592.017	35.55
592.211	35.35
592.404	35.45
592.598	35.03
592.792	35.48
592.986	35.23
593.179	35.15
593.373	35.6
593.567	35.71
593.76	35.15
593.954	34.98
594.147	35
594.341	35.42
594.535	35.09
594.728	35.01
594.922	34.33
595.115	33.92
595.309	34.03
595.502	33.92
595.696	33.61
595.889	33.93
596.083	33.63
596.276	33.68
596.47	33.36
596.663	33.79
596.856	33.96
597.05	34.44
597.243	34.27
597.437	34.27
597.63	34.29
597.823	34.86
598.017	34.9
598.21	35.47
598.403	35.84
598.596	36.37
598.79	36.19
598.983	36.49
599.176	36.58
599.369	37.22
599.563	37.44
599.756	37.95
599.949	38.01
600.142	38.29
600.335	38.34
600.528	38.16
600.722	37.88
600.915	37.93
601.108	37.77
601.301	37.9
601.494	37.32
601.687	37.18
601.88	36.81
602.073	36.69
602.266	36.54
602.459	35.97
602.652	35.59
602.845	35.22
603.038	35.06
603.231	34.91
603.424	34.43
603.617	34.82
603.809	34.61
604.002	33.96
604.195	33.9
604.388	34.08
604.581	34.28
604.774	34.48
604.966	34.85
605.159	34.96
605.352	35.02
605.545	35.19
605.737	35.25
605.93	35.52
606.123	36.55
606.316	36.74
606.508	36.59
606.701	36.89
606.894	36.9
607.086	37.4
607.279	37.79
607.471	38
607.664	38.11
607.857	37.9
608.049	37.8
608.242	36.84
608.434	36.14
608.627	36.16
608.819	35.75
609.012	35.37
609.204	34.83
609.397	34.5
609.589	34.47
609.782	34.66
609.974	35.14
610.166	35.4
610.359	36.18
610.551	36.95
610.743	36.73
610.936	37.2
611.128	38.12
611.32	39.18
611.513	39.31
611.705	40.16
611.897	40.22
612.09	40.57
612.282	40.44
612.474	40.29
612.666	40.54
612.858	41.13
613.051	42.04
613.243	42.03
613.435	41.45
613.627	42.48
613.819	42.01
614.011	43.26
614.203	42.86
614.395	42.49
614.588	42.75
614.78	42.7
614.972	42.88
615.164	42.17
615.356	42.42
615.548	42.15
615.74	41.44
615.932	41.48
616.124	40.53
616.315	41.16
616.507	42.3
616.699	42.09
616.891	41.88
617.083	42.31
617.275	42.13
617.467	41.94
617.659	42.38
617.85	42.3
618.042	42.27
618.234	42.05
618.426	41.46
618.618	41.06
618.809	41.44
619.001	41.33
619.193	41.14
619.384	41.14
619.576	41.75
619.768	41.29
619.959	41.14
620.151	40.62
620.343	40.69
620.534	40.64
620.726	40.72
620.917	40.52
621.109	41.12
621.301	40.56
621.492	41.03
621.684	40.62
621.875	40.91
622.067	41.11
622.258	42.09
622.45	42.73
622.641	42.33
622.832	42.14
623.024	42.13
623.215	42.68
623.407	42.88
623.598	43.07
623.789	42.76
623.981	42.33
624.172	42.57
624.363	41.76
624.555	40.9
624.746	41.1
624.937	40.95
625.129	40.61
625.32	39.57
625.511	39.54
625.702	38.44
625.893	38.47
626.085	38.68
626.276	38.24
626.467	38.39
626.658	38.37
626.849	38.02
627.04	38.17
627.231	38.87
627.422	39.26
627.614	39.03
627.805	39.56
627.996	39.3
628.187	39.56
628.378	39.93
628.569	40.13
628.76	40.67
628.951	40.87
629.142	40.53
629.332	39.94
629.523	39.91
629.714	40.32
629.905	40.9
630.096	41.11
630.287	41.35
630.478	41.56
630.669	41.45
630.859	41.34
631.05	41.7
631.241	42.44
631.432	42.52
631.623	42.52
631.813	42.93
632.004	41.9
632.195	42.21
632.385	41.78
632.576	41.74
632.767	41.78
632.957	41.91
633.148	41.95
633.339	41.7
633.529	41.69
633.72	41.17
633.91	40.89
634.101	41.17
634.292	41.4
634.482	41.32
634.673	41.63
634.863	41.7
635.054	41.7
635.244	41.4
635.435	41.7
635.625	41.67
635.815	42.75
636.006	42.55
636.196	42.64
636.387	42.61
636.577	42.95
636.767	42.57
636.958	42.28
637.148	42.45
637.338	42.92
637.529	42.19
637.719	42.55
637.909	41.9
638.099	41.83
638.29	41.97
638.48	41.83
638.67	42.24
638.86	42.52
639.05	43.2
639.241	43.54
639.431	43.79
639.621	44.55
639.811	45.24
640.001	45.57
640.191	45.65
640.381	45.84
640.571	45.73
640.761	45.62
640.951	45.98
641.141	46.16
641.331	45.77
641.521	45.49
641.711	45.93
641.901	45.09
642.091	45.28
642.281	45.69
642.471	45.48
642.661	46.63
642.851	46.57
643.041	45.99
643.231	45.88
643.42	46.62
643.61	46.57
643.8	46.03
643.99	46.02
644.18	46.29
644.369	46.56
644.559	46.43
644.749	45.76
644.939	45.35
645.128	45.59
645.318	45.31
645.508	44.43
645.697	44.69
645.887	44.93
646.076	45.41
646.266	45.41
646.456	45.21
646.645	45.87
646.835	46.37
647.024	47.04
647.214	47.19
647.403	47.67
647.593	47.66
647.782	47.53
647.972	47.62
648.161	47.77
648.351	47.24
648.54	46.76
648.73	46.97
648.919	46.42
649.108	45.78
649.298	45.5
649.487	45.29
649.677	45.76
649.866	46.03
650.055	45.64
650.244	44.86
650.434	44.76
650.623	45.08
650.812	44.51
651.002	44.09
651.191	44.21
651.38	44.45
651.569	44.45
651.758	44.5
651.947	43.43
652.137	43.71
652.326	44.11
652.515	44.75
652.704	44.79
652.893	45.39
653.082	45.27
653.271	45.77
653.46	45.6
653.649	45.54
653.838	45.38
654.027	46.52
654.216	46.8
654.405	46.62
654.594	46.06
654.783	46.97
654.972	47.18
655.161	47.88
655.35	47.83
655.539	48
655.728	47.89
655.916	47.07
656.105	46.15
656.294	46.54
656.483	46.18
656.672	45.98
656.86	45.16
657.049	43.99
657.238	43.24
657.427	42.6
657.615	41.96
657.804	41.14
657.993	41.4
658.181	41.64
658.37	40.8
658.559	40.99
658.747	41.28
658.936	41.57
659.125	42.48
659.313	42.67
659.502	43.07
659.69	43.28
659.879	43.78
660.067	44.49
660.256	44.4
660.444	44.92
660.633	45.67
660.821	46.06
661.01	46.39
661.198	46.37
661.387	47.13
661.575	47
661.763	47.98
661.952	48.12
662.14	48.65
662.328	49.47
662.517	50.39
662.705	50.54
662.893	50.75
663.082	50.87
663.27	51.35
663.458	50.3
663.646	51.38
663.834	51.78
664.023	52.66
664.211	53.02
664.399	53.16
664.587	52.93
664.775	52.82
664.963	53.56
665.152	52.81
665.34	53.01
665.528	53.72
665.716	52.52
665.904	51.94
666.092	51.66
666.28	51.27
666.468	51.08
666.656	51.04
666.844	51.39
667.032	50.18
667.22	50.8
667.408	50
667.596	51.04
667.784	51.51
667.971	50.89
668.159	50.75
668.347	49.62
668.535	49.02
668.723	48.46
668.911	47.98
669.098	47.99
669.286	47.96
669.474	47.91
669.662	47.17
669.849	47.7
670.037	48.18
670.225	48.48
670.413	49.61
670.6	50.03
670.788	49.9
670.976	49.58
671.163	50.16
671.351	50.1
671.538	50.19
671.726	50.36
671.913	49.69
672.101	49.59
672.289	49.65
672.476	48.97
672.664	50
672.851	49.89
673.039	50.76
673.226	50.89
673.413	50.84
673.601	51.31
673.788	51.59
673.976	51.35
674.163	51.34
674.35	51.36
674.538	51.6
674.725	51.02
674.912	51.47
675.1	51.74
675.287	51.91
675.474	51.87
675.662	51.98
675.849	50.96
676.036	51.5
676.223	52.24
676.411	52.08
676.598	51.57
676.785	52.06
676.972	52.24
677.159	51.77
677.346	50.35
677.533	49.77
677.721	49.19
677.908	50.03
678.095	49.79
678.282	48.96
678.469	48.51
678.656	48.06
678.843	46.97
679.03	47.07
679.217	47.07
679.404	47.51
679.591	48.14
679.778	48.22
679.964	48.67
680.151	48.75
680.338	48.94
680.525	49.73
680.712	50.24
680.899	51.02
681.086	50.6
681.272	50.53
681.459	51.56
681.646	51.64
681.833	51.49
682.02	50.81
682.206	51.95
682.393	52.32
682.58	51.62
682.766	52.25
682.953	52.48
683.14	53.24
683.326	55.09
683.513	55.03
683.7	55.68
683.886	56.92
684.073	57.2
684.259	56.08
684.446	56.64
684.632	57.29
684.819	57.06
685.005	56.48
685.192	56.17
685.378	54.66
685.565	54.26
685.751	53.74
685.938	52.86
686.124	52.94
686.31	52.75
686.497	52.14
686.683	52.11
686.87	51.99
687.056	52.77
687.242	52.83
687.429	52.82
687.615	52.52
687.801	53.23
687.987	52.83
688.174	53.13
688.36	53.79
688.546	53.74
688.732	53.2
688.918	53.2
689.105	52.86
689.291	53.54
689.477	53.51
689.663	54.13
689.849	53.45
690.035	53.92
690.221	54.92
690.407	55.99
690.593	56.32
690.779	57.5
690.965	58.58
691.151	59.99
691.337	59.77
691.523	60.07
691.709	60.77
691.895	61.26
692.081	60.6
692.267	59.48
692.453	59.06
692.639	58.85
692.825	58.45
693.011	57.96
693.196	56.72
693.382	56.89
693.568	57.51
693.754	56.62
693.94	56.23
694.125	57.22
694.311	58.05
694.497	57.56
694.682	58.49
694.868	57.77
695.054	57.15
695.239	56.93
695.425	56.66
695.611	55.8
695.796	55.4
695.982	54.56
696.168	53.22
696.353	51.84
696.539	51.6
696.724	50.63
696.91	51.44
697.095	51.7
697.281	51.54
697.466	50.27
697.652	49.66
697.837	49.09
698.023	48.48
698.208	48.65
698.393	49.08
698.579	48.87
698.764	48.55
698.949	47.18
699.135	46.98
699.32	46.61
699.505	46.58
699.691	46.75
699.876	47.04
700.061	48.53
700.246	49.49
700.432	48.41
700.617	49.19
700.802	50.13
700.987	52.81
701.172	53.58
701.358	54.66
701.543	56.2
701.728	56.89
701.913	58.32
702.098	58.94
702.283	60.18
702.468	62.42
702.653	63.07
702.838	64.71
703.023	63.71
703.208	63.13
703.393	63.25
703.578	64.38
703.763	65.19
703.948	66.07
704.133	66.23
704.318	65.55
704.503	65.54
704.688	65.29
704.873	62.36
705.057	63.69
705.242	63.87
705.427	63.71
705.612	63.73
705.797	63.07
705.981	62.75
706.166	62.67
706.351	62.6
706.536	62.28
706.72	61.75
706.905	63.35
707.09	62.46
707.274	63.21
707.459	63.55
707.644	63.1
707.828	63.98
708.013	61.93
708.197	61.06
708.382	61.12
708.567	60.17
708.751	59.17
708.936	58.58
709.12	59.18
709.305	58.81
709.489	59.95
709.673	59.52
709.858	59.43
710.042	60.35
710.227	60.19
710.411	59.96
710.596	60.48
710.78	61.78
710.964	62.88
711.149	63.21
711.333	62.87
711.517	61.91
711.702	62.67
711.886	62.14
712.07	62.39
712.254	62.56
712.438	61.91
712.623	62.67
712.807	62.15
712.991	61.49
713.175	61.21
713.359	63.12
713.544	63.01
713.728	61.55
713.912	61.9
714.096	62.7
714.28	63.59
714.464	64.11
714.648	63.25
714.832	63.18
715.016	62.22
715.2	61.4
715.384	60.61
715.568	61.15
715.752	62.01
715.936	62.04
716.12	62.48
716.304	63.17
716.488	62.44
716.671	63.99
716.855	65.42
717.039	67.47
717.223	67.7
717.407	67.71
717.59	66.82
717.774	66.72
717.958	67.56
718.142	67.89
718.325	67.91
718.509	68.84
718.693	67.88
718.877	66.01
719.06	65.1
719.244	65.39
719.428	65.47
719.611	66.9
719.795	66.93
719.978	67.8
720.162	66.55
720.345	66.7
720.529	68.48
720.713	70.86
720.896	72.68
721.08	72.86
721.263	73.85
721.446	73.19
721.63	73.09
721.813	74.39
721.997	73.25
722.18	72.95
722.364	73.61
722.547	74.09
722.73	73.79
722.914	74.32
723.097	74.74
723.28	75.03
723.464	75.81
723.647	75.54
723.83	76.49
724.013	77.02
724.197	78.89
724.38	77.27
724.563	75.93
724.746	75.08
724.929	76.35
725.112	78.05
725.296	77.86
725.479	78.06
725.662	77.7
725.845	77.28
726.028	75.83
726.211	74.22
726.394	75.59
726.577	75.37
726.76	73.59
726.943	72.59
727.126	71.1
727.309	71.17
727.492	70.08
727.675	69.7
727.858	67.71
728.041	67.62
728.224	68.49
728.407	66.16
728.589	66.84
728.772	66.18
728.955	64.5
729.138	62.99
729.321	61.52
729.503	62.95
729.686	64.88
729.869	65.81
730.052	65.85
730.234	65.93
730.417	67.25
730.6	66.02
730.782	68.66
730.965	69.78
731.148	72.58
731.33	73.18
731.513	72.91
731.695	69.6
731.878	70.25
732.061	71.4
732.243	71.53
732.426	71.76
732.608	72.59
732.791	72.13
732.973	72.15
733.156	70.7
733.338	71.34
733.52	72.06
733.703	73.45
733.885	75.53
734.068	74.78
734.25	76.09
734.432	75.92
734.615	76.3
734.797	78.07
734.979	76.94
735.162	75.55
735.344	76.59
735.526	75.53
735.708	76.97
735.891	75.16
736.073	76.8
736.255	76.57
736.437	76.84
736.619	77.44
736.802	74.91
736.984	78.47
737.166	82.27
737.348	81.72
737.53	82.63
737.712	82.05
737.894	81.09
738.076	81.25
738.258	79.47
738.44	78.45
738.622	78.07
738.804	78.54
738.986	77.1
739.168	75.06
739.35	74.56
739.532	75.5
739.714	77.86
739.896	77.82
740.078	78.48
740.259	81.01
740.441	82.83
740.623	83.27
740.805	84.3
740.987	82.39
741.168	84.47
741.35	84.25
741.532	84.84
741.714	82.66
741.895	84.03
742.077	84.88
742.259	86.16
742.44	87
742.622	86.17
742.804	87.88
742.985	89.86
743.167	88.08
743.348	92.15
743.53	91.47
743.711	91.89
743.893	96.73
744.075	94.16
744.256	91.69
744.438	94.28
744.619	95.71
744.8	93.59
744.982	96.53
745.163	99.77
745.345	95.02
745.526	94.87
745.707	96
745.889	91.29
746.07	93.1
746.252	91.3
746.433	88.41
746.614	88.94
746.795	89.68
746.977	88.9
747.158	85.92
747.339	88.88
747.52	88.69
747.702	88.51
747.883	89.1
748.064	91.04
748.245	92.44
748.426	92.99
748.607	92.19
748.788	92.14
748.97	92.16
749.151	93.24
749.332	91.76
749.513	91.34
749.694	91.04
749.875	92.42
750.056	90.06
750.237	92.38
750.418	95.81
750.599	97.9
750.78	98.33
750.96	97.07
751.141	98.01
751.322	98.68
751.503	99.52
751.684	101.14
751.865	98.75
752.046	100.91
752.226	99.82
752.407	96.58
752.588	96.66
752.769	97.18
752.949	95.61
753.13	96.68
753.311	97.92
753.492	98.15
753.672	98.54
753.853	99.66
754.034	100.1
754.214	102.56
754.395	102.3
754.575	104.48
754.756	104.95
754.937	108.16
755.117	104.79
755.298	102.91
755.478	103.55
755.659	100.22
755.839	102.32
756.02	99.78
756.2	98.16
756.381	96.11
756.561	94.01
756.741	93.96
756.922	94.24
757.102	97.3
757.283	97.33
757.463	98.01
757.643	98.95
757.823	95.95
758.004	97.1
758.184	96.57
758.364	100.21
758.545	99.53
758.725	98.62
758.905	95.89
759.085	95.15
759.265	96.39
759.446	95.99
759.626	97.84
759.806	99.25
759.986	98.17
760.166	97.09
760.346	94.4
760.526	93.68
760.706	93.04
760.886	94.08
761.066	93.58
761.246	90.69
761.426	86.6
761.606	83.41
761.786	82.23
761.966	82.25
762.146	79.25
762.326	78.45
762.506	76.86
762.686	74.99
762.866	73.06
763.046	71.13
763.225	72.69
763.405	72.74
763.585	72.21
763.765	70.18
763.945	69.87
764.124	70.69
764.304	71.55
764.484	72.98
764.664	75.33
764.843	76.69
765.023	79.2
765.203	77.2
765.382	81.07
765.562	82.79
765.741	85.09
765.921	87.16
766.101	90.48
766.28	90.1
766.46	92.86
766.639	91.07
766.819	92.81
766.998	94.89
767.178	97.11
767.357	95.81
767.537	96.47
767.716	99.52
767.896	98.91
768.075	99.15
768.254	100.56
768.434	99.15
768.613	101.47
768.792	102.58
768.972	103.21
769.151	106.28
769.33	106.69
769.51	110.94
769.689	109.16
769.868	114.05
770.047	116.25
770.226	115.82
770.406	118.04
770.585	121.75
770.764	119.19
770.943	113.64
771.122	115.62
771.301	116.04
771.48	115
771.66	116.98
771.839	111.76
772.018	113.27
772.197	114.69
772.376	110.8
772.555	110.79
772.734	113.66
772.913	118.49
773.092	115.68
773.271	112.48
773.449	115.97
773.628	115.23
773.807	115.63
773.986	116.26
774.165	118.17
774.344	121.03
774.523	117.2
774.701	119.59
774.88	124.06
775.059	127.05
775.238	132.4
775.417	125.48
775.595	129.17
775.774	137.19
775.953	131.61
776.131	127.86
776.31	127.01
776.489	133.56
776.667	129.89
776.846	125.45
777.025	128.08
777.203	127.94
777.382	124.7
777.56	120.59
777.739	116.12
777.917	119.26
778.096	122.07
778.274	122.63
778.453	118.04
778.631	116.67
778.81	114.11
778.988	110.53
779.166	113.6
779.345	119.73
779.523	122.66
779.702	124.43
779.88	124.62
780.058	125.76
780.237	127.95
780.415	131.92
780.593	135.16
780.771	139.8
780.95	142.82
781.128	145.18
781.306	146.94
781.484	151.57
781.662	159.24
781.841	156.66
782.019	156.34
782.197	152.78
782.375	147.76
782.553	148.8
782.731	150.38
782.909	143.17
783.087	142.39
783.265	141.48
783.443	141.84
783.621	134.39
783.799	141.33
783.977	143.74
784.155	150.49
784.333	157.99
784.511	157.73
784.689	157.37
784.867	161.59
785.045	159.6
785.223	161.51
785.4	150.84
785.578	152.54
785.756	147.9
785.934	143.07
786.112	141.74
786.289	136.11
786.467	131.34
786.645	129.28
786.823	126.99
787	127.06
787.178	125.13
787.356	126.57
787.533	127.39
787.711	126.74
787.889	128.08
788.066	125.77
788.244	125.51
788.421	128.06
788.599	125.18
788.776	127.14
788.954	123.36
789.131	121.23
789.309	124.09
789.486	120.62
789.664	123.08
789.841	121.99
790.019	122.47
790.196	131.93
790.373	133.48
790.551	143.74
790.728	143.29
790.906	144.83
791.083	148.44
791.26	148.87
791.437	147.74
791.615	153.89
791.792	159.24
791.969	157.16
792.146	145.69
792.324	144.46
792.501	142.74
792.678	144.51
792.855	142.57
793.032	140.94
793.209	143.99
793.387	146.4
793.564	140.16
793.741	136.29
793.918	135.5
794.095	139.23
794.272	144.97
794.449	137.07
794.626	137.26
794.803	138.47
794.98	139.91
795.157	131.45
795.334	135.45
795.511	133.77
795.688	139.05
795.864	137.7
796.041	137.78
796.218	136.37
796.395	138.77
796.572	138.39
796.749	143.06
796.925	144.59
797.102	152.07
797.279	152.71
797.456	152.88
797.632	150.4
797.809	157.34
797.986	161.04
798.162	162.85
798.339	166.74
798.516	170.75
798.692	169.47
798.869	162.68
799.046	158.95
799.222	154.12
799.399	158.02
799.575	161.82
799.752	160.13
799.928	153.03
800.105	153.09
800.281	156.4
800.458	152.66
800.634	152.29
800.811	168.87
800.987	181.97
801.163	190.09
801.34	194.72
801.516	192.89
801.692	211.5
801.869	215.57
802.045	229.47
802.221	219.96
802.398	223.31
802.574	226.14
802.75	208.97
802.926	199.43
803.103	193.51
803.279	189.7
803.455	189.78
803.631	178.93
803.807	176.66
803.983	166.76
804.16	173.72
804.336	170.73
804.512	173
804.688	178.23
804.864	176.25
805.04	179.89
805.216	186.12
805.392	190.38
805.568	199.6
805.744	204.06
805.92	210.08
806.096	204.3
806.272	218.66
806.448	223.12
806.623	225.56
806.799	228.66
806.975	229.76
807.151	225.6
807.327	227.48
807.503	220.4
807.678	228.54
807.854	223.36
808.03	229.79
808.206	218.27
808.381	205.37
808.557	196.63
808.733	188.65
808.908	193.12
809.084	196.96
809.26	192.21
809.435	193.18
809.611	192.07
809.787	188.21
809.962	187.95
810.138	187.1
810.313	183.67
810.489	192.15
810.664	195.66
810.84	201.73
811.015	205.58
811.191	215.82
811.366	216.56
811.542	204.57
811.717	198.95
811.892	190.75
812.068	198.2
812.243	204.07
812.419	198.58
812.594	205.64
812.769	200.11
812.944	191.37
813.12	185.26
813.295	184.48
813.47	189.07
813.645	206.46
813.821	210.1
813.996	206.14
814.171	214.87
814.346	211.22
814.521	212.73
814.697	215.86
814.872	209.83
815.047	218.47
815.222	215.4
815.397	213.5
815.572	206.39
815.747	200.18
815.922	203.65
816.097	198.88
816.272	201.21
816.447	191.78
816.622	186.28
816.797	192.67
816.972	183.06
817.147	182.86
817.322	185.01
817.496	189.81
817.671	192.42
817.846	191.15
818.021	191.93
818.196	181.92
818.371	172.25
818.545	164.29
818.72	164.37
818.895	159.61
819.069	154.78
819.244	148.58
819.419	137.15
819.594	136.35
819.768	129.39
819.943	115.94
820.117	109.16
820.292	104.42
820.467	95.4
820.641	86.25
820.816	81.96
820.99	76.31
821.165	70.24
821.339	66.71
821.514	63.03
821.688	59.77
821.863	58.28
822.037	56.41
822.212	54.7
822.386	54.19
822.56	52.71
822.735	53.23
822.909	52.96
823.084	52.81
823.258	52.29
823.432	53.61
823.606	54.67
823.781	56.47
823.955	58.73
824.129	62.36
824.303	67
824.478	71.54
824.652	71.27
824.826	75.27
825	80.13
825.174	85.61
825.348	85.52
825.523	87.64
825.697	88.67
825.871	90.67
826.045	87.42
826.219	85.55
826.393	86.84
826.567	87
826.741	87.57
826.915	85.77
827.089	87.45
827.263	86.87
827.437	87.23
827.611	88.89
827.784	90
827.958	93.77
828.132	97.11
828.306	97.44
828.48	102.53
828.654	103.4
828.827	107.53
829.001	107.35
829.175	113.95
829.349	119.94
829.522	127.35
829.696	133.7
829.87	139
830.044	144.7
830.217	151.59
830.391	153.62
830.565	156.75
830.738	154.33
830.912	156.21
831.085	161.07
831.259	168.47
831.432	160.14
831.606	154.16
831.779	152.3
831.953	147.06
832.126	138.71
832.3	130.98
832.473	125.34
832.647	125.27
832.82	124.77
832.994	119.28
833.167	117.91
833.34	115.61
833.514	110.88
833.687	110.01
833.86	111.26
834.034	111.61
834.207	112.97
834.38	116.35
834.553	116.53
834.727	113.63
834.9	119.33
835.073	122.86
835.246	130.36
835.419	140.65
835.593	143.55
835.766	142.51
835.939	146.69
836.112	153.94
836.285	163.48
836.458	182.86
836.631	199.74
836.804	198.28
836.977	192.98
837.15	192.93
837.323	197.67
837.496	201.93
837.669	201.07
837.842	205.04
838.015	228.39
838.188	224.58
838.361	223.69
838.533	214.66
838.706	225.61
838.879	232.1
839.052	231.67
839.225	234.03
839.398	236.63
839.57	238.37
839.743	242.46
839.916	225.53
840.088	232.07
840.261	237.27
840.434	230.28
840.607	234.81
840.779	233.74
840.952	236.34
841.124	259.28
841.297	288.87
841.47	309.99
841.642	313.97
841.815	325.38
841.987	336.27
842.16	314.14
842.332	393.97
842.505	407.3
842.677	383.16
842.85	343.69
843.022	328.93
843.194	318.83
843.367	381
843.539	373.67
843.712	369.91
843.884	366.79
844.056	401.41
844.229	369.4
844.401	348.68
844.573	393.37
844.745	527.41
844.918	542.86
845.09	490.79
845.262	454.89
845.434	481.84
845.606	514.24
845.779	661.44
845.951	652.06
846.123	859.12
846.295	807.5
846.467	646.32
846.639	657.72
846.811	641
846.983	647.69
847.155	564.31
847.327	620.17
847.499	664.29
847.671	634.32
847.843	605.47
848.015	498.81
848.187	625.86
848.359	643.12
848.531	555.83
848.703	474.15
848.875	565.98
849.047	511.61
849.218	511.49
849.39	480.41
849.562	394.84
849.734	415.61
849.905	494.35
850.077	454.07
850.249	489.15
850.421	508.42
850.592	507.88
850.764	504.41
850.936	547.21
851.107	549.05
851.279	535.54
851.451	714.86
851.622	632.05
851.794	564.96
851.965	595.17
852.137	561.45
852.308	523.58
852.48	609.63
852.651	490.57
852.823	504.31
852.994	508.46
853.166	503.96
853.337	489.09
853.509	552.91
853.68	625.75
853.851	518.01
854.023	480
854.194	440.48
854.365	419.73
854.537	467.86
854.708	449.43
854.879	475.33
855.05	493.37
855.222	400.08
855.393	378.5
855.564	345.45
855.735	365.2
855.906	427.04
856.078	589.42
856.249	585.61
856.42	561.7
856.591	569.8
856.762	573.1
856.933	512.36
857.104	634.55
857.275	629.54
857.446	681.9
857.617	627.55
857.788	574.05
857.959	437.05
858.13	455.21
858.301	451.21
858.472	438.46
858.643	398.6
858.814	440.56
858.985	471.99
859.155	574.23
859.326	643.09
859.497	1095
859.668	2057.99
859.839	2314.36
860.009	2390.81
860.18	12305.56
860.351	-13846.88
860.522	12822.86
860.692	-23157.89
860.863	7046.77
861.034	2624.85
861.204	1759.6
861.375	838.33
861.546	606.47
861.716	629.23
861.887	562.86
862.057	531.67
862.228	522.88
862.398	596.54
862.569	500.24
862.739	522.66
862.91	507.04
863.08	482.1
863.251	564.3
863.421	659.66
863.592	873.5
863.762	1828.43
863.932	1242.09
864.103	1069.01
864.273	988.86
864.443	1166.58
864.614	1472.38
864.784	812.87
864.954	692.96
865.125	561.02
865.295	557.53
865.465	439.53
865.635	408.7
865.805	396.62
865.976	430.3
866.146	433.82
866.316	454.55
866.486	391.45
866.656	484.16
866.826	511.81
866.996	524.68
867.166	446.34
867.336	504.73
867.506	424.35
867.676	439.06
867.846	447.63
868.016	452.77
868.186	415.7
868.356	428.13
868.526	390.33
868.696	436.53
868.866	436.73
869.036	538.43
869.206	509.31
869.376	586.31
869.545	501.95
869.715	517.53
869.885	467.21
870.055	448.29
870.224	462.4
870.394	508.57
870.564	451.36
870.734	509.36
870.903	496.23
871.073	508.44
871.243	445.08
871.412	539.16
871.582	491.09
871.751	540.88
871.921	670.11
872.091	671.08
872.26	634.69
872.43	680.13
872.599	589.15
872.769	524.16
872.938	615.63
873.108	757.02
873.277	738.7
873.446	674.67
873.616	652.85
873.785	600.88
873.955	637.76
874.124	478.54
874.293	473.18
874.463	496.25
874.632	423.47
874.801	398.43
874.971	479
875.14	472.29
875.309	458.49
875.478	471.35
875.647	455.23
875.817	402.01
875.986	520.19
876.155	478.36
876.324	529.43
876.493	688.18
876.662	523.53
876.831	396.32
877	416.15
877.17	469.5
877.339	510.5
877.508	563.34
877.677	578.93
877.846	495.89
878.015	572.19
878.184	577.53
878.352	501.87
878.521	526.21
878.69	574.97
878.859	519.25
879.028	448.79
879.197	420.06
879.366	463.29
879.534	441.44
879.703	396.29
879.872	348.06
880.041	284.23
880.21	270.73
880.378	258.92
880.547	233.89
880.716	197.67
880.884	191.14
881.053	175.85
881.222	154.53
881.39	145.97
881.559	140.08
881.727	133.84
881.896	128.39
882.065	122.06
882.233	120.19
882.402	115.47
882.57	116.99
882.739	113.2
882.907	114.47
883.076	111.21
883.244	111.44
883.412	115.66
883.581	120.13
883.749	125.72
883.918	133.56
884.086	143.03
884.254	155.62
884.423	163.92
884.591	176.44
884.759	181.03
884.927	197.05
885.096	206.08
885.264	223.8
885.432	238.95
885.6	257.31
885.769	292.36
885.937	304.9
886.105	321.53
886.273	330.91
886.441	359.39
886.609	402
886.777	422.91
886.945	458.37
887.113	521.71
887.281	611.23
887.449	581.02
887.617	510.99
887.785	505.07
887.953	536.71
888.121	696.72
888.289	646.75
888.457	580.6
888.625	586.11
888.793	718.77
888.961	631.71
889.129	624.36
889.296	573.6
889.464	580.08
889.632	632.63
889.8	591.33
889.967	524.1
890.135	513.5
