Data from JASIL_3018_Reflection_02.txt Node
Date: Mon Nov 09 10:42:19 EST 2015
User: Geneva
Spectrometer: USB4E03002
Autoset integration time: false
Trigger mode: 4
Integration Time (sec): 1.000000E-1
Scans to average: 10
Electric dark correction enabled: false
Nonlinearity correction enabled: false
Boxcar width: 5
Stray light correction enabled: false
XAxis mode: Wavelengths
Stop averaging: false
Number of Pixels in Spectrum: 3648
>>>>>Begin Spectral Data<<<<<
177.575	68.14
177.794	39.93
178.014	86.49
178.233	107.22
178.452	109.66
178.672	277.19
178.891	643.48
179.11	-304.88
179.33	-72.73
179.549	53.85
179.768	70.28
179.987	113.89
180.207	368.33
180.426	40.3
180.645	58.82
180.864	70.26
181.084	84.45
181.303	75.69
181.522	75.14
181.741	140.78
181.96	195.32
182.179	178.81
182.398	179.94
182.618	138.4
182.837	182.04
183.056	264.21
183.275	-124.44
183.494	282.22
183.713	425
183.932	226.6
184.151	715.15
184.37	139.27
184.589	750
184.808	-2.53
185.027	-55.91
185.246	-44.88
185.465	-30.64
185.684	-121.97
185.903	-34.06
186.122	-66.67
186.341	-53.74
186.56	-50.85
186.779	-226.53
186.998	194.51
187.216	90.8
187.435	36.46
187.654	41.87
187.873	21.61
188.092	43.79
188.311	8.02
188.53	-24.87
188.748	-39.09
188.967	-155.1
189.186	370.97
189.405	267.42
189.623	184.11
189.842	165.08
190.061	-3100
190.28	-29.79
190.498	-113.33
190.717	12.38
190.936	67.24
191.154	159.18
191.373	214.07
191.592	392.31
191.81	256.33
192.029	214.29
192.248	183.55
192.466	277.88
192.685	296.55
192.904	2365.22
193.122	-727.54
193.341	12200
193.559	-3791.67
193.778	-450
193.996	-496.43
194.215	-440.43
194.433	-336.7
194.652	-160.13
194.87	-25.86
195.089	-1.22
195.307	-76.67
195.526	-29.63
195.744	27.8
195.963	5.15
196.181	-259.57
196.399	-53.61
196.618	-92.7
196.836	-54.79
197.055	-38.79
197.273	-60.68
197.491	-44
197.71	-50.19
197.928	-29.57
198.146	-56.33
198.365	-98.59
198.583	-3300
198.801	110.18
199.019	126.64
199.238	82.9
199.456	109.8
199.674	87.93
199.892	113.89
200.111	173
200.329	94.64
200.547	1116.67
200.765	-338.96
200.983	290.07
201.202	227.38
201.42	226.79
201.638	166.3
201.856	394.81
202.074	282.83
202.292	701.59
202.51	798.61
202.728	10925
202.946	-181.06
203.165	1131.58
203.383	-151.92
203.601	-59.09
203.819	-6.98
204.037	60
204.255	82
204.473	248.12
204.691	185.29
204.909	-9.52
205.127	-78.79
205.345	13.73
205.562	118.52
205.78	240
205.998	230.43
206.216	150
206.434	89.89
206.652	85.71
206.87	150.85
207.088	35.76
207.306	-8.28
207.523	-45.45
207.741	-193.41
207.959	-44.14
208.177	-46.03
208.395	-80.18
208.612	-106.21
208.83	-110.7
209.048	-108.05
209.266	-296.32
209.483	-588.52
209.701	1200
209.919	-22050
210.136	-780
210.354	-3875
210.572	970.21
210.79	1191.67
211.007	-166.42
211.225	-40.35
211.442	-757.89
211.66	363.11
211.878	615.79
212.095	-733.96
212.313	-14033.33
212.53	-469.67
212.748	-271.09
212.966	-1668.29
213.183	-37000
213.401	-281.42
213.618	-189
213.836	-269.32
214.053	-320.19
214.271	-572.48
214.488	33.07
214.705	17.81
214.923	49.74
215.14	101.57
215.358	122.91
215.575	150
215.793	465.15
216.01	1287.5
216.227	348.15
216.445	-21.33
216.662	-110.2
216.879	-6.04
217.097	-4.23
217.314	-77.42
217.531	-65.52
217.749	40.47
217.966	6.92
218.183	34.19
218.4	48.22
218.618	86.46
218.835	53.41
219.052	61.48
219.269	83.77
219.487	106.88
219.704	99.45
219.921	114.83
220.138	195.68
220.355	177.16
220.572	9166.67
220.79	-180.56
221.007	-93.38
221.224	-96.88
221.441	-9.4
221.658	26.07
221.875	12.69
222.092	54.9
222.309	57.26
222.526	57.65
222.743	61.46
222.96	46.32
223.177	44.81
223.394	38.84
223.611	50.34
223.828	51.48
224.045	48.86
224.262	56.89
224.479	58.11
224.696	53.64
224.913	38.71
225.13	27.06
225.347	32.96
225.564	27.66
225.781	23.15
225.997	31.98
226.214	27.6
226.431	35.13
226.648	32.46
226.865	32.44
227.082	31.6
227.298	33.82
227.515	27.3
227.732	23.46
227.949	19.35
228.165	24.34
228.382	19.01
228.599	20.21
228.816	16.78
229.032	7.72
229.249	-6.31
229.466	-1.95
229.682	-4.74
229.899	7.82
230.116	4.02
230.332	16.71
230.549	3.77
230.765	5.89
230.982	15.2
231.199	28.19
231.415	35.11
231.632	49.27
231.848	37.44
232.065	40.97
232.281	26.7
232.498	37.49
232.714	36.95
232.931	43.68
233.147	45.03
233.364	39.3
233.58	23.61
233.797	20.28
234.013	20.47
234.23	20.01
234.446	6.8
234.662	22.03
234.879	18.03
235.095	12.02
235.312	8.21
235.528	-0.72
235.744	-2.82
235.961	3.39
236.177	3.73
236.393	10.59
236.61	6.11
236.826	15.28
237.042	15.12
237.258	24.1
237.475	30.36
237.691	28.27
237.907	36.87
238.123	42.87
238.339	46.05
238.556	43.73
238.772	40.36
238.988	38.38
239.204	39.03
239.42	31.28
239.636	28.38
239.853	23.7
240.069	23.11
240.285	16.05
240.501	15.02
240.717	9.91
240.933	8.65
241.149	8.63
241.365	8.28
241.581	4.61
241.797	6.52
242.013	6.51
242.229	5.88
242.445	5.46
242.661	8.91
242.877	6.73
243.093	7.94
243.309	8.25
243.525	0.84
243.741	15.26
243.957	16.63
244.173	16.76
244.388	17.41
244.604	17.46
244.82	15.24
245.036	12.87
245.252	14.34
245.468	12.73
245.683	11.78
245.899	14.04
246.115	9.69
246.331	9.51
246.547	9.49
246.762	7.06
246.978	5.75
247.194	6.81
247.409	7.58
247.625	4.52
247.841	3.42
248.057	7.82
248.272	4.16
248.488	1.89
248.703	4.92
248.919	6.38
249.135	6.45
249.35	5.34
249.566	1.43
249.782	-0.75
249.997	-1.53
250.213	2.9
250.428	-1.34
250.644	0.75
250.859	1.36
251.075	-1.12
251.29	-2.09
251.506	0.99
251.721	2.51
251.937	4.67
252.152	7.86
252.368	12.63
252.583	13.55
252.798	17.38
253.014	20.42
253.229	26.86
253.445	23.01
253.66	18.27
253.875	17.85
254.091	16.53
254.306	14.01
254.521	11.96
254.737	6.3
254.952	7.17
255.167	2.62
255.383	1.1
255.598	-4.89
255.813	0.61
256.028	-1.77
256.244	1.06
256.459	3.7
256.674	5.59
256.889	3.36
257.104	6.61
257.32	5.09
257.535	3.13
257.75	2
257.965	3.96
258.18	5.71
258.395	8.07
258.61	7.39
258.826	6.27
259.041	5.4
259.256	5.4
259.471	6.22
259.686	6.68
259.901	9.3
260.116	8.79
260.331	11.1
260.546	9.01
260.761	8.56
260.976	10.76
261.191	10.55
261.406	11.69
261.621	13.83
261.836	9.87
262.05	10.94
262.265	7.46
262.48	10.9
262.695	11.01
262.91	14.17
263.125	13.38
263.34	9.15
263.555	12.36
263.769	11.43
263.984	13.85
264.199	18.11
264.414	11.18
264.629	8.76
264.843	5.62
265.058	-0.16
265.273	-1.69
265.488	1.25
265.702	0.83
265.917	2.26
266.132	5.1
266.346	3.46
266.561	5.49
266.776	9.36
266.99	8.63
267.205	10.91
267.42	12.38
267.634	13.02
267.849	11.14
268.063	11.35
268.278	8.13
268.492	7.44
268.707	6.42
268.922	1.64
269.136	4.17
269.351	5.1
269.565	3.67
269.78	3.22
269.994	3.49
270.209	2.12
270.423	2.55
270.637	3.88
270.852	5.34
271.066	6.07
271.281	6.57
271.495	5.98
271.709	6.6
271.924	7.44
272.138	7.33
272.353	4.23
272.567	5.46
272.781	4.49
272.996	4.7
273.21	3.02
273.424	3.27
273.638	2.85
273.853	1.64
274.067	1.79
274.281	3.92
274.495	5.08
274.71	6.84
274.924	9.41
275.138	11.07
275.352	11.9
275.566	9.45
275.781	10.39
275.995	11.82
276.209	10.46
276.423	9.12
276.637	7.04
276.851	8.86
277.065	10.39
277.279	6.92
277.493	6.95
277.707	4.08
277.921	7.05
278.135	4.51
278.349	7.63
278.563	5.93
278.777	7.45
278.991	9.08
279.205	8.28
279.419	7.81
279.633	9.57
279.847	11.24
280.061	10.94
280.275	10.83
280.489	11.81
280.703	7.47
280.917	8.23
281.131	9.55
281.344	6.96
281.558	8.17
281.772	7.53
281.986	6.59
282.2	2.94
282.414	3.63
282.627	2.09
282.841	0.87
283.055	1.34
283.269	1.37
283.482	-0.57
283.696	1.33
283.91	0.21
284.123	-0.34
284.337	-0.5
284.551	-0.36
284.764	0.68
284.978	1.99
285.192	3.95
285.405	4.49
285.619	5.53
285.833	6.19
286.046	4.97
286.26	5.37
286.473	5
286.687	5.29
286.9	6.61
287.114	4.71
287.327	3.6
287.541	4.25
287.754	5.19
287.968	6.48
288.181	7.69
288.395	8.5
288.608	8.25
288.822	9.89
289.035	9.84
289.248	9.39
289.462	10.93
289.675	11.9
289.889	9.65
290.102	8.32
290.315	6.51
290.529	6.99
290.742	8.02
290.955	7.08
291.169	5.71
291.382	4.65
291.595	5
291.808	7.3
292.022	5.53
292.235	5.86
292.448	5.33
292.661	5.96
292.875	4.95
293.088	1.83
293.301	3.88
293.514	4.4
293.727	5.61
293.94	4.56
294.153	2.84
294.367	5.57
294.58	2.24
294.793	5.36
295.006	6.12
295.219	4.87
295.432	6.43
295.645	5.36
295.858	6.71
296.071	7.21
296.284	7.08
296.497	7.63
296.71	4.81
296.923	7.7
297.136	4.54
297.349	3.53
297.562	4.59
297.775	3.28
297.988	5.37
298.201	2.84
298.414	0.36
298.626	2.47
298.839	2.03
299.052	4.65
299.265	4.98
299.478	6.24
299.691	6.77
299.903	7.76
300.116	7.93
300.329	5.95
300.542	9.74
300.755	10.66
300.967	11.88
301.18	11.15
301.393	11.02
301.605	9.62
301.818	10.45
302.031	9.39
302.243	10.25
302.456	11.67
302.669	10.34
302.881	8.42
303.094	7.12
303.307	7.02
303.519	6.84
303.732	4.83
303.944	5.21
304.157	6.37
304.37	8.27
304.582	5
304.795	3.81
305.007	5.14
305.22	3.76
305.432	5.1
305.645	4.7
305.857	2.51
306.069	1.36
306.282	1.66
306.494	1.3
306.707	-1.48
306.919	-1.39
307.132	-1.2
307.344	-2.03
307.556	-1.03
307.769	-1.21
307.981	0.21
308.193	2.35
308.406	3.37
308.618	2.28
308.83	1.13
309.043	2.72
309.255	5.83
309.467	4.36
309.679	4.9
309.892	5.15
310.104	7.4
310.316	6.28
310.528	5.8
310.74	6.82
310.953	8.61
311.165	7.77
311.377	8.6
311.589	5.39
311.801	9.14
312.013	10.75
312.225	9.65
312.437	7.49
312.649	4.23
312.862	3.77
313.074	0.86
313.286	2.56
313.498	4.26
313.71	3.62
313.922	6.59
314.134	4.72
314.346	3.92
314.558	3.63
314.77	5.26
314.982	8.51
315.193	11.38
315.405	14.68
315.617	12.92
315.829	17.26
316.041	16.17
316.253	15.97
316.465	14.62
316.677	15.65
316.888	15.54
317.1	16.56
317.312	18.57
317.524	16.69
317.736	16.02
317.947	14.23
318.159	10.91
318.371	12.93
318.583	10.87
318.794	13.36
319.006	9.78
319.218	10.12
319.43	9.3
319.641	6.73
319.853	6.64
320.064	6.52
320.276	8.09
320.488	8.8
320.699	8.4
320.911	10.73
321.123	12.3
321.334	13.92
321.546	16.43
321.757	14.83
321.969	16.38
322.18	17.18
322.392	15.15
322.603	14.98
322.815	11.83
323.026	9.95
323.238	10.77
323.449	7.79
323.661	8.81
323.872	6.91
324.083	5.48
324.295	3.95
324.506	3.79
324.718	5.93
324.929	3.74
325.14	5.1
325.352	4.55
325.563	2.46
325.774	2.08
325.986	2.19
326.197	1.28
326.408	3.05
326.62	4.81
326.831	5.8
327.042	8.06
327.253	10.69
327.464	11.13
327.676	12.85
327.887	14.73
328.098	17.51
328.309	16.84
328.52	19.69
328.732	20.62
328.943	18.12
329.154	18.33
329.365	14.01
329.576	12.46
329.787	10.14
329.998	9.6
330.209	8.44
330.42	7.97
330.631	8.1
330.842	5.45
331.053	6.48
331.264	8.74
331.475	6.04
331.686	7.93
331.897	9.51
332.108	9.04
332.319	10.94
332.53	11.27
332.741	10.63
332.952	11.21
333.163	13.1
333.374	12.38
333.585	13.13
333.795	14.51
334.006	13.41
334.217	13.96
334.428	16.01
334.639	12.41
334.849	11.84
335.06	8.7
335.271	10.47
335.482	9.33
335.692	6.87
335.903	5.86
336.114	6.25
336.325	6.8
336.535	6.04
336.746	4.56
336.957	5.83
337.167	5.87
337.378	8.97
337.589	6.55
337.799	7.06
338.01	9.14
338.22	9.57
338.431	6.73
338.642	6.47
338.852	5.95
339.063	8.06
339.273	8
339.484	7.8
339.694	6.53
339.905	6.85
340.115	5.41
340.326	5.61
340.536	3.71
340.746	5
340.957	4.89
341.167	5.42
341.378	3.88
341.588	6.25
341.799	5.59
342.009	5.94
342.219	5.88
342.43	7.6
342.64	8.06
342.85	9.72
343.061	11.92
343.271	11.48
343.481	11.72
343.691	10.45
343.902	8.25
344.112	9.5
344.322	8.49
344.532	9.61
344.743	8.14
344.953	7.75
345.163	7.74
345.373	8.27
345.583	8.54
345.793	9.21
346.004	10.94
346.214	12.66
346.424	12.14
346.634	13.67
346.844	14.03
347.054	15.64
347.264	14.14
347.474	12.38
347.684	11.35
347.894	10.21
348.104	9.11
348.314	7.96
348.524	6.83
348.734	9.1
348.944	7.71
349.154	6.55
349.364	7
349.574	8.46
349.784	7.79
349.994	6.37
350.204	8.74
350.413	9
350.623	9.97
350.833	7.47
351.043	3.96
351.253	4.34
351.463	2.66
351.672	1
351.882	1.33
352.092	4.01
352.302	4.09
352.511	3.51
352.721	2.09
352.931	2.97
353.141	5.09
353.35	6.13
353.56	7.34
353.77	8.39
353.979	7.84
354.189	8.19
354.399	8.61
354.608	9.72
354.818	8.65
355.027	7.12
355.237	5.92
355.447	6.82
355.656	4.52
355.866	2.92
356.075	2
356.285	2.78
356.494	3.91
356.704	2.72
356.913	1.62
357.123	1.99
357.332	4.32
357.542	5.16
357.751	3.55
357.96	4.73
358.17	5.54
358.379	5.6
358.589	5.8
358.798	3.51
359.007	4.57
359.217	4.81
359.426	7.03
359.635	7.02
359.845	6.94
360.054	7.1
360.263	8.24
360.472	8.68
360.682	9.84
360.891	10.33
361.1	11.4
361.309	10.64
361.519	9.51
361.728	7.09
361.937	7.5
362.146	7.96
362.355	10.65
362.564	10.41
362.774	10.62
362.983	10.38
363.192	10.2
363.401	9.36
363.61	9.81
363.819	10.21
364.028	10.39
364.237	9.65
364.446	10.13
364.655	7.31
364.864	7.9
365.073	7.25
365.282	6.46
365.491	8.37
365.7	11.49
365.909	11.31
366.118	12.17
366.327	13.16
366.536	14.75
366.745	13.74
366.954	14.57
367.162	13.7
367.371	14.33
367.58	15.21
367.789	12.66
367.998	10.19
368.207	10.9
368.415	10.17
368.624	8.59
368.833	7.59
369.042	7.64
369.25	6.43
369.459	6.42
369.668	4.88
369.877	3.72
370.085	3.97
370.294	4.3
370.503	3.65
370.711	3.68
370.92	3.31
371.129	1.42
371.337	1.65
371.546	3.42
371.754	3.8
371.963	5.11
372.171	5.59
372.38	5.34
372.589	3.26
372.797	2.19
373.006	2.91
373.214	5.1
373.423	6.03
373.631	5.82
373.84	5.38
374.048	5.77
374.256	4.57
374.465	5.95
374.673	5.72
374.882	7.2
375.09	8.11
375.298	7.23
375.507	7.64
375.715	7.82
375.923	8.18
376.132	8.43
376.34	7.7
376.548	7.55
376.757	6.96
376.965	8.38
377.173	7.61
377.381	8.41
377.59	10.37
377.798	9.2
378.006	9.52
378.214	9.26
378.423	9.35
378.631	10.24
378.839	10.69
379.047	10.16
379.255	10.06
379.463	9.14
379.671	8.38
379.879	7.45
380.088	7.63
380.296	7.89
380.504	7.35
380.712	6.74
380.92	6.35
381.128	6.18
381.336	5.9
381.544	5.13
381.752	5.57
381.96	5.97
382.168	6.02
382.376	7.46
382.584	6.59
382.791	6.98
382.999	6.76
383.207	6.23
383.415	6.26
383.623	5.84
383.831	4.97
384.039	6.73
384.247	7
384.454	6.81
384.662	5.38
384.87	5.72
385.078	5.34
385.285	4.95
385.493	4.71
385.701	6.28
385.909	7.72
386.116	7.52
386.324	6.59
386.532	5.31
386.739	5.77
386.947	6.53
387.155	6.04
387.362	5.04
387.57	3.97
387.778	4.17
387.985	2.06
388.193	-0.02
388.4	1.51
388.608	0.98
388.816	1.24
389.023	1.63
389.231	1.36
389.438	1.47
389.646	1.9
389.853	3.09
390.061	2.27
390.268	4.29
390.475	5.48
390.683	5.78
390.89	5.2
391.098	4.92
391.305	4.41
391.512	4.23
391.72	4.02
391.927	4.58
392.135	5.27
392.342	6.01
392.549	4.01
392.756	4.16
392.964	4.54
393.171	5.23
393.378	6.61
393.586	5.68
393.793	5.1
394	6.15
394.207	6.68
394.414	6.75
394.622	6.52
394.829	6.68
395.036	7.2
395.243	6.96
395.45	6.79
395.657	5.32
395.864	6.37
396.072	6.95
396.279	6.71
396.486	6.5
396.693	6.41
396.9	6.31
397.107	6.91
397.314	5.69
397.521	3.7
397.728	4.01
397.935	3.55
398.142	3.88
398.349	2.49
398.556	1.91
398.763	1.1
398.97	-0.53
399.177	-0.28
399.383	1.03
399.59	0.79
399.797	1.21
400.004	1.32
400.211	2.73
400.418	1.52
400.625	2.96
400.831	2.31
401.038	2.68
401.245	4.46
401.452	4.16
401.658	3.23
401.865	4.49
402.072	5.44
402.279	6.37
402.485	5.85
402.692	6.99
402.899	6.79
403.105	7.61
403.312	8.02
403.519	7.26
403.725	7.73
403.932	7.38
404.138	7.4
404.345	6.67
404.552	5.21
404.758	5.55
404.965	4.31
405.171	4.2
405.378	3.98
405.584	4.06
405.791	3.96
405.997	3.93
406.204	4.81
406.41	5.21
406.617	6.27
406.823	6.79
407.029	7.2
407.236	7.63
407.442	7.54
407.649	7.7
407.855	7.22
408.061	6.76
408.268	6.37
408.474	4.85
408.68	4.24
408.887	3.19
409.093	3.74
409.299	3
409.505	3.47
409.712	3.16
409.918	3.5
410.124	4.49
410.33	3.48
410.537	3.67
410.743	4.48
410.949	3.64
411.155	4.36
411.361	5.17
411.567	4.41
411.773	5.11
411.98	5.68
412.186	4.79
412.392	3.73
412.598	5.22
412.804	4.83
413.01	4.66
413.216	5.03
413.422	5.84
413.628	4.58
413.834	4.99
414.04	3.93
414.246	3.82
414.452	4.05
414.658	4.47
414.864	4.62
415.07	4.41
415.275	4.92
415.481	5.16
415.687	3.98
415.893	3.7
416.099	4.03
416.305	4.25
416.511	4.05
416.716	3.93
416.922	3.55
417.128	2.75
417.334	3.28
417.539	2.24
417.745	2.18
417.951	2.81
418.157	3.3
418.362	3.24
418.568	2.67
418.774	2.5
418.979	2.03
419.185	2.52
419.391	2.62
419.596	2.74
419.802	3.15
420.008	2.66
420.213	-2.05
420.419	-2.38
420.624	-2.68
420.83	-2.29
421.035	-2.08
421.241	-1.66
421.446	-2.12
421.652	-1.83
421.857	-2.65
422.063	-2.44
422.268	-2
422.474	2.1
422.679	1.78
422.885	1.94
423.09	1.76
423.295	1.9
423.501	1.87
423.706	1.94
423.911	2.22
424.117	2.55
424.322	1.6
424.527	1.91
424.733	2.41
424.938	2.81
425.143	3.1
425.349	3.32
425.554	3.25
425.759	3.91
425.964	4.04
426.169	4.05
426.375	4.42
426.58	6.35
426.785	5.89
426.99	5.79
427.195	5.93
427.4	5.64
427.605	6.45
427.811	6.34
428.016	5.13
428.221	4.82
428.426	4.02
428.631	3.62
428.836	3.15
429.041	2.85
429.246	2.99
429.451	3.02
429.656	2.74
429.861	2.03
430.066	2.55
430.271	3.36
430.476	3.76
430.681	4.14
430.886	4.5
431.09	3.79
431.295	4.16
431.5	4.14
431.705	3.88
431.91	3.7
432.115	4.01
432.32	2.81
432.524	2.98
432.729	2.9
432.934	2.78
433.139	2.71
433.343	2.96
433.548	3.03
433.753	2.51
433.958	2.81
434.162	2.53
434.367	2.36
434.572	2.94
434.776	2.88
434.981	2.2
435.186	2.1
435.39	2.14
435.595	2.22
435.799	1.67
436.004	2.23
436.209	2
436.413	2.94
436.618	1.95
436.822	2.04
437.027	1.67
437.231	2.17
437.436	2.24
437.64	1.98
437.845	2.26
438.049	2.52
438.253	2.07
438.458	2.25
438.662	1.71
438.867	1.8
439.071	1.85
439.275	1.87
439.48	1.79
439.684	1.8
439.888	1.89
440.093	1.67
440.297	1.34
440.501	1.58
440.706	1.49
440.91	1.87
441.114	2.26
441.318	2.77
441.523	2.29
441.727	2.28
441.931	2.84
442.135	2.89
442.339	3.18
442.543	3.59
442.748	4.08
442.952	3.52
443.156	3.12
443.36	3.35
443.564	2.77
443.768	3.27
443.972	3.4
444.176	2.72
444.38	3.62
444.584	3.66
444.788	3.87
444.992	3.35
445.196	3.36
445.4	3.31
445.604	2.99
445.808	2.74
446.012	2.7
446.216	2.22
446.42	2.38
446.624	1.17
446.828	0.44
447.032	0.15
447.235	0.18
447.439	0.26
447.643	1.1
447.847	1.04
448.051	1.75
448.254	1.38
448.458	1.48
448.662	2.01
448.866	2.66
449.069	2.6
449.273	2.17
449.477	2.21
449.681	3.15
449.884	2.96
450.088	3.33
450.292	3.25
450.495	3.91
450.699	3.96
450.902	3.42
451.106	2.78
451.31	3.65
451.513	4.19
451.717	4.06
451.92	3.65
452.124	3.21
452.327	3.1
452.531	3.59
452.734	3.56
452.938	3.79
453.141	3.63
453.345	4.02
453.548	3.23
453.752	3.49
453.955	3.63
454.158	2.68
454.362	2.69
454.565	2.59
454.769	1.77
454.972	2.13
455.175	1.58
455.379	1.5
455.582	1.9
455.785	2.77
455.988	2.34
456.192	2.61
456.395	3.38
456.598	3.6
456.801	2.68
457.005	3.39
457.208	2.58
457.411	2.67
457.614	2.67
457.817	2.22
458.021	1.87
458.224	1.91
458.427	2.04
458.63	2.29
458.833	2.1
459.036	2.89
459.239	2.59
459.442	2.63
459.645	2.69
459.848	3.13
460.051	2.97
460.254	2.44
460.457	2.13
460.66	1.85
460.863	1.88
461.066	1.57
461.269	1.46
461.472	0.35
461.675	0.41
461.878	0.75
462.081	0.5
462.284	0.19
462.486	1.17
462.689	1.77
462.892	2.71
463.095	2.59
463.298	3.38
463.5	2.99
463.703	3.71
463.906	3.7
464.109	3.93
464.311	3.48
464.514	3.87
464.717	3.46
464.92	3.02
465.122	1.96
465.325	1.64
465.528	1.87
465.73	1.75
465.933	2.48
466.135	2.7
466.338	1.86
466.541	2.42
466.743	2.29
466.946	2.54
467.148	2.47
467.351	3.16
467.553	3.16
467.756	2.47
467.958	2.73
468.161	2.58
468.363	2.8
468.566	3.03
468.768	3.36
468.971	3.39
469.173	3.21
469.375	3.48
469.578	2.88
469.78	3.05
469.983	2.95
470.185	3.06
470.387	2.67
470.59	2.21
470.792	2.83
470.994	2.79
471.196	3.19
471.399	3.83
471.601	4.07
471.803	3.9
472.005	3.75
472.208	3.45
472.41	3.71
472.612	4.09
472.814	4.57
473.016	4.48
473.218	4.15
473.421	3.68
473.623	3.23
473.825	2.96
474.027	3.03
474.229	3.17
474.431	3.62
474.633	3.12
474.835	2.91
475.037	2.66
475.239	2.49
475.441	2.44
475.643	2.45
475.845	2.17
476.047	2.16
476.249	2.28
476.451	1.68
476.653	2.03
476.855	2.61
477.057	2.4
477.258	2.35
477.46	2.72
477.662	2.71
477.864	3.11
478.066	3.87
478.268	3.86
478.469	3.92
478.671	4.24
478.873	3.88
479.075	3.47
479.276	3.92
479.478	3.4
479.68	3.44
479.882	3.41
480.083	3.42
480.285	3
480.487	2.85
480.688	2.67
480.89	2.62
481.091	2.48
481.293	2.46
481.495	1.93
481.696	2
481.898	1.63
482.099	1.52
482.301	1.3
482.502	1.25
482.704	1.21
482.905	1.24
483.107	1.15
483.308	1.09
483.51	1.14
483.711	1.28
483.913	1.2
484.114	1.19
484.315	1.08
484.517	1.11
484.718	1
484.92	1.01
485.121	0.98
485.322	1.16
485.524	1.39
485.725	1.38
485.926	1.32
486.127	1.37
486.329	1.38
486.53	1.66
486.731	1.91
486.932	2.19
487.134	2.21
487.335	2.11
487.536	2.1
487.737	1.99
487.938	1.8
488.139	1.79
488.341	1.84
488.542	1.99
488.743	1.89
488.944	1.87
489.145	1.62
489.346	1.73
489.547	1.68
489.748	1.48
489.949	1.51
490.15	1.46
490.351	1.58
490.552	1.46
490.753	1.35
490.954	1.3
491.155	0.97
491.356	0.7
491.557	0.67
491.758	0.9
491.959	1.01
492.159	0.98
492.36	1.37
492.561	1.2
492.762	1.45
492.963	1.53
493.164	1.73
493.364	1.87
493.565	2.44
493.766	2.38
493.967	2.24
494.167	2.29
494.368	2.27
494.569	1.92
494.769	1.65
494.97	1.81
495.171	2.23
495.371	2.43
495.572	2.69
495.773	2.98
495.973	3.07
496.174	2.96
496.375	2.97
496.575	3.12
496.776	3.33
496.976	3.26
497.177	3.08
497.377	2.66
497.578	1.83
497.778	2.03
497.979	1.59
498.179	1.66
498.38	1.94
498.58	1.62
498.78	1.53
498.981	1.23
499.181	1.56
499.382	1.99
499.582	1.84
499.782	2.5
499.983	1.93
500.183	1.94
500.383	2
500.584	2.02
500.784	2.6
500.984	2.05
501.184	2.35
501.385	2.51
501.585	2.4
501.785	2.52
501.985	2.6
502.185	3.04
502.386	3.16
502.586	3.06
502.786	2.59
502.986	2.71
503.186	3.49
503.386	3.63
503.586	3.26
503.786	3.21
503.987	3.23
504.187	3
504.387	3.19
504.587	3.63
504.787	3.46
504.987	3.97
505.187	4.16
505.387	3.81
505.587	3.73
505.786	3.89
505.986	3.68
506.186	3.97
506.386	3.59
506.586	2.95
506.786	2.88
506.986	2.91
507.186	2.83
507.386	2.85
507.585	3.33
507.785	3.76
507.985	4.01
508.185	4.17
508.384	3.86
508.584	4.26
508.784	4.57
508.984	4.43
509.183	4.64
509.383	4.4
509.583	4.12
509.782	3.8
509.982	3.62
510.182	3.67
510.381	3.59
510.581	3.63
510.781	3.61
510.98	3.92
511.18	3.73
511.379	3.75
511.579	4.11
511.778	4.22
511.978	4.43
512.177	4.34
512.377	4.34
512.576	4.69
512.776	4.79
512.975	5.08
513.175	4.96
513.374	5.17
513.573	5.19
513.773	4.64
513.972	4.56
514.172	4.31
514.371	4.12
514.57	4.22
514.77	4.23
514.969	4.47
515.168	4.13
515.367	4.2
515.567	3.95
515.766	4.22
515.965	4.89
516.164	4.89
516.364	5.3
516.563	5.59
516.762	5.89
516.961	5.84
517.16	5.51
517.359	5.72
517.559	5.65
517.758	5.8
517.957	5.77
518.156	6.23
518.355	6.81
518.554	6.8
518.753	6.56
518.952	6.08
519.151	6.21
519.35	6.84
519.549	7.41
519.748	7.78
519.947	8
520.146	8.47
520.345	8.52
520.544	8.35
520.743	8.38
520.942	8.6
521.141	9.46
521.339	10.01
521.538	10.15
521.737	10.15
521.936	10.22
522.135	10.34
522.333	9.97
522.532	9.63
522.731	9.54
522.93	9.23
523.129	9.06
523.327	8.81
523.526	8.47
523.725	8.25
523.923	7.89
524.122	7.86
524.321	8.2
524.519	8.49
524.718	8.33
524.917	8.23
525.115	8.43
525.314	8.37
525.512	8.32
525.711	8.22
525.909	8.36
526.108	8.27
526.306	8.2
526.505	8.09
526.703	7.83
526.902	7.81
527.1	7.8
527.299	8.01
527.497	8.2
527.696	8.15
527.894	8.31
528.092	8.34
528.291	8.51
528.489	8.76
528.688	8.74
528.886	9.03
529.084	9.37
529.283	9.52
529.481	9.6
529.679	9.67
529.877	9.92
530.076	9.8
530.274	9.89
530.472	9.94
530.67	9.85
530.869	9.95
531.067	9.9
531.265	9.96
531.463	9.97
531.661	10.17
531.859	10.51
532.057	10.56
532.255	10.69
532.454	10.78
532.652	10.83
532.85	11.04
533.048	11.2
533.246	11.33
533.444	11.18
533.642	11.52
533.84	11.44
534.038	11.15
534.236	11.18
534.434	11.76
534.632	12.11
534.83	12.29
535.027	12.35
535.225	12.15
535.423	12.63
535.621	12.76
535.819	12.79
536.017	12.81
536.215	13.39
536.412	13.73
536.61	13.63
536.808	13.68
537.006	13.91
537.203	13.86
537.401	14.21
537.599	14.11
537.797	14.48
537.994	14.86
538.192	15.08
538.39	14.98
538.587	14.88
538.785	14.47
538.983	13.96
539.18	13.78
539.378	13.72
539.575	13.64
539.773	13.21
539.97	12.94
540.168	12.66
540.366	12.36
540.563	12.11
540.761	12.26
540.958	12.34
541.155	12.55
541.353	12.64
541.55	12.67
541.748	12.74
541.945	13.24
542.143	13.5
542.34	13.94
542.537	14.5
542.735	14.84
542.932	14.73
543.129	15.24
543.327	15.51
543.524	15.71
543.721	15.97
543.919	16.08
544.116	15.81
544.313	16.06
544.51	15.97
544.708	16.27
544.905	16.18
545.102	16.26
545.299	16.05
545.496	15.71
545.693	15.65
545.891	15.61
546.088	15.8
546.285	15.98
546.482	16.45
546.679	16.78
546.876	16.79
547.073	17.58
547.27	17.95
547.467	17.75
547.664	18.13
547.861	17.95
548.058	18.3
548.255	18.62
548.452	18.76
548.649	18.17
548.846	18.32
549.043	18.14
549.24	17.58
549.437	17.84
549.633	18.35
549.83	18.9
550.027	19.65
550.224	19.27
550.421	19.38
550.618	19.69
550.814	20.28
551.011	20.16
551.208	19.59
551.405	19.74
551.601	19.26
551.798	19.85
551.995	19.84
552.191	20.2
552.388	20.57
552.585	20.36
552.781	20.4
552.978	20.45
553.175	20.75
553.371	22.05
553.568	21.96
553.764	22.62
553.961	22.2
554.157	22.17
554.354	22.46
554.55	22.95
554.747	23.97
554.943	23.81
555.14	23.54
555.336	23.46
555.533	22.58
555.729	23.13
555.926	23.1
556.122	23.74
556.318	24.58
556.515	24.41
556.711	24.87
556.907	24.49
557.104	24.76
557.3	24.99
557.496	25.75
557.693	26.31
557.889	26.72
558.085	26.72
558.281	26.54
558.478	26.07
558.674	26.37
558.87	26.14
559.066	25.96
559.262	25.92
559.459	26.18
559.655	25.45
559.851	25.5
560.047	25.62
560.243	25.17
560.439	25.22
560.635	25.16
560.831	24.99
561.027	24.94
561.223	25.77
561.419	26.31
561.615	26.08
561.811	25.71
562.007	25.48
562.203	26.04
562.399	26.89
562.595	27.15
562.791	27.1
562.987	26.68
563.183	26.59
563.379	25.8
563.575	25.15
563.771	25.29
563.966	25.35
564.162	25.74
564.358	24.67
564.554	23.84
564.75	23.17
564.945	22.99
565.141	23.35
565.337	23.13
565.533	23.51
565.728	24.3
565.924	24.04
566.12	24.23
566.315	23.92
566.511	24.03
566.707	24.58
566.902	24.75
567.098	25.23
567.293	25.19
567.489	25.15
567.684	24.51
567.88	24.36
568.076	24.74
568.271	25.09
568.467	24.92
568.662	24.8
568.858	24.28
569.053	24.47
569.248	24.57
569.444	24.44
569.639	24.97
569.835	25.71
570.03	25.63
570.225	25.43
570.421	25.06
570.616	24.79
570.812	25.28
571.007	25.79
571.202	26.21
571.397	25.95
571.593	26.48
571.788	26.69
571.983	25.93
572.178	26.2
572.374	25.95
572.569	25.84
572.764	27.03
572.959	26.82
573.154	26.73
573.35	26.34
573.545	26.83
573.74	26.65
573.935	26.6
574.13	27.3
574.325	27.34
574.52	27.97
574.715	28.39
574.91	27.7
575.105	28.39
575.3	28.64
575.495	28.95
575.69	29.23
575.885	29.01
576.08	28.83
576.275	28.62
576.47	28.38
576.665	28.9
576.86	29.71
577.055	30.15
577.25	28.84
577.444	29.24
577.639	29.33
577.834	29.04
578.029	29.79
578.224	29.61
578.418	29.71
578.613	29.39
578.808	29.3
579.003	28.91
579.197	28.72
579.392	29.68
579.587	29.64
579.781	30.08
579.976	30.26
580.171	29.63
580.365	30.05
580.56	30.45
580.755	30.98
580.949	31.34
581.144	31.46
581.338	31.46
581.533	31.62
581.727	31.65
581.922	31.65
582.116	31.17
582.311	31.61
582.505	32.1
582.7	32.65
582.894	33.1
583.089	33.34
583.283	33.17
583.478	33.71
583.672	33.64
583.866	33.69
584.061	34.43
584.255	34.7
584.449	34.47
584.644	35.05
584.838	34.26
585.032	33.67
585.226	33.23
585.421	32.83
585.615	32.56
585.809	32.83
586.003	32.81
586.198	31.65
586.392	31.48
586.586	31.08
586.78	29.78
586.974	30.16
587.168	30.16
587.363	29.19
587.557	28.77
587.751	28.62
587.945	27.81
588.139	27.64
588.333	26.89
588.527	27.08
588.721	26.49
588.915	26.86
589.109	26.38
589.303	25.86
589.497	25.99
589.691	26.36
589.885	25.89
590.079	26.86
590.273	27.27
590.466	28.36
590.66	28.43
590.854	30.19
591.048	30.24
591.242	31.44
591.436	31.91
591.629	32.54
591.823	32.98
592.017	33.97
592.211	33.89
592.404	33.12
592.598	32.6
592.792	31.76
592.986	30.39
593.179	30.23
593.373	29.7
593.567	30.37
593.76	30.35
593.954	30.28
594.147	29.42
594.341	29.15
594.535	29.21
594.728	29.18
594.922	29.59
595.115	29.86
595.309	29.89
595.502	29.18
595.696	28.19
595.889	28.31
596.083	28.52
596.276	28.34
596.47	28.83
596.663	29.43
596.856	30.24
597.05	30.69
597.243	31.32
597.437	32.2
597.63	33.02
597.823	34
598.017	33.79
598.21	33.73
598.403	35.12
598.596	34.18
598.79	33.96
598.983	33.82
599.176	33.79
599.369	33.8
599.563	33.76
599.756	33.66
599.949	33.29
600.142	33.66
600.335	33.38
600.528	32.48
600.722	33.5
600.915	33.45
601.108	32.92
601.301	33
601.494	32.85
601.687	32.05
601.88	31.57
602.073	31.2
602.266	30.69
602.459	30.22
602.652	30.33
602.845	29.72
603.038	29.63
603.231	29.18
603.424	28.47
603.617	28.11
603.809	27.79
604.002	27.51
604.195	28.02
604.388	28.58
604.581	29.21
604.774	29.45
604.966	30.13
605.159	30.71
605.352	31.22
605.545	32.13
605.737	33.19
605.93	33.66
606.123	34.76
606.316	35.09
606.508	34.91
606.701	34.87
606.894	34.78
607.086	34.21
607.279	33.64
607.471	33.87
607.664	33.87
607.857	33.38
608.049	33.42
608.242	32.52
608.434	32.15
608.627	31.61
608.819	31.76
609.012	32.24
609.204	32.08
609.397	32.25
609.589	32.27
609.782	32.26
609.974	32.93
610.166	33.57
610.359	34.46
610.551	35.43
610.743	35.51
610.936	35.09
611.128	35.13
611.32	35.89
611.513	36.27
611.705	36.57
611.897	36.13
612.09	36.01
612.282	35.77
612.474	36.17
612.666	35.8
612.858	36.8
613.051	37.82
613.243	37.72
613.435	38.58
613.627	38.71
613.819	38.8
614.011	39.95
614.203	39.36
614.395	39.23
614.588	39.4
614.78	39.36
614.972	39.6
615.164	39.68
615.356	40.17
615.548	39.96
615.74	40.15
615.932	40
616.124	39.51
616.315	39.66
616.507	40.85
616.699	40.37
616.891	41.08
617.083	41.27
617.275	41.15
617.467	39.06
617.659	37.7
617.85	37.63
618.042	37.85
618.234	37.7
618.426	38.1
618.618	37.44
618.809	36.86
619.001	36.26
619.193	36.22
619.384	36.06
619.576	37.32
619.768	37.54
619.959	36.53
620.151	36.47
620.343	37.22
620.534	36.94
620.726	37.2
620.917	38.36
621.109	38.56
621.301	38.06
621.492	38.41
621.684	39.1
621.875	39.73
622.067	40.17
622.258	40.05
622.45	40.13
622.641	39.86
622.832	40.08
623.024	39.92
623.215	39.97
623.407	40.03
623.598	40.54
623.789	40.07
623.981	39.47
624.172	38.57
624.363	38.1
624.555	36.84
624.746	36.97
624.937	36.02
625.129	35.38
625.32	35.07
625.511	34.39
625.702	33.46
625.893	33.25
626.085	34.04
626.276	34.3
626.467	34.19
626.658	35.12
626.849	35.32
627.04	35.49
627.231	35.87
627.422	35.66
627.614	36.13
627.805	36.09
627.996	36.55
628.187	35.27
628.378	36.27
628.569	36.46
628.76	36.35
628.951	36.04
629.142	36.33
629.332	36.02
629.523	36.08
629.714	36.27
629.905	37.18
630.096	37.1
630.287	37.97
630.478	38.44
630.669	39.16
630.859	39.11
631.05	40.33
631.241	40.73
631.432	41.38
631.623	42.67
631.813	41.41
632.004	40.48
632.195	40.13
632.385	40.16
632.576	39.83
632.767	40.5
632.957	39.42
633.148	37.94
633.339	37.87
633.529	37.9
633.72	37.46
633.91	40.07
634.101	40.59
634.292	41.33
634.482	41.67
634.673	40.69
634.863	40.58
635.054	42.57
635.244	42.77
635.435	42.95
635.625	41.85
635.815	41.35
636.006	39.56
636.196	39.54
636.387	39.45
636.577	39.69
636.767	41.1
636.958	41.46
637.148	40.04
637.338	40.43
637.529	39.7
637.719	41.48
637.909	41.76
638.099	42.43
638.29	41.89
638.48	41.49
638.67	40.28
638.86	41.03
639.05	39.47
639.241	40.42
639.431	40.85
639.621	40.68
639.811	40.22
640.001	40.55
640.191	42.34
640.381	43.62
640.571	43.46
640.761	44.59
640.951	43.97
641.141	44.94
641.331	44.96
641.521	45.5
641.711	46.19
641.901	45.16
642.091	46.06
642.281	44.51
642.471	43.04
642.661	43.7
642.851	43.56
643.041	42.9
643.231	43.91
643.42	43.09
643.61	43.29
643.8	43.21
643.99	43.71
644.18	42.23
644.369	41.74
644.559	42.76
644.749	41.48
644.939	41.34
645.128	41.02
645.318	39.95
645.508	40.32
645.697	40.37
645.887	40.45
646.076	40.52
646.266	40.96
646.456	41.6
646.645	41.81
646.835	43.16
647.024	43.17
647.214	43.63
647.403	43.97
647.593	43.6
647.782	42.69
647.972	43.02
648.161	43.07
648.351	44.01
648.54	42.73
648.73	41.99
648.919	40.76
649.108	40.64
649.298	40.44
649.487	39.36
649.677	39.71
649.866	40.23
650.055	39.97
650.244	40.11
650.434	38.09
650.623	40.29
650.812	41.07
651.002	42.58
651.191	42.32
651.38	43.03
651.569	43.67
651.758	44.7
651.947	44.11
652.137	43.39
652.326	44.38
652.515	46.42
652.704	46.76
652.893	47.27
653.082	46.88
653.271	48.33
653.46	47.31
653.649	47.54
653.838	47.33
654.027	48.57
654.216	48.4
654.405	46.99
654.594	46.83
654.783	45.46
654.972	44.67
655.161	45.83
655.35	45.22
655.539	45.55
655.728	45.33
655.916	43.57
656.105	42.85
656.294	43.36
656.483	42.97
656.672	41.67
656.86	41.75
657.049	41.33
657.238	40.05
657.427	38.71
657.615	38.68
657.804	38.46
657.993	39.95
658.181	39.38
658.37	39.6
658.559	41.2
658.747	41.99
658.936	41.49
659.125	40.77
659.313	41.44
659.502	42.89
659.69	42.46
659.879	42.34
660.067	42.21
660.256	42.76
660.444	42.22
660.633	42.36
660.821	42.68
661.01	44.44
661.198	45.97
661.387	45.98
661.575	45.46
661.763	47.31
661.952	47.33
662.14	47.1
662.328	48.57
662.517	50.63
662.705	49.85
662.893	49.67
663.082	48.82
663.27	49.98
663.458	50.52
663.646	50.35
663.834	50.84
664.023	51.31
664.211	51.35
664.399	50.56
664.587	48.99
664.775	48.63
664.963	48.02
665.152	47.08
665.34	45.56
665.528	45.19
665.716	46.31
665.904	46.26
666.092	46.97
666.28	46.98
666.468	46.29
666.656	46.62
666.844	45.82
667.032	46.8
667.22	46.6
667.408	46.4
667.596	45.72
667.784	45.64
667.971	44.68
668.159	43.75
668.347	45.55
668.535	46.21
668.723	46.14
668.911	47.01
669.098	46.53
669.286	47.47
669.474	48.87
669.662	49.5
669.849	49.27
670.037	50.24
670.225	52.1
670.413	51.12
670.6	50.47
670.788	50.63
670.976	50.42
671.163	49.81
671.351	49.53
671.538	49.46
671.726	49.79
671.913	48.84
672.101	49.21
672.289	48.03
672.476	47.63
672.664	48.29
672.851	49.13
673.039	49.26
673.226	49.32
673.413	50.28
673.601	50.64
673.788	50.51
673.976	50.9
674.163	52.01
674.35	53.2
674.538	54.45
674.725	53.47
674.912	53.57
675.1	53.73
675.287	54.49
675.474	53.04
675.662	52.47
675.849	52.66
676.036	54.35
676.223	51.74
676.411	51.13
676.598	49.25
676.785	49.69
676.972	49.17
677.159	48.41
677.346	47.22
677.533	46.82
677.721	47.05
677.908	46.97
678.095	45.27
678.282	45.12
678.469	44.83
678.656	44.71
678.843	45.45
679.03	44.44
679.217	45.53
679.404	46.31
679.591	47.14
679.778	46.25
679.964	45.87
680.151	46.19
680.338	46.58
680.525	45.82
680.712	46.66
680.899	45.75
681.086	47.02
681.272	46.17
681.459	44.17
681.646	45.24
681.833	46.34
682.02	46.31
682.206	47.19
682.393	47.4
682.58	47.91
682.766	47.79
682.953	48.54
683.14	49.54
683.326	49.78
683.513	50.8
683.7	48.23
683.886	47.04
684.073	46.73
684.259	45.6
684.446	44.23
684.632	44.84
684.819	44.44
685.005	42.78
685.192	39.78
685.378	39.34
685.565	40.86
685.751	41.69
685.938	42.39
686.124	41.77
686.31	42.17
686.497	43.29
686.683	42.89
686.87	40.98
687.056	41.65
687.242	42.92
687.429	42.51
687.615	42.33
687.801	43.48
687.987	44.33
688.174	46.37
688.36	47.25
688.546	46.86
688.732	47.25
688.918	48.17
689.105	48.7
689.291	48.2
689.477	49.18
689.663	50.23
689.849	51.07
690.035	50.67
690.221	49.63
690.407	47.65
690.593	49.5
690.779	49.78
690.965	50.86
691.151	50.36
691.337	51.46
691.523	50.39
691.709	48.4
691.895	47.32
692.081	47.9
692.267	47.12
692.453	48.89
692.639	46.4
692.825	44.2
693.011	44.62
693.196	45.65
693.382	45.34
693.568	45.91
693.754	46.14
693.94	45.59
694.125	45.37
694.311	45.86
694.497	44.41
694.682	45.88
694.868	46.93
695.054	46.43
695.239	45.44
695.425	45.83
695.611	44.81
695.796	44.14
695.982	44.32
696.168	43.3
696.353	42.56
696.539	43.6
696.724	42.07
696.91	41.73
697.095	41.82
697.281	40.96
697.466	39.89
697.652	41.23
697.837	41.12
698.023	40.49
698.208	40.37
698.393	40.76
698.579	39.46
698.764	40.31
698.949	40.22
699.135	39.55
699.32	41.51
699.505	41.02
699.691	39.07
699.876	39.84
700.061	40.92
700.246	41.09
700.432	41.75
700.617	42.94
700.802	42.28
700.987	42.52
701.172	43.59
701.358	41.09
701.543	44.43
701.728	47.16
701.913	47.59
702.098	48.15
702.283	48.91
702.468	48.89
702.653	49.4
702.838	49.98
703.023	51.84
703.208	52.52
703.393	53.77
703.578	51.15
703.763	50.35
703.948	51.37
704.133	51.87
704.318	54.75
704.503	54.51
704.688	55.28
704.873	56.72
705.057	55.27
705.242	52.74
705.427	54.64
705.612	55.39
705.797	54.42
705.981	51.54
706.166	51.32
706.351	50.59
706.536	51.71
706.72	51.23
706.905	50.6
707.09	53.08
707.274	54.58
707.459	55.48
707.644	55.47
707.828	57.97
708.013	61.13
708.197	61.84
708.382	63.58
708.567	62.52
708.751	62.65
708.936	63.46
709.12	62.37
709.305	63.23
709.489	61.29
709.673	63.84
709.858	63.57
710.042	63.16
710.227	63.96
710.411	61.24
710.596	62.93
710.78	62.15
710.964	62.79
711.149	61.9
711.333	61.03
711.517	62.76
711.702	60.86
711.886	60.99
712.07	62.15
712.254	60.3
712.438	60.13
712.623	58.5
712.807	59.17
712.991	57.81
713.175	57.2
713.359	58
713.544	54.44
713.728	52.14
713.912	51.46
714.096	49.05
714.28	48.46
714.464	47.54
714.648	46.93
714.832	46.19
715.016	47.25
715.2	45.88
715.384	44.06
715.568	46.24
715.752	47.9
715.936	47.5
716.12	47.77
716.304	47.26
716.488	48.52
716.671	48.39
716.855	48.59
717.039	47.07
717.223	49.13
717.407	50.36
717.59	50
717.774	47.34
717.958	48.26
718.142	47.59
718.325	47.26
718.509	47.27
718.693	48.39
718.877	50.31
719.06	51.44
719.244	53.32
719.428	54.47
719.611	54.19
719.795	57.82
719.978	57.54
720.162	58.37
720.345	61.39
720.529	59.56
720.713	58.29
720.896	54.64
721.08	56.4
721.263	53.95
721.446	51.63
721.63	50.15
721.813	48.65
721.997	46.59
722.18	47.1
722.364	44.44
722.547	44.1
722.73	43.31
722.914	43.58
723.097	42.18
723.28	41.69
723.464	43.37
723.647	43.09
723.83	45.26
724.013	47.2
724.197	45.61
724.38	45.48
724.563	44.99
724.746	46.87
724.929	45.28
725.112	44.63
725.296	46.79
725.479	45.02
725.662	46.36
725.845	46.64
726.028	45.85
726.211	47
726.394	48.3
726.577	50.47
726.76	52.44
726.943	54.49
727.126	55.17
727.309	55.68
727.492	57.75
727.675	59.31
727.858	57.81
728.041	56.45
728.224	56.38
728.407	54.21
728.589	53.63
728.772	51.71
728.955	51.81
729.138	50.13
729.321	48.44
729.503	48.21
729.686	48.2
729.869	47.48
730.052	49.57
730.234	50.03
730.417	51.54
730.6	50.73
730.782	50.33
730.965	50.15
731.148	50.77
731.33	50.87
731.513	50
731.695	49.3
731.878	51.86
732.061	51.01
732.243	52.69
732.426	55.38
732.608	56.92
732.791	57.59
732.973	59.48
733.156	61.61
733.338	62.83
733.52	64.62
733.703	62.1
733.885	64.81
734.068	69.13
734.25	69.33
734.432	70.83
734.615	71.71
734.797	75.53
734.979	75.11
735.162	73.88
735.344	73.91
735.526	72.32
735.708	76.49
735.891	72.23
736.073	70.75
736.255	69.91
736.437	67.69
736.619	66.3
736.802	64.56
736.984	67.72
737.166	70.87
737.348	71.9
737.53	75.39
737.712	76.6
737.894	77.59
738.076	79.3
738.258	79.16
738.44	81.19
738.622	83.86
738.804	81.81
738.986	77.03
739.168	76.29
739.35	75.14
739.532	74.64
739.714	73.47
739.896	75.07
740.078	70.94
740.259	73.68
740.441	73.53
740.623	73.61
740.805	76.82
740.987	78.57
741.168	76.47
741.35	83.06
741.532	81.2
741.714	82.62
741.895	83.34
742.077	87.98
742.259	86.39
742.44	90.4
742.622	93.12
742.804	96.64
742.985	97.62
743.167	100.07
743.348	93.82
743.53	93.55
743.711	93.4
743.893	95.03
744.075	97.34
744.256	98.14
744.438	92.64
744.619	88.87
744.8	86.21
744.982	90.34
745.163	88.44
745.345	89.22
745.526	93.55
745.707	93.17
745.889	91.8
746.07	84.47
746.252	84.5
746.433	86.7
746.614	88.51
746.795	89.27
746.977	87.07
747.158	86.99
747.339	87.05
747.52	87.92
747.702	88.75
747.883	85.63
748.064	89.97
748.245	92.23
748.426	92.77
748.607	93.21
748.788	96.37
748.97	96.91
749.151	95.07
749.332	101.33
749.513	98.91
749.694	99.65
749.875	97.71
750.056	101.88
750.237	94.5
750.418	93.81
750.599	90.41
750.78	87.45
750.96	83.73
751.141	83.96
751.322	78.77
751.503	79.8
751.684	81.18
751.865	84.75
752.046	81.46
752.226	83
752.407	80.97
752.588	78.87
752.769	77.88
752.949	78.67
753.13	82.36
753.311	80.43
753.492	79.05
753.672	79.14
753.853	79.24
754.034	77.33
754.214	77.35
754.395	82
754.575	87.07
754.756	89.93
754.937	91.65
755.117	92.47
755.298	90.38
755.478	90.61
755.659	89.48
755.839	89.79
756.02	91.29
756.2	92.6
756.381	87.42
756.561	83.7
756.741	81.31
756.922	77.5
757.102	75.42
757.283	76.92
757.463	74.22
757.643	74.35
757.823	68.78
758.004	66.25
758.184	63.09
758.364	60.64
758.545	60.98
758.725	55.74
758.905	53.54
759.085	50.43
759.265	49.59
759.446	45.96
759.626	43.24
759.806	43.43
759.986	45.1
760.166	41.67
760.346	48.73
760.526	47.56
760.706	44.54
760.886	47
761.066	42.93
761.246	40.92
761.426	41.54
761.606	41.45
761.786	39.26
761.966	36.65
762.146	38.61
762.326	35.65
762.506	34.31
762.686	34.77
762.866	33.05
763.046	35.72
763.225	36.87
763.405	38.97
763.585	38.42
763.765	42.4
763.945	45.28
764.124	46.57
764.304	50.73
764.484	55.05
764.664	59.72
764.843	61.3
765.023	65.29
765.203	68.95
765.382	73.58
765.562	71.76
765.741	76.49
765.921	82.03
766.101	83.86
766.28	83.63
766.46	82.86
766.639	81.58
766.819	79.3
766.998	81.87
767.178	84
767.357	82.52
767.537	87.43
767.716	84.8
767.896	82.94
768.075	86.61
768.254	87.72
768.434	88.92
768.613	89.61
768.792	100.15
768.972	100.7
769.151	101.28
769.33	104.61
769.51	108.41
769.689	114.7
769.868	112.56
770.047	108.14
770.226	110.86
770.406	118.02
770.585	125.43
770.764	125.12
770.943	123.34
771.122	120.67
771.301	122.47
771.48	118.73
771.66	112.39
771.839	115.96
772.018	117.61
772.197	111.27
772.376	104.85
772.555	101.86
772.734	97.3
772.913	98.46
773.092	96.43
773.271	100.13
773.449	109.26
773.628	116.99
773.807	116.61
773.986	122.52
774.165	136.24
774.344	139.1
774.523	133.62
774.701	130.55
774.88	130.72
775.059	133.5
775.238	127.43
775.417	122.85
775.595	122.93
775.774	113.92
775.953	111.9
776.131	106.48
776.31	107.53
776.489	111.84
776.667	117.79
776.846	108.83
777.025	112.1
777.203	110.26
777.382	109.56
777.56	114.09
777.739	123.32
777.917	123.33
778.096	120.17
778.274	118.72
778.453	120.62
778.631	119.68
778.81	133.01
778.988	127.2
779.166	136.09
779.345	135.7
779.523	125.34
779.702	121.84
779.88	117.88
780.058	126.15
780.237	122.75
780.415	118.78
780.593	117.67
780.771	117.32
780.95	112.64
781.128	111.39
781.306	115.49
781.484	124.96
781.662	128.72
781.841	125.3
782.019	116.07
782.197	117.85
782.375	133.04
782.553	141.37
782.731	142.63
782.909	165.4
783.087	154.06
783.265	149.8
783.443	145.26
783.621	139.36
783.799	153.88
783.977	150.5
784.155	144.77
784.333	135.13
784.511	124.03
784.689	123.21
784.867	119.94
785.045	124.01
785.223	121.65
785.4	116.4
785.578	123.49
785.756	122.76
785.934	118.63
786.112	118.72
786.289	111.73
786.467	107.94
786.645	104.67
786.823	102.5
787	97.37
787.178	95.91
787.356	95.22
787.533	90.07
787.711	82.09
787.889	87.44
788.066	88
788.244	88.54
788.421	91.89
788.599	85.99
788.776	85.11
788.954	91.22
789.131	88.55
789.309	92.44
789.486	100.92
789.664	102.23
789.841	109.66
790.019	114.61
790.196	118.06
790.373	119.32
790.551	134.81
790.728	133.77
790.906	117.94
791.083	137.13
791.26	135.1
791.437	125.62
791.615	139.98
791.792	129.83
791.969	125.47
792.146	134.44
792.324	142.92
792.501	140.93
792.678	135.87
792.855	139.42
793.032	130.88
793.209	124.66
793.387	115.86
793.564	113.39
793.741	108.51
793.918	113.14
794.095	105.2
794.272	94.79
794.449	91.6
794.626	95.6
794.803	95.69
794.98	95.68
795.157	97.03
795.334	110.6
795.511	114.91
795.688	120.41
795.864	120.01
796.041	133.88
796.218	139.03
796.395	137.85
796.572	125.11
796.749	128.18
796.925	122.28
797.102	117.18
797.279	108.64
797.456	101.89
797.632	95.17
797.809	90.62
797.986	87.13
798.162	88.65
798.339	87.89
798.516	92.29
798.692	92.05
798.869	95.73
799.046	103.52
799.222	113.38
799.399	114.43
799.575	118.89
799.752	122.22
799.928	119.04
800.105	119.34
800.281	125.36
800.458	129.07
800.634	135.53
800.811	136.56
800.987	135.79
801.163	124.43
801.34	141.92
801.516	129.11
801.692	120.15
801.869	120.22
802.045	116.11
802.221	115.7
802.398	112.62
802.574	114.87
802.75	116.91
802.926	116.97
803.103	112.29
803.279	111.17
803.455	127.37
803.631	131.14
803.807	125.89
803.983	136.56
804.16	126.09
804.336	133.72
804.512	136.65
804.688	138.57
804.864	138.07
805.04	156.95
805.216	127.65
805.392	109.11
805.568	104.84
805.744	116.04
805.92	109.51
806.096	118.09
806.272	109.46
806.448	105.58
806.623	96.22
806.799	92.78
806.975	94.2
807.151	89.13
807.327	98.06
807.503	106.28
807.678	104.7
807.854	96.66
808.03	103.69
808.206	93.41
808.381	94.63
808.557	108.08
808.733	115.21
808.908	103.98
809.084	120.12
809.26	125.98
809.435	127.11
809.611	124.66
809.787	120.12
809.962	95.93
810.138	101
810.313	98.9
810.489	82.78
810.664	84.53
810.84	95.28
811.015	105.97
811.191	99.89
811.366	101.9
811.542	112
811.717	105.03
811.892	131.75
812.068	145.22
812.243	164.02
812.419	195.77
812.594	186.52
812.769	190.68
812.944	172.37
813.12	152.53
813.295	140
813.47	141.86
813.645	169.89
813.821	145.8
813.996	156.73
814.171	147.88
814.346	141.85
814.521	121.07
814.697	111.25
814.872	98.86
815.047	102.8
815.222	83.24
815.397	80
815.572	89
815.747	87.38
815.922	77.55
816.097	73.02
816.272	66.32
816.447	58.39
816.622	50.28
816.797	53.32
816.972	51.68
817.147	59.06
817.322	57.01
817.496	52.29
817.671	52.72
817.846	49.61
818.021	53.38
818.196	51.24
818.371	61.71
818.545	67.12
818.72	61.23
818.895	53.64
819.069	45.81
819.244	46.45
819.419	44.1
819.594	43.03
819.768	43.95
819.943	37.26
820.117	33.97
820.292	29.94
820.467	28.89
820.641	30.3
820.816	30.72
820.99	28.47
821.165	28.43
821.339	27.46
821.514	26.17
821.688	24.38
821.863	25.46
822.037	25.81
822.212	25.42
822.386	25.22
822.56	25.91
822.735	25.38
822.909	28.57
823.084	30.17
823.258	28.12
823.432	32.12
823.606	35.34
823.781	36.6
823.955	39.92
824.129	42.53
824.303	47.02
824.478	45.69
824.652	47.81
824.826	48.79
825	45.37
825.174	48.44
825.348	45.39
825.523	46.18
825.697	44.79
825.871	41.45
826.045	43.54
826.219	42.46
826.393	46.08
826.567	44.41
826.741	46.43
826.915	47.48
827.089	53.61
827.263	54.5
827.437	54.96
827.611	60.29
827.784	65.02
827.958	61
828.132	62.51
828.306	57.21
828.48	64.2
828.654	67.27
828.827	64.25
829.001	62.79
829.175	71.5
829.349	71.37
829.522	76.53
829.696	76.03
829.87	87.73
830.044	83.58
830.217	79.57
830.391	81.65
830.565	68.51
830.738	75.47
830.912	67.6
831.085	76.96
831.259	66.14
831.432	52.53
831.606	53.91
831.779	46.34
831.953	52.46
832.126	62.96
832.3	61.46
832.473	63.39
832.647	63.65
832.82	64.55
832.994	56.1
833.167	57.41
833.34	61.11
833.514	60.51
833.687	59.27
833.86	61.47
834.034	60.28
834.207	62.11
834.38	66.08
834.553	68.38
834.727	69.36
834.9	82.35
835.073	98.91
835.246	92.72
835.419	92.39
835.593	114.48
835.766	137.7
835.939	170.72
836.112	197.67
836.285	236.7
836.458	219.22
836.631	233.59
836.804	182.85
836.977	186.24
837.15	189.77
837.323	238.96
837.496	277.84
837.669	296.36
837.842	217.84
838.015	183.73
838.188	153.8
838.361	163.72
838.533	143.05
838.706	146.44
838.879	143.41
839.052	143.61
839.225	127.28
839.398	110.38
839.57	93.15
839.743	90.43
839.916	80.7
840.088	77.22
840.261	72.45
840.434	83.64
840.607	80.47
840.779	71.78
840.952	92.57
841.124	96.98
841.297	105.13
841.47	116.15
841.642	116.1
841.815	191.56
841.987	216.41
842.16	285.58
842.332	244.11
842.505	203.82
842.677	196.56
842.85	177.76
843.022	196.49
843.194	224.24
843.367	177.57
843.539	167.64
843.712	169.69
843.884	177.14
844.056	161.64
844.229	165.45
844.401	178.39
844.573	258.36
844.745	267.5
844.918	303.7
845.09	406.82
845.262	319.3
845.434	441.7
845.606	750
845.779	-1700
845.951	18725
846.123	-2482.35
846.295	1983.67
846.467	-2015.79
846.639	-2826.09
846.811	892.05
846.983	409.74
847.155	852.5
847.327	665.09
847.499	283.27
847.671	298.46
847.843	438.18
848.015	443.48
848.187	384.49
848.359	268.04
848.531	375.43
848.703	553
848.875	614.01
849.047	2565
849.218	6743.75
849.39	-1476.54
849.562	23760
849.734	-4203.57
849.905	19942.86
850.077	-1745.95
850.249	-777.86
850.421	1842.86
850.592	830.89
850.764	412.05
850.936	305.36
851.107	377.06
851.279	281.14
851.451	293.81
851.622	453.63
851.794	301.61
851.965	419.63
852.137	421.74
852.308	6866.67
852.48	-627.78
852.651	-385.86
852.823	-643.65
852.994	-2985.19
853.166	8975
853.337	-1650
853.509	316.58
853.68	9500
853.851	397.78
854.023	290.21
854.194	461.02
854.365	316.98
854.537	246.15
854.708	242.15
854.879	206.79
855.05	262.66
855.222	223.69
855.393	436.54
855.564	259.25
855.735	274.77
855.906	374.22
856.078	376.75
856.249	218.59
856.42	300.85
856.591	421.3
856.762	-3694.74
856.933	-2603.85
857.104	-1036
857.275	19975
857.446	1260
857.617	-13216.67
857.788	32900
857.959	445.14
858.13	1569.39
858.301	433.72
858.472	412.22
858.643	273.19
858.814	226.38
858.985	230.99
859.155	266.67
859.326	453.47
859.497	246.78
859.668	304.23
859.839	357.14
860.009	227.98
860.18	177.58
860.351	175.5
860.522	144.38
860.692	178.75
860.863	149.28
861.034	164.04
861.204	178.26
861.375	374.42
861.546	261.13
861.716	286.39
861.887	363.57
862.057	1288.24
862.228	1942.86
862.398	-203.89
862.569	-1633.33
862.739	-2052.27
862.91	1091.3
863.08	13242.86
863.251	-4157.14
863.421	-848
863.592	-7525
863.762	-732.47
863.932	1558.54
864.103	-1220
864.273	608.42
864.443	415.48
864.614	284.48
864.784	264.52
864.954	164.9
865.125	139.24
865.295	165.76
865.465	191.5
865.635	111.22
865.805	102.67
865.976	88.6
866.146	96.55
866.316	107.31
866.486	73.57
866.656	76.49
866.826	84.67
866.996	64.81
867.166	76.58
867.336	57.63
867.506	91.65
867.676	103.61
867.846	111.44
868.016	91.3
868.186	131.3
868.356	448.19
868.526	332.32
868.696	-1435.29
868.866	-391.04
869.036	-1133.33
869.206	1289.19
869.376	-1274.07
869.545	1600
869.715	2295.24
869.885	-800
870.055	-393.16
870.224	183.62
870.394	193.07
870.564	326.36
870.734	436.61
870.903	261.57
871.073	328.87
871.243	332.8
871.412	363.76
871.582	746.74
871.751	-2850
871.921	-362.03
872.091	-104.61
872.26	-135.84
872.43	-133.02
872.599	-212
872.769	-128.4
872.938	-227.43
873.108	-192.96
873.277	-433.87
873.446	4807.69
873.616	-484.95
873.785	260.7
873.955	258.97
874.124	307.85
874.293	474.74
874.463	2191.89
874.632	-1055.07
874.801	-730.91
874.971	-160.74
875.14	-104.81
875.309	-57.98
875.478	-232.42
875.647	-42.33
875.817	-25.19
875.986	-80.56
876.155	21100
876.324	271.97
876.493	180.19
876.662	176.87
876.831	156.81
877	180.82
877.17	248.66
877.339	376.25
877.508	417.84
877.677	0
877.846	-2791.67
878.015	-1001.67
878.184	-418.64
878.352	-9983.33
878.521	1080.88
878.69	332.22
878.859	293.55
879.028	225.06
879.197	214.74
879.366	148.5
879.534	125.29
879.703	127.15
879.872	113.85
880.041	105.01
880.21	93.18
880.378	84.96
880.547	73.98
880.716	61.14
880.884	55.13
881.053	50.89
881.222	48.75
881.39	40.61
881.559	41.63
881.727	45.21
881.896	46.53
882.065	50.41
882.233	51.53
882.402	53.35
882.57	58.61
882.739	50.69
882.907	45.16
883.076	50.71
883.244	49.84
883.412	56.02
883.581	47.4
883.749	53.71
883.918	50.59
884.086	45.02
884.254	65.8
884.423	65.34
884.591	85.84
884.759	118.09
884.927	118.65
885.096	119.2
885.264	119.85
885.432	145.94
885.6	138.53
885.769	122.95
885.937	128.69
886.105	115
886.273	112.73
886.441	103.11
886.609	104.3
886.777	92.9
886.945	109.49
887.113	115.05
887.281	114.89
887.449	112.74
887.617	117.42
887.785	130.08
887.953	112
888.121	190.48
888.289	304.17
888.457	428.85
888.625	292.86
888.793	-628.95
888.961	650
889.129	1933.33
889.296	534.37
889.464	726.92
889.632	604.62
889.8	410.19
889.967	214.62
890.135	191.1
