Data from JASIL_3149_Reflection_1.txt Node
Date: Thu Nov 12 21:11:39 EST 2015
User: Geneva
Spectrometer: USB4E03002
Autoset integration time: false
Trigger mode: 4
Integration Time (sec): 1.000000E-1
Scans to average: 10
Electric dark correction enabled: true
Nonlinearity correction enabled: false
Boxcar width: 5
Stray light correction enabled: false
XAxis mode: Wavelengths
Stop averaging: false
Number of Pixels in Spectrum: 3648
>>>>>Begin Spectral Data<<<<<
177.575	36.26
177.794	89.33
178.014	180.13
178.233	-73.92
178.452	-8065.22
178.672	-61.76
178.891	-47.41
179.11	-133.33
179.33	-51.43
179.549	-36.01
179.768	572.32
179.987	372.22
180.207	-143.07
180.426	-43.55
180.645	-27.09
180.864	-20.93
181.084	-18.54
181.303	-26.41
181.522	-12.19
181.741	-8.21
181.96	4.56
182.179	-5.05
182.398	-8.12
182.618	-24.64
182.837	-37.12
183.056	-48.2
183.275	-78.35
183.494	-64.47
183.713	-72.65
183.932	-89.92
184.151	-92.8
184.37	-142.94
184.589	-89.92
184.808	-103.02
185.027	-107.66
185.246	-74.89
185.465	-89.48
185.684	-93.26
185.903	-208.74
186.122	-132.14
186.341	-150.74
186.56	-134.16
186.779	-30.83
186.998	-6.75
187.216	-72.66
187.435	-113.09
187.654	-173.69
187.873	-200.13
188.092	-73.58
188.311	-80.17
188.53	-61.82
188.748	-55.86
188.967	-228.91
189.186	-280.05
189.405	-214.75
189.623	-196.51
189.842	-92.49
190.061	-136.46
190.28	-106.39
190.498	-194.84
190.717	-153.22
190.936	-150.71
191.154	-149.31
191.373	-48.19
191.592	-52.33
191.81	-61.38
192.029	-35.93
192.248	-29.53
192.466	-17.7
192.685	-18.99
192.904	-7.77
193.122	-12.41
193.341	-15.29
193.559	-1.32
193.778	-68.56
193.996	-124.93
194.215	-131.71
194.433	-238.89
194.652	-183.15
194.87	-143.39
195.089	-115.25
195.307	-67.51
195.526	-70.26
195.744	-48.35
195.963	-17.77
196.181	-5.85
196.399	-19.89
196.618	-7.76
196.836	13.56
197.055	-32.07
197.273	-19.6
197.491	-36.14
197.71	-182.43
197.928	-13.1
198.146	-48.27
198.365	-2233.9
198.583	475.58
198.801	301.13
199.019	120.86
199.238	140.4
199.456	236.16
199.674	189.16
199.892	196.65
200.111	2290.77
200.329	7862.61
200.547	463.37
200.765	1088.32
200.983	-1884.96
201.202	-809.76
201.42	-320.89
201.638	-421.73
201.856	-374.17
202.074	-118.47
202.292	-480
202.51	-205.01
202.728	-127.97
202.946	-189.19
203.165	-200.4
203.383	-107.66
203.601	-78.14
203.819	-46.53
204.037	-12.76
204.255	-46.27
204.473	-23.34
204.691	-22.14
204.909	-91.07
205.127	-122.36
205.345	-48.74
205.562	-39.21
205.78	-78.3
205.998	-109.12
206.216	-70.14
206.434	-133.65
206.652	-39.43
206.87	-103.27
207.088	-2.63
207.306	23.84
207.523	34.14
207.741	25.87
207.959	44.07
208.177	27.26
208.395	13.98
208.612	-77.96
208.83	-353.83
209.048	630.23
209.266	-15253.57
209.483	160.85
209.701	247.08
209.919	-2610.15
210.136	280.77
210.354	368.98
210.572	-14650
210.79	-7805.3
211.007	1830.54
211.225	-396.95
211.442	-313.01
211.66	-344.86
211.878	-437.04
212.095	42.87
212.313	53.4
212.53	49.99
212.748	74.21
212.966	83.75
213.183	105.89
213.401	96.33
213.618	101.67
213.836	90.28
214.053	78.88
214.271	88.12
214.488	-7.64
214.705	-48.18
214.923	-36.33
215.14	-18.35
215.358	-26.9
215.575	-73.14
215.793	-91.59
216.01	-80.95
216.227	-127.52
216.445	-391.37
216.662	-146.77
216.879	-128.06
217.097	-122.54
217.314	-504.32
217.531	-1445.79
217.749	-1253.35
217.966	-259.11
218.183	-112.01
218.4	-80.59
218.618	-309.01
218.835	-207.19
219.052	-377.84
219.269	-902.5
219.487	-251.37
219.704	-94.9
219.921	-19.64
220.138	13.3
220.355	25.77
220.572	65.05
220.79	18.56
221.007	24.42
221.224	34.61
221.441	41.12
221.658	30.6
221.875	24.14
222.092	53.95
222.309	-69.28
222.526	-38.76
222.743	-19.69
222.96	-67.66
223.177	-30.67
223.394	44.74
223.611	-74.42
223.828	-29.14
224.045	-661.88
224.262	349.58
224.479	256.8
224.696	432.14
224.913	281.63
225.13	455.66
225.347	270.39
225.564	172.34
225.781	191.9
225.997	168.4
226.214	110.45
226.431	130.46
226.648	160.83
226.865	85.1
227.082	13.58
227.298	36.4
227.515	48.4
227.732	36.81
227.949	43.7
228.165	29.59
228.382	26.9
228.599	15.86
228.816	11.58
229.032	13.41
229.249	19.31
229.466	26.64
229.682	22.89
229.899	19.42
230.116	35.36
230.332	18.71
230.549	27.26
230.765	43.23
230.982	50.33
231.199	59.47
231.415	51.48
231.632	54.08
231.848	55.37
232.065	63.36
232.281	69.56
232.498	61.35
232.714	74.51
232.931	70.25
233.147	75.55
233.364	68.78
233.58	64.65
233.797	93.15
234.013	78.98
234.23	95.75
234.446	84.82
234.662	80.87
234.879	67.44
235.095	52.12
235.312	59.21
235.528	39.1
235.744	47.1
235.961	49.92
236.177	30.9
236.393	49.64
236.61	6.52
236.826	33.21
237.042	36.78
237.258	57.36
237.475	68.96
237.691	84.63
237.907	158.77
238.123	151.49
238.339	136.85
238.556	116.37
238.772	104.43
238.988	120.01
239.204	110.97
239.42	91.81
239.636	64.39
239.853	56.19
240.069	42.43
240.285	41.48
240.501	36.09
240.717	29.61
240.933	28.34
241.149	29.72
241.365	24.85
241.581	21.44
241.797	25.12
242.013	27.2
242.229	28.09
242.445	33.97
242.661	28.85
242.877	27.51
243.093	28.16
243.309	26.45
243.525	26.45
243.741	26.08
243.957	24.2
244.173	22.73
244.388	24.19
244.604	31.86
244.82	32.15
245.036	27.09
245.252	30.17
245.468	30.68
245.683	31.7
245.899	28.15
246.115	23.35
246.331	26.01
246.547	24.13
246.762	22.36
246.978	18.48
247.194	15.45
247.409	16.01
247.625	14.85
247.841	11.72
248.057	10.48
248.272	13.24
248.488	17.37
248.703	15.34
248.919	21.22
249.135	23.7
249.35	23.69
249.566	29.65
249.782	31.85
249.997	30.61
250.213	29.03
250.428	25.46
250.644	19.09
250.859	22.43
251.075	21.12
251.29	20.85
251.506	19.55
251.721	20.09
251.937	19.19
252.152	23.9
252.368	22.23
252.583	29.49
252.798	34.69
253.014	32.93
253.229	29.63
253.445	31.89
253.66	28.55
253.875	27.55
254.091	34.11
254.306	38.21
254.521	25.16
254.737	32.79
254.952	32.8
255.167	32.28
255.383	43.04
255.598	42.62
255.813	36.96
256.028	36.85
256.244	32.6
256.459	27.4
256.674	19.66
256.889	26.52
257.104	28.6
257.32	26.48
257.535	23.92
257.75	16.91
257.965	14.24
258.18	13.93
258.395	11.01
258.61	13.18
258.826	13.21
259.041	13.67
259.256	9.76
259.471	5.83
259.686	4.98
259.901	4.43
260.116	5.85
260.331	6.93
260.546	6.73
260.761	10.14
260.976	9.54
261.191	10.07
261.406	10.14
261.621	11.03
261.836	14.06
262.05	10.34
262.265	7.54
262.48	11.72
262.695	11.11
262.91	15.49
263.125	15.15
263.34	16.48
263.555	15.47
263.769	9.25
263.984	10.03
264.199	9.91
264.414	15.37
264.629	19.27
264.843	16.32
265.058	16.36
265.273	14.24
265.488	12.44
265.702	11.29
265.917	7.35
266.132	11.78
266.346	15.65
266.561	13.48
266.776	12.03
266.99	11.53
267.205	11.89
267.42	9.99
267.634	10.83
267.849	12.26
268.063	14.42
268.278	19.02
268.492	16.32
268.707	16.51
268.922	16.5
269.136	15.24
269.351	20.97
269.565	20.31
269.78	24
269.994	21.22
270.209	20.41
270.423	21.19
270.637	17.17
270.852	18.69
271.066	17.77
271.281	17.44
271.495	17.26
271.709	8.04
271.924	7.96
272.138	8.73
272.353	6.91
272.567	5.6
272.781	1.66
272.996	3.7
273.21	4.02
273.424	5.85
273.638	5.18
273.853	5.98
274.067	10.28
274.281	13.25
274.495	8.77
274.71	15.53
274.924	14.01
275.138	16.23
275.352	14.05
275.566	10.22
275.781	8.77
275.995	14.53
276.209	16.1
276.423	12.29
276.637	7.96
276.851	9.41
277.065	-1.83
277.279	-3.86
277.493	-3.78
277.707	3.36
277.921	8.72
278.135	11.35
278.349	8.49
278.563	8.09
278.777	14.78
278.991	17.38
279.205	16.05
279.419	21.8
279.633	20.49
279.847	19.45
280.061	14.52
280.275	15.59
280.489	10.2
280.703	7.23
280.917	9.55
281.131	8.06
281.344	6.13
281.558	5.01
281.772	4.34
281.986	5.98
282.2	5.33
282.414	7.65
282.627	8.27
282.841	12.12
283.055	13.98
283.269	14.36
283.482	10.92
283.696	11.57
283.91	15.39
284.123	12.53
284.337	15
284.551	14.26
284.764	15.8
284.978	14.27
285.192	16.28
285.405	15.13
285.619	14.81
285.833	17.42
286.046	19.23
286.26	19.17
286.473	21.79
286.687	21.44
286.9	25.5
287.114	21.95
287.327	21
287.541	18.82
287.754	18.83
287.968	17.15
288.181	15.57
288.395	12.72
288.608	13.04
288.822	12.17
289.035	10.86
289.248	6.98
289.462	9.84
289.675	11.93
289.889	13.02
290.102	13.93
290.315	15.82
290.529	16.64
290.742	16.17
290.955	13.99
291.169	16.47
291.382	17.05
291.595	16.18
291.808	15.44
292.022	15.14
292.235	14.95
292.448	14.32
292.661	13.53
292.875	11.44
293.088	13.36
293.301	13.66
293.514	8.06
293.727	6.89
293.94	7.84
294.153	8.09
294.367	6.1
294.58	4.18
294.793	4.33
295.006	1.72
295.219	5.43
295.432	5.01
295.645	4.83
295.858	7.45
296.071	6.03
296.284	7.85
296.497	9.85
296.71	10.37
296.923	11.74
297.136	10.93
297.349	10.7
297.562	11.37
297.775	10.38
297.988	10.89
298.201	11.94
298.414	15.05
298.626	14.48
298.839	12.95
299.052	15.17
299.265	12
299.478	13.27
299.691	12.98
299.903	11.02
300.116	14.04
300.329	15.49
300.542	16.47
300.755	14.19
300.967	13.3
301.18	12.77
301.393	9.32
301.605	12.4
301.818	11.83
302.031	10.36
302.243	9.44
302.456	9.79
302.669	9.66
302.881	4.66
303.094	4
303.307	5.28
303.519	5.69
303.732	8.22
303.944	6.37
304.157	5.12
304.37	9.04
304.582	9.3
304.795	3.95
305.007	2.26
305.22	5.89
305.432	6.86
305.645	3.57
305.857	4.04
306.069	4.69
306.282	6.82
306.494	10.03
306.707	11.29
306.919	12.09
307.132	13.98
307.344	14.92
307.556	12.71
307.769	13.96
307.981	15.45
308.193	14.54
308.406	12.85
308.618	11.58
308.83	9.8
309.043	9.49
309.255	8.81
309.467	8.72
309.679	7.5
309.892	9.7
310.104	9.4
310.316	9.22
310.528	9.41
310.74	8.47
310.953	7.41
311.165	8.47
311.377	9.04
311.589	9.17
311.801	8.97
312.013	7.92
312.225	8.39
312.437	9.12
312.649	7.25
312.862	6.33
313.074	6.56
313.286	9.97
313.498	9.27
313.71	5.31
313.922	4.09
314.134	4.04
314.346	5.05
314.558	3.98
314.77	3.98
314.982	5.92
315.193	5.87
315.405	4.83
315.617	3.3
315.829	3.05
316.041	6.82
316.253	11.01
316.465	12
316.677	13.68
316.888	11.6
317.1	12.54
317.312	12.61
317.524	15.96
317.736	16.77
317.947	14.38
318.159	14.75
318.371	19.21
318.583	18.26
318.794	17.78
319.006	15.86
319.218	19.24
319.43	19.51
319.641	19.38
319.853	18.84
320.064	20.85
320.276	23.24
320.488	22.59
320.699	19.25
320.911	19.12
321.123	20.99
321.334	22.58
321.546	19.87
321.757	19
321.969	23.59
322.18	20.12
322.392	18.32
322.603	18.15
322.815	21.8
323.026	21.73
323.238	22.31
323.449	23.81
323.661	23.66
323.872	23.34
324.083	22.22
324.295	19.12
324.506	21.97
324.718	21.32
324.929	21.04
325.14	18.31
325.352	17.06
325.563	16.77
325.774	15.64
325.986	14.65
326.197	16.18
326.408	19.17
326.62	18.46
326.831	16.11
327.042	16.94
327.253	15.78
327.464	16.51
327.676	16.97
327.887	16.83
328.098	16.33
328.309	18.55
328.52	18.24
328.732	15.92
328.943	16.39
329.154	20.81
329.365	20.97
329.576	23.12
329.787	25.8
329.998	25.71
330.209	25.17
330.42	24.25
330.631	20.72
330.842	19.79
331.053	22.45
331.264	25.57
331.475	24.47
331.686	24.4
331.897	25
332.108	21.62
332.319	21.91
332.53	23.08
332.741	25.46
332.952	29.45
333.163	30.33
333.374	27.63
333.585	24.77
333.795	23.33
334.006	27.6
334.217	26.65
334.428	29.3
334.639	26.78
334.849	25.22
335.06	23.71
335.271	21.8
335.482	24.03
335.692	24.7
335.903	25.04
336.114	25.15
336.325	22.86
336.535	23.02
336.746	19.92
336.957	20.28
337.167	21.11
337.378	19.42
337.589	21.75
337.799	20.23
338.01	20
338.22	21.42
338.431	23.24
338.642	21.25
338.852	23.85
339.063	24.54
339.273	26.44
339.484	27.42
339.694	29.14
339.905	27.17
340.115	24.65
340.326	24.94
340.536	24.71
340.746	21.03
340.957	20.93
341.167	17.92
341.378	17.88
341.588	17.73
341.799	13.64
342.009	14.05
342.219	16.24
342.43	20.52
342.64	22.74
342.85	21.54
343.061	24.88
343.271	25.32
343.481	25.32
343.691	24.59
343.902	24.91
344.112	26.75
344.322	28.47
344.532	26.72
344.743	26.81
344.953	25
345.163	24.97
345.373	24.5
345.583	24.36
345.793	24.89
346.004	26.36
346.214	27.09
346.424	28.42
346.634	27.15
346.844	27.98
347.054	27.71
347.264	26.55
347.474	27.02
347.684	26.38
347.894	27.05
348.104	25.65
348.314	23.38
348.524	20.88
348.734	20.74
348.944	20.67
349.154	20.38
349.364	18.52
349.574	20.12
349.784	20.59
349.994	22.36
350.204	22.78
350.413	22.22
350.623	23.14
350.833	26.2
351.043	26.48
351.253	25.33
351.463	25.32
351.672	24.99
351.882	24.49
352.092	22.63
352.302	19.13
352.511	17.6
352.721	16.84
352.931	17.91
353.141	16.87
353.35	16.4
353.56	16.48
353.77	16.3
353.979	16.07
354.189	14.6
354.399	16.59
354.608	18.44
354.818	20.2
355.027	23.01
355.237	22.88
355.447	22.3
355.656	21.15
355.866	20.97
356.075	20.99
356.285	22.72
356.494	24.03
356.704	23.13
356.913	22.9
357.123	22.03
357.332	20.56
357.542	21.16
357.751	20.38
357.96	19.87
358.17	20.68
358.379	20.77
358.589	19.37
358.798	19.03
359.007	19.79
359.217	20.12
359.426	19.37
359.635	19.83
359.845	20.11
360.054	20.28
360.263	20.17
360.472	18.87
360.682	18.14
360.891	19.25
361.1	19.69
361.309	20.63
361.519	20.38
361.728	20.38
361.937	20.6
362.146	19.69
362.355	19.99
362.564	22.15
362.774	23.24
362.983	24.11
363.192	22.92
363.401	21.98
363.61	20.17
363.819	18.77
364.028	20.28
364.237	20.48
364.446	21.06
364.655	19.97
364.864	18.02
365.073	18.58
365.282	18.32
365.491	19.09
365.7	19.86
365.909	19.01
366.118	19.83
366.327	19.09
366.536	18.77
366.745	18.62
366.954	17.68
367.162	18.15
367.371	17.47
367.58	17.57
367.789	17.72
367.998	17.24
368.207	17.65
368.415	16.22
368.624	16.66
368.833	16.72
369.042	16.36
369.25	19.21
369.459	19.13
369.668	19.89
369.877	19.96
370.085	19.59
370.294	18.71
370.503	19.29
370.711	20.36
370.92	20.32
371.129	20.39
371.337	20.15
371.546	20.16
371.754	19.98
371.963	20.03
372.171	19.34
372.38	19.74
372.589	19.95
372.797	18.92
373.006	18.79
373.214	18.88
373.423	18.58
373.631	18.86
373.84	19.21
374.048	19.46
374.256	19.1
374.465	19.77
374.673	19.29
374.882	20.4
375.09	21.74
375.298	21.7
375.507	22.26
375.715	22.93
375.923	23.48
376.132	23.18
376.34	22.05
376.548	21.37
376.757	20.28
376.965	20.13
377.173	20
377.381	20.4
377.59	19.13
377.798	17.68
378.006	17.56
378.214	16.08
378.423	15.67
378.631	16.78
378.839	15.86
379.047	17.58
379.255	17.5
379.463	19.13
379.671	18.02
379.879	19.49
380.088	20.27
380.296	20.8
380.504	22.43
380.712	22.76
380.92	22.93
381.128	24.2
381.336	24
381.544	23.65
381.752	22.62
381.96	23.7
382.168	24
382.376	22.72
382.584	21.98
382.791	21.4
382.999	19.84
383.207	18.78
383.415	19.57
383.623	19.29
383.831	18.5
384.039	17.52
384.247	16.44
384.454	17.41
384.662	17.46
384.87	18
385.078	17.11
385.285	18.62
385.493	19.52
385.701	19
385.909	18.91
386.116	19.65
386.324	18.87
386.532	20.26
386.739	20.13
386.947	20.35
387.155	18.5
387.362	18.22
387.57	17.24
387.778	17.15
387.985	17.03
388.193	16.06
388.4	15.67
388.608	17.38
388.816	15.84
389.023	14.59
389.231	14.63
389.438	15.42
389.646	16.68
389.853	17.12
390.061	17.43
390.268	16.89
390.475	19.13
390.683	19.9
390.89	19.05
391.098	19.49
391.305	19.69
391.512	19.47
391.72	19.31
391.927	19.8
392.135	19.23
392.342	19.36
392.549	19.67
392.756	18.56
392.964	18.73
393.171	17.89
393.378	17.53
393.586	16.42
393.793	16.87
394	17.72
394.207	17.3
394.414	17.9
394.622	16.29
394.829	15.86
395.036	15.37
395.243	13.91
395.45	14.71
395.657	15
395.864	15.8
396.072	15.54
396.279	15.48
396.486	14.71
396.693	14.14
396.9	14.96
397.107	14.84
397.314	15.59
397.521	16.4
397.728	16.84
397.935	16.24
398.142	16.75
398.349	16.79
398.556	15.97
398.763	16.54
398.97	16.9
399.177	17.18
399.383	18.21
399.59	17.86
399.797	16.82
400.004	16.82
400.211	16.71
400.418	16.48
400.625	16.27
400.831	16.86
401.038	16.28
401.245	15.83
401.452	15.92
401.658	15.67
401.865	15.17
402.072	16.11
402.279	14.73
402.485	14.25
402.692	12.93
402.899	13
403.105	12.92
403.312	13.44
403.519	13.63
403.725	13.19
403.932	12.2
404.138	12.42
404.345	12.95
404.552	13.42
404.758	14.62
404.965	15.8
405.171	16.14
405.378	15.87
405.584	16.01
405.791	16.48
405.997	16.1
406.204	16.72
406.41	16.96
406.617	16.51
406.823	16.8
407.029	17.06
407.236	16.32
407.442	15.83
407.649	16.03
407.855	15.38
408.061	14.43
408.268	15.62
408.474	15.61
408.68	15.53
408.887	16.27
409.093	16.6
409.299	14.77
409.505	15.75
409.712	15.98
409.918	16.04
410.124	15.42
410.33	15.93
410.537	16.05
410.743	16.81
410.949	16.9
411.155	17.18
411.361	17.6
411.567	18.98
411.773	19.03
411.98	19.66
412.186	19.17
412.392	19.71
412.598	19.96
412.804	20.3
413.01	19.83
413.216	19.91
413.422	18.64
413.628	18.4
413.834	17.83
414.04	17.22
414.246	17.35
414.452	17.92
414.658	18.58
414.864	18.28
415.07	18.01
415.275	17.67
415.481	17.14
415.687	16.34
415.893	15.65
416.099	16.44
416.305	16.55
416.511	16.64
416.716	16.58
416.922	15.64
417.128	15.73
417.334	15.68
417.539	15.4
417.745	15.88
417.951	16.62
418.157	17.03
418.362	16.63
418.568	16.56
418.774	16.15
418.979	15.8
419.185	15.92
419.391	15.42
419.596	14.8
419.802	15.12
420.008	14.94
420.213	10.15
420.419	10.07
420.624	10.03
420.83	10.29
421.035	10.23
421.241	10.78
421.446	10.69
421.652	11.07
421.857	11.27
422.063	10.88
422.268	10.82
422.474	15.31
422.679	15.71
422.885	15.74
423.09	15.16
423.295	15.43
423.501	14.61
423.706	14.62
423.911	14.45
424.117	14.46
424.322	14.54
424.527	14.41
424.733	14.5
424.938	14.03
425.143	13.51
425.349	13.52
425.554	13.17
425.759	14.12
425.964	14.13
426.169	14.65
426.375	14.48
426.58	14.91
426.785	14.95
426.99	14.73
427.195	14.64
427.4	15.22
427.605	15.42
427.811	15.8
428.016	15.13
428.221	14.74
428.426	14.33
428.631	14.95
428.836	14.7
429.041	14.79
429.246	14.34
429.451	13.79
429.656	14.21
429.861	14.04
430.066	14.51
430.271	15.06
430.476	15.57
430.681	15.2
430.886	14.66
431.09	14.91
431.295	14.95
431.5	15.5
431.705	16.5
431.91	16.05
432.115	16.4
432.32	15.7
432.524	15.36
432.729	15.05
432.934	15.43
433.139	15.7
433.343	15.73
433.548	15.51
433.753	15.15
433.958	15
434.162	15.09
434.367	15.63
434.572	15.59
434.776	15.55
434.981	15.91
435.186	16.06
435.39	15.15
435.595	14.76
435.799	14.93
436.004	15.35
436.209	15.57
436.413	15.29
436.618	15.36
436.822	15.39
437.027	15.14
437.231	14.98
437.436	14.47
437.64	14.86
437.845	15.05
438.049	15.04
438.253	15.18
438.458	14.27
438.662	14.34
438.867	13.75
439.071	13.4
439.275	13.37
439.48	13.49
439.684	13.61
439.888	13.68
440.093	13.45
440.297	13.05
440.501	13.1
440.706	13.24
440.91	12.86
441.114	12.95
441.318	12.88
441.523	12.8
441.727	13.18
441.931	13.27
442.135	13.53
442.339	13.27
442.543	14.02
442.748	13.63
442.952	14.29
443.156	14.88
443.36	14.89
443.564	15.07
443.768	14.97
443.972	13.72
444.176	14.18
444.38	13.99
444.584	14.4
444.788	13.99
444.992	14.02
445.196	13.49
445.4	13.39
445.604	13.3
445.808	13.26
446.012	13.51
446.216	14.01
446.42	13.59
446.624	13.43
446.828	13.07
447.032	13.45
447.235	13.84
447.439	14.1
447.643	14.12
447.847	13.7
448.051	13.41
448.254	13.59
448.458	13.96
448.662	13.87
448.866	14.13
449.069	14.15
449.273	14.08
449.477	13.52
449.681	13.43
449.884	13.65
450.088	14.1
450.292	14.62
450.495	14.52
450.699	14.38
450.902	14.98
451.106	15.1
451.31	15.94
451.513	15.32
451.717	15.7
451.92	15.95
452.124	15.54
452.327	15.78
452.531	15.47
452.734	15.28
452.938	15.18
453.141	14.58
453.345	14.57
453.548	14.63
453.752	14.43
453.955	14.12
454.158	13.89
454.362	13.73
454.565	13.88
454.769	13.74
454.972	13.73
455.175	13.71
455.379	13.76
455.582	13.23
455.785	12.34
455.988	12.9
456.192	12.63
456.395	12.38
456.598	12.7
456.801	12.96
457.005	13.1
457.208	13.21
457.411	13.5
457.614	13.55
457.817	13.7
458.021	13.73
458.224	13.69
458.427	14.31
458.63	14.1
458.833	14.1
459.036	13.34
459.239	13.43
459.442	13.13
459.645	13.06
459.848	13.41
460.051	13.18
460.254	13.55
460.457	13.4
460.66	12.85
460.863	13.29
461.066	13.23
461.269	13.99
461.472	14.2
461.675	14.41
461.878	14.4
462.081	14.1
462.284	14.5
462.486	14.05
462.689	14.17
462.892	14.71
463.095	14.44
463.298	14.39
463.5	14.13
463.703	13.76
463.906	13.9
464.109	13.6
464.311	13.01
464.514	12.94
464.717	12.91
464.92	13.45
465.122	12.6
465.325	12.56
465.528	13.03
465.73	12.69
465.933	13.22
466.135	12.85
466.338	13.28
466.541	13.87
466.743	14.34
466.946	14.11
467.148	13.68
467.351	14.11
467.553	13.91
467.756	13.26
467.958	13.1
468.161	13.48
468.363	13.97
468.566	13.37
468.768	13.63
468.971	13.47
469.173	14.13
469.375	14.57
469.578	14.61
469.78	14.58
469.983	14.7
470.185	14.91
470.387	14.59
470.59	15.29
470.792	15.67
470.994	14.98
471.196	14.59
471.399	13.95
471.601	13.46
471.803	14
472.005	14.62
472.208	14.65
472.41	14.91
472.612	14.54
472.814	13.57
473.016	13.37
473.218	13.53
473.421	13.61
473.623	14.1
473.825	14.5
474.027	14.2
474.229	13.81
474.431	13.98
474.633	14.29
474.835	14.37
475.037	14.27
475.239	14.31
475.441	14.79
475.643	14.77
475.845	13.91
476.047	13.85
476.249	13.46
476.451	14.09
476.653	14.37
476.855	14.33
477.057	14.47
477.258	14.83
477.46	14.89
477.662	14.64
477.864	15.06
478.066	15.63
478.268	15.61
478.469	15.91
478.671	15.35
478.873	15.23
479.075	14.83
479.276	14.74
479.478	14.74
479.68	14.83
479.882	14.94
480.083	14.82
480.285	14.58
480.487	14.52
480.688	14.02
480.89	13.92
481.091	13.68
481.293	13.54
481.495	13.12
481.696	12.77
481.898	12.78
482.099	12.57
482.301	12.49
482.502	12.62
482.704	12.61
482.905	12.7
483.107	12.71
483.308	12.67
483.51	12.72
483.711	12.86
483.913	12.98
484.114	12.97
484.315	12.88
484.517	13.01
484.718	12.93
484.92	13.01
485.121	13
485.322	12.96
485.524	13.04
485.725	12.95
485.926	12.86
486.127	12.81
486.329	12.73
486.53	12.87
486.731	12.45
486.932	12.57
487.134	12.39
487.335	12.47
487.536	12.66
487.737	12.78
487.938	12.82
488.139	12.69
488.341	12.75
488.542	12.87
488.743	12.74
488.944	12.92
489.145	13.04
489.346	13.11
489.547	13.05
489.748	13.04
489.949	12.95
490.15	13.19
490.351	13.49
490.552	13.51
490.753	13.49
490.954	13.49
491.155	13.65
491.356	13.47
491.557	13.48
491.758	13.46
491.959	13.55
492.159	13.39
492.36	13.1
492.561	13.14
492.762	12.99
492.963	12.87
493.164	13.16
493.364	13.21
493.565	13.4
493.766	13.3
493.967	13.82
494.167	13.31
494.368	13.73
494.569	13.7
494.769	13.34
494.97	13.48
495.171	13.62
495.371	13.22
495.572	12.99
495.773	13
495.973	13.12
496.174	12.52
496.375	12.95
496.575	13.26
496.776	13.72
496.976	13.82
497.177	13.89
497.377	14.11
497.578	14.51
497.778	14.63
497.979	14.2
498.179	14.45
498.38	14.68
498.58	14.38
498.78	14.51
498.981	14.46
499.181	14.96
499.382	15.03
499.582	14.84
499.782	14.88
499.983	14.57
500.183	15.24
500.383	15.19
500.584	15.25
500.784	15.24
500.984	14.56
501.184	14.41
501.385	14.24
501.585	14.42
501.785	14.09
501.985	14.28
502.185	14.47
502.386	14.24
502.586	13.98
502.786	14.44
502.986	14.83
503.186	14.88
503.386	14.52
503.586	14.38
503.786	14.19
503.987	14.7
504.187	14.36
504.387	14.89
504.587	14.82
504.787	15.12
504.987	14.5
505.187	14.26
505.387	14.56
505.587	15.07
505.786	14.92
505.986	14.76
506.186	14.05
506.386	14.21
506.586	14.22
506.786	14.46
506.986	14.19
507.186	14.57
507.386	14.65
507.585	14.64
507.785	14.56
507.985	14.9
508.185	14.94
508.384	15.3
508.584	14.94
508.784	14.82
508.984	14.85
509.183	14.95
509.383	14.87
509.583	14.57
509.782	15
509.982	15.25
510.182	15.46
510.381	15.46
510.581	15.31
510.781	15.57
510.98	15.7
511.18	15.81
511.379	15.95
511.579	16.05
511.778	16.85
511.978	16.33
512.177	16.2
512.377	15.63
512.576	15.85
512.776	16.17
512.975	16.54
513.175	16.58
513.374	16.6
513.573	16.62
513.773	16.52
513.972	16.52
514.172	16.41
514.371	16.44
514.57	17.12
514.77	17.01
514.969	17.45
515.168	17.5
515.367	17.44
515.567	17.6
515.766	17.83
515.965	17.62
516.164	17.37
516.364	17.22
516.563	17.46
516.762	17.23
516.961	17.65
517.16	17.42
517.359	17.37
517.559	16.99
517.758	16.88
517.957	16.88
518.156	17.17
518.355	17.18
518.554	17.45
518.753	17.48
518.952	17.75
519.151	17.69
519.35	17.84
519.549	17.58
519.748	17.97
519.947	17.8
520.146	17.68
520.345	17.69
520.544	17.53
520.743	17.73
520.942	17.4
521.141	17.37
521.339	17.27
521.538	17.12
521.737	17.18
521.936	17.52
522.135	18.16
522.333	18.07
522.532	18.5
522.731	19.03
522.93	18.97
523.129	18.82
523.327	18.69
523.526	18.84
523.725	19.09
523.923	19.31
524.122	18.78
524.321	18.49
524.519	18.86
524.718	18.41
524.917	18.08
525.115	18.01
525.314	17.95
525.512	18.08
525.711	18.02
525.909	17.91
526.108	17.85
526.306	17.8
526.505	17.97
526.703	17.9
526.902	17.98
527.1	18.03
527.299	17.94
527.497	18.08
527.696	18
527.894	17.89
528.092	17.82
528.291	17.86
528.489	18.06
528.688	18.05
528.886	18.2
529.084	18.33
529.283	18.44
529.481	18.57
529.679	18.72
529.877	18.78
530.076	19.05
530.274	19.23
530.472	19.52
530.67	19.68
530.869	19.44
531.067	19.14
531.265	19.11
531.463	19.14
531.661	19.28
531.859	19.03
532.057	19.08
532.255	18.86
532.454	18.85
532.652	18.66
532.85	18.63
533.048	18.99
533.246	19.09
533.444	19.14
533.642	19.13
533.84	19.01
534.038	19.33
534.236	19.58
534.434	19.66
534.632	19.94
534.83	19.94
535.027	19.97
535.225	19.88
535.423	19.77
535.621	19.8
535.819	19.99
536.017	20.27
536.215	20.29
536.412	20.45
536.61	20.51
536.808	20.61
537.006	20.85
537.203	21.38
537.401	21.49
537.599	22.04
537.797	22.46
537.994	22.66
538.192	22.62
538.39	22.9
538.587	22.72
538.785	22.74
538.983	22.8
539.18	23.02
539.378	22.55
539.575	22.38
539.773	21.93
539.97	21.59
540.168	21.7
540.366	21.54
540.563	21.78
540.761	21.76
540.958	21.78
541.155	21.69
541.353	21.6
541.55	21.6
541.748	21.75
541.945	22.14
542.143	22.4
542.34	22.17
542.537	22.38
542.735	22.12
542.932	22.04
543.129	22.51
543.327	22.74
543.524	22.75
543.721	22.83
543.919	22.58
544.116	22.3
544.313	22.24
544.51	22.35
544.708	22.47
544.905	22.73
545.102	23.02
545.299	22.65
545.496	22.44
545.693	22.25
545.891	22.45
546.088	22.51
546.285	23.04
546.482	23.08
546.679	23.17
546.876	23.47
547.073	23.41
547.27	23.42
547.467	23.53
547.664	23.47
547.861	23.86
548.058	24.04
548.255	25.04
548.452	24.89
548.649	25.41
548.846	25.86
549.043	25.27
549.24	25.33
549.437	25.64
549.633	26.18
549.83	26.47
550.027	26.75
550.224	26.62
550.421	25.87
550.618	26.08
550.814	25.89
551.011	26.02
551.208	26.32
551.405	26.02
551.601	25.73
551.798	25.49
551.995	25.18
552.191	25.04
552.388	24.92
552.585	25.39
552.781	25.03
552.978	25.29
553.175	24.79
553.371	25.23
553.568	25.73
553.764	25.81
553.961	26.03
554.157	26.77
554.354	27.17
554.55	27.61
554.747	27.98
554.943	28.4
555.14	28.14
555.336	28.49
555.533	28.84
555.729	29.06
555.926	29.09
556.122	29.34
556.318	29.12
556.515	29.25
556.711	28.82
556.907	27.9
557.104	28.05
557.3	28.6
557.496	28.7
557.693	28.73
557.889	28.28
558.085	28.74
558.281	28.58
558.478	28.69
558.674	29.01
558.87	29.58
559.066	29.93
559.262	29.49
559.459	29.41
559.655	29.95
559.851	29.75
560.047	30.28
560.243	30.53
560.439	30.65
560.635	31.39
560.831	31.76
561.027	31.94
561.223	32.26
561.419	32.8
561.615	32.43
561.811	31.71
562.007	31.63
562.203	31.18
562.399	30.26
562.595	30.61
562.791	30.49
562.987	30.17
563.183	30.38
563.379	30.51
563.575	30.59
563.771	31.09
563.966	31.44
564.162	31.82
564.358	32.18
564.554	32.86
564.75	32.73
564.945	32.47
565.141	32.09
565.337	31.9
565.533	31.93
565.728	31.73
565.924	31.98
566.12	32.1
566.315	31.28
566.511	31.5
566.707	31.85
566.902	31.68
567.098	31.78
567.293	31.75
567.489	32
567.684	31.94
567.88	31.83
568.076	31.66
568.271	32.03
568.467	33.25
568.662	33.42
568.858	32.88
569.053	33.53
569.248	33.41
569.444	33.75
569.639	33.92
569.835	33.94
570.03	34.62
570.225	34.78
570.421	34.35
570.616	34.02
570.812	33.81
571.007	34.11
571.202	34.09
571.397	34.11
571.593	34.08
571.788	34.13
571.983	34.32
572.178	34.1
572.374	34.46
572.569	34.56
572.764	35.22
572.959	35.17
573.154	35.52
573.35	35.96
573.545	36.49
573.74	36.75
573.935	36.18
574.13	36.24
574.325	36.09
574.52	35.86
574.715	36.38
574.91	35.89
575.105	35.96
575.3	35.78
575.495	35.58
575.69	35.61
575.885	35.61
576.08	36.2
576.275	36.86
576.47	37.23
576.665	37.83
576.86	37.77
577.055	37.62
577.25	37.87
577.444	37.62
577.639	37.1
577.834	36.98
578.029	37.54
578.224	37.54
578.418	37.48
578.613	37.47
578.808	36.78
579.003	36.63
579.197	37.42
579.392	37.98
579.587	38.97
579.781	39.45
579.976	38.66
580.171	38.42
580.365	38.09
580.56	37.57
580.755	37.44
580.949	37.76
581.144	37.8
581.338	37.72
581.533	37.04
581.727	36.11
581.922	36.23
582.116	36.9
582.311	36.57
582.505	36.72
582.7	37.22
582.894	37.82
583.089	37.51
583.283	37.72
583.478	36.75
583.672	37.23
583.866	37.89
584.061	37.97
584.255	38.68
584.449	39.14
584.644	39.69
584.838	39.56
585.032	39.56
585.226	39.36
585.421	39.51
585.615	40.66
585.809	40.54
586.003	39.73
586.198	39.69
586.392	38.85
586.586	38.75
586.78	38.55
586.974	37.6
587.168	37.82
587.363	38.14
587.557	38.16
587.751	37.27
587.945	37.84
588.139	38.7
588.333	38.96
588.527	39.18
588.721	39.42
588.915	39.85
589.109	40.8
589.303	40.94
589.497	41.4
589.691	41.52
589.885	42.92
590.079	42.98
590.273	42.24
590.466	41.92
590.66	42.19
590.854	42.15
591.048	42.19
591.242	42.06
591.436	41.27
591.629	40.24
591.823	40.48
592.017	39.61
592.211	39.59
592.404	40.16
592.598	40.66
592.792	40.8
592.986	40.99
593.179	41.08
593.373	41.75
593.567	41.82
593.76	42.03
593.954	41.91
594.147	42.22
594.341	42.17
594.535	42.82
594.728	42.11
594.922	42.34
595.115	41.58
595.309	41.43
595.502	41.09
595.696	41.51
595.889	41.8
596.083	41.54
596.276	41.44
596.47	41.29
596.663	41.32
596.856	41.68
597.05	41.02
597.243	41.69
597.437	41.51
597.63	41.55
597.823	41.41
598.017	41.48
598.21	42.05
598.403	42.48
598.596	42.33
598.79	41.78
598.983	42.71
599.176	42.88
599.369	42.48
599.563	43.55
599.756	43.56
599.949	43.75
600.142	43.35
600.335	43.74
600.528	43.62
600.722	43.8
600.915	43.96
601.108	42.2
601.301	42.79
601.494	42.88
601.687	41.7
601.88	41.78
602.073	41.31
602.266	41.49
602.459	41.27
602.652	41.4
602.845	40.9
603.038	40.63
603.231	41.42
603.424	41.63
603.617	41.26
603.809	41.69
604.002	41.74
604.195	42.62
604.388	42.87
604.581	42.93
604.774	42.92
604.966	43.39
605.159	43.26
605.352	42.87
605.545	42.31
605.737	42.61
605.93	42.48
606.123	42.04
606.316	41.04
606.508	40.98
606.701	40.19
606.894	40.17
607.086	40.65
607.279	41.33
607.471	42.75
607.664	43.29
607.857	43.73
608.049	44.21
608.242	43.8
608.434	44.38
608.627	45.12
608.819	45.27
609.012	44.85
609.204	44.41
609.397	44.95
609.589	44.13
609.782	44.55
609.974	44.56
610.166	44.46
610.359	45.65
610.551	45.59
610.743	45.1
610.936	46.02
611.128	46.75
611.32	47
611.513	46.62
611.705	46.05
611.897	45.15
612.09	44.81
612.282	44.25
612.474	44.25
612.666	44.23
612.858	44.35
613.051	43.13
613.243	42.73
613.435	43.01
613.627	43.18
613.819	43.81
614.011	44.5
614.203	45.24
614.395	45.79
614.588	45.51
614.78	45.73
614.972	45.88
615.164	46.93
615.356	46.4
615.548	46.05
615.74	45.79
615.932	45.61
616.124	46.15
616.315	45.46
616.507	44.62
616.699	44.97
616.891	44.8
617.083	44.27
617.275	43.93
617.467	43.95
617.659	44.58
617.85	43.96
618.042	44.62
618.234	43.28
618.426	43.97
618.618	45.19
618.809	44.5
619.001	43.46
619.193	43.67
619.384	44.33
619.576	44.96
619.768	44.1
619.959	44.05
620.151	43.2
620.343	43.28
620.534	42.72
620.726	41.32
620.917	41.1
621.109	42.13
621.301	42.07
621.492	41.81
621.684	41.67
621.875	41.97
622.067	42.86
622.258	42.97
622.45	43.42
622.641	44.53
622.832	45.29
623.024	46.11
623.215	46.38
623.407	46.37
623.598	45.59
623.789	45.42
623.981	45.86
624.172	45.95
624.363	46.59
624.555	46.18
624.746	44.99
624.937	45.48
625.129	44.78
625.32	43.55
625.511	43.68
625.702	44.23
625.893	44.41
626.085	45.03
626.276	44.68
626.467	44.58
626.658	44.99
626.849	45
627.04	45.03
627.231	45.28
627.422	46.49
627.614	45.88
627.805	45.78
627.996	46.07
628.187	45.36
628.378	45.27
628.569	45.38
628.76	46
628.951	46.1
629.142	45.8
629.332	45.9
629.523	45.82
629.714	46.15
629.905	46.78
630.096	46.42
630.287	45.88
630.478	46.27
630.669	45.92
630.859	44.61
631.05	45.54
631.241	46.09
631.432	45.85
631.623	45.3
631.813	45.72
632.004	45.42
632.195	45.49
632.385	46.44
632.576	46.19
632.767	47.24
632.957	47.49
633.148	47.49
633.339	46.95
633.529	48.03
633.72	47.92
633.91	47.84
634.101	47.59
634.292	47.43
634.482	46.23
634.673	46.19
634.863	45.29
635.054	45.15
635.244	44.89
635.435	44.4
635.625	44.27
635.815	45.47
636.006	45.19
636.196	45.79
636.387	46.4
636.577	46.64
636.767	46.76
636.958	46.88
637.148	48.4
637.338	48.07
637.529	48.36
637.719	47.91
637.909	47.4
638.099	47.96
638.29	47.56
638.48	46.81
638.67	46.69
638.86	46.66
639.05	47.09
639.241	45.87
639.431	46.31
639.621	46.85
639.811	46.3
640.001	45.97
640.191	46.13
640.381	45.66
640.571	46.12
640.761	46.86
640.951	46.6
641.141	46.37
641.331	46.42
641.521	45.82
641.711	45.73
641.901	46.86
642.091	47.64
642.281	46.28
642.471	46.08
642.661	46.84
642.851	46.33
643.041	47.38
643.231	46.53
643.42	46.91
643.61	47.47
643.8	47.02
643.99	46.61
644.18	46.9
644.369	48.49
644.559	48.88
644.749	47.56
644.939	48.19
645.128	47.5
645.318	48.2
645.508	47.63
645.697	47.38
645.887	48.28
646.076	48.32
646.266	47.72
646.456	47.41
646.645	46.83
646.835	48.18
647.024	48.2
647.214	47.54
647.403	47.66
647.593	48.37
647.782	48.08
647.972	48.04
648.161	47.46
648.351	47.04
648.54	46.96
648.73	47.66
648.919	46.62
649.108	47.61
649.298	47.68
649.487	47.97
649.677	47.89
649.866	48.08
650.055	47.02
650.244	48.22
650.434	49.46
650.623	49.5
650.812	49.59
651.002	50.16
651.191	49.57
651.38	48.88
651.569	48.13
651.758	47.45
651.947	48.52
652.137	48.68
652.326	47.27
652.515	45.97
652.704	45.45
652.893	45.03
653.082	44.65
653.271	44.07
653.46	45.7
653.649	45.91
653.838	45.95
654.027	45.22
654.216	45.36
654.405	46.93
654.594	46.6
654.783	47.65
654.972	47.52
655.161	48.02
655.35	47.84
655.539	47.85
655.728	47.98
655.916	47.93
656.105	48.66
656.294	48.16
656.483	47.15
656.672	48.43
656.86	47.91
657.049	48.37
657.238	48.73
657.427	49.05
657.615	48.71
657.804	47.88
657.993	47.36
658.181	45.98
658.37	46.98
658.559	46.44
658.747	45.2
658.936	44.81
659.125	44.28
659.313	43.95
659.502	43.56
659.69	43.56
659.879	44.89
660.067	45.88
660.256	46.59
660.444	47.19
660.633	48.52
660.821	48.99
661.01	48.57
661.198	48.87
661.387	48.38
661.575	48.16
661.763	47.95
661.952	46.95
662.14	45.04
662.328	44.83
662.517	42.59
662.705	41.51
662.893	41.66
663.082	42.85
663.27	42.91
663.458	43.02
663.646	43.35
663.834	43.7
664.023	43.66
664.211	45.39
664.399	46.36
664.587	48.2
664.775	49.02
664.963	49.85
665.152	50.02
665.34	51.17
665.528	51.34
665.716	51.49
665.904	51.48
666.092	51.07
666.28	51.85
666.468	51.1
666.656	50.61
666.844	49.58
667.032	48.64
667.22	48.36
667.408	47.9
667.596	47.78
667.784	47.04
667.971	47.13
668.159	46.86
668.347	46.35
668.535	46.14
668.723	46.88
668.911	47.89
669.098	48.31
669.286	47.59
669.474	48.1
669.662	48.53
669.849	48.56
670.037	46.97
670.225	48.31
670.413	48.86
670.6	50.1
670.788	49.52
670.976	48.93
671.163	48.4
671.351	48.63
671.538	48.19
671.726	47.86
671.913	48.22
672.101	49.5
672.289	49.61
672.476	48.39
672.664	47.73
672.851	47.29
673.039	46.13
673.226	45.99
673.413	46.45
673.601	47.84
673.788	47.41
673.976	47.97
674.163	48.48
674.35	47.04
674.538	47.41
674.725	47.67
674.912	49.13
675.1	50.59
675.287	51.65
675.474	51.81
675.662	49.8
675.849	49.66
676.036	49.53
676.223	49.46
676.411	50.55
676.598	52.15
676.785	51.79
676.972	50.11
677.159	51.23
677.346	50.59
677.533	49.74
677.721	50.72
677.908	50.85
678.095	51.22
678.282	51.19
678.469	50.56
678.656	49.19
678.843	49.17
679.03	50.18
679.217	49.82
679.404	49.76
679.591	49.79
679.778	49.91
679.964	50.27
680.151	50.6
680.338	50.23
680.525	50.09
680.712	49.94
680.899	50.28
681.086	49.29
681.272	48.27
681.459	48.22
681.646	48.53
681.833	48.28
682.02	48.57
682.206	47.83
682.393	48.08
682.58	48.2
682.766	48.94
682.953	48.61
683.14	49.21
683.326	48.78
683.513	48.93
683.7	48.81
683.886	48.2
684.073	47.36
684.259	46.98
684.446	47.18
684.632	48.04
684.819	47.23
685.005	46.85
685.192	47.35
685.378	48.44
685.565	48.8
685.751	49.26
685.938	49.12
686.124	50.54
686.31	51.3
686.497	50.46
686.683	49.97
686.87	49.65
687.056	49.07
687.242	49.32
687.429	48.46
687.615	47.54
687.801	47.9
687.987	48.01
688.174	46.73
688.36	45.97
688.546	46.87
688.732	46.89
688.918	46.14
689.105	46.74
689.291	47.86
689.477	47.11
689.663	48.57
689.849	48.13
690.035	48.63
690.221	49.85
690.407	51.39
690.593	50.97
690.779	51.21
690.965	52.64
691.151	52.06
691.337	49.45
691.523	51.38
691.709	50.61
691.895	50.76
692.081	49.49
692.267	46.14
692.453	45.11
692.639	45.63
692.825	43.76
693.011	43.65
693.196	44.04
693.382	43.43
693.568	42.26
693.754	42.28
693.94	42.13
694.125	42.91
694.311	45.83
694.497	44.82
694.682	45.07
694.868	46.91
695.054	48.75
695.239	48.74
695.425	49.38
695.611	49.68
695.796	50.59
695.982	50.72
696.168	49.46
696.353	48.35
696.539	48.77
696.724	47.47
696.91	46.87
697.095	45.79
697.281	46
697.466	46.76
697.652	47.49
697.837	46.26
698.023	46.22
698.208	46.83
698.393	46.7
698.579	47.75
698.764	48.85
698.949	49.22
699.135	50.11
699.32	49.96
699.505	49.66
699.691	49.33
699.876	49.9
700.061	50.4
700.246	51.19
700.432	51.49
700.617	51.07
700.802	51.25
700.987	51.8
701.172	51.62
701.358	53.83
701.543	54.53
701.728	54.38
701.913	54.21
702.098	53.32
702.283	52.62
702.468	52.83
702.653	52.78
702.838	53.06
703.023	51.95
703.208	52.12
703.393	50.07
703.578	50.85
703.763	51.69
703.948	52.7
704.133	53.71
704.318	54.46
704.503	55.08
704.688	55.44
704.873	55.14
705.057	56.13
705.242	54.58
705.427	54.57
705.612	53.32
705.797	51.92
705.981	52.77
706.166	52.3
706.351	52.36
706.536	50.67
706.72	48.81
706.905	47.3
707.09	46.26
707.274	46.25
707.459	45.99
707.644	46.23
707.828	45.5
708.013	45.29
708.197	46.26
708.382	45.63
708.567	47.55
708.751	47.11
708.936	49.24
709.12	49.49
709.305	48.81
709.489	48.26
709.673	49.65
709.858	50.9
710.042	49.33
710.227	47.78
710.411	48.59
710.596	48
710.78	48.83
710.964	48.58
711.149	48.53
711.333	49.26
711.517	49.12
711.702	47.93
711.886	47.24
712.07	47.87
712.254	48.21
712.438	45.89
712.623	45.47
712.807	47.06
712.991	47.3
713.175	47.51
713.359	48.13
713.544	48.06
713.728	47.03
713.912	49.97
714.096	48.98
714.28	48.19
714.464	50.21
714.648	51.41
714.832	50.9
715.016	50.2
715.2	52.1
715.384	50.74
715.568	52.7
715.752	52.82
715.936	51.33
716.12	52.99
716.304	53.93
716.488	53.29
716.671	51.78
716.855	50.2
717.039	49.94
717.223	48.35
717.407	49.65
717.59	49.14
717.774	50.54
717.958	48.13
718.142	47.46
718.325	49.55
718.509	48.75
718.693	49.11
718.877	49.34
719.06	50.67
719.244	50.38
719.428	52.73
719.611	51.63
719.795	50.23
719.978	52.38
720.162	53.49
720.345	52.59
720.529	55.26
720.713	56.74
720.896	57.71
721.08	56.33
721.263	55.94
721.446	54.24
721.63	55.18
721.813	57.6
721.997	56.75
722.18	54.81
722.364	52.39
722.547	49.4
722.73	48.76
722.914	48.95
723.097	50.26
723.28	53.3
723.464	51.9
723.647	52.46
723.83	51.48
724.013	51
724.197	48.78
724.38	49.84
724.563	50.34
724.746	50.69
724.929	51.42
725.112	50.29
725.296	49.9
725.479	49.94
725.662	48.8
725.845	48.61
726.028	48.63
726.211	50.84
726.394	51.53
726.577	52.09
726.76	53.03
726.943	52.13
727.126	51.31
727.309	50.94
727.492	49.18
727.675	49.32
727.858	48.21
728.041	46.76
728.224	46.41
728.407	45.73
728.589	49.05
728.772	47.5
728.955	47.62
729.138	47.89
729.321	45.56
729.503	46.5
729.686	48.83
729.869	48.34
730.052	49.74
730.234	52.38
730.417	53.25
730.6	51.2
730.782	51.99
730.965	51.49
731.148	52.13
731.33	51.78
731.513	52.98
731.695	53.49
731.878	54.26
732.061	54.24
732.243	52.98
732.426	51.58
732.608	52.29
732.791	51.74
732.973	53.4
733.156	53.31
733.338	53.94
733.52	55.08
733.703	53.34
733.885	51.62
734.068	54.55
734.25	56.04
734.432	56.94
734.615	54.6
734.797	54.55
734.979	53.16
735.162	54.49
735.344	54.24
735.526	52.53
735.708	52.41
735.891	54.19
736.073	53.02
736.255	48.9
736.437	48.95
736.619	49.58
736.802	49.05
736.984	51.02
737.166	50.29
737.348	52.59
737.53	53.25
737.712	49.67
737.894	51.29
738.076	47.78
738.258	50.77
738.44	51.39
738.622	51.47
738.804	53.54
738.986	52.2
739.168	49.05
739.35	47.67
739.532	45.85
739.714	49.53
739.896	50.45
740.078	52.21
740.259	53.08
740.441	52.33
740.623	51.78
740.805	52.14
740.987	53.3
741.168	57.16
741.35	58.2
741.532	58.2
741.714	56.09
741.895	55.47
742.077	57.52
742.259	56.63
742.44	59.55
742.622	59.7
742.804	57.62
742.985	53.56
743.167	52.82
743.348	54.44
743.53	56.48
743.711	58.91
743.893	58.44
744.075	58.62
744.256	58.6
744.438	51.68
744.619	54.61
744.8	55.04
744.982	57.2
745.163	57.02
745.345	53.93
745.526	53.32
745.707	53.89
745.889	51.5
746.07	52.71
746.252	53.48
746.433	61.02
746.614	61.57
746.795	62.65
746.977	60.91
747.158	57.7
747.339	57.65
747.52	59.61
747.702	56.86
747.883	55.21
748.064	54.65
748.245	54.19
748.426	50.29
748.607	48.63
748.788	46.36
748.97	48.74
749.151	49.12
749.332	48.05
749.513	47.31
749.694	46.87
749.875	50.05
750.056	49.12
750.237	47.82
750.418	48.61
750.599	46.85
750.78	49.95
750.96	50.1
751.141	53.95
751.322	53.88
751.503	48.23
751.684	51.41
751.865	51.41
752.046	49.76
752.226	51.18
752.407	55.5
752.588	57.55
752.769	55.68
752.949	53.37
753.13	54.57
753.311	54.77
753.492	57.56
753.672	55.88
753.853	55.23
754.034	57.33
754.214	54.6
754.395	50.98
754.575	50.64
754.756	51.95
754.937	55.66
755.117	55.72
755.298	57.62
755.478	59.76
755.659	61.85
755.839	61.92
756.02	59.44
756.2	58.94
756.381	57.63
756.561	55.56
756.741	56.01
756.922	56.5
757.102	53.92
757.283	52.01
757.463	54.01
757.643	51.46
757.823	50.5
758.004	53.28
758.184	52.97
758.364	51.84
758.545	54.5
758.725	51.47
758.905	48.27
759.085	48.08
759.265	49
759.446	44.48
759.626	44.55
759.806	41.63
759.986	40.05
760.166	40.91
760.346	42.73
760.526	40.75
760.706	41.24
760.886	42.74
761.066	40.97
761.246	40.52
761.426	44.71
761.606	45.61
761.786	49.17
761.966	50.57
762.146	51.46
762.326	48.04
762.506	49.83
762.686	49.74
762.866	49.36
763.046	50.43
763.225	52.41
763.405	49.98
763.585	48.81
763.765	49.16
763.945	49.83
764.124	49.1
764.304	51.21
764.484	50.92
764.664	51.87
764.843	51.63
765.023	51.93
765.203	49.19
765.382	51.33
765.562	53.41
765.741	52.8
765.921	51.62
766.101	51.28
766.28	52.96
766.46	54.61
766.639	55.57
766.819	61.42
766.998	65.73
767.178	68.42
767.357	74.9
767.537	75.15
767.716	77.34
767.896	77.01
768.075	77.47
768.254	77.66
768.434	73.25
768.613	75.21
768.792	68.11
768.972	65.96
769.151	67
769.33	59.98
769.51	59.11
769.689	61.03
769.868	61.41
770.047	62.2
770.226	62.68
770.406	63.79
770.585	63.05
770.764	65.33
770.943	62.01
771.122	58.91
771.301	55.86
771.48	58.18
771.66	55.4
771.839	56.59
772.018	58.54
772.197	57.91
772.376	57.08
772.555	52.61
772.734	53.54
772.913	56.66
773.092	56.53
773.271	56.38
773.449	58.23
773.628	55.25
773.807	56.05
773.986	52.45
774.165	54.03
774.344	57.51
774.523	60.15
774.701	60.25
774.88	61.86
775.059	62.51
775.238	63.68
775.417	61.11
775.595	62.02
775.774	57.31
775.953	59.99
776.131	52.37
776.31	48.42
776.489	45.69
776.667	43.71
776.846	44.77
777.025	42.28
777.203	41.73
777.382	37.82
777.56	45.1
777.739	47.9
777.917	50.67
778.096	60.72
778.274	66.14
778.453	70.26
778.631	70.84
778.81	64
778.988	65.56
779.166	70.27
779.345	70.01
779.523	64.73
779.702	65.67
779.88	60.67
780.058	54.51
780.237	49.81
780.415	49.33
780.593	50.27
780.771	54.64
780.95	55.51
781.128	51.89
781.306	54.26
781.484	56.43
781.662	53.15
781.841	54.27
782.019	59.99
782.197	61
782.375	62.88
782.553	62.22
782.731	61.3
782.909	59.26
783.087	58.06
783.265	63.87
783.443	54.02
783.621	52.27
783.799	50.35
783.977	48.78
784.155	50.99
784.333	47.81
784.511	49.1
784.689	49.49
784.867	54.73
785.045	58.65
785.223	55.77
785.4	63.29
785.578	65.66
785.756	66.84
785.934	67.33
786.112	66.99
786.289	70.25
786.467	65.31
786.645	65.61
786.823	65.13
787	64.22
787.178	62.35
787.356	61.84
787.533	61.85
787.711	65.68
787.889	66.84
788.066	67.89
788.244	68.32
788.421	69.37
788.599	68.13
788.776	61.86
788.954	58.77
789.131	57.23
789.309	48.76
789.486	49.87
789.664	48.41
789.841	46.38
790.019	45.42
790.196	49.93
790.373	54.67
790.551	57.54
790.728	66.79
790.906	67.48
791.083	71.22
791.26	81.51
791.437	77.46
791.615	78.66
791.792	81.38
791.969	77.11
792.146	75.01
792.324	72.93
792.501	67.27
792.678	60.81
792.855	57.67
793.032	59.07
793.209	60.41
793.387	64.4
793.564	62.77
793.741	62.23
793.918	64.33
794.095	57.96
794.272	54.96
794.449	54.14
794.626	52.29
794.803	51.27
794.98	47.82
795.157	45.17
795.334	41.29
795.511	39.17
795.688	36
795.864	36.52
796.041	32.67
796.218	33.2
796.395	38.47
796.572	39.76
796.749	42.4
796.925	46.59
797.102	47.47
797.279	48.65
797.456	46.55
797.632	48.48
797.809	43.52
797.986	48.98
798.162	53.73
798.339	49.3
798.516	51.22
798.692	51.59
798.869	53.01
799.046	47.75
799.222	45.68
799.399	50.67
799.575	46.33
799.752	43.51
799.928	44.27
800.105	39.48
800.281	40.72
800.458	39.12
800.634	43.39
800.811	41.65
800.987	51.62
801.163	55.87
801.34	53.98
801.516	62.62
801.692	67.28
801.869	62.41
802.045	67.97
802.221	69.95
802.398	78.29
802.574	77.72
802.75	77.47
802.926	78
803.103	78.58
803.279	79.85
803.455	78.42
803.631	84.96
803.807	85.55
803.983	82.28
804.16	84.24
804.336	79.29
804.512	77.63
804.688	79.19
804.864	79.29
805.04	70.33
805.216	66.46
805.392	65.12
805.568	56.01
805.744	62.19
805.92	67.89
806.096	65.61
806.272	55.05
806.448	54.36
806.623	48.19
806.799	46.66
806.975	47.72
807.151	53.77
807.327	58.73
807.503	64.22
807.678	63.42
807.854	62.45
808.03	62.52
808.206	69.86
808.381	75.53
808.557	78.78
808.733	80.75
808.908	81.28
809.084	79.59
809.26	68.55
809.435	70.73
809.611	74.95
809.787	71.2
809.962	75.25
810.138	78.18
810.313	66.94
810.489	79.76
810.664	77.56
810.84	81.34
811.015	78.16
811.191	82.25
811.366	77.7
811.542	72.72
811.717	75.59
811.892	79.11
812.068	79.5
812.243	87.18
812.419	73.59
812.594	63.85
812.769	68.15
812.944	71.3
813.12	69.14
813.295	73.31
813.47	72.56
813.645	72.05
813.821	67.46
813.996	60.05
814.171	56.48
814.346	61.23
814.521	65.96
814.697	59.45
814.872	60.17
815.047	62.11
815.222	61.15
815.397	54.44
815.572	57.39
815.747	54.71
815.922	56.75
816.097	55.09
816.272	54.74
816.447	58.59
816.622	57.22
816.797	54.76
816.972	57.39
817.147	53.74
817.322	56.45
817.496	55.69
817.671	48.62
817.846	44.76
818.021	47.36
818.196	49.79
818.371	45.1
818.545	52.88
818.72	51.49
818.895	43.95
819.069	49.32
819.244	55.09
819.419	52.73
819.594	55.61
819.768	53.19
819.943	49
820.117	42.61
820.292	41.56
820.467	42.24
820.641	43.07
820.816	43.79
820.99	42.9
821.165	40.61
821.339	41.4
821.514	42.15
821.688	42.93
821.863	43.16
822.037	45.05
822.212	45.04
822.386	44.48
822.56	44.27
822.735	44.36
822.909	44.75
823.084	46.9
823.258	45.57
823.432	46.33
823.606	46.87
823.781	48.07
823.955	47.63
824.129	48.39
824.303	47.09
824.478	47.99
824.652	48.31
824.826	47.07
825	44.63
825.174	46.86
825.348	44.9
825.523	45.79
825.697	44.28
825.871	46.4
826.045	45.86
826.219	46.49
826.393	45.51
826.567	47.09
826.741	49.86
826.915	50.79
827.089	49.22
827.263	49.83
827.437	50.15
827.611	49.46
827.784	48.98
827.958	51.18
828.132	53.26
828.306	56.29
828.48	53.07
828.654	51.02
828.827	51.06
829.001	52.01
829.175	57.07
829.349	58.3
829.522	62.16
829.696	57.91
829.87	59.72
830.044	59.86
830.217	56.22
830.391	57.41
830.565	60.53
830.738	60.3
830.912	62.61
831.085	53.38
831.259	51.56
831.432	55.81
831.606	58.35
831.779	55.28
831.953	53.58
832.126	58.29
832.3	56.26
832.473	44.9
832.647	42.91
832.82	44.4
832.994	46.87
833.167	42.34
833.34	38.9
833.514	38.14
833.687	39.98
833.86	41.94
834.034	36.59
834.207	39.6
834.38	43.61
834.553	45.9
834.727	43.45
834.9	45.93
835.073	48.92
835.246	51.09
835.419	52.43
835.593	48.08
835.766	43.67
835.939	46.18
836.112	46.89
836.285	51.45
836.458	49.89
836.631	55.78
836.804	50.42
836.977	53.61
837.15	49.34
837.323	49.26
837.496	56.69
837.669	57.9
837.842	61.99
838.015	74.75
838.188	79.82
838.361	78.57
838.533	71.93
838.706	72.42
838.879	72.2
839.052	80.4
839.225	95.06
839.398	83.16
839.57	80.91
839.743	75.71
839.916	65.94
840.088	59.04
840.261	62.12
840.434	61.48
840.607	72.01
840.779	69.87
840.952	67.18
841.124	68.4
841.297	70.71
841.47	71.47
841.642	79.5
841.815	80.49
841.987	82.69
842.16	84.5
842.332	98.58
842.505	79.04
842.677	92.87
842.85	103.65
843.022	106.21
843.194	111.73
843.367	104.38
843.539	74.09
843.712	76.64
843.884	68.12
844.056	71.19
844.229	54.37
844.401	70.31
844.573	79.13
844.745	65.26
844.918	62.2
845.09	82.83
845.262	112.89
845.434	174.77
845.606	219.04
845.779	325.31
845.951	635.88
846.123	689.86
846.295	594.84
846.467	358.67
846.639	387.2
846.811	964.62
846.983	679.21
847.155	928.44
847.327	398.6
847.499	291.6
847.671	305.66
847.843	260.78
848.015	240.22
848.187	247.9
848.359	1107.71
848.531	-895.7
848.703	779.06
848.875	-1504.08
849.047	884.81
849.218	-393.33
849.39	-16.98
849.562	-61.46
849.734	-60.89
849.905	-71.97
850.077	-157.06
850.249	754.15
850.421	469.41
850.592	-381.45
850.764	300
850.936	347.21
851.107	117.94
851.279	130.45
851.451	74.23
851.622	72.24
851.794	78.04
851.965	75.27
852.137	81.38
852.308	108.86
852.48	107.47
852.651	102.17
852.823	114.21
852.994	157.34
853.166	180.84
853.337	290.29
853.509	300.73
853.68	-3925
853.851	196.69
854.023	124.7
854.194	94.78
854.365	150.54
854.537	168.44
854.708	150.82
854.879	154.5
855.05	171.58
855.222	215.11
855.393	498.66
855.564	1167.45
855.735	-996.74
855.906	-3531.4
856.078	-816.76
856.249	-1962.07
856.42	-43621.43
856.591	2153
856.762	14856.58
856.933	1084.21
857.104	2139.14
857.275	385.99
857.446	206.28
857.617	173.83
857.788	140.24
857.959	128.63
858.13	133.97
858.301	203.7
858.472	201.84
858.643	174.66
858.814	196.8
858.985	123.45
859.155	134.62
859.326	190.73
859.497	626.37
859.668	-206.39
859.839	-120.74
860.009	6.23
860.18	-50.87
860.351	-80.97
860.522	-64.43
860.692	-73.46
860.863	-12.88
861.034	-55.68
861.204	-28.22
861.375	-20.84
861.546	-129.06
861.716	-77.63
861.887	-180.15
862.057	11688
862.228	292.57
862.398	834.41
862.569	488.92
862.739	622.19
862.91	451.51
863.08	294.83
863.251	219.08
863.421	190.71
863.592	159.17
863.762	191.64
863.932	198.69
864.103	219.72
864.273	287.39
864.443	506.91
864.614	106.53
864.784	109.14
864.954	147.64
865.125	167.54
865.295	150.48
865.465	268.58
865.635	101.25
865.805	100.3
865.976	61.74
866.146	46.1
866.316	57.17
866.486	74.29
866.656	78.94
866.826	20.39
866.996	138.7
867.166	103.14
867.336	153.02
867.506	1137.68
867.676	-44.07
867.846	-42.13
868.016	-46.05
868.186	-74.37
868.356	-119.19
868.526	-157.59
868.696	-246.06
868.866	-122.41
869.036	-226.22
869.206	-348.5
869.376	-532.46
869.545	635.73
869.715	326.66
869.885	182.85
870.055	158.07
870.224	178.41
870.394	176.36
870.564	133.46
870.734	127.06
870.903	128.85
871.073	121.51
871.243	129.46
871.412	144.83
871.582	224.6
871.751	320.29
871.921	413.41
872.091	361.26
872.26	316.2
872.43	316.06
872.599	305.08
872.769	240.46
872.938	267.12
873.108	215.44
873.277	202.92
873.446	172.92
873.616	161.57
873.785	118.91
873.955	149.56
874.124	143.45
874.293	180.1
874.463	146.8
874.632	100.2
874.801	112.05
874.971	90.64
875.14	147.27
875.309	69.54
875.478	27.48
875.647	34.01
875.817	30
875.986	33.72
876.155	47.87
876.324	57.11
876.493	69.45
876.662	79.93
876.831	89.91
877	75.02
877.17	96.22
877.339	121.89
877.508	139.6
877.677	143.43
877.846	180
878.015	235.32
878.184	242.49
878.352	252.88
878.521	154.12
878.69	131.58
878.859	162.06
879.028	122.91
879.197	117.78
879.366	105.3
879.534	84.15
879.703	65.02
879.872	45.76
880.041	32.45
880.21	26.99
880.378	44.69
880.547	36.51
880.716	25.84
880.884	25.6
881.053	23.8
881.222	26.29
881.39	29.82
881.559	31.96
881.727	36.2
881.896	40.51
882.065	39.83
882.233	36.3
882.402	37.23
882.57	40.25
882.739	42.08
882.907	43.49
883.076	42.35
883.244	44.85
883.412	48.47
883.581	45.31
883.749	46.87
883.918	49.41
884.086	53.77
884.254	59.41
884.423	60.96
884.591	62.19
884.759	61.46
884.927	63.05
885.096	58
885.264	59.64
885.432	70.5
885.6	76.3
885.769	79.25
885.937	77.74
886.105	78.29
886.273	76.01
886.441	68.42
886.609	71.01
886.777	93.87
886.945	96.47
887.113	93.45
887.281	95.1
887.449	99.49
887.617	126.3
887.785	109.78
887.953	125.37
888.121	150.33
888.289	162.09
888.457	260.86
888.625	256.53
888.793	372.92
888.961	584.95
889.129	228.17
889.296	221.58
889.464	204.69
889.632	249.96
889.8	260.56
889.967	233.34
890.135	227.06
