Data from JASIL_3017_Reflection_01.txt Node
Date: Mon Nov 09 10:40:40 EST 2015
User: Geneva
Spectrometer: USB4E03002
Autoset integration time: false
Trigger mode: 4
Integration Time (sec): 1.000000E-1
Scans to average: 10
Electric dark correction enabled: false
Nonlinearity correction enabled: false
Boxcar width: 5
Stray light correction enabled: false
XAxis mode: Wavelengths
Stop averaging: false
Number of Pixels in Spectrum: 3648
>>>>>Begin Spectral Data<<<<<
177.575	50.14
177.794	57.99
178.014	50.81
178.233	55.13
178.452	46.86
178.672	12.28
178.891	-200
179.11	524.39
179.33	3200
179.549	296.15
179.768	179.52
179.987	608.33
180.207	-655
180.426	-517.91
180.645	-91.7
180.864	-43.65
181.084	-36.84
181.303	-32.64
181.522	-34.53
181.741	-34.63
181.96	-35.74
182.179	58.51
182.398	34.88
182.618	-23.95
182.837	-40.78
183.056	-306.32
183.275	311.85
183.494	-335.56
183.713	-905
183.932	-395.74
184.151	-821.21
184.37	-112.04
184.589	-2444.44
184.808	226.77
185.027	79.55
185.246	91.17
185.465	37.25
185.684	32.95
185.903	6.04
186.122	4.6
186.341	-34.2
186.56	-82.2
186.779	-681.63
186.998	432.97
187.216	222.4
187.435	142.71
187.654	116.96
187.873	94.27
188.092	112.09
188.311	46.87
188.53	54.87
188.748	54.39
188.967	42.18
189.186	73.12
189.405	59.55
189.623	4.67
189.842	-241.27
190.061	4560
190.28	386.17
190.498	404.76
190.717	185.24
190.936	225.86
191.154	186.73
191.373	181.41
191.592	289.51
191.81	129.26
192.029	20.11
192.248	42.42
192.466	94.25
192.685	82.27
192.904	47.83
193.122	-176.81
193.341	4240
193.559	-1866.67
193.778	-301.14
193.996	-351.79
194.215	-277.66
194.433	-284.4
194.652	-106.96
194.87	48.91
195.089	87.16
195.307	84.67
195.526	133.95
195.744	196.1
195.963	359.56
196.181	-1178.72
196.399	-363.86
196.618	-417.52
196.836	-205.02
197.055	-194.39
197.273	-168.93
197.491	-110
197.71	-129.06
197.928	-61.59
198.146	-37.14
198.365	-69.01
198.583	-2944.44
198.801	105.75
199.019	87.64
199.238	90.97
199.456	149.39
199.674	151.72
199.892	281.48
200.111	295
200.329	310.71
200.547	-966.67
200.765	-70.13
200.983	189.4
201.202	135.12
201.42	126.79
201.638	127.35
201.856	375.56
202.074	344.44
202.292	587.3
202.51	609.72
202.728	7650
202.946	-125.76
203.165	852.63
203.383	142.31
203.601	68.18
203.819	-24.42
204.037	63.75
204.255	0.5
204.473	106.02
204.691	-38.24
204.909	119.05
205.127	-272.73
205.345	-25.49
205.562	62.96
205.78	310
205.998	246.38
206.216	224.53
206.434	114.61
206.652	-1642.86
206.87	649.15
207.088	211.52
207.306	250.96
207.523	204.55
207.741	276.92
207.959	150.45
208.177	110.26
208.395	250.9
208.612	200
208.83	170.64
209.048	131.88
209.266	119.12
209.483	65.57
209.701	-413.79
209.919	15000
210.136	772.73
210.354	4108.33
210.572	-1191.49
210.79	-1188.89
211.007	429.2
211.225	412.28
211.442	1484.21
211.66	-359.02
211.878	-672.37
212.095	-494.34
212.313	-7666.67
212.53	-86.07
212.748	11.85
212.966	-46.34
213.183	-3900
213.401	-0.44
213.618	69.58
213.836	41.04
214.053	7.51
214.271	89.26
214.488	29.13
214.705	66.4
214.923	83.59
215.14	60.63
215.358	124.58
215.575	163.48
215.793	590.91
216.01	1275
216.227	666.67
216.445	-133.18
216.662	-155.1
216.879	-28.68
217.097	11.74
217.314	25
217.531	-143.1
217.749	30.23
217.966	-11.54
218.183	6.68
218.4	-1.11
218.618	-4.7
218.835	16.21
219.052	34.44
219.269	17.32
219.487	26.24
219.704	25.97
219.921	12.07
220.138	11.11
220.355	15.74
220.572	-300
220.79	92.59
221.007	59.56
221.224	236.46
221.441	187.25
221.658	-132.23
221.875	-86.19
222.092	-33.58
222.309	-34.83
222.526	-59.69
222.743	-51.82
222.96	-54.23
223.177	-18.22
223.394	-1.38
223.611	15.02
223.828	26.56
224.045	51.26
224.262	47.58
224.479	31
224.696	32.39
224.913	25.27
225.13	27.15
225.347	33.04
225.564	27.29
225.781	14.27
225.997	15.91
226.214	11.91
226.431	13.66
226.648	11.9
226.865	20.99
227.082	19.79
227.298	22.46
227.515	24
227.732	24.35
227.949	23.51
228.165	24.41
228.382	22.43
228.599	18.27
228.816	14.64
229.032	14.95
229.249	1.14
229.466	8.98
229.682	2.99
229.899	3.56
230.116	0.4
230.332	-2.24
230.549	-7.28
230.765	-14.5
230.982	-7.05
231.199	-5.55
231.415	-4.33
231.632	4.46
231.848	-6.24
232.065	5.91
232.281	-8.68
232.498	-7.74
232.714	1.17
232.931	8.43
233.147	5.39
233.364	2.24
233.58	-11.34
233.797	-17.11
234.013	-8.62
234.23	-3.85
234.446	-6.8
234.662	4.21
234.879	7.24
235.095	4.27
235.312	-0.36
235.528	0.36
235.744	6.04
235.961	11.08
236.177	15.05
236.393	2.68
236.61	-11.03
236.826	-6.64
237.042	-14.93
237.258	-8.59
237.475	-10.95
237.691	-9.1
237.907	4.05
238.123	-3.88
238.339	6.52
238.556	7.24
238.772	9.58
238.988	8.72
239.204	5.13
239.42	7.96
239.636	2.67
239.853	3.53
240.069	1.01
240.285	-6.11
240.501	-5.37
240.717	-4.11
240.933	-1.54
241.149	4.66
241.365	5.08
241.581	4.51
241.797	4.8
242.013	7.04
242.229	8.55
242.445	10.06
242.661	14.08
242.877	16.69
243.093	15.66
243.309	15.3
243.525	7.44
243.741	14.31
243.957	15.48
244.173	14
244.388	13.24
244.604	12.41
244.82	11.76
245.036	10
245.252	9.96
245.468	9.8
245.683	9.2
245.899	9.7
246.115	7.49
246.331	6.61
246.547	6.63
246.762	4.21
246.978	2.01
247.194	2.1
247.409	2.85
247.625	2.73
247.841	2.09
248.057	2.25
248.272	1.25
248.488	1.94
248.703	3.07
248.919	2.62
249.135	8.17
249.35	11.81
249.566	12.61
249.782	5.42
249.997	0.84
250.213	4.14
250.428	6.14
250.644	9.15
250.859	8.68
251.075	11.01
251.29	9.93
251.506	9.25
251.721	10.97
251.937	11.66
252.152	15.75
252.368	19.28
252.583	20.13
252.798	21.08
253.014	19.25
253.229	27.26
253.445	21.06
253.66	25.29
253.875	24.64
254.091	15.71
254.306	13.89
254.521	15.58
254.737	11.07
254.952	9.9
255.167	10.08
255.383	9.1
255.598	-1.16
255.813	2.32
256.028	-0.19
256.244	3.63
256.459	9.42
256.674	11.02
256.889	7.85
257.104	12.64
257.32	12.02
257.535	7.91
257.75	7.7
257.965	8.92
258.18	9.59
258.395	8.88
258.61	7.67
258.826	7.68
259.041	6.36
259.256	6.99
259.471	5.54
259.686	3.72
259.901	5.24
260.116	4.21
260.331	2.56
260.546	2.18
260.761	3.39
260.976	4.51
261.191	1.5
261.406	0.44
261.621	2.48
261.836	3.99
262.05	5
262.265	1.68
262.48	4.07
262.695	6.92
262.91	7.14
263.125	4.53
263.34	1.41
263.555	1.83
263.769	2.75
263.984	2.64
264.199	2
264.414	0.35
264.629	1.41
264.843	-2.15
265.058	-4.16
265.273	-4.32
265.488	1.13
265.702	0.14
265.917	1.18
266.132	6.65
266.346	6.61
266.561	6.41
266.776	6.46
266.99	4.79
267.205	10.05
267.42	9.82
267.634	11.92
267.849	10.09
268.063	12.51
268.278	12.7
268.492	7.31
268.707	4.42
268.922	6.74
269.136	8.92
269.351	8.74
269.565	5.41
269.78	4.12
269.994	1.63
270.209	-1.13
270.423	-3.72
270.637	-3.24
270.852	-0.24
271.066	0.91
271.281	-0.86
271.495	-1.43
271.709	-0.2
271.924	0.47
272.138	0.91
272.353	-1.14
272.567	-0.08
272.781	3.36
272.996	0.89
273.21	-3.01
273.424	-3.15
273.638	-2.77
273.853	-3.17
274.067	-2.11
274.281	-4.07
274.495	-1.57
274.71	-0.8
274.924	0.85
275.138	0.98
275.352	-0.75
275.566	-0.73
275.781	-2.34
275.995	-1.62
276.209	-3.04
276.423	-2.91
276.637	-2.81
276.851	-3.78
277.065	-2.06
277.279	-1.57
277.493	-2.45
277.707	0.48
277.921	2.69
278.135	3.99
278.349	3.47
278.563	2.71
278.777	2.28
278.991	5.78
279.205	7.92
279.419	7.1
279.633	6.48
279.847	5.07
280.061	2.85
280.275	0.68
280.489	0.77
280.703	-1.88
280.917	-2.07
281.131	-1.51
281.344	-3.5
281.558	-4.22
281.772	-2.85
281.986	-3.21
282.2	-3.27
282.414	0.46
282.627	2.59
282.841	2.11
283.055	4.87
283.269	4.83
283.482	4.1
283.696	3.64
283.91	2.68
284.123	0.61
284.337	0.22
284.551	0.53
284.764	-0.5
284.978	0.65
285.192	3.42
285.405	2.5
285.619	2.79
285.833	2.6
286.046	1.07
286.26	0.39
286.473	2.09
286.687	3.2
286.9	4.35
287.114	2.45
287.327	0.28
287.541	-2.13
287.754	-1.84
287.968	2.36
288.181	1.91
288.395	4.23
288.608	5.55
288.822	4.56
289.035	4.31
289.248	2.93
289.462	5.05
289.675	3.51
289.889	1.66
290.102	2.95
290.315	0.96
290.529	1.41
290.742	2.68
290.955	0.03
291.169	0.68
291.382	0.43
291.595	2.87
291.808	1.58
292.022	2.63
292.235	2.87
292.448	0.23
292.661	1.07
292.875	1.53
293.088	-1.35
293.301	0.93
293.514	0.74
293.727	2.11
293.94	0.41
294.153	1.46
294.367	2.35
294.58	1.89
294.793	4.62
295.006	4.28
295.219	3.22
295.432	3.66
295.645	2.95
295.858	4.49
296.071	2.96
296.284	2.37
296.497	2.68
296.71	2.58
296.923	3.9
297.136	0.73
297.349	0.4
297.562	-0.86
297.775	-1.42
297.988	-0.34
298.201	-2.82
298.414	-3.58
298.626	-1.68
298.839	-3.81
299.052	-2.2
299.265	-2.33
299.478	-1.17
299.691	-1.94
299.903	-0.38
300.116	-0.15
300.329	-0.63
300.542	2.16
300.755	3.27
300.967	2.56
301.18	3.58
301.393	2.09
301.605	1.56
301.818	0.91
302.031	0.98
302.243	1.39
302.456	2.28
302.669	1.43
302.881	0.02
303.094	-0.84
303.307	-0.76
303.519	-2.38
303.732	-2.98
303.944	-5.63
304.157	-4.12
304.37	-4.81
304.582	-6.25
304.795	-5.77
305.007	-2.77
305.22	-2.55
305.432	-1.72
305.645	-0.92
305.857	-0.57
306.069	-0.85
306.282	1.29
306.494	1.31
306.707	1.65
306.919	3.56
307.132	2.6
307.344	0.93
307.556	1.5
307.769	1.31
307.981	0.78
308.193	4.22
308.406	4.15
308.618	4.04
308.83	3.7
309.043	5.16
309.255	6.69
309.467	6.87
309.679	8.19
309.892	5.85
310.104	4.9
310.316	5.64
310.528	3.98
310.74	3.99
310.953	5.26
311.165	4.37
311.377	2.81
311.589	1.15
311.801	3.17
312.013	3.3
312.225	6.09
312.437	6.66
312.649	3.49
312.862	3.33
313.074	2.24
313.286	5.09
313.498	6.83
313.71	9.69
313.922	11.51
314.134	8.35
314.346	6.35
314.558	5.63
314.77	6.1
314.982	5.82
315.193	7.03
315.405	8.4
315.617	3.12
315.829	4.71
316.041	3.68
316.253	2.05
316.465	3.33
316.677	4.2
316.888	3.41
317.1	4.46
317.312	5.93
317.524	4.71
317.736	7.19
317.947	8.09
318.159	8.95
318.371	9.68
318.583	11.76
318.794	11.4
319.006	8.48
319.218	9.35
319.43	10.37
319.641	10.9
319.853	10.72
320.064	8.37
320.276	9.97
320.488	8.73
320.699	9.2
320.911	6.89
321.123	11.28
321.334	11.27
321.546	12
321.757	12.42
321.969	14.7
322.18	14.33
322.392	14.55
322.603	14.18
322.815	13.13
323.026	10.72
323.238	12.72
323.449	9.59
323.661	12.22
323.872	11.84
324.083	11.7
324.295	11.43
324.506	13.08
324.718	13.06
324.929	10.54
325.14	9.73
325.352	10.88
325.563	9.05
325.774	8.78
325.986	7.62
326.197	5.85
326.408	4.88
326.62	4.89
326.831	4.47
327.042	4.66
327.253	7.67
327.464	9.27
327.676	8.78
327.887	10.24
328.098	10.73
328.309	9.55
328.52	12.02
328.732	11.73
328.943	10.99
329.154	9.58
329.365	7.5
329.576	5.15
329.787	6.16
329.998	5.43
330.209	4.43
330.42	3.78
330.631	8.92
330.842	7.7
331.053	10.13
331.264	11.09
331.475	12.29
331.686	14.17
331.897	17.48
332.108	16.74
332.319	18.3
332.53	17.55
332.741	19.02
332.952	16.81
333.163	16.85
333.374	15.08
333.585	15.36
333.795	13.76
334.006	14.49
334.217	12.5
334.428	11.69
334.639	9.06
334.849	10.27
335.06	6.83
335.271	11
335.482	10.66
335.692	10.98
335.903	10.69
336.114	11.99
336.325	13.64
336.535	14.09
336.746	13.53
336.957	14.57
337.167	12.78
337.378	15.1
337.589	10.29
337.799	10.13
338.01	9.22
338.22	9.82
338.431	9.82
338.642	7.12
338.852	5.24
339.063	5.5
339.273	5.9
339.484	6.26
339.694	6.02
339.905	9.19
340.115	9.64
340.326	10.85
340.536	9.24
340.746	7.19
340.957	5.89
341.167	8.52
341.378	7.99
341.588	8.41
341.799	8.09
342.009	6.47
342.219	2.27
342.43	3.65
342.64	2.42
342.85	4.59
343.061	5.24
343.271	6.38
343.481	3.74
343.691	1.61
343.902	1.66
344.112	3.12
344.322	3.8
344.532	6.46
344.743	5.11
344.953	4.19
345.163	3.99
345.373	4.81
345.583	4.26
345.793	5.18
346.004	7.68
346.214	7.87
346.424	4.83
346.634	5.77
346.844	4.7
347.054	6.19
347.264	5.72
347.474	4.48
347.684	2.87
347.894	2.99
348.104	4.85
348.314	4.23
348.524	5.68
348.734	8.17
348.944	6.52
349.154	8.29
349.364	7.45
349.574	10.15
349.784	7.69
349.994	6.45
350.204	6.54
350.413	5.43
350.623	4.62
350.833	1.49
351.043	0.8
351.253	2.08
351.463	-2.08
351.672	-3.03
351.882	-2.17
352.092	1.49
352.302	5.18
352.511	6.12
352.721	6.64
352.931	6.79
353.141	6.91
353.35	7.02
353.56	10.06
353.77	12.43
353.979	12.19
354.189	11.32
354.399	10.93
354.608	12.03
354.818	11.51
355.027	10.52
355.237	11.24
355.447	13.18
355.656	14.34
355.866	11.72
356.075	11.88
356.285	11.46
356.494	11.98
356.704	11.51
356.913	10.29
357.123	11.73
357.332	11.24
357.542	11.15
357.751	10.14
357.96	10.34
358.17	9.84
358.379	9.11
358.589	10.57
358.798	8.95
359.007	9.28
359.217	9.91
359.426	9.35
359.635	9.77
359.845	10.32
360.054	10.04
360.263	8.71
360.472	8.98
360.682	8.8
360.891	7.65
361.1	8.81
361.309	7.99
361.519	6.12
361.728	5.58
361.937	5.89
362.146	5.08
362.355	6.17
362.564	7.61
362.774	9.36
362.983	10.39
363.192	11.26
363.401	9.74
363.61	11.62
363.819	13.21
364.028	12.64
364.237	12.68
364.446	13.44
364.655	12.36
364.864	13.98
365.073	11.92
365.282	9.72
365.491	11.55
365.7	13.88
365.909	13.74
366.118	14.83
366.327	15.35
366.536	16.36
366.745	16.25
366.954	17.23
367.162	14.14
367.371	14.94
367.58	15.88
367.789	14.73
367.998	12.57
368.207	12.68
368.415	10.6
368.624	10.74
368.833	9.22
369.042	8.89
369.25	8.61
369.459	10.45
369.668	9.3
369.877	8.76
370.085	7.79
370.294	9.19
370.503	7.61
370.711	7.51
370.92	6.86
371.129	6.54
371.337	6.94
371.546	7.18
371.754	6.52
371.963	7.86
372.171	8.94
372.38	9.83
372.589	9.47
372.797	9.36
373.006	8.9
373.214	9.07
373.423	10.26
373.631	11.31
373.84	10.47
374.048	9.89
374.256	9.03
374.465	8.86
374.673	7.17
374.882	7.31
375.09	9
375.298	9.14
375.507	10.66
375.715	10.62
375.923	8.44
376.132	9.98
376.34	10.25
376.548	10.21
376.757	10.19
376.965	11.4
377.173	10.54
377.381	10.54
377.59	11.03
377.798	9.37
378.006	7.83
378.214	8.89
378.423	8.37
378.631	8.38
378.839	8.93
379.047	8.99
379.255	8.82
379.463	7.78
379.671	6.19
379.879	6.32
380.088	6.21
380.296	7.37
380.504	7.36
380.712	7.9
380.92	8.22
381.128	7.89
381.336	7.84
381.544	7.63
381.752	9.33
381.96	9.17
382.168	8.79
382.376	10.52
382.584	9.75
382.791	10.32
382.999	8.18
383.207	8.31
383.415	9.37
383.623	8.85
383.831	8.19
384.039	8.67
384.247	10.4
384.454	8.48
384.662	7.85
384.87	8.14
385.078	8.06
385.285	8.92
385.493	7.73
385.701	7.84
385.909	7.92
386.116	7.42
386.324	6.26
386.532	4.83
386.739	7.34
386.947	8.12
387.155	8.14
387.362	7.26
387.57	7.93
387.778	7.78
387.985	5.3
388.193	4.63
388.4	6.22
388.608	6.7
388.816	6.86
389.023	6.53
389.231	6.4
389.438	5.59
389.646	4.85
389.853	3.95
390.061	4.73
390.268	7.62
390.475	8.51
390.683	8.52
390.89	7.47
391.098	6.88
391.305	7.27
391.512	6.24
391.72	5.91
391.927	6.52
392.135	6.97
392.342	8.03
392.549	5.46
392.756	5.06
392.964	6.23
393.171	7.39
393.378	8.6
393.586	9.21
393.793	9.12
394	11.1
394.207	12.03
394.414	12.32
394.622	10.93
394.829	10.53
395.036	11.08
395.243	8.95
395.45	8.93
395.657	9.15
395.864	7.61
396.072	7.72
396.279	6.84
396.486	6.25
396.693	6.23
396.9	6
397.107	6.96
397.314	6.4
397.521	6.31
397.728	5.27
397.935	4.56
398.142	4.65
398.349	4.3
398.556	3.15
398.763	2.52
398.97	1.35
399.177	1.12
399.383	2.26
399.59	1.63
399.797	2.96
400.004	4.08
400.211	4.82
400.418	5.03
400.625	5.3
400.831	6.71
401.038	7.38
401.245	8.99
401.452	10.65
401.658	10.16
401.865	11.19
402.072	10.88
402.279	11.21
402.485	10.22
402.692	10.97
402.899	11.8
403.105	11.21
403.312	11.78
403.519	11.86
403.725	12.07
403.932	12.38
404.138	12.72
404.345	12.67
404.552	12.41
404.758	12.81
404.965	12.49
405.171	11.61
405.378	12.3
405.584	11.78
405.791	10.89
405.997	10.2
406.204	10.06
406.41	9.7
406.617	9.9
406.823	9.77
407.029	10.72
407.236	11.27
407.442	11.39
407.649	11.5
407.855	11.39
408.061	10.91
408.268	10.7
408.474	9.73
408.68	9.61
408.887	9.38
409.093	9.55
409.299	8.12
409.505	6.95
409.712	7.47
409.918	6.45
410.124	7.36
410.33	6.81
410.537	6.43
410.743	6.73
410.949	6.19
411.155	6.34
411.361	5.32
411.567	5.3
411.773	6.29
411.98	6.01
412.186	7.04
412.392	6.2
412.598	6.27
412.804	6.58
413.01	7.66
413.216	7.78
413.422	7.77
413.628	7.94
413.834	7.45
414.04	6.98
414.246	6.57
414.452	5.67
414.658	5.48
414.864	6.03
415.07	5.38
415.275	4.36
415.481	3.79
415.687	3.96
415.893	4.48
416.099	4.6
416.305	4.86
416.511	4.96
416.716	5.17
416.922	4.45
417.128	4.48
417.334	4.83
417.539	4.77
417.745	5.6
417.951	5.61
418.157	5.77
418.362	6.23
418.568	5.85
418.774	5.81
418.979	5.29
419.185	6.19
419.391	5.7
419.596	5.8
419.802	6
420.008	5.54
420.213	0.86
420.419	0.66
420.624	0.27
420.83	0.4
421.035	0.19
421.241	0.94
421.446	1.15
421.652	2
421.857	1.62
422.063	1.59
422.268	1.75
422.474	5.57
422.679	5.48
422.885	5.8
423.09	5.64
423.295	5.77
423.501	6.09
423.706	6.05
423.911	5.76
424.117	5.61
424.322	5.75
424.527	6.04
424.733	6.77
424.938	7.1
425.143	7.05
425.349	7.09
425.554	6.63
425.759	6.54
425.964	6.27
426.169	6.28
426.375	6.54
426.58	6.57
426.785	6.15
426.99	6.15
427.195	5.65
427.4	5.42
427.605	5.59
427.811	6.89
428.016	5.44
428.221	5.07
428.426	4.58
428.631	4.93
428.836	5.35
429.041	5.82
429.246	5.8
429.451	6.52
429.656	6.25
429.861	6.21
430.066	5.56
430.271	6.29
430.476	6.56
430.681	7.52
430.886	7.61
431.09	7.06
431.295	6.61
431.5	6.72
431.705	6.18
431.91	6.79
432.115	6.94
432.32	6.49
432.524	6.81
432.729	6.56
432.934	5.85
433.139	5.7
433.343	5.61
433.548	5.83
433.753	5.4
433.958	5.38
434.162	4.9
434.367	4.91
434.572	5.09
434.776	4.89
434.981	4.56
435.186	4.6
435.39	4.49
435.595	4.79
435.799	4.42
436.004	4.66
436.209	4.83
436.413	5.47
436.618	5.16
436.822	5.76
437.027	5.79
437.231	6.11
437.436	5.63
437.64	5.54
437.845	5.26
438.049	5.3
438.253	5.26
438.458	5.17
438.662	4.52
438.867	4.21
439.071	4.49
439.275	4.51
439.48	4.35
439.684	5.02
439.888	5.21
440.093	5.11
440.297	4.63
440.501	4.51
440.706	4.33
440.91	4.52
441.114	4.65
441.318	4.44
441.523	4.03
441.727	4.18
441.931	4.44
442.135	4.2
442.339	4.32
442.543	4.86
442.748	5.24
442.952	5.26
443.156	5.55
443.36	5.91
443.564	5.4
443.768	6.04
443.972	6.44
444.176	5.29
444.38	5.9
444.584	6.53
444.788	7.1
444.992	7.27
445.196	7.44
445.4	6.96
445.604	6.57
445.808	6.63
446.012	6.22
446.216	5.53
446.42	6
446.624	5.34
446.828	4.52
447.032	4.28
447.235	3.9
447.439	4.02
447.643	4.51
447.847	4.81
448.051	5.23
448.254	4.99
448.458	5.09
448.662	6.03
448.866	6.39
449.069	6.44
449.273	6
449.477	5.86
449.681	5.82
449.884	6.29
450.088	6.27
450.292	6.6
450.495	7.19
450.699	7.54
450.902	6.79
451.106	6.42
451.31	6.81
451.513	7.03
451.717	7.42
451.92	7.05
452.124	6.21
452.327	6.03
452.531	5.28
452.734	5.24
452.938	4.91
453.141	4.69
453.345	4.81
453.548	4.95
453.752	4.81
453.955	4.64
454.158	4.62
454.362	4.99
454.565	5.32
454.769	5.41
454.972	5.41
455.175	5.2
455.379	4.97
455.582	5.33
455.785	5.08
455.988	5.04
456.192	5.44
456.395	6.28
456.598	6.65
456.801	6.09
457.005	6.66
457.208	6.37
457.411	6.87
457.614	7.23
457.817	7.12
458.021	7.14
458.224	6.68
458.427	6.73
458.63	6.36
458.833	6.02
459.036	6.44
459.239	5.87
459.442	5.86
459.645	5.69
459.848	5.75
460.051	5.75
460.254	5.36
460.457	5.79
460.66	5.16
460.863	4.73
461.066	4.43
461.269	4.14
461.472	3.96
461.675	3.93
461.878	3.25
462.081	3.23
462.284	2.79
462.486	2.96
462.689	2.81
462.892	3.72
463.095	4.37
463.298	4.52
463.5	5
463.703	5.25
463.906	5.41
464.109	5.96
464.311	5.4
464.514	5.4
464.717	5.55
464.92	5.79
465.122	5.03
465.325	5.19
465.528	5.21
465.73	4.79
465.933	5.59
466.135	5.62
466.338	5.52
466.541	5.75
466.743	6.01
466.946	6.27
467.148	6.03
467.351	6.37
467.553	6.17
467.756	6.36
467.958	6.28
468.161	5.72
468.363	5.81
468.566	6.36
468.768	6.79
468.971	6.89
469.173	6.5
469.375	6.97
469.578	6.71
469.78	6.43
469.983	6.51
470.185	7.31
470.387	6.97
470.59	6.77
470.792	6.13
470.994	5.87
471.196	5.83
471.399	6.87
471.601	6.76
471.803	7.04
472.005	6.98
472.208	6.77
472.41	6.04
472.612	6.1
472.814	5.97
473.016	7.24
473.218	6.91
473.421	6.17
473.623	5.77
473.825	5.52
474.027	5.78
474.229	5.84
474.431	5.62
474.633	5.68
474.835	5.89
475.037	5.82
475.239	5.22
475.441	5.23
475.643	5.17
475.845	4.57
476.047	4.62
476.249	3.75
476.451	3.6
476.653	4.56
476.855	4.99
477.057	4.96
477.258	5.16
477.46	5.46
477.662	5.07
477.864	5.91
478.066	6.79
478.268	6.47
478.469	7.08
478.671	7.23
478.873	6.45
479.075	5.8
479.276	6.2
479.478	6.17
479.68	6.02
479.882	6.46
480.083	5.99
480.285	5.6
480.487	5.51
480.688	5.23
480.89	5.2
481.091	5.33
481.293	5.56
481.495	5.48
481.696	5.62
481.898	5.39
482.099	5.38
482.301	5.47
482.502	5.43
482.704	5.54
482.905	5.7
483.107	5.69
483.308	5.74
483.51	5.65
483.711	5.7
483.913	5.65
484.114	5.68
484.315	5.68
484.517	5.72
484.718	5.71
484.92	5.8
485.121	5.68
485.322	5.81
485.524	5.73
485.725	5.76
485.926	5.56
486.127	5.4
486.329	5.22
486.53	5.38
486.731	5.47
486.932	5.68
487.134	5.66
487.335	5.56
487.536	5.56
487.737	5.39
487.938	5.47
488.139	5.51
488.341	5.72
488.542	5.8
488.743	5.64
488.944	5.7
489.145	5.45
489.346	5.43
489.547	5.51
489.748	5.36
489.949	5.46
490.15	5.4
490.351	5.53
490.552	5.58
490.753	5.75
490.954	5.84
491.155	5.74
491.356	5.38
491.557	5.6
491.758	5.77
491.959	5.93
492.159	5.82
492.36	6.03
492.561	6
492.762	5.62
492.963	5.84
493.164	5.47
493.364	5.22
493.565	5.55
493.766	5.53
493.967	5.47
494.167	5.26
494.368	5.7
494.569	5.29
494.769	5.16
494.97	5.43
495.171	5.72
495.371	6.43
495.572	6.59
495.773	6.72
495.973	6.64
496.174	6.64
496.375	6.51
496.575	6.19
496.776	6.61
496.976	6.08
497.177	5.97
497.377	5.02
497.578	4.16
497.778	4.22
497.979	3.9
498.179	3.64
498.38	3.39
498.58	3.22
498.78	3.1
498.981	2.95
499.181	3.4
499.382	3.66
499.582	4.04
499.782	4.8
499.983	5.04
500.183	5.59
500.383	5.78
500.584	6.08
500.784	6.73
500.984	6.88
501.184	6.38
501.385	6.76
501.585	6.89
501.785	6.26
501.985	5.64
502.185	5.57
502.386	6.05
502.586	5.84
502.786	5.68
502.986	5.44
503.186	5.79
503.386	6.29
503.586	6.14
503.786	5.56
503.987	6.17
504.187	6.76
504.387	6.88
504.587	6.5
504.787	6.52
504.987	6.75
505.187	7.05
505.387	6.88
505.587	7.08
505.786	6.85
505.986	7.16
506.186	7.78
506.386	7.5
506.586	6.9
506.786	6.92
506.986	6.85
507.186	6.97
507.386	7.18
507.585	7.43
507.785	7.48
507.985	7.8
508.185	7.94
508.384	7.71
508.584	7.87
508.784	8.08
508.984	8.35
509.183	8.52
509.383	8.35
509.583	8.2
509.782	8.51
509.982	8.24
510.182	8.36
510.381	8.54
510.581	8.43
510.781	8.54
510.98	9.36
511.18	9.2
511.379	9.19
511.579	9.06
511.778	9.03
511.978	8.83
512.177	8.95
512.377	8.53
512.576	8.43
512.776	8.2
512.975	8.79
513.175	7.86
513.374	7.86
513.573	8.22
513.773	8.23
513.972	8.18
514.172	7.94
514.371	8.16
514.57	8.04
514.77	7.96
514.969	8.31
515.168	7.97
515.367	8.75
515.567	8.62
515.766	8.61
515.965	9.31
516.164	9.15
516.364	9.52
516.563	9.5
516.762	9.87
516.961	10.03
517.16	9.84
517.359	9.66
517.559	9.44
517.758	9.33
517.957	9.42
518.156	9.49
518.355	9.98
518.554	9.83
518.753	9.69
518.952	9.3
519.151	9.27
519.35	9.93
519.549	10.67
519.748	10.81
519.947	11.04
520.146	11.02
520.345	10.86
520.544	10.92
520.743	11.14
520.942	11.2
521.141	12.26
521.339	12.45
521.538	12.38
521.737	12.22
521.936	12.33
522.135	12.67
522.333	12.74
522.532	12.7
522.731	12.62
522.93	12.55
523.129	12.97
523.327	12.54
523.526	12.43
523.725	11.95
523.923	11.72
524.122	11.7
524.321	11.58
524.519	11.8
524.718	12.03
524.917	11.87
525.115	11.97
525.314	11.69
525.512	11.84
525.711	11.84
525.909	11.88
526.108	11.51
526.306	11.37
526.505	11.19
526.703	10.98
526.902	10.62
527.1	10.78
527.299	10.89
527.497	10.96
527.696	10.9
527.894	10.99
528.092	11.11
528.291	11.35
528.489	11.74
528.688	11.86
528.886	12.07
529.084	12.44
529.283	12.32
529.481	12.3
529.679	12.53
529.877	12.57
530.076	12.73
530.274	12.93
530.472	12.9
530.67	12.72
530.869	12.81
531.067	12.91
531.265	12.91
531.463	13.21
531.661	13.54
531.859	13.71
532.057	13.99
532.255	14.05
532.454	13.87
532.652	13.93
532.85	13.84
533.048	13.89
533.246	13.76
533.444	13.79
533.642	13.86
533.84	13.68
534.038	13.56
534.236	13.51
534.434	13.45
534.632	13.77
534.83	14.21
535.027	14.39
535.225	14.58
535.423	14.84
535.621	15.06
535.819	15.29
536.017	15.31
536.215	15.41
536.412	15.86
536.61	15.85
536.808	15.72
537.006	15.23
537.203	15.13
537.401	14.96
537.599	14.95
537.797	14.87
537.994	14.72
538.192	14.75
538.39	15.05
538.587	14.99
538.785	15.12
538.983	15.14
539.18	15.31
539.378	15.22
539.575	15.35
539.773	14.86
539.97	14.88
540.168	14.86
540.366	14.78
540.563	14.6
540.761	14.62
540.958	14.53
541.155	14.62
541.353	14.77
541.55	15.03
541.748	14.99
541.945	15.62
542.143	15.7
542.34	15.85
542.537	16.26
542.735	16.27
542.932	16.05
543.129	16.2
543.327	16.31
543.524	16.35
543.721	16.24
543.919	16.55
544.116	16.49
544.313	16.54
544.51	16.51
544.708	16.39
544.905	16.27
545.102	16.45
545.299	16.05
545.496	16.2
545.693	16.24
545.891	16.04
546.088	16
546.285	15.77
546.482	15.77
546.679	15.94
546.876	16.13
547.073	16.74
547.27	16.57
547.467	17.17
547.664	17.13
547.861	17.18
548.058	17.69
548.255	17.6
548.452	18.15
548.649	18.15
548.846	18.21
549.043	18.22
549.24	17.8
549.437	18.29
549.633	18.26
549.83	18.38
550.027	18.73
550.224	18.45
550.421	19.09
550.618	18.49
550.814	18.65
551.011	18.74
551.208	18.49
551.405	18.59
551.601	18.36
551.798	18.87
551.995	19.02
552.191	19.01
552.388	19.83
552.585	19.77
552.781	20.52
552.978	20.82
553.175	20.62
553.371	21.09
553.568	20.98
553.764	20.53
553.961	20.79
554.157	20.8
554.354	20.9
554.55	20.59
554.747	20.41
554.943	19.62
555.14	19.67
555.336	20.21
555.533	19.3
555.729	20.1
555.926	20.5
556.122	20.33
556.318	20.75
556.515	20.88
556.711	21.09
556.907	21.61
557.104	22.61
557.3	21.97
557.496	21.61
557.693	22.77
557.889	22.59
558.085	23.15
558.281	23
558.478	23.41
558.674	23.31
558.87	23.42
559.066	23.09
559.262	23.17
559.459	23.86
559.655	24.15
559.851	23.44
560.047	23.95
560.243	23.77
560.439	23.88
560.635	23.02
560.831	24
561.027	24.02
561.223	24.11
561.419	24.21
561.615	24.01
561.811	23.78
562.007	24.03
562.203	22.92
562.399	22.92
562.595	23.29
562.791	23.77
562.987	22.17
563.183	22.09
563.379	22.24
563.575	21.74
563.771	21.89
563.966	21.56
564.162	21.68
564.358	22.2
564.554	22.45
564.75	22.34
564.945	22.44
565.141	22.96
565.337	22.82
565.533	23.03
565.728	23.41
565.924	23.35
566.12	23.88
566.315	23.87
566.511	23.81
566.707	23.7
566.902	23.73
567.098	23.15
567.293	23.56
567.489	23.64
567.684	23.39
567.88	23.04
568.076	22.71
568.271	22.73
568.467	22.54
568.662	22.38
568.858	22.33
569.053	22.17
569.248	22.9
569.444	22.56
569.639	22.98
569.835	22.61
570.03	22.88
570.225	22.92
570.421	22.61
570.616	22.2
570.812	22.14
571.007	22.25
571.202	22.46
571.397	22.27
571.593	22.43
571.788	22.48
571.983	22.4
572.178	22.79
572.374	23.31
572.569	23.7
572.764	24.96
572.959	25.22
573.154	25.23
573.35	25.12
573.545	25.1
573.74	24.64
573.935	24.22
574.13	25.05
574.325	24.9
574.52	25.32
574.715	25.2
574.91	24.35
575.105	24.55
575.3	24.49
575.495	24.67
575.69	25.12
575.885	25.26
576.08	25.34
576.275	25.05
576.47	24.72
576.665	24.41
576.86	24.64
577.055	25.11
577.25	24.58
577.444	25.02
577.639	24.69
577.834	24.44
578.029	24.09
578.224	24.58
578.418	24.44
578.613	23.52
578.808	23.34
579.003	22.97
579.197	23.46
579.392	23.72
579.587	24.03
579.781	24.27
579.976	23.73
580.171	23.59
580.365	22.9
580.56	23.45
580.755	24.62
580.949	25.35
581.144	25.41
581.338	25.58
581.533	26.5
581.727	26.25
581.922	26.2
582.116	26.97
582.311	28.04
582.505	28.38
582.7	28.98
582.894	28.92
583.089	28.9
583.283	29.3
583.478	28.91
583.672	28.37
583.866	28.16
584.061	28.67
584.255	28.45
584.449	28.17
584.644	29.31
584.838	28.31
585.032	28.43
585.226	28.83
585.421	28.02
585.615	27.82
585.809	27.88
586.003	27.87
586.198	27.72
586.392	26.97
586.586	26.63
586.78	25.18
586.974	24.91
587.168	24.9
587.363	23.17
587.557	23.8
587.751	23.59
587.945	22.89
588.139	23.2
588.333	22.61
588.527	23.15
588.721	22.64
588.915	22.92
589.109	23.62
589.303	23.08
589.497	23.72
589.691	24.1
589.885	23.82
590.079	24.68
590.273	24.48
590.466	25.2
590.66	24.77
590.854	26.02
591.048	26.35
591.242	26.25
591.436	26.98
591.629	27.02
591.823	26.71
592.017	27.54
592.211	27.79
592.404	27.83
592.598	27.56
592.792	28.03
592.986	27.9
593.179	27.55
593.373	27.62
593.567	27.59
593.76	27.27
593.954	26.8
594.147	26.25
594.341	25.53
594.535	25.03
594.728	24.62
594.922	24.67
595.115	24.87
595.309	24.18
595.502	24.15
595.696	24.13
595.889	24.86
596.083	25.15
596.276	25.41
596.47	26.13
596.663	26.84
596.856	27.05
597.05	27.41
597.243	27.67
597.437	29.35
597.63	29.43
597.823	29.32
598.017	28.56
598.21	29.18
598.403	29.49
598.596	29.66
598.79	29.58
598.983	30.07
599.176	29.01
599.369	28.88
599.563	28.02
599.756	28.43
599.949	28.29
600.142	28.66
600.335	28.22
600.528	27.91
600.722	27.82
600.915	27.57
601.108	26.94
601.301	27.35
601.494	27.26
601.687	27.45
601.88	26.71
602.073	26.9
602.266	27.5
602.459	26.98
602.652	26.64
602.845	26.19
603.038	26.33
603.231	26.64
603.424	26.5
603.617	25.94
603.809	25.73
604.002	25.67
604.195	26.19
604.388	25.71
604.581	26.46
604.774	26.85
604.966	27.33
605.159	27.04
605.352	27.55
605.545	27.96
605.737	29.08
605.93	29.12
606.123	30.15
606.316	30
606.508	29.98
606.701	28.95
606.894	29.7
607.086	28.67
607.279	28.89
607.471	28.44
607.664	28.3
607.857	27.78
608.049	28.59
608.242	27.48
608.434	27.42
608.627	27.18
608.819	27.61
609.012	27.36
609.204	28.05
609.397	28.24
609.589	28.53
609.782	28.63
609.974	29.5
610.166	28.93
610.359	30.01
610.551	30.47
610.743	30.91
610.936	30.88
611.128	30.87
611.32	30.56
611.513	29.88
611.705	29.45
611.897	29.31
612.09	28.37
612.282	28.85
612.474	28.7
612.666	28.51
612.858	29.09
613.051	30.01
613.243	30.23
613.435	30.97
613.627	31.73
613.819	31.91
614.011	32.75
614.203	33.17
614.395	33.04
614.588	33.7
614.78	33.44
614.972	32.77
615.164	32.43
615.356	31.45
615.548	31.15
615.74	31.12
615.932	30.55
616.124	30.34
616.315	30.23
616.507	30.84
616.699	30.47
616.891	31.25
617.083	32.18
617.275	32.9
617.467	32.68
617.659	31.63
617.85	32.34
618.042	33.56
618.234	32.86
618.426	32.88
618.618	31.59
618.809	30.71
619.001	30.49
619.193	29.92
619.384	28.45
619.576	29.4
619.768	29.92
619.959	29.13
620.151	29.48
620.343	30.67
620.534	30.36
620.726	31.54
620.917	32.73
621.109	32.25
621.301	31.84
621.492	32.44
621.684	32.68
621.875	33.92
622.067	33.51
622.258	32.67
622.45	32.3
622.641	32.03
622.832	31.89
623.024	31.18
623.215	31.72
623.407	32.03
623.598	31.93
623.789	31.01
623.981	30.45
624.172	30.33
624.363	30.5
624.555	30.34
624.746	30.72
624.937	29.93
625.129	29.87
625.32	29.24
625.511	27.91
625.702	28.86
625.893	29.48
626.085	29.17
626.276	28.89
626.467	28.87
626.658	29.12
626.849	28.56
627.04	28.62
627.231	28.86
627.422	28.63
627.614	29.45
627.805	28.66
627.996	28.74
628.187	28.51
628.378	29.13
628.569	29.67
628.76	30.1
628.951	31.09
629.142	31.07
629.332	30.63
629.523	31.2
629.714	31.67
629.905	32.12
630.096	31.83
630.287	32.52
630.478	32.88
630.669	33.14
630.859	32.2
631.05	31.89
631.241	32.18
631.432	32.11
631.623	32.65
631.813	33.12
632.004	33.08
632.195	33.68
632.385	33.19
632.576	33.68
632.767	33.33
632.957	32.66
633.148	31.97
633.339	31.66
633.529	32.19
633.72	32.48
633.91	31.81
634.101	31.43
634.292	30.48
634.482	31.08
634.673	29.88
634.863	29.44
635.054	31.19
635.244	32.1
635.435	32.59
635.625	33.26
635.815	31.76
636.006	32.11
636.196	32.56
636.387	33.42
636.577	33.61
636.767	35.38
636.958	35.83
637.148	35.13
637.338	34.69
637.529	34.31
637.719	34.07
637.909	34.9
638.099	34.17
638.29	33.56
638.48	33.1
638.67	32.05
638.86	30.94
639.05	30.66
639.241	30.24
639.431	31.25
639.621	32.42
639.811	32.47
640.001	32.65
640.191	34.5
640.381	36.31
640.571	37.12
640.761	38.36
640.951	38.73
641.141	38.65
641.331	38.94
641.521	39.02
641.711	38
641.901	37.2
642.091	36.67
642.281	36.48
642.471	34.79
642.661	33.58
642.851	33.25
643.041	32.51
643.231	34.41
643.42	34.26
643.61	34.12
643.8	34.31
643.99	33.51
644.18	34.05
644.369	33.75
644.559	33.97
644.749	34.1
644.939	33.39
645.128	33.46
645.318	31.5
645.508	31.51
645.697	31.1
645.887	30.8
646.076	32.65
646.266	31.58
646.456	31.19
646.645	32.28
646.835	33.19
647.024	32.83
647.214	32.86
647.403	33.3
647.593	34.15
647.782	33.83
647.972	35.09
648.161	34.6
648.351	35.91
648.54	35.86
648.73	35.11
648.919	34.79
649.108	35.24
649.298	35.76
649.487	35.43
649.677	35.02
649.866	34.75
650.055	32.36
650.244	32.93
650.434	33.19
650.623	33.3
650.812	32.76
651.002	32.24
651.191	31.13
651.38	32.29
651.569	31.65
651.758	32.34
651.947	33.25
652.137	34.01
652.326	33.47
652.515	32.72
652.704	33.39
652.893	35
653.082	34.76
653.271	36.61
653.46	34.98
653.649	35.39
653.838	34.82
654.027	34.96
654.216	35.54
654.405	36.01
654.594	36.93
654.783	36.55
654.972	35.23
655.161	36.52
655.35	35.96
655.539	36.74
655.728	37.88
655.916	36.24
656.105	35.82
656.294	35.04
656.483	33.24
656.672	32.59
656.86	32.14
657.049	32.69
657.238	32.44
657.427	32.98
657.615	32.5
657.804	31.76
657.993	33.42
658.181	33.63
658.37	33.94
658.559	34.64
658.747	34.94
658.936	35.87
659.125	34.28
659.313	33.87
659.502	33.69
659.69	33.5
659.879	33.52
660.067	32.13
660.256	30.93
660.444	31.73
660.633	31.53
660.821	31.51
661.01	30.94
661.198	32.52
661.387	32.9
661.575	33.04
661.763	33.92
661.952	33.24
662.14	35.76
662.328	38.54
662.517	39.76
662.705	40.73
662.893	40.95
663.082	41.28
663.27	41.26
663.458	41.3
663.646	41.18
663.834	41.46
664.023	41.67
664.211	40.13
664.399	38.81
664.587	37.82
664.775	37.6
664.963	37.41
665.152	36.9
665.34	37.13
665.528	36.12
665.716	36.91
665.904	36.5
666.092	37.68
666.28	38.88
666.468	39.05
666.656	37.31
666.844	37.54
667.032	37.4
667.22	37.03
667.408	37.43
667.596	37.96
667.784	36.94
667.971	36.41
668.159	35.93
668.347	34.41
668.535	34.37
668.723	34.85
668.911	34.41
669.098	32.93
669.286	32.69
669.474	33.25
669.662	34.05
669.849	33.66
670.037	33.74
670.225	33.6
670.413	34.95
670.6	34.67
670.788	34.99
670.976	35.18
671.163	36.49
671.351	36.3
671.538	35.66
671.726	36.2
671.913	36.03
672.101	35.75
672.289	35.71
672.476	34.28
672.664	34.64
672.851	36.05
673.039	35.97
673.226	35.44
673.413	36.74
673.601	37.16
673.788	37.33
673.976	37.91
674.163	40.13
674.35	40.73
674.538	42.63
674.725	42.58
674.912	41.68
675.1	40.31
675.287	41.77
675.474	39.98
675.662	39.25
675.849	37.86
676.036	38.64
676.223	37.13
676.411	36.75
676.598	36.48
676.785	36.44
676.972	36.15
677.159	37.32
677.346	35.78
677.533	36.64
677.721	36.68
677.908	37.2
678.095	36.37
678.282	35.71
678.469	35.97
678.656	35.21
678.843	34.87
679.03	34.79
679.217	34.71
679.404	34.69
679.591	34.15
679.778	34.13
679.964	34.98
680.151	36.11
680.338	37.27
680.525	36.1
680.712	36.73
680.899	36.17
681.086	36.92
681.272	36.61
681.459	36.04
681.646	37.27
681.833	37.32
682.02	35.97
682.206	36.08
682.393	35.49
682.58	36.61
682.766	35.48
682.953	35.89
683.14	36.42
683.326	37.25
683.513	37.3
683.7	36.91
683.886	36.05
684.073	35.28
684.259	32.84
684.446	31.78
684.632	32.62
684.819	34.12
685.005	33.79
685.192	31.66
685.378	30.46
685.565	32.41
685.751	32.85
685.938	33.13
686.124	33.64
686.31	34.72
686.497	35.79
686.683	34.46
686.87	32.34
687.056	32.65
687.242	31.88
687.429	32.38
687.615	31.73
687.801	30.61
687.987	30.8
688.174	30.58
688.36	32.8
688.546	31.96
688.732	32.5
688.918	33.32
689.105	33.31
689.291	34.51
689.477	35.65
689.663	35.53
689.849	37.14
690.035	37
690.221	37.82
690.407	36.58
690.593	36.88
690.779	36.98
690.965	38.69
691.151	39.5
691.337	39.55
691.523	38.15
691.709	37.59
691.895	37.19
692.081	37.33
692.267	36.16
692.453	35.55
692.639	36.35
692.825	35
693.011	33.28
693.196	32.97
693.382	34.82
693.568	34.01
693.754	33.93
693.94	32.92
694.125	33.9
694.311	35.48
694.497	35.69
694.682	35.62
694.868	36.11
695.054	37.92
695.239	36.05
695.425	35.58
695.611	36.3
695.796	35.51
695.982	35.34
696.168	35.23
696.353	34.77
696.539	34.04
696.724	32.66
696.91	32.59
697.095	32.01
697.281	31.66
697.466	30.94
697.652	31.33
697.837	31.7
698.023	30.97
698.208	30
698.393	29.38
698.579	29.71
698.764	31.05
698.949	31.48
699.135	30.72
699.32	32.88
699.505	33.34
699.691	33.54
699.876	34.92
700.061	35.55
700.246	35.65
700.432	37.96
700.617	39.14
700.802	39.28
700.987	38.9
701.172	41.9
701.358	39.94
701.543	42.33
701.728	43.25
701.913	42.19
702.098	43.55
702.283	45.62
702.468	42.69
702.653	43.12
702.838	41.34
703.023	42.23
703.208	39.79
703.393	41.58
703.578	38.28
703.763	38.8
703.948	37.96
704.133	38.42
704.318	38.57
704.503	40.35
704.688	40.46
704.873	42.02
705.057	41.7
705.242	42.01
705.427	41.84
705.612	41.98
705.797	40.26
705.981	41.74
706.166	42.07
706.351	40.64
706.536	39.56
706.72	39.36
706.905	39.06
707.09	39.14
707.274	37.86
707.459	38.43
707.644	40.01
707.828	40.4
708.013	39.1
708.197	37.69
708.382	39.25
708.567	39.65
708.751	38.33
708.936	37.99
709.12	39.22
709.305	40.33
709.489	39.59
709.673	39.41
709.858	40.59
710.042	42.79
710.227	41.04
710.411	41.48
710.596	41.54
710.78	42.22
710.964	43.6
711.149	41.89
711.333	42.06
711.517	44.37
711.702	44.27
711.886	42.67
712.07	42.1
712.254	43.54
712.438	41.95
712.623	41.81
712.807	41.27
712.991	39.73
713.175	40.13
713.359	37.5
713.544	34.42
713.728	33.98
713.912	34.79
714.096	35.15
714.28	35.18
714.464	34.73
714.648	34.92
714.832	35.6
715.016	36.21
715.2	35.6
715.384	36.53
715.568	37.97
715.752	39.25
715.936	38.44
716.12	37.6
716.304	36.19
716.488	36.92
716.671	35.39
716.855	34.7
717.039	34.5
717.223	33.12
717.407	33.34
717.59	33.52
717.774	30.82
717.958	32.52
718.142	33.44
718.325	35.15
718.509	33.22
718.693	34.94
718.877	35.06
719.06	35.8
719.244	36.67
719.428	36.49
719.611	36.64
719.795	36.95
719.978	34.19
720.162	32.66
720.345	34.65
720.529	35.8
720.713	35.94
720.896	34.28
721.08	35.62
721.263	34.23
721.446	34.88
721.63	31.85
721.813	31.87
721.997	30.98
722.18	32.9
722.364	31.63
722.547	33.32
722.73	31.99
722.914	34.65
723.097	29.78
723.28	30.62
723.464	31.37
723.647	33.17
723.83	32.6
724.013	36.81
724.197	34.88
724.38	34.13
724.563	32.77
724.746	33.68
724.929	32.5
725.112	35.77
725.296	36.54
725.479	37.8
725.662	39.18
725.845	39.77
726.028	37.82
726.211	40.2
726.394	40.84
726.577	39.96
726.76	40.75
726.943	39.11
727.126	38.81
727.309	40.13
727.492	37.29
727.675	35.3
727.858	34.14
728.041	32.99
728.224	32.05
728.407	30.57
728.589	34.23
728.772	31.76
728.955	31.94
729.138	31.61
729.321	30.68
729.503	30.08
729.686	30.03
729.869	30.93
730.052	32.37
730.234	32.65
730.417	32.53
730.6	29.97
730.782	29.96
730.965	30.54
731.148	29.98
731.33	30.19
731.513	30.63
731.695	31.81
731.878	32.57
732.061	33.07
732.243	32.2
732.426	33.05
732.608	33.76
732.791	35.13
732.973	37.28
733.156	38.64
733.338	39.29
733.52	40.94
733.703	39.94
733.885	39.8
734.068	40.39
734.25	41.53
734.432	42.61
734.615	43.09
734.797	44.15
734.979	42.62
735.162	42.67
735.344	42.42
735.526	42.22
735.708	46.29
735.891	45.61
736.073	45.54
736.255	42.87
736.437	43.78
736.619	43.31
736.802	45.54
736.984	49.03
737.166	49.89
737.348	50.59
737.53	49
737.712	49.1
737.894	46.75
738.076	48.69
738.258	49.96
738.44	49.95
738.622	51.85
738.804	50.03
738.986	45.2
739.168	48.54
739.35	50.66
739.532	52.62
739.714	48.96
739.896	52.12
740.078	50.68
740.259	51.32
740.441	51.26
740.623	51.87
740.805	51.93
740.987	54.08
741.168	50.27
741.35	52.53
741.532	54.35
741.714	54.61
741.895	56.28
742.077	56.49
742.259	57.25
742.44	65.05
742.622	64.84
742.804	67.92
742.985	68.88
743.167	69.79
743.348	68.47
743.53	67.86
743.711	72.05
743.893	70.44
744.075	70.77
744.256	72.74
744.438	64.68
744.619	63.09
744.8	61.05
744.982	60.79
745.163	62.23
745.345	60.18
745.526	60.45
745.707	60.97
745.889	61.37
746.07	59.31
746.252	58.4
746.433	57.99
746.614	59.99
746.795	61.99
746.977	62.16
747.158	60.18
747.339	58.04
747.52	59.1
747.702	60.44
747.883	61.42
748.064	63.68
748.245	62.38
748.426	62.91
748.607	62.19
748.788	63.47
748.97	64.58
749.151	66.8
749.332	70.74
749.513	71.33
749.694	68.68
749.875	63.7
750.056	63.5
750.237	61.88
750.418	60.3
750.599	57.88
750.78	55.14
750.96	55.45
751.141	49.15
751.322	47.1
751.503	50.36
751.684	49.61
751.865	54.05
752.046	55.48
752.226	54.57
752.407	56.76
752.588	58.75
752.769	56.38
752.949	50.72
753.13	56.24
753.311	58.85
753.492	53.47
753.672	53.81
753.853	55.31
754.034	52.22
754.214	53.1
754.395	55.74
754.575	55.18
754.756	58.39
754.937	66.09
755.117	67.26
755.298	63.57
755.478	64.12
755.659	65.52
755.839	64.09
756.02	68.2
756.2	67.8
756.381	66.14
756.561	61.25
756.741	59.43
756.922	57.18
757.102	52.57
757.283	50.42
757.463	51.94
757.643	45.91
757.823	43.17
758.004	37.43
758.184	38.16
758.364	36.2
758.545	42.48
758.725	42.6
758.905	37
759.085	32.82
759.265	35.29
759.446	28.7
759.626	29.78
759.806	23.03
759.986	21.82
760.166	17.06
760.346	21.08
760.526	19.76
760.706	19.46
760.886	23.11
761.066	24.57
761.246	22.03
761.426	23.75
761.606	24.65
761.786	26.93
761.966	25.3
762.146	26.42
762.326	23.9
762.506	22.73
762.686	19.52
762.866	17.94
763.046	19.07
763.225	18.97
763.405	19.6
763.585	18.93
763.765	19.17
763.945	22.19
764.124	24.48
764.304	25.55
764.484	26.68
764.664	31.86
764.843	34.49
765.023	40.18
765.203	47.02
765.382	50.09
765.562	51.43
765.741	59.16
765.921	62.68
766.101	62.52
766.28	68.06
766.46	65.49
766.639	65.12
766.819	68.41
766.998	67.25
767.178	65.75
767.357	63.45
767.537	63.83
767.716	60.16
767.896	57.58
768.075	58.27
768.254	56.46
768.434	55.83
768.613	56.91
768.792	58.52
768.972	61.64
769.151	60.97
769.33	65.98
769.51	66.07
769.689	67.97
769.868	66.93
770.047	60.87
770.226	61.71
770.406	68.68
770.585	76.54
770.764	74.27
770.943	65.83
771.122	65.5
771.301	66.98
771.48	69.94
771.66	67.48
771.839	73.01
772.018	83.35
772.197	80.37
772.376	79.24
772.555	74.64
772.734	73.86
772.913	76.43
773.092	78.45
773.271	79.15
773.449	84.77
773.628	90.13
773.807	83.39
773.986	84.93
774.165	94.33
774.344	97.99
774.523	96.23
774.701	90.96
774.88	91.25
775.059	93.15
775.238	87.4
775.417	79.65
775.595	75.54
775.774	75.57
775.953	69.77
776.131	68.97
776.31	68.82
776.489	70.17
776.667	74.66
776.846	70.28
777.025	71.02
777.203	74.74
777.382	75.1
777.56	79.43
777.739	84.75
777.917	84.37
778.096	80.72
778.274	77.6
778.453	73.51
778.631	72
778.81	75.2
778.988	67.5
779.166	65.49
779.345	69.3
779.523	65.44
779.702	67.17
779.88	69.3
780.058	70.96
780.237	70.14
780.415	68.53
780.593	70
780.771	73.48
780.95	74.39
781.128	77.06
781.306	81.92
781.484	88.95
781.662	88.5
781.841	89.94
782.019	80.52
782.197	81.78
782.375	85.36
782.553	82.15
782.731	82.3
782.909	96.5
783.087	84.27
783.265	71.53
783.443	68.03
783.621	59.74
783.799	59.44
783.977	69.38
784.155	65.33
784.333	71.62
784.511	72.6
784.689	75.91
784.867	69.28
785.045	72.75
785.223	76.83
785.4	68.82
785.578	80.08
785.756	83.6
785.934	76.13
786.112	75.79
786.289	71.68
786.467	71.6
786.645	70.18
786.823	69.58
787	69.77
787.178	65.65
787.356	68.24
787.533	58.13
787.711	55.49
787.889	57.46
788.066	64.14
788.244	62.57
788.421	63.63
788.599	57.68
788.776	55.93
788.954	59.11
789.131	61.72
789.309	66.7
789.486	81.63
789.664	84.44
789.841	92.6
790.019	95.8
790.196	104.14
790.373	102.02
790.551	120.21
790.728	121.85
790.906	108.82
791.083	120.13
791.26	112.98
791.437	99.19
791.615	89.57
791.792	77.24
791.969	69.95
792.146	74.51
792.324	77.35
792.501	58.15
792.678	61.04
792.855	62.59
793.032	63.14
793.209	52.64
793.387	49.72
793.564	52.66
793.741	62.56
793.918	64.28
794.095	59.33
794.272	59.89
794.449	64.21
794.626	64.06
794.803	66.2
794.98	63.14
795.157	69.65
795.334	71.05
795.511	76.65
795.688	75.75
795.864	69.27
796.041	68.67
796.218	70.02
796.395	69.18
796.572	68.56
796.749	67.93
796.925	66.93
797.102	69.48
797.279	73.47
797.456	66.87
797.632	66.46
797.809	70.21
797.986	68.8
798.162	63.6
798.339	62.99
798.516	64.9
798.692	66.78
798.869	60.83
799.046	58.69
799.222	59.75
799.399	64.11
799.575	60.99
799.752	69.02
799.928	72.87
800.105	73.45
800.281	80.78
800.458	86.58
800.634	92
800.811	101.08
800.987	101.81
801.163	96.16
801.34	95.71
801.516	93.73
801.692	78.02
801.869	77.19
802.045	78.02
802.221	70.77
802.398	71.55
802.574	70.47
802.75	70.35
802.926	65.49
803.103	61.5
803.279	73.98
803.455	77.59
803.631	89.33
803.807	96.03
803.983	95.59
804.16	106.28
804.336	95.41
804.512	92.42
804.688	94.36
804.864	101.81
805.04	118.6
805.216	100.34
805.392	80.69
805.568	76.6
805.744	76.17
805.92	84.95
806.096	85.6
806.272	88.67
806.448	88.84
806.623	83.07
806.799	83.5
806.975	84.28
807.151	80.38
807.327	88.38
807.503	88.92
807.678	82.61
807.854	66.17
808.03	66.28
808.206	62.02
808.381	65.94
808.557	74.7
808.733	74.48
808.908	71.34
809.084	77.79
809.26	74.58
809.435	64.53
809.611	55.25
809.787	67.63
809.962	60.35
810.138	54.75
810.313	34.18
810.489	25.45
810.664	28.18
810.84	27.15
811.015	28.54
811.191	34.78
811.366	45.7
811.542	58.29
811.717	60.53
811.892	65.37
812.068	63.43
812.243	90.08
812.419	106.99
812.594	72.61
812.769	68.7
812.944	43.68
813.12	29.49
813.295	36.62
813.47	37.69
813.645	32.11
813.821	29.48
813.996	41.82
814.171	47.44
814.346	51.83
814.521	49.35
814.697	37.28
814.872	31.24
815.047	46.06
815.222	31.58
815.397	17.78
815.572	36.58
815.747	32.98
815.922	29.4
816.097	23.43
816.272	29.41
816.447	34.44
816.622	39.63
816.797	46.5
816.972	43.06
817.147	46.77
817.322	43.96
817.496	38.75
817.671	42.17
817.846	38.19
818.021	43.33
818.196	36.85
818.371	37.13
818.545	41.48
818.72	37.14
818.895	31.69
819.069	28.21
819.244	32.78
819.419	32.72
819.594	27.81
819.768	31.33
819.943	24.74
820.117	24.57
820.292	26.13
820.467	23.26
820.641	22.6
820.816	22.36
820.99	20.66
821.165	20.2
821.339	18.55
821.514	18.76
821.688	16.19
821.863	17.24
822.037	16.76
822.212	14.72
822.386	17.37
822.56	19.33
822.735	20.3
822.909	23.67
823.084	23.57
823.258	24.01
823.432	28.13
823.606	33.6
823.781	34.68
823.955	37.68
824.129	38.29
824.303	35.92
824.478	35.41
824.652	38.74
824.826	40.23
825	39.07
825.174	38.74
825.348	34.66
825.523	33.21
825.697	33.1
825.871	30.53
826.045	31.7
826.219	31.82
826.393	31.14
826.567	30.1
826.741	29.68
826.915	30.39
827.089	33.26
827.263	30.91
827.437	29.85
827.611	29.54
827.784	36.17
827.958	34.87
828.132	33.53
828.306	33.91
828.48	36.32
828.654	38.5
828.827	39.19
829.001	45.08
829.175	51.52
829.349	51.44
829.522	59.14
829.696	50.88
829.87	47.85
830.044	49.51
830.217	43.51
830.391	39.19
830.565	31.73
830.738	31.19
830.912	22.04
831.085	25.71
831.259	25.75
831.432	26.7
831.606	21.56
831.779	27.54
831.953	32.66
832.126	36.28
832.3	37.14
832.473	39
832.647	36.99
832.82	34.58
832.994	33.63
833.167	35.89
833.34	33.83
833.514	34.59
833.687	36.88
833.86	35.03
834.034	33.34
834.207	29.68
834.38	28.89
834.553	36.01
834.727	40.56
834.9	39.18
835.073	34.49
835.246	31.58
835.419	36.16
835.593	28.37
835.766	45.94
835.939	50.82
836.112	57.53
836.285	52.75
836.458	65.67
836.631	45.8
836.804	63.1
836.977	67.31
837.15	84.09
837.323	80.89
837.496	95.29
837.669	102.63
837.842	78.51
838.015	75.87
838.188	73
838.361	70.17
838.533	73.6
838.706	64.44
838.879	71.46
839.052	70.32
839.225	75.38
839.398	68.6
839.57	63.24
839.743	72.16
839.916	67.48
840.088	65.87
840.261	57.75
840.434	52.43
840.607	54.86
840.779	47.56
840.952	50.46
841.124	56.38
841.297	79.73
841.47	60.31
841.642	54.49
841.815	82.9
841.987	108.75
842.16	120.25
842.332	127.57
842.505	91.78
842.677	81.16
842.85	38.37
843.022	30.26
843.194	-29.88
843.367	-18.27
843.539	-24.78
843.712	-35.75
843.884	-41.88
844.056	-16.69
844.229	-6.26
844.401	9.11
844.573	38.03
844.745	90
844.918	69.55
845.09	134.55
845.262	201.27
845.434	224.68
845.606	416.96
845.779	-1104.55
845.951	9500
846.123	-802.94
846.295	793.88
846.467	-636.84
846.639	-669.57
846.811	242.05
846.983	130.77
847.155	115
847.327	352.83
847.499	204.56
847.671	167.59
847.843	233.64
848.015	189.37
848.187	140.82
848.359	122.6
848.531	165.4
848.703	235
848.875	241.4
849.047	955
849.218	1606.25
849.39	-276.54
849.562	6380
849.734	-1328.57
849.905	9128.57
850.077	-844.59
850.249	-407.86
850.421	1277.78
850.592	699.19
850.764	339.76
850.936	239.43
851.107	320.35
851.279	270.06
851.451	265.98
851.622	327.93
851.794	225
851.965	261.35
852.137	237.27
852.308	3600
852.48	-240.74
852.651	-190.58
852.823	-375.4
852.994	-1755.56
853.166	4337.5
853.337	-758.33
853.509	232.16
853.68	6125
853.851	333.33
854.023	189.51
854.194	252.54
854.365	192.92
854.537	140.13
854.708	78.93
854.879	44.29
855.05	96.27
855.222	92.68
855.393	155.77
855.564	156.16
855.735	121.92
855.906	197.27
856.078	176.75
856.249	113.8
856.42	112.39
856.591	224.85
856.762	-1989.47
856.933	-961.54
857.104	-232
857.275	7825
857.446	478.46
857.617	-4783.33
857.788	10200
857.959	95.43
858.13	57.14
858.301	88.95
858.472	27.78
858.643	40.58
858.814	14.01
858.985	15.85
859.155	-59.9
859.326	-346.53
859.497	-28.76
859.668	-92.59
859.839	-112.5
860.009	-31.55
860.18	2.69
860.351	81.88
860.522	52.61
860.692	98.25
860.863	94.81
861.034	133.04
861.204	187.23
861.375	387.6
861.546	227.56
861.716	229.93
861.887	256.88
862.057	1038.24
862.228	1450
862.398	-207.07
862.569	-1280.39
862.739	-1552.27
862.91	736.96
863.08	7642.86
863.251	-2690.48
863.421	-805.33
863.592	-7400
863.762	-685.71
863.932	1134.15
864.103	-948.89
864.273	463.16
864.443	432.14
864.614	302.3
864.784	338.71
864.954	186.63
865.125	122.13
865.295	110.5
865.465	119.75
865.635	133.27
865.805	121.83
865.976	101.3
866.146	87.39
866.316	70.1
866.486	41.66
866.656	32.2
866.826	31.68
866.996	48.87
867.166	71.99
867.336	63.56
867.506	51.96
867.676	76.51
867.846	87.41
868.016	74.4
868.186	118.04
868.356	538.55
868.526	378.79
868.696	-2429.41
868.866	-532.84
869.036	-1151.85
869.206	997.3
869.376	-881.48
869.545	1356
869.715	1400
869.885	-551.47
870.055	-281.2
870.224	156.9
870.394	207.43
870.564	396.12
870.734	465.18
870.903	282.87
871.073	402.11
871.243	323.12
871.412	238.53
871.582	431.52
871.751	-1631.82
871.921	-260.76
872.091	-48.56
872.26	-89.82
872.43	-46.14
872.599	-60.73
872.769	-23.77
872.938	-58.85
873.108	-73.7
873.277	-160.48
873.446	2861.54
873.616	-246.24
873.785	100
873.955	120.83
874.124	82.23
874.293	129.9
874.463	597.3
874.632	-65.22
874.801	-50.91
874.971	24.83
875.14	20.25
875.309	22.02
875.478	-27.47
875.647	35.4
875.817	53.01
875.986	39.68
876.155	-9200
876.324	9.09
876.493	91.98
876.662	97.96
876.831	81.68
877	108.81
877.17	64.43
877.339	41.25
877.508	114.05
877.677	0
877.846	191.67
878.015	-183.33
878.184	13.56
878.352	966.67
878.521	-54.41
878.69	16.32
878.859	51.29
879.028	66.44
879.197	74.21
879.366	52.57
879.534	51.81
879.703	51.31
879.872	48.65
880.041	53
880.21	55.01
880.378	54.67
880.547	48.2
880.716	36.65
880.884	30.59
881.053	31.61
881.222	28.19
881.39	22.95
881.559	35.1
881.727	33.19
881.896	23.64
882.065	20.17
882.233	17.61
882.402	14.31
882.57	17.58
882.739	32.11
882.907	26.86
883.076	35.49
883.244	35.39
883.412	10.1
883.581	13.95
883.749	24.67
883.918	28.55
884.086	27.66
884.254	45.1
884.423	39.95
884.591	34.68
884.759	52.84
884.927	58.97
885.096	71.81
885.264	74.44
885.432	82.26
885.6	91.78
885.769	82.68
885.937	87.78
886.105	76.83
886.273	69.87
886.441	68.32
886.609	46.6
886.777	44.85
886.945	67.42
887.113	85.21
887.281	87.84
887.449	79.85
887.617	69.32
887.785	86.47
887.953	68.92
888.121	159.26
888.289	315.83
888.457	661.54
888.625	509.52
888.793	-418.42
888.961	750
889.129	975
889.296	223.44
889.464	376.92
889.632	295.38
889.8	212.96
889.967	107.08
890.135	60.17
