Data from JASIL_2938_Reflection_1.txt Node
Date: Sat Nov 07 21:07:17 EST 2015
User: Geneva
Spectrometer: USB4E03002
Autoset integration time: false
Trigger mode: 4
Integration Time (sec): 1.000000E-1
Scans to average: 10
Electric dark correction enabled: true
Nonlinearity correction enabled: false
Boxcar width: 5
Stray light correction enabled: false
XAxis mode: Wavelengths
Stop averaging: false
Number of Pixels in Spectrum: 3648
>>>>>Begin Spectral Data<<<<<
177.575	-348.56
177.794	-88.46
178.014	-215.93
178.233	5.08
178.452	-3.69
178.672	65.38
178.891	74.79
179.11	0
179.33	383.69
179.549	473.85
179.768	-94.34
179.987	450.21
180.207	133.74
180.426	88.21
180.645	84.56
180.864	94.54
181.084	100.63
181.303	100.93
181.522	105.93
181.741	91.06
181.96	94.63
182.179	86.76
182.398	75.28
182.618	67.35
182.837	75.16
183.056	53.26
183.275	45.29
183.494	35.03
183.713	40.62
183.932	41.68
184.151	53.97
184.37	45.3
184.589	42.4
184.808	44.04
185.027	59.88
185.246	46.33
185.465	59.23
185.684	52.35
185.903	63.67
186.122	62.28
186.341	63.61
186.56	61.14
186.779	71.53
186.998	86.13
187.216	87.23
187.435	78.15
187.654	96.03
187.873	101.33
188.092	99.33
188.311	92.91
188.53	75.52
188.748	73.7
188.967	74.12
189.186	48.03
189.405	33.79
189.623	34.73
189.842	43.55
190.061	41.84
190.28	20.42
190.498	24.13
190.717	21.5
190.936	29.73
191.154	3.07
191.373	-5
191.592	4.18
191.81	9.14
192.029	9.93
192.248	-1.57
192.466	9.71
192.685	28.34
192.904	37.31
193.122	32.29
193.341	16.18
193.559	25.84
193.778	29.15
193.996	31.52
194.215	34.2
194.433	31.08
194.652	26.64
194.87	27.62
195.089	34.31
195.307	36.74
195.526	36.16
195.744	47.79
195.963	57.41
196.181	71.23
196.399	80.82
196.618	88.9
196.836	75.52
197.055	79.79
197.273	86.65
197.491	113.76
197.71	89.64
197.928	101.82
198.146	88.38
198.365	73.41
198.583	61.49
198.801	64.68
199.019	41.73
199.238	38.65
199.456	27.67
199.674	21.77
199.892	7.6
200.111	2.74
200.329	29.81
200.547	25.98
200.765	33.34
200.983	19.63
201.202	28.98
201.42	49.58
201.638	52.34
201.856	54.06
202.074	47.85
202.292	46.82
202.51	55.04
202.728	36.75
202.946	29.92
203.165	14.64
203.383	14.07
203.601	2.46
203.819	17.78
204.037	30.25
204.255	44.83
204.473	54.99
204.691	32.51
204.909	22.23
205.127	37.29
205.345	45.21
205.562	51.64
205.78	53.61
205.998	48.94
206.216	41.12
206.434	38.86
206.652	30.06
206.87	26.32
207.088	35.34
207.306	39.15
207.523	27.83
207.741	17.95
207.959	26.91
208.177	18.94
208.395	10.07
208.612	-11.01
208.83	-8.28
209.048	-4.09
209.266	-22.09
209.483	-28.58
209.701	-31.91
209.919	-24.76
210.136	-24.23
210.354	-0.8
210.572	15.01
210.79	23.72
211.007	27.85
211.225	27.17
211.442	30.72
211.66	32.7
211.878	32.29
212.095	40.34
212.313	37.58
212.53	39.05
212.748	33.64
212.966	25.02
213.183	19.91
213.401	16.76
213.618	18.91
213.836	9.87
214.053	4.12
214.271	9.88
214.488	-0.53
214.705	-2.71
214.923	3.29
215.14	-1.65
215.358	-0.25
215.575	5.54
215.793	16.18
216.01	11.53
216.227	17.92
216.445	15.7
216.662	13.49
216.879	17.88
217.097	17.53
217.314	14.2
217.531	18.01
217.749	16.95
217.966	15.6
218.183	9.38
218.4	8.69
218.618	15.23
218.835	20.33
219.052	19.38
219.269	20.45
219.487	21.61
219.704	16.12
219.921	9.79
220.138	17.31
220.355	13.81
220.572	17.57
220.79	18.13
221.007	17.04
221.224	15.14
221.441	12
221.658	11.49
221.875	10.49
222.092	12.24
222.309	17.85
222.526	13.21
222.743	11.83
222.96	5.44
223.177	4.93
223.394	3.19
223.611	5.23
223.828	6.16
224.045	6.46
224.262	9.35
224.479	10.11
224.696	7.96
224.913	9.49
225.13	13.03
225.347	14.21
225.564	14.17
225.781	14.25
225.997	13.9
226.214	13.31
226.431	12.91
226.648	11.54
226.865	11.28
227.082	10.93
227.298	10.55
227.515	9.61
227.732	8.82
227.949	8.91
228.165	8.53
228.382	7.54
228.599	7.67
228.816	7.6
229.032	6.98
229.249	6.62
229.466	6.36
229.682	5.94
229.899	6.43
230.116	7.2
230.332	7.73
230.549	8.94
230.765	10.87
230.982	10.86
231.199	10.98
231.415	11.87
231.632	11.04
231.848	11.41
232.065	12.39
232.281	11.98
232.498	12.49
232.714	12.37
232.931	10.23
233.147	9.95
233.364	10.28
233.58	10.5
233.797	10.42
234.013	12.09
234.23	11.77
234.446	11.21
234.662	11.63
234.879	12.44
235.095	12.15
235.312	13.35
235.528	12.63
235.744	12.55
235.961	12.14
236.177	12.61
236.393	12.04
236.61	13.41
236.826	13.35
237.042	13.36
237.258	11.98
237.475	12.09
237.691	11.79
237.907	11.95
238.123	12.25
238.339	12.19
238.556	12.05
238.772	11.19
238.988	11.52
239.204	11.47
239.42	11.04
239.636	10.99
239.853	10.88
240.069	10.82
240.285	10.35
240.501	9.69
240.717	9.47
240.933	9.32
241.149	9.49
241.365	8.92
241.581	8.7
241.797	8.66
242.013	8.51
242.229	8.7
242.445	8.4
242.661	8.63
242.877	9
243.093	9.13
243.309	9.19
243.525	9.1
243.741	9.38
243.957	9.56
244.173	9.82
244.388	9.69
244.604	9.12
244.82	9.32
245.036	9.07
245.252	8.63
245.468	8.53
245.683	8.4
245.899	8.57
246.115	8.37
246.331	8.41
246.547	8.18
246.762	8.1
246.978	8.12
247.194	8.06
247.409	8.13
247.625	8.02
247.841	7.83
248.057	7.83
248.272	7.63
248.488	7.78
248.703	7.46
248.919	8.06
249.135	8.28
249.35	8.34
249.566	8.32
249.782	8.11
249.997	8.39
250.213	8.86
250.428	8.78
250.644	8.6
250.859	8.65
251.075	8.6
251.29	7.79
251.506	7.43
251.721	7.16
251.937	6.92
252.152	7.28
252.368	7.64
252.583	7.67
252.798	7.69
253.014	8.09
253.229	8.15
253.445	8.03
253.66	8.15
253.875	8.26
254.091	8.11
254.306	8.3
254.521	7.49
254.737	7.53
254.952	7.2
255.167	6.98
255.383	6.95
255.598	6.73
255.813	7
256.028	6.88
256.244	7.12
256.459	6.95
256.674	7.06
256.889	7.12
257.104	6.9
257.32	6.53
257.535	6.41
257.75	6
257.965	5.79
258.18	5.86
258.395	5.96
258.61	5.84
258.826	6.08
259.041	5.83
259.256	5.9
259.471	5.8
259.686	6.02
259.901	6.12
260.116	6.25
260.331	6.22
260.546	6.33
260.761	6.22
260.976	6.28
261.191	5.91
261.406	5.94
261.621	5.95
261.836	5.85
262.05	5.49
262.265	5.32
262.48	5.33
262.695	5.58
262.91	5.61
263.125	5.55
263.34	5.9
263.555	6.56
263.769	6.68
263.984	6.42
264.199	6.46
264.414	6.79
264.629	6.95
264.843	6.7
265.058	6.64
265.273	6.55
265.488	6.81
265.702	6.5
265.917	6.58
266.132	6.78
266.346	6.97
266.561	7.08
266.776	7.06
266.99	7.02
267.205	7.04
267.42	6.72
267.634	6.47
267.849	6.56
268.063	6.47
268.278	6.09
268.492	5.91
268.707	5.56
268.922	5.23
269.136	5.27
269.351	5.21
269.565	5.34
269.78	5.57
269.994	5.44
270.209	5.24
270.423	5.6
270.637	5.52
270.852	5.62
271.066	5.64
271.281	5.84
271.495	5.72
271.709	5.85
271.924	5.89
272.138	5.7
272.353	5.85
272.567	5.6
272.781	5.48
272.996	5.43
273.21	5.09
273.424	5.08
273.638	4.93
273.853	4.96
274.067	4.69
274.281	4.74
274.495	4.9
274.71	4.91
274.924	4.98
275.138	5.12
275.352	5.22
275.566	5.66
275.781	5.86
275.995	6.08
276.209	6.16
276.423	6.28
276.637	5.77
276.851	5.92
277.065	5.95
277.279	6
277.493	5.9
277.707	5.75
277.921	5.62
278.135	5.48
278.349	5.25
278.563	4.94
278.777	4.78
278.991	5.16
279.205	5.2
279.419	5.22
279.633	5.41
279.847	5.37
280.061	5.46
280.275	5.32
280.489	5.25
280.703	5.23
280.917	5.27
281.131	5.4
281.344	5.31
281.558	5.02
281.772	4.84
281.986	4.78
282.2	4.66
282.414	4.81
282.627	4.98
282.841	5
283.055	5
283.269	5.01
283.482	4.92
283.696	4.87
283.91	5.14
284.123	5.15
284.337	5.16
284.551	5.13
284.764	5.08
284.978	5.01
285.192	4.92
285.405	5.18
285.619	5.37
285.833	5.11
286.046	5.26
286.26	5.3
286.473	5.28
286.687	5.21
286.9	5.27
287.114	5.2
287.327	5.41
287.541	5.62
287.754	5.23
287.968	4.81
288.181	5.06
288.395	4.98
288.608	4.79
288.822	4.92
289.035	5.03
289.248	5.03
289.462	5.17
289.675	4.87
289.889	4.69
290.102	4.83
290.315	5.05
290.529	5.06
290.742	5.14
290.955	5.09
291.169	5.09
291.382	4.83
291.595	4.66
291.808	4.47
292.022	4.98
292.235	5.02
292.448	5.13
292.661	5.16
292.875	5.27
293.088	5.06
293.301	4.99
293.514	4.81
293.727	5
293.94	5.21
294.153	5.32
294.367	4.83
294.58	4.88
294.793	4.58
295.006	4.46
295.219	4.41
295.432	4.55
295.645	4.83
295.858	4.68
296.071	4.56
296.284	4.35
296.497	4.3
296.71	4.39
296.923	4.37
297.136	4.52
297.349	4.67
297.562	4.57
297.775	4.57
297.988	4.45
298.201	4.69
298.414	4.7
298.626	4.81
298.839	4.86
299.052	4.91
299.265	4.82
299.478	4.67
299.691	4.39
299.903	4.47
300.116	4.35
300.329	4.08
300.542	4.03
300.755	4.2
300.967	4.23
301.18	4.37
301.393	4.26
301.605	4.13
301.818	4.31
302.031	4.48
302.243	4.38
302.456	4.46
302.669	4.53
302.881	4.64
303.094	4.48
303.307	4.76
303.519	4.63
303.732	4.8
303.944	4.98
304.157	4.72
304.37	4.77
304.582	5.13
304.795	5.17
305.007	5.25
305.22	5.09
305.432	5.06
305.645	4.7
305.857	4.87
306.069	4.88
306.282	4.87
306.494	5.2
306.707	5.09
306.919	4.99
307.132	4.77
307.344	4.73
307.556	4.81
307.769	4.87
307.981	4.99
308.193	4.81
308.406	4.6
308.618	4.65
308.83	4.48
309.043	4.63
309.255	4.39
309.467	4.51
309.679	4.62
309.892	4.64
310.104	4.63
310.316	4.65
310.528	4.7
310.74	4.85
310.953	4.95
311.165	4.95
311.377	4.7
311.589	4.87
311.801	4.93
312.013	4.88
312.225	4.83
312.437	4.83
312.649	4.93
312.862	5.05
313.074	4.91
313.286	4.85
313.498	5.05
313.71	5.5
313.922	5.6
314.134	5.6
314.346	5.69
314.558	5.7
314.77	5.98
314.982	5.72
315.193	5.67
315.405	5.59
315.617	5.4
315.829	5.4
316.041	5.18
316.253	4.83
316.465	4.74
316.677	4.75
316.888	4.92
317.1	4.83
317.312	5.21
317.524	5.26
317.736	5.47
317.947	5.81
318.159	5.89
318.371	6.06
318.583	6.5
318.794	6.69
319.006	6.81
319.218	6.8
319.43	6.67
319.641	6.51
319.853	6.4
320.064	6.61
320.276	6.59
320.488	6.56
320.699	6.64
320.911	6.52
321.123	6.56
321.334	6.43
321.546	6.59
321.757	6.73
321.969	6.9
322.18	7.12
322.392	7.08
322.603	6.89
322.815	6.83
323.026	6.84
323.238	6.9
323.449	7.03
323.661	7.19
323.872	7.2
324.083	7.28
324.295	7.19
324.506	7.03
324.718	6.89
324.929	7.29
325.14	7.79
325.352	7.92
325.563	8.22
325.774	8.21
325.986	8.11
326.197	8.1
326.408	8.37
326.62	8.58
326.831	8.87
327.042	9.16
327.253	9.19
327.464	9.06
327.676	8.94
327.887	8.99
328.098	9.06
328.309	9.45
328.52	9.71
328.732	9.92
328.943	10.06
329.154	10.53
329.365	10.63
329.576	11.05
329.787	10.98
329.998	11.36
330.209	11.51
330.42	11.83
330.631	12.03
330.842	12.16
331.053	12.29
331.264	12.5
331.475	12.42
331.686	12.66
331.897	12.55
332.108	12.75
332.319	12.7
332.53	12.69
332.741	12.68
332.952	12.63
333.163	12.78
333.374	12.73
333.585	12.68
333.795	12.56
334.006	12.65
334.217	12.65
334.428	12.78
334.639	12.93
334.849	13.23
335.06	13.3
335.271	13.38
335.482	13.35
335.692	13.42
335.903	13.45
336.114	13.61
336.325	13.62
336.535	13.59
336.746	13.51
336.957	13.42
337.167	13.28
337.378	13.29
337.589	13.3
337.799	13.23
338.01	13.28
338.22	13.31
338.431	13.22
338.642	13.26
338.852	13.13
339.063	13.18
339.273	13.22
339.484	13.31
339.694	13.18
339.905	13.2
340.115	13.16
340.326	13.05
340.536	13.1
340.746	13.08
340.957	12.9
341.167	13.06
341.378	13.02
341.588	13.21
341.799	12.88
342.009	12.85
342.219	12.71
342.43	12.83
342.64	12.67
342.85	12.56
343.061	12.55
343.271	12.68
343.481	12.73
343.691	12.66
343.902	12.4
344.112	12.4
344.322	12.64
344.532	12.68
344.743	12.65
344.953	12.76
345.163	12.83
345.373	12.81
345.583	12.74
345.793	12.68
346.004	12.74
346.214	12.91
346.424	13.21
346.634	13.16
346.844	13.18
347.054	13.32
347.264	13.43
347.474	13.47
347.684	13.3
347.894	13.3
348.104	13.29
348.314	13.27
348.524	13.13
348.734	13.02
348.944	12.83
349.154	12.81
349.364	12.58
349.574	12.48
349.784	12.26
349.994	12.62
350.204	12.47
350.413	12.39
350.623	12.42
350.833	12.43
351.043	12.28
351.253	12.3
351.463	12.28
351.672	12.21
351.882	12.16
352.092	12.18
352.302	11.91
352.511	11.95
352.721	11.94
352.931	12
353.141	11.93
353.35	11.94
353.56	11.9
353.77	12.17
353.979	12.37
354.189	12.5
354.399	12.71
354.608	12.8
354.818	13.02
355.027	13.11
355.237	12.9
355.447	12.81
355.656	12.83
355.866	12.94
356.075	12.58
356.285	12.52
356.494	12.31
356.704	12.1
356.913	12.09
357.123	11.87
357.332	11.79
357.542	11.92
357.751	11.96
357.96	11.86
358.17	11.83
358.379	11.97
358.589	11.83
358.798	12
359.007	11.99
359.217	11.86
359.426	11.89
359.635	11.81
359.845	11.74
360.054	11.8
360.263	11.86
360.472	11.81
360.682	11.74
360.891	11.87
361.1	11.74
361.309	11.78
361.519	11.84
361.728	11.91
361.937	12
362.146	11.92
362.355	11.92
362.564	11.98
362.774	11.93
362.983	11.91
363.192	11.79
363.401	11.78
363.61	11.75
363.819	11.86
364.028	11.86
364.237	11.73
364.446	11.95
364.655	11.81
364.864	11.72
365.073	11.77
365.282	11.84
365.491	11.78
365.7	11.86
365.909	11.83
366.118	11.87
366.327	11.82
366.536	11.89
366.745	11.75
366.954	11.87
367.162	11.89
367.371	11.82
367.58	11.77
367.789	11.73
367.998	11.71
368.207	11.72
368.415	11.69
368.624	11.6
368.833	11.59
369.042	11.64
369.25	11.7
369.459	11.79
369.668	11.86
369.877	11.86
370.085	11.96
370.294	11.86
370.503	11.89
370.711	11.84
370.92	11.89
371.129	11.84
371.337	11.82
371.546	11.69
371.754	11.69
371.963	11.7
372.171	11.76
372.38	11.71
372.589	11.77
372.797	11.89
373.006	11.81
373.214	11.74
373.423	11.84
373.631	11.79
373.84	11.91
374.048	11.7
374.256	11.7
374.465	11.61
374.673	11.64
374.882	11.59
375.09	11.56
375.298	11.62
375.507	11.63
375.715	11.69
375.923	11.72
376.132	11.65
376.34	11.74
376.548	11.69
376.757	11.83
376.965	11.89
377.173	12.08
377.381	12.03
377.59	12.03
377.798	12.09
378.006	12.12
378.214	12.2
378.423	12.28
378.631	12.32
378.839	12.37
379.047	12.34
379.255	12.31
379.463	12.21
379.671	12.19
379.879	12.13
380.088	12.16
380.296	12.12
380.504	12.18
380.712	12.23
380.92	12.33
381.128	12.3
381.336	12.31
381.544	12.36
381.752	12.35
381.96	12.37
382.168	12.45
382.376	12.39
382.584	12.34
382.791	12.33
382.999	12.24
383.207	12.29
383.415	12.3
383.623	12.24
383.831	12.16
384.039	12.24
384.247	12.3
384.454	12.37
384.662	12.52
384.87	12.54
385.078	12.49
385.285	12.57
385.493	12.52
385.701	12.65
385.909	12.66
386.116	12.7
386.324	12.67
386.532	12.64
386.739	12.56
386.947	12.38
387.155	12.4
387.362	12.47
387.57	12.56
387.778	12.49
387.985	12.45
388.193	12.43
388.4	12.57
388.608	12.48
388.816	12.49
389.023	12.44
389.231	12.51
389.438	12.46
389.646	12.31
389.853	12.22
390.061	12.13
390.268	12.16
390.475	12.17
390.683	12.07
390.89	12.16
391.098	12.09
391.305	12.1
391.512	12.05
391.72	12.14
391.927	12.17
392.135	12.1
392.342	12.16
392.549	12.08
392.756	12.08
392.964	12.12
393.171	12.1
393.378	12.25
393.586	12.3
393.793	12.39
394	12.3
394.207	12.38
394.414	12.47
394.622	12.49
394.829	12.58
395.036	12.62
395.243	12.57
395.45	12.53
395.657	12.49
395.864	12.45
396.072	12.48
396.279	12.59
396.486	12.48
396.693	12.44
396.9	12.51
397.107	12.37
397.314	12.32
397.521	12.36
397.728	12.36
397.935	12.3
398.142	12.21
398.349	12.1
398.556	12.07
398.763	12.12
398.97	12.16
399.177	12.13
399.383	12.25
399.59	12.27
399.797	12.23
400.004	12.27
400.211	12.27
400.418	12.35
400.625	12.42
400.831	12.37
401.038	12.36
401.245	12.29
401.452	12.18
401.658	12.19
401.865	12.26
402.072	12.25
402.279	12.3
402.485	12.33
402.692	12.42
402.899	12.4
403.105	12.47
403.312	12.47
403.519	12.49
403.725	12.61
403.932	12.62
404.138	12.58
404.345	12.58
404.552	12.52
404.758	12.52
404.965	12.43
405.171	12.46
405.378	12.43
405.584	12.46
405.791	12.47
405.997	12.44
406.204	12.41
406.41	12.34
406.617	12.32
406.823	12.35
407.029	12.36
407.236	12.35
407.442	12.34
407.649	12.4
407.855	12.47
408.061	12.45
408.268	12.39
408.474	12.36
408.68	12.49
408.887	12.51
409.093	12.45
409.299	12.5
409.505	12.48
409.712	12.48
409.918	12.35
410.124	12.22
410.33	12.17
410.537	12.22
410.743	12.19
410.949	12.15
411.155	12.2
411.361	12.26
411.567	12.13
411.773	12.03
411.98	12.06
412.186	12.01
412.392	12.05
412.598	12.09
412.804	12.07
413.01	12.09
413.216	12.08
413.422	12.05
413.628	12.06
413.834	12.07
414.04	12.18
414.246	12.14
414.452	12.18
414.658	12.21
414.864	12.24
415.07	12.21
415.275	12.18
415.481	12.1
415.687	12.02
415.893	11.99
416.099	11.97
416.305	11.95
416.511	11.95
416.716	11.91
416.922	11.86
417.128	11.82
417.334	11.84
417.539	11.83
417.745	11.84
417.951	11.88
418.157	11.89
418.362	11.92
418.568	11.98
418.774	11.91
418.979	11.91
419.185	11.91
419.391	11.9
419.596	11.89
419.802	11.91
420.008	11.89
420.213	12.25
420.419	12.21
420.624	12.2
420.83	12.15
421.035	12.17
421.241	12.18
421.446	12.23
421.652	12.2
421.857	12.2
422.063	12.17
422.268	12.18
422.474	11.8
422.679	11.84
422.885	11.82
423.09	11.82
423.295	11.79
423.501	11.77
423.706	11.71
423.911	11.73
424.117	11.71
424.322	11.73
424.527	11.74
424.733	11.72
424.938	11.75
425.143	11.74
425.349	11.71
425.554	11.77
425.759	11.74
425.964	11.79
426.169	11.79
426.375	11.82
426.58	11.78
426.785	11.78
426.99	11.77
427.195	11.71
427.4	11.76
427.605	11.74
427.811	11.75
428.016	11.78
428.221	11.79
428.426	11.78
428.631	11.71
428.836	11.71
429.041	11.65
429.246	11.7
429.451	11.72
429.656	11.67
429.861	11.67
430.066	11.67
430.271	11.7
430.476	11.69
430.681	11.7
430.886	11.71
431.09	11.77
431.295	11.77
431.5	11.77
431.705	11.78
431.91	11.75
432.115	11.73
432.32	11.78
432.524	11.73
432.729	11.67
432.934	11.62
433.139	11.66
433.343	11.68
433.548	11.66
433.753	11.66
433.958	11.65
434.162	11.65
434.367	11.67
434.572	11.62
434.776	11.66
434.981	11.74
435.186	11.7
435.39	11.68
435.595	11.66
435.799	11.71
436.004	11.71
436.209	11.71
436.413	11.74
436.618	11.75
436.822	11.71
437.027	11.66
437.231	11.58
437.436	11.61
437.64	11.59
437.845	11.53
438.049	11.45
438.253	11.37
438.458	11.32
438.662	11.29
438.867	11.3
439.071	11.33
439.275	11.36
439.48	11.38
439.684	11.44
439.888	11.4
440.093	11.43
440.297	11.48
440.501	11.54
440.706	11.56
440.91	11.57
441.114	11.55
441.318	11.54
441.523	11.54
441.727	11.56
441.931	11.58
442.135	11.6
442.339	11.61
442.543	11.59
442.748	11.55
442.952	11.53
443.156	11.5
443.36	11.5
443.564	11.46
443.768	11.44
443.972	11.42
444.176	11.39
444.38	11.42
444.584	11.42
444.788	11.41
444.992	11.41
445.196	11.38
445.4	11.38
445.604	11.37
445.808	11.38
446.012	11.39
446.216	11.37
446.42	11.34
446.624	11.34
446.828	11.31
447.032	11.27
447.235	11.27
447.439	11.29
447.643	11.32
447.847	11.3
448.051	11.26
448.254	11.28
448.458	11.31
448.662	11.34
448.866	11.34
449.069	11.36
449.273	11.48
449.477	11.5
449.681	11.5
449.884	11.53
450.088	11.55
450.292	11.63
450.495	11.6
450.699	11.61
450.902	11.56
451.106	11.51
451.31	11.48
451.513	11.43
451.717	11.36
451.92	11.31
452.124	11.25
452.327	11.26
452.531	11.23
452.734	11.22
452.938	11.13
453.141	11.13
453.345	11.19
453.548	11.17
453.752	11.14
453.955	11.21
454.158	11.24
454.362	11.25
454.565	11.21
454.769	11.23
454.972	11.2
455.175	11.22
455.379	11.22
455.582	11.19
455.785	11.27
455.988	11.23
456.192	11.18
456.395	11.16
456.598	11.18
456.801	11.23
457.005	11.18
457.208	11.22
457.411	11.2
457.614	11.22
457.817	11.18
458.021	11.14
458.224	11.16
458.427	11.18
458.63	11.19
458.833	11.17
459.036	11.13
459.239	11.1
459.442	11.05
459.645	11.03
459.848	11.03
460.051	11.02
460.254	11.01
460.457	11.03
460.66	11.07
460.863	11.04
461.066	11.04
461.269	11.06
461.472	11.11
461.675	11.16
461.878	11.26
462.081	11.24
462.284	11.31
462.486	11.33
462.689	11.27
462.892	11.2
463.095	11.22
463.298	11.23
463.5	11.26
463.703	11.23
463.906	11.24
464.109	11.17
464.311	11.21
464.514	11.19
464.717	11.18
464.92	11.24
465.122	11.27
465.325	11.31
465.528	11.3
465.73	11.26
465.933	11.26
466.135	11.25
466.338	11.26
466.541	11.24
466.743	11.19
466.946	11.19
467.148	11.17
467.351	11.17
467.553	11.16
467.756	11.2
467.958	11.25
468.161	11.26
468.363	11.24
468.566	11.23
468.768	11.21
468.971	11.23
469.173	11.24
469.375	11.24
469.578	11.28
469.78	11.18
469.983	11.17
470.185	11.17
470.387	11.15
470.59	11.11
470.792	11.14
470.994	11.16
471.196	11.18
471.399	11.18
471.601	11.16
471.803	11.13
472.005	11.18
472.208	11.13
472.41	11.07
472.612	11.03
472.814	11.08
473.016	11.07
473.218	11.08
473.421	11.05
473.623	11.02
473.825	11.02
474.027	10.99
474.229	10.99
474.431	11
474.633	11.06
474.835	11.12
475.037	11.09
475.239	11.11
475.441	11.05
475.643	11.07
475.845	11.08
476.047	11.12
476.249	11.14
476.451	11.18
476.653	11.22
476.855	11.2
477.057	11.14
477.258	11.19
477.46	11.15
477.662	11.22
477.864	11.22
478.066	11.24
478.268	11.22
478.469	11.22
478.671	11.19
478.873	11.09
479.075	11.1
479.276	11.16
479.478	11.12
479.68	11.09
479.882	11.09
480.083	11.13
480.285	11.12
480.487	11.1
480.688	11.08
480.89	11.09
481.091	11.12
481.293	11.11
481.495	11.09
481.696	11.07
481.898	11.07
482.099	11.04
482.301	10.99
482.502	10.97
482.704	10.96
482.905	10.97
483.107	10.97
483.308	10.97
483.51	10.97
483.711	10.98
483.913	11.01
484.114	11.03
484.315	11.04
484.517	11.09
484.718	11.1
484.92	11.12
485.121	11.14
485.322	11.14
485.524	11.14
485.725	11.15
485.926	11.15
486.127	11.13
486.329	11.11
486.53	11.11
486.731	11.09
486.932	11.09
487.134	11.06
487.335	11.05
487.536	11.06
487.737	11.06
487.938	11.06
488.139	11.05
488.341	11.05
488.542	11.06
488.743	11.05
488.944	11.06
489.145	11.09
489.346	11.12
489.547	11.14
489.748	11.13
489.949	11.14
490.15	11.14
490.351	11.15
490.552	11.16
490.753	11.17
490.954	11.19
491.155	11.17
491.356	11.16
491.557	11.17
491.758	11.2
491.959	11.21
492.159	11.22
492.36	11.24
492.561	11.26
492.762	11.28
492.963	11.31
493.164	11.34
493.364	11.36
493.565	11.4
493.766	11.44
493.967	11.41
494.167	11.44
494.368	11.44
494.569	11.41
494.769	11.39
494.97	11.36
495.171	11.32
495.371	11.3
495.572	11.33
495.773	11.36
495.973	11.33
496.174	11.34
496.375	11.35
496.575	11.36
496.776	11.42
496.976	11.46
497.177	11.54
497.377	11.57
497.578	11.61
497.778	11.58
497.979	11.55
498.179	11.6
498.38	11.59
498.58	11.58
498.78	11.59
498.981	11.59
499.181	11.61
499.382	11.59
499.582	11.6
499.782	11.59
499.983	11.61
500.183	11.66
500.383	11.64
500.584	11.58
500.784	11.61
500.984	11.63
501.184	11.62
501.385	11.66
501.585	11.65
501.785	11.68
501.985	11.68
502.185	11.66
502.386	11.63
502.586	11.63
502.786	11.71
502.986	11.72
503.186	11.74
503.386	11.75
503.586	11.73
503.786	11.75
503.987	11.79
504.187	11.81
504.387	11.85
504.587	11.9
504.787	11.88
504.987	11.89
505.187	11.89
505.387	11.89
505.587	11.87
505.786	11.89
505.986	11.9
506.186	11.89
506.386	11.91
506.586	11.92
506.786	11.93
506.986	11.92
507.186	11.91
507.386	11.95
507.585	11.99
507.785	12.03
507.985	12.02
508.185	12.02
508.384	12.01
508.584	12.02
508.784	12.02
508.984	12.03
509.183	12.08
509.383	12.14
509.583	12.16
509.782	12.16
509.982	12.15
510.182	12.18
510.381	12.21
510.581	12.25
510.781	12.25
510.98	12.26
511.18	12.26
511.379	12.26
511.579	12.23
511.778	12.22
511.978	12.27
512.177	12.27
512.377	12.27
512.576	12.29
512.776	12.33
512.975	12.33
513.175	12.4
513.374	12.42
513.573	12.44
513.773	12.49
513.972	12.51
514.172	12.49
514.371	12.54
514.57	12.53
514.77	12.51
514.969	12.47
515.168	12.54
515.367	12.54
515.567	12.58
515.766	12.57
515.965	12.58
516.164	12.59
516.364	12.58
516.563	12.61
516.762	12.64
516.961	12.66
517.16	12.7
517.359	12.71
517.559	12.72
517.758	12.73
517.957	12.76
518.156	12.79
518.355	12.8
518.554	12.8
518.753	12.79
518.952	12.8
519.151	12.83
519.35	12.86
519.549	12.85
519.748	12.86
519.947	12.89
520.146	12.89
520.345	12.86
520.544	12.92
520.743	13.01
520.942	12.99
521.141	13.04
521.339	13.04
521.538	13.04
521.737	13.05
521.936	13.07
522.135	13.08
522.333	13.11
522.532	13.14
522.731	13.15
522.93	13.13
523.129	13.18
523.327	13.15
523.526	13.16
523.725	13.16
523.923	13.22
524.122	13.2
524.321	13.23
524.519	13.24
524.718	13.24
524.917	13.23
525.115	13.27
525.314	13.31
525.512	13.37
525.711	13.43
525.909	13.47
526.108	13.45
526.306	13.48
526.505	13.48
526.703	13.5
526.902	13.53
527.1	13.53
527.299	13.52
527.497	13.51
527.696	13.5
527.894	13.5
528.092	13.49
528.291	13.5
528.489	13.53
528.688	13.57
528.886	13.61
529.084	13.63
529.283	13.66
529.481	13.72
529.679	13.74
529.877	13.79
530.076	13.81
530.274	13.86
530.472	13.92
530.67	13.93
530.869	13.94
531.067	13.94
531.265	13.95
531.463	13.99
531.661	13.99
531.859	14.02
532.057	14.04
532.255	14.07
532.454	14.09
532.652	14.1
532.85	14.12
533.048	14.13
533.246	14.14
533.444	14.17
533.642	14.19
533.84	14.2
534.038	14.25
534.236	14.33
534.434	14.36
534.632	14.4
534.83	14.42
535.027	14.46
535.225	14.47
535.423	14.56
535.621	14.58
535.819	14.6
536.017	14.65
536.215	14.65
536.412	14.62
536.61	14.63
536.808	14.63
537.006	14.68
537.203	14.76
537.401	14.78
537.599	14.77
537.797	14.8
537.994	14.82
538.192	14.87
538.39	14.92
538.587	14.94
538.785	15.01
538.983	15.07
539.18	15.08
539.378	15.08
539.575	15.15
539.773	15.2
539.97	15.22
540.168	15.24
540.366	15.25
540.563	15.26
540.761	15.28
540.958	15.31
541.155	15.34
541.353	15.38
541.55	15.41
541.748	15.44
541.945	15.49
542.143	15.51
542.34	15.55
542.537	15.59
542.735	15.66
542.932	15.7
543.129	15.73
543.327	15.79
543.524	15.84
543.721	15.9
543.919	15.95
544.116	15.99
544.313	16.09
544.51	16.15
544.708	16.22
544.905	16.24
545.102	16.29
545.299	16.36
545.496	16.39
545.693	16.43
545.891	16.43
546.088	16.45
546.285	16.48
546.482	16.5
546.679	16.54
546.876	16.58
547.073	16.62
547.27	16.72
547.467	16.77
547.664	16.77
547.861	16.82
548.058	16.91
548.255	16.97
548.452	17.02
548.649	17.09
548.846	17.15
549.043	17.13
549.24	17.19
549.437	17.15
549.633	17.15
549.83	17.23
550.027	17.31
550.224	17.36
550.421	17.37
550.618	17.38
550.814	17.41
551.011	17.45
551.208	17.55
551.405	17.58
551.601	17.67
551.798	17.78
551.995	17.77
552.191	17.8
552.388	17.81
552.585	17.9
552.781	17.97
552.978	18.03
553.175	18.07
553.371	18.13
553.568	18.19
553.764	18.24
553.961	18.3
554.157	18.39
554.354	18.42
554.55	18.51
554.747	18.59
554.943	18.67
555.14	18.7
555.336	18.8
555.533	18.87
555.729	18.97
555.926	19.01
556.122	19
556.318	19.07
556.515	19.1
556.711	19.17
556.907	19.16
557.104	19.22
557.3	19.24
557.496	19.29
557.693	19.33
557.889	19.32
558.085	19.4
558.281	19.52
558.478	19.59
558.674	19.67
558.87	19.66
559.066	19.72
559.262	19.79
559.459	19.87
559.655	19.86
559.851	19.92
560.047	20.03
560.243	20.1
560.439	20.15
560.635	20.16
560.831	20.11
561.027	20.27
561.223	20.3
561.419	20.37
561.615	20.42
561.811	20.44
562.007	20.45
562.203	20.45
562.399	20.47
562.595	20.48
562.791	20.54
562.987	20.69
563.183	20.65
563.379	20.79
563.575	20.83
563.771	20.93
563.966	21.07
564.162	21.17
564.358	21.22
564.554	21.3
564.75	21.42
564.945	21.52
565.141	21.55
565.337	21.61
565.533	21.65
565.728	21.7
565.924	21.72
566.12	21.81
566.315	21.89
566.511	21.96
566.707	22.01
566.902	21.97
567.098	21.96
567.293	22.01
567.489	22.12
567.684	22.12
567.88	22.14
568.076	22.17
568.271	22.14
568.467	22.19
568.662	22.25
568.858	22.3
569.053	22.4
569.248	22.46
569.444	22.48
569.639	22.43
569.835	22.52
570.03	22.61
570.225	22.68
570.421	22.73
570.616	22.77
570.812	22.82
571.007	22.86
571.202	22.9
571.397	22.93
571.593	23.04
571.788	23.17
571.983	23.24
572.178	23.25
572.374	23.27
572.569	23.32
572.764	23.32
572.959	23.38
573.154	23.38
573.35	23.46
573.545	23.54
573.74	23.58
573.935	23.62
574.13	23.64
574.325	23.69
574.52	23.74
574.715	23.78
574.91	23.89
575.105	23.94
575.3	24.02
575.495	24.06
575.69	24.08
575.885	24.09
576.08	24.08
576.275	24.11
576.47	24.13
576.665	24.18
576.86	24.21
577.055	24.31
577.25	24.36
577.444	24.46
577.639	24.48
577.834	24.52
578.029	24.63
578.224	24.68
578.418	24.73
578.613	24.79
578.808	24.85
579.003	24.93
579.197	24.89
579.392	24.88
579.587	24.85
579.781	24.93
579.976	24.98
580.171	24.95
580.365	25.05
580.56	25.09
580.755	25.13
580.949	25.14
581.144	25.16
581.338	25.21
581.533	25.27
581.727	25.3
581.922	25.31
582.116	25.34
582.311	25.37
582.505	25.39
582.7	25.37
582.894	25.37
583.089	25.42
583.283	25.42
583.478	25.36
583.672	25.41
583.866	25.42
584.061	25.44
584.255	25.49
584.449	25.54
584.644	25.64
584.838	25.73
585.032	25.83
585.226	25.86
585.421	25.97
585.615	26
585.809	26.07
586.003	26.1
586.198	26.14
586.392	26.13
586.586	26.19
586.78	26.18
586.974	26.19
587.168	26.23
587.363	26.3
587.557	26.24
587.751	26.35
587.945	26.29
588.139	26.35
588.333	26.41
588.527	26.5
588.721	26.54
588.915	26.54
589.109	26.52
589.303	26.53
589.497	26.57
589.691	26.71
589.885	26.72
590.079	26.85
590.273	26.9
590.466	26.87
590.66	26.91
590.854	26.89
591.048	26.88
591.242	26.95
591.436	26.98
591.629	26.95
591.823	26.94
592.017	26.98
592.211	26.94
592.404	26.99
592.598	27.05
592.792	27.07
592.986	27.12
593.179	27.18
593.373	27.24
593.567	27.23
593.76	27.28
593.954	27.24
594.147	27.25
594.341	27.31
594.535	27.35
594.728	27.31
594.922	27.39
595.115	27.44
595.309	27.46
595.502	27.45
595.696	27.48
595.889	27.52
596.083	27.57
596.276	27.56
596.47	27.54
596.663	27.57
596.856	27.61
597.05	27.58
597.243	27.59
597.437	27.64
597.63	27.71
597.823	27.72
598.017	27.78
598.21	27.79
598.403	27.89
598.596	27.91
598.79	27.93
598.983	28.03
599.176	28.08
599.369	28.09
599.563	28.11
599.756	28.11
599.949	28.2
600.142	28.16
600.335	28.22
600.528	28.2
600.722	28.26
600.915	28.33
601.108	28.34
601.301	28.32
601.494	28.31
601.687	28.35
601.88	28.37
602.073	28.4
602.266	28.46
602.459	28.43
602.652	28.43
602.845	28.45
603.038	28.47
603.231	28.45
603.424	28.49
603.617	28.56
603.809	28.53
604.002	28.58
604.195	28.54
604.388	28.47
604.581	28.48
604.774	28.56
604.966	28.57
605.159	28.51
605.352	28.59
605.545	28.63
605.737	28.63
605.93	28.62
606.123	28.61
606.316	28.74
606.508	28.86
606.701	28.98
606.894	29
607.086	29.08
607.279	29.05
607.471	29.11
607.664	29.05
607.857	29.16
608.049	29.27
608.242	29.32
608.434	29.27
608.627	29.33
608.819	29.34
609.012	29.38
609.204	29.33
609.397	29.42
609.589	29.44
609.782	29.51
609.974	29.51
610.166	29.55
610.359	29.6
610.551	29.64
610.743	29.65
610.936	29.6
611.128	29.63
611.32	29.68
611.513	29.73
611.705	29.72
611.897	29.73
612.09	29.67
612.282	29.64
612.474	29.6
612.666	29.64
612.858	29.65
613.051	29.81
613.243	29.75
613.435	29.79
613.627	29.76
613.819	29.82
614.011	29.88
614.203	29.87
614.395	29.81
614.588	29.77
614.78	29.75
614.972	29.78
615.164	29.72
615.356	29.83
615.548	29.87
615.74	29.92
615.932	29.87
616.124	29.84
616.315	29.9
616.507	29.97
616.699	30.04
616.891	30.11
617.083	30.15
617.275	30.24
617.467	30.15
617.659	30.09
617.85	30.04
618.042	30.06
618.234	30.08
618.426	30.1
618.618	30.13
618.809	30.18
619.001	30.16
619.193	30.2
619.384	30.14
619.576	30.25
619.768	30.35
619.959	30.38
620.151	30.45
620.343	30.51
620.534	30.56
620.726	30.59
620.917	30.56
621.109	30.57
621.301	30.51
621.492	30.51
621.684	30.49
621.875	30.47
622.067	30.53
622.258	30.52
622.45	30.56
622.641	30.61
622.832	30.66
623.024	30.69
623.215	30.7
623.407	30.77
623.598	30.82
623.789	30.85
623.981	30.76
624.172	30.84
624.363	30.84
624.555	30.77
624.746	30.76
624.937	30.74
625.129	30.77
625.32	30.75
625.511	30.74
625.702	30.71
625.893	30.74
626.085	30.82
626.276	30.84
626.467	30.86
626.658	30.98
626.849	30.98
627.04	30.98
627.231	31.02
627.422	31.1
627.614	31.17
627.805	31.2
627.996	31.19
628.187	31.25
628.378	31.2
628.569	31.23
628.76	31.18
628.951	31.23
629.142	31.28
629.332	31.2
629.523	31.16
629.714	31.16
629.905	31.17
630.096	31.15
630.287	31.18
630.478	31.17
630.669	31.16
630.859	31.18
631.05	31.07
631.241	31.08
631.432	31.09
631.623	31.14
631.813	31.07
632.004	31.04
632.195	31.14
632.385	31.04
632.576	31.16
632.767	31.15
632.957	31.15
633.148	31.16
633.339	31.11
633.529	31.22
633.72	31.24
633.91	31.31
634.101	31.4
634.292	31.33
634.482	31.4
634.673	31.32
634.863	31.37
635.054	31.34
635.244	31.4
635.435	31.49
635.625	31.43
635.815	31.42
636.006	31.4
636.196	31.43
636.387	31.38
636.577	31.4
636.767	31.44
636.958	31.43
637.148	31.46
637.338	31.5
637.529	31.51
637.719	31.65
637.909	31.7
638.099	31.74
638.29	31.73
638.48	31.89
638.67	31.93
638.86	31.96
639.05	32.05
639.241	32.17
639.431	32.13
639.621	32.17
639.811	32.14
640.001	32.02
640.191	32.05
640.381	31.96
640.571	31.84
640.761	31.8
640.951	31.81
641.141	31.83
641.331	31.72
641.521	31.72
641.711	31.67
641.901	31.58
642.091	31.71
642.281	31.71
642.471	31.81
642.661	31.95
642.851	32
643.041	32.06
643.231	31.98
643.42	32.1
643.61	32.14
643.8	32.19
643.99	32.24
644.18	32.26
644.369	32.28
644.559	32.36
644.749	32.28
644.939	32.24
645.128	32.09
645.318	32.19
645.508	32.25
645.697	32.28
645.887	32.27
646.076	32.35
646.266	32.29
646.456	32.35
646.645	32.32
646.835	32.37
647.024	32.42
647.214	32.56
647.403	32.43
647.593	32.35
647.782	32.41
647.972	32.46
648.161	32.43
648.351	32.51
648.54	32.44
648.73	32.36
648.919	32.38
649.108	32.45
649.298	32.37
649.487	32.5
649.677	32.54
649.866	32.47
650.055	32.38
650.244	32.38
650.434	32.37
650.623	32.35
650.812	32.4
651.002	32.29
651.191	32.21
651.38	32.34
651.569	32.41
651.758	32.39
651.947	32.38
652.137	32.39
652.326	32.4
652.515	32.46
652.704	32.56
652.893	32.62
653.082	32.69
653.271	32.79
653.46	32.8
653.649	32.78
653.838	32.71
654.027	32.83
654.216	32.85
654.405	32.9
654.594	32.76
654.783	32.74
654.972	32.72
655.161	32.75
655.35	32.72
655.539	32.66
655.728	32.58
655.916	32.64
656.105	32.59
656.294	32.6
656.483	32.55
656.672	32.71
656.86	32.72
657.049	32.74
657.238	32.69
657.427	32.65
657.615	32.69
657.804	32.71
657.993	32.76
658.181	32.82
658.37	32.86
658.559	32.95
658.747	32.9
658.936	32.91
659.125	32.91
659.313	33.04
659.502	33.12
659.69	33.1
659.879	33.11
660.067	33.18
660.256	33.15
660.444	33.23
660.633	33.11
660.821	33.11
661.01	33.26
661.198	33.33
661.387	33.29
661.575	33.32
661.763	33.44
661.952	33.42
662.14	33.34
662.328	33.31
662.517	33.32
662.705	33.44
662.893	33.47
663.082	33.35
663.27	33.29
663.458	33.3
663.646	33.22
663.834	33.24
664.023	33.29
664.211	33.34
664.399	33.38
664.587	33.38
664.775	33.39
664.963	33.39
665.152	33.32
665.34	33.4
665.528	33.38
665.716	33.47
665.904	33.41
666.092	33.42
666.28	33.47
666.468	33.5
666.656	33.46
666.844	33.46
667.032	33.53
667.22	33.68
667.408	33.59
667.596	33.61
667.784	33.64
667.971	33.75
668.159	33.74
668.347	33.7
668.535	33.7
668.723	33.63
668.911	33.66
669.098	33.62
669.286	33.54
669.474	33.63
669.662	33.68
669.849	33.75
670.037	33.69
670.225	33.68
670.413	33.68
670.6	33.84
670.788	33.94
670.976	34.09
671.163	34.09
671.351	34.05
671.538	34.02
671.726	34.06
671.913	34.02
672.101	34.01
672.289	34.09
672.476	34.19
672.664	34.03
672.851	34.04
673.039	33.87
673.226	33.8
673.413	33.89
673.601	33.89
673.788	33.75
673.976	33.71
674.163	33.73
674.35	33.68
674.538	33.64
674.725	33.71
674.912	33.78
675.1	33.86
675.287	33.97
675.474	33.96
675.662	34.16
675.849	34.21
676.036	34.3
676.223	34.39
676.411	34.46
676.598	34.44
676.785	34.4
676.972	34.36
677.159	34.42
677.346	34.43
677.533	34.45
677.721	34.42
677.908	34.52
678.095	34.43
678.282	34.36
678.469	34.32
678.656	34.43
678.843	34.44
679.03	34.37
679.217	34.28
679.404	34.33
679.591	34.33
679.778	34.22
679.964	34.19
680.151	34.29
680.338	34.3
680.525	34.36
680.712	34.29
680.899	34.33
681.086	34.42
681.272	34.4
681.459	34.34
681.646	34.36
681.833	34.48
682.02	34.36
682.206	34.3
682.393	34.31
682.58	34.25
682.766	34.3
682.953	34.25
683.14	34.31
683.326	34.44
683.513	34.5
683.7	34.48
683.886	34.36
684.073	34.36
684.259	34.27
684.446	34.38
684.632	34.44
684.819	34.36
685.005	34.49
685.192	34.36
685.378	34.33
685.565	34.18
685.751	34.32
685.938	34.34
686.124	34.39
686.31	34.5
686.497	34.47
686.683	34.55
686.87	34.66
687.056	34.48
687.242	34.58
687.429	34.61
687.615	34.79
687.801	34.85
687.987	34.94
688.174	35.03
688.36	34.95
688.546	34.92
688.732	34.72
688.918	34.71
689.105	34.87
689.291	34.77
689.477	34.76
689.663	34.75
689.849	34.56
690.035	34.48
690.221	34.5
690.407	34.5
690.593	34.43
690.779	34.58
690.965	34.57
691.151	34.66
691.337	34.69
691.523	34.73
691.709	34.72
691.895	34.75
692.081	34.87
692.267	35.01
692.453	35.07
692.639	35.11
692.825	35.16
693.011	35.07
693.196	35
693.382	35.17
693.568	35.13
693.754	35.14
693.94	35.13
694.125	35.19
694.311	35.04
694.497	35.02
694.682	34.99
694.868	35.13
695.054	35.14
695.239	35.07
695.425	34.9
695.611	35
695.796	35.02
695.982	35.12
696.168	35.04
696.353	35.02
696.539	35.05
696.724	35.06
696.91	34.95
697.095	34.87
697.281	34.88
697.466	34.89
697.652	34.82
697.837	34.75
698.023	34.7
698.208	34.72
698.393	34.76
698.579	34.77
698.764	34.77
698.949	34.76
699.135	34.78
699.32	34.79
699.505	34.79
699.691	34.86
699.876	34.91
700.061	34.88
700.246	34.82
700.432	34.78
700.617	34.81
700.802	34.95
700.987	34.83
701.172	34.71
701.358	34.66
701.543	34.71
701.728	34.69
701.913	34.68
702.098	34.85
702.283	34.78
702.468	34.81
702.653	34.73
702.838	34.78
703.023	34.83
703.208	35.06
703.393	35.05
703.578	35.15
703.763	35.12
703.948	35.15
704.133	34.99
704.318	35.03
704.503	35.21
704.688	35.39
704.873	35.22
705.057	35.24
705.242	35.28
705.427	35.44
705.612	35.52
705.797	35.53
705.981	35.53
706.166	35.61
706.351	35.62
706.536	35.55
706.72	35.4
706.905	35.47
707.09	35.51
707.274	35.47
707.459	35.43
707.644	35.28
707.828	35.48
708.013	35.61
708.197	35.61
708.382	35.54
708.567	35.54
708.751	35.7
708.936	35.62
709.12	35.63
709.305	35.75
709.489	35.71
709.673	35.77
709.858	35.56
710.042	35.42
710.227	35.47
710.411	35.51
710.596	35.37
710.78	35.25
710.964	35.38
711.149	35.4
711.333	35.5
711.517	35.68
711.702	35.76
711.886	35.75
712.07	35.85
712.254	35.89
712.438	36.07
712.623	35.99
712.807	36.18
712.991	36.12
713.175	36.12
713.359	36
713.544	35.84
713.728	35.74
713.912	35.7
714.096	35.53
714.28	35.36
714.464	35.15
714.648	35.16
714.832	35
715.016	35.09
715.2	35.07
715.384	35.08
715.568	35.06
715.752	34.97
715.936	35.04
716.12	35.12
716.304	35.12
716.488	35.11
716.671	35.12
716.855	35.17
717.039	35.19
717.223	35.21
717.407	35.05
717.59	34.9
717.774	34.95
717.958	34.92
718.142	34.77
718.325	34.85
718.509	34.98
718.693	35.13
718.877	35.01
719.06	34.99
719.244	34.94
719.428	35.08
719.611	35.3
719.795	35.31
719.978	35.5
720.162	35.69
720.345	35.67
720.529	35.64
720.713	35.59
720.896	35.66
721.08	35.57
721.263	35.43
721.446	35.38
721.63	35.37
721.813	35.53
721.997	35.39
722.18	35.32
722.364	35.39
722.547	35.56
722.73	35.83
722.914	35.8
723.097	35.67
723.28	35.85
723.464	35.9
723.647	35.88
723.83	35.7
724.013	35.82
724.197	35.97
724.38	35.99
724.563	35.73
724.746	35.62
724.929	35.67
725.112	35.69
725.296	35.64
725.479	35.56
725.662	35.49
725.845	35.6
726.028	35.27
726.211	35.29
726.394	35.31
726.577	35.4
726.76	35.25
726.943	35.25
727.126	35.23
727.309	35.32
727.492	35.42
727.675	35.29
727.858	35.15
728.041	35.22
728.224	35.2
728.407	35.2
728.589	35.32
728.772	35.41
728.955	35.48
729.138	35.6
729.321	35.51
729.503	35.54
729.686	35.65
729.869	35.78
730.052	35.91
730.234	35.87
730.417	35.81
730.6	35.74
730.782	35.62
730.965	35.72
731.148	35.59
731.33	35.7
731.513	35.61
731.695	35.59
731.878	35.7
732.061	35.66
732.243	35.63
732.426	35.49
732.608	35.49
732.791	35.47
732.973	35.29
733.156	35.54
733.338	35.53
733.52	35.42
733.703	35.45
733.885	35.25
734.068	35.16
734.25	35.1
734.432	35.36
734.615	35.52
734.797	35.48
734.979	35.47
735.162	35.29
735.344	35.18
735.526	35.24
735.708	35.27
735.891	35.45
736.073	35.56
736.255	35.62
736.437	35.53
736.619	35.33
736.802	35.31
736.984	35.27
737.166	35.32
737.348	35.19
737.53	35.21
737.712	35.17
737.894	35.26
738.076	35.37
738.258	35.22
738.44	35.13
738.622	35.04
738.804	35.23
738.986	35.34
739.168	35.35
739.35	35.49
739.532	35.6
739.714	35.67
739.896	35.37
740.078	35.37
740.259	35.49
740.441	35.54
740.623	35.88
740.805	35.8
740.987	35.8
741.168	35.65
741.35	35.81
741.532	35.84
741.714	35.67
741.895	35.74
742.077	35.65
742.259	35.75
742.44	35.76
742.622	35.42
742.804	35.45
742.985	35.36
743.167	35.42
743.348	35.15
743.53	35.15
743.711	35.11
743.893	34.97
744.075	34.88
744.256	34.64
744.438	34.53
744.619	34.7
744.8	34.49
744.982	34.74
745.163	34.74
745.345	34.75
745.526	34.97
745.707	35.06
745.889	35.36
746.07	35.57
746.252	35.88
746.433	35.98
746.614	35.94
746.795	36.38
746.977	36.06
747.158	36.39
747.339	36.47
747.52	36.13
747.702	36.49
747.883	36.22
748.064	35.87
748.245	35.64
748.426	35.31
748.607	35.11
748.788	34.79
748.97	34.73
749.151	34.53
749.332	34.44
749.513	34.58
749.694	34.46
749.875	34.52
750.056	34.68
750.237	34.6
750.418	34.99
750.599	35.08
750.78	35.24
750.96	35.35
751.141	35.4
751.322	35.69
751.503	35.66
751.684	35.7
751.865	35.87
752.046	36.21
752.226	36.6
752.407	36.59
752.588	36.93
752.769	37.11
752.949	37.27
753.13	37.06
753.311	37.18
753.492	36.92
753.672	36.7
753.853	36.26
754.034	36.02
754.214	35.91
754.395	35.73
754.575	35.7
754.756	35.2
754.937	34.94
755.117	35.23
755.298	34.91
755.478	35.2
755.659	35.38
755.839	35.62
756.02	35.66
756.2	35.43
756.381	35.23
756.561	34.97
756.741	35.43
756.922	35.65
757.102	35.54
757.283	35.34
757.463	35.34
757.643	35.07
757.823	34.85
758.004	34.49
758.184	34.68
758.364	34.97
758.545	35.12
758.725	34.89
758.905	34.58
759.085	34.25
759.265	34.35
759.446	34.42
759.626	34.49
759.806	34.92
759.986	35.17
760.166	34.92
760.346	34.96
760.526	34.88
760.706	34.92
760.886	35.25
761.066	35.25
761.246	35.24
761.426	34.9
761.606	34.81
761.786	34.71
761.966	34.79
762.146	34.9
762.326	34.81
762.506	34.7
762.686	34.75
762.866	34.47
763.046	34.53
763.225	34.61
763.405	34.63
763.585	34.91
763.765	34.72
763.945	34.51
764.124	34.39
764.304	34.36
764.484	34.55
764.664	34.47
764.843	34.79
765.023	34.99
765.203	35.03
765.382	35.22
765.562	34.92
765.741	35.32
765.921	35.7
766.101	35.88
766.28	35.78
766.46	35.44
766.639	35.41
766.819	35.05
766.998	34.95
767.178	34.77
767.357	34.77
767.537	34.85
767.716	34.71
767.896	34.47
768.075	34.2
768.254	34.24
768.434	34.46
768.613	34.21
768.792	34.58
768.972	34.53
769.151	34.41
769.33	34.59
769.51	34.63
769.689	34.46
769.868	34.64
770.047	34.81
770.226	35.2
770.406	35.23
770.585	35.38
770.764	35.19
770.943	35.35
771.122	35.43
771.301	35.15
771.48	35.18
771.66	35.22
771.839	35.06
772.018	35.33
772.197	35.38
772.376	35.3
772.555	35.53
772.734	35.6
772.913	35.34
773.092	35.27
773.271	35.29
773.449	35.3
773.628	35.48
773.807	35.33
773.986	35.11
774.165	34.72
774.344	34.55
774.523	34.66
774.701	34.66
774.88	34.38
775.059	34.7
775.238	34.57
775.417	33.94
775.595	33.77
775.774	33.97
775.953	34.04
776.131	34.01
776.31	34.2
776.489	34.11
776.667	34.07
776.846	34.51
777.025	34.09
777.203	34.17
777.382	34.51
777.56	34.39
777.739	34.16
777.917	34.18
778.096	34.41
778.274	34.48
778.453	34.91
778.631	34.8
778.81	34.32
778.988	34.47
779.166	34.5
779.345	34.42
779.523	34.69
779.702	35.14
779.88	34.96
780.058	34.73
780.237	34.71
780.415	34.58
780.593	34.66
780.771	34.82
780.95	35.05
781.128	34.83
781.306	35.13
781.484	35.01
781.662	34.39
781.841	34.54
782.019	34.78
782.197	35.17
782.375	34.52
782.553	34.71
782.731	35.24
782.909	34.73
783.087	34.92
783.265	35.04
783.443	34.79
783.621	35.07
783.799	35.4
783.977	35.45
784.155	34.74
784.333	34.52
784.511	34.67
784.689	34.44
784.867	35.04
785.045	34.87
785.223	35.34
785.4	35.37
785.578	35.21
785.756	34.97
785.934	34.58
786.112	35.01
786.289	35.44
786.467	34.99
786.645	35.32
786.823	35.05
787	35.33
787.178	34.82
787.356	35.07
787.533	35.46
787.711	35.8
787.889	36.14
788.066	36.05
788.244	35.88
788.421	36.22
788.599	35.89
788.776	35.87
788.954	35.57
789.131	35.3
789.309	34.94
789.486	34.66
789.664	34.38
789.841	33.97
790.019	33.73
790.196	33.87
790.373	33.66
790.551	32.97
790.728	33.1
790.906	33.42
791.083	33.87
791.26	33.7
791.437	33.4
791.615	32.77
791.792	33.03
791.969	32.81
792.146	32.63
792.324	32.8
792.501	33.52
792.678	33.19
792.855	32.48
793.032	32.22
793.209	32.82
793.387	33.02
793.564	33.57
793.741	33.47
793.918	34.04
794.095	33.97
794.272	33.97
794.449	33.72
794.626	34.05
794.803	34.04
794.98	33.65
795.157	33.71
795.334	33.96
795.511	33.54
795.688	33.47
795.864	33.53
796.041	34.25
796.218	33.97
796.395	34.27
796.572	34.47
796.749	34.81
796.925	35.39
797.102	35.2
797.279	35.23
797.456	35.56
797.632	35.96
797.809	35.41
797.986	35.09
798.162	34.94
798.339	34.78
798.516	34.39
798.692	34.54
798.869	34.32
799.046	34.5
799.222	34.23
799.399	34.42
799.575	33.76
799.752	33.69
799.928	33.47
800.105	33.26
800.281	33.24
800.458	33.42
800.634	33.25
800.811	33.22
800.987	33.08
801.163	32.84
801.34	32.35
801.516	32.49
801.692	32.9
801.869	33.43
802.045	34.25
802.221	34.67
802.398	34.71
802.574	34.88
802.75	34.57
802.926	34.31
803.103	34.14
803.279	34.8
803.455	34.98
803.631	35.36
803.807	34.17
803.983	34.21
804.16	33.46
804.336	33.27
804.512	33.22
804.688	33.77
804.864	34.45
805.04	34.83
805.216	34.71
805.392	34.26
805.568	34.09
805.744	34.49
805.92	33.95
806.096	34.06
806.272	34.51
806.448	35.07
806.623	34.29
806.799	34.09
806.975	34.28
807.151	34.09
807.327	33.93
807.503	33.91
807.678	34.02
807.854	33.23
808.03	33.85
808.206	33.01
808.381	32.47
808.557	32.74
808.733	32.47
808.908	32.68
809.084	32.52
809.26	32.55
809.435	32.74
809.611	32.59
809.787	33.16
809.962	32.42
810.138	32.92
810.313	32.99
810.489	33.08
810.664	33
810.84	32.24
811.015	32.15
811.191	32.14
811.366	31.34
811.542	31.46
811.717	31.56
811.892	32.73
812.068	32.32
812.243	32.68
812.419	32.79
812.594	33.57
812.769	34.74
812.944	34.89
813.12	34.69
813.295	34.83
813.47	35.34
813.645	35.19
813.821	34.27
813.996	34.84
814.171	34.24
814.346	34.3
814.521	33.71
814.697	32.72
814.872	32.74
815.047	33.08
815.222	33.05
815.397	32.39
815.572	33.2
815.747	33.74
815.922	32.88
816.097	32.72
816.272	33.01
816.447	32.67
816.622	32.78
816.797	31.97
816.972	32.59
817.147	33.07
817.322	33.01
817.496	32.22
817.671	32.01
817.846	32.6
818.021	32.44
818.196	32.15
818.371	32.49
818.545	33.16
818.72	33.54
818.895	33.61
819.069	33.42
819.244	33.7
819.419	33.46
819.594	33.27
819.768	33.3
819.943	33.58
820.117	33.41
820.292	33.27
820.467	32.94
820.641	33.06
820.816	32.96
820.99	32.89
821.165	32.82
821.339	32.83
821.514	32.72
821.688	32.64
821.863	32.58
822.037	32.53
822.212	32.46
822.386	32.42
822.56	32.33
822.735	32.24
822.909	32.17
823.084	32.07
823.258	32.18
823.432	32.2
823.606	32.11
823.781	32.13
823.955	32.19
824.129	32.21
824.303	32.11
824.478	32.08
824.652	32.11
824.826	32.12
825	32.19
825.174	31.99
825.348	32.03
825.523	32
825.697	31.63
825.871	31.55
826.045	31.41
826.219	31.58
826.393	31.63
826.567	31.85
826.741	31.9
826.915	31.98
827.089	32.07
827.263	32.1
827.437	32.3
827.611	32.64
827.784	32.62
827.958	32.82
828.132	32.89
828.306	32.9
828.48	32.69
828.654	32.95
828.827	32.57
829.001	32.73
829.175	32.43
829.349	32.51
829.522	32.34
829.696	32.62
829.87	32.66
830.044	32.93
830.217	32.83
830.391	32.7
830.565	32.38
830.738	32.49
830.912	31.84
831.085	32.56
831.259	32.74
831.432	32.9
831.606	32.83
831.779	32.78
831.953	32.66
832.126	32.57
832.3	32.45
832.473	32.28
832.647	32.5
832.82	32.67
832.994	32.57
833.167	32.38
833.34	32.09
833.514	31.75
833.687	31.83
833.86	31.36
834.034	31.65
834.207	31.73
834.38	31.44
834.553	31.03
834.727	30.98
834.9	30.98
835.073	31.05
835.246	31.06
835.419	31.64
835.593	31.98
835.766	32.58
835.939	32.73
836.112	33.07
836.285	33.38
836.458	34.43
836.631	34.51
836.804	34.04
836.977	33.83
837.15	34.94
837.323	34.85
837.496	33.76
837.669	33.87
837.842	33.17
838.015	32.93
838.188	33.26
838.361	33.03
838.533	32.83
838.706	32.62
838.879	32.49
839.052	31.59
839.225	31.68
839.398	32.21
839.57	31.65
839.743	32.16
839.916	31.92
840.088	31.62
840.261	32.1
840.434	32.24
840.607	32.13
840.779	32.36
840.952	32.76
841.124	32.67
841.297	32.75
841.47	33.81
841.642	33.25
841.815	33.77
841.987	33.79
842.16	33.94
842.332	33.5
842.505	33.93
842.677	34.05
842.85	34.27
843.022	33.9
843.194	33.82
843.367	33.16
843.539	34.58
843.712	34.26
843.884	35.84
844.056	34.68
844.229	35.29
844.401	35.87
844.573	37.78
844.745	36.5
844.918	36.92
845.09	36.73
845.262	36.92
845.434	36.22
845.606	35.85
845.779	35.41
845.951	36.02
846.123	34.69
846.295	35.3
846.467	33.76
846.639	34
846.811	33.33
846.983	33.8
847.155	33.24
847.327	33.63
847.499	33.67
847.671	31.96
847.843	30.48
848.015	32.16
848.187	31.13
848.359	29.4
848.531	30.95
848.703	31.54
848.875	32.67
849.047	32.82
849.218	30.75
849.39	31.87
849.562	34.05
849.734	34.11
849.905	34.83
850.077	34.89
850.249	36.6
850.421	34.65
850.592	35.42
850.764	34.38
850.936	33.68
851.107	34.56
851.279	34.34
851.451	32.85
851.622	33.61
851.794	33.08
851.965	34.36
852.137	33.84
852.308	34.32
852.48	34.06
852.651	33.05
852.823	34.75
852.994	35.78
853.166	36.74
853.337	38.59
853.509	39.48
853.68	38.26
853.851	37.47
854.023	35.62
854.194	34.31
854.365	33
854.537	34.35
854.708	33.64
854.879	31.03
855.05	29.62
855.222	27.88
855.393	26.23
855.564	26.23
855.735	25.03
855.906	25.85
856.078	27.25
856.249	28.27
856.42	27.5
856.591	27.11
856.762	29.56
856.933	29.67
857.104	28.33
857.275	29.5
857.446	29.76
857.617	29.82
857.788	29.54
857.959	27.98
858.13	28.13
858.301	27.63
858.472	27.44
858.643	24.79
858.814	25.05
858.985	25.44
859.155	26.85
859.326	28.92
859.497	29.46
859.668	28.56
859.839	30.21
860.009	30.63
860.18	30.45
860.351	32.95
860.522	34.83
860.692	35.03
860.863	36.11
861.034	35.9
861.204	34.92
861.375	34.82
861.546	36.17
861.716	35.37
861.887	31.98
862.057	34.08
862.228	31.43
862.398	31.53
862.569	33.36
862.739	34.79
862.91	32.75
863.08	33.42
863.251	33.45
863.421	32.32
863.592	32.89
863.762	35.77
863.932	33.12
864.103	31.71
864.273	28.48
864.443	27.58
864.614	25.92
864.784	25.38
864.954	23.21
865.125	24.4
865.295	27.34
865.465	27.5
865.635	25.84
865.805	27.34
865.976	27.15
866.146	31.8
866.316	31.09
866.486	32.19
866.656	34.22
866.826	33.96
866.996	31.94
867.166	30.1
867.336	31.78
867.506	35.45
867.676	35.06
867.846	36.43
868.016	34.48
868.186	32.15
868.356	32.05
868.526	28.94
868.696	26.6
868.866	28.88
869.036	27.88
869.206	30.51
869.376	25.78
869.545	25.41
869.715	25.86
869.885	25.59
870.055	27.07
870.224	27.16
870.394	31.6
870.564	35.77
870.734	32.92
870.903	33.83
871.073	32.28
871.243	35.17
871.412	35.31
871.582	36.04
871.751	37.38
871.921	37.29
872.091	34.65
872.26	33.09
872.43	31.1
872.599	33.06
872.769	32.49
872.938	30.43
873.108	30.8
873.277	30.17
873.446	32.07
873.616	31.14
873.785	31.05
873.955	34.45
874.124	33.04
874.293	34.33
874.463	32.98
874.632	32.74
874.801	30.52
874.971	29.31
875.14	30.5
875.309	25.91
875.478	27.83
875.647	27.22
875.817	27.41
875.986	26.23
876.155	24.92
876.324	24.35
876.493	27.7
876.662	30.49
876.831	30.73
877	32.67
877.17	38.46
877.339	38.44
877.508	41.26
877.677	41.01
877.846	42.15
878.015	44.05
878.184	45.79
878.352	43.81
878.521	41.69
878.69	41.44
878.859	40.24
879.028	37.86
879.197	35.65
879.366	33.8
879.534	32.94
879.703	32.72
879.872	31.83
880.041	32.2
880.21	31.45
880.378	31.89
880.547	31.32
880.716	31.08
880.884	30.24
881.053	30.18
881.222	30.05
881.39	30.09
881.559	29.9
881.727	29.8
881.896	29.28
882.065	29.26
882.233	29.44
882.402	29.43
882.57	29.07
882.739	29.5
882.907	30.24
883.076	30.92
883.244	30.57
883.412	30.89
883.581	30.88
883.749	30.93
883.918	31.64
884.086	31.38
884.254	31.54
884.423	31.64
884.591	31.57
884.759	29.29
884.927	28.66
885.096	28.54
885.264	28.97
885.432	28.39
885.6	27.24
885.769	26.72
885.937	25.93
886.105	25.91
886.273	27.7
886.441	27.12
886.609	29.83
886.777	28.29
886.945	29.3
887.113	28.89
887.281	29.09
887.449	32.95
887.617	31.15
887.785	30.87
887.953	31.52
888.121	28.08
888.289	30.18
888.457	29.14
888.625	30.58
888.793	29.81
888.961	28.22
889.129	30.73
889.296	28.75
889.464	29.76
889.632	31.53
889.8	30.45
889.967	33.79
890.135	33.16
