Data from JASIL_3279_Reflection_1.txt Node
Date: Tue Nov 17 19:12:14 EST 2015
User: Geneva
Spectrometer: USB4E03002
Autoset integration time: false
Trigger mode: 4
Integration Time (sec): 1.000000E-1
Scans to average: 10
Electric dark correction enabled: false
Nonlinearity correction enabled: false
Boxcar width: 5
Stray light correction enabled: false
XAxis mode: Wavelengths
Stop averaging: false
Number of Pixels in Spectrum: 3648
>>>>>Begin Spectral Data<<<<<
177.575	89.71
177.794	167.68
178.014	196.05
178.233	637.5
178.452	-300
178.672	33.92
178.891	57.5
179.11	126.25
179.33	85.71
179.549	69.4
179.768	66.85
179.987	83.2
180.207	-25
180.426	24.64
180.645	179.81
180.864	51.82
181.084	42.03
181.303	59.9
181.522	69.76
181.741	46.91
181.96	61.72
182.179	85.48
182.398	136.24
182.618	165.44
182.837	192.11
183.056	-1650
183.275	-58.98
183.494	-36.82
183.713	-1.15
183.932	-18.49
184.151	-42.77
184.37	-36.41
184.589	-24.46
184.808	-14.54
185.027	-9.82
185.246	-27.19
185.465	-80.59
185.684	-2005
185.903	276.41
186.122	262.95
186.341	165.41
186.56	149.43
186.779	93.47
186.998	59.14
187.216	65.48
187.435	78
187.654	109.01
187.873	147.84
188.092	150.32
188.311	121.3
188.53	90.61
188.748	71.98
188.967	82.28
189.186	114.44
189.405	144.95
189.623	135.37
189.842	178.22
190.061	178.62
190.28	110.22
190.498	124.44
190.717	-2950
190.936	-184.47
191.154	-172.95
191.373	-107.59
191.592	-1090.91
191.81	52.52
192.029	346.15
192.248	-960
192.466	-41.03
192.685	-234.33
192.904	-13.07
193.122	-44.31
193.341	-21.12
193.559	-38.11
193.778	-7.27
193.996	40.81
194.215	1.34
194.433	81.5
194.652	41.75
194.87	163.53
195.089	125
195.307	331.82
195.526	1327.59
195.744	-179.82
195.963	136.02
196.181	111.63
196.399	141.53
196.618	143.94
196.836	132.39
197.055	209.57
197.273	286.9
197.491	270.87
197.71	244.35
197.928	465.75
198.146	173.58
198.365	232.49
198.583	165.8
198.801	161.94
199.019	196.63
199.238	134.22
199.456	104.25
199.674	71.96
199.892	78.1
200.111	78.26
200.329	65.74
200.547	36.83
200.765	13.96
200.983	54.58
201.202	59.09
201.42	77.67
201.638	93.75
201.856	77.55
202.074	492.31
202.292	505.88
202.51	-396.3
202.728	167.01
202.946	161.45
203.165	200
203.383	205.13
203.601	442.67
203.819	196.76
204.037	242.13
204.255	225.45
204.473	207
204.691	179.33
204.909	164.05
205.127	164.32
205.345	196.57
205.562	194.89
205.78	309.57
205.998	174.53
206.216	183.89
206.434	218.1
206.652	207.07
206.87	167.6
207.088	189.29
207.306	255.33
207.523	178.52
207.741	171.2
207.959	166.04
208.177	129.05
208.395	121.76
208.612	90.13
208.83	73.36
209.048	67.17
209.266	73.21
209.483	61.4
209.701	66.96
209.919	82.12
210.136	90.15
210.354	69.09
210.572	91.91
210.79	100
211.007	120
211.225	105.17
211.442	89.48
211.66	110.63
211.878	112.61
212.095	78.71
212.313	72.87
212.53	69.01
212.748	77.34
212.966	69.69
213.183	55.71
213.401	46.24
213.618	38.56
213.836	29.61
214.053	14.55
214.271	10.59
214.488	-42.26
214.705	7.14
214.923	35
215.14	31.85
215.358	38.33
215.575	56.94
215.793	61.22
216.01	75.55
216.227	75.19
216.445	63.53
216.662	76.12
216.879	87.77
217.097	78.27
217.314	69.48
217.531	74.72
217.749	84.55
217.966	86.62
218.183	78.67
218.4	44.42
218.618	32.55
218.835	36.21
219.052	44.31
219.269	20.26
219.487	42.09
219.704	23.97
219.921	43.01
220.138	29.37
220.355	49.08
220.572	68.45
220.79	105.08
221.007	120.52
221.224	108.58
221.441	83.16
221.658	91.87
221.875	88.65
222.092	88.48
222.309	51.12
222.526	33.01
222.743	-33.98
222.96	-31.64
223.177	-41
223.394	-84.32
223.611	-11.34
223.828	8.78
224.045	-29.9
224.262	-28.76
224.479	-1.15
224.696	30.49
224.913	61.86
225.13	64.81
225.347	69.86
225.564	67.48
225.781	62.7
225.997	57.31
226.214	38.36
226.431	38.47
226.648	42.13
226.865	31.11
227.082	29.5
227.298	22.29
227.515	24
227.732	18.74
227.949	18.84
228.165	20.82
228.382	14.96
228.599	15.77
228.816	13.71
229.032	9.3
229.249	13.3
229.466	17.44
229.682	20.7
229.899	16.54
230.116	18.45
230.332	11.88
230.549	9.78
230.765	13.56
230.982	21.34
231.199	22.5
231.415	19.16
231.632	13.11
231.848	-16.3
232.065	-10.57
232.281	-4.87
232.498	-11.81
232.714	-6.71
232.931	-5.4
233.147	-0.41
233.364	-4.93
233.58	-3.28
233.797	-1.19
234.013	8.37
234.23	21.02
234.446	9.34
234.662	15.36
234.879	12.9
235.095	9.79
235.312	1.52
235.528	9.96
235.744	8.8
235.961	11.32
236.177	13.11
236.393	17.49
236.61	7.83
236.826	10.71
237.042	6.33
237.258	18.59
237.475	36.17
237.691	44.4
237.907	31.73
238.123	29.6
238.339	28.65
238.556	25.01
238.772	19.51
238.988	24.18
239.204	28.03
239.42	20.61
239.636	17.51
239.853	12.19
240.069	7.5
240.285	11.21
240.501	12.39
240.717	11.63
240.933	13.13
241.149	12.38
241.365	9.17
241.581	9.02
241.797	10.39
242.013	14.1
242.229	10.96
242.445	13.56
242.661	14.84
242.877	13.59
243.093	13.36
243.309	13.93
243.525	12.67
243.741	17.38
243.957	13.6
244.173	16.47
244.388	10.73
244.604	9.46
244.82	8.48
245.036	4.19
245.252	8.1
245.468	7.66
245.683	5.72
245.899	7.88
246.115	6.85
246.331	8.37
246.547	7.49
246.762	7.64
246.978	9.28
247.194	11.38
247.409	12.43
247.625	11.31
247.841	14.8
248.057	18.57
248.272	15.88
248.488	13.38
248.703	13.16
248.919	16.66
249.135	17.42
249.35	18.42
249.566	14.06
249.782	19.12
249.997	20.03
250.213	12.18
250.428	7.29
250.644	10.21
250.859	14.88
251.075	14.02
251.29	7.6
251.506	6.93
251.721	3.24
251.937	5
252.152	-3.28
252.368	-3.83
252.583	6.38
252.798	10.13
253.014	8.09
253.229	9.65
253.445	14.92
253.66	19.6
253.875	20.53
254.091	21.58
254.306	22.92
254.521	27.89
254.737	23.67
254.952	20.92
255.167	19.46
255.383	19.99
255.598	16.74
255.813	13.5
256.028	11.34
256.244	9.63
256.459	10.34
256.674	7.3
256.889	8.05
257.104	7.38
257.32	8.08
257.535	8.18
257.75	7.86
257.965	5.79
258.18	4.91
258.395	5.99
258.61	6.39
258.826	6.45
259.041	7.37
259.256	7.7
259.471	8.48
259.686	6.97
259.901	7.02
260.116	5.83
260.331	7.54
260.546	9.6
260.761	9.7
260.976	11.31
261.191	11.51
261.406	11.3
261.621	7.77
261.836	7.09
262.05	9.02
262.265	7.72
262.48	10.73
262.695	8.35
262.91	4.65
263.125	5.52
263.34	7.38
263.555	5.99
263.769	3.8
263.984	9.98
264.199	11.08
264.414	10.38
264.629	10.92
264.843	11.43
265.058	12.23
265.273	13.42
265.488	11.21
265.702	6.86
265.917	8.63
266.132	8.03
266.346	5.96
266.561	9.39
266.776	9.81
266.99	8.65
267.205	8.41
267.42	8.47
267.634	8.41
267.849	9.66
268.063	10.45
268.278	9.95
268.492	12.94
268.707	11.86
268.922	9.08
269.136	8.36
269.351	10.65
269.565	10.84
269.78	12.2
269.994	10.69
270.209	10.29
270.423	12.04
270.637	12.3
270.852	9.35
271.066	9.31
271.281	8.99
271.495	9.19
271.709	6.96
271.924	6.75
272.138	6.18
272.353	6.21
272.567	6.81
272.781	5.31
272.996	5.54
273.21	7.41
273.424	7.07
273.638	5.36
273.853	7.39
274.067	11.19
274.281	11.6
274.495	10.67
274.71	11.8
274.924	10.97
275.138	11.1
275.352	9.96
275.566	10.44
275.781	11.04
275.995	12.86
276.209	11.18
276.423	10.45
276.637	10.52
276.851	10.42
277.065	9.55
277.279	9.3
277.493	10.29
277.707	11.41
277.921	9.4
278.135	9.2
278.349	9.67
278.563	9.68
278.777	7.24
278.991	7.46
279.205	9.78
279.419	9.34
279.633	9.96
279.847	10.7
280.061	10.84
280.275	10.71
280.489	12.86
280.703	11.59
280.917	10.29
281.131	11.3
281.344	12.44
281.558	10.55
281.772	9.77
281.986	8.81
282.2	7.93
282.414	7.56
282.627	8.97
282.841	7.18
283.055	6.74
283.269	8.62
283.482	7.49
283.696	6.91
283.91	6.55
284.123	7.96
284.337	9.44
284.551	9.14
284.764	8.62
284.978	9.55
285.192	9.57
285.405	8.7
285.619	7.18
285.833	8.66
286.046	6.77
286.26	7.67
286.473	6.67
286.687	5.64
286.9	5.01
287.114	4.51
287.327	2.32
287.541	1.81
287.754	4.11
287.968	3.76
288.181	2.26
288.395	3.96
288.608	3.63
288.822	4.34
289.035	3.95
289.248	4.23
289.462	4.9
289.675	3.83
289.889	3.65
290.102	1.63
290.315	3.12
290.529	3.63
290.742	3.29
290.955	2.94
291.169	2.66
291.382	2.8
291.595	2.36
291.808	2.3
292.022	4.08
292.235	5.09
292.448	7.04
292.661	6.93
292.875	7.1
293.088	6.93
293.301	6.48
293.514	5.41
293.727	7.11
293.94	7.1
294.153	7.12
294.367	6.76
294.58	4.45
294.793	4.5
295.006	2.42
295.219	1.49
295.432	2.06
295.645	3.36
295.858	3.52
296.071	2.51
296.284	2.69
296.497	2.97
296.71	2.76
296.923	3.7
297.136	2.6
297.349	5.67
297.562	5.19
297.775	4.72
297.988	3.91
298.201	5.41
298.414	5.15
298.626	5.37
298.839	4.33
299.052	3.56
299.265	5.31
299.478	6.41
299.691	4.18
299.903	5.23
300.116	3.98
300.329	4.31
300.542	5.12
300.755	5.34
300.967	5.79
301.18	6.59
301.393	8.33
301.605	6.79
301.818	6.7
302.031	7
302.243	7.98
302.456	9.54
302.669	9.62
302.881	8.83
303.094	8.54
303.307	7.59
303.519	7.76
303.732	7.74
303.944	7.32
304.157	6.96
304.37	6.67
304.582	6.43
304.795	6.63
305.007	6.18
305.22	5.41
305.432	6.37
305.645	6.29
305.857	6.06
306.069	5.23
306.282	6.34
306.494	5.14
306.707	4.2
306.919	4.24
307.132	3.87
307.344	5.32
307.556	5.35
307.769	4.35
307.981	5.35
308.193	5.14
308.406	5.86
308.618	6.35
308.83	7.33
309.043	7.61
309.255	7.13
309.467	6.12
309.679	5.42
309.892	5.87
310.104	6.16
310.316	5.75
310.528	5.69
310.74	5.65
310.953	5.62
311.165	5.58
311.377	5.79
311.589	6.19
311.801	7.74
312.013	7.88
312.225	7.73
312.437	8.66
312.649	9.93
312.862	10.03
313.074	9.64
313.286	8.9
313.498	9.99
313.71	10.09
313.922	8.85
314.134	8.39
314.346	8.86
314.558	9.44
314.77	8.52
314.982	7.59
315.193	7.99
315.405	7.41
315.617	9
315.829	9.84
316.041	9.15
316.253	9.33
316.465	8.32
316.677	8.78
316.888	8.11
317.1	7.98
317.312	8.71
317.524	9.05
317.736	11.82
317.947	10.63
318.159	9.75
318.371	10.07
318.583	11.64
318.794	13.51
319.006	13.03
319.218	13.58
319.43	13.74
319.641	13.71
319.853	12.79
320.064	10.08
320.276	9.75
320.488	10.05
320.699	8.98
320.911	7.43
321.123	6.6
321.334	5.39
321.546	3.72
321.757	3.19
321.969	3.5
322.18	3.67
322.392	4.81
322.603	6.03
322.815	4.76
323.026	6.85
323.238	7.98
323.449	7.55
323.661	8.41
323.872	10.22
324.083	10.4
324.295	10.46
324.506	10.57
324.718	10.85
324.929	9.9
325.14	8.74
325.352	8.73
325.563	9.11
325.774	9.86
325.986	10.06
326.197	10.32
326.408	10.83
326.62	11.18
326.831	10.06
327.042	11.25
327.253	12.99
327.464	15.04
327.676	15.73
327.887	13.99
328.098	13.81
328.309	14.44
328.52	13.59
328.732	13.54
328.943	12.01
329.154	13.83
329.365	13.44
329.576	11.64
329.787	12.13
329.998	11.7
330.209	12.89
330.42	12.61
330.631	12.54
330.842	15.66
331.053	16.14
331.264	17.9
331.475	17.6
331.686	16.2
331.897	17.52
332.108	16.47
332.319	16.24
332.53	16.22
332.741	16.05
332.952	14.64
333.163	13.19
333.374	12.73
333.585	13.03
333.795	12.96
334.006	14.36
334.217	14.08
334.428	14.04
334.639	14.52
334.849	14.34
335.06	14.25
335.271	14.05
335.482	13.14
335.692	14.44
335.903	13.31
336.114	14.08
336.325	11.58
336.535	10.76
336.746	11.21
336.957	10.74
337.167	9.69
337.378	9.44
337.589	10.64
337.799	9.39
338.01	8.58
338.22	8.28
338.431	7.66
338.642	8.45
338.852	8.39
339.063	6.44
339.273	6.74
339.484	8.79
339.694	9.67
339.905	9.64
340.115	11.47
340.326	12.07
340.536	12.49
340.746	12.95
340.957	13.61
341.167	12.88
341.378	13.88
341.588	13.75
341.799	13.99
342.009	14.46
342.219	13.83
342.43	13.38
342.64	12.5
342.85	12.18
343.061	12.55
343.271	13.26
343.481	13.86
343.691	14.21
343.902	13.33
344.112	12.7
344.322	11.42
344.532	11.35
344.743	10.3
344.953	10.47
345.163	10.81
345.373	10.46
345.583	11.52
345.793	13.2
346.004	13.49
346.214	13.12
346.424	13.88
346.634	15.05
346.844	14.96
347.054	15.66
347.264	14.97
347.474	13.46
347.684	13.17
347.894	11.81
348.104	10.49
348.314	10.53
348.524	12.17
348.734	10.57
348.944	10.16
349.154	9.94
349.364	10.92
349.574	11.38
349.784	13.41
349.994	13.47
350.204	13.7
350.413	14.63
350.623	13.82
350.833	13.31
351.043	14.1
351.253	14.02
351.463	15.7
351.672	15.01
351.882	15.64
352.092	15.16
352.302	15.31
352.511	14.33
352.721	13.47
352.931	13.43
353.141	12.48
353.35	12.93
353.56	13.42
353.77	11.25
353.979	11.36
354.189	11.23
354.399	10.96
354.608	11.31
354.818	11.71
355.027	12.39
355.237	13.22
355.447	13.48
355.656	12.64
355.866	12.73
356.075	14.6
356.285	14.62
356.494	14.04
356.704	14.37
356.913	13.56
357.123	13.85
357.332	13.07
357.542	12.27
357.751	12.74
357.96	12.72
358.17	12.05
358.379	11.83
358.589	10.92
358.798	11.2
359.007	10.6
359.217	10.1
359.426	9.7
359.635	10.3
359.845	11.29
360.054	11.7
360.263	11.59
360.472	11.58
360.682	10.52
360.891	11.09
361.1	11.07
361.309	10.68
361.519	11.18
361.728	11.58
361.937	10.95
362.146	10.84
362.355	11.02
362.564	11.68
362.774	10.97
362.983	10.63
363.192	11.19
363.401	10.98
363.61	11.26
363.819	11.6
364.028	11.34
364.237	11.89
364.446	11.65
364.655	10.04
364.864	9.55
365.073	11.11
365.282	12.1
365.491	11.64
365.7	11.52
365.909	12.05
366.118	11.73
366.327	11.85
366.536	12.09
366.745	11.3
366.954	11.66
367.162	11.73
367.371	10.49
367.58	10.87
367.789	10.06
367.998	10.94
368.207	9.62
368.415	9.51
368.624	8.27
368.833	7.73
369.042	8.31
369.25	9.21
369.459	9.12
369.668	9.79
369.877	9.33
370.085	9.35
370.294	8.89
370.503	9.93
370.711	9.46
370.92	9.7
371.129	9.66
371.337	8.88
371.546	8.4
371.754	8.85
371.963	8.32
372.171	8.8
372.38	9.68
372.589	9.28
372.797	9.2
373.006	9.59
373.214	10.57
373.423	10.83
373.631	10.97
373.84	10.87
374.048	10.66
374.256	11.23
374.465	11.79
374.673	12.14
374.882	12.1
375.09	12.25
375.298	12.36
375.507	11.17
375.715	10.85
375.923	11.31
376.132	11.35
376.34	11.09
376.548	10.36
376.757	10.58
376.965	10.5
377.173	10.6
377.381	10.25
377.59	10.41
377.798	11.86
378.006	11.38
378.214	10.95
378.423	10.81
378.631	11.03
378.839	11.46
379.047	9.86
379.255	9.02
379.463	8.99
379.671	9.88
379.879	10.55
380.088	10.34
380.296	11.39
380.504	12.43
380.712	12.99
380.92	12.6
381.128	11.7
381.336	12.09
381.544	12.89
381.752	13.22
381.96	13.07
382.168	11.37
382.376	11.64
382.584	10.71
382.791	9.96
382.999	9.61
383.207	9.32
383.415	9.95
383.623	10.59
383.831	9.72
384.039	9.79
384.247	8.63
384.454	9.2
384.662	9.07
384.87	9.56
385.078	9.76
385.285	9.34
385.493	10.31
385.701	10.4
385.909	10.53
386.116	10.69
386.324	10.38
386.532	11.21
386.739	11.18
386.947	11.03
387.155	11.08
387.362	11.5
387.57	12.18
387.778	11.13
387.985	11.75
388.193	11.63
388.4	12.11
388.608	12.3
388.816	12.11
389.023	11.74
389.231	11.05
389.438	11.11
389.646	9.77
389.853	9.75
390.061	10.09
390.268	9.81
390.475	8.96
390.683	8.57
390.89	8.6
391.098	8.92
391.305	9.01
391.512	9.38
391.72	9.6
391.927	10.47
392.135	9.38
392.342	10.32
392.549	10.71
392.756	10.52
392.964	10.45
393.171	9.84
393.378	9.9
393.586	9.83
393.793	9.67
394	9.21
394.207	9.2
394.414	10.17
394.622	9.49
394.829	8.9
395.036	9.71
395.243	9.74
395.45	9.5
395.657	9.17
395.864	9.63
396.072	9.02
396.279	8.63
396.486	9.09
396.693	9.02
396.9	8.59
397.107	8.3
397.314	7.63
397.521	7.75
397.728	7.63
397.935	7.6
398.142	7.87
398.349	8.7
398.556	8.88
398.763	8.02
398.97	7.7
399.177	8.19
399.383	8.63
399.59	9.13
399.797	9.22
400.004	9.2
400.211	8.41
400.418	8.69
400.625	8.8
400.831	8.98
401.038	9.39
401.245	8.96
401.452	8.5
401.658	8.6
401.865	8.73
402.072	8.22
402.279	8.26
402.485	8.76
402.692	8.45
402.899	8.34
403.105	8.66
403.312	7.79
403.519	8.34
403.725	8.14
403.932	7.88
404.138	7.7
404.345	7.46
404.552	7.91
404.758	7.7
404.965	7.65
405.171	7.61
405.378	7.01
405.584	7.33
405.791	7.27
405.997	7.54
406.204	7.27
406.41	7.05
406.617	7.37
406.823	7.4
407.029	7.97
407.236	7.34
407.442	7.1
407.649	6.93
407.855	7.73
408.061	7.92
408.268	7.65
408.474	7.67
408.68	7.25
408.887	7.8
409.093	7.64
409.299	7.52
409.505	7.76
409.712	7.77
409.918	7.76
410.124	7.5
410.33	7.73
410.537	8.25
410.743	8.45
410.949	9.08
411.155	9.23
411.361	9.48
411.567	8.88
411.773	9.38
411.98	9.25
412.186	10.31
412.392	10.51
412.598	10.45
412.804	10.74
413.01	11.23
413.216	10.51
413.422	9.11
413.628	9.72
413.834	10.29
414.04	10.23
414.246	9.94
414.452	9.5
414.658	9
414.864	8.58
415.07	7.74
415.275	7.34
415.481	7.66
415.687	8.76
415.893	7.46
416.099	6.83
416.305	6.05
416.511	6.53
416.716	6.62
416.922	6.59
417.128	6.77
417.334	7.23
417.539	7.01
417.745	7.52
417.951	7.05
418.157	7.06
418.362	7.2
418.568	7.46
418.774	7.26
418.979	7.23
419.185	7.15
419.391	7.08
419.596	6.93
419.802	6.94
420.008	6.54
420.213	6.73
420.419	7.25
420.624	7.26
420.83	7.49
421.035	7.59
421.241	7.43
421.446	7.53
421.652	7.63
421.857	7.36
422.063	7.47
422.268	7.44
422.474	7.2
422.679	7.03
422.885	7.24
423.09	7.19
423.295	7.52
423.501	7.54
423.706	7.51
423.911	7.19
424.117	7.42
424.322	7.34
424.527	7.23
424.733	7.32
424.938	7.32
425.143	7.24
425.349	6.87
425.554	6.71
425.759	6.88
425.964	6.83
426.169	7.01
426.375	6.7
426.58	6.57
426.785	6.51
426.99	6.62
427.195	7.01
427.4	7.3
427.605	7.7
427.811	7.44
428.016	7.29
428.221	7.41
428.426	7.51
428.631	7.61
428.836	7.77
429.041	8.12
429.246	7.65
429.451	7.28
429.656	6.89
429.861	6.83
430.066	6.89
430.271	7.2
430.476	6.86
430.681	6.78
430.886	7.27
431.09	7.75
431.295	7.43
431.5	7.74
431.705	8.01
431.91	8.52
432.115	8.55
432.32	8.3
432.524	8.02
432.729	8.35
432.934	8.37
433.139	7.93
433.343	7.74
433.548	7.83
433.753	8.14
433.958	7.89
434.162	7.72
434.367	7.73
434.572	7.97
434.776	7.72
434.981	7.38
435.186	7.67
435.39	8.08
435.595	7.74
435.799	8.12
436.004	7.79
436.209	7.77
436.413	7.63
436.618	7.78
436.822	7.47
437.027	7.62
437.231	7.46
437.436	6.96
437.64	6.71
437.845	6.92
438.049	6.94
438.253	6.64
438.458	6.63
438.662	6.06
438.867	5.46
439.071	5.76
439.275	6.04
439.48	6.17
439.684	5.98
439.888	6.23
440.093	6.08
440.297	5.93
440.501	6.1
440.706	6.09
440.91	6.42
441.114	6.74
441.318	6.34
441.523	6.34
441.727	6.48
441.931	6.67
442.135	6.22
442.339	6.2
442.543	6.33
442.748	6.31
442.952	6.41
443.156	6.57
443.36	6.39
443.564	6.43
443.768	5.96
443.972	6.34
444.176	6.48
444.38	6.87
444.584	7.01
444.788	6.93
444.992	7.23
445.196	6.94
445.4	6.79
445.604	6.75
445.808	6.74
446.012	6.69
446.216	6.12
446.42	5.89
446.624	5.96
446.828	5.9
447.032	5.99
447.235	5.62
447.439	5.7
447.643	5.8
447.847	6.25
448.051	6.38
448.254	6.52
448.458	6.86
448.662	7.47
448.866	7.45
449.069	7.84
449.273	7.55
449.477	7.86
449.681	7.77
449.884	7.98
450.088	7.61
450.292	7.75
450.495	7.66
450.699	7.48
450.902	7.27
451.106	6.99
451.31	6.48
451.513	6.18
451.717	5.96
451.92	6.36
452.124	6.27
452.327	6.21
452.531	5.89
452.734	6.22
452.938	6.38
453.141	5.97
453.345	5.75
453.548	5.83
453.752	6.27
453.955	6.44
454.158	6.67
454.362	6.47
454.565	6.65
454.769	6.99
454.972	6.74
455.175	7.13
455.379	7.33
455.582	7.57
455.785	7.5
455.988	7.81
456.192	7.58
456.395	6.99
456.598	7.22
456.801	7.59
457.005	7.82
457.208	7.54
457.411	7.24
457.614	7.15
457.817	6.94
458.021	7.06
458.224	6.85
458.427	6.74
458.63	6.88
458.833	6.91
459.036	6.7
459.239	6.28
459.442	6.66
459.645	6.48
459.848	6.77
460.051	7.18
460.254	7.26
460.457	7.36
460.66	7.47
460.863	7.36
461.066	6.87
461.269	6.77
461.472	6.86
461.675	6.56
461.878	6.86
462.081	6.41
462.284	6.35
462.486	6.04
462.689	6.06
462.892	6.64
463.095	6.49
463.298	6.92
463.5	6.99
463.703	6.99
463.906	7.34
464.109	7.22
464.311	7.26
464.514	6.77
464.717	7
464.92	7.07
465.122	7.02
465.325	7.23
465.528	7.25
465.73	7.32
465.933	7.37
466.135	7.62
466.338	7.88
466.541	8.13
466.743	8.55
466.946	8.42
467.148	8.39
467.351	7.97
467.553	8.06
467.756	7.83
467.958	8.01
468.161	7.84
468.363	7.57
468.566	7.33
468.768	7.1
468.971	6.66
469.173	6.44
469.375	6.33
469.578	6.52
469.78	6.91
469.983	7.09
470.185	6.93
470.387	7.15
470.59	6.84
470.792	6.6
470.994	6.16
471.196	6.36
471.399	6.82
471.601	6.71
471.803	6.85
472.005	6.35
472.208	6.46
472.41	6.28
472.612	6.41
472.814	6.92
473.016	7.44
473.218	7.77
473.421	7.98
473.623	8.23
473.825	7.9
474.027	7.52
474.229	7.66
474.431	7.65
474.633	7.61
474.835	7.81
475.037	7.28
475.239	7.33
475.441	7.2
475.643	7.06
475.845	6.61
476.047	7.02
476.249	7.21
476.451	7.14
476.653	7.21
476.855	7.53
477.057	7.3
477.258	7.45
477.46	7.18
477.662	7.4
477.864	7.14
478.066	7.38
478.268	6.86
478.469	7.02
478.671	7.08
478.873	6.91
479.075	6.56
479.276	6.34
479.478	6.4
479.68	6.52
479.882	6.43
480.083	6.97
480.285	6.51
480.487	6.78
480.688	6.73
480.89	6.55
481.091	6.52
481.293	6.38
481.495	6.54
481.696	6.42
481.898	6.28
482.099	6.45
482.301	6.42
482.502	6.54
482.704	6.4
482.905	6.34
483.107	6.38
483.308	6.29
483.51	6.39
483.711	6.33
483.913	6.35
484.114	6.36
484.315	6.28
484.517	6.1
484.718	5.99
484.92	6.05
485.121	6.1
485.322	6.13
485.524	6.27
485.725	6.27
485.926	6.32
486.127	6.35
486.329	6.51
486.53	6.55
486.731	6.58
486.932	6.76
487.134	6.85
487.335	6.63
487.536	6.59
487.737	6.53
487.938	6.57
488.139	6.53
488.341	6.45
488.542	6.13
488.743	5.92
488.944	5.83
489.145	5.86
489.346	5.89
489.547	6.05
489.748	6.09
489.949	6.15
490.15	6.13
490.351	6.28
490.552	6.44
490.753	6.71
490.954	6.78
491.155	6.98
491.356	7.03
491.557	6.96
491.758	7.18
491.959	7.11
492.159	7.19
492.36	7.22
492.561	7.26
492.762	7.4
492.963	7.54
493.164	7.75
493.364	7.7
493.565	7.44
493.766	7.74
493.967	7.56
494.167	7.78
494.368	7.72
494.569	7.77
494.769	7.76
494.97	7.34
495.171	7.15
495.371	7.05
495.572	7.14
495.773	7.09
495.973	6.94
496.174	7.13
496.375	7.25
496.575	7.25
496.776	7.12
496.976	7.14
497.177	7.31
497.377	7.4
497.578	7.77
497.778	7.4
497.979	7.73
498.179	7.52
498.38	7.43
498.58	7.36
498.78	7.69
498.981	7.83
499.181	7.59
499.382	7.61
499.582	7.4
499.782	6.7
499.983	7.09
500.183	7.01
500.383	7.36
500.584	7.33
500.784	7.59
500.984	7.48
501.184	7.38
501.385	7.6
501.585	7.69
501.785	8.15
501.985	8.54
502.185	8.65
502.386	8.68
502.586	8.97
502.786	8.61
502.986	8.42
503.186	8.72
503.386	8.8
503.586	8.56
503.786	8.48
503.987	8.14
504.187	8.26
504.387	8.42
504.587	8.61
504.787	8.36
504.987	8.64
505.187	8.43
505.387	8.38
505.587	8.66
505.786	8.59
505.986	8.71
506.186	8.76
506.386	8.66
506.586	8.66
506.786	8.1
506.986	8.26
507.186	8.35
507.386	8.71
507.585	8.38
507.785	8.26
507.985	8.51
508.185	8.33
508.384	8.35
508.584	8.51
508.784	8.51
508.984	8.72
509.183	8.39
509.383	8.39
509.583	8.33
509.782	8.32
509.982	8.17
510.182	8.24
510.381	8.29
510.581	8.18
510.781	7.97
510.98	7.55
511.18	7.49
511.379	7.4
511.579	7.42
511.778	7.49
511.978	7.8
512.177	8.01
512.377	7.97
512.576	8.1
512.776	8.49
512.975	8.5
513.175	8.94
513.374	8.84
513.573	9.21
513.773	9.24
513.972	9.36
514.172	9.58
514.371	9.75
514.57	9.86
514.77	10.15
514.969	10.12
515.168	10.6
515.367	10.49
515.567	10.54
515.766	10.51
515.965	10.58
516.164	10.44
516.364	9.96
516.563	9.58
516.762	9.27
516.961	9.24
517.16	9.34
517.359	9.3
517.559	9.3
517.758	9.54
517.957	9.58
518.156	9.35
518.355	9.41
518.554	9.7
518.753	9.92
518.952	10.1
519.151	10.19
519.35	10.13
519.549	9.93
519.748	9.94
519.947	9.97
520.146	9.9
520.345	10.4
520.544	10.33
520.743	10.22
520.942	10.88
521.141	11.01
521.339	11.14
521.538	11.12
521.737	11.33
521.936	11.18
522.135	11.27
522.333	11.55
522.532	11.21
522.731	11.34
522.93	11.24
523.129	10.66
523.327	10.9
523.526	10.85
523.725	11.06
523.923	11.14
524.122	11.31
524.321	11.31
524.519	11.28
524.718	11.44
524.917	11.26
525.115	11.36
525.314	11.31
525.512	11.28
525.711	11.23
525.909	11.01
526.108	11
526.306	11.06
526.505	11.17
526.703	11.26
526.902	11.38
527.1	11.5
527.299	11.59
527.497	11.61
527.696	11.65
527.894	11.8
528.092	11.82
528.291	11.82
528.489	11.79
528.688	11.83
528.886	11.79
529.084	11.87
529.283	11.86
529.481	11.86
529.679	11.87
529.877	11.92
530.076	11.89
530.274	12.17
530.472	12.23
530.67	12.54
530.869	12.43
531.067	12.44
531.265	12.43
531.463	12.39
531.661	12.46
531.859	12.63
532.057	12.62
532.255	12.56
532.454	12.44
532.652	12.55
532.85	12.45
533.048	12.46
533.246	12.57
533.444	12.49
533.642	12.77
533.84	12.9
534.038	13.01
534.236	13.08
534.434	13.22
534.632	13.43
534.83	13.54
535.027	13.66
535.225	14.02
535.423	13.99
535.621	14.12
535.819	14.12
536.017	13.85
536.215	13.91
536.412	13.91
536.61	14.08
536.808	14.23
537.006	14.1
537.203	14.45
537.401	14.44
537.599	14.99
537.797	14.9
537.994	14.71
538.192	14.99
538.39	15.08
538.587	15.18
538.785	14.94
538.983	14.77
539.18	14.94
539.378	14.73
539.575	14.71
539.773	14.34
539.97	14.65
540.168	14.85
540.366	14.89
540.563	14.87
540.761	15.01
540.958	15.15
541.155	15.28
541.353	15.24
541.55	15.29
541.748	15.35
541.945	15.53
542.143	15.48
542.34	15.61
542.537	15.74
542.735	15.68
542.932	15.51
543.129	15.65
543.327	15.72
543.524	15.83
543.721	16.02
543.919	16.07
544.116	16.32
544.313	16.3
544.51	16.17
544.708	15.95
544.905	16.33
545.102	16.6
545.299	16.58
545.496	16.58
545.693	16.57
545.891	16.58
546.088	16.82
546.285	16.64
546.482	16.77
546.679	17
546.876	17.46
547.073	17.37
547.27	17.42
547.467	17.82
547.664	17.87
547.861	18.04
548.058	17.78
548.255	17.75
548.452	18.01
548.649	18.24
548.846	18.46
549.043	18.52
549.24	18.34
549.437	18.81
549.633	18.29
549.83	18.5
550.027	18.68
550.224	19.33
550.421	19.27
550.618	19.17
550.814	19.17
551.011	19.45
551.208	19.21
551.405	19.38
551.601	19.2
551.798	19.26
551.995	19.54
552.191	19.86
552.388	19.63
552.585	19.72
552.781	19.98
552.978	20.1
553.175	19.77
553.371	20.26
553.568	20.87
553.764	20.92
553.961	21.4
554.157	21.21
554.354	20.75
554.55	20.88
554.747	21.04
554.943	21.18
555.14	21.23
555.336	21.28
555.533	21.01
555.729	20.76
555.926	20.71
556.122	20.66
556.318	20.61
556.515	21.19
556.711	21.62
556.907	21.51
557.104	21.39
557.3	21.72
557.496	22.04
557.693	22.46
557.889	22.83
558.085	23.22
558.281	23.42
558.478	23.79
558.674	24.07
558.87	23.61
559.066	24.08
559.262	24.37
559.459	24.06
559.655	24.1
559.851	23.9
560.047	23.91
560.243	23.99
560.439	24.47
560.635	24.45
560.831	24.4
561.027	24.99
561.223	24.95
561.419	24.89
561.615	24.93
561.811	25.06
562.007	25.17
562.203	25.39
562.399	25.16
562.595	24.81
562.791	25.16
562.987	24.81
563.183	24.5
563.379	24.78
563.575	24.83
563.771	24.87
563.966	24.59
564.162	24.45
564.358	24.06
564.554	24.93
564.75	24.78
564.945	24.79
565.141	25.08
565.337	25.49
565.533	25.43
565.728	25.78
565.924	25.97
566.12	26.26
566.315	26.49
566.511	26.7
566.707	26.1
566.902	26.52
567.098	26.48
567.293	26.75
567.489	26.71
567.684	26.65
567.88	26.76
568.076	26.95
568.271	27.43
568.467	27.71
568.662	28.16
568.858	28.36
569.053	28.03
569.248	28.47
569.444	28.4
569.639	28.35
569.835	28.69
570.03	28.72
570.225	28.9
570.421	28.53
570.616	28.57
570.812	28.58
571.007	28.54
571.202	28.87
571.397	28.82
571.593	28.61
571.788	28.94
571.983	29
572.178	28.95
572.374	28.84
572.569	29.08
572.764	29.19
572.959	29.22
573.154	29.34
573.35	29.39
573.545	29.22
573.74	29.45
573.935	29.32
574.13	29.32
574.325	29.2
574.52	29.33
574.715	29.61
574.91	29.64
575.105	29.45
575.3	29.35
575.495	28.93
575.69	28.95
575.885	28.98
576.08	29.18
576.275	29.2
576.47	29.76
576.665	30.13
576.86	29.98
577.055	30.03
577.25	30.48
577.444	30.9
577.639	31.59
577.834	31.73
578.029	32.58
578.224	32.46
578.418	32.37
578.613	32.78
578.808	32.57
579.003	32.82
579.197	32.85
579.392	33.26
579.587	33.25
579.781	33.34
579.976	33.74
580.171	33.5
580.365	33.47
580.56	34
580.755	33.48
580.949	33.61
581.144	33.37
581.338	33.94
581.533	33.48
581.727	33.59
581.922	33.66
582.116	33.94
582.311	33.65
582.505	34.03
582.7	34.6
582.894	34.99
583.089	35.22
583.283	35.41
583.478	35.02
583.672	35.4
583.866	35.9
584.061	36.04
584.255	35.54
584.449	36.03
584.644	36.27
584.838	36.06
585.032	35.76
585.226	35.76
585.421	35.96
585.615	36.34
585.809	36.31
586.003	36.05
586.198	36.2
586.392	36.69
586.586	36.48
586.78	36.46
586.974	36.52
587.168	36.72
587.363	36.73
587.557	37.11
587.751	37.2
587.945	37.31
588.139	37.02
588.333	36.64
588.527	36.63
588.721	36.69
588.915	36.59
589.109	36.67
589.303	36.75
589.497	36.43
589.691	36.02
589.885	35.5
590.079	35.72
590.273	36.21
590.466	36.28
590.66	36.63
590.854	36.83
591.048	37.1
591.242	36.88
591.436	36.42
591.629	36.61
591.823	36.68
592.017	37.18
592.211	36.98
592.404	37.3
592.598	37.53
592.792	37.43
592.986	36.99
593.179	36.83
593.373	36.93
593.567	37.22
593.76	37.68
593.954	37.94
594.147	38.37
594.341	38.36
594.535	38.21
594.728	38.32
594.922	38.01
595.115	38.1
595.309	37.67
595.502	37.3
595.696	37.26
595.889	37.03
596.083	37.12
596.276	36.6
596.47	36.57
596.663	36.34
596.856	36.54
597.05	37
597.243	37.21
597.437	37.95
597.63	38.43
597.823	38.86
598.017	39.03
598.21	38.96
598.403	39.44
598.596	39.98
598.79	40.33
598.983	40.29
599.176	39.77
599.369	39.76
599.563	39.46
599.756	39.4
599.949	39.35
600.142	38.91
600.335	39.21
600.528	39.01
600.722	38.67
600.915	38.39
601.108	38.3
601.301	38.13
601.494	38.09
601.687	38.32
601.88	37.69
602.073	37.76
602.266	37.91
602.459	37.06
602.652	36.94
602.845	36.81
603.038	36.93
603.231	36.62
603.424	36.74
603.617	37.38
603.809	37.18
604.002	37.54
604.195	37.57
604.388	37.39
604.581	37.87
604.774	38.17
604.966	38.28
605.159	38.26
605.352	38.9
605.545	39.31
605.737	38.79
605.93	39.3
606.123	39.44
606.316	39.16
606.508	40.31
606.701	40.36
606.894	40.14
607.086	39.68
607.279	39.81
607.471	40.04
607.664	39.7
607.857	39.61
608.049	39.35
608.242	39.57
608.434	39.92
608.627	39.36
608.819	39.51
609.012	39.22
609.204	39.98
609.397	40
609.589	39.74
609.782	39.82
609.974	40.45
610.166	40.79
610.359	40.98
610.551	41.33
610.743	41.47
610.936	41.66
611.128	42.16
611.32	41.91
611.513	42.5
611.705	43.15
611.897	43.85
612.09	43.45
612.282	43.55
612.474	43.46
612.666	43.34
612.858	44.4
613.051	44.39
613.243	44.57
613.435	44.75
613.627	44.44
613.819	44.4
614.011	44.19
614.203	44.52
614.395	44.18
614.588	44.44
614.78	44.45
614.972	43.78
615.164	44.18
615.356	44.23
615.548	44.65
615.74	44.98
615.932	44.82
616.124	44.83
616.315	44.69
616.507	44.55
616.699	44
616.891	44.09
617.083	44.08
617.275	44.15
617.467	45.06
617.659	45.37
617.85	45.16
618.042	45.69
618.234	45.95
618.426	46
618.618	46.01
618.809	46.72
619.001	46.6
619.193	46.82
619.384	46.44
619.576	46.29
619.768	46.38
619.959	46.29
620.151	45.24
620.343	45.7
620.534	45.51
620.726	46.21
620.917	46.47
621.109	46.7
621.301	47.05
621.492	47.15
621.684	47.13
621.875	46.81
622.067	46.72
622.258	46.86
622.45	47.62
622.641	47.2
622.832	46.94
623.024	46.26
623.215	46.41
623.407	46
623.598	45.87
623.789	45.9
623.981	45.74
624.172	45.92
624.363	45.96
624.555	44.44
624.746	44.86
624.937	44.56
625.129	44.16
625.32	44.1
625.511	44.12
625.702	44.44
625.893	44.32
626.085	44.45
626.276	43.98
626.467	44.24
626.658	44.55
626.849	44.73
627.04	45.49
627.231	46.95
627.422	46.91
627.614	47.13
627.805	47.34
627.996	46.96
628.187	46.66
628.378	47.14
628.569	46.87
628.76	46.71
628.951	46.67
629.142	46.19
629.332	45.62
629.523	45.44
629.714	45.17
629.905	44.97
630.096	45.34
630.287	46.72
630.478	46.99
630.669	47.34
630.859	47.58
631.05	47.71
631.241	47.59
631.432	46.89
631.623	47.43
631.813	47.51
632.004	47.14
632.195	46.77
632.385	44.88
632.576	44.97
632.767	44.67
632.957	45.19
633.148	45.38
633.339	45.46
633.529	45.93
633.72	45.23
633.91	45.71
634.101	45.9
634.292	46.34
634.482	47.06
634.673	47.1
634.863	47.8
635.054	47.71
635.244	47.64
635.435	47.71
635.625	47.27
635.815	47.79
636.006	47.31
636.196	48.19
636.387	48.86
636.577	49.03
636.767	49.05
636.958	49.02
637.148	49.31
637.338	49.84
637.529	50.34
637.719	50.74
637.909	50.8
638.099	50.76
638.29	50.21
638.48	49.87
638.67	50.21
638.86	50.43
639.05	50.57
639.241	50.99
639.431	51.67
639.621	52.17
639.811	53.05
640.001	53.91
640.191	55.1
640.381	55.69
640.571	56.17
640.761	56.12
640.951	56.1
641.141	55.48
641.331	54.49
641.521	53.68
641.711	52.76
641.901	52.47
642.091	51.92
642.281	52.03
642.471	51.75
642.661	50.65
642.851	50.75
643.041	50.95
643.231	51.35
643.42	51.66
643.61	52.08
643.8	52.45
643.99	52.87
644.18	52.12
644.369	51.44
644.559	51.07
644.749	52.13
644.939	52.83
645.128	52.08
645.318	52.28
645.508	52.5
645.697	51.62
645.887	52.74
646.076	52.2
646.266	52.37
646.456	52.33
646.645	52.79
646.835	52.34
647.024	50.84
647.214	52.08
647.403	52.19
647.593	51.45
647.782	51.67
647.972	51.24
648.161	51.97
648.351	52.48
648.54	52.84
648.73	53.43
648.919	53.45
649.108	54.66
649.298	54.57
649.487	54.17
649.677	54.54
649.866	54.65
650.055	53.92
650.244	53.37
650.434	52.98
650.623	52.7
650.812	52.46
651.002	52.6
651.191	52.61
651.38	52.17
651.569	52.43
651.758	52.49
651.947	52.66
652.137	52.48
652.326	53.18
652.515	53.54
652.704	53.66
652.893	53.7
653.082	54.06
653.271	53.81
653.46	53.7
653.649	53.18
653.838	53.97
654.027	53.98
654.216	55.03
654.405	53.97
654.594	53.86
654.783	54.43
654.972	53.69
655.161	53.49
655.35	53.57
655.539	54.25
655.728	54.85
655.916	53.81
656.105	52.76
656.294	52.32
656.483	52.53
656.672	52.39
656.86	51.93
657.049	52.07
657.238	51.47
657.427	51.57
657.615	50.94
657.804	50.07
657.993	50.31
658.181	51.09
658.37	50.69
658.559	50.57
658.747	50.51
658.936	50.07
659.125	50.39
659.313	50.33
659.502	49.98
659.69	50.91
659.879	51.77
660.067	51.81
660.256	52.07
660.444	52.77
660.633	53.6
660.821	54.21
661.01	55.07
661.198	54.86
661.387	55.87
661.575	56.65
661.763	56.29
661.952	56.71
662.14	57.96
662.328	58.05
662.517	58.76
662.705	58.57
662.893	58.63
663.082	59.07
663.27	58.92
663.458	58.88
663.646	59.67
663.834	59.9
664.023	59.52
664.211	58.96
664.399	59.18
664.587	59.79
664.775	59.99
664.963	60.31
665.152	59.74
665.34	60.2
665.528	60.22
665.716	59.95
665.904	59.45
666.092	59.58
666.28	59.63
666.468	59.09
666.656	58.52
666.844	58.29
667.032	59.16
667.22	59.14
667.408	59.53
667.596	59.41
667.784	58.81
667.971	58.46
668.159	59.09
668.347	59.42
668.535	59.39
668.723	59.58
668.911	59.31
669.098	59.14
669.286	58.86
669.474	58.39
669.662	59.18
669.849	58.72
670.037	59.94
670.225	59.34
670.413	59.15
670.6	59.86
670.788	59.07
670.976	58.98
671.163	57.85
671.351	57.38
671.538	58.34
671.726	57.36
671.913	57.68
672.101	56.99
672.289	57.36
672.476	57.5
672.664	57.24
672.851	57.42
673.039	57.18
673.226	57.19
673.413	58.7
673.601	57.2
673.788	56.85
673.976	57.07
674.163	57.88
674.35	57.95
674.538	57.82
674.725	58.61
674.912	58.02
675.1	58.38
675.287	58.76
675.474	58.04
675.662	57.43
675.849	57.71
676.036	57.62
676.223	56.73
676.411	56.74
676.598	56.39
676.785	56.77
676.972	57.19
677.159	56.61
677.346	56.9
677.533	56.4
677.721	57.18
677.908	57.49
678.095	57.28
678.282	57.67
678.469	57.79
678.656	57.9
678.843	55.76
679.03	55.1
679.217	55.38
679.404	54.41
679.591	54.81
679.778	54.6
679.964	54.11
680.151	53.86
680.338	54.17
680.525	53.84
680.712	53.42
680.899	54.56
681.086	54.7
681.272	55.39
681.459	55.78
681.646	56.17
681.833	56.86
682.02	57.91
682.206	58.3
682.393	58.73
682.58	59.32
682.766	59.96
682.953	60.08
683.14	61.2
683.326	60.3
683.513	59.54
683.7	58.67
683.886	58.06
684.073	58.25
684.259	59.12
684.446	58.78
684.632	58.58
684.819	58.33
685.005	58.32
685.192	58.66
685.378	59.23
685.565	61.28
685.751	62.17
685.938	62.28
686.124	60.81
686.31	61.06
686.497	60.2
686.683	61.11
686.87	61.52
687.056	62.4
687.242	62.52
687.429	63.03
687.615	61.91
687.801	62.35
687.987	63.4
688.174	64.23
688.36	63.61
688.546	63.2
688.732	62.47
688.918	61.44
689.105	60.61
689.291	60.32
689.477	60.53
689.663	61.82
689.849	62.58
690.035	62.9
690.221	62.62
690.407	62.55
690.593	64.19
690.779	63.64
690.965	64.45
691.151	64.53
691.337	64.43
691.523	64.34
691.709	63.87
691.895	63.02
692.081	62.69
692.267	64.08
692.453	64.26
692.639	66.16
692.825	66.93
693.011	66.93
693.196	67.41
693.382	67.79
693.568	68.3
693.754	68.39
693.94	67.94
694.125	67.41
694.311	66.49
694.497	66.55
694.682	63.99
694.868	64.8
695.054	64.88
695.239	63.4
695.425	62.33
695.611	61.63
695.796	61.07
695.982	60.15
696.168	59.89
696.353	59.72
696.539	58.95
696.724	57.79
696.91	56.27
697.095	55.83
697.281	56.19
697.466	55.47
697.652	53.89
697.837	53.69
698.023	53.54
698.208	52.91
698.393	51.88
698.579	52
698.764	52.5
698.949	53.11
699.135	52.8
699.32	52.89
699.505	53.6
699.691	55.5
699.876	56.53
700.061	56.72
700.246	58.06
700.432	60.31
700.617	61.04
700.802	61.94
700.987	62.33
701.172	61.55
701.358	62.77
701.543	64.31
701.728	64.83
701.913	63.23
702.098	63.99
702.283	66.03
702.468	65.8
702.653	66.23
702.838	66.3
703.023	67.25
703.208	69.93
703.393	70.16
703.578	71.09
703.763	71.5
703.948	73.23
704.133	73.26
704.318	72.92
704.503	72.69
704.688	71.77
704.873	70.85
705.057	69.81
705.242	69.86
705.427	68.58
705.612	67.19
705.797	67.04
705.981	66.57
706.166	66.6
706.351	64.92
706.536	64.77
706.72	65.84
706.905	67.54
707.09	67.3
707.274	66.93
707.459	66.88
707.644	68.02
707.828	67.02
708.013	64.79
708.197	65.78
708.382	66.16
708.567	65.97
708.751	65.4
708.936	63.95
709.12	65.7
709.305	67.26
709.489	68.4
709.673	67.89
709.858	68.16
710.042	70.69
710.227	68.63
710.411	67.63
710.596	67.34
710.78	67.02
710.964	66.94
711.149	63.83
711.333	62.42
711.517	62.59
711.702	61.96
711.886	63.04
712.07	62.73
712.254	64.35
712.438	64.87
712.623	66.5
712.807	66.15
712.991	65.87
713.175	68.03
713.359	67.73
713.544	66.53
713.728	67.33
713.912	65.99
714.096	65.31
714.28	65.66
714.464	66.64
714.648	65.73
714.832	66.95
715.016	68.03
715.2	67.2
715.384	67.39
715.568	67.62
715.752	67.23
715.936	68.65
716.12	68.98
716.304	67.93
716.488	68.47
716.671	68.35
716.855	67.74
717.039	67.78
717.223	68.72
717.407	69.12
717.59	70.59
717.774	71.11
717.958	69.49
718.142	69.35
718.325	71.01
718.509	71.06
718.693	73.11
718.877	73.61
719.06	72.9
719.244	73.01
719.428	73.68
719.611	73.53
719.795	73.31
719.978	75.27
720.162	77.18
720.345	76.71
720.529	77.92
720.713	76.32
720.896	77.33
721.08	78.7
721.263	77.04
721.446	78.45
721.63	79.1
721.813	79.31
721.997	78.21
722.18	79.67
722.364	79.83
722.547	77.97
722.73	78.7
722.914	78.65
723.097	77.78
723.28	78.77
723.464	76.7
723.647	76.31
723.83	75.25
724.013	75
724.197	71.78
724.38	73.93
724.563	73.44
724.746	73.24
724.929	70.54
725.112	71.27
725.296	71.1
725.479	72.69
725.662	71.41
725.845	72.75
726.028	73.97
726.211	75.24
726.394	73.67
726.577	73.88
726.76	73.22
726.943	74.1
727.126	74.4
727.309	73.41
727.492	72.43
727.675	72.44
727.858	72.23
728.041	72.15
728.224	72.88
728.407	74.17
728.589	73.69
728.772	74.37
728.955	74.89
729.138	73.55
729.321	74.71
729.503	75.6
729.686	75.36
729.869	74.92
730.052	75.17
730.234	74.17
730.417	73.75
730.6	72.6
730.782	73.23
730.965	73.71
731.148	76.85
731.33	76.92
731.513	76.42
731.695	77.81
731.878	77.96
732.061	77.69
732.243	77.79
732.426	76.32
732.608	78.24
732.791	77.45
732.973	77.53
733.156	76.39
733.338	77.02
733.52	76.14
733.703	75.9
733.885	75.29
734.068	75.38
734.25	75.56
734.432	75.35
734.615	74.7
734.797	76.38
734.979	76.13
735.162	74.12
735.344	74.36
735.526	77.08
735.708	77.18
735.891	78.55
736.073	77.42
736.255	77.91
736.437	78.16
736.619	81.44
736.802	78.2
736.984	77.59
737.166	77.58
737.348	76.94
737.53	75.51
737.712	75.3
737.894	74.41
738.076	76.05
738.258	74.85
738.44	76.32
738.622	74.08
738.804	76.94
738.986	78.48
739.168	80.1
739.35	80.62
739.532	81.07
739.714	80.82
739.896	81.58
740.078	81.87
740.259	83.15
740.441	80.94
740.623	81.8
740.805	81.51
740.987	81.37
741.168	77.93
741.35	78.2
741.532	79.15
741.714	79.62
741.895	79.55
742.077	77.03
742.259	78.73
742.44	80.2
742.622	78.48
742.804	76.85
742.985	76.77
743.167	81.71
743.348	82.68
743.53	82.2
743.711	82.3
743.893	82.11
744.075	84.06
744.256	82.69
744.438	84.87
744.619	87.84
744.8	87.04
744.982	89.22
745.163	88.71
745.345	89.05
745.526	88.97
745.707	89.63
745.889	90.58
746.07	88.96
746.252	90.85
746.433	88.25
746.614	88.38
746.795	91.68
746.977	91.7
747.158	90.37
747.339	87.15
747.52	86.85
747.702	85.75
747.883	85.94
748.064	86.64
748.245	86.1
748.426	87.05
748.607	85.1
748.788	82.78
748.97	81.82
749.151	83.52
749.332	86.12
749.513	86.84
749.694	89.89
749.875	89.56
750.056	90.21
750.237	89.55
750.418	89.68
750.599	88.06
750.78	86.68
750.96	85.42
751.141	83.02
751.322	84.04
751.503	82.68
751.684	80.78
751.865	80.56
752.046	80.34
752.226	80.15
752.407	80.38
752.588	82.73
752.769	84.63
752.949	84.08
753.13	85.08
753.311	82.9
753.492	83.05
753.672	83.28
753.853	85.06
754.034	85.69
754.214	84.02
754.395	83.11
754.575	82.91
754.756	83.66
754.937	85.69
755.117	84.5
755.298	85.33
755.478	84.47
755.659	84.58
755.839	84.72
756.02	83.52
756.2	85.85
756.381	86.57
756.561	85.67
756.741	85
756.922	82.31
757.102	85.13
757.283	87.38
757.463	88.89
757.643	87.47
757.823	86.96
758.004	87.32
758.184	85.56
758.364	86.48
758.545	87.48
758.725	89.22
758.905	90.53
759.085	88.19
759.265	85.84
759.446	85.74
759.626	85.61
759.806	84.11
759.986	83.69
760.166	83.6
760.346	82.57
760.526	81.56
760.706	79.39
760.886	79.03
761.066	80.42
761.246	80.1
761.426	78.22
761.606	76.47
761.786	74.06
761.966	73.75
762.146	72.78
762.326	70.68
762.506	70.43
762.686	70.03
762.866	68.32
763.046	65.77
763.225	64.82
763.405	65.17
763.585	66.06
763.765	67.78
763.945	66.38
764.124	67.09
764.304	68.8
764.484	67.89
764.664	67.77
764.843	66.88
765.023	68.74
765.203	70.5
765.382	71.19
765.562	72.37
765.741	74.31
765.921	77.96
766.101	78.9
766.28	78.99
766.46	80.41
766.639	84.07
766.819	88.74
766.998	86.23
767.178	87.28
767.357	89.7
767.537	91.03
767.716	89.52
767.896	88.12
768.075	88.4
768.254	89.2
768.434	86.8
768.613	87.77
768.792	86.42
768.972	90.12
769.151	89.36
769.33	87.06
769.51	89.12
769.689	89.76
769.868	88.75
770.047	88.2
770.226	89.99
770.406	95.48
770.585	93.41
770.764	94.48
770.943	94.74
771.122	97.07
771.301	98.57
771.48	96.3
771.66	95.25
771.839	97.98
772.018	103.23
772.197	102.63
772.376	101.93
772.555	101.25
772.734	104.46
772.913	106.89
773.092	103.24
773.271	103.06
773.449	106.45
773.628	108.18
773.807	108.28
773.986	102.85
774.165	103.28
774.344	105.45
774.523	108.41
774.701	106.01
774.88	106.42
775.059	107.86
775.238	107.43
775.417	105.84
775.595	107.23
775.774	108.75
775.953	114.41
776.131	110.01
776.31	104.56
776.489	102.33
776.667	102.33
776.846	100.28
777.025	100.61
777.203	98.93
777.382	98.44
777.56	96.19
777.739	94.64
777.917	90.28
778.096	94.38
778.274	94.59
778.453	94.32
778.631	94.4
778.81	93.45
778.988	92.72
779.166	95.38
779.345	93.69
779.523	96.38
779.702	98.6
779.88	100.24
780.058	96.34
780.237	95.05
780.415	95.46
780.593	95.85
780.771	98.64
780.95	100.36
781.128	100.35
781.306	103.68
781.484	102.52
781.662	103.74
781.841	103.37
782.019	108.67
782.197	111.87
782.375	107.56
782.553	111.64
782.731	111.3
782.909	110.11
783.087	107.1
783.265	104.08
783.443	103.55
783.621	99.11
783.799	100.8
783.977	98.15
784.155	103.03
784.333	107.09
784.511	97.49
784.689	94.84
784.867	94.31
785.045	98.73
785.223	96.59
785.4	100.36
785.578	102.63
785.756	100.65
785.934	98.07
786.112	94.02
786.289	92.25
786.467	94.61
786.645	94.95
786.823	94.64
787	92.43
787.178	94.03
787.356	93.49
787.533	89.97
787.711	88.15
787.889	90.35
788.066	89.07
788.244	90.25
788.421	93.43
788.599	93.61
788.776	90.14
788.954	86.92
789.131	89.78
789.309	82.59
789.486	84.38
789.664	87.17
789.841	89.32
790.019	94.4
790.196	92.17
790.373	94.75
790.551	90.22
790.728	95.31
790.906	100.19
791.083	98.02
791.26	108.26
791.437	110.6
791.615	108.68
791.792	107.31
791.969	105.58
792.146	104.3
792.324	102.9
792.501	107.68
792.678	106.11
792.855	106.52
793.032	105.04
793.209	100.53
793.387	101.55
793.564	103.63
793.741	104.21
793.918	110.02
794.095	115.23
794.272	115.83
794.449	114.55
794.626	113.21
794.803	110.07
794.98	109.26
795.157	107.95
795.334	107.71
795.511	107
795.688	101.91
795.864	95.53
796.041	93.3
796.218	92.12
796.395	92.42
796.572	92.72
796.749	98.09
796.925	95.89
797.102	95.92
797.279	91.34
797.456	90.25
797.632	94.59
797.809	92.51
797.986	93.35
798.162	91.51
798.339	94.37
798.516	96.46
798.692	89.14
798.869	91.89
799.046	92.7
799.222	93.84
799.399	94.06
799.575	91.35
799.752	92.16
799.928	97.1
800.105	98.55
800.281	95
800.458	95.86
800.634	95.81
800.811	97.88
800.987	98.95
801.163	100.93
801.34	104.65
801.516	106.24
801.692	111.33
801.869	103.72
802.045	104.19
802.221	104.98
802.398	101.04
802.574	102.49
802.75	103.02
802.926	102.73
803.103	102.97
803.279	99.17
803.455	98.25
803.631	90.7
803.807	91.44
803.983	90.61
804.16	89.01
804.336	87.32
804.512	92.31
804.688	92.33
804.864	93.23
805.04	95.27
805.216	94.06
805.392	94.18
805.568	96.18
805.744	97.9
805.92	100.37
806.096	102.21
806.272	107.45
806.448	98.46
806.623	92.93
806.799	85.66
806.975	82.73
807.151	82.43
807.327	84.07
807.503	79.45
807.678	79.99
807.854	81.64
808.03	79.16
808.206	80.77
808.381	88.3
808.557	90.26
808.733	93.63
808.908	94.55
809.084	96.09
809.26	98.5
809.435	105.63
809.611	103.65
809.787	103.82
809.962	106.52
810.138	104.5
810.313	100.22
810.489	100.19
810.664	101.56
810.84	103.87
811.015	102.59
811.191	100.39
811.366	100.17
811.542	101.94
811.717	99.8
811.892	99.57
812.068	98.66
812.243	96.17
812.419	98.23
812.594	98.36
812.769	91.21
812.944	90.88
813.12	92.14
813.295	90.07
813.47	93.26
813.645	95.22
813.821	97.23
813.996	98.01
814.171	104.56
814.346	99.91
814.521	101.49
814.697	103.14
814.872	106.4
815.047	104.25
815.222	104.94
815.397	97.71
815.572	93.74
815.747	90.69
815.922	88.73
816.097	88.32
816.272	90.63
816.447	86.64
816.622	87.05
816.797	81.8
816.972	80.29
817.147	80.53
817.322	82.33
817.496	83.33
817.671	84.18
817.846	82.91
818.021	81.03
818.196	80.15
818.371	78.66
818.545	79.58
818.72	82.13
818.895	82.36
819.069	79.51
819.244	79.2
819.419	76.73
819.594	73.35
819.768	69.68
819.943	65.24
820.117	60.37
820.292	57.59
820.467	52.87
820.641	50.6
820.816	47.96
820.99	46.31
821.165	44.65
821.339	42.78
821.514	41.4
821.688	40.46
821.863	40.04
822.037	40.17
822.212	39.89
822.386	39.97
822.56	40.02
822.735	39.83
822.909	39.98
823.084	39.57
823.258	39.79
823.432	40.49
823.606	41.59
823.781	40.9
823.955	39.86
824.129	40.85
824.303	41.53
824.478	41.88
824.652	41.64
824.826	41.12
825	41.59
825.174	42.61
825.348	43.07
825.523	43.24
825.697	44.35
825.871	46.15
826.045	45.57
826.219	46.74
826.393	46
826.567	46.91
826.741	49.26
826.915	48.87
827.089	49.81
827.263	49.17
827.437	48.67
827.611	50.22
827.784	52.32
827.958	53.69
828.132	51.97
828.306	53.66
828.48	54.21
828.654	55.43
828.827	59.92
829.001	60.28
829.175	63.28
829.349	65.5
829.522	65.91
829.696	65.66
829.87	68.39
830.044	75.17
830.217	78.4
830.391	79.34
830.565	74.21
830.738	73.08
830.912	74.89
831.085	75.22
831.259	75.44
831.432	75.7
831.606	74.62
831.779	68.42
831.953	61.98
832.126	60.63
832.3	60.49
832.473	62.73
832.647	60.74
832.82	57.66
832.994	55.5
833.167	57.12
833.34	53.36
833.514	52.8
833.687	53.74
833.86	55.26
834.034	56.08
834.207	60.84
834.38	58.94
834.553	58.75
834.727	60.93
834.9	63.24
835.073	60.14
835.246	60.6
835.419	60.84
835.593	62.57
835.766	65.75
835.939	63.95
836.112	63.15
836.285	64.91
836.458	66.03
836.631	66.31
836.804	70.15
836.977	72.73
837.15	77.79
837.323	80.24
837.496	86.13
837.669	81.77
837.842	86.4
838.015	82.1
838.188	80.99
838.361	82.49
838.533	78.15
838.706	72.17
838.879	72.61
839.052	77.04
839.225	77.85
839.398	72.65
839.57	74.42
839.743	74.72
839.916	74.67
840.088	74.79
840.261	76.76
840.434	82.6
840.607	80.67
840.779	84.29
840.952	81.73
841.124	85.25
841.297	90.95
841.47	90.18
841.642	95.2
841.815	96.27
841.987	95.34
842.16	94.73
842.332	99.15
842.505	103.84
842.677	100.21
842.85	104.84
843.022	101.85
843.194	102.23
843.367	107.34
843.539	103.68
843.712	107.27
843.884	116.31
844.056	116.45
844.229	112.53
844.401	122.89
844.573	130.94
844.745	117.78
844.918	118.3
845.09	116.53
845.262	118.01
845.434	119.78
845.606	129.14
845.779	122.78
845.951	125.06
846.123	126.5
846.295	118.21
846.467	126.93
846.639	135.08
846.811	131.5
846.983	132.18
847.155	128.86
847.327	119.89
847.499	109.97
847.671	108.84
847.843	106.34
848.015	107.68
848.187	109.36
848.359	103.29
848.531	100
848.703	91.47
848.875	98.49
849.047	99.71
849.218	104.82
849.39	107.06
849.562	115.8
849.734	116.58
849.905	108.97
850.077	103.28
850.249	103.81
850.421	108.14
850.592	121.2
850.764	119.01
850.936	107.44
851.107	113.09
851.279	110.65
851.451	106.77
851.622	102.1
851.794	109.77
851.965	105.98
852.137	105.79
852.308	114.29
852.48	115.33
852.651	106.16
852.823	115.45
852.994	108.94
853.166	104.65
853.337	109.29
853.509	104.66
853.68	111.38
853.851	109.92
854.023	111.74
854.194	104.95
854.365	101.46
854.537	102.7
854.708	108.44
854.879	107.83
855.05	112.78
855.222	110.13
855.393	113.26
855.564	97
855.735	105.82
855.906	101.04
856.078	107.27
856.249	109.74
856.42	112.3
856.591	110.54
856.762	119.3
856.933	122.77
857.104	116.16
857.275	121.44
857.446	133.98
857.617	126.88
857.788	122.33
857.959	105
858.13	107.54
858.301	103.58
858.472	93.13
858.643	98.34
858.814	95.95
858.985	107.65
859.155	121.87
859.326	119.8
859.497	119.94
859.668	126.73
859.839	139.31
860.009	127.81
860.18	144.05
860.351	153.39
860.522	135.05
860.692	134.03
860.863	131.66
861.034	129.1
861.204	128.78
861.375	139.46
861.546	134.29
861.716	129.04
861.887	135.99
862.057	122.01
862.228	130.55
862.398	116.23
862.569	108.06
862.739	101.24
862.91	98.41
863.08	86.54
863.251	74.05
863.421	64.13
863.592	71.72
863.762	65.88
863.932	69.43
864.103	68.5
864.273	77.96
864.443	77.5
864.614	80.14
864.784	84.13
864.954	100.1
865.125	107.28
865.295	119.66
865.465	113.29
865.635	114.53
865.805	102.25
865.976	100.82
866.146	98.45
866.316	97.83
866.486	98.14
866.656	93.46
866.826	97.28
866.996	95.94
867.166	100.74
867.336	91.94
867.506	103.26
867.676	106.23
867.846	105.83
868.016	120.29
868.186	118.89
868.356	115.15
868.526	114.23
868.696	106.08
868.866	103.21
869.036	105.23
869.206	128.06
869.376	110.65
869.545	104.75
869.715	98.76
869.885	75.98
870.055	90.7
870.224	107.37
870.394	100.55
870.564	97.1
870.734	98.44
870.903	98.56
871.073	95.33
871.243	94.58
871.412	104.6
871.582	98.87
871.751	95.52
871.921	93.62
872.091	76.86
872.26	79.7
872.43	92.57
872.599	102.73
872.769	104.44
872.938	106.65
873.108	117.76
873.277	129.9
873.446	160.53
873.616	198.31
873.785	182.57
873.955	146.63
874.124	138.14
874.293	122.2
874.463	114.71
874.632	102.44
874.801	99.49
874.971	89.49
875.14	68.81
875.309	57.5
875.478	55.92
875.647	66.32
875.817	72.15
875.986	78.44
876.155	79.18
876.324	69.97
876.493	67.61
876.662	63.16
876.831	54.55
877	62.4
877.17	69.4
877.339	67.4
877.508	65.75
877.677	71.29
877.846	63.16
878.015	61.9
878.184	68.23
878.352	76.4
878.521	72.72
878.69	76.54
878.859	78.17
879.028	82.3
879.197	83.78
879.366	75.25
879.534	69.43
879.703	64.24
879.872	61.82
880.041	57.28
880.21	49.85
880.378	49.38
880.547	50.36
880.716	46.52
880.884	45
881.053	41.8
881.222	41.53
881.39	42.39
881.559	43.19
881.727	42.31
881.896	41.44
882.065	44.04
882.233	43.3
882.402	42.37
882.57	41.11
882.739	37.38
882.907	36.65
883.076	36.76
883.244	35.34
883.412	36.42
883.581	35.09
883.749	36.83
883.918	34.73
884.086	31.97
884.254	30
884.423	32.36
884.591	38.26
884.759	37.85
884.927	39.38
885.096	41.24
885.264	37.63
885.432	40.64
885.6	42.49
885.769	46.24
885.937	53.72
886.105	59.82
886.273	55.22
886.441	56.5
886.609	62.8
886.777	60.61
886.945	62.32
887.113	64.4
887.281	66.52
887.449	61.65
887.617	50.63
887.785	52.35
887.953	56.04
888.121	65.76
888.289	62.79
888.457	58.48
888.625	61.87
888.793	61.69
888.961	71.14
889.129	72.99
889.296	82.77
889.464	89.73
889.632	91.04
889.8	95.49
889.967	93.55
890.135	90.06
