Data from JASIL_3080_Reflection_04.txt Node
Date: Mon Nov 09 11:57:23 EST 2015
User: Geneva
Spectrometer: USB4E03002
Autoset integration time: false
Trigger mode: 4
Integration Time (sec): 1.000000E-1
Scans to average: 10
Electric dark correction enabled: false
Nonlinearity correction enabled: false
Boxcar width: 5
Stray light correction enabled: false
XAxis mode: Wavelengths
Stop averaging: false
Number of Pixels in Spectrum: 3648
>>>>>Begin Spectral Data<<<<<
177.575	97.64
177.794	-1057.89
178.014	442.86
178.233	190.75
178.452	281.16
178.672	228.34
178.891	179.54
179.11	364.58
179.33	239.11
179.549	181.02
179.768	292.19
179.987	181.32
180.207	129.55
180.426	152.74
180.645	196.25
180.864	159.06
181.084	194.98
181.303	246.92
181.522	220.93
181.741	3072.73
181.96	-240.79
182.179	-355.38
182.398	-72.05
182.618	-23.31
182.837	-73.53
183.056	-68.25
183.275	-561.11
183.494	139.13
183.713	2550
183.932	690.91
184.151	56.86
184.37	32.39
184.589	38.12
184.808	32.93
185.027	24.35
185.246	27.77
185.465	46.94
185.684	44.28
185.903	29.79
186.122	152.83
186.341	279.07
186.56	494.74
186.779	-75.35
186.998	-292.13
187.216	-948
187.435	-226.09
187.654	3085.71
187.873	443.14
188.092	255
188.311	204.55
188.53	151.67
188.748	126.42
188.967	153.06
189.186	143.53
189.405	116.59
189.623	151.4
189.842	141.79
190.061	280.54
190.28	336.41
190.498	1230.3
190.717	540.6
190.936	298.33
191.154	203.15
191.373	173.04
191.592	165.73
191.81	387.36
192.029	129.23
192.248	111.32
192.466	68.8
192.685	61.5
192.904	41.13
193.122	45.83
193.341	64.94
193.559	80.03
193.778	113.66
193.996	168.71
194.215	178.03
194.433	246.61
194.652	221.21
194.87	213.69
195.089	271.31
195.307	550.52
195.526	840.74
195.744	1585.71
195.963	425.87
196.181	554.84
196.399	200.75
196.618	215.1
196.836	170.18
197.055	189.83
197.273	223.79
197.491	180.25
197.71	162.15
197.928	175.2
198.146	193.37
198.365	210.39
198.583	205.16
198.801	201.09
199.019	218.29
199.238	635.19
199.456	738.53
199.674	1922.92
199.892	-7481.82
200.111	-932.47
200.329	32466.67
200.547	518.75
200.765	308.82
200.983	303.31
201.202	331.14
201.42	241.95
201.638	184.14
201.856	140.55
202.074	104.57
202.292	106.49
202.51	98.17
202.728	62.35
202.946	59.92
203.165	65.81
203.383	71.21
203.601	49.86
203.819	39.34
204.037	10.47
204.255	47.06
204.473	70.44
204.691	101.97
204.909	128.08
205.127	110
205.345	112.93
205.562	129.68
205.78	99.02
205.998	111.84
206.216	191.61
206.434	156.63
206.652	95.21
206.87	103.18
207.088	72.11
207.306	48.87
207.523	74.46
207.741	103.62
207.959	384.85
208.177	-126.56
208.395	443.75
208.612	-533.33
208.83	254.88
209.048	350.49
209.266	11800
209.483	-451.14
209.701	-181.1
209.919	-126.3
210.136	-178.44
210.354	811.29
210.572	1254.9
210.79	-450.43
211.007	-720.31
211.225	-210.1
211.442	-104.62
211.66	-146.12
211.878	-115.87
212.095	-677.42
212.313	612.82
212.53	1996.97
212.748	-671.11
212.966	-1471.43
213.183	4450
213.401	-355.94
213.618	-145.7
213.836	-153.27
214.053	-240.6
214.271	-826.92
214.488	-88.79
214.705	-35.54
214.923	-2.08
215.14	-44.78
215.358	-0.3
215.575	-7.14
215.793	-21.72
216.01	-91.6
216.227	-90.73
216.445	-19.67
216.662	-54.59
216.879	-195.51
217.097	-160.4
217.314	-290.18
217.531	484.09
217.749	1175
217.966	-2440
218.183	45200
218.4	-423.15
218.618	561.76
218.835	-1517.65
219.052	-182.27
219.269	-146.73
219.487	-209.09
219.704	-1528
219.921	-563.64
220.138	492.98
220.355	1100
220.572	275.12
220.79	203.76
221.007	251.2
221.224	204.8
221.441	171.82
221.658	147.61
221.875	132.35
222.092	148.19
222.309	181.23
222.526	140.76
222.743	109.73
222.96	102.77
223.177	79.77
223.394	55.61
223.611	62.62
223.828	71.46
224.045	70.82
224.262	63.16
224.479	56.21
224.696	28.69
224.913	38.72
225.13	26.22
225.347	28.13
225.564	25.06
225.781	30.64
225.997	34.37
226.214	34.56
226.431	39.55
226.648	38.51
226.865	35.45
227.082	44.49
227.298	39.9
227.515	44.74
227.732	45.03
227.949	44.87
228.165	40.26
228.382	41.36
228.599	42.54
228.816	40.26
229.032	42.66
229.249	47
229.466	44.39
229.682	47.23
229.899	38.71
230.116	41.18
230.332	34.86
230.549	36.48
230.765	35.27
230.982	34.43
231.199	48.77
231.415	45.05
231.632	48.37
231.848	46.52
232.065	40.35
232.281	48.01
232.498	35.64
232.714	41.01
232.931	43.9
233.147	32.9
233.364	39.48
233.58	24.98
233.797	22.87
234.013	18.18
234.23	13.51
234.446	22.78
234.662	23.03
234.879	22.83
235.095	16.49
235.312	9.52
235.528	19.43
235.744	8.85
235.961	2.23
236.177	15.22
236.393	21.13
236.61	23.55
236.826	14.62
237.042	11.54
237.258	20.58
237.475	32.97
237.691	43.05
237.907	40.98
238.123	35.37
238.339	36.41
238.556	22.51
238.772	12.43
238.988	8.1
239.204	7.69
239.42	10.27
239.636	14.48
239.853	10.59
240.069	11.85
240.285	11.07
240.501	14.45
240.717	14.87
240.933	14.41
241.149	11.02
241.365	13.48
241.581	11.11
241.797	11.24
242.013	7.32
242.229	8.14
242.445	4.5
242.661	3.15
242.877	1.27
243.093	3.6
243.309	6.3
243.525	13.67
243.741	14.3
243.957	15.08
244.173	14.3
244.388	19.63
244.604	14.4
244.82	13.7
245.036	15.05
245.252	13.87
245.468	11.92
245.683	10.38
245.899	10.65
246.115	9.07
246.331	11.3
246.547	10.79
246.762	9.47
246.978	10.01
247.194	9.13
247.409	7.69
247.625	9.75
247.841	10.07
248.057	10.53
248.272	10.33
248.488	7.91
248.703	1.65
248.919	5.56
249.135	6.6
249.35	6.26
249.566	17.84
249.782	17.46
249.997	12.16
250.213	9.13
250.428	10.29
250.644	11.63
250.859	15.61
251.075	16.84
251.29	16.13
251.506	12.53
251.721	17.15
251.937	13.09
252.152	16.13
252.368	17.97
252.583	21.73
252.798	26.41
253.014	27.78
253.229	24.17
253.445	26.45
253.66	16.73
253.875	19.66
254.091	19.62
254.306	21.11
254.521	15.46
254.737	13.67
254.952	12.49
255.167	8.12
255.383	10.38
255.598	17.39
255.813	18.94
256.028	23.78
256.244	21.72
256.459	18.45
256.674	12.29
256.889	12.66
257.104	17.2
257.32	17.09
257.535	13.25
257.75	9.9
257.965	8.42
258.18	8.45
258.395	9.2
258.61	10.12
258.826	10.21
259.041	10.27
259.256	9.32
259.471	6.76
259.686	6.71
259.901	11.28
260.116	10.7
260.331	10.56
260.546	9.35
260.761	9.29
260.976	7.78
261.191	7.46
261.406	11.83
261.621	16
261.836	18.57
262.05	14.44
262.265	11.72
262.48	15.06
262.695	13.94
262.91	17.47
263.125	20.23
263.34	20.96
263.555	21.41
263.769	19.5
263.984	19.03
264.199	17.66
264.414	22.19
264.629	19.88
264.843	20.66
265.058	20.63
265.273	18.81
265.488	19.83
265.702	18.83
265.917	19.1
266.132	17.17
266.346	15.54
266.561	16.6
266.776	17.47
266.99	16.04
267.205	14.93
267.42	15.54
267.634	12.24
267.849	9.82
268.063	6.01
268.278	3.15
268.492	4.08
268.707	5.73
268.922	6.32
269.136	0.96
269.351	3.6
269.565	7.64
269.78	9.49
269.994	11.18
270.209	11.98
270.423	16.42
270.637	17.19
270.852	14.38
271.066	14.96
271.281	15.5
271.495	17.82
271.709	15.31
271.924	11.92
272.138	10.46
272.353	11.07
272.567	10.03
272.781	9.74
272.996	11.33
273.21	16.99
273.424	14.31
273.638	13.52
273.853	10.62
274.067	14.7
274.281	14.12
274.495	14.68
274.71	15.65
274.924	14.44
275.138	14.11
275.352	7.12
275.566	4.37
275.781	4.24
275.995	3.6
276.209	7.91
276.423	9.23
276.637	11.75
276.851	9.23
277.065	9.84
277.279	7.98
277.493	7.58
277.707	12.3
277.921	11.95
278.135	13.77
278.349	13.53
278.563	11.42
278.777	11.18
278.991	9.68
279.205	10.18
279.419	5.5
279.633	6.42
279.847	5.67
280.061	8.04
280.275	9.66
280.489	10.16
280.703	9.43
280.917	12.46
281.131	10.01
281.344	9.66
281.558	7.73
281.772	8.52
281.986	10
282.2	7.18
282.414	4
282.627	1.23
282.841	-2
283.055	-2.11
283.269	-3.07
283.482	-1.34
283.696	-1.42
283.91	2.3
284.123	2.37
284.337	1.48
284.551	2.38
284.764	1.76
284.978	3.23
285.192	3.33
285.405	4.83
285.619	1.72
285.833	1.14
286.046	4.52
286.26	2.61
286.473	3.26
286.687	2.86
286.9	7.64
287.114	6.84
287.327	5.65
287.541	5.32
287.754	4.71
287.968	4.82
288.181	4.23
288.395	2.95
288.608	4.46
288.822	4.51
289.035	3.77
289.248	0.61
289.462	1.73
289.675	3.92
289.889	5
290.102	3.62
290.315	7.64
290.529	5.6
290.742	3.58
290.955	4.18
291.169	6.18
291.382	8.47
291.595	8.02
291.808	7.34
292.022	5.81
292.235	8.19
292.448	8.2
292.661	5.51
292.875	6.32
293.088	7.69
293.301	6.4
293.514	7.12
293.727	8.6
293.94	9.6
294.153	11.09
294.367	11.14
294.58	11.03
294.793	11.7
295.006	10.53
295.219	10.83
295.432	10.22
295.645	12.73
295.858	9.97
296.071	8.88
296.284	7.41
296.497	8.72
296.71	9.74
296.923	7.43
297.136	7.79
297.349	9.25
297.562	11.19
297.775	9.95
297.988	7.91
298.201	8.76
298.414	7.56
298.626	9.59
298.839	8.42
299.052	7.21
299.265	8.67
299.478	6.37
299.691	6.66
299.903	3.27
300.116	6.1
300.329	6.28
300.542	6
300.755	6.34
300.967	3.22
301.18	2.45
301.393	3.26
301.605	3.97
301.818	6.07
302.031	6.58
302.243	8.35
302.456	5.13
302.669	4.75
302.881	6.78
303.094	4.5
303.307	7.45
303.519	10.13
303.732	6.96
303.944	8.51
304.157	9.12
304.37	8.53
304.582	7.18
304.795	10.85
305.007	9.42
305.22	9.07
305.432	13.77
305.645	13.35
305.857	8.99
306.069	10.82
306.282	10.22
306.494	11.22
306.707	10.02
306.919	13.13
307.132	10.95
307.344	11.48
307.556	10.95
307.769	8.98
307.981	8.03
308.193	10.43
308.406	11.8
308.618	8.97
308.83	8.67
309.043	9.43
309.255	8.77
309.467	8.53
309.679	10.31
309.892	10.19
310.104	14.15
310.316	14.87
310.528	15.49
310.74	15.6
310.953	16.41
311.165	15.94
311.377	15.96
311.589	15.6
311.801	13.51
312.013	11.08
312.225	11.79
312.437	5.48
312.649	5.99
312.862	1.52
313.074	-3.41
313.286	-4.27
313.498	-3.39
313.71	-0.79
313.922	1.97
314.134	7.06
314.346	8.51
314.558	9.47
314.77	13.42
314.982	14.42
315.193	16.82
315.405	17.33
315.617	17.38
315.829	16.98
316.041	15.05
316.253	15.58
316.465	14.24
316.677	13.91
316.888	9.92
317.1	9.89
317.312	8.95
317.524	9.17
317.736	12.18
317.947	15.07
318.159	13.08
318.371	11.99
318.583	9.03
318.794	11.51
319.006	11.42
319.218	13.57
319.43	11.61
319.641	9.96
319.853	10.66
320.064	11.97
320.276	12.03
320.488	13.25
320.699	14.05
320.911	12.56
321.123	9.67
321.334	11.46
321.546	13.42
321.757	13.31
321.969	13.28
322.18	12.99
322.392	12.98
322.603	12.32
322.815	11.42
323.026	12.67
323.238	15.73
323.449	17.17
323.661	15.47
323.872	15.53
324.083	16.18
324.295	14.73
324.506	15.16
324.718	14.03
324.929	16.28
325.14	18.38
325.352	17.78
325.563	18.35
325.774	18.72
325.986	19.19
326.197	18.77
326.408	19.18
326.62	22.61
326.831	22.46
327.042	24.28
327.253	22.63
327.464	20.87
327.676	23.56
327.887	20.09
328.098	18.52
328.309	18.02
328.52	16.84
328.732	12.99
328.943	14.34
329.154	13.25
329.365	12.15
329.576	11.27
329.787	11.68
329.998	8.03
330.209	11.24
330.42	11.52
330.631	12.08
330.842	14.32
331.053	17.96
331.264	13.13
331.475	13.42
331.686	14.28
331.897	16.8
332.108	16.06
332.319	17.19
332.53	16.79
332.741	17.75
332.952	17.34
333.163	17.05
333.374	18.88
333.585	22.48
333.795	23.44
334.006	21.21
334.217	20.14
334.428	21.25
334.639	19.19
334.849	18.47
335.06	16.79
335.271	17.58
335.482	13.99
335.692	12.48
335.903	12.78
336.114	12.3
336.325	13.01
336.535	10.49
336.746	11.29
336.957	12.72
337.167	12.1
337.378	13.94
337.589	13.86
337.799	16.95
338.01	14.17
338.22	12.61
338.431	12.52
338.642	13.22
338.852	12.81
339.063	12.11
339.273	10.95
339.484	13.89
339.694	13.99
339.905	14.74
340.115	16.38
340.326	17.03
340.536	15.55
340.746	15.47
340.957	14.42
341.167	14.69
341.378	12.1
341.588	13.54
341.799	10.97
342.009	10.79
342.219	8.91
342.43	5.94
342.64	6.5
342.85	7.36
343.061	7.16
343.271	8.25
343.481	9.98
343.691	11.31
343.902	10.34
344.112	9.58
344.322	10.63
344.532	11.09
344.743	10.18
344.953	11.14
345.163	13.37
345.373	13.52
345.583	11.64
345.793	10.69
346.004	11.34
346.214	10.83
346.424	10.81
346.634	9.47
346.844	11.06
347.054	11.92
347.264	11.47
347.474	8.2
347.684	8.18
347.894	9.06
348.104	7.38
348.314	6.86
348.524	6.77
348.734	6.58
348.944	4.77
349.154	5.15
349.364	7.78
349.574	6.44
349.784	6.58
349.994	6.16
350.204	7.45
350.413	9.1
350.623	8.54
350.833	8.77
351.043	10.77
351.253	14.17
351.463	12.15
351.672	8.89
351.882	10
352.092	12.55
352.302	12.35
352.511	12.03
352.721	11.31
352.931	11.58
353.141	12.68
353.35	11.15
353.56	9
353.77	10.13
353.979	10.5
354.189	9.56
354.399	9.72
354.608	8.82
354.818	9.43
355.027	12.04
355.237	12.98
355.447	12.92
355.656	13.88
355.866	15.35
356.075	14.65
356.285	15.65
356.494	16.57
356.704	15.56
356.913	15.73
357.123	14.71
357.332	12.49
357.542	11.69
357.751	10.4
357.96	9.49
358.17	7.49
358.379	6.76
358.589	6.57
358.798	6
359.007	6.33
359.217	7.51
359.426	7.9
359.635	9.53
359.845	10.51
360.054	10.54
360.263	10.62
360.472	10.88
360.682	12.13
360.891	11.35
361.1	10.45
361.309	9.55
361.519	8.76
361.728	8.76
361.937	6.6
362.146	5.23
362.355	6.18
362.564	7.08
362.774	5.83
362.983	6.52
363.192	7.08
363.401	8.26
363.61	9.28
363.819	11.54
364.028	12.39
364.237	12.3
364.446	12.2
364.655	12.22
364.864	11.5
365.073	13.21
365.282	11.77
365.491	11.79
365.7	11.54
365.909	12.02
366.118	10.48
366.327	9.97
366.536	12.01
366.745	11.97
366.954	11.81
367.162	12.88
367.371	13.49
367.58	12.49
367.789	12.28
367.998	12.57
368.207	12.35
368.415	12.01
368.624	10.25
368.833	8.23
369.042	7.7
369.25	8.01
369.459	6.68
369.668	6.48
369.877	6.12
370.085	4.8
370.294	4.31
370.503	4.87
370.711	4.74
370.92	6.26
371.129	6.52
371.337	7.47
371.546	6.33
371.754	6.82
371.963	6.72
372.171	8.53
372.38	11
372.589	11.99
372.797	9.87
373.006	9.64
373.214	9.93
373.423	10.64
373.631	10.79
373.84	9.64
374.048	8.95
374.256	8.63
374.465	6.79
374.673	6.56
374.882	5.49
375.09	7.41
375.298	8.03
375.507	6.67
375.715	7.1
375.923	7.54
376.132	9.09
376.34	11.01
376.548	10.63
376.757	11.41
376.965	9.84
377.173	10.95
377.381	10.56
377.59	11.54
377.798	12.97
378.006	12.23
378.214	11.85
378.423	12.37
378.631	11.19
378.839	12.37
379.047	13.12
379.255	15.05
379.463	14.23
379.671	14.1
379.879	13.58
380.088	11.71
380.296	11.73
380.504	11.7
380.712	11.58
380.92	10.03
381.128	8.18
381.336	7.41
381.544	5.3
381.752	4.99
381.96	4.79
382.168	3.98
382.376	5.49
382.584	5.44
382.791	5.74
382.999	5.1
383.207	5.72
383.415	5.94
383.623	5.11
383.831	6.49
384.039	7.56
384.247	7.88
384.454	5.92
384.662	7.16
384.87	7.93
385.078	7.91
385.285	7.81
385.493	7.61
385.701	7.25
385.909	8.91
386.116	9.52
386.324	9.18
386.532	7.91
386.739	9.7
386.947	8.59
387.155	7.63
387.362	8.33
387.57	8.3
387.778	8.29
387.985	8.45
388.193	8.08
388.4	6.88
388.608	7.11
388.816	7.01
389.023	8.69
389.231	8.42
389.438	9.49
389.646	8.68
389.853	8.14
390.061	9.54
390.268	10.64
390.475	10.15
390.683	10.22
390.89	9.32
391.098	9.29
391.305	8.12
391.512	8.07
391.72	7.45
391.927	7.12
392.135	8.19
392.342	7.98
392.549	7.18
392.756	6.7
392.964	6.9
393.171	6.88
393.378	8.63
393.586	8.68
393.793	8.61
394	7.82
394.207	7.66
394.414	8.51
394.622	8.98
394.829	9.25
395.036	10.08
395.243	9.32
395.45	9.64
395.657	8.57
395.864	8
396.072	8.06
396.279	8.8
396.486	8.84
396.693	7.72
396.9	7.54
397.107	8.24
397.314	8.06
397.521	9.51
397.728	9.32
397.935	8.34
398.142	8.96
398.349	9.3
398.556	9.91
398.763	10.01
398.97	10.26
399.177	10.03
399.383	9.46
399.59	9.75
399.797	8.83
400.004	8.91
400.211	10.23
400.418	10.47
400.625	9.63
400.831	9.62
401.038	10.01
401.245	10.58
401.452	10.13
401.658	10.28
401.865	10.51
402.072	11.12
402.279	10.7
402.485	10.96
402.692	10.51
402.899	11.14
403.105	10.7
403.312	10.53
403.519	9.53
403.725	10.35
403.932	9.73
404.138	10.52
404.345	10.64
404.552	11.17
404.758	10.47
404.965	10.92
405.171	11.45
405.378	12.03
405.584	13.11
405.791	13.41
405.997	13.26
406.204	14.55
406.41	13.53
406.617	12.1
406.823	11.95
407.029	12.16
407.236	11.64
407.442	11.36
407.649	10.78
407.855	9.47
408.061	9.49
408.268	9.71
408.474	9.36
408.68	10
408.887	11.25
409.093	11.13
409.299	11.08
409.505	11.39
409.712	11.3
409.918	11.42
410.124	12.41
410.33	12.26
410.537	11.27
410.743	11.49
410.949	11.3
411.155	11.08
411.361	11.49
411.567	11.99
411.773	12.57
411.98	13.16
412.186	13.15
412.392	12.48
412.598	13.56
412.804	13.91
413.01	13.66
413.216	13.23
413.422	13.95
413.628	14.08
413.834	14.11
414.04	13.13
414.246	12.64
414.452	12.74
414.658	12.43
414.864	11.58
415.07	11.63
415.275	12.01
415.481	12.11
415.687	12.05
415.893	12.39
416.099	12
416.305	12.4
416.511	11.89
416.716	12.1
416.922	12.88
417.128	13.34
417.334	13.7
417.539	13.36
417.745	12.82
417.951	12.25
418.157	12.26
418.362	12.23
418.568	11.72
418.774	11.19
418.979	10.73
419.185	9.82
419.391	9.12
419.596	8.76
419.802	9.1
420.008	9.86
420.213	5.12
420.419	5.08
420.624	5.66
420.83	5.98
421.035	6.82
421.241	7.19
421.446	7.46
421.652	7.89
421.857	7.9
422.063	7.63
422.268	7.43
422.474	12.13
422.679	12.07
422.885	11.42
423.09	11.13
423.295	10.82
423.501	10.59
423.706	10.67
423.911	10.42
424.117	10.38
424.322	10.51
424.527	10.79
424.733	11.35
424.938	11.17
425.143	11.89
425.349	12.79
425.554	13.13
425.759	13.42
425.964	13.17
426.169	13.86
426.375	13.92
426.58	13.5
426.785	13.35
426.99	13.11
427.195	13.26
427.4	12.88
427.605	12.49
427.811	12.34
428.016	12.42
428.221	13.42
428.426	13.25
428.631	13.01
428.836	13.71
429.041	13.23
429.246	13.83
429.451	13.82
429.656	13.86
429.861	14.17
430.066	13.95
430.271	13.87
430.476	13.83
430.681	13.33
430.886	14.18
431.09	13.73
431.295	14.46
431.5	13.6
431.705	14.04
431.91	13.57
432.115	13.2
432.32	13.33
432.524	13.27
432.729	13.1
432.934	13.7
433.139	13.6
433.343	13.78
433.548	13.16
433.753	13.81
433.958	13.98
434.162	14.09
434.367	13.97
434.572	14.16
434.776	14.83
434.981	14.53
435.186	14.22
435.39	14.51
435.595	14.75
435.799	14.91
436.004	14.31
436.209	13.73
436.413	14.03
436.618	14.08
436.822	13.85
437.027	13.38
437.231	13.93
437.436	14.71
437.64	14.13
437.845	13.87
438.049	14.12
438.253	14.23
438.458	13.94
438.662	14.64
438.867	14.9
439.071	15.23
439.275	15.08
439.48	14.97
439.684	14.51
439.888	14.96
440.093	15.28
440.297	15.2
440.501	15.55
440.706	15.51
440.91	15.2
441.114	14.95
441.318	15.53
441.523	15.59
441.727	15.38
441.931	14.77
442.135	14.34
442.339	14.43
442.543	14.5
442.748	14.05
442.952	14.57
443.156	13.96
443.36	13.76
443.564	13.08
443.768	12.52
443.972	13.03
444.176	13.79
444.38	13.96
444.584	13.46
444.788	13.46
444.992	13.75
445.196	13.34
445.4	13.82
445.604	13.73
445.808	13.81
446.012	14.58
446.216	14.61
446.42	14.65
446.624	14.43
446.828	14.99
447.032	14.98
447.235	15.21
447.439	15.61
447.643	15.39
447.847	15.97
448.051	15.59
448.254	15.48
448.458	15.56
448.662	15.37
448.866	15.83
449.069	15.48
449.273	15.85
449.477	15.3
449.681	15.15
449.884	15.4
450.088	15.42
450.292	16.18
450.495	15.98
450.699	15.82
450.902	14.72
451.106	14.09
451.31	13.97
451.513	14.25
451.717	14.39
451.92	14.91
452.124	14.23
452.327	14.16
452.531	13.96
452.734	14.02
452.938	14.08
453.141	14.87
453.345	15.59
453.548	15.4
453.752	14.51
453.955	14.55
454.158	14.71
454.362	14.57
454.565	14.72
454.769	14.34
454.972	14.25
455.175	14.32
455.379	14.67
455.582	14.26
455.785	14.3
455.988	14.07
456.192	13.62
456.395	13.3
456.598	14.03
456.801	14.49
457.005	14.76
457.208	15.04
457.411	14.61
457.614	14.17
457.817	13.76
458.021	13.98
458.224	14.69
458.427	15.26
458.63	15.33
458.833	15.05
459.036	14.71
459.239	14.88
459.442	15.01
459.645	15.22
459.848	15.4
460.051	15.81
460.254	16.02
460.457	15.09
460.66	14.39
460.863	14.02
461.066	13.95
461.269	14.24
461.472	14.88
461.675	14.53
461.878	14.84
462.081	15.53
462.284	15.82
462.486	15.56
462.689	15.9
462.892	16.9
463.095	18.07
463.298	18.38
463.5	17.62
463.703	16.66
463.906	17.33
464.109	16.92
464.311	16.12
464.514	15.83
464.717	16.08
464.92	16.48
465.122	16.05
465.325	15.7
465.528	16.36
465.73	16.3
465.933	16.41
466.135	16.24
466.338	16.21
466.541	16.91
466.743	16.86
466.946	16.64
467.148	16.96
467.351	16.78
467.553	16.32
467.756	15.07
467.958	15.4
468.161	14.98
468.363	14.98
468.566	14.89
468.768	14.49
468.971	14.9
469.173	15.2
469.375	14.8
469.578	15.09
469.78	15.11
469.983	15.99
470.185	16.4
470.387	16.59
470.59	16.04
470.792	16.09
470.994	16.79
471.196	16.59
471.399	16.77
471.601	16.53
471.803	16.26
472.005	15.86
472.208	16
472.41	16.01
472.612	15.73
472.814	16.35
473.016	15.93
473.218	15.6
473.421	16.1
473.623	16.33
473.825	16.54
474.027	17.23
474.229	17.58
474.431	17.15
474.633	17.13
474.835	17.46
475.037	17.02
475.239	17.32
475.441	17.55
475.643	17.02
475.845	17.16
476.047	17.1
476.249	16.46
476.451	16.71
476.653	17
476.855	16.82
477.057	17.52
477.258	17.89
477.46	18.28
477.662	17.97
477.864	18.49
478.066	17.79
478.268	17.88
478.469	18.28
478.671	18.09
478.873	17.91
479.075	18.06
479.276	17.43
479.478	17.28
479.68	17.11
479.882	17.18
480.083	16.72
480.285	17.02
480.487	16.97
480.688	16.61
480.89	16.56
481.091	16.21
481.293	16.08
481.495	15.85
481.696	15.84
481.898	15.88
482.099	15.55
482.301	15.44
482.502	15.29
482.704	15.41
482.905	15.42
483.107	15.46
483.308	15.6
483.51	15.69
483.711	15.85
483.913	15.98
484.114	15.96
484.315	16.12
484.517	16.54
484.718	16.5
484.92	16.49
485.121	16.48
485.322	16.49
485.524	16.41
485.725	16.28
485.926	16.12
486.127	16.03
486.329	15.89
486.53	15.91
486.731	15.62
486.932	15.79
487.134	15.81
487.335	15.72
487.536	15.53
487.737	15.67
487.938	15.68
488.139	15.89
488.341	15.96
488.542	16.37
488.743	16.22
488.944	16.13
489.145	16.09
489.346	15.99
489.547	16.41
489.748	16.53
489.949	16.87
490.15	16.82
490.351	16.85
490.552	16.86
490.753	16.56
490.954	16.49
491.155	16.66
491.356	16.76
491.557	17.03
491.758	17.1
491.959	17.27
492.159	17.07
492.36	17.22
492.561	17.06
492.762	17
492.963	17.2
493.164	17.94
493.364	18.11
493.565	18.05
493.766	17.66
493.967	17.6
494.167	17.54
494.368	17.54
494.569	17.53
494.769	18
494.97	18.04
495.171	18.05
495.371	17.82
495.572	17.77
495.773	18.11
495.973	18.46
496.174	18.3
496.375	18.53
496.575	18.95
496.776	19.03
496.976	18.91
497.177	19.07
497.377	19.14
497.578	19.27
497.778	19.42
497.979	19.45
498.179	19.38
498.38	19.68
498.58	19.19
498.78	18.86
498.981	19.24
499.181	19.33
499.382	19.48
499.582	19.66
499.782	19.72
499.983	19.8
500.183	19.63
500.383	19.84
500.584	19.87
500.784	20.56
500.984	20.73
501.184	20.23
501.385	19.9
501.585	19.77
501.785	19.78
501.985	19.87
502.185	19.8
502.386	20.03
502.586	20.03
502.786	20.1
502.986	20.45
503.186	20.29
503.386	20.4
503.586	20.54
503.786	20.63
503.987	20.85
504.187	21.02
504.387	21.35
504.587	21.26
504.787	21.45
504.987	21.21
505.187	21.16
505.387	21.21
505.587	21.33
505.786	21.47
505.986	21.7
506.186	21.6
506.386	21.76
506.586	21.84
506.786	21.78
506.986	21.64
507.186	21.96
507.386	22.09
507.585	22.22
507.785	22.7
507.985	22.94
508.185	22.97
508.384	23.3
508.584	23.3
508.784	22.94
508.984	23.68
509.183	23.6
509.383	23.43
509.583	23.42
509.782	23.55
509.982	23.47
510.182	23.4
510.381	23.24
510.581	23.04
510.781	22.9
510.98	23.48
511.18	23.18
511.379	23.65
511.579	23.6
511.778	23.68
511.978	24.15
512.177	24.2
512.377	24.35
512.576	24.74
512.776	24.57
512.975	25.02
513.175	25.37
513.374	25.63
513.573	25.78
513.773	26.39
513.972	26
514.172	25.59
514.371	26
514.57	26.52
514.77	26.38
514.969	26.79
515.168	26.99
515.367	26.88
515.567	27.06
515.766	26.68
515.965	26.79
516.164	27.05
516.364	27.07
516.563	26.76
516.762	26.63
516.961	26.82
517.16	27.21
517.359	27.22
517.559	26.98
517.758	26.51
517.957	26.85
518.156	27.01
518.355	27.48
518.554	27.72
518.753	27.22
518.952	27.17
519.151	27.43
519.35	27.43
519.549	27.18
519.748	27.8
519.947	28.07
520.146	28.24
520.345	27.79
520.544	27.85
520.743	28.33
520.942	29.28
521.141	29.3
521.339	29.31
521.538	29.51
521.737	29.6
521.936	29.22
522.135	29.54
522.333	29.49
522.532	29.95
522.731	29.95
522.93	29.58
523.129	29.59
523.327	29.74
523.526	29.45
523.725	29.05
523.923	29.37
524.122	29.44
524.321	29.5
524.519	29.5
524.718	29.44
524.917	29.34
525.115	29.29
525.314	29.44
525.512	29.52
525.711	29.57
525.909	29.82
526.108	29.79
526.306	29.66
526.505	29.31
526.703	29.3
526.902	29.29
527.1	29.3
527.299	29.33
527.497	29.24
527.696	29.18
527.894	29.41
528.092	29.36
528.291	29.27
528.489	29.36
528.688	29.76
528.886	29.98
529.084	30.28
529.283	30.27
529.481	30.36
529.679	30.56
529.877	30.95
530.076	30.85
530.274	31.19
530.472	31.34
530.67	31.73
530.869	31.49
531.067	31.4
531.265	31.03
531.463	31.34
531.661	31.39
531.859	31.51
532.057	31.69
532.255	31.9
532.454	31.59
532.652	31.87
532.85	31.44
533.048	31.65
533.246	31.98
533.444	32.26
533.642	32.4
533.84	32.54
534.038	32.5
534.236	32.11
534.434	32.18
534.632	32.52
534.83	32.6
535.027	33.05
535.225	33.26
535.423	33.05
535.621	33.25
535.819	33.19
536.017	33.08
536.215	33.21
536.412	33.33
536.61	33.47
536.808	33.95
537.006	33.7
537.203	34.06
537.401	34.09
537.599	34.5
537.797	34.49
537.994	34.76
538.192	35
538.39	35.26
538.587	35.44
538.785	35.51
538.983	35.01
539.18	35.19
539.378	34.83
539.575	34.9
539.773	34.85
539.97	34.93
540.168	34.68
540.366	34.71
540.563	34.88
540.761	35.04
540.958	34.87
541.155	35.29
541.353	35.43
541.55	35.54
541.748	35.55
541.945	35.8
542.143	35.98
542.34	36.31
542.537	36.55
542.735	36.64
542.932	36.85
543.129	37.21
543.327	37.28
543.524	37.8
543.721	38.11
543.919	38.43
544.116	38.73
544.313	38.81
544.51	38.85
544.708	38.77
544.905	38.47
545.102	38.75
545.299	38.81
545.496	38.83
545.693	38.68
545.891	38.93
546.088	39.15
546.285	38.7
546.482	39.24
546.679	39.68
546.876	40.36
547.073	40.37
547.27	40.47
547.467	40.51
547.664	40.63
547.861	40.96
548.058	41.58
548.255	42.03
548.452	42.64
548.649	42.8
548.846	42.88
549.043	42.61
549.24	43.16
549.437	42.96
549.633	43.24
549.83	43.6
550.027	42.88
550.224	43.09
550.421	42.69
550.618	42.16
550.814	42.12
551.011	42.21
551.208	42.32
551.405	42.49
551.601	43.48
551.798	43.74
551.995	43.29
552.191	43.88
552.388	43.5
552.585	43.75
552.781	44.51
552.978	44.33
553.175	44.45
553.371	44.25
553.568	44.17
553.764	43.47
553.961	43.91
554.157	44.44
554.354	44.56
554.55	44.51
554.747	44.04
554.943	44.15
555.14	44.4
555.336	43.89
555.533	44.96
555.729	45.78
555.926	45.11
556.122	44.99
556.318	44.82
556.515	45.35
556.711	45.78
556.907	45.92
557.104	45.71
557.3	45.64
557.496	46.76
557.693	46.25
557.889	46.06
558.085	47.48
558.281	47.66
558.478	47.71
558.674	46.83
558.87	46.91
559.066	47.63
559.262	48.64
559.459	48.71
559.655	48.38
559.851	48.23
560.047	48.34
560.243	47.61
560.439	47.67
560.635	47.38
560.831	47.9
561.027	47.82
561.223	47.6
561.419	46.62
561.615	46.64
561.811	46.84
562.007	47.17
562.203	46.93
562.399	46.81
562.595	46.96
562.791	47.49
562.987	47.19
563.183	47.1
563.379	47.58
563.575	47.94
563.771	47.93
563.966	47.28
564.162	47.57
564.358	47.36
564.554	47.97
564.75	47.53
564.945	47.54
565.141	47.75
565.337	47.51
565.533	46.98
565.728	46.83
565.924	46.82
566.12	47.11
566.315	46.75
566.511	47.41
566.707	47.61
566.902	47.55
567.098	47.53
567.293	47.1
567.489	47.27
567.684	47.62
567.88	47.93
568.076	47.54
568.271	47.95
568.467	48.12
568.662	46.96
568.858	46.36
569.053	45.88
569.248	44.94
569.444	45.7
569.639	45.69
569.835	45.87
570.03	45.23
570.225	45.84
570.421	45.92
570.616	46.06
570.812	46.78
571.007	46.68
571.202	47.49
571.397	48.05
571.593	48.05
571.788	48.22
571.983	47.74
572.178	48.17
572.374	47.92
572.569	47.61
572.764	47.49
572.959	47.2
573.154	47.46
573.35	47.37
573.545	47.6
573.74	47.39
573.935	47.19
574.13	47.86
574.325	47.92
574.52	48.03
574.715	47.45
574.91	47.88
575.105	47.73
575.3	47.92
575.495	48.01
575.69	48.6
575.885	48.22
576.08	48.65
576.275	48.06
576.47	48.4
576.665	48.9
576.86	50.06
577.055	49.82
577.25	50.61
577.444	50.97
577.639	51.26
577.834	51.02
578.029	51.67
578.224	51.94
578.418	52.48
578.613	52.52
578.808	52.86
579.003	52.41
579.197	51.95
579.392	52.07
579.587	51.94
579.781	51.84
579.976	52.11
580.171	52.95
580.365	53.09
580.56	53.05
580.755	52.06
580.949	51.9
581.144	52.23
581.338	53.51
581.533	53.54
581.727	53.1
581.922	52.69
582.116	52.78
582.311	51.51
582.505	51.97
582.7	52.56
582.894	53.41
583.089	53.95
583.283	54.28
583.478	53.35
583.672	53.26
583.866	53.34
584.061	53.56
584.255	52.73
584.449	52.83
584.644	53.11
584.838	53.19
585.032	54.34
585.226	53.31
585.421	53.47
585.615	54.01
585.809	53.38
586.003	53.23
586.198	53.59
586.392	53.89
586.586	53.91
586.78	52.78
586.974	52.78
587.168	51.5
587.363	52.1
587.557	51.26
587.751	50.31
587.945	51.11
588.139	51.7
588.333	50.89
588.527	50.95
588.721	51.06
588.915	51.16
589.109	50.47
589.303	51.47
589.497	51.25
589.691	52.01
589.885	53.02
590.079	52.8
590.273	52.37
590.466	52.42
590.66	52.88
590.854	53.51
591.048	53.38
591.242	53.83
591.436	53.07
591.629	53.17
591.823	52.98
592.017	52.76
592.211	52.24
592.404	52.85
592.598	53.19
592.792	53.22
592.986	53.51
593.179	53.87
593.373	53.7
593.567	53.69
593.76	53.4
593.954	53.21
594.147	52.54
594.341	53.31
594.535	53.55
594.728	52.83
594.922	52.77
595.115	52.3
595.309	52.98
595.502	53.09
595.696	52.99
595.889	52.99
596.083	52.91
596.276	53.57
596.47	53.18
596.663	53.16
596.856	54.3
597.05	53.78
597.243	54.16
597.437	53.48
597.63	53.71
597.823	53.38
598.017	53.63
598.21	53.59
598.403	53.52
598.596	54.12
598.79	53.11
598.983	53.58
599.176	53.44
599.369	53.34
599.563	53.29
599.756	53.36
599.949	54.49
600.142	54.36
600.335	55.26
600.528	56.59
600.722	56.82
600.915	57.84
601.108	57.55
601.301	58.25
601.494	58.14
601.687	57.89
601.88	57
602.073	56.74
602.266	56.73
602.459	55.84
602.652	54.66
602.845	54.23
603.038	54.31
603.231	53.63
603.424	53.77
603.617	53.14
603.809	53.54
604.002	54.15
604.195	54.15
604.388	54.21
604.581	54.22
604.774	54.1
604.966	53.53
605.159	53.1
605.352	53.68
605.545	53
605.737	53.5
605.93	53.48
606.123	52.9
606.316	52.99
606.508	53.88
606.701	54.16
606.894	54.67
607.086	55.95
607.279	55.58
607.471	55.29
607.664	56.65
607.857	56.91
608.049	57.12
608.242	57.17
608.434	57.61
608.627	56.45
608.819	57.1
609.012	57.39
609.204	56.42
609.397	57.32
609.589	57.14
609.782	56.19
609.974	56.11
610.166	55.47
610.359	55.54
610.551	55.49
610.743	56.86
610.936	57.05
611.128	57.24
611.32	57.49
611.513	57.47
611.705	58.23
611.897	57.93
612.09	57.76
612.282	58.75
612.474	58.62
612.666	58.43
612.858	58.67
613.051	58.29
613.243	59.01
613.435	60.29
613.627	60.9
613.819	61.76
614.011	62.06
614.203	63.44
614.395	62.48
614.588	63.39
614.78	63.32
614.972	62.66
615.164	62.22
615.356	61.42
615.548	60.79
615.74	59.95
615.932	58.83
616.124	59.27
616.315	57.81
616.507	58.64
616.699	59.13
616.891	59.36
617.083	58.71
617.275	60.08
617.467	60.96
617.659	61.56
617.85	60.64
618.042	61.03
618.234	61.06
618.426	61.83
618.618	62.36
618.809	62.28
619.001	61.56
619.193	61.96
619.384	60.91
619.576	59.98
619.768	59.21
619.959	59.86
620.151	60.05
620.343	61.1
620.534	61.42
620.726	60.44
620.917	60.81
621.109	61.23
621.301	61.77
621.492	61.58
621.684	60.67
621.875	61.48
622.067	62.01
622.258	62.27
622.45	61.92
622.641	61.14
622.832	61.4
623.024	60.92
623.215	61.64
623.407	61.89
623.598	62.04
623.789	63.19
623.981	63.48
624.172	62.88
624.363	61.66
624.555	60.34
624.746	60.61
624.937	60.11
625.129	61.1
625.32	60.64
625.511	59.76
625.702	59.92
625.893	59.16
626.085	58.78
626.276	59.23
626.467	60.36
626.658	60.9
626.849	61.21
627.04	60.97
627.231	60.37
627.422	60.49
627.614	61.08
627.805	60.35
627.996	60.49
628.187	60.65
628.378	60.8
628.569	61.01
628.76	60.99
628.951	61.13
629.142	62.49
629.332	62.63
629.523	62.03
629.714	61.74
629.905	64.05
630.096	64.6
630.287	64.01
630.478	64.14
630.669	62.28
630.859	63.24
631.05	63.05
631.241	62.97
631.432	62.14
631.623	61.5
631.813	61.41
632.004	60.73
632.195	59.53
632.385	59.67
632.576	59.75
632.767	60.75
632.957	61.03
633.148	61.24
633.339	60.62
633.529	60.32
633.72	61.16
633.91	61.38
634.101	60.92
634.292	62.75
634.482	63.29
634.673	62.96
634.863	63.01
635.054	62.86
635.244	63.54
635.435	63.31
635.625	64.03
635.815	65.01
636.006	65.76
636.196	65.52
636.387	65.18
636.577	65.35
636.767	66.23
636.958	65.88
637.148	64.53
637.338	64.4
637.529	65.49
637.719	65.07
637.909	65.86
638.099	65.57
638.29	65.06
638.48	64.95
638.67	65.07
638.86	64.98
639.05	65.03
639.241	66.79
639.431	65.55
639.621	65.67
639.811	66.06
640.001	65.03
640.191	63.29
640.381	64.85
640.571	64.71
640.761	64.25
640.951	64.12
641.141	64.72
641.331	63.65
641.521	63.32
641.711	62.68
641.901	63.11
642.091	62.86
642.281	64.5
642.471	64.23
642.661	64.33
642.851	63.87
643.041	64.78
643.231	64.69
643.42	64.53
643.61	65.88
643.8	65.89
643.99	66.08
644.18	65.73
644.369	66.15
644.559	66.49
644.749	67.39
644.939	67.67
645.128	66.65
645.318	66.2
645.508	67.24
645.697	67.47
645.887	66.73
646.076	65.42
646.266	65.44
646.456	63.74
646.645	63.39
646.835	62.19
647.024	61.67
647.214	60.82
647.403	61.17
647.593	59.94
647.782	58.8
647.972	59.33
648.161	61.59
648.351	61.64
648.54	63.12
648.73	62.38
648.919	63.36
649.108	63.98
649.298	64.5
649.487	64.05
649.677	65.19
649.866	66.2
650.055	66.54
650.244	65.13
650.434	65.42
650.623	65.4
650.812	65.65
651.002	65.09
651.191	65.83
651.38	66.32
651.569	67.34
651.758	66.93
651.947	67.86
652.137	67.43
652.326	68.52
652.515	69
652.704	68.24
652.893	67.81
653.082	67.28
653.271	66.61
653.46	65.98
653.649	66.44
653.838	66.6
654.027	65.17
654.216	65.29
654.405	63.81
654.594	63.31
654.783	64.01
654.972	64.51
655.161	64.27
655.35	63.75
655.539	64.22
655.728	63.77
655.916	64.45
656.105	64.82
656.294	64.42
656.483	65.59
656.672	64.23
656.86	63.81
657.049	63.25
657.238	63.04
657.427	63.42
657.615	63.2
657.804	63.01
657.993	61.73
658.181	61.52
658.37	62.49
658.559	62.05
658.747	63.59
658.936	63.63
659.125	63.71
659.313	64.07
659.502	65.37
659.69	65.67
659.879	66.16
660.067	67.29
660.256	68.66
660.444	68.42
660.633	68.45
660.821	68.07
661.01	68.93
661.198	69.27
661.387	69.49
661.575	68.54
661.763	68.31
661.952	67.24
662.14	68.27
662.328	67.12
662.517	68.21
662.705	68.51
662.893	69.45
663.082	69.22
663.27	69.85
663.458	70.98
663.646	71.02
663.834	70.87
664.023	71.48
664.211	69.65
664.399	71.57
664.587	71.18
664.775	71.04
664.963	71.63
665.152	71.49
665.34	72.44
665.528	73.18
665.716	72.47
665.904	73.35
666.092	73.44
666.28	74.54
666.468	71.57
666.656	70.55
666.844	71.16
667.032	70.07
667.22	70.64
667.408	69.68
667.596	68.09
667.784	68.76
667.971	67.26
668.159	67.58
668.347	66.88
668.535	68.81
668.723	68.63
668.911	68.06
669.098	68.28
669.286	67.36
669.474	67.16
669.662	68.82
669.849	68.6
670.037	69.58
670.225	69.84
670.413	70.34
670.6	68.88
670.788	70.17
670.976	70.27
671.163	70.01
671.351	70.79
671.538	70.39
671.726	69.39
671.913	69.79
672.101	69.38
672.289	68.98
672.476	68.9
672.664	71.24
672.851	71.9
673.039	73.83
673.226	74.4
673.413	73.34
673.601	75.06
673.788	75.57
673.976	74.7
674.163	74.66
674.35	74.3
674.538	74.36
674.725	74.67
674.912	74.09
675.1	72.07
675.287	72.26
675.474	73.57
675.662	72.21
675.849	71.35
676.036	71.86
676.223	73.44
676.411	73.39
676.598	72.77
676.785	71.35
676.972	70.55
677.159	69.98
677.346	69.29
677.533	68.6
677.721	68.6
677.908	67.33
678.095	66.97
678.282	66.64
678.469	66.91
678.656	67.18
678.843	67.66
679.03	66.16
679.217	65.83
679.404	65.27
679.591	65.21
679.778	65.6
679.964	67.57
680.151	67.89
680.338	66.84
680.525	66.3
680.712	67.98
680.899	67.95
681.086	69.45
681.272	72.23
681.459	73.73
681.646	72.96
681.833	73.28
682.02	71.71
682.206	71.1
682.393	70.61
682.58	72.04
682.766	69.34
682.953	69.98
683.14	70.33
683.326	69.24
683.513	68.18
683.7	69.95
683.886	69.84
684.073	69.61
684.259	70.62
684.446	71.6
684.632	70.94
684.819	72.75
685.005	70.88
685.192	70.39
685.378	70.3
685.565	70.64
685.751	68.97
685.938	68.42
686.124	68.54
686.31	68.27
686.497	69.09
686.683	69.37
686.87	70
687.056	70.07
687.242	70.78
687.429	70.69
687.615	70.56
687.801	71.28
687.987	72.15
688.174	73.27
688.36	73
688.546	73.33
688.732	72.83
688.918	70.7
689.105	70.21
689.291	68.48
689.477	68.41
689.663	66.4
689.849	65.48
690.035	64.43
690.221	64.17
690.407	64.87
690.593	65.08
690.779	64.83
690.965	65.39
691.151	67.67
691.337	70.5
691.523	69.39
691.709	70.74
691.895	71.23
692.081	72.84
692.267	72.15
692.453	71.64
692.639	72.1
692.825	71.21
693.011	71.42
693.196	70.68
693.382	70.21
693.568	69.75
693.754	70.82
693.94	69.85
694.125	69.12
694.311	69.23
694.497	69.22
694.682	67.91
694.868	69.81
695.054	68.92
695.239	69.71
695.425	68.09
695.611	68.55
695.796	69.31
695.982	70.51
696.168	69.4
696.353	68.73
696.539	67.99
696.724	67.15
696.91	64.96
697.095	65.21
697.281	63.68
697.466	63.42
697.652	63.45
697.837	62.94
698.023	63.3
698.208	64.05
698.393	65.55
698.579	65.64
698.764	67.04
698.949	68.31
699.135	69.27
699.32	69.07
699.505	69.51
699.691	68.75
699.876	68.65
700.061	69.13
700.246	70.04
700.432	70.19
700.617	70.99
700.802	69.87
700.987	71.91
701.172	74.07
701.358	75.7
701.543	76.81
701.728	78.42
701.913	79.88
702.098	80.01
702.283	80.14
702.468	79.53
702.653	79.19
702.838	81.36
703.023	81.31
703.208	80.25
703.393	82.38
703.578	83.56
703.763	84.13
703.948	81.91
704.133	81.04
704.318	79.37
704.503	80.06
704.688	82.31
704.873	80.92
705.057	79.15
705.242	78.11
705.427	75.5
705.612	75.72
705.797	76.05
705.981	77.76
706.166	79.54
706.351	81.95
706.536	80.25
706.72	77.62
706.905	77.67
707.09	79.09
707.274	77.71
707.459	78.3
707.644	77.11
707.828	78
708.013	78.57
708.197	76.3
708.382	76.2
708.567	78.21
708.751	81.72
708.936	83.6
709.12	83.06
709.305	83.98
709.489	83.38
709.673	82.98
709.858	81.8
710.042	79.97
710.227	81.93
710.411	81.62
710.596	81.01
710.78	78.79
710.964	76.64
711.149	76.62
711.333	76.95
711.517	80.44
711.702	81.35
711.886	80.1
712.07	81.07
712.254	78.88
712.438	78.19
712.623	77.7
712.807	77.54
712.991	78.08
713.175	77.98
713.359	77.85
713.544	74.27
713.728	72.23
713.912	74.25
714.096	74.99
714.28	75.06
714.464	74.37
714.648	74.85
714.832	73.95
715.016	73.62
715.2	72.94
715.384	73.1
715.568	75.05
715.752	76.49
715.936	74.48
716.12	72.59
716.304	70.82
716.488	70.97
716.671	69.41
716.855	69.45
717.039	68.89
717.223	69.9
717.407	68.3
717.59	66.03
717.774	64.81
717.958	65.82
718.142	65.83
718.325	68.96
718.509	68.29
718.693	70.16
718.877	70.88
719.06	71.58
719.244	72.35
719.428	73.91
719.611	77.57
719.795	77.89
719.978	78.83
720.162	82.96
720.345	84.05
720.529	86.75
720.713	86.25
720.896	86.73
721.08	87.91
721.263	85.58
721.446	85.32
721.63	80.46
721.813	81.06
721.997	81.3
722.18	79.8
722.364	79.29
722.547	76.48
722.73	76.52
722.914	75.41
723.097	75.58
723.28	74.73
723.464	72.38
723.647	74.62
723.83	77.79
724.013	76.96
724.197	75.31
724.38	72.87
724.563	74.23
724.746	75.23
724.929	75.3
725.112	74.08
725.296	76.14
725.479	79.87
725.662	78.69
725.845	76.77
726.028	74.92
726.211	75.08
726.394	76.19
726.577	74.85
726.76	73.53
726.943	75.54
727.126	75.05
727.309	75.62
727.492	74.25
727.675	74.82
727.858	72.7
728.041	74.68
728.224	76.79
728.407	77.96
728.589	78.78
728.772	78.21
728.955	78.52
729.138	77.98
729.321	77.88
729.503	78.8
729.686	78.34
729.869	81.8
730.052	80.71
730.234	77.2
730.417	75.74
730.6	75.79
730.782	74.79
730.965	74.59
731.148	76.78
731.33	75.56
731.513	76.97
731.695	76.38
731.878	73.73
732.061	74.76
732.243	76.88
732.426	77.38
732.608	79.87
732.791	84.46
732.973	81.97
733.156	78.61
733.338	78.14
733.52	75.3
733.703	78.38
733.885	81.77
734.068	82.14
734.25	81.26
734.432	82.21
734.615	82.2
734.797	80.31
734.979	83.44
735.162	84.88
735.344	86.26
735.526	88.92
735.708	87.58
735.891	87
736.073	86.12
736.255	84.79
736.437	84.8
736.619	84.16
736.802	83.91
736.984	82.54
737.166	85.07
737.348	85.25
737.53	82.37
737.712	81.94
737.894	81.09
738.076	83.65
738.258	84.82
738.44	86.94
738.622	89.23
738.804	91.57
738.986	96.13
739.168	92.78
739.35	90.92
739.532	91.89
739.714	94.19
739.896	94.67
740.078	93.62
740.259	95.37
740.441	95.38
740.623	93.73
740.805	92.81
740.987	90.73
741.168	91.81
741.35	96.15
741.532	96.44
741.714	95.1
741.895	97.3
742.077	96.01
742.259	94.82
742.44	92.47
742.622	92.1
742.804	89.43
742.985	90.27
743.167	95.49
743.348	95.07
743.53	99.49
743.711	97.88
743.893	96.56
744.075	96.39
744.256	97.61
744.438	100
744.619	99.43
744.8	103.03
744.982	100.52
745.163	98.26
745.345	97.42
745.526	97.94
745.707	100.61
745.889	101.91
746.07	103.84
746.252	102.27
746.433	102.33
746.614	101.56
746.795	97.89
746.977	99.03
747.158	98.95
747.339	95.72
747.52	96.69
747.702	97.41
747.883	97.18
748.064	99.4
748.245	102.25
748.426	98.19
748.607	96.3
748.788	96.48
748.97	101.82
749.151	102.5
749.332	104.91
749.513	105.17
749.694	103.67
749.875	100.9
750.056	96.8
750.237	98.74
750.418	100.83
750.599	102.97
750.78	105.97
750.96	98.44
751.141	100.52
751.322	99.6
751.503	96.46
751.684	97.18
751.865	103.27
752.046	103.21
752.226	102
752.407	99.94
752.588	96.35
752.769	91.16
752.949	94.28
753.13	96.75
753.311	105.29
753.492	103.97
753.672	100.13
753.853	96.35
754.034	96.01
754.214	94.73
754.395	97.74
754.575	98.3
754.756	100.26
754.937	100.1
755.117	99.03
755.298	91.81
755.478	89.86
755.659	92.05
755.839	88.78
756.02	91.05
756.2	90.35
756.381	86.73
756.561	85.53
756.741	88.37
756.922	83.57
757.102	79.61
757.283	82.92
757.463	83.12
757.643	83.1
757.823	83.55
758.004	78.55
758.184	78.67
758.364	76.54
758.545	74.3
758.725	69.74
758.905	71.39
759.085	69.34
759.265	67.35
759.446	74.33
759.626	79.2
759.806	82.36
759.986	85.09
760.166	79.88
760.346	80.15
760.526	87.33
760.706	84
760.886	85.62
761.066	85.81
761.246	81.52
761.426	77.58
761.606	71.22
761.786	67.16
761.966	68.16
762.146	69.45
762.326	69.49
762.506	65.73
762.686	67.04
762.866	66.27
763.046	66.81
763.225	70.18
763.405	69.27
763.585	70.91
763.765	75.51
763.945	75.71
764.124	76.24
764.304	77.62
764.484	85.86
764.664	88.11
764.843	94.05
765.023	95.59
765.203	91.9
765.382	93.43
765.562	93.49
765.741	94.87
765.921	98.33
766.101	102.12
766.28	103.74
766.46	102.59
766.639	105.54
766.819	102.29
766.998	101.8
767.178	108.71
767.357	113.93
767.537	117.63
767.716	112.94
767.896	112.3
768.075	110.15
768.254	109.22
768.434	105.32
768.613	100.06
768.792	99.84
768.972	104.71
769.151	97.43
769.33	100.06
769.51	104.31
769.689	105.86
769.868	108.95
770.047	107.11
770.226	110.49
770.406	113.89
770.585	116.96
770.764	113.02
770.943	111.79
771.122	118.35
771.301	110.52
771.48	107.2
771.66	111.85
771.839	112.71
772.018	115.12
772.197	113.15
772.376	112.31
772.555	113.69
772.734	117.51
772.913	113.13
773.092	114.75
773.271	118.51
773.449	118.58
773.628	115.05
773.807	115.49
773.986	123.76
774.165	125.31
774.344	125.65
774.523	125.3
774.701	122.5
774.88	120.39
775.059	117.09
775.238	114.57
775.417	118.25
775.595	120.32
775.774	110.51
775.953	107.75
776.131	110.51
776.31	108.54
776.489	108.85
776.667	108.4
776.846	111.64
777.025	110.17
777.203	110.29
777.382	107.79
777.56	110.97
777.739	121.13
777.917	116.34
778.096	116.58
778.274	121.45
778.453	120.62
778.631	133.2
778.81	133.43
778.988	136.27
779.166	137.24
779.345	135.52
779.523	131.46
779.702	127.37
779.88	126.69
780.058	130.01
780.237	126.34
780.415	122.64
780.593	116.44
780.771	124.57
780.95	123.97
781.128	117.49
781.306	118.35
781.484	116.58
781.662	127.2
781.841	131.51
782.019	122
782.197	127.8
782.375	137.5
782.553	142.38
782.731	137.01
782.909	136.79
783.087	149.14
783.265	172.28
783.443	167.08
783.621	148.4
783.799	149.67
783.977	153.28
784.155	141.82
784.333	141.06
784.511	134.8
784.689	135.79
784.867	131.23
785.045	132.95
785.223	119.21
785.4	117.95
785.578	121.2
785.756	120.86
785.934	118.14
786.112	110.85
786.289	101.61
786.467	98.31
786.645	95.64
786.823	99.52
787	102.65
787.178	106.33
787.356	107.79
787.533	104.61
787.711	99.67
787.889	106.24
788.066	114.92
788.244	116.11
788.421	119.29
788.599	111.84
788.776	111.11
788.954	105.47
789.131	100.21
789.309	102.94
789.486	94.78
789.664	100.52
789.841	91.16
790.019	90.3
790.196	89.65
790.373	85.78
790.551	92.8
790.728	92.48
790.906	92.53
791.083	83.58
791.26	79.78
791.437	90.38
791.615	82.75
791.792	88.29
791.969	91.1
792.146	96.17
792.324	99.13
792.501	99.26
792.678	98.62
792.855	98.87
793.032	108.74
793.209	108.35
793.387	113.75
793.564	118.59
793.741	120.53
793.918	114.13
794.095	116.43
794.272	118.62
794.449	111.57
794.626	104.72
794.803	98.01
794.98	95.46
795.157	98.31
795.334	90.83
795.511	91.78
795.688	92.99
795.864	90.06
796.041	85.99
796.218	81.74
796.395	88.48
796.572	94.45
796.749	99.67
796.925	99.63
797.102	105.16
797.279	113.81
797.456	115.26
797.632	112.84
797.809	120.18
797.986	129.42
798.162	127.98
798.339	123.03
798.516	123.29
798.692	122.71
798.869	124.94
799.046	126.29
799.222	118.33
799.399	111.86
799.575	117.32
799.752	115.07
799.928	108.33
800.105	109.6
800.281	111.75
800.458	112.6
800.634	117.52
800.811	112.25
800.987	110.81
801.163	117.3
801.34	119.99
801.516	115.08
801.692	115.81
801.869	116.18
802.045	114.68
802.221	115.78
802.398	115.52
802.574	113.42
802.75	115.49
802.926	112.17
803.103	107.53
803.279	109.48
803.455	109
803.631	111.19
803.807	108.8
803.983	110.98
804.16	101.55
804.336	94.68
804.512	85.26
804.688	88.16
804.864	92.14
805.04	95.42
805.216	92.02
805.392	91.48
805.568	88.43
805.744	92.45
805.92	89.82
806.096	95.44
806.272	108.19
806.448	124.88
806.623	119.31
806.799	121.65
806.975	118.01
807.151	138.17
807.327	146.11
807.503	171.66
807.678	165.92
807.854	184.29
808.03	161.95
808.206	145
808.381	134.02
808.557	157.41
808.733	154.15
808.908	157.19
809.084	144.18
809.26	142.84
809.435	123.74
809.611	129.3
809.787	125.23
809.962	132.67
810.138	140.36
810.313	143.02
810.489	131.32
810.664	120.39
810.84	124.45
811.015	114.65
811.191	119.01
811.366	122.78
811.542	120.56
811.717	132.22
811.892	142.84
812.068	133.83
812.243	129.87
812.419	120.78
812.594	130.59
812.769	120.63
812.944	117.42
813.12	121.49
813.295	108.79
813.47	99.33
813.645	76.86
813.821	74.64
813.996	83.64
814.171	92.23
814.346	99.53
814.521	102.8
814.697	107.4
814.872	105.39
815.047	103.09
815.222	113.29
815.397	112.05
815.572	105.45
815.747	99.88
815.922	94.64
816.097	87.49
816.272	81.24
816.447	78.83
816.622	81.72
816.797	86.12
816.972	81.49
817.147	76.89
817.322	82.07
817.496	91.55
817.671	95.12
817.846	92.65
818.021	85.72
818.196	92.83
818.371	84.23
818.545	78.86
818.72	82.27
818.895	85.59
819.069	91.62
819.244	88.21
819.419	84.51
819.594	80.46
819.768	76.81
819.943	76.93
820.117	71.77
820.292	71.06
820.467	68.99
820.641	64.91
820.816	63.41
820.99	61.43
821.165	61.16
821.339	60.44
821.514	58.99
821.688	59.89
821.863	60.65
822.037	61.96
822.212	62.18
822.386	63.13
822.56	64.37
822.735	65
822.909	67.28
823.084	67.57
823.258	69.04
823.432	70.43
823.606	73.94
823.781	72.85
823.955	74.3
824.129	77.23
824.303	76.65
824.478	79.18
824.652	76.15
824.826	68.8
825	68.42
825.174	64.68
825.348	67.56
825.523	64.32
825.697	66.9
825.871	67.8
826.045	66.39
826.219	65.67
826.393	65.92
826.567	65.92
826.741	70.71
826.915	71.34
827.089	78.7
827.263	81.3
827.437	81.92
827.611	83.62
827.784	85.83
827.958	94.39
828.132	104.26
828.306	105.18
828.48	112.53
828.654	126.32
828.827	126.18
829.001	119.45
829.175	116.37
829.349	114.92
829.522	118.82
829.696	114.07
829.87	112.35
830.044	122.82
830.217	122.33
830.391	125.62
830.565	114.47
830.738	121.06
830.912	115.89
831.085	100
831.259	106.81
831.432	95.46
831.606	93.72
831.779	82.75
831.953	74.52
832.126	71.83
832.3	71.99
832.473	74.48
832.647	76.18
832.82	73.85
832.994	74.53
833.167	73.65
833.34	79.24
833.514	80.78
833.687	81.25
833.86	84.45
834.034	88.82
834.207	90.47
834.38	83.81
834.553	82.75
834.727	90.32
834.9	91.98
835.073	88.83
835.246	79.24
835.419	76.37
835.593	81.17
835.766	75.94
835.939	71.95
836.112	77.7
836.285	91.62
836.458	81.5
836.631	77.91
836.804	72.6
836.977	82.81
837.15	104.62
837.323	93.72
837.496	82.16
837.669	86.8
837.842	99.46
838.015	78.31
838.188	80.03
838.361	86.73
838.533	90.41
838.706	91.05
838.879	92.41
839.052	84.93
839.225	83.66
839.398	83
839.57	90.56
839.743	80.45
839.916	93.69
840.088	95.64
840.261	95.41
840.434	92.56
840.607	90.18
840.779	106.34
840.952	109.06
841.124	114.08
841.297	129.99
841.47	138.8
841.642	143.1
841.815	131.43
841.987	117.58
842.16	116.81
842.332	124.92
842.505	141.23
842.677	135.57
842.85	140.77
843.022	143.82
843.194	115.3
843.367	109.33
843.539	109.62
843.712	109.71
843.884	125.82
844.056	152.12
844.229	164.53
844.401	175.36
844.573	175.21
844.745	182.45
844.918	187.52
845.09	253.27
845.262	236.84
845.434	241.59
845.606	242.53
845.779	315.62
845.951	216.82
846.123	181.77
846.295	181.4
846.467	177.8
846.639	164.25
846.811	179.66
846.983	172.94
847.155	225.09
847.327	252.52
847.499	319.75
847.671	283.55
847.843	741.55
848.015	2880.65
848.187	-1922.22
848.359	2207.89
848.531	-1462.96
848.703	28200
848.875	-939.36
849.047	1056.38
849.218	400.88
849.39	336.59
849.562	347.2
849.734	285.17
849.905	452.79
850.077	447.42
850.249	427.35
850.421	1656.86
850.592	526.7
850.764	582.98
850.936	2472
851.107	13400
851.279	713.39
851.451	303.58
851.622	320.77
851.794	234.23
851.965	223.01
852.137	195.6
852.308	147.28
852.48	173.53
852.651	165.94
852.823	230.52
852.994	177.17
853.166	205.11
853.337	179.37
853.509	151.82
853.68	178.74
853.851	194.48
854.023	238.35
854.194	261.7
854.365	279.49
854.537	238.67
854.708	182.62
854.879	220.04
855.05	201.08
855.222	271.11
855.393	503.46
855.564	315.26
855.735	327.76
855.906	435.57
856.078	349.14
856.249	344.69
856.42	302.72
856.591	310.87
856.762	330.53
856.933	386.76
857.104	304.95
857.275	242.45
857.446	262.12
857.617	169.57
857.788	146.15
857.959	131.52
858.13	169.98
858.301	171.5
858.472	174.47
858.643	151.83
858.814	168.88
858.985	219.39
859.155	299.44
859.326	291.04
859.497	915.97
859.668	305.85
859.839	399.69
860.009	392.02
860.18	484.25
860.351	477.97
860.522	565.96
860.692	520
860.863	331.87
861.034	221.97
861.204	213.01
861.375	158.22
861.546	203.42
861.716	205.68
861.887	189.94
862.057	223.09
862.228	183.33
862.398	202.1
862.569	214.15
862.739	181.24
862.91	146.61
863.08	190.27
863.251	280.38
863.421	366.09
863.592	329.04
863.762	354.07
863.932	610.99
864.103	-550
864.273	-1750
864.443	-473.33
864.614	-172.27
864.784	-165.92
864.954	-2616.67
865.125	12228.57
865.295	-1011.94
865.465	-1156.14
865.635	-10337.5
865.805	1093.67
865.976	-12250
866.146	-1570.45
866.316	-2108
866.486	1121.43
866.656	-298.03
866.826	-76.81
866.996	-565.38
867.166	362.94
867.336	533.77
867.506	457.14
867.676	114.47
867.846	141.83
868.016	176.95
868.186	170.16
868.356	165.07
868.526	140.25
868.696	199.4
868.866	236.34
869.036	439.61
869.206	260.27
869.376	290.5
869.545	4763.16
869.715	2307.89
869.885	400.48
870.055	323.11
870.224	900
870.394	-1364.29
870.564	765.67
870.734	522
870.903	193.54
871.073	193.23
871.243	152.86
871.412	105.18
871.582	94.81
871.751	110.02
871.921	121.67
872.091	100.6
872.26	84.57
872.43	106.11
872.599	139.65
872.769	112.4
872.938	97.48
873.108	88.07
873.277	80.65
873.446	71.17
873.616	82.66
873.785	70.58
873.955	73.04
874.124	93.5
874.293	92.37
874.463	71.77
874.632	119.52
874.801	168.72
874.971	232.66
875.14	228.09
875.309	281.76
875.478	518.13
875.647	541.27
875.817	341.86
875.986	268.42
876.155	184.62
876.324	175.93
876.493	144
876.662	119.26
876.831	110.42
877	152.07
877.17	168.72
877.339	141.5
877.508	146.03
877.677	140.4
877.846	151.79
878.015	171.53
878.184	150.67
878.352	170.54
878.521	176.77
878.69	192.29
878.859	134.37
879.028	106.57
879.197	97.44
879.366	82.27
879.534	90.95
879.703	81.55
879.872	88.16
880.041	95.66
880.21	98.21
880.378	96.02
880.547	83.48
880.716	71.63
880.884	63.67
881.053	64.61
881.222	69.03
881.39	66.27
881.559	69.77
881.727	65.32
881.896	61.53
882.065	58.04
882.233	61.19
882.402	64.94
882.57	69.88
882.739	79.63
882.907	79.7
883.076	80.16
883.244	88.27
883.412	98.09
883.581	104.71
883.749	97.35
883.918	94.05
884.086	100.52
884.254	106.47
884.423	110.26
884.591	124.8
884.759	139.51
884.927	172.11
885.096	128.85
885.264	133.54
885.432	155.11
885.6	168.38
885.769	244.27
885.937	180.23
886.105	199.53
886.273	250.16
886.441	221.85
886.609	360.33
886.777	152.06
886.945	-78.98
887.113	4.09
887.281	-10850
887.449	-200.62
887.617	0
887.785	-188.55
887.953	-148.47
888.121	-193.97
888.289	-89.35
888.457	-646.58
888.625	-21966.67
888.793	3710
888.961	9487.5
889.129	1534.69
889.296	435.06
889.464	1289.58
889.632	380.56
889.8	385.62
889.967	558.89
890.135	342.42
