Data from JASIL_3285_Reflection_1.txt Node
Date: Tue Nov 17 19:33:23 EST 2015
User: Geneva
Spectrometer: USB4E03002
Autoset integration time: false
Trigger mode: 4
Integration Time (sec): 1.000000E-1
Scans to average: 10
Electric dark correction enabled: false
Nonlinearity correction enabled: false
Boxcar width: 5
Stray light correction enabled: false
XAxis mode: Wavelengths
Stop averaging: false
Number of Pixels in Spectrum: 3648
>>>>>Begin Spectral Data<<<<<
177.575	82.18
177.794	-50
178.014	-113.48
178.233	-69.81
178.452	88.33
178.672	41.73
178.891	27.59
179.11	200
179.33	336.96
179.549	300
179.768	-2245.45
179.987	290.91
180.207	100.41
180.426	84.93
180.645	140
180.864	1611.76
181.084	198.19
181.303	134.37
181.522	158.62
181.741	110.67
181.96	211.11
182.179	394.12
182.398	207.79
182.618	121.89
182.837	89.52
183.056	94.54
183.275	135.56
183.494	104.63
183.713	69.61
183.932	60.11
184.151	63.92
184.37	61.18
184.589	51.97
184.808	44.88
185.027	40.35
185.246	23.74
185.465	28.75
185.684	35.34
185.903	9.39
186.122	23.75
186.341	-18.58
186.56	-45.24
186.779	-225.93
186.998	43.39
187.216	83.89
187.435	63.64
187.654	138.18
187.873	91.07
188.092	138.46
188.311	103.57
188.53	42.39
188.748	67.65
188.967	75.42
189.186	57.31
189.405	47.33
189.623	41.56
189.842	22.35
190.061	27.52
190.28	27.09
190.498	1.66
190.717	37.15
190.936	60.26
191.154	-1.65
191.373	80.46
191.592	-430.23
191.81	-247.57
192.029	-202.11
192.248	-55.39
192.466	-95.58
192.685	-7.37
192.904	-64.85
193.122	-26.01
193.341	-36.13
193.559	-140.11
193.778	-9.39
193.996	41.71
194.215	59.42
194.433	55
194.652	23.78
194.87	46.88
195.089	27.69
195.307	-215.79
195.526	209.18
195.744	112.95
195.963	-61.33
196.181	-33.06
196.399	-113.79
196.618	260.53
196.836	124.82
197.055	158.11
197.273	170.15
197.491	84.68
197.71	109.13
197.928	119.54
198.146	132.53
198.365	235.71
198.583	66.67
198.801	89.52
199.019	41.57
199.238	25.9
199.456	29.46
199.674	21.01
199.892	14.63
200.111	-2.58
200.329	-6.99
200.547	-21.47
200.765	519.61
200.983	-196.58
201.202	459.21
201.42	119.64
201.638	91.81
201.856	84.19
202.074	166.67
202.292	122.5
202.51	70.57
202.728	120.79
202.946	446.43
203.165	-19.23
203.383	10.11
203.601	1.52
203.819	53.64
204.037	263.64
204.255	-48.15
204.473	62.94
204.691	35.88
204.909	56.64
205.127	318.75
205.345	-102.42
205.562	146.51
205.78	109.69
205.998	78.83
206.216	100
206.434	108.38
206.652	170.34
206.87	381.44
207.088	361.9
207.306	333.53
207.523	235.29
207.741	120.55
207.959	163.06
208.177	92.23
208.395	133.82
208.612	50.46
208.83	48.92
209.048	15.16
209.266	-19.89
209.483	-21.41
209.701	-22.57
209.919	1.27
210.136	1.2
210.354	-4.23
210.572	14.91
210.79	5
211.007	47.89
211.225	-160
211.442	35.59
211.66	-116
211.878	31.23
212.095	-128.27
212.313	-206.78
212.53	-145.97
212.748	-131.87
212.966	-96.81
213.183	-140.86
213.401	2650
213.618	237.3
213.836	166.21
214.053	179.36
214.271	103.21
214.488	57.14
214.705	79.5
214.923	58.46
215.14	28.27
215.358	18.64
215.575	26.88
215.793	3.7
216.01	-86.26
216.227	-95.69
216.445	-64.58
216.662	62.5
216.879	-26.09
217.097	4.36
217.314	-7.78
217.531	575
217.749	85.15
217.966	65.38
218.183	62.98
218.4	20.65
218.618	-46.05
218.835	-18.47
219.052	-51.84
219.269	-54.88
219.487	9.06
219.704	3.88
219.921	-21.48
220.138	-25.29
220.355	-30.35
220.572	-45.33
220.79	-20.95
221.007	-19.43
221.224	-95.06
221.441	-8.71
221.658	-5.98
221.875	297.14
222.092	70.45
222.309	-430.3
222.526	-78.79
222.743	49.76
222.96	94.24
223.177	220.93
223.394	205.26
223.611	253.15
223.828	115.2
224.045	45.6
224.262	34.86
224.479	12.44
224.696	119.71
224.913	70.25
225.13	-133.02
225.347	-211.72
225.564	-105.1
225.781	-71.69
225.997	-45.95
226.214	-42.44
226.431	-33.29
226.648	-34.13
226.865	-26.79
227.082	-35.54
227.298	-15.33
227.515	-8.38
227.732	-3.59
227.949	-3.58
228.165	-6.4
228.382	-15.22
228.599	-14.58
228.816	-13.3
229.032	-6.74
229.249	-1.58
229.466	9.35
229.682	12.06
229.899	15.89
230.116	22.59
230.332	32.28
230.549	33.17
230.765	39.08
230.982	36.3
231.199	34.06
231.415	15.71
231.632	23.61
231.848	2.83
232.065	-2.59
232.281	-17
232.498	-11.05
232.714	-22.56
232.931	-14.71
233.147	-22.12
233.364	-12.13
233.58	-14.17
233.797	-11.29
234.013	-16.44
234.23	-3.35
234.446	-1.74
234.662	7.52
234.879	-38.43
235.095	-32.08
235.312	-32.23
235.528	-11.21
235.744	-65.44
235.961	-80.3
236.177	-53.83
236.393	-132.67
236.61	-78.01
236.826	-53.55
237.042	-39.92
237.258	-45.28
237.475	-44.97
237.691	-70.77
237.907	-95.11
238.123	-50.99
238.339	-39.16
238.556	-19.8
238.772	0.34
238.988	-13.28
239.204	-14.66
239.42	-8.52
239.636	2.01
239.853	5.56
240.069	12.23
240.285	17.08
240.501	19.82
240.717	16.12
240.933	14.06
241.149	11.72
241.365	14.4
241.581	12.53
241.797	12.26
242.013	10.99
242.229	7.9
242.445	-1.22
242.661	-3.42
242.877	-5.96
243.093	-3.14
243.309	-6.35
243.525	-9.79
243.741	-5.77
243.957	-2.91
244.173	-2
244.388	-0.37
244.604	3.37
244.82	6.8
245.036	9.63
245.252	9.64
245.468	9.61
245.683	8.91
245.899	10.51
246.115	8.21
246.331	7.62
246.547	8.42
246.762	7.47
246.978	7.43
247.194	7.57
247.409	5.95
247.625	5.06
247.841	2.68
248.057	5.53
248.272	6.99
248.488	3.09
248.703	0.3
248.919	-1.41
249.135	-2.22
249.35	-5.23
249.566	-8.6
249.782	-4.12
249.997	-1.98
250.213	-0.61
250.428	-0.59
250.644	-1.07
250.859	3.26
251.075	3.38
251.29	-0.17
251.506	-1.1
251.721	1.62
251.937	0.71
252.152	0.03
252.368	-0.6
252.583	-0.47
252.798	-5.69
253.014	-11.65
253.229	-12.21
253.445	-9.93
253.66	-9.24
253.875	-13.34
254.091	-22.11
254.306	-20.8
254.521	-31.41
254.737	-41.42
254.952	-38.33
255.167	-35.11
255.383	-31.3
255.598	-24.17
255.813	-26.36
256.028	-29.13
256.244	-18.45
256.459	-8.56
256.674	-2.12
256.889	1.28
257.104	3.28
257.32	2.5
257.535	2.58
257.75	4.42
257.965	2.47
258.18	2.66
258.395	3.19
258.61	2.99
258.826	0.78
259.041	0.53
259.256	-0.19
259.471	-1.3
259.686	-2.14
259.901	-2.47
260.116	-3.02
260.331	-1.07
260.546	0.88
260.761	2.56
260.976	2.63
261.191	4.4
261.406	2.91
261.621	4.62
261.836	8.25
262.05	9.11
262.265	10.44
262.48	8.03
262.695	4.56
262.91	-4.6
263.125	-7.83
263.34	-15.47
263.555	-19.2
263.769	-20.71
263.984	-23.72
264.199	-19.35
264.414	-14
264.629	-18.2
264.843	-10.74
265.058	-11.65
265.273	-8.55
265.488	-3.02
265.702	-1.66
265.917	1.84
266.132	3.29
266.346	7.02
266.561	5.01
266.776	2.99
266.99	5.16
267.205	4
267.42	2.21
267.634	0.57
267.849	-2.19
268.063	-5.36
268.278	-8.25
268.492	-9.59
268.707	-14.04
268.922	-11.92
269.136	-11.09
269.351	-8
269.565	-6.04
269.78	-5.13
269.994	-1.88
270.209	-2.61
270.423	0.41
270.637	-1.02
270.852	2.2
271.066	4.23
271.281	3.6
271.495	4.08
271.709	2.53
271.924	0.43
272.138	2.92
272.353	3.34
272.567	4.62
272.781	2.93
272.996	5.08
273.21	2.76
273.424	1.63
273.638	1.58
273.853	4.24
274.067	5.5
274.281	5.04
274.495	3.48
274.71	4.58
274.924	3.34
275.138	5.55
275.352	5.59
275.566	5.91
275.781	6.82
275.995	6.38
276.209	1.39
276.423	-1.85
276.637	-1.43
276.851	-1.56
277.065	-5.38
277.279	-7.65
277.493	-9.2
277.707	-8.92
277.921	-8.85
278.135	-5.77
278.349	-6.86
278.563	-6.03
278.777	-7.21
278.991	-8.1
279.205	-6.05
279.419	-8.14
279.633	-5.82
279.847	-4.39
280.061	-5.65
280.275	-4.34
280.489	-10.36
280.703	-8.31
280.917	-5.78
281.131	-3.95
281.344	-1.3
281.558	-2.77
281.772	-1.03
281.986	0.81
282.2	0.81
282.414	2.07
282.627	1.01
282.841	4.98
283.055	2.4
283.269	2.63
283.482	2.4
283.696	1.52
283.91	1.49
284.123	2.08
284.337	3.29
284.551	3.34
284.764	2.32
284.978	2.41
285.192	0.72
285.405	1.04
285.619	0.15
285.833	0.86
286.046	0.9
286.26	0.35
286.473	1.06
286.687	-2.52
286.9	-1.55
287.114	-0.77
287.327	0.09
287.541	0.58
287.754	2
287.968	2.58
288.181	3.55
288.395	5.41
288.608	6.43
288.822	6.67
289.035	7.37
289.248	7.2
289.462	7.23
289.675	6.19
289.889	6.82
290.102	6.59
290.315	6.43
290.529	6.32
290.742	3.59
290.955	4.88
291.169	3.66
291.382	3.39
291.595	2.13
291.808	3.12
292.022	2.68
292.235	3.36
292.448	3.1
292.661	3.86
292.875	3.14
293.088	3.3
293.301	-0
293.514	-0.6
293.727	-0.95
293.94	-1.48
294.153	-2.35
294.367	-1.04
294.58	-2.14
294.793	-3.11
295.006	-4.06
295.219	-4.56
295.432	-4.81
295.645	-2.45
295.858	-1.03
296.071	-0.49
296.284	1.16
296.497	1.19
296.71	1.66
296.923	1.44
297.136	2.79
297.349	3.6
297.562	4.95
297.775	5.62
297.988	4.51
298.201	5.09
298.414	5.76
298.626	3.72
298.839	3.69
299.052	2.64
299.265	3.36
299.478	3.01
299.691	0.66
299.903	0.42
300.116	0.76
300.329	0.69
300.542	-0.24
300.755	-0.35
300.967	1.71
301.18	1.52
301.393	2.04
301.605	0.31
301.818	-0.45
302.031	2.96
302.243	1.85
302.456	2.21
302.669	2.47
302.881	1.32
303.094	2.4
303.307	1.91
303.519	3.42
303.732	2.22
303.944	4.26
304.157	7.38
304.37	7.2
304.582	7.56
304.795	7.57
305.007	7.89
305.22	8.41
305.432	7.04
305.645	6.5
305.857	4.5
306.069	3.45
306.282	2.57
306.494	-1.62
306.707	-3.07
306.919	-2.53
307.132	-2.97
307.344	-3.74
307.556	-5.08
307.769	-5.69
307.981	-3.59
308.193	-1.87
308.406	0.07
308.618	-1.12
308.83	1.4
309.043	1.65
309.255	0.86
309.467	2.11
309.679	1.37
309.892	3.56
310.104	4.9
310.316	4.95
310.528	4.79
310.74	4.04
310.953	5.02
311.165	4.14
311.377	5.65
311.589	7.4
311.801	6.12
312.013	7.52
312.225	7.64
312.437	7.06
312.649	5.69
312.862	6.29
313.074	5.78
313.286	6.01
313.498	6.54
313.71	4.5
313.922	2.44
314.134	2.05
314.346	2.46
314.558	1.16
314.77	0.48
314.982	1.9
315.193	1.77
315.405	2.06
315.617	2.15
315.829	1.71
316.041	3.54
316.253	2.1
316.465	2.97
316.677	3.77
316.888	6.59
317.1	7.92
317.312	8.11
317.524	9.07
317.736	11.26
317.947	10.98
318.159	12.19
318.371	10.82
318.583	13.09
318.794	12.73
319.006	12.87
319.218	10.35
319.43	9.79
319.641	10
319.853	7.6
320.064	5.79
320.276	7.75
320.488	5.58
320.699	6.05
320.911	5.37
321.123	6.44
321.334	5.73
321.546	5.95
321.757	6.12
321.969	4.61
322.18	5.89
322.392	5.1
322.603	2.53
322.815	3.62
323.026	2.44
323.238	1.44
323.449	-0.36
323.661	0.05
323.872	0.16
324.083	0.39
324.295	0.25
324.506	0.96
324.718	1.88
324.929	3.88
325.14	5.92
325.352	5.71
325.563	6.31
325.774	7.83
325.986	7.72
326.197	7.18
326.408	6.41
326.62	7.72
326.831	6.87
327.042	7.03
327.253	6.48
327.464	5.26
327.676	5.81
327.887	4.9
328.098	5.72
328.309	4.73
328.52	6.06
328.732	6.19
328.943	5.59
329.154	5.28
329.365	5.53
329.576	6.43
329.787	6.44
329.998	7.94
330.209	9.81
330.42	8.42
330.631	10.1
330.842	10.99
331.053	11.15
331.264	12.3
331.475	12.27
331.686	14.26
331.897	12.99
332.108	12.17
332.319	11.43
332.53	10.45
332.741	12.04
332.952	10.32
333.163	8.71
333.374	11.55
333.585	10.6
333.795	11.1
334.006	9.4
334.217	10.18
334.428	10.51
334.639	11.13
334.849	12.93
335.06	12.48
335.271	14.62
335.482	13.33
335.692	12.28
335.903	11.41
336.114	12.88
336.325	13.49
336.535	12.86
336.746	13.65
336.957	11.99
337.167	9.66
337.378	10.32
337.589	9.21
337.799	9.51
338.01	8.74
338.22	9.61
338.431	7.51
338.642	7.2
338.852	7.62
339.063	7.07
339.273	7.76
339.484	9.79
339.694	8.23
339.905	8.41
340.115	10.34
340.326	10.29
340.536	10.09
340.746	10.46
340.957	10.57
341.167	10.26
341.378	10.8
341.588	9.41
341.799	9.47
342.009	9.55
342.219	9.38
342.43	9.23
342.64	8.83
342.85	8.92
343.061	9.46
343.271	8.39
343.481	8.2
343.691	8.76
343.902	11.12
344.112	11
344.322	11.09
344.532	11.81
344.743	12.24
344.953	12.36
345.163	11.32
345.373	11.02
345.583	12.51
345.793	13.16
346.004	12.46
346.214	12.24
346.424	10.85
346.634	11.19
346.844	11.01
347.054	11.05
347.264	10.9
347.474	10.59
347.684	10.09
347.894	8.91
348.104	8.32
348.314	6.33
348.524	4.33
348.734	5.7
348.944	4.81
349.154	3.41
349.364	2.09
349.574	2.33
349.784	4.18
349.994	3.78
350.204	3.58
350.413	2.86
350.623	4.64
350.833	7.44
351.043	7.79
351.253	8.35
351.463	7.62
351.672	8.47
351.882	6.94
352.092	7.47
352.302	8.7
352.511	9.86
352.721	10.32
352.931	10.23
353.141	9.02
353.35	7.84
353.56	7.87
353.77	9.94
353.979	10.14
354.189	11.38
354.399	10.35
354.608	10.17
354.818	8.83
355.027	9.68
355.237	9.41
355.447	9.9
355.656	10.07
355.866	9.99
356.075	9.3
356.285	9.86
356.494	9.69
356.704	10.38
356.913	9.88
357.123	10.24
357.332	9.85
357.542	10.34
357.751	10.68
357.96	10.6
358.17	11.12
358.379	9.85
358.589	9.04
358.798	9.37
359.007	9.5
359.217	10.12
359.426	10.03
359.635	11.01
359.845	9.86
360.054	8.8
360.263	8.94
360.472	8.81
360.682	10.34
360.891	10.23
361.1	9.81
361.309	9.75
361.519	8.85
361.728	8.99
361.937	8.52
362.146	9.74
362.355	10.22
362.564	9.19
362.774	8.87
362.983	7.86
363.192	7.34
363.401	7.95
363.61	7.84
363.819	8.4
364.028	7.85
364.237	8.25
364.446	7.92
364.655	6.46
364.864	7.4
365.073	6.7
365.282	5.57
365.491	6.69
365.7	7.15
365.909	6.02
366.118	6.04
366.327	6.79
366.536	5.57
366.745	4.98
366.954	5.91
367.162	5.95
367.371	6.69
367.58	7.92
367.789	7.83
367.998	6.81
368.207	6.86
368.415	8.71
368.624	8.64
368.833	8.22
369.042	8.64
369.25	7.59
369.459	7.4
369.668	7.2
369.877	7.39
370.085	6.87
370.294	7.79
370.503	8.64
370.711	6.92
370.92	6.71
371.129	7.55
371.337	7.71
371.546	8.67
371.754	9.06
371.963	9.88
372.171	10.09
372.38	9.8
372.589	9.94
372.797	9.22
373.006	9.64
373.214	9.09
373.423	8.92
373.631	8.32
373.84	7.4
374.048	7.48
374.256	6.85
374.465	7.7
374.673	8.77
374.882	6.67
375.09	6.83
375.298	6.22
375.507	5.77
375.715	5.34
375.923	6.37
376.132	8.11
376.34	7.51
376.548	7.65
376.757	6.98
376.965	5.95
377.173	7.62
377.381	7.93
377.59	8.16
377.798	9.27
378.006	9.47
378.214	8.73
378.423	8.22
378.631	8.3
378.839	8.28
379.047	9.21
379.255	10.51
379.463	10.89
379.671	11.18
379.879	11.07
380.088	9.86
380.296	11.06
380.504	11.49
380.712	11.18
380.92	11.42
381.128	12.06
381.336	10.59
381.544	9.13
381.752	7.84
381.96	7.3
382.168	6.66
382.376	8.85
382.584	7.52
382.791	6.85
382.999	6.27
383.207	5.76
383.415	4.81
383.623	5.43
383.831	6.09
384.039	6.57
384.247	7.35
384.454	8.37
384.662	7.01
384.87	7.37
385.078	6.96
385.285	7.35
385.493	8.29
385.701	8.99
385.909	9.27
386.116	9.08
386.324	7.59
386.532	6.32
386.739	5.77
386.947	5.58
387.155	5.12
387.362	5.9
387.57	5.36
387.778	3.78
387.985	2.59
388.193	1.71
388.4	1.09
388.608	2.54
388.816	3.94
389.023	4.23
389.231	5.33
389.438	5.97
389.646	6.01
389.853	6.98
390.061	7.9
390.268	7.83
390.475	7.2
390.683	7.01
390.89	7.14
391.098	6.75
391.305	6.49
391.512	6.62
391.72	6.48
391.927	6.99
392.135	6.57
392.342	6.71
392.549	6.7
392.756	7.45
392.964	7.66
393.171	7.97
393.378	7.29
393.586	7.51
393.793	6.76
394	7.14
394.207	5.96
394.414	6.13
394.622	6.53
394.829	7.41
395.036	7.29
395.243	7.76
395.45	7.41
395.657	6.88
395.864	7.04
396.072	7.58
396.279	6.3
396.486	6.23
396.693	5.89
396.9	5.8
397.107	5.78
397.314	5.62
397.521	5.54
397.728	5.6
397.935	6.33
398.142	6.84
398.349	6
398.556	7.29
398.763	7.7
398.97	8.52
399.177	7.94
399.383	8.41
399.59	9.08
399.797	9.2
400.004	8.68
400.211	8.61
400.418	7.92
400.625	8.67
400.831	8.23
401.038	8.55
401.245	7.46
401.452	7.41
401.658	6.87
401.865	6.72
402.072	6.32
402.279	7.09
402.485	7.62
402.692	7.44
402.899	6.57
403.105	6.59
403.312	6.47
403.519	6.99
403.725	6.99
403.932	6.84
404.138	6.94
404.345	7.15
404.552	6.84
404.758	6.9
404.965	6.58
405.171	7.14
405.378	7.41
405.584	7.66
405.791	7.74
405.997	7.67
406.204	7.96
406.41	8.16
406.617	8.02
406.823	7.84
407.029	7.56
407.236	8.63
407.442	8.29
407.649	8.13
407.855	7.62
408.061	7.7
408.268	8.45
408.474	8.63
408.68	7.84
408.887	8.14
409.093	8.45
409.299	8.54
409.505	8.15
409.712	8.57
409.918	8.04
410.124	7.34
410.33	6.89
410.537	6.43
410.743	5.67
410.949	6.45
411.155	5.91
411.361	5.17
411.567	4.9
411.773	4.87
411.98	4.97
412.186	5.36
412.392	6.59
412.598	6.51
412.804	6.25
413.01	6.56
413.216	6.3
413.422	6.34
413.628	7.61
413.834	7.32
414.04	6.84
414.246	6.23
414.452	6.11
414.658	5.16
414.864	5.72
415.07	5.84
415.275	5.15
415.481	5.21
415.687	5.74
415.893	5.08
416.099	6.08
416.305	6.31
416.511	6.61
416.716	6.7
416.922	6.96
417.128	6.87
417.334	6.8
417.539	7.55
417.745	7.88
417.951	7.38
418.157	7.63
418.362	7.32
418.568	7.32
418.774	7.07
418.979	7.01
419.185	7.24
419.391	7.1
419.596	7.13
419.802	6.87
420.008	6.29
420.213	6.7
420.419	6.41
420.624	6.22
420.83	6.32
421.035	6.87
421.241	6.93
421.446	7.04
421.652	7.18
421.857	7.48
422.063	7.85
422.268	7.9
422.474	7.64
422.679	7.56
422.885	7.4
423.09	7.34
423.295	7.06
423.501	6.84
423.706	6.62
423.911	6.83
424.117	6.5
424.322	6.47
424.527	6.67
424.733	6.93
424.938	7.01
425.143	7.21
425.349	7.1
425.554	6.91
425.759	7.16
425.964	6.91
426.169	6.75
426.375	7.24
426.58	6.73
426.785	6.54
426.99	6.31
427.195	6.34
427.4	6.19
427.605	6.65
427.811	6.99
428.016	6.93
428.221	7.56
428.426	7.21
428.631	6.73
428.836	6.72
429.041	6.67
429.246	6.82
429.451	6.95
429.656	7.02
429.861	6.86
430.066	6.67
430.271	6.66
430.476	6.28
430.681	6.13
430.886	6.11
431.09	6.3
431.295	6.67
431.5	6.8
431.705	6.87
431.91	6.92
432.115	6.64
432.32	6.64
432.524	6.83
432.729	6.94
432.934	7.35
433.139	7.05
433.343	7.05
433.548	6.76
433.753	6.4
433.958	6.51
434.162	6.57
434.367	6.74
434.572	6.38
434.776	6.31
434.981	6.39
435.186	5.9
435.39	6.5
435.595	6.3
435.799	6.36
436.004	6.41
436.209	6.09
436.413	6.12
436.618	6.06
436.822	6.72
437.027	6.98
437.231	6.71
437.436	6.73
437.64	6.79
437.845	7.16
438.049	7.46
438.253	7.33
438.458	7.34
438.662	7.36
438.867	7.58
439.071	7.42
439.275	7.25
439.48	7.58
439.684	7.86
439.888	7.74
440.093	7.69
440.297	7.5
440.501	7.64
440.706	7.89
440.91	7.61
441.114	7.53
441.318	7.56
441.523	7.58
441.727	7.12
441.931	7.45
442.135	7.53
442.339	7.41
442.543	7.32
442.748	7.44
442.952	7.06
443.156	6.91
443.36	6.57
443.564	6.56
443.768	6.74
443.972	7.4
444.176	7.02
444.38	7.03
444.584	7
444.788	6.92
444.992	7.07
445.196	7.28
445.4	7.55
445.604	7.51
445.808	7.37
446.012	6.87
446.216	7.04
446.42	7
446.624	7.06
446.828	7.06
447.032	7.02
447.235	7
447.439	6.77
447.643	6.77
447.847	7.3
448.051	7.16
448.254	7.65
448.458	7.16
448.662	7.01
448.866	7.01
449.069	6.96
449.273	7.25
449.477	7.03
449.681	7.3
449.884	7.23
450.088	6.59
450.292	6.78
450.495	6.51
450.699	6.29
450.902	6.5
451.106	6.31
451.31	6.18
451.513	6.28
451.717	6.48
451.92	6.23
452.124	6.51
452.327	6.7
452.531	6.87
452.734	7.11
452.938	7.34
453.141	7.22
453.345	7.04
453.548	7.35
453.752	6.88
453.955	6.48
454.158	6.44
454.362	6
454.565	5.88
454.769	6.08
454.972	5.98
455.175	5.87
455.379	6.28
455.582	6.63
455.785	6.05
455.988	6.17
456.192	6.02
456.395	6.11
456.598	6.61
456.801	7.05
457.005	6.66
457.208	6.28
457.411	6.3
457.614	5.98
457.817	5.7
458.021	5.94
458.224	5.95
458.427	6.23
458.63	6.11
458.833	6.39
459.036	6.1
459.239	5.97
459.442	5.94
459.645	5.8
459.848	6
460.051	6.11
460.254	6.4
460.457	6.38
460.66	6.27
460.863	6.46
461.066	6.18
461.269	6.16
461.472	6.74
461.675	7
461.878	7.07
462.081	6.91
462.284	7.26
462.486	6.87
462.689	6.82
462.892	7.02
463.095	7.36
463.298	6.8
463.5	7.01
463.703	6.65
463.906	6.95
464.109	7.26
464.311	7.47
464.514	6.8
464.717	6.65
464.92	7.23
465.122	7.01
465.325	6.54
465.528	6.45
465.73	6.65
465.933	6.59
466.135	6.11
466.338	5.61
466.541	5.52
466.743	6.06
466.946	6.32
467.148	5.95
467.351	5.79
467.553	5.87
467.756	6.42
467.958	6.05
468.161	6.18
468.363	6.67
468.566	6.99
468.768	6.75
468.971	6.63
469.173	7.11
469.375	7.25
469.578	7.31
469.78	7.27
469.983	7.05
470.185	7.15
470.387	7.2
470.59	6.6
470.792	6.34
470.994	6.35
471.196	6.09
471.399	5.51
471.601	5.53
471.803	5.28
472.005	4.91
472.208	5.18
472.41	4.88
472.612	4.3
472.814	5.16
473.016	5.42
473.218	5.73
473.421	5.6
473.623	5.75
473.825	5.61
474.027	6.22
474.229	7.03
474.431	6.71
474.633	6.9
474.835	7.12
475.037	6.75
475.239	6.87
475.441	6.62
475.643	7.07
475.845	7.03
476.047	7.12
476.249	6.59
476.451	6.32
476.653	6.49
476.855	6.37
477.057	6.41
477.258	6.01
477.46	5.83
477.662	5.91
477.864	5.85
478.066	6.15
478.268	6.17
478.469	6.73
478.671	6.55
478.873	6.31
479.075	6.48
479.276	6.64
479.478	6.8
479.68	6.97
479.882	7.13
480.083	7.02
480.285	6.68
480.487	6.99
480.688	6.96
480.89	6.94
481.091	7.17
481.293	7.13
481.495	7.06
481.696	7.07
481.898	7.13
482.099	7.13
482.301	7.07
482.502	7.15
482.704	6.96
482.905	6.89
483.107	6.99
483.308	6.92
483.51	6.91
483.711	6.95
483.913	7.05
484.114	6.96
484.315	6.75
484.517	6.83
484.718	6.84
484.92	6.96
485.121	6.96
485.322	6.87
485.524	6.92
485.725	7
485.926	6.99
486.127	6.88
486.329	6.76
486.53	6.78
486.731	6.66
486.932	6.51
487.134	6.46
487.335	6.45
487.536	6.49
487.737	6.58
487.938	6.58
488.139	6.58
488.341	6.5
488.542	6.7
488.743	6.88
488.944	6.95
489.145	6.86
489.346	6.8
489.547	6.78
489.748	6.78
489.949	6.54
490.15	6.54
490.351	6.39
490.552	6.36
490.753	6.24
490.954	6.22
491.155	6.23
491.356	6.31
491.557	6.25
491.758	6.27
491.959	6.3
492.159	6.38
492.36	6.2
492.561	6.34
492.762	6.42
492.963	6.46
493.164	6.54
493.364	6.52
493.565	6.83
493.766	6.92
493.967	6.93
494.167	7
494.368	6.66
494.569	6.89
494.769	6.92
494.97	6.89
495.171	7.03
495.371	7.01
495.572	7.12
495.773	7.22
495.973	7.11
496.174	7.1
496.375	7.3
496.575	7.4
496.776	7.33
496.976	7.1
497.177	7.13
497.377	7.11
497.578	6.95
497.778	6.69
497.979	6.59
498.179	6.53
498.38	6.26
498.58	5.89
498.78	6.14
498.981	6.19
499.181	6.24
499.382	6.22
499.582	6.2
499.782	6.43
499.983	6.54
500.183	6.64
500.383	6.81
500.584	7.03
500.784	7.01
500.984	7.18
501.184	6.96
501.385	7.02
501.585	7.17
501.785	7.07
501.985	6.59
502.185	6.47
502.386	6.51
502.586	6.61
502.786	6.63
502.986	6.42
503.186	6.33
503.386	6.58
503.586	6.67
503.786	6.75
503.987	7.04
504.187	7.16
504.387	7.67
504.587	7.36
504.787	7.36
504.987	7.53
505.187	7.7
505.387	7.52
505.587	7.49
505.786	7.55
505.986	7.6
506.186	7.35
506.386	8.06
506.586	8
506.786	8.17
506.986	8.22
507.186	8.2
507.386	8.42
507.585	8.75
507.785	8.96
507.985	8.96
508.185	8.94
508.384	9.43
508.584	9.04
508.784	8.97
508.984	9.07
509.183	9
509.383	9.11
509.583	9.19
509.782	8.89
509.982	8.91
510.182	9.05
510.381	9.01
510.581	8.61
510.781	8.72
510.98	8.76
511.18	8.75
511.379	8.74
511.579	8.73
511.778	8.61
511.978	8.87
512.177	8.92
512.377	9.1
512.576	9.1
512.776	8.87
512.975	8.89
513.175	8.95
513.374	9.04
513.573	9.19
513.773	9.24
513.972	9.42
514.172	9.56
514.371	9.42
514.57	9.25
514.77	9.29
514.969	9.39
515.168	9.49
515.367	9.68
515.567	9.35
515.766	9.61
515.965	9.61
516.164	9.52
516.364	9.27
516.563	9.46
516.762	9.71
516.961	10.09
517.16	10.34
517.359	10.32
517.559	9.95
517.758	10.36
517.957	10.05
518.156	10.2
518.355	10.38
518.554	10.53
518.753	10.35
518.952	10.08
519.151	9.84
519.35	10.05
519.549	10.2
519.748	10.5
519.947	10.18
520.146	10.42
520.345	10.3
520.544	9.86
520.743	9.87
520.942	9.9
521.141	9.82
521.339	9.92
521.538	9.8
521.737	9.7
521.936	9.7
522.135	9.84
522.333	9.95
522.532	10.08
522.731	10.54
522.93	10.55
523.129	10.58
523.327	11.08
523.526	11.04
523.725	10.98
523.923	11.19
524.122	11.23
524.321	11.29
524.519	11.46
524.718	11.53
524.917	11.6
525.115	11.47
525.314	11.59
525.512	11.6
525.711	11.61
525.909	11.52
526.108	11.58
526.306	11.54
526.505	11.47
526.703	11.29
526.902	11.27
527.1	11.19
527.299	11.22
527.497	11.28
527.696	11.17
527.894	11.18
528.092	11.3
528.291	11.17
528.489	11.23
528.688	11.43
528.886	11.49
529.084	11.6
529.283	11.75
529.481	11.93
529.679	12
529.877	12.11
530.076	12.3
530.274	12.62
530.472	12.61
530.67	12.73
530.869	12.74
531.067	12.84
531.265	12.79
531.463	12.74
531.661	12.9
531.859	12.91
532.057	12.91
532.255	12.85
532.454	12.54
532.652	12.68
532.85	12.65
533.048	12.53
533.246	12.54
533.444	12.39
533.642	12.42
533.84	12.51
534.038	12.48
534.236	12.52
534.434	12.55
534.632	12.68
534.83	12.61
535.027	12.61
535.225	12.9
535.423	13.01
535.621	13.18
535.819	13.09
536.017	12.98
536.215	13.38
536.412	13.44
536.61	13.32
536.808	13.45
537.006	13.69
537.203	13.67
537.401	13.38
537.599	13.29
537.797	13.27
537.994	13.42
538.192	13.36
538.39	12.94
538.587	13.07
538.785	13.31
538.983	13.39
539.18	13.49
539.378	13.59
539.575	13.73
539.773	13.8
539.97	13.97
540.168	14.18
540.366	14.23
540.563	14.29
540.761	14.29
540.958	14.23
541.155	14.33
541.353	14.4
541.55	14.46
541.748	14.54
541.945	14.56
542.143	14.54
542.34	14.47
542.537	14.56
542.735	14.61
542.932	14.66
543.129	14.96
543.327	14.92
543.524	14.59
543.721	14.69
543.919	14.81
544.116	14.94
544.313	15.21
544.51	15.38
544.708	15.46
544.905	15.2
545.102	15.2
545.299	15.33
545.496	15.24
545.693	15.49
545.891	15.47
546.088	15.27
546.285	15.2
546.482	15.17
546.679	15.02
546.876	15.14
547.073	15.42
547.27	15.46
547.467	15.22
547.664	15.41
547.861	15.42
548.058	15.7
548.255	15.85
548.452	16
548.649	15.98
548.846	16.51
549.043	16.31
549.24	16.72
549.437	16.63
549.633	16.62
549.83	16.4
550.027	16.39
550.224	16.41
550.421	16.49
550.618	16.65
550.814	16.75
551.011	16.24
551.208	16.33
551.405	16.21
551.601	16.48
551.798	16.55
551.995	16.85
552.191	17.42
552.388	17.67
552.585	18.23
552.781	18.19
552.978	18.13
553.175	18.2
553.371	18.07
553.568	18.11
553.764	17.88
553.961	17.96
554.157	17.86
554.354	17.24
554.55	16.52
554.747	16.1
554.943	16.47
555.14	16.84
555.336	17.32
555.533	17.31
555.729	17.46
555.926	18.07
556.122	18.72
556.318	19.14
556.515	19.35
556.711	20.22
556.907	20.21
557.104	20.01
557.3	19.9
557.496	20.01
557.693	20.18
557.889	20.23
558.085	19.95
558.281	19.81
558.478	19.62
558.674	20.03
558.87	19.86
559.066	19.73
559.262	19.72
559.459	19.5
559.655	19.38
559.851	19.22
560.047	19.39
560.243	19.49
560.439	19.66
560.635	19.88
560.831	19.9
561.027	19.84
561.223	20.1
561.419	20.55
561.615	20.96
561.811	20.72
562.007	21.27
562.203	21.37
562.399	21.64
562.595	21.15
562.791	21.28
562.987	21.1
563.183	21.04
563.379	21.17
563.575	20.87
563.771	20.4
563.966	20.78
564.162	20.64
564.358	20.87
564.554	20.9
564.75	21.37
564.945	21.23
565.141	21.81
565.337	21.93
565.533	22.26
565.728	22.36
565.924	22.85
566.12	22.97
566.315	23.37
566.511	23.16
566.707	23.45
566.902	23.42
567.098	23.88
567.293	23.65
567.489	24.13
567.684	24.18
567.88	24.59
568.076	24.54
568.271	24.91
568.467	24.53
568.662	24.38
568.858	24.42
569.053	24.6
569.248	24.56
569.444	24.73
569.639	24.64
569.835	24.72
570.03	24.6
570.225	24.87
570.421	24.72
570.616	24.81
570.812	25.14
571.007	25.32
571.202	25.56
571.397	25.59
571.593	25.51
571.788	25.52
571.983	25.15
572.178	25.23
572.374	24.87
572.569	24.89
572.764	25.31
572.959	25.32
573.154	25.11
573.35	25.13
573.545	24.95
573.74	25.25
573.935	25.27
574.13	25.88
574.325	25.85
574.52	26.36
574.715	26.54
574.91	26.59
575.105	26.89
575.3	27.05
575.495	26.84
575.69	27.34
575.885	27.15
576.08	27.12
576.275	27.39
576.47	27.92
576.665	27.85
576.86	27.69
577.055	27.74
577.25	27.64
577.444	27.94
577.639	28.17
577.834	27.89
578.029	28.36
578.224	28.63
578.418	28.27
578.613	28.06
578.808	28.43
579.003	28.48
579.197	28.45
579.392	28.71
579.587	29.02
579.781	28.81
579.976	29.33
580.171	29.37
580.365	29.68
580.56	29.6
580.755	29.41
580.949	28.93
581.144	29.26
581.338	29.63
581.533	29.08
581.727	28.91
581.922	29.3
582.116	28.64
582.311	28.59
582.505	28.77
582.7	29.19
582.894	29.62
583.089	29.99
583.283	29.85
583.478	29.96
583.672	30.48
583.866	30.29
584.061	30.21
584.255	30.53
584.449	30.68
584.644	30.54
584.838	30.6
585.032	30.4
585.226	30.27
585.421	30.59
585.615	30.51
585.809	30.47
586.003	30.6
586.198	31.12
586.392	31.31
586.586	31.09
586.78	31.15
586.974	30.91
587.168	31.34
587.363	31.91
587.557	31.89
587.751	32.02
587.945	32.56
588.139	32.32
588.333	31.61
588.527	31.34
588.721	31.57
588.915	31.31
589.109	31.16
589.303	31.12
589.497	30.98
589.691	30.95
589.885	30.6
590.079	30.41
590.273	30.83
590.466	31.53
590.66	31.93
590.854	31.88
591.048	32.41
591.242	33.06
591.436	33.17
591.629	33.34
591.823	33.32
592.017	33.94
592.211	33.79
592.404	33.92
592.598	33.93
592.792	34.19
592.986	34.15
593.179	33.89
593.373	33.63
593.567	33.52
593.76	33.52
593.954	33.52
594.147	33.3
594.341	33.15
594.535	33.1
594.728	32.94
594.922	32.8
595.115	32.95
595.309	33.18
595.502	33.23
595.696	33.32
595.889	33.45
596.083	33.74
596.276	33.65
596.47	33.98
596.663	34.05
596.856	34.25
597.05	34.45
597.243	34.56
597.437	34.77
597.63	34.77
597.823	34.57
598.017	34.28
598.21	33.72
598.403	33.5
598.596	33.24
598.79	33.14
598.983	33.18
599.176	32.82
599.369	32.46
599.563	31.88
599.756	31.87
599.949	32.05
600.142	32.31
600.335	32.65
600.528	33.36
600.722	33.47
600.915	33.55
601.108	33.67
601.301	34.1
601.494	34.26
601.687	34.48
601.88	35.04
602.073	34.89
602.266	34.89
602.459	35.42
602.652	35.14
602.845	35.21
603.038	35.16
603.231	34.88
603.424	35.06
603.617	34.87
603.809	35.26
604.002	34.88
604.195	34.97
604.388	34.77
604.581	34.54
604.774	35.14
604.966	35.4
605.159	35.31
605.352	35.6
605.545	35
605.737	35.28
605.93	35.07
606.123	35.08
606.316	35.1
606.508	35.36
606.701	35.11
606.894	34.46
607.086	34.17
607.279	34.78
607.471	34.58
607.664	34.9
607.857	35.45
608.049	35.75
608.242	35.74
608.434	35.99
608.627	36.4
608.819	36.72
609.012	36.95
609.204	36.85
609.397	36.33
609.589	36.84
609.782	36.96
609.974	36.79
610.166	36.09
610.359	36
610.551	36.2
610.743	35.65
610.936	35.19
611.128	35.45
611.32	36.29
611.513	36.57
611.705	36.39
611.897	36.82
612.09	36.76
612.282	37.09
612.474	37.35
612.666	37.61
612.858	37.86
613.051	38.41
613.243	38.05
613.435	37.62
613.627	37.76
613.819	37.14
614.011	35.63
614.203	36.04
614.395	36.26
614.588	36.56
614.78	36.03
614.972	36.56
615.164	36.66
615.356	37.12
615.548	36.99
615.74	36.77
615.932	36.64
616.124	38.27
616.315	38.38
616.507	38.53
616.699	38.31
616.891	38.36
617.083	38.12
617.275	38.41
617.467	37.92
617.659	38.29
617.85	38.52
618.042	39.94
618.234	39.16
618.426	38.93
618.618	38.73
618.809	39.18
619.001	39.57
619.193	39.63
619.384	39.48
619.576	39.28
619.768	38.73
619.959	38.33
620.151	38.04
620.343	38.46
620.534	38.26
620.726	38.74
620.917	38.5
621.109	38.07
621.301	38.09
621.492	37.95
621.684	38.11
621.875	38.68
622.067	38.32
622.258	37.81
622.45	38.01
622.641	37.97
622.832	38.63
623.024	38.1
623.215	38.31
623.407	38.08
623.598	37.62
623.789	37.75
623.981	37.27
624.172	38.38
624.363	38.33
624.555	38.18
624.746	38.07
624.937	37.4
625.129	38.13
625.32	37.56
625.511	37.68
625.702	37.54
625.893	37.7
626.085	37.8
626.276	37.63
626.467	37.64
626.658	37.57
626.849	37.74
627.04	38.57
627.231	38.73
627.422	39.15
627.614	39.02
627.805	38.95
627.996	38.85
628.187	39.56
628.378	39.96
628.569	39.92
628.76	39.56
628.951	39.62
629.142	38.95
629.332	38.12
629.523	38.37
629.714	38.94
629.905	39.93
630.096	39.62
630.287	38.92
630.478	38.53
630.669	38.61
630.859	38.66
631.05	38.79
631.241	38.06
631.432	38.61
631.623	38.21
631.813	37.55
632.004	37.49
632.195	37.74
632.385	38.35
632.576	38.12
632.767	37.98
632.957	38.55
633.148	38.17
633.339	38.27
633.529	38.12
633.72	38.49
633.91	38.86
634.101	39.12
634.292	39.58
634.482	39.33
634.673	39.58
634.863	39.4
635.054	38.9
635.244	40.1
635.435	40.74
635.625	40.44
635.815	40.33
636.006	40.25
636.196	40
636.387	40.72
636.577	41.17
636.767	41.35
636.958	41.5
637.148	42.54
637.338	42.14
637.529	41.98
637.719	41.86
637.909	41.8
638.099	41.77
638.29	41.09
638.48	40.02
638.67	39.17
638.86	39.38
639.05	39.66
639.241	38.99
639.431	39.06
639.621	39.49
639.811	39.89
640.001	40.97
640.191	41.13
640.381	41.71
640.571	42.3
640.761	43.14
640.951	43.14
641.141	43.65
641.331	44.09
641.521	43.33
641.711	43.37
641.901	43.7
642.091	43.6
642.281	43.3
642.471	43.79
642.661	43.93
642.851	43.07
643.041	42.33
643.231	42.3
643.42	41.97
643.61	42.34
643.8	42.39
643.99	42.35
644.18	41.89
644.369	42.72
644.559	41.79
644.749	40.64
644.939	41.07
645.128	41.83
645.318	41.27
645.508	41.34
645.697	40.74
645.887	40.24
646.076	40.57
646.266	40.96
646.456	40.41
646.645	40.99
646.835	42.07
647.024	42.6
647.214	42.16
647.403	42.36
647.593	42.22
647.782	42.83
647.972	42.78
648.161	42.77
648.351	42.32
648.54	42.72
648.73	42.5
648.919	42.31
649.108	41.7
649.298	41.98
649.487	42.54
649.677	43.61
649.866	43.91
650.055	43.55
650.244	43.27
650.434	42.96
650.623	42.52
650.812	42.97
651.002	42.86
651.191	42.75
651.38	42.88
651.569	42.96
651.758	42.23
651.947	41.58
652.137	42.09
652.326	42.05
652.515	42.4
652.704	42.83
652.893	41.56
653.082	41.28
653.271	41.63
653.46	41.02
653.649	40.34
653.838	39.79
654.027	41.36
654.216	41.4
654.405	41.91
654.594	41.71
654.783	41.66
654.972	42.15
655.161	41.87
655.35	42.18
655.539	42.83
655.728	42.75
655.916	42.44
656.105	41.66
656.294	41.58
656.483	40.89
656.672	41.36
656.86	41
657.049	41.27
657.238	41.34
657.427	41.06
657.615	40.82
657.804	41
657.993	41.47
658.181	41.54
658.37	41.54
658.559	40.96
658.747	40.3
658.936	40.19
659.125	41.08
659.313	41.21
659.502	41.1
659.69	41.02
659.879	41.52
660.067	41.98
660.256	42.25
660.444	42.85
660.633	43.36
660.821	44.26
661.01	44.56
661.198	44.15
661.387	44.65
661.575	44.92
661.763	45.35
661.952	44.72
662.14	44.37
662.328	43.71
662.517	43.72
662.705	44.49
662.893	44.09
663.082	44.13
663.27	43.78
663.458	43.97
663.646	44.4
663.834	43.85
664.023	44.07
664.211	43.95
664.399	44.39
664.587	43.74
664.775	43.61
664.963	43.05
665.152	43.38
665.34	42.81
665.528	43.23
665.716	43.19
665.904	43.98
666.092	43.75
666.28	44.52
666.468	43.44
666.656	43.53
666.844	44.34
667.032	44.17
667.22	44.78
667.408	45.24
667.596	44.82
667.784	45.56
667.971	45.61
668.159	46.07
668.347	45.26
668.535	46.68
668.723	46.29
668.911	44.94
669.098	44.84
669.286	44.19
669.474	44.79
669.662	45.52
669.849	44.16
670.037	44.15
670.225	44.12
670.413	42.97
670.6	41.38
670.788	41.27
670.976	42.22
671.163	43.55
671.351	43.28
671.538	43.1
671.726	42.24
671.913	42.75
672.101	42.38
672.289	42.66
672.476	44.23
672.664	45.21
672.851	44.64
673.039	44.47
673.226	44.26
673.413	44.66
673.601	44.44
673.788	44.56
673.976	44.72
674.163	45.2
674.35	44.02
674.538	44.18
674.725	44.1
674.912	44.44
675.1	43.66
675.287	43.56
675.474	43.97
675.662	44.17
675.849	44.15
676.036	43.63
676.223	42.83
676.411	43.29
676.598	42.72
676.785	42.94
676.972	43.41
677.159	43.93
677.346	43.01
677.533	42.92
677.721	42.74
677.908	42.8
678.095	42.82
678.282	43.21
678.469	42.28
678.656	42.68
678.843	42.71
679.03	42.36
679.217	41.95
679.404	42.39
679.591	42.13
679.778	42.3
679.964	42.65
680.151	42.65
680.338	41.97
680.525	43.17
680.712	43.9
680.899	43.65
681.086	45
681.272	46.35
681.459	46.94
681.646	46.67
681.833	46.4
682.02	46.27
682.206	47.12
682.393	47.25
682.58	47.36
682.766	48.64
682.953	48.93
683.14	48.52
683.326	47.2
683.513	47.11
683.7	47.29
683.886	48.13
684.073	48.15
684.259	47.53
684.446	48.56
684.632	48.9
684.819	45.92
685.005	45.39
685.192	44.68
685.378	46.03
685.565	45.19
685.751	45.23
685.938	44.42
686.124	43.17
686.31	42.96
686.497	42.22
686.683	42.77
686.87	43.98
687.056	44.19
687.242	43.73
687.429	42.84
687.615	42.71
687.801	43.1
687.987	42.94
688.174	43.38
688.36	43.63
688.546	43.57
688.732	43
688.918	41.64
689.105	41.96
689.291	43.57
689.477	43.71
689.663	44.36
689.849	45.02
690.035	45.45
690.221	45.62
690.407	46.53
690.593	47.04
690.779	46.18
690.965	47.95
691.151	47.94
691.337	47.54
691.523	47.06
691.709	47.63
691.895	46.33
692.081	46.26
692.267	46.34
692.453	45.21
692.639	45.74
692.825	45.82
693.011	44.51
693.196	45.13
693.382	45.32
693.568	45.95
693.754	46.69
693.94	47.71
694.125	48.37
694.311	48.21
694.497	48.51
694.682	48.26
694.868	49.62
695.054	49.7
695.239	49.84
695.425	48.98
695.611	48.09
695.796	46.88
695.982	46.47
696.168	45.77
696.353	46.2
696.539	45.86
696.724	45.43
696.91	44.7
697.095	45.01
697.281	45.1
697.466	45.2
697.652	45.54
697.837	44.9
698.023	44.63
698.208	44.7
698.393	45.16
698.579	45.39
698.764	44.69
698.949	43.8
699.135	44.54
699.32	44.52
699.505	44.97
699.691	45.7
699.876	46.36
700.061	46.28
700.246	46.53
700.432	46.09
700.617	46.44
700.802	46.13
700.987	47.82
701.172	45.03
701.358	44.09
701.543	43.17
701.728	42.93
701.913	43.14
702.098	43.02
702.283	42.82
702.468	42.94
702.653	42.46
702.838	43.62
703.023	42.51
703.208	45.45
703.393	46.89
703.578	46.39
703.763	46.64
703.948	47.4
704.133	48.97
704.318	48.82
704.503	48.84
704.688	49.52
704.873	49.46
705.057	50.53
705.242	50.06
705.427	48.26
705.612	48.82
705.797	48.42
705.981	47.69
706.166	46.63
706.351	46.75
706.536	46.3
706.72	45.97
706.905	45.89
707.09	45.36
707.274	45.9
707.459	46.42
707.644	47.88
707.828	47.29
708.013	48.19
708.197	47.84
708.382	46.74
708.567	46.87
708.751	46.66
708.936	47.24
709.12	48.82
709.305	47.33
709.489	45.62
709.673	44.38
709.858	44.4
710.042	44.12
710.227	45.7
710.411	47.54
710.596	47.18
710.78	47.39
710.964	47.06
711.149	45.46
711.333	45.74
711.517	46.8
711.702	48.15
711.886	48.28
712.07	48.29
712.254	46.97
712.438	46.62
712.623	46.08
712.807	45.79
712.991	44.92
713.175	45.02
713.359	44.74
713.544	45.79
713.728	45.63
713.912	45.39
714.096	46.36
714.28	46.55
714.464	46.22
714.648	47.64
714.832	48.66
715.016	49.83
715.2	50.26
715.384	50.9
715.568	50.65
715.752	48.52
715.936	48.88
716.12	47.83
716.304	47.73
716.488	48.32
716.671	48.95
716.855	50.12
717.039	49.34
717.223	50.58
717.407	51.03
717.59	50.71
717.774	52.1
717.958	52.12
718.142	51.81
718.325	52.69
718.509	51.4
718.693	52.87
718.877	51.55
719.06	53.68
719.244	51.07
719.428	52.7
719.611	52.69
719.795	53.09
719.978	53.4
720.162	53.68
720.345	52.69
720.529	54.51
720.713	51.65
720.896	52.01
721.08	51.95
721.263	53.67
721.446	50.43
721.63	52.18
721.813	52.27
721.997	52.67
722.18	52.75
722.364	53.48
722.547	51.47
722.73	52.43
722.914	51.8
723.097	49.88
723.28	48.03
723.464	50.45
723.647	48.81
723.83	49.04
724.013	51.29
724.197	51.19
724.38	51.82
724.563	53.28
724.746	53.99
724.929	52.73
725.112	54.17
725.296	54.17
725.479	52.71
725.662	52.18
725.845	50.95
726.028	49.13
726.211	48.75
726.394	47.79
726.577	47.77
726.76	45.71
726.943	46.51
727.126	47.45
727.309	47.96
727.492	48.13
727.675	48.68
727.858	49.4
728.041	48.41
728.224	47.61
728.407	46.78
728.589	47.75
728.772	49.7
728.955	50.69
729.138	49.88
729.321	51.01
729.503	51.78
729.686	50.34
729.869	48.88
730.052	48.97
730.234	51.13
730.417	51.45
730.6	50.66
730.782	49.39
730.965	47.99
731.148	48.2
731.33	47.54
731.513	47.21
731.695	48.73
731.878	50.06
732.061	50.22
732.243	48.44
732.426	48.45
732.608	47.18
732.791	47.18
732.973	47.77
733.156	47.88
733.338	47.81
733.52	46.88
733.703	45.36
733.885	46.61
734.068	45.42
734.25	48.04
734.432	50.31
734.615	51.46
734.797	53.48
734.979	53.89
735.162	52.71
735.344	52.56
735.526	52.76
735.708	54.63
735.891	52.41
736.073	52.42
736.255	51.82
736.437	50.33
736.619	49.26
736.802	47.26
736.984	47.11
737.166	47.17
737.348	47.83
737.53	47.46
737.712	46.59
737.894	47.47
738.076	49.47
738.258	48.17
738.44	48.38
738.622	50.83
738.804	52.88
738.986	51.34
739.168	52.83
739.35	53.46
739.532	55.39
739.714	56.14
739.896	57.73
740.078	57.27
740.259	56.88
740.441	55.71
740.623	55.23
740.805	53.61
740.987	53.72
741.168	53.07
741.35	51.61
741.532	51.47
741.714	52.09
741.895	49.57
742.077	50.59
742.259	51.49
742.44	52.25
742.622	50.34
742.804	48.81
742.985	51.01
743.167	51.31
743.348	52.35
743.53	53.13
743.711	52.53
743.893	52.81
744.075	53.82
744.256	52.62
744.438	51.26
744.619	53.88
744.8	53.69
744.982	51.29
745.163	51.52
745.345	49.95
745.526	47.85
745.707	48.2
745.889	49.49
746.07	48.16
746.252	50.46
746.433	50.39
746.614	47.93
746.795	50.52
746.977	52.57
747.158	53.38
747.339	54.82
747.52	55.16
747.702	54.71
747.883	54.88
748.064	55.9
748.245	53.47
748.426	55.24
748.607	55.32
748.788	53.9
748.97	52.85
749.151	51.5
749.332	51.07
749.513	50.54
749.694	51
749.875	49.94
750.056	47.82
750.237	50.89
750.418	52.06
750.599	53.17
750.78	52.74
750.96	53.21
751.141	52.01
751.322	52.27
751.503	54.04
751.684	54.92
751.865	52.78
752.046	53.44
752.226	50.76
752.407	47.6
752.588	46.61
752.769	49.04
752.949	47.26
753.13	47.04
753.311	45.56
753.492	41.72
753.672	39.58
753.853	44.37
754.034	40.56
754.214	42.51
754.395	42.98
754.575	44.42
754.756	41.32
754.937	41.31
755.117	40.12
755.298	42.63
755.478	46.42
755.659	46.45
755.839	45.76
756.02	48.11
756.2	47.49
756.381	48.33
756.561	49.26
756.741	49.42
756.922	50.89
757.102	52.18
757.283	48.03
757.463	46.68
757.643	48.02
757.823	46.78
758.004	44.68
758.184	42.81
758.364	42.56
758.545	43.11
758.725	44.34
758.905	43.54
759.085	45.13
759.265	45.18
759.446	42.91
759.626	42.78
759.806	43.52
759.986	47.41
760.166	48.14
760.346	50.21
760.526	48.47
760.706	47.3
760.886	48.7
761.066	49.12
761.246	50.84
761.426	51.91
761.606	50.01
761.786	48.24
761.966	47.38
762.146	47.64
762.326	46.58
762.506	46.37
762.686	46.06
762.866	46.5
763.046	45.06
763.225	45.89
763.405	46.48
763.585	46.16
763.765	47.26
763.945	47.94
764.124	47.79
764.304	47.13
764.484	47.72
764.664	48.13
764.843	46.38
765.023	48.98
765.203	47.24
765.382	46.54
765.562	49.34
765.741	49.23
765.921	49.69
766.101	50.54
766.28	52.56
766.46	50.71
766.639	51.88
766.819	53.97
766.998	52.41
767.178	51.78
767.357	54.19
767.537	52.59
767.716	53.02
767.896	50.56
768.075	49.79
768.254	47.5
768.434	49.49
768.613	50.11
768.792	51.22
768.972	51.34
769.151	53.02
769.33	51.06
769.51	53.04
769.689	53.83
769.868	54.36
770.047	54.28
770.226	57.66
770.406	56.56
770.585	55.01
770.764	52.04
770.943	51.82
771.122	53.65
771.301	55.23
771.48	54
771.66	52.14
771.839	52.51
772.018	55.1
772.197	54.09
772.376	53.31
772.555	53.79
772.734	53.95
772.913	53.28
773.092	52.2
773.271	51.39
773.449	54.3
773.628	56.57
773.807	59.69
773.986	57.28
774.165	55.21
774.344	59.5
774.523	59.87
774.701	61.87
774.88	63.8
775.059	61.41
775.238	61.1
775.417	59.35
775.595	57.93
775.774	56.33
775.953	58.6
776.131	60.84
776.31	60.38
776.489	59.71
776.667	57.28
776.846	57.12
777.025	62.33
777.203	62.57
777.382	60.14
777.56	58.24
777.739	57.15
777.917	53.85
778.096	51.83
778.274	49.98
778.453	47.53
778.631	49.03
778.81	49.3
778.988	48.61
779.166	49.23
779.345	48.66
779.523	49.52
779.702	52.58
779.88	54.95
780.058	53.27
780.237	51.98
780.415	52.98
780.593	50.86
780.771	47.58
780.95	45.17
781.128	44.82
781.306	46.56
781.484	46.78
781.662	46.04
781.841	42.73
782.019	44.73
782.197	46.85
782.375	48.53
782.553	47.47
782.731	50.68
782.909	50.49
783.087	50.23
783.265	48.76
783.443	49.26
783.621	50.25
783.799	52.23
783.977	52.29
784.155	52.37
784.333	54.09
784.511	57.17
784.689	58.02
784.867	60.21
785.045	58.36
785.223	57.99
785.4	58.23
785.578	55.65
785.756	56.05
785.934	53.68
786.112	52.43
786.289	51.12
786.467	49.09
786.645	51.44
786.823	48.01
787	45.96
787.178	45.47
787.356	44.78
787.533	43.76
787.711	43.91
787.889	45.72
788.066	43.36
788.244	42.72
788.421	42.16
788.599	38.28
788.776	39.81
788.954	44.27
789.131	46.97
789.309	47.7
789.486	47.31
789.664	47.68
789.841	50.35
790.019	52.11
790.196	56.78
790.373	60.92
790.551	59.35
790.728	58.42
790.906	55.17
791.083	52.62
791.26	50.89
791.437	50.49
791.615	51.82
791.792	48.86
791.969	49.62
792.146	45.4
792.324	41.06
792.501	43.48
792.678	48.4
792.855	46.93
793.032	45.41
793.209	45.6
793.387	50.05
793.564	47.09
793.741	49.43
793.918	49.38
794.095	53.04
794.272	54.15
794.449	51.84
794.626	46.06
794.803	50.27
794.98	51.18
795.157	53.76
795.334	52
795.511	54.85
795.688	51.61
795.864	51.35
796.041	47.23
796.218	48.29
796.395	51.3
796.572	50.73
796.749	50.05
796.925	50.62
797.102	49.45
797.279	46.88
797.456	45.32
797.632	46.52
797.809	44.46
797.986	44.35
798.162	44
798.339	44.24
798.516	45.9
798.692	43.61
798.869	43.12
799.046	44.06
799.222	46.36
799.399	45.47
799.575	43.53
799.752	45.18
799.928	47.28
800.105	48.62
800.281	45.75
800.458	44.63
800.634	43.71
800.811	45.56
800.987	45.36
801.163	46.1
801.34	47.1
801.516	48.05
801.692	50.47
801.869	51.3
802.045	49.32
802.221	47.95
802.398	50.84
802.574	54.1
802.75	54.59
802.926	53.6
803.103	53.67
803.279	56.48
803.455	59.49
803.631	60.08
803.807	59.36
803.983	61.42
804.16	66.58
804.336	58.95
804.512	57.92
804.688	53.91
804.864	51.93
805.04	48.98
805.216	48.61
805.392	47.07
805.568	47.55
805.744	45.62
805.92	44.23
806.096	41.65
806.272	52.09
806.448	53.4
806.623	55.79
806.799	55.3
806.975	52.39
807.151	53.65
807.327	49.48
807.503	45.98
807.678	46.03
807.854	46.84
808.03	47.95
808.206	45.39
808.381	42.67
808.557	44.21
808.733	45.69
808.908	50.27
809.084	46.15
809.26	49.56
809.435	48.52
809.611	51.04
809.787	49.43
809.962	51.91
810.138	53.49
810.313	51.72
810.489	50.43
810.664	50.6
810.84	51.98
811.015	53.11
811.191	52.58
811.366	54.68
811.542	55.4
811.717	53.88
811.892	50.44
812.068	47.97
812.243	51.51
812.419	50
812.594	49.1
812.769	50.7
812.944	51.71
813.12	49.67
813.295	48.05
813.47	44.13
813.645	48.99
813.821	44.21
813.996	41.73
814.171	41.44
814.346	44.44
814.521	44.72
814.697	42.63
814.872	38.07
815.047	38.06
815.222	40.89
815.397	40.62
815.572	35.8
815.747	40.8
815.922	42.71
816.097	40.3
816.272	36.61
816.447	37.7
816.622	36.64
816.797	40.6
816.972	42.21
817.147	41.5
817.322	44.18
817.496	42.93
817.671	41.36
817.846	42.75
818.021	43.08
818.196	46.73
818.371	46.04
818.545	48.47
818.72	49.35
818.895	47.89
819.069	43.78
819.244	43
819.419	45.89
819.594	46.2
819.768	41.87
819.943	43.62
820.117	42.06
820.292	42.19
820.467	40.3
820.641	40.21
820.816	40.24
820.99	41.22
821.165	40.16
821.339	39.07
821.514	38.12
821.688	38.81
821.863	38.42
822.037	38.12
822.212	37.53
822.386	36.79
822.56	35.66
822.735	36.03
822.909	35.61
823.084	35.08
823.258	35.13
823.432	35.49
823.606	35.02
823.781	33.9
823.955	34.35
824.129	33.81
824.303	34.12
824.478	34.28
824.652	33.71
824.826	32.8
825	34.43
825.174	34.34
825.348	34.4
825.523	35.31
825.697	36.56
825.871	35.45
826.045	37.41
826.219	37.92
826.393	38.59
826.567	38.32
826.741	38.78
826.915	37.99
827.089	39.64
827.263	38.87
827.437	37.81
827.611	37.48
827.784	37.68
827.958	36.36
828.132	35.84
828.306	35.31
828.48	36.41
828.654	38.62
828.827	38.72
829.001	37.89
829.175	40.01
829.349	41.51
829.522	41.96
829.696	41.46
829.87	41.69
830.044	43.86
830.217	44.6
830.391	44.42
830.565	43.23
830.738	42.69
830.912	42.87
831.085	40.99
831.259	38.32
831.432	35.97
831.606	37.45
831.779	36.3
831.953	38.07
832.126	37.37
832.3	38.49
832.473	38.87
832.647	38.66
832.82	35.3
832.994	33.44
833.167	36.32
833.34	34.99
833.514	34.63
833.687	34.5
833.86	31.94
834.034	32.37
834.207	28.36
834.38	26.03
834.553	25.01
834.727	25.83
834.9	30.24
835.073	28.17
835.246	33.4
835.419	33.21
835.593	35.22
835.766	34.47
835.939	35.57
836.112	38.5
836.285	39.39
836.458	38.68
836.631	39.22
836.804	37.47
836.977	36.54
837.15	26.01
837.323	25
837.496	21.13
837.669	26.01
837.842	26.07
838.015	32.64
838.188	28.89
838.361	31.93
838.533	37.79
838.706	38.12
838.879	38.26
839.052	37.29
839.225	38.73
839.398	41.71
839.57	42.43
839.743	38.78
839.916	35.49
840.088	36.79
840.261	41.17
840.434	40.88
840.607	36.3
840.779	31.5
840.952	43.42
841.124	42.81
841.297	41.79
841.47	42.18
841.642	53.58
841.815	49.07
841.987	58.93
842.16	52.89
842.332	52.77
842.505	57.16
842.677	59.09
842.85	60.53
843.022	59
843.194	57.85
843.367	55.68
843.539	55.42
843.712	61.57
843.884	59.87
844.056	60.17
844.229	57.11
844.401	54.28
844.573	63.24
844.745	58.42
844.918	64.12
845.09	66.11
845.262	70.88
845.434	75.25
845.606	69.17
845.779	74.02
845.951	72.99
846.123	78.26
846.295	71.49
846.467	81.59
846.639	85.99
846.811	83.19
846.983	85.01
847.155	70.32
847.327	65.16
847.499	61.52
847.671	57.41
847.843	48.38
848.015	41.35
848.187	47.86
848.359	45.28
848.531	39.64
848.703	35.87
848.875	31.34
849.047	35.16
849.218	34.66
849.39	28.51
849.562	25.79
849.734	56.15
849.905	57.48
850.077	68.46
850.249	58.46
850.421	54.99
850.592	63.87
850.764	58.38
850.936	53.81
851.107	55.94
851.279	69.93
851.451	59.35
851.622	46.88
851.794	63.53
851.965	67.21
852.137	76.44
852.308	77.69
852.48	79.12
852.651	83.65
852.823	90.71
852.994	94.56
853.166	105.78
853.337	110.41
853.509	117.12
853.68	101.42
853.851	90.58
854.023	76.39
854.194	82.8
854.365	97.01
854.537	90.32
854.708	96.54
854.879	82.73
855.05	76.36
855.222	74.14
855.393	80.32
855.564	80.87
855.735	88.97
855.906	82.92
856.078	72
856.249	62.48
856.42	58.71
856.591	48.67
856.762	50.08
856.933	48.52
857.104	50.89
857.275	35.36
857.446	39.52
857.617	39.58
857.788	46.63
857.959	48.8
858.13	49.35
858.301	48.89
858.472	50.41
858.643	44.87
858.814	51.18
858.985	58.26
859.155	63.49
859.326	45.06
859.497	26.47
859.668	22.89
859.839	35.64
860.009	28.7
860.18	41.29
860.351	63.94
860.522	51.75
860.692	41.48
860.863	39.24
861.034	56.73
861.204	57.97
861.375	62.63
861.546	64.14
861.716	61.26
861.887	64.89
862.057	70.83
862.228	79.3
862.398	90.61
862.569	100.52
862.739	119.44
862.91	100.99
863.08	99.74
863.251	99.17
863.421	94.7
863.592	109.08
863.762	101.73
863.932	75.27
864.103	57.76
864.273	51.29
864.443	35.97
864.614	21.1
864.784	9.63
864.954	18.44
865.125	24.15
865.295	22.64
865.465	16.39
865.635	18.21
865.805	27.65
865.976	32.84
866.146	43.69
866.316	55.3
866.486	69.69
866.656	88.93
866.826	100.19
866.996	103.96
867.166	130.69
867.336	80.12
867.506	76.37
867.676	76.48
867.846	64.73
868.016	64.18
868.186	62.78
868.356	60.74
868.526	52.67
868.696	51.42
868.866	42.02
869.036	48.63
869.206	51.07
869.376	38.33
869.545	45.84
869.715	61.68
869.885	68.53
870.055	60.09
870.224	60.91
870.394	64.9
870.564	78.41
870.734	75.11
870.903	67.14
871.073	83.37
871.243	97.37
871.412	92.86
871.582	80.41
871.751	57.76
871.921	61.9
872.091	76.03
872.26	56.68
872.43	42.35
872.599	47.64
872.769	51.57
872.938	64.42
873.108	56.92
873.277	46.25
873.446	49.11
873.616	71.55
873.785	70.27
873.955	59.98
874.124	72.1
874.293	70.22
874.463	53.47
874.632	47.61
874.801	32.52
874.971	36.71
875.14	25.03
875.309	29.32
875.478	8.17
875.647	20.03
875.817	22.67
875.986	24.95
876.155	28.78
876.324	41.76
876.493	32.01
876.662	35.8
876.831	25.78
877	34.47
877.17	36.83
877.339	47.55
877.508	53.27
877.677	54.13
877.846	56.64
878.015	56.1
878.184	49.24
878.352	58.01
878.521	58.84
878.69	60.18
878.859	55.77
879.028	49.51
879.197	44.84
879.366	45.39
879.534	43.84
879.703	35.91
879.872	32.03
880.041	31.9
880.21	34.54
880.378	31.27
880.547	33.83
880.716	33.03
880.884	34.46
881.053	30.81
881.222	28.62
881.39	31.45
881.559	30.08
881.727	30.55
881.896	29.78
882.065	28.7
882.233	29.48
882.402	28.11
882.57	28.88
882.739	25.17
882.907	27.05
883.076	26.87
883.244	24.68
883.412	27.01
883.581	27.48
883.749	27.85
883.918	29.09
884.086	29.76
884.254	30.63
884.423	31.5
884.591	38.39
884.759	38.75
884.927	38.51
885.096	35.43
885.264	35.74
885.432	37.28
885.6	37.59
885.769	38.88
885.937	41.97
886.105	39.94
886.273	36.55
886.441	31.65
886.609	36.2
886.777	38.95
886.945	42.67
887.113	47.99
887.281	50.33
887.449	53.31
887.617	48.27
887.785	44.87
887.953	46.88
888.121	47.1
888.289	44.02
888.457	36.2
888.625	40.56
888.793	46.36
888.961	41.76
889.129	34.79
889.296	36.69
889.464	35.94
889.632	29.52
889.8	25.04
889.967	43.18
890.135	55.62
