Data from JASIL_2969_Reflection_2.txt Node
Date: Sat Nov 07 21:38:42 EST 2015
User: Geneva
Spectrometer: USB4E03002
Autoset integration time: false
Trigger mode: 4
Integration Time (sec): 1.000000E-1
Scans to average: 10
Electric dark correction enabled: true
Nonlinearity correction enabled: false
Boxcar width: 5
Stray light correction enabled: false
XAxis mode: Wavelengths
Stop averaging: false
Number of Pixels in Spectrum: 3648
>>>>>Begin Spectral Data<<<<<
177.575	383.48
177.794	196.35
178.014	101.89
178.233	23.94
178.452	-28.79
178.672	-16.21
178.891	39.41
179.11	98.45
179.33	105.64
179.549	69.46
179.768	136.19
179.987	137.36
180.207	37.05
180.426	134.28
180.645	90.47
180.864	86.79
181.084	86.86
181.303	82.64
181.522	95.08
181.741	92.7
181.96	60.58
182.179	67.35
182.398	65.73
182.618	69.7
182.837	62.92
183.056	85.25
183.275	57.51
183.494	56.05
183.713	69.09
183.932	88.61
184.151	51.81
184.37	70.95
184.589	43.41
184.808	74.8
185.027	60.28
185.246	70.14
185.465	45.38
185.684	32.98
185.903	36.56
186.122	32.65
186.341	22.97
186.56	30.91
186.779	11.83
186.998	5.22
187.216	9.51
187.435	-5.58
187.654	-49.52
187.873	-40.17
188.092	-56.79
188.311	-34.84
188.53	-37.31
188.748	-30.22
188.967	-70.47
189.186	-28.53
189.405	-37.08
189.623	-118.12
189.842	-52.23
190.061	-41.13
190.28	-70.93
190.498	-79.91
190.717	-99.78
190.936	-91.49
191.154	-192.31
191.373	-246.48
191.592	-492.63
191.81	2023.91
192.029	913.44
192.248	2526.23
192.466	-411.92
192.685	-203.97
192.904	-87.79
193.122	-77.92
193.341	-149.59
193.559	-19.1
193.778	-0.27
193.996	15.58
194.215	10.97
194.433	9.49
194.652	22.02
194.87	20.91
195.089	35.31
195.307	32.59
195.526	36.51
195.744	49.99
195.963	49.1
196.181	55.34
196.399	45.89
196.618	65.63
196.836	72.63
197.055	76.07
197.273	66.31
197.491	58.66
197.71	62.64
197.928	61.84
198.146	43.36
198.365	29.2
198.583	15.81
198.801	32.45
199.019	11.13
199.238	9.66
199.456	17.59
199.674	11.7
199.892	14.09
200.111	-3.39
200.329	9.51
200.547	2.22
200.765	15.77
200.983	5.25
201.202	34.12
201.42	47.6
201.638	32.77
201.856	26.56
202.074	42.41
202.292	17.9
202.51	21.44
202.728	11.82
202.946	10.44
203.165	-2.26
203.383	-5.36
203.601	-24.78
203.819	-28.73
204.037	17.07
204.255	17.39
204.473	27.94
204.691	61.74
204.909	50.8
205.127	57.65
205.345	65.36
205.562	55.74
205.78	61.93
205.998	66.48
206.216	64.54
206.434	50.81
206.652	48.77
206.87	38.6
207.088	24.95
207.306	28.08
207.523	24
207.741	-6.07
207.959	-5.98
208.177	-14.33
208.395	-38.23
208.612	-74.61
208.83	-65.75
209.048	-56.2
209.266	-97.15
209.483	-144.13
209.701	-158.68
209.919	-116.92
210.136	-72.85
210.354	-12.58
210.572	2.15
210.79	16.27
211.007	17.01
211.225	15.47
211.442	6.67
211.66	12.42
211.878	17.48
212.095	49.63
212.313	50.59
212.53	49.27
212.748	43.26
212.966	45.31
213.183	42.02
213.401	41.34
213.618	45.95
213.836	46.77
214.053	47.69
214.271	44.34
214.488	-13.63
214.705	-31.94
214.923	-27.13
215.14	-12.56
215.358	-3.13
215.575	12.99
215.793	29.65
216.01	23.66
216.227	23.61
216.445	2.59
216.662	8.72
216.879	13.35
217.097	26.83
217.314	19.1
217.531	5.87
217.749	-17.96
217.966	-15.61
218.183	-10.88
218.4	-13.7
218.618	-8.55
218.835	-0.44
219.052	-7.95
219.269	-3.34
219.487	-0.57
219.704	-2.85
219.921	-2.67
220.138	8.43
220.355	4.33
220.572	1.11
220.79	2.49
221.007	10.35
221.224	9.08
221.441	17.27
221.658	10.16
221.875	12.02
222.092	12.59
222.309	8.83
222.526	6.31
222.743	4.14
222.96	0.94
223.177	5.52
223.394	2.57
223.611	3.56
223.828	1.94
224.045	3.65
224.262	1.11
224.479	1.25
224.696	5.46
224.913	6.13
225.13	8.21
225.347	8.31
225.564	5.84
225.781	7.03
225.997	8.35
226.214	8.75
226.431	10.94
226.648	10.13
226.865	10.31
227.082	10.44
227.298	10.05
227.515	8.95
227.732	8.74
227.949	8.78
228.165	7.92
228.382	6.87
228.599	6.86
228.816	6.18
229.032	5.67
229.249	6.38
229.466	5.24
229.682	4.8
229.899	5.72
230.116	6.81
230.332	7.82
230.549	9.61
230.765	11.47
230.982	11.38
231.199	11.37
231.415	11.74
231.632	10.39
231.848	11.85
232.065	12.3
232.281	12.9
232.498	11.67
232.714	11.32
232.931	9.5
233.147	10.18
233.364	9.7
233.58	11.03
233.797	10.67
234.013	10.32
234.23	9.16
234.446	10.4
234.662	9.83
234.879	10.61
235.095	9.52
235.312	9.69
235.528	8.04
235.744	8
235.961	7.11
236.177	7.37
236.393	7.75
236.61	8.09
236.826	6.66
237.042	7.43
237.258	7.56
237.475	7.98
237.691	7.69
237.907	7.94
238.123	8.53
238.339	7.85
238.556	7.78
238.772	8.31
238.988	8.8
239.204	8.54
239.42	7.17
239.636	7.14
239.853	7.34
240.069	7.5
240.285	7.75
240.501	7.72
240.717	7.7
240.933	7.9
241.149	7.51
241.365	7.8
241.581	7.9
241.797	8.17
242.013	7.97
242.229	8.1
242.445	8.16
242.661	7.87
242.877	7.75
243.093	7.89
243.309	8.04
243.525	8.02
243.741	7.36
243.957	8
244.173	8.05
244.388	7.57
244.604	7.03
244.82	6.93
245.036	6.56
245.252	6.84
245.468	6.71
245.683	6.66
245.899	7.05
246.115	7.02
246.331	6.63
246.547	6.45
246.762	6.46
246.978	6.64
247.194	6.62
247.409	6.96
247.625	6.78
247.841	6.71
248.057	6.85
248.272	6.63
248.488	6.56
248.703	6.51
248.919	6.85
249.135	7.23
249.35	6.98
249.566	6.71
249.782	6.08
249.997	6.23
250.213	6.48
250.428	6.52
250.644	6.12
250.859	6.4
251.075	6.58
251.29	6.35
251.506	5.88
251.721	6.04
251.937	6.48
252.152	6.83
252.368	6.8
252.583	6.84
252.798	6.7
253.014	7.1
253.229	6.75
253.445	6.36
253.66	6.19
253.875	6.43
254.091	6.03
254.306	5.54
254.521	5.01
254.737	5.12
254.952	4.95
255.167	4.6
255.383	4.72
255.598	5.55
255.813	5.86
256.028	5.84
256.244	6.3
256.459	6.08
256.674	6.19
256.889	6.35
257.104	6.24
257.32	5.94
257.535	5.79
257.75	5.48
257.965	5.14
258.18	5
258.395	4.92
258.61	4.65
258.826	4.79
259.041	4.63
259.256	4.67
259.471	4.68
259.686	4.76
259.901	4.74
260.116	4.75
260.331	4.73
260.546	4.73
260.761	4.66
260.976	4.76
261.191	4.51
261.406	4.5
261.621	4.37
261.836	4
262.05	3.68
262.265	3.5
262.48	3.69
262.695	3.77
262.91	3.9
263.125	3.81
263.34	3.71
263.555	4.18
263.769	4.1
263.984	4.27
264.199	4.68
264.414	4.97
264.629	5.03
264.843	4.69
265.058	4.6
265.273	4.83
265.488	5.14
265.702	5.15
265.917	5.67
266.132	5.8
266.346	5.74
266.561	5.66
266.776	5.51
266.99	5.7
267.205	5.62
267.42	5.63
267.634	5.36
267.849	5.37
268.063	5.26
268.278	4.41
268.492	4.46
268.707	4.42
268.922	4.22
269.136	4.42
269.351	4.42
269.565	4.65
269.78	4.58
269.994	4.34
270.209	4.19
270.423	4.45
270.637	4.64
270.852	4.5
271.066	4.51
271.281	4.61
271.495	4.61
271.709	4.73
271.924	4.8
272.138	4.56
272.353	4.75
272.567	4.82
272.781	4.57
272.996	4.81
273.21	4.74
273.424	4.63
273.638	4.57
273.853	4.58
274.067	4.16
274.281	3.91
274.495	3.96
274.71	4.03
274.924	4.09
275.138	4.09
275.352	3.93
275.566	3.94
275.781	4.05
275.995	4.17
276.209	4.21
276.423	4.24
276.637	4.07
276.851	4.27
277.065	4.38
277.279	4.34
277.493	4.73
277.707	4.54
277.921	4.78
278.135	4.93
278.349	4.82
278.563	4.64
278.777	4.67
278.991	4.95
279.205	5.15
279.419	4.95
279.633	4.77
279.847	4.45
280.061	4.56
280.275	4.57
280.489	4.39
280.703	4.43
280.917	4.29
281.131	4.51
281.344	4.35
281.558	4.21
281.772	4.38
281.986	4.46
282.2	4.54
282.414	4.49
282.627	4.32
282.841	4.47
283.055	4.36
283.269	4.29
283.482	3.93
283.696	4.09
283.91	4.34
284.123	4.19
284.337	4.15
284.551	4.23
284.764	4.12
284.978	4.27
285.192	4.05
285.405	4.26
285.619	4.52
285.833	4.47
286.046	4.31
286.26	4.14
286.473	4.01
286.687	4.12
286.9	4.19
287.114	4.38
287.327	4.61
287.541	4.75
287.754	4.44
287.968	3.93
288.181	4.32
288.395	4.47
288.608	4.36
288.822	4.6
289.035	4.56
289.248	4.35
289.462	4.47
289.675	4.5
289.889	4.5
290.102	4.73
290.315	5.17
290.529	5.17
290.742	5.11
290.955	5.11
291.169	4.98
291.382	5.04
291.595	4.98
291.808	4.59
292.022	4.55
292.235	4.34
292.448	4.34
292.661	4.34
292.875	4.37
293.088	4.34
293.301	4.29
293.514	4.31
293.727	4.2
293.94	4.37
294.153	4.7
294.367	4.54
294.58	4.69
294.793	4.52
295.006	4.46
295.219	4.51
295.432	4.63
295.645	4.86
295.858	4.88
296.071	4.97
296.284	4.96
296.497	4.83
296.71	4.87
296.923	4.74
297.136	4.8
297.349	4.91
297.562	4.8
297.775	4.79
297.988	4.71
298.201	4.89
298.414	4.84
298.626	4.77
298.839	4.81
299.052	4.83
299.265	5.03
299.478	4.91
299.691	4.84
299.903	4.89
300.116	4.83
300.329	4.8
300.542	4.51
300.755	4.36
300.967	4.51
301.18	4.51
301.393	4.34
301.605	4.22
301.818	4.34
302.031	4.36
302.243	4.2
302.456	4.4
302.669	4.37
302.881	4.69
303.094	4.8
303.307	4.9
303.519	5.12
303.732	5.36
303.944	5.58
304.157	5.71
304.37	5.92
304.582	6.2
304.795	6.11
305.007	6.22
305.22	6.02
305.432	6.06
305.645	5.87
305.857	5.85
306.069	5.81
306.282	5.77
306.494	5.76
306.707	5.48
306.919	5.37
307.132	5.24
307.344	5.17
307.556	5.21
307.769	5.32
307.981	5.3
308.193	5.32
308.406	5.19
308.618	5.34
308.83	5.2
309.043	5.35
309.255	5.35
309.467	5.52
309.679	5.78
309.892	5.84
310.104	5.83
310.316	5.89
310.528	5.71
310.74	5.95
310.953	6.01
311.165	6.17
311.377	5.98
311.589	5.93
311.801	5.78
312.013	5.67
312.225	5.76
312.437	5.88
312.649	5.94
312.862	6.13
313.074	5.88
313.286	5.68
313.498	5.67
313.71	6.15
313.922	6.16
314.134	6.27
314.346	6.17
314.558	6.08
314.77	5.85
314.982	5.74
315.193	5.82
315.405	5.83
315.617	5.91
315.829	5.83
316.041	5.62
316.253	5.72
316.465	5.68
316.677	5.73
316.888	5.82
317.1	6.13
317.312	6.48
317.524	6.4
317.736	6.55
317.947	6.51
318.159	6.74
318.371	6.68
318.583	6.63
318.794	6.85
319.006	6.94
319.218	6.84
319.43	6.44
319.641	6.23
319.853	6.25
320.064	6.43
320.276	6.55
320.488	6.33
320.699	6.26
320.911	6.51
321.123	6.54
321.334	6.45
321.546	6.37
321.757	6.82
321.969	6.96
322.18	7.09
322.392	6.68
322.603	6.61
322.815	6.62
323.026	6.85
323.238	6.75
323.449	6.72
323.661	6.72
323.872	6.96
324.083	6.78
324.295	6.68
324.506	6.37
324.718	6.43
324.929	6.62
325.14	6.88
325.352	6.87
325.563	7.04
325.774	7.02
325.986	7.08
326.197	6.94
326.408	6.86
326.62	6.85
326.831	7.06
327.042	7.32
327.253	7.21
327.464	7.17
327.676	7.08
327.887	6.93
328.098	6.8
328.309	6.86
328.52	6.84
328.732	7.26
328.943	7.45
329.154	7.67
329.365	7.45
329.576	7.45
329.787	7.2
329.998	7.21
330.209	7.25
330.42	7.4
330.631	7.29
330.842	7.4
331.053	7.26
331.264	7.07
331.475	7.06
331.686	7.2
331.897	7.21
332.108	7.18
332.319	7.2
332.53	7.25
332.741	7.11
332.952	7.15
333.163	7.1
333.374	7.01
333.585	7.03
333.795	6.73
334.006	6.68
334.217	6.58
334.428	6.69
334.639	6.59
334.849	6.57
335.06	6.77
335.271	6.84
335.482	6.66
335.692	6.8
335.903	6.69
336.114	6.72
336.325	6.85
336.535	6.94
336.746	6.8
336.957	6.91
337.167	6.85
337.378	6.66
337.589	6.59
337.799	6.77
338.01	6.72
338.22	6.84
338.431	6.79
338.642	6.65
338.852	6.52
339.063	6.38
339.273	6.29
339.484	6.2
339.694	6.24
339.905	6.22
340.115	6.12
340.326	5.87
340.536	5.97
340.746	6.07
340.957	6
341.167	6
341.378	6.23
341.588	6.43
341.799	6.39
342.009	6.43
342.219	6.39
342.43	6.45
342.64	6.39
342.85	6.31
343.061	6.26
343.271	6.19
343.481	6.36
343.691	6.23
343.902	6.01
344.112	5.82
344.322	5.93
344.532	5.98
344.743	6.03
344.953	6.05
345.163	5.98
345.373	6
345.583	6.11
345.793	5.97
346.004	5.93
346.214	6.03
346.424	6.32
346.634	6.35
346.844	6.23
347.054	6.17
347.264	6.38
347.474	6.3
347.684	6.14
347.894	6.16
348.104	6.1
348.314	6.24
348.524	6.21
348.734	6.3
348.944	6.09
349.154	6.22
349.364	6.13
349.574	5.93
349.784	5.96
349.994	6.08
350.204	5.8
350.413	5.76
350.623	5.73
350.833	5.61
351.043	5.4
351.253	5.45
351.463	5.36
351.672	5.27
351.882	5.43
352.092	5.5
352.302	5.5
352.511	5.7
352.721	5.67
352.931	5.72
353.141	5.69
353.35	5.68
353.56	5.58
353.77	5.55
353.979	5.8
354.189	5.71
354.399	5.72
354.608	5.64
354.818	5.66
355.027	5.76
355.237	5.73
355.447	5.82
355.656	5.89
355.866	5.96
356.075	5.94
356.285	5.83
356.494	5.72
356.704	5.72
356.913	5.74
357.123	5.68
357.332	5.61
357.542	5.72
357.751	5.74
357.96	5.63
358.17	5.65
358.379	5.63
358.589	5.7
358.798	5.79
359.007	5.78
359.217	5.68
359.426	5.66
359.635	5.66
359.845	5.65
360.054	5.57
360.263	5.54
360.472	5.55
360.682	5.6
360.891	5.56
361.1	5.55
361.309	5.51
361.519	5.58
361.728	5.61
361.937	5.59
362.146	5.46
362.355	5.43
362.564	5.52
362.774	5.51
362.983	5.34
363.192	5.23
363.401	5.23
363.61	5.24
363.819	5.22
364.028	5.17
364.237	5.23
364.446	5.48
364.655	5.48
364.864	5.46
365.073	5.44
365.282	5.52
365.491	5.54
365.7	5.47
365.909	5.39
366.118	5.49
366.327	5.47
366.536	5.41
366.745	5.17
366.954	5.15
367.162	5.07
367.371	5
367.58	4.93
367.789	4.93
367.998	4.95
368.207	5.04
368.415	4.98
368.624	4.89
368.833	4.85
369.042	4.88
369.25	4.94
369.459	4.95
369.668	4.83
369.877	4.97
370.085	5.04
370.294	4.91
370.503	4.98
370.711	4.83
370.92	4.86
371.129	4.89
371.337	4.91
371.546	4.82
371.754	4.77
371.963	4.9
372.171	4.79
372.38	4.69
372.589	4.79
372.797	4.7
373.006	4.77
373.214	4.78
373.423	4.73
373.631	4.66
373.84	4.66
374.048	4.62
374.256	4.6
374.465	4.57
374.673	4.53
374.882	4.45
375.09	4.36
375.298	4.22
375.507	4.22
375.715	4.14
375.923	4.09
376.132	4.07
376.34	4.04
376.548	3.99
376.757	4.08
376.965	4.1
377.173	4.18
377.381	4.19
377.59	4.23
377.798	4.16
378.006	4.25
378.214	4.32
378.423	4.36
378.631	4.47
378.839	4.45
379.047	4.41
379.255	4.34
379.463	4.26
379.671	4.16
379.879	4.14
380.088	4.11
380.296	4.11
380.504	4.03
380.712	4.08
380.92	4.07
381.128	4.1
381.336	4.11
381.544	4.11
381.752	4.07
381.96	4.09
382.168	4.13
382.376	4.19
382.584	4.09
382.791	4.13
382.999	3.94
383.207	3.89
383.415	3.76
383.623	3.68
383.831	3.69
384.039	3.67
384.247	3.63
384.454	3.71
384.662	3.75
384.87	3.82
385.078	3.76
385.285	3.89
385.493	3.93
385.701	4.01
385.909	4.04
386.116	4.06
386.324	4.14
386.532	4.16
386.739	4.02
386.947	3.92
387.155	3.81
387.362	3.79
387.57	3.79
387.778	3.69
387.985	3.7
388.193	3.69
388.4	3.8
388.608	3.64
388.816	3.68
389.023	3.64
389.231	3.63
389.438	3.67
389.646	3.59
389.853	3.49
390.061	3.41
390.268	3.36
390.475	3.28
390.683	3.19
390.89	3.18
391.098	3.18
391.305	3.2
391.512	3.18
391.72	3.15
391.927	3.2
392.135	3.24
392.342	3.31
392.549	3.28
392.756	3.27
392.964	3.22
393.171	3.26
393.378	3.2
393.586	3.19
393.793	3.23
394	3.11
394.207	3.11
394.414	3.16
394.622	3.14
394.829	3.11
395.036	3.08
395.243	3.11
395.45	3.12
395.657	3.09
395.864	3.04
396.072	3.13
396.279	3.29
396.486	3.31
396.693	3.22
396.9	3.24
397.107	3.18
397.314	3.22
397.521	3.18
397.728	3.15
397.935	3.13
398.142	3.18
398.349	3.07
398.556	3.04
398.763	3.04
398.97	2.98
399.177	2.98
399.383	3.06
399.59	3.03
399.797	3.03
400.004	2.95
400.211	2.97
400.418	2.9
400.625	2.94
400.831	2.89
401.038	2.85
401.245	2.79
401.452	2.72
401.658	2.72
401.865	2.78
402.072	2.76
402.279	2.91
402.485	2.91
402.692	2.98
402.899	2.92
403.105	3
403.312	2.99
403.519	3.04
403.725	3.15
403.932	3.15
404.138	3.06
404.345	3.02
404.552	2.96
404.758	2.92
404.965	2.86
405.171	2.83
405.378	2.75
405.584	2.77
405.791	2.74
405.997	2.7
406.204	2.68
406.41	2.69
406.617	2.73
406.823	2.68
407.029	2.72
407.236	2.77
407.442	2.75
407.649	2.96
407.855	2.95
408.061	3.02
408.268	2.96
408.474	2.92
408.68	2.95
408.887	2.84
409.093	2.91
409.299	2.92
409.505	2.88
409.712	2.88
409.918	2.72
410.124	2.63
410.33	2.59
410.537	2.63
410.743	2.65
410.949	2.66
411.155	2.79
411.361	2.76
411.567	2.62
411.773	2.53
411.98	2.58
412.186	2.56
412.392	2.59
412.598	2.61
412.804	2.58
413.01	2.55
413.216	2.47
413.422	2.57
413.628	2.59
413.834	2.63
414.04	2.7
414.246	2.61
414.452	2.58
414.658	2.62
414.864	2.66
415.07	2.65
415.275	2.65
415.481	2.69
415.687	2.52
415.893	2.54
416.099	2.59
416.305	2.57
416.511	2.63
416.716	2.58
416.922	2.59
417.128	2.56
417.334	2.58
417.539	2.57
417.745	2.55
417.951	2.61
418.157	2.58
418.362	2.58
418.568	2.55
418.774	2.53
418.979	2.56
419.185	2.54
419.391	2.52
419.596	2.5
419.802	2.5
420.008	2.52
420.213	2.47
420.419	2.49
420.624	2.47
420.83	2.5
421.035	2.53
421.241	2.57
421.446	2.59
421.652	2.59
421.857	2.59
422.063	2.62
422.268	2.57
422.474	2.6
422.679	2.57
422.885	2.59
423.09	2.6
423.295	2.58
423.501	2.54
423.706	2.5
423.911	2.52
424.117	2.51
424.322	2.51
424.527	2.56
424.733	2.53
424.938	2.55
425.143	2.58
425.349	2.56
425.554	2.55
425.759	2.55
425.964	2.55
426.169	2.55
426.375	2.55
426.58	2.49
426.785	2.48
426.99	2.52
427.195	2.5
427.4	2.45
427.605	2.45
427.811	2.5
428.016	2.52
428.221	2.57
428.426	2.57
428.631	2.58
428.836	2.6
429.041	2.56
429.246	2.59
429.451	2.64
429.656	2.6
429.861	2.59
430.066	2.58
430.271	2.57
430.476	2.52
430.681	2.46
430.886	2.44
431.09	2.44
431.295	2.47
431.5	2.44
431.705	2.39
431.91	2.38
432.115	2.43
432.32	2.4
432.524	2.39
432.729	2.37
432.934	2.43
433.139	2.44
433.343	2.48
433.548	2.44
433.753	2.45
433.958	2.44
434.162	2.46
434.367	2.45
434.572	2.41
434.776	2.45
434.981	2.5
435.186	2.43
435.39	2.45
435.595	2.45
435.799	2.45
436.004	2.42
436.209	2.45
436.413	2.48
436.618	2.43
436.822	2.47
437.027	2.45
437.231	2.38
437.436	2.43
437.64	2.38
437.845	2.35
438.049	2.36
438.253	2.34
438.458	2.34
438.662	2.33
438.867	2.33
439.071	2.35
439.275	2.35
439.48	2.37
439.684	2.36
439.888	2.35
440.093	2.35
440.297	2.34
440.501	2.35
440.706	2.37
440.91	2.39
441.114	2.39
441.318	2.35
441.523	2.37
441.727	2.4
441.931	2.45
442.135	2.45
442.339	2.46
442.543	2.47
442.748	2.47
442.952	2.43
443.156	2.41
443.36	2.41
443.564	2.45
443.768	2.43
443.972	2.4
444.176	2.35
444.38	2.35
444.584	2.35
444.788	2.35
444.992	2.36
445.196	2.36
445.4	2.37
445.604	2.36
445.808	2.36
446.012	2.32
446.216	2.33
446.42	2.31
446.624	2.33
446.828	2.29
447.032	2.29
447.235	2.3
447.439	2.33
447.643	2.34
447.847	2.32
448.051	2.27
448.254	2.3
448.458	2.28
448.662	2.3
448.866	2.22
449.069	2.31
449.273	2.34
449.477	2.31
449.681	2.29
449.884	2.29
450.088	2.28
450.292	2.33
450.495	2.35
450.699	2.45
450.902	2.42
451.106	2.48
451.31	2.43
451.513	2.43
451.717	2.4
451.92	2.35
452.124	2.33
452.327	2.33
452.531	2.32
452.734	2.3
452.938	2.23
453.141	2.23
453.345	2.23
453.548	2.2
453.752	2.2
453.955	2.2
454.158	2.25
454.362	2.25
454.565	2.25
454.769	2.24
454.972	2.24
455.175	2.17
455.379	2.19
455.582	2.2
455.785	2.2
455.988	2.14
456.192	2.14
456.395	2.11
456.598	2.12
456.801	2.11
457.005	2.11
457.208	2.14
457.411	2.21
457.614	2.19
457.817	2.17
458.021	2.19
458.224	2.19
458.427	2.22
458.63	2.25
458.833	2.24
459.036	2.24
459.239	2.24
459.442	2.21
459.645	2.2
459.848	2.2
460.051	2.23
460.254	2.21
460.457	2.22
460.66	2.25
460.863	2.23
461.066	2.26
461.269	2.3
461.472	2.29
461.675	2.33
461.878	2.38
462.081	2.38
462.284	2.38
462.486	2.41
462.689	2.4
462.892	2.37
463.095	2.39
463.298	2.33
463.5	2.31
463.703	2.32
463.906	2.31
464.109	2.27
464.311	2.33
464.514	2.33
464.717	2.29
464.92	2.34
465.122	2.35
465.325	2.38
465.528	2.44
465.73	2.41
465.933	2.38
466.135	2.39
466.338	2.41
466.541	2.38
466.743	2.39
466.946	2.38
467.148	2.34
467.351	2.3
467.553	2.27
467.756	2.26
467.958	2.32
468.161	2.37
468.363	2.32
468.566	2.29
468.768	2.24
468.971	2.24
469.173	2.27
469.375	2.28
469.578	2.37
469.78	2.33
469.983	2.34
470.185	2.26
470.387	2.23
470.59	2.18
470.792	2.15
470.994	2.22
471.196	2.25
471.399	2.22
471.601	2.21
471.803	2.11
472.005	2.1
472.208	2.11
472.41	2.12
472.612	2.16
472.814	2.22
473.016	2.27
473.218	2.27
473.421	2.23
473.623	2.24
473.825	2.24
474.027	2.27
474.229	2.29
474.431	2.28
474.633	2.26
474.835	2.2
475.037	2.19
475.239	2.18
475.441	2.18
475.643	2.18
475.845	2.23
476.047	2.3
476.249	2.28
476.451	2.29
476.653	2.31
476.855	2.3
477.057	2.3
477.258	2.29
477.46	2.29
477.662	2.3
477.864	2.32
478.066	2.27
478.268	2.22
478.469	2.25
478.671	2.19
478.873	2.12
479.075	2.17
479.276	2.18
479.478	2.21
479.68	2.17
479.882	2.16
480.083	2.18
480.285	2.17
480.487	2.16
480.688	2.14
480.89	2.19
481.091	2.22
481.293	2.21
481.495	2.21
481.696	2.19
481.898	2.22
482.099	2.24
482.301	2.2
482.502	2.2
482.704	2.2
482.905	2.22
483.107	2.21
483.308	2.21
483.51	2.19
483.711	2.19
483.913	2.19
484.114	2.17
484.315	2.15
484.517	2.16
484.718	2.16
484.92	2.16
485.121	2.14
485.322	2.14
485.524	2.16
485.725	2.2
485.926	2.22
486.127	2.22
486.329	2.24
486.53	2.26
486.731	2.26
486.932	2.28
487.134	2.29
487.335	2.3
487.536	2.31
487.737	2.32
487.938	2.3
488.139	2.26
488.341	2.28
488.542	2.26
488.743	2.24
488.944	2.23
489.145	2.23
489.346	2.21
489.547	2.23
489.748	2.22
489.949	2.21
490.15	2.22
490.351	2.24
490.552	2.23
490.753	2.21
490.954	2.22
491.155	2.21
491.356	2.19
491.557	2.19
491.758	2.2
491.959	2.17
492.159	2.15
492.36	2.16
492.561	2.16
492.762	2.14
492.963	2.17
493.164	2.18
493.364	2.18
493.565	2.2
493.766	2.22
493.967	2.22
494.167	2.27
494.368	2.32
494.569	2.32
494.769	2.33
494.97	2.3
495.171	2.29
495.371	2.28
495.572	2.31
495.773	2.36
495.973	2.34
496.174	2.36
496.375	2.35
496.575	2.35
496.776	2.34
496.976	2.35
497.177	2.42
497.377	2.4
497.578	2.43
497.778	2.39
497.979	2.4
498.179	2.42
498.38	2.39
498.58	2.4
498.78	2.39
498.981	2.45
499.181	2.47
499.382	2.44
499.582	2.49
499.782	2.52
499.983	2.53
500.183	2.53
500.383	2.56
500.584	2.58
500.784	2.59
500.984	2.59
501.184	2.55
501.385	2.53
501.585	2.56
501.785	2.56
501.985	2.54
502.185	2.52
502.386	2.5
502.586	2.53
502.786	2.58
502.986	2.58
503.186	2.62
503.386	2.62
503.586	2.66
503.786	2.64
503.987	2.68
504.187	2.74
504.387	2.82
504.587	2.84
504.787	2.84
504.987	2.83
505.187	2.85
505.387	2.86
505.587	2.86
505.786	2.91
505.986	2.93
506.186	2.88
506.386	2.87
506.586	2.84
506.786	2.86
506.986	2.86
507.186	2.87
507.386	2.92
507.585	2.92
507.785	2.95
507.985	2.93
508.185	2.97
508.384	2.99
508.584	2.97
508.784	2.97
508.984	2.99
509.183	3.01
509.383	3.04
509.583	3.02
509.782	3.05
509.982	3.07
510.182	3.09
510.381	3.09
510.581	3.17
510.781	3.19
510.98	3.23
511.18	3.22
511.379	3.23
511.579	3.24
511.778	3.25
511.978	3.25
512.177	3.25
512.377	3.3
512.576	3.33
512.776	3.35
512.975	3.38
513.175	3.4
513.374	3.44
513.573	3.47
513.773	3.53
513.972	3.57
514.172	3.62
514.371	3.69
514.57	3.66
514.77	3.71
514.969	3.7
515.168	3.74
515.367	3.78
515.567	3.84
515.766	3.86
515.965	3.89
516.164	3.93
516.364	3.93
516.563	3.94
516.762	4.01
516.961	4
517.16	4.06
517.359	4.09
517.559	4.14
517.758	4.13
517.957	4.14
518.156	4.15
518.355	4.16
518.554	4.21
518.753	4.21
518.952	4.22
519.151	4.25
519.35	4.26
519.549	4.28
519.748	4.29
519.947	4.35
520.146	4.41
520.345	4.43
520.544	4.45
520.743	4.46
520.942	4.5
521.141	4.51
521.339	4.5
521.538	4.51
521.737	4.51
521.936	4.51
522.135	4.51
522.333	4.54
522.532	4.56
522.731	4.61
522.93	4.65
523.129	4.68
523.327	4.72
523.526	4.78
523.725	4.83
523.923	4.9
524.122	4.94
524.321	4.95
524.519	4.94
524.718	4.96
524.917	4.96
525.115	4.96
525.314	4.99
525.512	5.03
525.711	5.09
525.909	5.06
526.108	5.05
526.306	5.07
526.505	5.09
526.703	5.15
526.902	5.19
527.1	5.22
527.299	5.26
527.497	5.3
527.696	5.32
527.894	5.33
528.092	5.35
528.291	5.37
528.489	5.4
528.688	5.43
528.886	5.44
529.084	5.46
529.283	5.48
529.481	5.5
529.679	5.49
529.877	5.49
530.076	5.5
530.274	5.55
530.472	5.6
530.67	5.62
530.869	5.62
531.067	5.65
531.265	5.68
531.463	5.72
531.661	5.75
531.859	5.81
532.057	5.86
532.255	5.91
532.454	5.93
532.652	5.94
532.85	5.96
533.048	5.99
533.246	5.98
533.444	6
533.642	6.01
533.84	6.04
534.038	6.04
534.236	6.08
534.434	6.1
534.632	6.13
534.83	6.15
535.027	6.17
535.225	6.21
535.423	6.28
535.621	6.3
535.819	6.33
536.017	6.34
536.215	6.36
536.412	6.34
536.61	6.34
536.808	6.35
537.006	6.38
537.203	6.43
537.401	6.45
537.599	6.46
537.797	6.48
537.994	6.48
538.192	6.51
538.39	6.56
538.587	6.58
538.785	6.61
538.983	6.65
539.18	6.69
539.378	6.72
539.575	6.75
539.773	6.82
539.97	6.88
540.168	6.91
540.366	6.91
540.563	6.92
540.761	6.96
540.958	6.98
541.155	7.03
541.353	7.05
541.55	7.1
541.748	7.12
541.945	7.1
542.143	7.08
542.34	7.12
542.537	7.14
542.735	7.18
542.932	7.2
543.129	7.24
543.327	7.26
543.524	7.28
543.721	7.27
543.919	7.31
544.116	7.35
544.313	7.4
544.51	7.4
544.708	7.46
544.905	7.45
545.102	7.47
545.299	7.52
545.496	7.54
545.693	7.58
545.891	7.6
546.088	7.64
546.285	7.69
546.482	7.71
546.679	7.78
546.876	7.79
547.073	7.8
547.27	7.87
547.467	7.87
547.664	7.88
547.861	7.95
548.058	7.95
548.255	7.96
548.452	7.99
548.649	8.03
548.846	8.01
549.043	8.03
549.24	8.08
549.437	8.04
549.633	8.07
549.83	8.1
550.027	8.05
550.224	8.12
550.421	8.13
550.618	8.15
550.814	8.14
551.011	8.2
551.208	8.31
551.405	8.35
551.601	8.42
551.798	8.48
551.995	8.48
552.191	8.52
552.388	8.49
552.585	8.52
552.781	8.55
552.978	8.59
553.175	8.56
553.371	8.53
553.568	8.59
553.764	8.58
553.961	8.61
554.157	8.65
554.354	8.65
554.55	8.76
554.747	8.76
554.943	8.77
555.14	8.78
555.336	8.86
555.533	8.86
555.729	8.9
555.926	8.95
556.122	8.93
556.318	8.99
556.515	9.08
556.711	9.07
556.907	9.12
557.104	9.15
557.3	9.15
557.496	9.17
557.693	9.23
557.889	9.23
558.085	9.25
558.281	9.27
558.478	9.22
558.674	9.23
558.87	9.22
559.066	9.25
559.262	9.22
559.459	9.24
559.655	9.27
559.851	9.25
560.047	9.23
560.243	9.28
560.439	9.29
560.635	9.37
560.831	9.32
561.027	9.39
561.223	9.38
561.419	9.41
561.615	9.47
561.811	9.44
562.007	9.52
562.203	9.53
562.399	9.5
562.595	9.5
562.791	9.46
562.987	9.5
563.183	9.49
563.379	9.55
563.575	9.59
563.771	9.6
563.966	9.64
564.162	9.64
564.358	9.69
564.554	9.68
564.75	9.72
564.945	9.81
565.141	9.86
565.337	9.87
565.533	9.88
565.728	9.93
565.924	9.94
566.12	9.99
566.315	10.04
566.511	10.08
566.707	10.11
566.902	10.12
567.098	10.06
567.293	10.07
567.489	10.1
567.684	10.09
567.88	10.07
568.076	10.07
568.271	10.05
568.467	10.02
568.662	10.03
568.858	10.08
569.053	10.1
569.248	10.14
569.444	10.13
569.639	10.14
569.835	10.17
570.03	10.18
570.225	10.22
570.421	10.18
570.616	10.18
570.812	10.17
571.007	10.17
571.202	10.17
571.397	10.17
571.593	10.18
571.788	10.2
571.983	10.19
572.178	10.22
572.374	10.2
572.569	10.27
572.764	10.28
572.959	10.31
573.154	10.32
573.35	10.35
573.545	10.33
573.74	10.32
573.935	10.31
574.13	10.34
574.325	10.3
574.52	10.3
574.715	10.29
574.91	10.31
575.105	10.3
575.3	10.3
575.495	10.31
575.69	10.36
575.885	10.37
576.08	10.38
576.275	10.4
576.47	10.45
576.665	10.51
576.86	10.57
577.055	10.61
577.25	10.63
577.444	10.65
577.639	10.66
577.834	10.67
578.029	10.75
578.224	10.75
578.418	10.71
578.613	10.72
578.808	10.68
579.003	10.64
579.197	10.65
579.392	10.66
579.587	10.65
579.781	10.65
579.976	10.64
580.171	10.56
580.365	10.58
580.56	10.61
580.755	10.6
580.949	10.66
581.144	10.67
581.338	10.62
581.533	10.56
581.727	10.57
581.922	10.56
582.116	10.61
582.311	10.66
582.505	10.67
582.7	10.67
582.894	10.7
583.089	10.67
583.283	10.66
583.478	10.73
583.672	10.77
583.866	10.8
584.061	10.8
584.255	10.76
584.449	10.76
584.644	10.76
584.838	10.81
585.032	10.81
585.226	10.78
585.421	10.78
585.615	10.73
585.809	10.7
586.003	10.61
586.198	10.62
586.392	10.69
586.586	10.7
586.78	10.73
586.974	10.76
587.168	10.84
587.363	10.85
587.557	10.84
587.751	10.88
587.945	10.93
588.139	11
588.333	11.04
588.527	11.02
588.721	10.98
588.915	10.98
589.109	10.92
589.303	10.79
589.497	10.85
589.691	10.91
589.885	10.95
590.079	10.98
590.273	11.02
590.466	11.01
590.66	11.03
590.854	11.08
591.048	11.07
591.242	11.06
591.436	11.12
591.629	11.08
591.823	11.04
592.017	10.97
592.211	10.96
592.404	10.93
592.598	10.93
592.792	10.96
592.986	10.93
593.179	10.97
593.373	10.96
593.567	10.97
593.76	11.02
593.954	11.01
594.147	11.08
594.341	11.06
594.535	11.08
594.728	11.1
594.922	11.11
595.115	11.14
595.309	11.15
595.502	11.21
595.696	11.17
595.889	11.18
596.083	11.19
596.276	11.17
596.47	11.16
596.663	11.13
596.856	11.14
597.05	11.12
597.243	11.08
597.437	11.08
597.63	11.07
597.823	11.15
598.017	11.17
598.21	11.15
598.403	11.16
598.596	11.22
598.79	11.22
598.983	11.26
599.176	11.24
599.369	11.25
599.563	11.25
599.756	11.3
599.949	11.26
600.142	11.16
600.335	11.23
600.528	11.26
600.722	11.23
600.915	11.24
601.108	11.2
601.301	11.23
601.494	11.23
601.687	11.21
601.88	11.16
602.073	11.15
602.266	11.17
602.459	11.14
602.652	11.12
602.845	11.11
603.038	11.16
603.231	11.21
603.424	11.2
603.617	11.19
603.809	11.22
604.002	11.24
604.195	11.25
604.388	11.35
604.581	11.34
604.774	11.29
604.966	11.25
605.159	11.2
605.352	11.21
605.545	11.2
605.737	11.25
605.93	11.19
606.123	11.14
606.316	11.15
606.508	11.04
606.701	11.09
606.894	11.23
607.086	11.3
607.279	11.31
607.471	11.32
607.664	11.31
607.857	11.41
608.049	11.51
608.242	11.55
608.434	11.64
608.627	11.73
608.819	11.73
609.012	11.7
609.204	11.74
609.397	11.83
609.589	11.86
609.782	11.86
609.974	11.86
610.166	11.87
610.359	11.91
610.551	11.86
610.743	11.81
610.936	11.83
611.128	11.84
611.32	11.89
611.513	11.84
611.705	11.8
611.897	11.82
612.09	11.8
612.282	11.77
612.474	11.68
612.666	11.73
612.858	11.74
613.051	11.74
613.243	11.69
613.435	11.58
613.627	11.65
613.819	11.63
614.011	11.69
614.203	11.61
614.395	11.53
614.588	11.58
614.78	11.53
614.972	11.56
615.164	11.5
615.356	11.42
615.548	11.51
615.74	11.5
615.932	11.48
616.124	11.45
616.315	11.46
616.507	11.51
616.699	11.56
616.891	11.58
617.083	11.68
617.275	11.75
617.467	11.78
617.659	11.65
617.85	11.6
618.042	11.63
618.234	11.66
618.426	11.6
618.618	11.66
618.809	11.62
619.001	11.61
619.193	11.48
619.384	11.44
619.576	11.53
619.768	11.56
619.959	11.52
620.151	11.48
620.343	11.42
620.534	11.53
620.726	11.5
620.917	11.55
621.109	11.54
621.301	11.54
621.492	11.47
621.684	11.32
621.875	11.38
622.067	11.43
622.258	11.46
622.45	11.49
622.641	11.51
622.832	11.5
623.024	11.58
623.215	11.61
623.407	11.65
623.598	11.83
623.789	11.95
623.981	11.92
624.172	12.03
624.363	11.99
624.555	11.98
624.746	11.95
624.937	11.97
625.129	11.81
625.32	11.72
625.511	11.77
625.702	11.72
625.893	11.72
626.085	11.75
626.276	11.72
626.467	11.8
626.658	11.78
626.849	11.75
627.04	11.71
627.231	11.77
627.422	11.91
627.614	11.89
627.805	11.9
627.996	11.83
628.187	11.81
628.378	11.77
628.569	11.74
628.76	11.72
628.951	11.78
629.142	11.77
629.332	11.8
629.523	11.72
629.714	11.64
629.905	11.66
630.096	11.67
630.287	11.73
630.478	11.64
630.669	11.72
630.859	11.75
631.05	11.71
631.241	11.81
631.432	11.77
631.623	11.89
631.813	11.98
632.004	11.88
632.195	11.98
632.385	11.94
632.576	11.99
632.767	11.93
632.957	12.01
633.148	12
633.339	11.92
633.529	11.95
633.72	11.84
633.91	11.71
634.101	11.81
634.292	11.75
634.482	11.73
634.673	11.72
634.863	11.63
635.054	11.56
635.244	11.53
635.435	11.56
635.625	11.56
635.815	11.55
636.006	11.65
636.196	11.62
636.387	11.65
636.577	11.67
636.767	11.7
636.958	11.78
637.148	11.76
637.338	11.79
637.529	11.88
637.719	11.85
637.909	11.9
638.099	11.93
638.29	11.95
638.48	11.97
638.67	11.95
638.86	12
639.05	12.03
639.241	12.11
639.431	12.2
639.621	12.04
639.811	12.1
640.001	12.06
640.191	11.99
640.381	11.93
640.571	11.89
640.761	11.95
640.951	11.83
641.141	11.78
641.331	11.69
641.521	11.62
641.711	11.68
641.901	11.62
642.091	11.74
642.281	11.85
642.471	11.82
642.661	11.92
642.851	11.92
643.041	11.95
643.231	11.97
643.42	11.96
643.61	11.9
643.8	11.85
643.99	11.91
644.18	11.84
644.369	11.9
644.559	11.99
644.749	11.91
644.939	11.81
645.128	11.82
645.318	11.86
645.508	11.93
645.697	12
645.887	12.13
646.076	12.31
646.266	12.27
646.456	12.17
646.645	12.1
646.835	12.13
647.024	12.18
647.214	12.27
647.403	12.22
647.593	12.24
647.782	12.27
647.972	12.2
648.161	11.99
648.351	12.03
648.54	12.01
648.73	12.07
648.919	12.13
649.108	12.16
649.298	12.02
649.487	12.11
649.677	12.04
649.866	12.01
650.055	12.01
650.244	11.99
650.434	11.94
650.623	11.9
650.812	11.88
651.002	11.75
651.191	11.7
651.38	11.8
651.569	11.73
651.758	11.81
651.947	11.78
652.137	11.75
652.326	11.78
652.515	11.83
652.704	11.91
652.893	11.97
653.082	12.06
653.271	12.12
653.46	12.07
653.649	12.06
653.838	11.98
654.027	11.96
654.216	11.98
654.405	12.01
654.594	11.98
654.783	11.99
654.972	12.05
655.161	12
655.35	12.05
655.539	12.06
655.728	12.11
655.916	12.07
656.105	12.13
656.294	12.17
656.483	12.1
656.672	12.13
656.86	12.1
657.049	12.04
657.238	12.05
657.427	12.02
657.615	12.04
657.804	12.05
657.993	12.11
658.181	12.1
658.37	12.11
658.559	12.14
658.747	12.22
658.936	12.22
659.125	11.97
659.313	12.01
659.502	12.08
659.69	12.05
659.879	12.01
660.067	12.02
660.256	12.05
660.444	12.11
660.633	12.16
660.821	12.02
661.01	12.04
661.198	12.33
661.387	12.27
661.575	12.24
661.763	12.32
661.952	12.38
662.14	12.41
662.328	12.37
662.517	12.35
662.705	12.26
662.893	12.36
663.082	12.37
663.27	12.34
663.458	12.32
663.646	12.21
663.834	12.32
664.023	12.28
664.211	12.28
664.399	12.28
664.587	12.25
664.775	12.31
664.963	12.35
665.152	12.27
665.34	12.28
665.528	12.28
665.716	12.35
665.904	12.26
666.092	12.29
666.28	12.35
666.468	12.44
666.656	12.4
666.844	12.42
667.032	12.26
667.22	12.44
667.408	12.44
667.596	12.51
667.784	12.48
667.971	12.51
668.159	12.49
668.347	12.31
668.535	12.24
668.723	12.18
668.911	12.26
669.098	12.25
669.286	12.11
669.474	12.18
669.662	12.13
669.849	12.14
670.037	12.03
670.225	12.06
670.413	12.21
670.6	12.28
670.788	12.37
670.976	12.34
671.163	12.43
671.351	12.39
671.538	12.37
671.726	12.46
671.913	12.51
672.101	12.54
672.289	12.61
672.476	12.6
672.664	12.51
672.851	12.42
673.039	12.26
673.226	12.22
673.413	12.3
673.601	12.32
673.788	12.27
673.976	12.23
674.163	12.22
674.35	12.13
674.538	12.02
674.725	12.02
674.912	12.14
675.1	12.28
675.287	12.34
675.474	12.43
675.662	12.53
675.849	12.47
676.036	12.66
676.223	12.8
676.411	12.66
676.598	12.82
676.785	12.93
676.972	12.89
677.159	12.95
677.346	12.96
677.533	12.91
677.721	12.89
677.908	12.99
678.095	12.84
678.282	12.84
678.469	13.02
678.656	12.99
678.843	12.93
679.03	12.86
679.217	12.81
679.404	12.74
679.591	12.63
679.778	12.51
679.964	12.44
680.151	12.48
680.338	12.46
680.525	12.42
680.712	12.38
680.899	12.43
681.086	12.49
681.272	12.42
681.459	12.51
681.646	12.61
681.833	12.72
682.02	12.75
682.206	12.74
682.393	12.59
682.58	12.56
682.766	12.58
682.953	12.55
683.14	12.56
683.326	12.62
683.513	12.63
683.7	12.59
683.886	12.53
684.073	12.44
684.259	12.43
684.446	12.54
684.632	12.67
684.819	12.65
685.005	12.69
685.192	12.79
685.378	12.84
685.565	12.79
685.751	12.79
685.938	12.75
686.124	12.78
686.31	12.75
686.497	12.77
686.683	12.7
686.87	12.74
687.056	12.64
687.242	12.63
687.429	12.61
687.615	12.42
687.801	12.5
687.987	12.39
688.174	12.38
688.36	12.53
688.546	12.5
688.732	12.51
688.918	12.5
689.105	12.48
689.291	12.34
689.477	12.42
689.663	12.67
689.849	12.5
690.035	12.76
690.221	12.82
690.407	12.78
690.593	12.81
690.779	12.84
690.965	12.92
691.151	13.01
691.337	13.22
691.523	13.14
691.709	13.22
691.895	13.34
692.081	13.17
692.267	13.23
692.453	13.07
692.639	12.95
692.825	13.01
693.011	12.91
693.196	12.74
693.382	12.7
693.568	12.67
693.754	12.54
693.94	12.55
694.125	12.67
694.311	12.58
694.497	12.65
694.682	12.75
694.868	12.75
695.054	12.65
695.239	12.74
695.425	12.71
695.611	12.8
695.796	12.78
695.982	12.74
696.168	12.78
696.353	12.9
696.539	12.96
696.724	12.92
696.91	12.93
697.095	13.02
697.281	13.05
697.466	13.03
697.652	13.04
697.837	13.07
698.023	13.12
698.208	13.12
698.393	13.1
698.579	13.08
698.764	13.12
698.949	13.09
699.135	13.08
699.32	13.08
699.505	13.12
699.691	13.09
699.876	13.13
700.061	13.2
700.246	13.11
700.432	13.09
700.617	13.16
700.802	13.2
700.987	13.18
701.172	13.24
701.358	13.15
701.543	13.16
701.728	13.18
701.913	13.17
702.098	13.16
702.283	13.37
702.468	13.38
702.653	13.02
702.838	13.13
703.023	13.13
703.208	13.18
703.393	13.22
703.578	13.18
703.763	13.24
703.948	13.12
704.133	13.03
704.318	12.72
704.503	12.86
704.688	13.21
704.873	12.99
705.057	12.98
705.242	12.92
705.427	12.86
705.612	12.73
705.797	12.68
705.981	12.82
706.166	12.93
706.351	13.06
706.536	12.95
706.72	12.73
706.905	12.85
707.09	12.86
707.274	12.85
707.459	12.92
707.644	13.09
707.828	13.03
708.013	13.02
708.197	13
708.382	12.94
708.567	12.89
708.751	13.01
708.936	13.08
709.12	13.11
709.305	13.13
709.489	13.23
709.673	13.1
709.858	13.02
710.042	13.11
710.227	13.06
710.411	13.07
710.596	13.18
710.78	13.15
710.964	13
711.149	12.94
711.333	13.12
711.517	13.1
711.702	13.24
711.886	13.44
712.07	13.35
712.254	13.49
712.438	13.59
712.623	13.59
712.807	13.78
712.991	13.86
713.175	13.89
713.359	13.74
713.544	13.73
713.728	13.7
713.912	13.55
714.096	13.5
714.28	13.31
714.464	13.23
714.648	13.14
714.832	13.01
715.016	13.01
715.2	12.95
715.384	13.08
715.568	13.13
715.752	13.22
715.936	13.31
716.12	13.37
716.304	13.44
716.488	13.59
716.671	13.63
716.855	13.6
717.039	13.5
717.223	13.57
717.407	13.33
717.59	13.29
717.774	13.09
717.958	13.14
718.142	13
718.325	12.92
718.509	12.93
718.693	13
718.877	13.07
719.06	13.07
719.244	12.89
719.428	12.94
719.611	13.06
719.795	13.12
719.978	13.02
720.162	13.21
720.345	13.31
720.529	13.06
720.713	13.06
720.896	13.03
721.08	13.2
721.263	13.36
721.446	13.43
721.63	13.39
721.813	13.49
721.997	13.51
722.18	13.39
722.364	13.55
722.547	13.71
722.73	13.6
722.914	13.59
723.097	13.54
723.28	13.61
723.464	13.63
723.647	13.52
723.83	13.45
724.013	13.38
724.197	13.54
724.38	13.52
724.563	13.4
724.746	13.49
724.929	13.49
725.112	13.28
725.296	13.03
725.479	12.84
725.662	12.96
725.845	13.03
726.028	12.95
726.211	12.93
726.394	12.76
726.577	12.96
726.76	12.89
726.943	12.97
727.126	13.18
727.309	13.43
727.492	13.54
727.675	13.4
727.858	13.25
728.041	13.27
728.224	13.13
728.407	13.28
728.589	13.13
728.772	13.29
728.955	13.31
729.138	13.33
729.321	13.15
729.503	13.37
729.686	13.42
729.869	13.42
730.052	13.67
730.234	13.67
730.417	13.67
730.6	13.72
730.782	13.59
730.965	13.47
731.148	13.48
731.33	13.68
731.513	13.67
731.695	13.8
731.878	13.9
732.061	13.77
732.243	13.84
732.426	13.67
732.608	13.74
732.791	13.64
732.973	13.63
733.156	13.6
733.338	13.76
733.52	13.37
733.703	13.11
733.885	13.21
734.068	13.13
734.25	13.06
734.432	13.24
734.615	13.37
734.797	13.32
734.979	13.51
735.162	13.48
735.344	13.2
735.526	13.46
735.708	13.59
735.891	13.56
736.073	13.87
736.255	14.14
736.437	14.09
736.619	13.85
736.802	14.12
736.984	14.04
737.166	14.17
737.348	14.14
737.53	13.99
737.712	13.97
737.894	13.93
738.076	13.8
738.258	13.51
738.44	13.47
738.622	13.39
738.804	13.23
738.986	13.37
739.168	13.37
739.35	13.55
739.532	13.57
739.714	13.74
739.896	13.79
740.078	13.82
740.259	14.24
740.441	14.17
740.623	14.44
740.805	14.62
740.987	14.59
741.168	14.39
741.35	14.28
741.532	14.58
741.714	14.54
741.895	14.43
742.077	14.16
742.259	13.94
742.44	14.14
742.622	13.96
742.804	13.93
742.985	13.79
743.167	14.06
743.348	14.17
743.53	14.06
743.711	13.87
743.893	13.58
744.075	13.75
744.256	13.57
744.438	13.45
744.619	13.48
744.8	13.46
744.982	13.68
745.163	13.66
745.345	13.61
745.526	13.64
745.707	14.14
745.889	14.48
746.07	14.52
746.252	14.83
746.433	15.15
746.614	15.26
746.795	15.52
746.977	15.54
747.158	15.5
747.339	15.3
747.52	15.18
747.702	14.82
747.883	14.67
748.064	14.71
748.245	14.44
748.426	13.94
748.607	13.9
748.788	13.57
748.97	13.27
749.151	13.37
749.332	13.55
749.513	13.61
749.694	13.46
749.875	13.74
750.056	13.78
750.237	13.75
750.418	13.95
750.599	13.81
750.78	13.97
750.96	14.21
751.141	14.36
751.322	14.56
751.503	14.48
751.684	14.88
751.865	15.1
752.046	15.12
752.226	14.94
752.407	14.9
752.588	15.07
752.769	15.07
752.949	15.03
753.13	14.68
753.311	14.58
753.492	14.4
753.672	14.1
753.853	13.82
754.034	13.76
754.214	14.1
754.395	14.01
754.575	13.93
754.756	13.36
754.937	13.09
755.117	13.21
755.298	13.1
755.478	13.56
755.659	13.8
755.839	13.81
756.02	13.97
756.2	13.63
756.381	13.26
756.561	13.22
756.741	14.2
756.922	14.46
757.102	14.46
757.283	14.57
757.463	14.29
757.643	14.17
757.823	14.1
758.004	13.78
758.184	14.33
758.364	14.87
758.545	14.98
758.725	14.57
758.905	14.67
759.085	14.81
759.265	14.46
759.446	14.49
759.626	14.67
759.806	14.89
759.986	14.88
760.166	14.41
760.346	14.17
760.526	14.13
760.706	14.25
760.886	13.94
761.066	13.83
761.246	14.05
761.426	14.07
761.606	13.68
761.786	13.72
761.966	13.95
762.146	14.22
762.326	14.33
762.506	14.4
762.686	14.46
762.866	14.45
763.046	14.47
763.225	14.55
763.405	14.51
763.585	14.84
763.765	14.63
763.945	14.58
764.124	14.45
764.304	14.58
764.484	14.77
764.664	14.56
764.843	14.87
765.023	14.83
765.203	14.82
765.382	15.03
765.562	14.98
765.741	15.26
765.921	15.32
766.101	15.45
766.28	15.55
766.46	15.2
766.639	15.27
766.819	14.77
766.998	14.65
767.178	14.71
767.357	14.88
767.537	14.79
767.716	14.52
767.896	14.68
768.075	14.8
768.254	14.78
768.434	14.96
768.613	14.62
768.792	15.22
768.972	15.46
769.151	15.25
769.33	15.02
769.51	15.12
769.689	15
769.868	15.01
770.047	14.9
770.226	14.93
770.406	14.94
770.585	15.3
770.764	15
770.943	15.18
771.122	15.07
771.301	14.8
771.48	14.96
771.66	15.5
771.839	15.15
772.018	15.02
772.197	15.01
772.376	14.74
772.555	14.79
772.734	14.8
772.913	14.74
773.092	14.9
773.271	15.23
773.449	15.03
773.628	14.85
773.807	15.05
773.986	15.05
774.165	14.88
774.344	14.89
774.523	14.76
774.701	15.2
774.88	14.87
775.059	14.93
775.238	14.91
775.417	14.99
775.595	14.88
775.774	14.68
775.953	14.7
776.131	14.42
776.31	14.39
776.489	14.43
776.667	13.87
776.846	14.17
777.025	13.94
777.203	13.81
777.382	13.76
777.56	13.72
777.739	13.75
777.917	13.8
778.096	14.1
778.274	14.57
778.453	15.15
778.631	14.95
778.81	14.87
778.988	15.38
779.166	15.43
779.345	15.57
779.523	15.83
779.702	15.8
779.88	15.66
780.058	15.72
780.237	15.37
780.415	15.12
780.593	15.36
780.771	15.44
780.95	15.13
781.128	15.17
781.306	15.58
781.484	15.56
781.662	15.48
781.841	15.63
782.019	15.69
782.197	15.97
782.375	15.79
782.553	16.28
782.731	16.26
782.909	16.43
783.087	16.91
783.265	16.49
783.443	16.45
783.621	16.56
783.799	16.4
783.977	16.32
784.155	15.95
784.333	16.26
784.511	15.9
784.689	15.97
784.867	16.36
785.045	15.43
785.223	15.03
785.4	14.65
785.578	14.61
785.756	15.13
785.934	14.96
786.112	14.87
786.289	14.5
786.467	14.4
786.645	14.38
786.823	13.99
787	14.51
787.178	14.75
787.356	15.15
787.533	15.04
787.711	15.17
787.889	15.63
788.066	15.78
788.244	15.66
788.421	15.78
788.599	15.5
788.776	15.61
788.954	15.4
789.131	15.14
789.309	14.84
789.486	14.75
789.664	14.5
789.841	14.18
790.019	13.96
790.196	14.03
790.373	14.04
790.551	13.94
790.728	14.01
790.906	13.88
791.083	13.5
791.26	13.34
791.437	13.4
791.615	13.57
791.792	13.34
791.969	13.14
792.146	13.27
792.324	13.21
792.501	13.39
792.678	12.93
792.855	13.45
793.032	14.03
793.209	14.48
793.387	15.24
793.564	14.69
793.741	14.92
793.918	15.63
794.095	16.08
794.272	16.47
794.449	16.38
794.626	16.44
794.803	16.04
794.98	15.59
795.157	15.53
795.334	15.19
795.511	15.01
795.688	14.72
795.864	14.8
796.041	14.54
796.218	14.42
796.395	15.09
796.572	15.39
796.749	14.73
796.925	15.27
797.102	15.56
797.279	15.56
797.456	16.26
797.632	16.66
797.809	16.25
797.986	16.06
798.162	16.3
798.339	15.81
798.516	15.68
798.692	16.73
798.869	16.7
799.046	16.63
799.222	16.77
799.399	16.32
799.575	16.62
799.752	16.45
799.928	16.6
800.105	16.09
800.281	16.09
800.458	16.41
800.634	16.07
800.811	16.02
800.987	15.61
801.163	14.97
801.34	15.45
801.516	15.35
801.692	15.99
801.869	16.52
802.045	16.6
802.221	16.84
802.398	16.54
802.574	16.92
802.75	16.91
802.926	16.51
803.103	16.26
803.279	16.46
803.455	16.21
803.631	16.2
803.807	15.43
803.983	15.61
804.16	15.11
804.336	14.67
804.512	14.35
804.688	14.77
804.864	15.94
805.04	17.07
805.216	16.72
805.392	16.18
805.568	15.84
805.744	16.86
805.92	16.52
806.096	16.33
806.272	16.8
806.448	16.5
806.623	15.66
806.799	15.41
806.975	14.5
807.151	14.99
807.327	15.14
807.503	15.63
807.678	14.86
807.854	15.05
808.03	15.47
808.206	15.51
808.381	16.12
808.557	16.9
808.733	17.21
808.908	17.5
809.084	16.9
809.26	17.33
809.435	17.02
809.611	17.26
809.787	17.67
809.962	17.28
810.138	17.43
810.313	17.1
810.489	16.75
810.664	16.24
810.84	16.36
811.015	16.79
811.191	15.91
811.366	15.09
811.542	14.87
811.717	13.9
811.892	14.77
812.068	14.66
812.243	14.75
812.419	14.53
812.594	14.65
812.769	15.02
812.944	14.67
813.12	15.65
813.295	16.3
813.47	16.64
813.645	17.2
813.821	16.81
813.996	16.31
814.171	16.24
814.346	16.73
814.521	16.61
814.697	16.52
814.872	16.89
815.047	16.47
815.222	17.08
815.397	16.87
815.572	17.41
815.747	17.93
815.922	17.9
816.097	17.67
816.272	17.3
816.447	17.74
816.622	17.5
816.797	16.6
816.972	17.12
817.147	16.56
817.322	16.5
817.496	16.09
817.671	15.79
817.846	15.55
818.021	15.83
818.196	15.76
818.371	15.91
818.545	16.19
818.72	16.62
818.895	16.27
819.069	16.29
819.244	16.16
819.419	15.95
819.594	15.79
819.768	16.16
819.943	16.02
820.117	16.13
820.292	15.97
820.467	16.21
820.641	16.23
820.816	16.51
820.99	16.78
821.165	16.8
821.339	16.89
821.514	16.87
821.688	16.84
821.863	16.84
822.037	16.95
822.212	16.96
822.386	16.76
822.56	16.72
822.735	16.52
822.909	16.41
823.084	16.3
823.258	16.25
823.432	16.34
823.606	16.36
823.781	16.45
823.955	16.29
824.129	16.18
824.303	16.26
824.478	16.42
824.652	16.6
824.826	16.36
825	16.5
825.174	16.45
825.348	16.1
825.523	16.08
825.697	15.8
825.871	15.96
826.045	16.06
826.219	16.17
826.393	16.13
826.567	16.14
826.741	16.28
826.915	16.59
827.089	16.68
827.263	16.91
827.437	16.85
827.611	17.22
827.784	17.2
827.958	17.1
828.132	16.87
828.306	16.51
828.48	16.46
828.654	16.44
828.827	15.92
829.001	15.58
829.175	15.37
829.349	15.67
829.522	15.32
829.696	15.61
829.87	16.09
830.044	16.6
830.217	17.06
830.391	16.84
830.565	17.13
830.738	16.78
830.912	17.25
831.085	17.56
831.259	17.36
831.432	17.11
831.606	16.66
831.779	16.34
831.953	16.26
832.126	16.17
832.3	16.46
832.473	16.49
832.647	16.75
832.82	16.96
832.994	16.98
833.167	16.81
833.34	16.76
833.514	16.68
833.687	16.69
833.86	16.5
834.034	16.74
834.207	16.63
834.38	16.32
834.553	16.61
834.727	16.43
834.9	16.34
835.073	16.39
835.246	16.57
835.419	16.66
835.593	17.05
835.766	17.64
835.939	17.82
836.112	17.61
836.285	17.87
836.458	17.81
836.631	17.88
836.804	17.35
836.977	17.41
837.15	17.36
837.323	17.56
837.496	16.16
837.669	15.56
837.842	14.97
838.015	15.61
838.188	15.38
838.361	15.56
838.533	15.26
838.706	15.25
838.879	15.38
839.052	15.63
839.225	15.53
839.398	16.32
839.57	15.71
839.743	15.61
839.916	15.82
840.088	16.19
840.261	16.37
840.434	16.65
840.607	16.75
840.779	17.02
840.952	17.36
841.124	17.5
841.297	18.38
841.47	19.28
841.642	19.59
841.815	18.3
841.987	18.01
842.16	18.02
842.332	17.46
842.505	17.79
842.677	18.02
842.85	17.23
843.022	16.94
843.194	16.67
843.367	17.25
843.539	17.5
843.712	18.65
843.884	19.71
844.056	19.43
844.229	20.23
844.401	20.33
844.573	19.96
844.745	19.68
844.918	20.17
845.09	20.13
845.262	19.51
845.434	19.18
845.606	18.65
845.779	18.05
845.951	18.16
846.123	19.35
846.295	20.16
846.467	18.99
846.639	19.2
846.811	17.89
846.983	16.82
847.155	17.04
847.327	16.78
847.499	17.29
847.671	17.04
847.843	15.64
848.015	13.4
848.187	11.72
848.359	12.25
848.531	13.01
848.703	15.02
848.875	16.82
849.047	16.52
849.218	16.46
849.39	15.5
849.562	16.37
849.734	16.21
849.905	17.8
850.077	20.39
850.249	20.36
850.421	19.95
850.592	17.41
850.764	16.4
850.936	15.62
851.107	14.16
851.279	15.04
851.451	14.56
851.622	16.23
851.794	16.41
851.965	14.39
852.137	15.59
852.308	15.82
852.48	18.03
852.651	17.04
852.823	16.24
852.994	19.17
853.166	18.28
853.337	19.99
853.509	18.83
853.68	19.53
853.851	20.64
854.023	20.18
854.194	20.12
854.365	21.42
854.537	22.73
854.708	23.86
854.879	23.13
855.05	24.7
855.222	23.5
855.393	22.22
855.564	22.1
855.735	20.71
855.906	20.09
856.078	18.8
856.249	18.62
856.42	15.77
856.591	15.9
856.762	16.67
856.933	15.68
857.104	13.88
857.275	15.96
857.446	14.2
857.617	14.57
857.788	13.62
857.959	13.61
858.13	11.45
858.301	12.52
858.472	11
858.643	8.38
858.814	8.96
858.985	9.27
859.155	8.77
859.326	9.67
859.497	11.29
859.668	12.79
859.839	14.75
860.009	15.23
860.18	14.56
860.351	15.2
860.522	16.12
860.692	15.24
860.863	16.33
861.034	14.94
861.204	14.28
861.375	12.15
861.546	11.48
861.716	8.65
861.887	6.15
862.057	7.32
862.228	9.35
862.398	8.32
862.569	10.76
862.739	13.96
862.91	16.62
863.08	19.2
863.251	18.59
863.421	17.55
863.592	19.57
863.762	21.94
863.932	21.2
864.103	18.84
864.273	18.56
864.443	17.21
864.614	14.74
864.784	13.01
864.954	9.78
865.125	12.66
865.295	14.55
865.465	14.11
865.635	13.71
865.805	14.33
865.976	13.02
866.146	15.51
866.316	16.14
866.486	15.96
866.656	17.83
866.826	17.54
866.996	17.49
867.166	19.15
867.336	18.88
867.506	18.11
867.676	18.04
867.846	20.2
868.016	19.44
868.186	16.4
868.356	17.06
868.526	14.66
868.696	14.77
868.866	15.66
869.036	12.58
869.206	13.91
869.376	14.89
869.545	16.03
869.715	15.96
869.885	15.72
870.055	18.1
870.224	16.98
870.394	16.33
870.564	17.28
870.734	14.45
870.903	14.37
871.073	13.32
871.243	14.83
871.412	15.19
871.582	14.92
871.751	17.96
871.921	18.7
872.091	17.16
872.26	18.8
872.43	19.05
872.599	20.72
872.769	23.27
872.938	23.64
873.108	23.03
873.277	20.35
873.446	24.44
873.616	20.99
873.785	19.59
873.955	20.82
874.124	20.5
874.293	22.57
874.463	20.84
874.632	18.37
874.801	18.38
874.971	17.8
875.14	19.71
875.309	14.83
875.478	16.64
875.647	17.16
875.817	16.74
875.986	16.12
876.155	14.41
876.324	16.25
876.493	18.06
876.662	16.87
876.831	15.59
877	15.76
877.17	16.62
877.339	17.25
877.508	18.23
877.677	19.26
877.846	18.65
878.015	19.03
878.184	17.29
878.352	18.08
878.521	19.66
878.69	19.64
878.859	20.07
879.028	19.68
879.197	20.13
879.366	20.03
879.534	19.24
879.703	19.64
879.872	19.98
880.041	20.74
880.21	19.82
880.378	18.77
880.547	19.24
880.716	19.1
880.884	18.8
881.053	18.18
881.222	18.04
881.39	18.16
881.559	18.27
881.727	17.8
881.896	17.6
882.065	17.44
882.233	17.68
882.402	17.33
882.57	17.13
882.739	17.37
882.907	17.63
883.076	17.6
883.244	17.67
883.412	17.65
883.581	17.71
883.749	17.64
883.918	18.1
884.086	18.33
884.254	18.29
884.423	18.39
884.591	18.67
884.759	17.92
884.927	17.99
885.096	17.87
885.264	18.09
885.432	17.93
885.6	17.09
885.769	16.17
885.937	16.46
886.105	16
886.273	16.74
886.441	16.7
886.609	17.07
886.777	15.25
886.945	14.35
887.113	13.6
887.281	15.05
887.449	16.95
887.617	18.98
887.785	17
887.953	17.36
888.121	14.37
888.289	11.86
888.457	12.8
888.625	13.75
888.793	14.52
888.961	12.77
889.129	10.57
889.296	11.62
889.464	9.39
889.632	9.68
889.8	9.88
889.967	11.91
890.135	15.85
