Data from 2987_Reflection_01.txt Node
Date: Mon Nov 09 09:33:50 EST 2015
User: Geneva
Spectrometer: USB4E03002
Autoset integration time: false
Trigger mode: 4
Integration Time (sec): 1.000000E-1
Scans to average: 10
Electric dark correction enabled: false
Nonlinearity correction enabled: false
Boxcar width: 5
Stray light correction enabled: false
XAxis mode: Wavelengths
Stop averaging: false
Number of Pixels in Spectrum: 3648
>>>>>Begin Spectral Data<<<<<
177.575	-184.36
177.794	-170.18
178.014	-929.49
178.233	-1501.85
178.452	639.1
178.672	2297.73
178.891	629.95
179.11	345.81
179.33	413.74
179.549	409.32
179.768	335.18
179.987	342.45
180.207	426.1
180.426	673.89
180.645	854.36
180.864	-1127.78
181.084	6647.37
181.303	-906.56
181.522	-566.67
181.741	-1085.71
181.96	-535.34
182.179	-470.87
182.398	-2074.19
182.618	592.58
182.837	707.55
183.056	1137.3
183.275	1064.17
183.494	861.84
183.713	676.08
183.932	722.58
184.151	642.97
184.37	284.48
184.589	513.33
184.808	512.79
185.027	1132.2
185.246	2123.33
185.465	616.89
185.684	734.8
185.903	677.22
186.122	477.67
186.341	818.54
186.56	577.87
186.779	-3302.5
186.998	982.91
187.216	-9620
187.435	1759.76
187.654	1047.33
187.873	-1620.99
188.092	-8906.25
188.311	-1672.37
188.53	-937.93
188.748	-803.92
188.967	-661.54
189.186	-715.79
189.405	-1211.63
189.623	-1460.94
189.842	-473.02
190.061	-263.84
190.28	-230.48
190.498	-262.77
190.717	-380.37
190.936	-279.85
191.154	-252.23
191.373	-194.29
191.592	-161.3
191.81	-133.63
192.029	-186.53
192.248	-264.4
192.466	-593.25
192.685	776.82
192.904	989.74
193.122	1035.29
193.341	2932.5
193.559	3654.29
193.778	-1102.68
193.996	1143.52
194.215	1327.78
194.433	917.29
194.652	-3107.69
194.87	-4403.7
195.089	-910.83
195.307	-475.42
195.526	-207.1
195.744	-399.63
195.963	-824.43
196.181	-1498.75
196.399	-336.34
196.618	-438.87
196.836	10941.67
197.055	2010.14
197.273	-2873.33
197.491	3073.91
197.71	1420.59
197.928	489.69
198.146	673.49
198.365	474.04
198.583	487.58
198.801	304.74
199.019	331.06
199.238	492.36
199.456	427.55
199.674	571.49
199.892	451.49
200.111	475.63
200.329	607.69
200.547	832.9
200.765	-11354.55
200.983	1975.41
201.202	-6677.78
201.42	1394.9
201.638	-639.88
201.856	-728.16
202.074	4973.08
202.292	-1440.91
202.51	4651.72
202.728	-2874.47
202.946	984.56
203.165	1087.39
203.383	647.44
203.601	483.16
203.819	4652
204.037	904.55
204.255	580.6
204.473	1404.71
204.691	3040.54
204.909	-2858.82
205.127	-1176.19
205.345	-2548.48
205.562	-2445.71
205.78	-322.04
205.998	-319.92
206.216	-761.17
206.434	-1022.45
206.652	-348.15
206.87	-303.79
207.088	-267.93
207.306	-567.94
207.523	-787.15
207.741	-488.3
207.959	-1723.08
208.177	-1012.39
208.395	-421.27
208.612	-324.66
208.83	-356.52
209.048	-1260.47
209.266	-3203.23
209.483	3117.14
209.701	-4609.52
209.919	775.57
210.136	-15066.67
210.354	-843.55
210.572	-2986.84
210.79	694.19
211.007	474.19
211.225	435.78
211.442	729.19
211.66	505.26
211.878	726.67
212.095	1059.03
212.313	2006.49
212.53	1321.88
212.748	2513.79
212.966	585.12
213.183	1450.41
213.401	1778.12
213.618	-2062.5
213.836	-1325.45
214.053	-418.77
214.271	-789.87
214.488	-607.53
214.705	-330.79
214.923	-578.74
215.14	1624.32
215.358	-633.55
215.575	-2294.87
215.793	-1008.99
216.01	2291.49
216.227	519.53
216.445	342.5
216.662	335.05
216.879	376.77
217.097	333.67
217.314	423.41
217.531	425.94
217.749	426.28
217.966	520.88
218.183	374.95
218.4	381.39
218.618	502.12
218.835	777.31
219.052	689.43
219.269	430.74
219.487	363.95
219.704	420.71
219.921	497.85
220.138	409.14
220.355	337.08
220.572	306.42
220.79	283.45
221.007	214.67
221.224	195.8
221.441	191.1
221.658	249.34
221.875	388.75
222.092	224.23
222.309	242.86
222.526	286.91
222.743	1621.05
222.96	2361.29
223.177	-934.38
223.394	-328.5
223.611	-425.66
223.828	-206.39
224.045	-597.54
224.262	706.48
224.479	-2015.62
224.696	-1645.83
224.913	-19975
225.13	577.91
225.347	518.57
225.564	391.95
225.781	247.73
225.997	192.88
226.214	142.74
226.431	115.62
226.648	123.36
226.865	104.77
227.082	81.21
227.298	74.43
227.515	71.8
227.732	62.19
227.949	58.48
228.165	56.19
228.382	61.15
228.599	71.21
228.816	77.86
229.032	77.38
229.249	81.31
229.466	94.33
229.682	114.46
229.899	100.09
230.116	121.52
230.332	177.56
230.549	232.54
230.765	267.58
230.982	187.71
231.199	228.8
231.415	167.33
231.632	158.8
231.848	194.57
232.065	160.2
232.281	155.89
232.498	138.52
232.714	102.43
232.931	105.86
233.147	93.58
233.364	100.58
233.58	95.66
233.797	110.95
234.013	134.38
234.23	122.55
234.446	114.94
234.662	140.03
234.879	160.71
235.095	176.07
235.312	163.95
235.528	157.07
235.744	179.37
235.961	158.49
236.177	132.63
236.393	118.85
236.61	124
236.826	137.52
237.042	127.13
237.258	119.27
237.475	118.18
237.691	108.19
237.907	118.95
238.123	113.86
238.339	130.11
238.556	137.52
238.772	133.76
238.988	112.21
239.204	96.09
239.42	86.06
239.636	86.4
239.853	86.77
240.069	87.04
240.285	79.31
240.501	68.56
240.717	63.39
240.933	54.85
241.149	54.59
241.365	51.37
241.581	53.33
241.797	50.29
242.013	46.62
242.229	46.08
242.445	40.94
242.661	38.88
242.877	41.94
243.093	37.04
243.309	43.86
243.525	41.18
243.741	43.6
243.957	36.54
244.173	35.98
244.388	36.43
244.604	28.31
244.82	29.96
245.036	26.82
245.252	26.92
245.468	29.28
245.683	25.78
245.899	25.39
246.115	26.31
246.331	28.23
246.547	27.94
246.762	28.62
246.978	30.05
247.194	29.83
247.409	31.77
247.625	32.29
247.841	34.41
248.057	40.01
248.272	45.16
248.488	47.06
248.703	54.05
248.919	58.98
249.135	58.56
249.35	61.59
249.566	60.87
249.782	61.43
249.997	61.72
250.213	50.37
250.428	45.97
250.644	39.83
250.859	39.78
251.075	38.1
251.29	37.43
251.506	44.83
251.721	46.48
251.937	44.07
252.152	48.33
252.368	45.87
252.583	59.31
252.798	71.7
253.014	85.72
253.229	93.66
253.445	91.95
253.66	88.4
253.875	72.97
254.091	72.54
254.306	76.31
254.521	67.43
254.737	71.32
254.952	69.27
255.167	67.7
255.383	63.15
255.598	56.39
255.813	45.96
256.028	49.25
256.244	49.98
256.459	45.82
256.674	39.79
256.889	37.71
257.104	33.74
257.32	31.72
257.535	24.78
257.75	21.63
257.965	21.7
258.18	23.89
258.395	21.76
258.61	20.57
258.826	19.4
259.041	22.12
259.256	23.47
259.471	24.32
259.686	23.67
259.901	28.04
260.116	31.13
260.331	31.47
260.546	35.09
260.761	36.74
260.976	39.91
261.191	44.23
261.406	43.36
261.621	43.75
261.836	45.96
262.05	45.16
262.265	39.19
262.48	42.14
262.695	44.33
262.91	42.48
263.125	41.75
263.34	42.73
263.555	42.03
263.769	42.73
263.984	43.68
264.199	47
264.414	51.14
264.629	52.96
264.843	54.35
265.058	53.89
265.273	49.79
265.488	50.49
265.702	47.34
265.917	45.12
266.132	46.26
266.346	45.33
266.561	43.18
266.776	41.57
266.99	42.22
267.205	40.58
267.42	40.34
267.634	40.49
267.849	38.68
268.063	42.92
268.278	40.55
268.492	40.68
268.707	34.52
268.922	29
269.136	29.82
269.351	29.14
269.565	24.3
269.78	22.13
269.994	19.96
270.209	21.35
270.423	21.44
270.637	23.8
270.852	18.9
271.066	23.88
271.281	22.53
271.495	25.64
271.709	26.94
271.924	29.74
272.138	31.51
272.353	31.64
272.567	30.29
272.781	27.29
272.996	26.1
273.21	27.92
273.424	25.63
273.638	31.16
273.853	28.71
274.067	28.21
274.281	29.14
274.495	30.88
274.71	31.8
274.924	33.03
275.138	35.33
275.352	35.62
275.566	40.72
275.781	42.07
275.995	41.09
276.209	40.52
276.423	39.82
276.637	37.14
276.851	34.24
277.065	34.32
277.279	37.43
277.493	36.17
277.707	36.09
277.921	29.96
278.135	31.52
278.349	29.17
278.563	28.92
278.777	28.02
278.991	30.34
279.205	32.74
279.419	33.7
279.633	31.43
279.847	32.13
280.061	29.12
280.275	31.65
280.489	29.8
280.703	32.43
280.917	32.33
281.131	32.08
281.344	29.9
281.558	31.67
281.772	31.73
281.986	31.43
282.2	30.86
282.414	35.33
282.627	30.86
282.841	31.93
283.055	30.85
283.269	30.51
283.482	29.8
283.696	30.91
283.91	29.08
284.123	26.27
284.337	24.57
284.551	24.37
284.764	20.92
284.978	25.15
285.192	25.19
285.405	26.12
285.619	27.88
285.833	29.27
286.046	27.81
286.26	25.2
286.473	24.52
286.687	27.31
286.9	27.74
287.114	30.83
287.327	29.46
287.541	27.24
287.754	23.72
287.968	18.3
288.181	18.58
288.395	23.09
288.608	27.65
288.822	29.28
289.035	26.35
289.248	26.88
289.462	25.75
289.675	24.35
289.889	25.31
290.102	28.21
290.315	28.08
290.529	26.04
290.742	22.83
290.955	21.24
291.169	21.2
291.382	22.84
291.595	22.31
291.808	22.36
292.022	23.47
292.235	25.68
292.448	20.75
292.661	22.45
292.875	24.76
293.088	26.72
293.301	27.7
293.514	25.75
293.727	23.62
293.94	22.85
294.153	21.46
294.367	19.04
294.58	17.98
294.793	19.04
295.006	19.9
295.219	18.88
295.432	17.76
295.645	14.63
295.858	14.09
296.071	13.75
296.284	13.56
296.497	15.88
296.71	18.37
296.923	19.45
297.136	21.12
297.349	22.51
297.562	22.57
297.775	22.84
297.988	25.43
298.201	27.04
298.414	29.91
298.626	30.8
298.839	29.29
299.052	29.44
299.265	27.85
299.478	27.01
299.691	25.99
299.903	25.66
300.116	23.48
300.329	24.02
300.542	27.92
300.755	26.92
300.967	26.76
301.18	28.93
301.393	28.22
301.605	29.15
301.818	29.77
302.031	30.16
302.243	31.45
302.456	32.7
302.669	29.7
302.881	26.89
303.094	28.33
303.307	27.25
303.519	25.76
303.732	26.71
303.944	25.25
304.157	24.59
304.37	20.12
304.582	17.79
304.795	19.39
305.007	21.45
305.22	21
305.432	19.63
305.645	18.72
305.857	18.42
306.069	16.27
306.282	18.78
306.494	17.46
306.707	22.36
306.919	23.65
307.132	24.78
307.344	24.19
307.556	26.73
307.769	25.07
307.981	27.44
308.193	28.03
308.406	26.01
308.618	23.33
308.83	23.15
309.043	24.54
309.255	23.4
309.467	20.49
309.679	20.65
309.892	19.28
310.104	20.1
310.316	20.76
310.528	22.05
310.74	24.02
310.953	26.05
311.165	27.04
311.377	25.78
311.589	25.66
311.801	28.86
312.013	29.45
312.225	30.22
312.437	31.69
312.649	30.12
312.862	28.94
313.074	27.95
313.286	27.2
313.498	28.72
313.71	26.34
313.922	29.66
314.134	28.21
314.346	26.23
314.558	25.51
314.77	23.95
314.982	22.51
315.193	20.89
315.405	23.95
315.617	26.05
315.829	26.01
316.041	27.84
316.253	26.88
316.465	26.31
316.677	30.81
316.888	33.73
317.1	33.2
317.312	34.65
317.524	38.37
317.736	39.22
317.947	37.34
318.159	36.94
318.371	39.13
318.583	36.25
318.794	38.19
319.006	34.7
319.218	30.56
319.43	32.03
319.641	35.23
319.853	33.08
320.064	33.06
320.276	38.76
320.488	38.99
320.699	36.84
320.911	39.94
321.123	37.14
321.334	39.58
321.546	38.23
321.757	37.66
321.969	33.75
322.18	31.93
322.392	28.83
322.603	24.04
322.815	27.17
323.026	24.83
323.238	22.49
323.449	25.92
323.661	24.56
323.872	26.88
324.083	24.98
324.295	26.51
324.506	26.63
324.718	26.4
324.929	29.5
325.14	26.04
325.352	27.75
325.563	28.67
325.774	26.61
325.986	29.98
326.197	28.84
326.408	27.96
326.62	28.84
326.831	29.71
327.042	31.57
327.253	28.96
327.464	29.16
327.676	30.61
327.887	33.96
328.098	35.21
328.309	32.26
328.52	30.47
328.732	34.21
328.943	34.08
329.154	34.95
329.365	33.46
329.576	37.33
329.787	37.16
329.998	38
330.209	38.06
330.42	39.63
330.631	40.56
330.842	45
331.053	44.62
331.264	44.61
331.475	44.61
331.686	44.65
331.897	42.81
332.108	42.2
332.319	41.94
332.53	40.26
332.741	37.67
332.952	36.62
333.163	35
333.374	34.33
333.585	36.44
333.795	35.94
334.006	35.21
334.217	31.72
334.428	33.93
334.639	32.46
334.849	31.47
335.06	32.35
335.271	29.29
335.482	27.86
335.692	26.34
335.903	25.62
336.114	25.65
336.325	26.11
336.535	28.65
336.746	27.58
336.957	27.41
337.167	29.6
337.378	30.57
337.589	34.03
337.799	36.87
338.01	39.84
338.22	40.81
338.431	40.1
338.642	39.48
338.852	40.23
339.063	39.83
339.273	39.62
339.484	38.99
339.694	36.33
339.905	36.02
340.115	33.33
340.326	30.06
340.536	27.23
340.746	28.82
340.957	29.47
341.167	25.96
341.378	27.09
341.588	24.73
341.799	21.16
342.009	19.79
342.219	20.6
342.43	19.8
342.64	20.73
342.85	21.94
343.061	18.79
343.271	18.41
343.481	21.83
343.691	18.58
343.902	20.33
344.112	23.07
344.322	24.41
344.532	22.23
344.743	23.16
344.953	24.25
345.163	22.19
345.373	23.44
345.583	24.64
345.793	24.23
346.004	25.08
346.214	27.54
346.424	27.23
346.634	31.54
346.844	32.1
347.054	30.84
347.264	31.09
347.474	34.4
347.684	37.17
347.894	35.45
348.104	33.87
348.314	36.77
348.524	32.69
348.734	33.53
348.944	29.34
349.154	27.37
349.364	27
349.574	24.83
349.784	23.15
349.994	22.56
350.204	25.7
350.413	25.03
350.623	23.05
350.833	27.21
351.043	26.79
351.253	27.58
351.463	28.2
351.672	30.39
351.882	32.61
352.092	30.82
352.302	29.42
352.511	28.89
352.721	29.08
352.931	28.99
353.141	24.8
353.35	23.31
353.56	22.45
353.77	23.35
353.979	22.02
354.189	20.44
354.399	21.51
354.608	20
354.818	18.9
355.027	17.73
355.237	18.63
355.447	20.66
355.656	19.52
355.866	19.66
356.075	20.39
356.285	21.8
356.494	21.79
356.704	21.47
356.913	22.53
357.123	22.45
357.332	26.03
357.542	25.52
357.751	25.16
357.96	26.54
358.17	26.22
358.379	26.39
358.589	26.01
358.798	27.19
359.007	27.59
359.217	26.54
359.426	26.79
359.635	24.98
359.845	23.47
360.054	21.9
360.263	20.6
360.472	21.34
360.682	20.36
360.891	20.3
361.1	19.87
361.309	19.21
361.519	19.27
361.728	20.17
361.937	20.62
362.146	21.94
362.355	22.28
362.564	22.44
362.774	21.24
362.983	20.27
363.192	18.13
363.401	16.56
363.61	16.38
363.819	17.24
364.028	14.83
364.237	12.91
364.446	10
364.655	10.87
364.864	12.32
365.073	12.13
365.282	13.29
365.491	14.85
365.7	16.14
365.909	18.09
366.118	18.56
366.327	19.22
366.536	19.48
366.745	21.46
366.954	20.89
367.162	21.17
367.371	23.93
367.58	23.86
367.789	23.41
367.998	23.22
368.207	21.17
368.415	22.23
368.624	22.45
368.833	21.75
369.042	21.02
369.25	22.8
369.459	23.1
369.668	22.44
369.877	22.43
370.085	22.94
370.294	23.19
370.503	23.88
370.711	22.04
370.92	21.16
371.129	22.12
371.337	22.15
371.546	22.84
371.754	22.33
371.963	22.94
372.171	22.79
372.38	23.7
372.589	23.99
372.797	24.23
373.006	23.87
373.214	23.18
373.423	23.48
373.631	23.42
373.84	22.03
374.048	20.46
374.256	18.92
374.465	19.3
374.673	17.53
374.882	15.91
375.09	16.7
375.298	17.24
375.507	18.58
375.715	16.42
375.923	16.73
376.132	14.35
376.34	14.85
376.548	14.69
376.757	13.21
376.965	12.43
377.173	12.62
377.381	11.14
377.59	12.56
377.798	12.66
378.006	15.63
378.214	15.78
378.423	17.41
378.631	17.64
378.839	17.04
379.047	16.02
379.255	18.13
379.463	19.45
379.671	21.09
379.879	20.48
380.088	19.52
380.296	18.04
380.504	18.15
380.712	18.69
380.92	17.42
381.128	18.87
381.336	21.33
381.544	19.77
381.752	18.99
381.96	17.39
382.168	16.35
382.376	16.25
382.584	16.67
382.791	16.65
382.999	15.6
383.207	15.56
383.415	13.89
383.623	13.46
383.831	12.77
384.039	12.05
384.247	12
384.454	10.37
384.662	10.24
384.87	9.46
385.078	8.81
385.285	9.13
385.493	10.24
385.701	11.71
385.909	12.11
386.116	13.48
386.324	14.51
386.532	14.88
386.739	15.98
386.947	16.5
387.155	18.12
387.362	19.33
387.57	20.24
387.778	21.07
387.985	20.19
388.193	19.36
388.4	18.16
388.608	18.71
388.816	18.65
389.023	18.1
389.231	16.95
389.438	15.41
389.646	15.75
389.853	14.68
390.061	14.8
390.268	15.16
390.475	15.39
390.683	16.01
390.89	15.9
391.098	15.92
391.305	16.18
391.512	16.51
391.72	17.38
391.927	16.77
392.135	16.05
392.342	15.57
392.549	16.87
392.756	16.31
392.964	16.72
393.171	16.26
393.378	16.85
393.586	16.41
393.793	17.45
394	17.24
394.207	16.56
394.414	17.83
394.622	18.33
394.829	17.62
395.036	18.29
395.243	17.31
395.45	17.58
395.657	16.5
395.864	17.57
396.072	17.48
396.279	16.65
396.486	16.51
396.693	15.57
396.9	14.28
397.107	13.48
397.314	13.14
397.521	13.91
397.728	13
397.935	13.18
398.142	12.72
398.349	11.7
398.556	12.01
398.763	11.89
398.97	12.35
399.177	12.22
399.383	12.71
399.59	13.06
399.797	13.66
400.004	13.36
400.211	12.8
400.418	12.44
400.625	12.93
400.831	12.24
401.038	12.53
401.245	12.8
401.452	12.61
401.658	12.92
401.865	11.77
402.072	10.95
402.279	11.45
402.485	11.91
402.692	12.38
402.899	12.13
403.105	11.89
403.312	13.15
403.519	13.69
403.725	14.12
403.932	14.03
404.138	14.11
404.345	14.33
404.552	13.88
404.758	14.14
404.965	14.71
405.171	14.03
405.378	15.4
405.584	13.82
405.791	13.53
405.997	13.39
406.204	13.06
406.41	13.9
406.617	13.88
406.823	13.4
407.029	12.85
407.236	11.8
407.442	12.67
407.649	12.34
407.855	13.34
408.061	13.85
408.268	14.06
408.474	13.05
408.68	11.61
408.887	10.65
409.093	12.07
409.299	12.61
409.505	13.13
409.712	13.28
409.918	13.4
410.124	12.79
410.33	12.11
410.537	11.37
410.743	11.24
410.949	13.81
411.155	15.89
411.361	15.15
411.567	15.38
411.773	14.97
411.98	14.34
412.186	13.97
412.392	13.86
412.598	13.81
412.804	14.15
413.01	15.63
413.216	14.93
413.422	14.23
413.628	15.26
413.834	15.46
414.04	14.85
414.246	15.45
414.452	15
414.658	14.79
414.864	14.82
415.07	14.97
415.275	12.97
415.481	12.15
415.687	11.62
415.893	11.25
416.099	10.48
416.305	10.64
416.511	10.1
416.716	9.36
416.922	10.07
417.128	9.98
417.334	10.28
417.539	10.66
417.745	10.52
417.951	10.36
418.157	10.14
418.362	9.59
418.568	9.51
418.774	8.87
418.979	9.43
419.185	8.45
419.391	8.17
419.596	7.83
419.802	7.66
420.008	7.84
420.213	7.8
420.419	7.49
420.624	8.19
420.83	8.91
421.035	9.54
421.241	9.74
421.446	10.09
421.652	10.05
421.857	10.04
422.063	10.1
422.268	9.9
422.474	10.1
422.679	10.09
422.885	9.76
423.09	8.74
423.295	8.47
423.501	8.19
423.706	8.41
423.911	8.37
424.117	8.05
424.322	8.6
424.527	8.61
424.733	8.65
424.938	8.09
425.143	8.18
425.349	8.91
425.554	9.57
425.759	10.01
425.964	9.96
426.169	9.8
426.375	9.76
426.58	9.34
426.785	9.49
426.99	9.2
427.195	10.05
427.4	10.3
427.605	10.08
427.811	8.87
428.016	8.05
428.221	7.85
428.426	9.06
428.631	9.63
428.836	9.5
429.041	10.34
429.246	10.47
429.451	10.35
429.656	10.79
429.861	10.64
430.066	11.79
430.271	11.96
430.476	11.81
430.681	11.1
430.886	11.25
431.09	11.75
431.295	10.71
431.5	10.45
431.705	9.99
431.91	9.63
432.115	9.11
432.32	9
432.524	8.9
432.729	9.22
432.934	8.73
433.139	8.67
433.343	8.66
433.548	8.65
433.753	8.53
433.958	8.47
434.162	8.18
434.367	9.11
434.572	8.89
434.776	9.02
434.981	8.94
435.186	8.75
435.39	8.17
435.595	7.36
435.799	8.03
436.004	8.7
436.209	9.28
436.413	9.27
436.618	8.75
436.822	8.61
437.027	8.75
437.231	8.62
437.436	9.38
437.64	9.56
437.845	9.8
438.049	9.15
438.253	9.03
438.458	9.1
438.662	9.4
438.867	9.92
439.071	9.8
439.275	9.36
439.48	9.67
439.684	9.42
439.888	9.66
440.093	9.85
440.297	9.92
440.501	9.47
440.706	9.56
440.91	9.67
441.114	8.96
441.318	9.43
441.523	9.95
441.727	9.54
441.931	10.2
442.135	10.14
442.339	9.83
442.543	10.1
442.748	10.74
442.952	10.28
443.156	9.47
443.36	9.74
443.564	9.62
443.768	9.15
443.972	9.67
444.176	9.32
444.38	9.38
444.584	10.05
444.788	9.97
444.992	9.32
445.196	9.83
445.4	9.86
445.604	9.76
445.808	9.56
446.012	9.83
446.216	9.31
446.42	9.41
446.624	9.4
446.828	8.9
447.032	8.71
447.235	8.91
447.439	8.31
447.643	8.43
447.847	8.76
448.051	9.26
448.254	8.97
448.458	9.09
448.662	8.98
448.866	9.19
449.069	8.87
449.273	9.26
449.477	9.39
449.681	9.53
449.884	9.98
450.088	10.02
450.292	9.64
450.495	9.96
450.699	10.38
450.902	9.72
451.106	8.98
451.31	8.99
451.513	9.36
451.717	9.48
451.92	9.94
452.124	9.87
452.327	9.64
452.531	9.96
452.734	10.67
452.938	9.59
453.141	10.8
453.345	11.27
453.548	11.74
453.752	11.31
453.955	11.21
454.158	10.54
454.362	10.21
454.565	10.14
454.769	9.85
454.972	9.49
455.175	10.4
455.379	9.23
455.582	9.68
455.785	9.93
455.988	9.67
456.192	9.23
456.395	9.72
456.598	9.61
456.801	9.62
457.005	9.5
457.208	8.97
457.411	8.9
457.614	8.9
457.817	8.5
458.021	7.85
458.224	7.82
458.427	8.19
458.63	8.39
458.833	8.67
459.036	8.72
459.239	9.02
459.442	9.14
459.645	9.04
459.848	8.99
460.051	9.24
460.254	9.49
460.457	9.5
460.66	9.33
460.863	9.34
461.066	8.9
461.269	8.68
461.472	8.36
461.675	8.55
461.878	8.73
462.081	8.59
462.284	8.74
462.486	8.96
462.689	9.31
462.892	9.52
463.095	8.9
463.298	9.07
463.5	9.5
463.703	9.66
463.906	9.66
464.109	9.7
464.311	10.53
464.514	10.16
464.717	10.25
464.92	10.36
465.122	10.55
465.325	10.73
465.528	10.36
465.73	9.91
465.933	9.32
466.135	9.54
466.338	9.52
466.541	9.25
466.743	9.49
466.946	9.28
467.148	9.4
467.351	8.88
467.553	10
467.756	10.25
467.958	10.18
468.161	10.86
468.363	10.65
468.566	10.39
468.768	10.42
468.971	10.05
469.173	10.99
469.375	10.48
469.578	9.79
469.78	8.67
469.983	9.25
470.185	9.81
470.387	9.5
470.59	8.9
470.792	8.84
470.994	8.35
471.196	8.55
471.399	7.92
471.601	8.31
471.803	8.87
472.005	8.75
472.208	8.29
472.41	7.75
472.612	7.59
472.814	8.42
473.016	8.38
473.218	8.72
473.421	8.28
473.623	7.75
473.825	8.27
474.027	8.43
474.229	8.62
474.431	8.99
474.633	9
474.835	9.21
475.037	8.46
475.239	9.11
475.441	9.27
475.643	9.8
475.845	9.99
476.047	9.1
476.249	9.74
476.451	9.74
476.653	10.06
476.855	10.35
477.057	9.35
477.258	9.66
477.46	9.34
477.662	9.59
477.864	9.35
478.066	9.52
478.268	9.8
478.469	9.16
478.671	9.22
478.873	8.64
479.075	7.94
479.276	8.57
479.478	8.13
479.68	7.73
479.882	7.39
480.083	7.04
480.285	6.86
480.487	6.37
480.688	6.24
480.89	6.02
481.091	5.77
481.293	5.82
481.495	5.55
481.696	5.79
481.898	5.74
482.099	5.61
482.301	5.67
482.502	5.52
482.704	5.5
482.905	5.44
483.107	5.39
483.308	5.38
483.51	5.58
483.711	5.55
483.913	5.65
484.114	5.69
484.315	5.66
484.517	5.65
484.718	5.8
484.92	6.06
485.121	6.19
485.322	6
485.524	6.22
485.725	6.04
485.926	6.1
486.127	5.78
486.329	5.75
486.53	5.96
486.731	5.8
486.932	5.73
487.134	5.67
487.335	5.58
487.536	5.89
487.737	5.88
487.938	6.09
488.139	6.08
488.341	6.14
488.542	6.12
488.743	6.35
488.944	6.35
489.145	6.46
489.346	6.19
489.547	6.34
489.748	6.21
489.949	6.07
490.15	5.61
490.351	5.85
490.552	5.92
490.753	5.84
490.954	5.64
491.155	5.85
491.356	6
491.557	6.15
491.758	6.37
491.959	6.47
492.159	6.51
492.36	6.82
492.561	6.97
492.762	7.27
492.963	7.88
493.164	7.69
493.364	7.82
493.565	7.63
493.766	7.71
493.967	7.96
494.167	7.48
494.368	7.57
494.569	7.69
494.769	7.78
494.97	7.61
495.171	7.55
495.371	7.53
495.572	7.49
495.773	7.25
495.973	7.23
496.174	6.77
496.375	7.11
496.575	7.25
496.776	7.2
496.976	7.03
497.177	6.9
497.377	6.85
497.578	7.08
497.778	7.44
497.979	8.01
498.179	8.2
498.38	8.03
498.58	7.8
498.78	7.97
498.981	7.92
499.181	7.65
499.382	7.71
499.582	7.6
499.782	7.45
499.983	7.51
500.183	7.44
500.383	7.77
500.584	8.04
500.784	8.62
500.984	8.4
501.184	8.83
501.385	8.61
501.585	8.82
501.785	9.08
501.985	9.44
502.185	9
502.386	9.31
502.586	9.27
502.786	8.64
502.986	8.76
503.186	9.01
503.386	8.91
503.586	9.66
503.786	9.62
503.987	9.62
504.187	9.43
504.387	9.7
504.587	9.11
504.787	9.55
504.987	10.31
505.187	10.23
505.387	10.17
505.587	9.68
505.786	9.94
505.986	10
506.186	9.85
506.386	10.73
506.586	10.66
506.786	10.96
506.986	10.38
507.186	10.35
507.386	10.04
507.585	9.9
507.785	10.18
507.985	9.81
508.185	9.81
508.384	9.7
508.584	8.72
508.784	8.34
508.984	8.31
509.183	8.39
509.383	8.2
509.583	8.63
509.782	8.32
509.982	8.73
510.182	8.73
510.381	8.72
510.581	8.47
510.781	8.59
510.98	8.97
511.18	8.6
511.379	8.91
511.579	8.81
511.778	8.77
511.978	9.2
512.177	9.19
512.377	9.39
512.576	9.86
512.776	10.61
512.975	11.07
513.175	10.91
513.374	11.4
513.573	11.09
513.773	11.66
513.972	11.43
514.172	11.33
514.371	11.6
514.57	11.01
514.77	10.32
514.969	10.28
515.168	9.84
515.367	10.08
515.567	9.83
515.766	9.69
515.965	9.16
516.164	9.35
516.364	9.36
516.563	9.24
516.762	9.52
516.961	9.62
517.16	9.23
517.359	9.31
517.559	9.08
517.758	8.9
517.957	9.21
518.156	9.75
518.355	9.52
518.554	9.32
518.753	8.97
518.952	9.48
519.151	9.57
519.35	10.01
519.549	9.79
519.748	9.96
519.947	10.6
520.146	10.41
520.345	9.9
520.544	10.4
520.743	10.2
520.942	10.78
521.141	10.68
521.339	10.98
521.538	10.66
521.737	10.95
521.936	11.6
522.135	10.86
522.333	11.56
522.532	11.63
522.731	11.43
522.93	11.96
523.129	11.79
523.327	11.16
523.526	11.33
523.725	11.22
523.923	10.93
524.122	10.21
524.321	10.22
524.519	9.74
524.718	9.84
524.917	9.85
525.115	9.79
525.314	9.56
525.512	9.61
525.711	9.08
525.909	9.21
526.108	9.31
526.306	9.4
526.505	9.77
526.703	9.72
526.902	9.63
527.1	9.51
527.299	9.45
527.497	9.32
527.696	9.41
527.894	9.53
528.092	9.54
528.291	9.66
528.489	9.98
528.688	10.01
528.886	9.87
529.084	10.12
529.283	10.44
529.481	10.72
529.679	11.01
529.877	11.1
530.076	11.38
530.274	11.59
530.472	11.63
530.67	11.54
530.869	11.35
531.067	11.62
531.265	11.68
531.463	11.6
531.661	11.43
531.859	11.51
532.057	11.7
532.255	11.38
532.454	11.36
532.652	11.41
532.85	11.44
533.048	11.56
533.246	11.64
533.444	11.55
533.642	11.55
533.84	11.78
534.038	11.84
534.236	11.22
534.434	11.41
534.632	11.12
534.83	11.51
535.027	11.56
535.225	11.72
535.423	11.66
535.621	11.71
535.819	11.72
536.017	11.77
536.215	12.06
536.412	12.44
536.61	12.97
536.808	13.48
537.006	13.16
537.203	13.15
537.401	13.3
537.599	13.55
537.797	13.77
537.994	13.81
538.192	13.72
538.39	13.11
538.587	13.48
538.785	13.11
538.983	12.66
539.18	12.68
539.378	12.53
539.575	12.35
539.773	12.17
539.97	12.11
540.168	12.07
540.366	12.24
540.563	12.41
540.761	12.26
540.958	12.39
541.155	12.78
541.353	12.62
541.55	12.8
541.748	12.8
541.945	12.91
542.143	13.38
542.34	13.58
542.537	13.77
542.735	13.85
542.932	14.01
543.129	13.91
543.327	13.73
543.524	13.98
543.721	13.86
543.919	14.38
544.116	14.59
544.313	13.84
544.51	13.99
544.708	13.59
544.905	13.66
545.102	14.11
545.299	13.92
545.496	14.2
545.693	14.78
545.891	15.02
546.088	14.56
546.285	14.37
546.482	14.7
546.679	14.78
546.876	15.25
547.073	15.39
547.27	15.21
547.467	15.53
547.664	15.31
547.861	15.07
548.058	14.68
548.255	15.28
548.452	16.6
548.649	16.56
548.846	16.8
549.043	16.5
549.24	16.69
549.437	16.9
549.633	17.56
549.83	18.28
550.027	18.17
550.224	18.7
550.421	18.19
550.618	16.94
550.814	16.97
551.011	16.61
551.208	17.13
551.405	17.09
551.601	17.18
551.798	17.18
551.995	17.16
552.191	17.5
552.388	17.86
552.585	18.11
552.781	18.72
552.978	19.22
553.175	18.84
553.371	19.18
553.568	19.37
553.764	18.75
553.961	18.81
554.157	18.92
554.354	19.26
554.55	18.9
554.747	18.56
554.943	18.24
555.14	17.94
555.336	18.63
555.533	18.54
555.729	18.87
555.926	19.28
556.122	19.78
556.318	19.26
556.515	19.35
556.711	19.66
556.907	20.64
557.104	20.97
557.3	20.49
557.496	20.98
557.693	20.73
557.889	20.31
558.085	20.33
558.281	19.59
558.478	19.88
558.674	19.3
558.87	19.28
559.066	18.49
559.262	18.46
559.459	18.98
559.655	18.39
559.851	18.82
560.047	19.05
560.243	19.27
560.439	19.23
560.635	18.99
560.831	18.78
561.027	18.98
561.223	19.55
561.419	19.35
561.615	19.05
561.811	19.3
562.007	18.4
562.203	18.53
562.399	18.72
562.595	18.93
562.791	19.91
562.987	20.48
563.183	20.24
563.379	20.4
563.575	20.68
563.771	21.72
563.966	21.2
564.162	21.57
564.358	21.28
564.554	21.18
564.75	21.16
564.945	21.01
565.141	21.02
565.337	20.96
565.533	20.45
565.728	20.1
565.924	19.47
566.12	20.25
566.315	20.1
566.511	20.21
566.707	20.35
566.902	20.37
567.098	19.83
567.293	19.36
567.489	19.59
567.684	19.91
567.88	20.25
568.076	20.56
568.271	20.51
568.467	21.13
568.662	20.89
568.858	20.83
569.053	20.81
569.248	20.65
569.444	20.65
569.639	20.05
569.835	20.31
570.03	20.47
570.225	20.48
570.421	20.25
570.616	19.99
570.812	19.83
571.007	20.09
571.202	20.24
571.397	20.29
571.593	20.47
571.788	21.05
571.983	20.85
572.178	20.93
572.374	20.82
572.569	21.01
572.764	21.08
572.959	21.3
573.154	20.88
573.35	20.61
573.545	20.52
573.74	20.33
573.935	20.34
574.13	20.11
574.325	19.82
574.52	20.26
574.715	19.84
574.91	19.03
575.105	19.19
575.3	19.13
575.495	19.2
575.69	20.27
575.885	20.81
576.08	20.92
576.275	20.82
576.47	20.95
576.665	20.35
576.86	20.95
577.055	22.1
577.25	22.22
577.444	22.03
577.639	22.14
577.834	21.13
578.029	20.92
578.224	21.39
578.418	21.62
578.613	22.08
578.808	22.43
579.003	22.02
579.197	21.62
579.392	22.5
579.587	23.6
579.781	23.7
579.976	24.43
580.171	24.72
580.365	24.95
580.56	25.4
580.755	25.73
580.949	25.82
581.144	26.56
581.338	26.53
581.533	25.52
581.727	24.77
581.922	25.04
582.116	24.95
582.311	25.44
582.505	24.9
582.7	24.57
582.894	24.67
583.089	24.24
583.283	23.39
583.478	23.58
583.672	23.87
583.866	24.14
584.061	23.72
584.255	22.9
584.449	22.47
584.644	22.8
584.838	22.9
585.032	22.93
585.226	23.46
585.421	23.81
585.615	24.21
585.809	24.72
586.003	25.12
586.198	25.51
586.392	26.15
586.586	26.3
586.78	25.65
586.974	25.15
587.168	24.35
587.363	23.93
587.557	24.42
587.751	23.37
587.945	23.45
588.139	23.45
588.333	23.79
588.527	23.7
588.721	23.48
588.915	23.86
589.109	24.72
589.303	24.78
589.497	24.63
589.691	24.12
589.885	25.05
590.079	24.79
590.273	24.48
590.466	23.18
590.66	23.06
590.854	22.04
591.048	22.58
591.242	22.68
591.436	22.61
591.629	23.17
591.823	24.03
592.017	23.55
592.211	22.76
592.404	23.34
592.598	24.41
592.792	24.5
592.986	25.2
593.179	24.18
593.373	23.48
593.567	24.17
593.76	24.19
593.954	23.31
594.147	23.88
594.341	24.38
594.535	23.44
594.728	23.43
594.922	24.05
595.115	23.83
595.309	23.6
595.502	24.12
595.696	24.06
595.889	24.34
596.083	24.39
596.276	24.05
596.47	24.01
596.663	24.6
596.856	24.68
597.05	24.27
597.243	24.6
597.437	25.32
597.63	25.33
597.823	25.62
598.017	25.5
598.21	25.6
598.403	25.48
598.596	26.26
598.79	26.24
598.983	26.52
599.176	27.09
599.369	27.55
599.563	27.63
599.756	27.77
599.949	27.43
600.142	27.77
600.335	29
600.528	29.61
600.722	29.07
600.915	28.85
601.108	28.38
601.301	28.06
601.494	27.46
601.687	27.6
601.88	27.64
602.073	26.91
602.266	26.08
602.459	24.79
602.652	23.91
602.845	24.01
603.038	23.74
603.231	23.91
603.424	23.53
603.617	23.48
603.809	22.82
604.002	22.96
604.195	23.6
604.388	23.66
604.581	23.84
604.774	24.06
604.966	24.07
605.159	24.57
605.352	23.81
605.545	24.56
605.737	25.06
605.93	25.41
606.123	24.88
606.316	24.21
606.508	24.58
606.701	24.74
606.894	25.65
607.086	25.74
607.279	25.88
607.471	26.57
607.664	26.12
607.857	25.53
608.049	26.22
608.242	26.14
608.434	26.29
608.627	25.96
608.819	26.7
609.012	25.67
609.204	25.72
609.397	25.22
609.589	24.59
609.782	25.08
609.974	25.8
610.166	25.33
610.359	25.31
610.551	26.49
610.743	26.76
610.936	26.23
611.128	27.7
611.32	27.76
611.513	29.08
611.705	30.61
611.897	30.12
612.09	29.75
612.282	30.03
612.474	30.8
612.666	29.63
612.858	29.82
613.051	29.67
613.243	29.3
613.435	29.81
613.627	28.82
613.819	28.71
614.011	30.3
614.203	29.8
614.395	30.16
614.588	29.52
614.78	29.72
614.972	30.43
615.164	31.62
615.356	31.53
615.548	31.32
615.74	31.81
615.932	31.05
616.124	29.69
616.315	30.22
616.507	30.28
616.699	29.22
616.891	29.12
617.083	28.1
617.275	27.35
617.467	26.96
617.659	27.54
617.85	27.3
618.042	27.95
618.234	28
618.426	28.53
618.618	28.07
618.809	29.79
619.001	29.82
619.193	30.59
619.384	30.77
619.576	31.68
619.768	30.35
619.959	30.06
620.151	29.33
620.343	29.64
620.534	29.69
620.726	29.57
620.917	29.84
621.109	30.28
621.301	30.78
621.492	29.99
621.684	28.09
621.875	28.55
622.067	28.83
622.258	29.32
622.45	30.17
622.641	29.29
622.832	29.62
623.024	29.77
623.215	29.95
623.407	28.55
623.598	29.59
623.789	31.37
623.981	31.05
624.172	31.22
624.363	30.91
624.555	30.46
624.746	31.15
624.937	30.58
625.129	30.49
625.32	30.14
625.511	30.57
625.702	29.29
625.893	28.5
626.085	28.64
626.276	28.62
626.467	28.46
626.658	27.95
626.849	27.96
627.04	28.13
627.231	27.87
627.422	28.03
627.614	27.7
627.805	28.78
627.996	29.3
628.187	29.08
628.378	27.92
628.569	28.02
628.76	28.23
628.951	28.35
629.142	28.44
629.332	28.45
629.523	28.49
629.714	28.06
629.905	27.82
630.096	27.27
630.287	27.48
630.478	29.17
630.669	29.32
630.859	29.47
631.05	29.18
631.241	29.82
631.432	29.57
631.623	30.15
631.813	31.14
632.004	30.06
632.195	29.88
632.385	29.8
632.576	29.2
632.767	29.68
632.957	30.12
633.148	30.72
633.339	30.26
633.529	30.89
633.72	30.3
633.91	30.01
634.101	30.64
634.292	31.99
634.482	32.31
634.673	32.13
634.863	31.98
635.054	31.83
635.244	31.46
635.435	31.89
635.625	32.01
635.815	32
636.006	32.84
636.196	33.79
636.387	33.39
636.577	33.29
636.767	34.34
636.958	34.89
637.148	35.17
637.338	35.35
637.529	34.76
637.719	34.45
637.909	33.84
638.099	32.88
638.29	32.98
638.48	32.9
638.67	32.97
638.86	32.33
639.05	31.63
639.241	31.5
639.431	31.17
639.621	31.29
639.811	31.4
640.001	32.56
640.191	33.2
640.381	32.98
640.571	33.53
640.761	33.6
640.951	32.91
641.141	33.98
641.331	32.8
641.521	33.46
641.711	34.61
641.901	34.79
642.091	35.09
642.281	34.59
642.471	34.78
642.661	35.04
642.851	35.66
643.041	36.98
643.231	36.1
643.42	37.31
643.61	37.73
643.8	37.2
643.99	36.61
644.18	36.01
644.369	36.06
644.559	35.7
644.749	34.01
644.939	33.08
645.128	31.88
645.318	32.29
645.508	31.94
645.697	30.02
645.887	30.78
646.076	31.12
646.266	29.91
646.456	29.72
646.645	29.57
646.835	30.7
647.024	30.71
647.214	31.64
647.403	31.43
647.593	30.82
647.782	32.73
647.972	30.45
648.161	30.88
648.351	32.03
648.54	33.2
648.73	33.31
648.919	34.27
649.108	34.9
649.298	34.9
649.487	34.97
649.677	35.68
649.866	35.99
650.055	37.43
650.244	37.13
650.434	36.74
650.623	36.24
650.812	36.04
651.002	35.55
651.191	35.37
651.38	34.22
651.569	33.94
651.758	33.85
651.947	32.6
652.137	31.37
652.326	30.29
652.515	30.61
652.704	30.84
652.893	31.56
653.082	31.35
653.271	30.52
653.46	30.82
653.649	30.6
653.838	29.92
654.027	29.28
654.216	31.49
654.405	31.94
654.594	32.69
654.783	33.16
654.972	32.19
655.161	32.35
655.35	32.27
655.539	32.46
655.728	33.25
655.916	34.8
656.105	35.51
656.294	35.67
656.483	35.56
656.672	34.21
656.86	32.39
657.049	32.71
657.238	31.7
657.427	32.45
657.615	32.68
657.804	31.98
657.993	29.74
658.181	29.79
658.37	28.58
658.559	28.32
658.747	29.14
658.936	29.75
659.125	30.88
659.313	31.49
659.502	30.93
659.69	29.58
659.879	30.47
660.067	32.09
660.256	31.97
660.444	30.8
660.633	31.22
660.821	32.49
661.01	33.26
661.198	32.71
661.387	32.75
661.575	34.44
661.763	36.98
661.952	37.39
662.14	38.16
662.328	38.08
662.517	38.93
662.705	40.01
662.893	37.35
663.082	37.09
663.27	36.68
663.458	36.93
663.646	34.87
663.834	33.93
664.023	33.76
664.211	33.46
664.399	34.8
664.587	36.41
664.775	35.96
664.963	36.87
665.152	36.69
665.34	37.73
665.528	36.1
665.716	38.35
665.904	39.2
666.092	39.69
666.28	40.39
666.468	39.38
666.656	39.43
666.844	41.11
667.032	41.43
667.22	42.1
667.408	40.68
667.596	42.73
667.784	41.81
667.971	41.32
668.159	39.64
668.347	37.86
668.535	38.27
668.723	37.63
668.911	35.39
669.098	34.4
669.286	34.18
669.474	34.32
669.662	33.06
669.849	34.28
670.037	34.77
670.225	35.58
670.413	37.02
670.6	37.12
670.788	38.54
670.976	38.96
671.163	40.77
671.351	40.39
671.538	41.31
671.726	41.59
671.913	39.65
672.101	39.18
672.289	39.07
672.476	39.5
672.664	39.3
672.851	38.5
673.039	37.99
673.226	37.84
673.413	37.3
673.601	37.44
673.788	36.82
673.976	38.59
674.163	38.04
674.35	36.49
674.538	35.86
674.725	35.64
674.912	34.32
675.1	35.45
675.287	35.39
675.474	36
675.662	35.2
675.849	37.29
676.036	36.37
676.223	37.21
676.411	38.52
676.598	38.54
676.785	38.55
676.972	38.37
677.159	39.21
677.346	38.52
677.533	40.16
677.721	39.14
677.908	38.05
678.095	37.19
678.282	36.57
678.469	36.93
678.656	35.51
678.843	35.19
679.03	35.63
679.217	33.99
679.404	33.7
679.591	32.45
679.778	33.76
679.964	32.28
680.151	32.79
680.338	33.36
680.525	33.34
680.712	34.32
680.899	35.66
681.086	36.15
681.272	36.15
681.459	36.96
681.646	36.92
681.833	37.23
682.02	40.13
682.206	40.43
682.393	39.77
682.58	39.18
682.766	39.68
682.953	39.07
683.14	38.5
683.326	40.89
683.513	41.97
683.7	44.11
683.886	43.46
684.073	41.82
684.259	43.53
684.446	44.25
684.632	43.08
684.819	42.93
685.005	43.98
685.192	45.19
685.378	43.73
685.565	41.64
685.751	38.05
685.938	38.75
686.124	38.75
686.31	37.04
686.497	36.34
686.683	38.04
686.87	38.19
687.056	35.77
687.242	34.43
687.429	33.21
687.615	34.25
687.801	36.23
687.987	34.28
688.174	34.32
688.36	34.78
688.546	36.02
688.732	35.3
688.918	34.05
689.105	35.12
689.291	35.79
689.477	36.75
689.663	35.75
689.849	36.34
690.035	38.22
690.221	39.62
690.407	41.07
690.593	41.73
690.779	42.66
690.965	43.39
691.151	43.64
691.337	42.93
691.523	41.94
691.709	42.14
691.895	41.91
692.081	42.29
692.267	41.69
692.453	39.5
692.639	40.04
692.825	40.17
693.011	39.57
693.196	40.65
693.382	41.09
693.568	44.15
693.754	44.93
693.94	45.15
694.125	42.67
694.311	42.11
694.497	42.47
694.682	42.19
694.868	41.59
695.054	40.42
695.239	37.95
695.425	37.25
695.611	34.94
695.796	34.57
695.982	33.13
696.168	35.15
696.353	34.94
696.539	34.18
696.724	32.14
696.91	31.88
697.095	33.24
697.281	34.24
697.466	34.2
697.652	34.41
697.837	34.04
698.023	33.57
698.208	31.83
698.393	31.1
698.579	31.18
698.764	31.71
698.949	31.6
699.135	29.63
699.32	29.36
699.505	29.51
699.691	30.73
699.876	31.76
700.061	32.17
700.246	33.9
700.432	35.76
700.617	36.03
700.802	39.04
700.987	40.74
701.172	44.13
701.358	43.8
701.543	43.5
701.728	40.86
701.913	41.16
702.098	41.63
702.283	42.79
702.468	42.04
702.653	40.86
702.838	39.78
703.023	39.82
703.208	40.2
703.393	41.63
703.578	42.69
703.763	46.07
703.948	48.04
704.133	50.35
704.318	50.72
704.503	52.49
704.688	55.86
704.873	54.3
705.057	55.25
705.242	57.38
705.427	57.96
705.612	57.75
705.797	57.54
705.981	56.54
706.166	55.1
706.351	52.74
706.536	49.94
706.72	48.46
706.905	50.43
707.09	49.39
707.274	47.61
707.459	46.12
707.644	46.05
707.828	43.05
708.013	42.21
708.197	42.57
708.382	44.15
708.567	45.83
708.751	48.12
708.936	45.15
709.12	44.11
709.305	43.23
709.489	44.48
709.673	44.97
709.858	45.86
710.042	45.71
710.227	44.41
710.411	43.41
710.596	42.26
710.78	38.85
710.964	41.1
711.149	41.29
711.333	41.62
711.517	39.71
711.702	37.81
711.886	35.61
712.07	36.22
712.254	37.32
712.438	37.56
712.623	40.61
712.807	41.7
712.991	42.6
713.175	40.22
713.359	41.32
713.544	42.81
713.728	44.05
713.912	45.51
714.096	44.55
714.28	43.73
714.464	44.51
714.648	42.27
714.832	41.07
715.016	39.83
715.2	41.09
715.384	38.8
715.568	37.79
715.752	37.22
715.936	38.22
716.12	38.29
716.304	38.88
716.488	38.12
716.671	38.57
716.855	40.59
717.039	40.16
717.223	40.58
717.407	41.61
717.59	45.03
717.774	44.09
717.958	44.47
718.142	45.72
718.325	46.74
718.509	48.08
718.693	46.77
718.877	47.05
719.06	48.82
719.244	49.96
719.428	52.23
719.611	47.68
719.795	51.16
719.978	52.26
720.162	51.35
720.345	50.08
720.529	52.12
720.713	54.71
720.896	54
721.08	52.17
721.263	51.99
721.446	48.92
721.63	49.65
721.813	49.21
721.997	49.05
722.18	49.35
722.364	50.9
722.547	48.98
722.73	48.7
722.914	49.42
723.097	48.22
723.28	50.72
723.464	52.16
723.647	52.7
723.83	52.98
724.013	51.74
724.197	51.6
724.38	51.96
724.563	52.28
724.746	51.35
724.929	51.46
725.112	50.79
725.296	49.11
725.479	47.24
725.662	45.04
725.845	42.67
726.028	42.96
726.211	44.32
726.394	41.35
726.577	40.61
726.76	39.56
726.943	37.79
727.126	41.4
727.309	40.54
727.492	40.43
727.675	45.05
727.858	46.61
728.041	47.47
728.224	48.36
728.407	48.56
728.589	47.61
728.772	49.1
728.955	53.37
729.138	49.39
729.321	46.74
729.503	48.19
729.686	46.98
729.869	46.54
730.052	47.03
730.234	45.66
730.417	48.25
730.6	49.23
730.782	46.03
730.965	44.9
731.148	45.66
731.33	46.82
731.513	47.22
731.695	48.96
731.878	48.81
732.061	49.18
732.243	50.52
732.426	50.05
732.608	50.7
732.791	53.87
732.973	53.53
733.156	54.5
733.338	58.32
733.52	59.32
733.703	54.86
733.885	56.37
734.068	55.74
734.25	55.12
734.432	53.71
734.615	52.4
734.797	53.86
734.979	54.43
735.162	57.83
735.344	57.51
735.526	55.46
735.708	56.75
735.891	55.1
736.073	56.26
736.255	56.78
736.437	56.7
736.619	57.34
736.802	54.73
736.984	53.64
737.166	53.71
737.348	56.14
737.53	56.61
737.712	57.27
737.894	59.36
738.076	59.35
738.258	58.83
738.44	57.37
738.622	59.57
738.804	59.38
738.986	63.9
739.168	62.54
739.35	61.49
739.532	63.28
739.714	66.06
739.896	65.52
740.078	65.77
740.259	65.12
740.441	70.39
740.623	65.34
740.805	63.01
740.987	56.43
741.168	56.5
741.35	53.32
741.532	53.03
741.714	54.23
741.895	56.41
742.077	55.18
742.259	53.68
742.44	52.83
742.622	60.41
742.804	65
742.985	69.43
743.167	68.87
743.348	67.77
743.53	70.15
743.711	61.35
743.893	63.78
744.075	63.44
744.256	63.79
744.438	65.73
744.619	62.21
744.8	61.93
744.982	61.86
745.163	62.36
745.345	62.66
745.526	63.88
745.707	68.7
745.889	65.36
746.07	64.3
746.252	64.51
746.433	63.52
746.614	60.87
746.795	63.3
746.977	60.63
747.158	58.92
747.339	60.76
747.52	58.92
747.702	62.05
747.883	59.22
748.064	61.26
748.245	61.96
748.426	60.7
748.607	63.87
748.788	62.92
748.97	67.72
749.151	74.44
749.332	74.05
749.513	72.1
749.694	71.24
749.875	73.02
750.056	71.85
750.237	73.83
750.418	75.34
750.599	77.5
750.78	75.35
750.96	74.31
751.141	66.3
751.322	70.74
751.503	69.9
751.684	68.97
751.865	68.28
752.046	71.39
752.226	71.82
752.407	74.12
752.588	70.7
752.769	72.56
752.949	72.75
753.13	75.13
753.311	74.38
753.492	76.42
753.672	78.51
753.853	80.78
754.034	82.02
754.214	80.07
754.395	79.6
754.575	79.17
754.756	77.06
754.937	76.87
755.117	80.18
755.298	78.34
755.478	72.47
755.659	73.16
755.839	69.04
756.02	67.31
756.2	71.37
756.381	66.77
756.561	66.76
756.741	64.36
756.922	62.17
757.102	57.68
757.283	52.71
757.463	58.74
757.643	53.03
757.823	51.21
758.004	47.59
758.184	44.38
758.364	44.73
758.545	40.89
758.725	44.25
758.905	43.6
759.085	45.4
759.265	50.72
759.446	48.88
759.626	48.51
759.806	50.41
759.986	50.82
760.166	50.05
760.346	50
760.526	51.4
760.706	49.59
760.886	49.92
761.066	51.22
761.246	47.12
761.426	47.2
761.606	46.18
761.786	44.03
761.966	44.33
762.146	42.63
762.326	42.78
762.506	44.32
762.686	41.83
762.866	40.3
763.046	39.18
763.225	40.02
763.405	37.64
763.585	39.55
763.765	42.14
763.945	42.65
764.124	45.03
764.304	45.26
764.484	45.81
764.664	50.25
764.843	55.09
765.023	58.7
765.203	55.4
765.382	59.16
765.562	59.77
765.741	62.2
765.921	66
766.101	66.5
766.28	68.94
766.46	69.16
766.639	72.43
766.819	72.85
766.998	71.95
767.178	76.16
767.357	79.45
767.537	78.57
767.716	76.13
767.896	75.33
768.075	77.85
768.254	77.49
768.434	84.13
768.613	85.65
768.792	85.61
768.972	86.34
769.151	85.96
769.33	82.39
769.51	83.89
769.689	87.12
769.868	88.12
770.047	86.92
770.226	82.58
770.406	83.2
770.585	80.7
770.764	79.23
770.943	74.06
771.122	72.66
771.301	74.27
771.48	79.43
771.66	82.17
771.839	81.91
772.018	78.08
772.197	84.94
772.376	78.52
772.555	84.26
772.734	88.26
772.913	98.69
773.092	108.34
773.271	104.1
773.449	100.07
773.628	97.01
773.807	91.63
773.986	95.23
774.165	94.26
774.344	93.44
774.523	88.92
774.701	86.31
774.88	85.68
775.059	83.1
775.238	88.29
775.417	91.64
775.595	95.32
775.774	102.23
775.953	98.88
776.131	101.6
776.31	100.79
776.489	95.44
776.667	92.61
776.846	94.55
777.025	91.91
777.203	91.29
777.382	94.37
777.56	95.37
777.739	92.04
777.917	101.28
778.096	98.15
778.274	100.83
778.453	107.66
778.631	116.35
778.81	105.85
778.988	108.15
779.166	102.65
779.345	93.11
779.523	91.97
779.702	94.81
779.88	89.66
780.058	85.02
780.237	85.18
780.415	83.46
780.593	82.22
780.771	84.17
780.95	83.71
781.128	88.93
781.306	96.72
781.484	93.87
781.662	85.6
781.841	85.67
782.019	94.06
782.197	91.32
782.375	90.66
782.553	99.21
782.731	110.31
782.909	117.72
783.087	120.88
783.265	122.91
783.443	116.51
783.621	137.09
783.799	133.03
783.977	136.84
784.155	142.69
784.333	150.11
784.511	130.77
784.689	115.2
784.867	111.5
785.045	104.38
785.223	94.08
785.4	97.98
785.578	86.81
785.756	89.38
785.934	91.32
786.112	91.39
786.289	74.51
786.467	77.34
786.645	83.74
786.823	81.3
787	78.32
787.178	82.3
787.356	84.15
787.533	87.55
787.711	87.8
787.889	80.62
788.066	81.55
788.244	100.15
788.421	94.99
788.599	87.65
788.776	88.38
788.954	87.54
789.131	78.23
789.309	79.58
789.486	78.88
789.664	74.99
789.841	83.9
790.019	79.1
790.196	81.84
790.373	83.81
790.551	87.92
790.728	85.37
790.906	93.29
791.083	109.93
791.26	110.09
791.437	109.2
791.615	121.61
791.792	118.87
791.969	138.2
792.146	135.83
792.324	133.09
792.501	143.54
792.678	152.98
792.855	155.31
793.032	144.41
793.209	149.25
793.387	157.16
793.564	148.09
793.741	129.6
793.918	111.84
794.095	107.65
794.272	113.54
794.449	104.36
794.626	101.8
794.803	97.23
794.98	101.96
795.157	91.92
795.334	88.95
795.511	80.25
795.688	94.09
795.864	97.37
796.041	96.47
796.218	85.76
796.395	85.89
796.572	89.16
796.749	101.3
796.925	91.9
797.102	100.5
797.279	104.39
797.456	114.44
797.632	107.03
797.809	112.86
797.986	120.68
798.162	142.64
798.339	137.17
798.516	124.71
798.692	119.18
798.869	127.02
799.046	118.23
799.222	118.96
799.399	116.02
799.575	113.96
799.752	106.39
799.928	102.21
800.105	99.27
800.281	109.79
800.458	125.82
800.634	130.01
800.811	123.24
800.987	131.4
801.163	130.7
801.34	136.66
801.516	138.49
801.692	146.37
801.869	143.34
802.045	137.15
802.221	114.23
802.398	103.06
802.574	96.53
802.75	95.99
802.926	93.73
803.103	85.5
803.279	86.19
803.455	75.89
803.631	65.14
803.807	75.2
803.983	78.2
804.16	83.51
804.336	88.26
804.512	80.02
804.688	81.55
804.864	84.71
805.04	83.54
805.216	82.64
805.392	109.68
805.568	133.52
805.744	130.33
805.92	111.36
806.096	105.91
806.272	113.24
806.448	125.15
806.623	135.36
806.799	129.96
806.975	141.37
807.151	143.84
807.327	124.71
807.503	108.88
807.678	101.64
807.854	108.63
808.03	126.38
808.206	98.42
808.381	92.09
808.557	92.78
808.733	88.52
808.908	83.93
809.084	83.34
809.26	87.86
809.435	93.62
809.611	92.32
809.787	99.84
809.962	91.74
810.138	100.31
810.313	107.85
810.489	104.17
810.664	112.36
810.84	116.11
811.015	121.55
811.191	115.07
811.366	127.82
811.542	139.84
811.717	143.54
811.892	144.36
812.068	155.31
812.243	157.99
812.419	172.65
812.594	176.16
812.769	168.26
812.944	160.07
813.12	167.36
813.295	139.67
813.47	134.24
813.645	133.02
813.821	122.75
813.996	108.59
814.171	105.06
814.346	98.58
814.521	105.2
814.697	118.09
814.872	128.53
815.047	125.53
815.222	124.94
815.397	124.87
815.572	138.66
815.747	133.08
815.922	139.76
816.097	141.81
816.272	145.9
816.447	144.9
816.622	140.49
816.797	128.59
816.972	136.66
817.147	153.77
817.322	144.44
817.496	124.48
817.671	131.7
817.846	140.29
818.021	145.56
818.196	131.71
818.371	127.53
818.545	107.62
818.72	112.73
818.895	101.63
819.069	97.58
819.244	86.84
819.419	75.86
819.594	73.25
819.768	57.01
819.943	47.62
820.117	42.92
820.292	40.48
820.467	39.23
820.641	33.9
820.816	31.69
820.99	30.07
821.165	32.29
821.339	34.91
821.514	34.49
821.688	36.25
821.863	35.76
822.037	36.97
822.212	34.62
822.386	33.7
822.56	34.94
822.735	36.81
822.909	38.31
823.084	41.29
823.258	39.15
823.432	40.52
823.606	39.91
823.781	41.27
823.955	41.72
824.129	50.28
824.303	57.8
824.478	57.15
824.652	57.46
824.826	55.59
825	50.18
825.174	52.77
825.348	49.07
825.523	47.24
825.697	45.93
825.871	45.58
826.045	43.45
826.219	42.03
826.393	41.26
826.567	40.52
826.741	40.02
826.915	39.86
827.089	44.88
827.263	51.42
827.437	56.39
827.611	59.3
827.784	63.02
827.958	67.23
828.132	76.74
828.306	87.37
828.48	101.56
828.654	102.93
828.827	124.14
829.001	111.43
829.175	114.42
829.349	111.82
829.522	124.29
829.696	131.59
829.87	131.32
830.044	117.98
830.217	123.55
830.391	128.35
830.565	131.3
830.738	120.78
830.912	129.47
831.085	118.1
831.259	115.5
831.432	108.49
831.606	101.12
831.779	86.07
831.953	85.87
832.126	74.84
832.3	67.35
832.473	68.89
832.647	64.87
832.82	55.75
832.994	61.31
833.167	60.65
833.34	61.52
833.514	63.61
833.687	62.99
833.86	63.29
834.034	70.28
834.207	67.1
834.38	71.31
834.553	83.93
834.727	97.46
834.9	92.49
835.073	100.96
835.246	100.82
835.419	101.11
835.593	120.91
835.766	127.94
835.939	120.98
836.112	129.38
836.285	128.55
836.458	123.17
836.631	136.69
836.804	150.46
836.977	142.04
837.15	164.62
837.323	159.94
837.496	165.78
837.669	167.92
837.842	179.91
838.015	210.78
838.188	202.88
838.361	190.55
838.533	173.15
838.706	175.61
838.879	186.18
839.052	181.76
839.225	189.65
839.398	174.1
839.57	157.4
839.743	153.15
839.916	151.55
840.088	158.72
840.261	162.12
840.434	154.52
840.607	141.35
840.779	149.27
840.952	129.12
841.124	139.92
841.297	142.62
841.47	138.29
841.642	154.42
841.815	171.61
841.987	169.67
842.16	175.19
842.332	191.58
842.505	216.84
842.677	228.27
842.85	201.26
843.022	189
843.194	204.65
843.367	242.4
843.539	212.27
843.712	250.08
843.884	254.77
844.056	286.15
844.229	376.86
844.401	352.75
844.573	379.46
844.745	793.09
844.918	775
845.09	1096.32
845.262	9726.67
845.434	-5808.33
845.606	2583.02
845.779	5617.39
845.951	938.06
846.123	709.26
846.295	465.15
846.467	273.61
846.639	296.68
846.811	232.31
846.983	227.29
847.155	204.42
847.327	209.39
847.499	188.4
847.671	194.08
847.843	249.9
848.015	224.04
848.187	300.21
848.359	379.01
848.531	795.97
848.703	1124.11
848.875	496.92
849.047	342.28
849.218	472.03
849.39	530
849.562	329.57
849.734	345.22
849.905	436.28
850.077	604.88
850.249	323.36
850.421	226.49
850.592	267.52
850.764	383.77
850.936	387.09
851.107	372.91
851.279	314.68
851.451	421.15
851.622	268.44
851.794	237.06
851.965	211.16
852.137	275.94
852.308	282.8
852.48	306.53
852.651	243.22
852.823	323.18
852.994	317.82
853.166	336.18
853.337	288.63
853.509	278.55
853.68	309.5
853.851	350.1
854.023	363.27
854.194	454.68
854.365	315.43
854.537	292.05
854.708	179.59
854.879	165.34
855.05	151.94
855.222	166.96
855.393	233.78
855.564	203.58
855.735	192.61
855.906	211.15
856.078	212.27
856.249	206.84
856.42	253.05
856.591	405.36
856.762	405.43
856.933	772.07
857.104	608.33
857.275	514.96
857.446	610.27
857.617	494.53
857.788	284.15
857.959	292.18
858.13	357.05
858.301	289.12
858.472	298.38
858.643	321.18
858.814	360.93
858.985	357.45
859.155	288.42
859.326	302.55
859.497	396.4
859.668	595.16
859.839	456.56
860.009	545.08
860.18	723.08
860.351	557.95
860.522	722.78
860.692	789.27
860.863	1056.46
861.034	3723.68
861.204	1917.33
861.375	1159.54
861.546	8692.86
861.716	2595.92
861.887	613.95
862.057	424.38
862.228	441.75
862.398	360.18
862.569	293
862.739	292.53
862.91	359.59
863.08	455.36
863.251	500.43
863.421	494.94
863.592	376.8
863.762	1070.45
863.932	10215.38
864.103	988.82
864.273	1473.27
864.443	-701.22
864.614	-647.75
864.784	-2072.58
864.954	5745.45
865.125	702.42
865.295	428.13
865.465	616.28
865.635	510.94
865.805	478.75
865.976	22340
866.146	794.48
866.316	426.15
866.486	335.55
866.656	453.82
866.826	594.14
866.996	600.77
867.166	599.2
867.336	708.82
867.506	584.34
867.676	560.13
867.846	554.68
868.016	706.27
868.186	946.84
868.356	1456.69
868.526	795.83
868.696	472.18
868.866	496.48
869.036	898.68
869.206	741.55
869.376	535.25
869.545	657.33
869.715	490.23
869.885	386.16
870.055	310.65
870.224	371.39
870.394	612.29
870.564	721.58
870.734	473.21
870.903	442.72
871.073	379.11
871.243	428.13
871.412	380.1
871.582	425.14
871.751	476.23
871.921	380
872.091	422.7
872.26	288.27
872.43	304.79
872.599	404.45
872.769	341.95
872.938	419.15
873.108	473.68
873.277	380
873.446	313.09
873.616	290.16
873.785	340.82
873.955	248.52
874.124	384.27
874.293	354.21
874.463	390.68
874.632	448.68
874.801	522.95
874.971	379.36
875.14	465.45
875.309	309.13
875.478	332.24
875.647	311.9
875.817	279.16
875.986	254.43
876.155	213.04
876.324	228.44
876.493	210.33
876.662	171.41
876.831	188.56
877	151.35
877.17	191.51
877.339	183.52
877.508	196.49
877.677	244.08
877.846	226.61
878.015	257.01
878.184	224.32
878.352	211.41
878.521	207.76
878.69	186.2
878.859	262.02
879.028	192.13
879.197	178.13
879.366	153.5
879.534	116.09
879.703	99.03
879.872	81.87
880.041	81.33
880.21	75.18
880.378	63.55
880.547	63.78
880.716	65.3
880.884	63.74
881.053	68.51
881.222	68.62
881.39	69.17
881.559	67.99
881.727	66.07
881.896	64.38
882.065	66.75
882.233	73.6
882.402	69.86
882.57	79.96
882.739	77.99
882.907	82.96
883.076	87.2
883.244	97.55
883.412	116.41
883.581	139.87
883.749	191.25
883.918	250.41
884.086	360.86
884.254	575.76
884.423	524.66
884.591	555.97
884.759	1410.48
884.927	6340.91
885.096	-3851.35
885.264	-2557.14
885.432	1208.59
885.6	913.95
885.769	567.94
885.937	974.63
886.105	421.05
886.273	426.47
886.441	343.91
886.609	243.46
886.777	210.31
886.945	228.65
887.113	278.02
887.281	371.07
887.449	300.23
887.617	528.24
887.785	386.49
887.953	383.05
888.121	370.45
888.289	1091.59
888.457	5919.05
888.625	-2722.73
888.793	-4495.83
888.961	713.38
889.129	861.67
889.296	2185.42
889.464	508.47
889.632	544.37
889.8	774.55
889.967	2551.61
890.135	715.38
