Data from JASIL_2933_Reflection_2.txt Node
Date: Sat Nov 07 20:56:19 EST 2015
User: Geneva
Spectrometer: USB4E03002
Autoset integration time: false
Trigger mode: 4
Integration Time (sec): 1.000000E-1
Scans to average: 10
Electric dark correction enabled: true
Nonlinearity correction enabled: false
Boxcar width: 5
Stray light correction enabled: false
XAxis mode: Wavelengths
Stop averaging: false
Number of Pixels in Spectrum: 3648
>>>>>Begin Spectral Data<<<<<
177.575	-616.35
177.794	-150.77
178.014	-357.51
178.233	-1.11
178.452	37.7
178.672	60.21
178.891	51.96
179.11	0
179.33	482.15
179.549	803.08
179.768	-260.18
179.987	384.62
180.207	206.77
180.426	118.42
180.645	109.86
180.864	106.64
181.084	115.83
181.303	92.26
181.522	100.79
181.741	97.91
181.96	96.93
182.179	87.55
182.398	82.49
182.618	68.39
182.837	62.37
183.056	42.06
183.275	51.01
183.494	34.17
183.713	56
183.932	38.31
184.151	38.21
184.37	21.01
184.589	19.22
184.808	9.45
185.027	47.74
185.246	49.24
185.465	48.77
185.684	46.1
185.903	41.14
186.122	58.39
186.341	75.29
186.56	69.83
186.779	98.69
186.998	117.29
187.216	131.75
187.435	111.91
187.654	114.27
187.873	128.18
188.092	125.33
188.311	124.99
188.53	85.1
188.748	74.22
188.967	56.36
189.186	40.87
189.405	42.35
189.623	28.74
189.842	33.56
190.061	36.23
190.28	30.46
190.498	44.56
190.717	40.67
190.936	45.93
191.154	19.02
191.373	40.04
191.592	16.75
191.81	-3.19
192.029	6.49
192.248	13.11
192.466	36.63
192.685	56.94
192.904	58.47
193.122	50.45
193.341	58.43
193.559	66.45
193.778	59.82
193.996	68.92
194.215	76.11
194.433	82.65
194.652	81.99
194.87	83.85
195.089	87.79
195.307	90.97
195.526	108.49
195.744	106.76
195.963	114.4
196.181	124.28
196.399	120.25
196.618	134.51
196.836	118.03
197.055	102.12
197.273	109.07
197.491	97.75
197.71	87.93
197.928	72.28
198.146	58.34
198.365	56.27
198.583	70.53
198.801	83.96
199.019	68.6
199.238	59.83
199.456	77.4
199.674	67.77
199.892	70.4
200.111	54.45
200.329	70.98
200.547	71.75
200.765	72.96
200.983	55.59
201.202	65.8
201.42	79.86
201.638	72.01
201.856	56.4
202.074	49.86
202.292	38.6
202.51	48.51
202.728	43.39
202.946	32.92
203.165	40.6
203.383	43.39
203.601	31.79
203.819	17.12
204.037	32.39
204.255	35.66
204.473	51.18
204.691	49.59
204.909	37.21
205.127	41.24
205.345	51.22
205.562	44.66
205.78	39.41
205.998	41.63
206.216	44.91
206.434	47.34
206.652	54.98
206.87	52.23
207.088	58.23
207.306	75.05
207.523	79.01
207.741	72.15
207.959	79.43
208.177	83.69
208.395	73.9
208.612	68.96
208.83	60.96
209.048	36.25
209.266	11.53
209.483	15.37
209.701	-11.12
209.919	-12.92
210.136	1.25
210.354	16.41
210.572	21.51
210.79	34.22
211.007	41.06
211.225	38.56
211.442	42.17
211.66	47.84
211.878	43.57
212.095	103.72
212.313	93.54
212.53	91.1
212.748	83.91
212.966	92.6
213.183	92.18
213.401	90.07
213.618	91.38
213.836	98.64
214.053	106.22
214.271	107.07
214.488	48.92
214.705	44.3
214.923	39.7
215.14	37.6
215.358	26.62
215.575	22.01
215.793	29.58
216.01	21.99
216.227	15.15
216.445	5.75
216.662	5.33
216.879	6.8
217.097	14.57
217.314	16.09
217.531	16.43
217.749	11.2
217.966	12.38
218.183	11.48
218.4	8.22
218.618	5.49
218.835	14.7
219.052	14.29
219.269	13.43
219.487	13.42
219.704	10.46
219.921	11.82
220.138	17.54
220.355	17.06
220.572	8.14
220.79	10.54
221.007	20.65
221.224	17.9
221.441	16
221.658	11.89
221.875	8.35
222.092	9.58
222.309	11.55
222.526	8.43
222.743	9.37
222.96	11.11
223.177	12.52
223.394	9.35
223.611	11.76
223.828	12.82
224.045	13.45
224.262	15.16
224.479	13.28
224.696	12.64
224.913	15.21
225.13	19.31
225.347	18.73
225.564	18.22
225.781	17.01
225.997	16.47
226.214	15.77
226.431	15
226.648	13.79
226.865	13.51
227.082	13.47
227.298	12.95
227.515	11.48
227.732	10.97
227.949	10.82
228.165	10.43
228.382	9.79
228.599	9.4
228.816	9.13
229.032	9.33
229.249	9.65
229.466	9.07
229.682	8.86
229.899	8.86
230.116	10.28
230.332	10.99
230.549	12.3
230.765	13.42
230.982	14.83
231.199	15.95
231.415	16.19
231.632	16.08
231.848	15.56
232.065	15.73
232.281	15.99
232.498	14.83
232.714	13.76
232.931	11.97
233.147	12.46
233.364	12.23
233.58	12.32
233.797	12.89
234.013	13.14
234.23	14.21
234.446	14.11
234.662	13.72
234.879	14.55
235.095	14.62
235.312	15.6
235.528	14.82
235.744	14.11
235.961	13.26
236.177	12.63
236.393	12.88
236.61	12.42
236.826	12.24
237.042	12.15
237.258	11.75
237.475	12.17
237.691	11.18
237.907	10.99
238.123	11.24
238.339	11.8
238.556	11.62
238.772	11.26
238.988	11.37
239.204	11.76
239.42	11.73
239.636	11.2
239.853	11.77
240.069	11.56
240.285	11.71
240.501	11.34
240.717	10.99
240.933	10.81
241.149	10.49
241.365	11.01
241.581	10.75
241.797	10.45
242.013	10.23
242.229	9.87
242.445	10.16
242.661	9.64
242.877	9.71
243.093	9.86
243.309	9.95
243.525	10.05
243.741	9.09
243.957	8.89
244.173	9.51
244.388	9.47
244.604	9.06
244.82	8.83
245.036	9.01
245.252	9.14
245.468	9.07
245.683	9.08
245.899	9.06
246.115	9.08
246.331	9.12
246.547	8.87
246.762	8.89
246.978	8.88
247.194	8.77
247.409	8.84
247.625	8.54
247.841	8.51
248.057	8.28
248.272	8.16
248.488	8.25
248.703	8.26
248.919	8.55
249.135	8.72
249.35	8.9
249.566	8.78
249.782	8.65
249.997	9.16
250.213	8.88
250.428	9.17
250.644	9.11
250.859	8.72
251.075	8.41
251.29	8
251.506	7.54
251.721	7.48
251.937	7.88
252.152	7.85
252.368	7.58
252.583	7.94
252.798	7.6
253.014	7.7
253.229	7.87
253.445	7.89
253.66	7.96
253.875	8.77
254.091	8.44
254.306	8.17
254.521	7.91
254.737	8.16
254.952	7.79
255.167	7.91
255.383	7.91
255.598	8.11
255.813	8.21
256.028	8.04
256.244	7.52
256.459	7.5
256.674	7.24
256.889	7.36
257.104	7.22
257.32	7.09
257.535	6.93
257.75	6.72
257.965	6.55
258.18	6.49
258.395	6.47
258.61	6.43
258.826	6.5
259.041	6.56
259.256	6.48
259.471	6.41
259.686	6.58
259.901	6.53
260.116	6.65
260.331	6.65
260.546	6.83
260.761	6.86
260.976	7.03
261.191	7.08
261.406	7.26
261.621	7.29
261.836	7.26
262.05	7.04
262.265	7.1
262.48	7.25
262.695	7.35
262.91	7.33
263.125	7.49
263.34	7.78
263.555	7.55
263.769	7.04
263.984	6.94
264.199	7.09
264.414	6.81
264.629	6.8
264.843	6.41
265.058	6.38
265.273	6.16
265.488	6.01
265.702	5.69
265.917	6.09
266.132	6.2
266.346	6.42
266.561	6.51
266.776	6.54
266.99	6.67
267.205	6.75
267.42	6.48
267.634	6.51
267.849	6.73
268.063	6.54
268.278	5.97
268.492	5.97
268.707	6.02
268.922	5.76
269.136	5.84
269.351	5.87
269.565	5.86
269.78	5.81
269.994	5.67
270.209	5.33
270.423	5.81
270.637	5.9
270.852	5.84
271.066	5.64
271.281	5.82
271.495	5.99
271.709	6.01
271.924	6.01
272.138	5.95
272.353	6.07
272.567	6.13
272.781	5.9
272.996	6.13
273.21	6.16
273.424	6.19
273.638	6.09
273.853	5.88
274.067	5.7
274.281	5.78
274.495	6.06
274.71	6
274.924	6.18
275.138	6.13
275.352	6.01
275.566	5.99
275.781	6.07
275.995	6.02
276.209	6.1
276.423	6.05
276.637	5.68
276.851	5.59
277.065	5.48
277.279	5.35
277.493	5.42
277.707	5.11
277.921	5.33
278.135	5.36
278.349	5.37
278.563	4.85
278.777	4.79
278.991	5.27
279.205	5.47
279.419	5.68
279.633	5.55
279.847	5.37
280.061	5.71
280.275	5.46
280.489	5.39
280.703	5.38
280.917	5.67
281.131	5.85
281.344	5.5
281.558	5.46
281.772	5.39
281.986	5.57
282.2	5.63
282.414	5.64
282.627	5.89
282.841	5.89
283.055	5.75
283.269	5.69
283.482	5.6
283.696	5.7
283.91	5.8
284.123	5.6
284.337	5.47
284.551	5.36
284.764	5.15
284.978	5.1
285.192	5.09
285.405	5.26
285.619	5.4
285.833	5.13
286.046	5.17
286.26	4.96
286.473	4.78
286.687	4.69
286.9	4.81
287.114	4.8
287.327	4.86
287.541	4.82
287.754	4.67
287.968	4.48
288.181	4.82
288.395	4.7
288.608	4.73
288.822	4.99
289.035	5.32
289.248	5.4
289.462	5.74
289.675	5.8
289.889	5.76
290.102	6.04
290.315	6.15
290.529	6.12
290.742	6.25
290.955	6.51
291.169	6.66
291.382	6.35
291.595	6.19
291.808	6.12
292.022	6.23
292.235	6.26
292.448	6.22
292.661	6.29
292.875	6.44
293.088	6.56
293.301	6.33
293.514	6.2
293.727	6.22
293.94	6.42
294.153	6.33
294.367	5.94
294.58	6
294.793	5.85
295.006	5.72
295.219	5.78
295.432	5.74
295.645	5.77
295.858	5.7
296.071	5.74
296.284	5.63
296.497	5.56
296.71	5.59
296.923	5.56
297.136	5.54
297.349	5.65
297.562	5.36
297.775	5.39
297.988	5.44
298.201	5.64
298.414	5.8
298.626	5.79
298.839	5.92
299.052	6.26
299.265	6.11
299.478	6.16
299.691	6.11
299.903	6.54
300.116	6.37
300.329	6.34
300.542	6.29
300.755	6.33
300.967	6.58
301.18	6.61
301.393	6.47
301.605	6.53
301.818	6.48
302.031	6.66
302.243	6.44
302.456	6.8
302.669	6.81
302.881	6.82
303.094	6.7
303.307	6.77
303.519	6.88
303.732	6.95
303.944	7.16
304.157	7.27
304.37	7.23
304.582	7.43
304.795	7.24
305.007	7.35
305.22	7.52
305.432	7.5
305.645	7.3
305.857	7.13
306.069	7.12
306.282	7.1
306.494	7.17
306.707	7.2
306.919	7.27
307.132	7.14
307.344	6.85
307.556	6.74
307.769	6.86
307.981	6.88
308.193	7.09
308.406	6.8
308.618	6.88
308.83	6.79
309.043	6.85
309.255	6.7
309.467	6.83
309.679	7.08
309.892	7.13
310.104	7.14
310.316	7.24
310.528	7.16
310.74	7.63
310.953	7.78
311.165	7.95
311.377	7.77
311.589	7.97
311.801	8.02
312.013	8.06
312.225	8.27
312.437	8.5
312.649	8.5
312.862	8.45
313.074	8.06
313.286	7.97
313.498	7.82
313.71	8.3
313.922	8.15
314.134	8.14
314.346	8.22
314.558	7.92
314.77	7.74
314.982	7.55
315.193	7.66
315.405	7.69
315.617	7.61
315.829	7.81
316.041	7.6
316.253	7.76
316.465	7.82
316.677	7.83
316.888	8.09
317.1	8.27
317.312	8.67
317.524	8.74
317.736	8.98
317.947	9.24
318.159	9.33
318.371	9.48
318.583	9.41
318.794	9.5
319.006	9.52
319.218	9.5
319.43	9.38
319.641	9.42
319.853	9.61
320.064	9.66
320.276	9.73
320.488	9.73
320.699	9.61
320.911	9.86
321.123	10.08
321.334	10.2
321.546	10.24
321.757	10.4
321.969	10.32
322.18	10.15
322.392	10.05
322.603	9.84
322.815	9.85
323.026	10.12
323.238	9.93
323.449	9.92
323.661	9.75
323.872	9.88
324.083	9.89
324.295	9.9
324.506	10.06
324.718	10.04
324.929	10.08
325.14	10.23
325.352	10.14
325.563	10.38
325.774	10.41
325.986	10.56
326.197	10.58
326.408	10.88
326.62	10.94
326.831	10.93
327.042	11.24
327.253	11.65
327.464	11.7
327.676	11.72
327.887	11.64
328.098	11.6
328.309	11.89
328.52	12.01
328.732	12.15
328.943	12.46
329.154	12.94
329.365	12.98
329.576	13.07
329.787	13.03
329.998	13.36
330.209	13.51
330.42	13.81
330.631	13.73
330.842	13.76
331.053	13.6
331.264	13.55
331.475	13.44
331.686	13.39
331.897	13.4
332.108	13.43
332.319	13.28
332.53	13.35
332.741	13.23
332.952	13.23
333.163	13.36
333.374	13.61
333.585	13.57
333.795	13.4
334.006	13.71
334.217	13.5
334.428	13.64
334.639	13.64
334.849	13.74
335.06	13.74
335.271	13.7
335.482	13.63
335.692	13.5
335.903	13.43
336.114	13.39
336.325	13.27
336.535	13.33
336.746	13.17
336.957	13.28
337.167	13.4
337.378	13.28
337.589	13.42
337.799	13.48
338.01	13.31
338.22	13.49
338.431	13.64
338.642	13.62
338.852	13.54
339.063	13.64
339.273	13.69
339.484	13.71
339.694	13.88
339.905	13.87
340.115	13.72
340.326	13.61
340.536	13.65
340.746	13.61
340.957	13.53
341.167	13.61
341.378	13.48
341.588	13.55
341.799	13.18
342.009	13.03
342.219	12.94
342.43	12.97
342.64	12.96
342.85	12.77
343.061	12.78
343.271	12.77
343.481	12.73
343.691	12.76
343.902	12.44
344.112	12.52
344.322	12.47
344.532	12.4
344.743	12.37
344.953	12.35
345.163	12.39
345.373	12.19
345.583	12.16
345.793	12.09
346.004	12.1
346.214	12.17
346.424	12.27
346.634	12.55
346.844	12.59
347.054	12.66
347.264	12.85
347.474	12.77
347.684	12.76
347.894	12.72
348.104	12.78
348.314	12.8
348.524	12.79
348.734	12.81
348.944	12.62
349.154	12.55
349.364	12.4
349.574	12.38
349.784	12.37
349.994	12.51
350.204	12.51
350.413	12.35
350.623	12.41
350.833	12.26
351.043	12.23
351.253	12.34
351.463	12.34
351.672	12.21
351.882	12.16
352.092	12.02
352.302	11.91
352.511	11.85
352.721	11.92
352.931	11.77
353.141	11.84
353.35	11.7
353.56	11.54
353.77	11.64
353.979	11.81
354.189	11.84
354.399	11.97
354.608	11.94
354.818	11.88
355.027	11.95
355.237	11.87
355.447	11.84
355.656	11.89
355.866	11.93
356.075	11.84
356.285	11.75
356.494	11.67
356.704	11.63
356.913	11.7
357.123	11.67
357.332	11.54
357.542	11.74
357.751	11.79
357.96	11.72
358.17	11.63
358.379	11.68
358.589	11.65
358.798	11.68
359.007	11.63
359.217	11.52
359.426	11.55
359.635	11.51
359.845	11.36
360.054	11.24
360.263	11.24
360.472	11.2
360.682	11.2
360.891	11.32
361.1	11.3
361.309	11.24
361.519	11.29
361.728	11.34
361.937	11.47
362.146	11.42
362.355	11.49
362.564	11.52
362.774	11.58
362.983	11.47
363.192	11.33
363.401	11.26
363.61	11.27
363.819	11.33
364.028	11.22
364.237	11.09
364.446	11.19
364.655	11.1
364.864	11.06
365.073	11.02
365.282	11.04
365.491	11.06
365.7	11.08
365.909	11.15
366.118	11.09
366.327	11.15
366.536	11.17
366.745	11.14
366.954	11.13
367.162	11.03
367.371	10.97
367.58	11.09
367.789	11.03
367.998	11.09
368.207	11.19
368.415	11.25
368.624	11.21
368.833	11.18
369.042	11.22
369.25	11.3
369.459	11.4
369.668	11.39
369.877	11.22
370.085	11.29
370.294	11.26
370.503	11.04
370.711	10.88
370.92	10.75
371.129	10.72
371.337	10.64
371.546	10.49
371.754	10.4
371.963	10.57
372.171	10.66
372.38	10.53
372.589	10.5
372.797	10.51
373.006	10.5
373.214	10.63
373.423	10.58
373.631	10.62
373.84	10.77
374.048	10.83
374.256	10.7
374.465	10.62
374.673	10.65
374.882	10.56
375.09	10.61
375.298	10.58
375.507	10.55
375.715	10.54
375.923	10.44
376.132	10.35
376.34	10.21
376.548	10.2
376.757	10.19
376.965	10.26
377.173	10.47
377.381	10.47
377.59	10.53
377.798	10.55
378.006	10.65
378.214	10.78
378.423	10.81
378.631	10.89
378.839	10.78
379.047	10.79
379.255	10.7
379.463	10.46
379.671	10.37
379.879	10.32
380.088	10.26
380.296	10.12
380.504	10.09
380.712	10.09
380.92	10.15
381.128	10.13
381.336	10.03
381.544	10.01
381.752	10.07
381.96	10.07
382.168	10.07
382.376	10.09
382.584	10.12
382.791	9.99
382.999	9.96
383.207	9.9
383.415	9.95
383.623	10.07
383.831	10.09
384.039	10.1
384.247	10.25
384.454	10.39
384.662	10.45
384.87	10.42
385.078	10.46
385.285	10.55
385.493	10.51
385.701	10.4
385.909	10.39
386.116	10.4
386.324	10.41
386.532	10.19
386.739	9.94
386.947	9.75
387.155	9.69
387.362	9.71
387.57	9.65
387.778	9.67
387.985	9.83
388.193	9.77
388.4	9.77
388.608	9.64
388.816	9.59
389.023	9.58
389.231	9.62
389.438	9.66
389.646	9.56
389.853	9.52
390.061	9.36
390.268	9.3
390.475	9.25
390.683	9.11
390.89	9.1
391.098	9.17
391.305	9.23
391.512	9.11
391.72	9.08
391.927	9.05
392.135	8.93
392.342	8.95
392.549	8.89
392.756	8.9
392.964	8.88
393.171	8.96
393.378	8.93
393.586	8.88
393.793	8.92
394	8.9
394.207	8.92
394.414	9
394.622	9.07
394.829	9.02
395.036	8.97
395.243	8.95
395.45	8.87
395.657	8.82
395.864	8.76
396.072	8.86
396.279	8.86
396.486	8.76
396.693	8.78
396.9	8.75
397.107	8.71
397.314	8.68
397.521	8.75
397.728	8.71
397.935	8.74
398.142	8.77
398.349	8.7
398.556	8.75
398.763	8.85
398.97	8.82
399.177	8.91
399.383	8.97
399.59	9.01
399.797	9.01
400.004	9.04
400.211	9
400.418	8.87
400.625	8.9
400.831	8.8
401.038	8.67
401.245	8.5
401.452	8.31
401.658	8.21
401.865	8.16
402.072	8.07
402.279	8.05
402.485	7.99
402.692	8.04
402.899	7.94
403.105	8.05
403.312	8.08
403.519	8.11
403.725	8.17
403.932	8.28
404.138	8.22
404.345	8.19
404.552	8.12
404.758	8.13
404.965	8.11
405.171	8.1
405.378	7.94
405.584	7.97
405.791	7.96
405.997	7.92
406.204	7.84
406.41	7.83
406.617	7.92
406.823	7.95
407.029	7.98
407.236	8
407.442	7.98
407.649	8.16
407.855	8.14
408.061	8.18
408.268	8.15
408.474	8.09
408.68	8.13
408.887	8.07
409.093	8.07
409.299	8.02
409.505	8.02
409.712	8.03
409.918	7.88
410.124	7.77
410.33	7.71
410.537	7.73
410.743	7.71
410.949	7.76
411.155	7.77
411.361	7.67
411.567	7.6
411.773	7.5
411.98	7.48
412.186	7.42
412.392	7.45
412.598	7.54
412.804	7.54
413.01	7.62
413.216	7.5
413.422	7.51
413.628	7.56
413.834	7.63
414.04	7.72
414.246	7.72
414.452	7.66
414.658	7.68
414.864	7.61
415.07	7.58
415.275	7.54
415.481	7.56
415.687	7.44
415.893	7.43
416.099	7.38
416.305	7.34
416.511	7.36
416.716	7.34
416.922	7.31
417.128	7.33
417.334	7.28
417.539	7.25
417.745	7.22
417.951	7.25
418.157	7.22
418.362	7.24
418.568	7.25
418.774	7.19
418.979	7.18
419.185	7.15
419.391	7.15
419.596	7.1
419.802	7.08
420.008	7.03
420.213	7.04
420.419	7.03
420.624	7
420.83	6.93
421.035	6.97
421.241	6.99
421.446	7.03
421.652	6.98
421.857	7.01
422.063	7
422.268	6.99
422.474	6.96
422.679	6.96
422.885	6.95
423.09	7
423.295	6.95
423.501	6.92
423.706	6.9
423.911	6.91
424.117	6.87
424.322	6.85
424.527	6.88
424.733	6.87
424.938	6.88
425.143	6.89
425.349	6.9
425.554	6.9
425.759	6.91
425.964	6.9
426.169	6.95
426.375	6.99
426.58	7.03
426.785	7.08
426.99	7.06
427.195	7.01
427.4	6.98
427.605	6.89
427.811	6.9
428.016	6.88
428.221	6.86
428.426	6.77
428.631	6.72
428.836	6.7
429.041	6.65
429.246	6.7
429.451	6.74
429.656	6.74
429.861	6.77
430.066	6.82
430.271	6.85
430.476	6.82
430.681	6.75
430.886	6.8
431.09	6.82
431.295	6.84
431.5	6.77
431.705	6.79
431.91	6.76
432.115	6.76
432.32	6.72
432.524	6.64
432.729	6.62
432.934	6.69
433.139	6.68
433.343	6.71
433.548	6.69
433.753	6.7
433.958	6.66
434.162	6.65
434.367	6.66
434.572	6.65
434.776	6.73
434.981	6.75
435.186	6.7
435.39	6.69
435.595	6.66
435.799	6.61
436.004	6.67
436.209	6.68
436.413	6.67
436.618	6.65
436.822	6.65
437.027	6.59
437.231	6.57
437.436	6.63
437.64	6.63
437.845	6.6
438.049	6.62
438.253	6.54
438.458	6.54
438.662	6.6
438.867	6.62
439.071	6.64
439.275	6.66
439.48	6.65
439.684	6.6
439.888	6.56
440.093	6.54
440.297	6.57
440.501	6.59
440.706	6.59
440.91	6.59
441.114	6.55
441.318	6.5
441.523	6.53
441.727	6.56
441.931	6.61
442.135	6.61
442.339	6.6
442.543	6.57
442.748	6.56
442.952	6.56
443.156	6.52
443.36	6.52
443.564	6.54
443.768	6.47
443.972	6.44
444.176	6.39
444.38	6.41
444.584	6.44
444.788	6.44
444.992	6.45
445.196	6.44
445.4	6.43
445.604	6.42
445.808	6.41
446.012	6.44
446.216	6.45
446.42	6.43
446.624	6.43
446.828	6.38
447.032	6.37
447.235	6.35
447.439	6.36
447.643	6.38
447.847	6.41
448.051	6.38
448.254	6.37
448.458	6.33
448.662	6.39
448.866	6.36
449.069	6.4
449.273	6.44
449.477	6.45
449.681	6.44
449.884	6.44
450.088	6.42
450.292	6.44
450.495	6.46
450.699	6.51
450.902	6.49
451.106	6.49
451.31	6.51
451.513	6.51
451.717	6.49
451.92	6.48
452.124	6.42
452.327	6.38
452.531	6.39
452.734	6.41
452.938	6.35
453.141	6.34
453.345	6.36
453.548	6.36
453.752	6.32
453.955	6.32
454.158	6.34
454.362	6.37
454.565	6.34
454.769	6.36
454.972	6.33
455.175	6.37
455.379	6.34
455.582	6.27
455.785	6.24
455.988	6.24
456.192	6.2
456.395	6.15
456.598	6.19
456.801	6.2
457.005	6.18
457.208	6.15
457.411	6.08
457.614	6.1
457.817	6.11
458.021	6.07
458.224	6.08
458.427	6.15
458.63	6.15
458.833	6.1
459.036	6.15
459.239	6.15
459.442	6.16
459.645	6.2
459.848	6.2
460.051	6.2
460.254	6.22
460.457	6.24
460.66	6.24
460.863	6.23
461.066	6.27
461.269	6.29
461.472	6.31
461.675	6.35
461.878	6.36
462.081	6.37
462.284	6.4
462.486	6.41
462.689	6.42
462.892	6.44
463.095	6.44
463.298	6.44
463.5	6.42
463.703	6.45
463.906	6.42
464.109	6.44
464.311	6.48
464.514	6.49
464.717	6.54
464.92	6.53
465.122	6.55
465.325	6.59
465.528	6.57
465.73	6.53
465.933	6.45
466.135	6.51
466.338	6.47
466.541	6.43
466.743	6.39
466.946	6.34
467.148	6.32
467.351	6.24
467.553	6.22
467.756	6.25
467.958	6.28
468.161	6.3
468.363	6.22
468.566	6.26
468.768	6.23
468.971	6.22
469.173	6.25
469.375	6.23
469.578	6.33
469.78	6.31
469.983	6.31
470.185	6.27
470.387	6.29
470.59	6.31
470.792	6.25
470.994	6.25
471.196	6.29
471.399	6.28
471.601	6.32
471.803	6.26
472.005	6.28
472.208	6.3
472.41	6.29
472.612	6.3
472.814	6.3
473.016	6.36
473.218	6.4
473.421	6.37
473.623	6.34
473.825	6.32
474.027	6.34
474.229	6.34
474.431	6.34
474.633	6.36
474.835	6.34
475.037	6.3
475.239	6.28
475.441	6.32
475.643	6.32
475.845	6.38
476.047	6.39
476.249	6.36
476.451	6.38
476.653	6.39
476.855	6.43
477.057	6.39
477.258	6.43
477.46	6.44
477.662	6.4
477.864	6.46
478.066	6.43
478.268	6.45
478.469	6.49
478.671	6.48
478.873	6.41
479.075	6.39
479.276	6.41
479.478	6.39
479.68	6.36
479.882	6.37
480.083	6.34
480.285	6.34
480.487	6.33
480.688	6.3
480.89	6.28
481.091	6.25
481.293	6.26
481.495	6.22
481.696	6.18
481.898	6.16
482.099	6.13
482.301	6.12
482.502	6.12
482.704	6.1
482.905	6.1
483.107	6.09
483.308	6.1
483.51	6.08
483.711	6.09
483.913	6.1
484.114	6.11
484.315	6.12
484.517	6.12
484.718	6.12
484.92	6.13
485.121	6.11
485.322	6.12
485.524	6.11
485.725	6.14
485.926	6.14
486.127	6.13
486.329	6.14
486.53	6.13
486.731	6.13
486.932	6.11
487.134	6.1
487.335	6.12
487.536	6.14
487.737	6.15
487.938	6.15
488.139	6.13
488.341	6.16
488.542	6.19
488.743	6.2
488.944	6.2
489.145	6.23
489.346	6.26
489.547	6.26
489.748	6.25
489.949	6.26
490.15	6.24
490.351	6.24
490.552	6.26
490.753	6.23
490.954	6.22
491.155	6.2
491.356	6.18
491.557	6.18
491.758	6.19
491.959	6.18
492.159	6.17
492.36	6.19
492.561	6.21
492.762	6.21
492.963	6.23
493.164	6.24
493.364	6.27
493.565	6.31
493.766	6.35
493.967	6.35
494.167	6.37
494.368	6.41
494.569	6.46
494.769	6.47
494.97	6.46
495.171	6.47
495.371	6.47
495.572	6.46
495.773	6.48
495.973	6.45
496.174	6.47
496.375	6.46
496.575	6.43
496.776	6.38
496.976	6.39
497.177	6.43
497.377	6.42
497.578	6.46
497.778	6.48
497.979	6.5
498.179	6.55
498.38	6.55
498.58	6.57
498.78	6.62
498.981	6.65
499.181	6.67
499.382	6.64
499.582	6.71
499.782	6.69
499.983	6.74
500.183	6.74
500.383	6.71
500.584	6.74
500.784	6.75
500.984	6.69
501.184	6.74
501.385	6.74
501.585	6.77
501.785	6.76
501.985	6.77
502.185	6.73
502.386	6.74
502.586	6.79
502.786	6.83
502.986	6.84
503.186	6.88
503.386	6.85
503.586	6.87
503.786	6.87
503.987	6.89
504.187	6.96
504.387	7.04
504.587	7.03
504.787	6.98
504.987	6.99
505.187	7
505.387	7.01
505.587	7.02
505.786	7.05
505.986	7.02
506.186	7
506.386	6.98
506.586	6.98
506.786	7.03
506.986	7.04
507.186	7.01
507.386	7.06
507.585	7.12
507.785	7.18
507.985	7.21
508.185	7.29
508.384	7.32
508.584	7.3
508.784	7.3
508.984	7.3
509.183	7.39
509.383	7.44
509.583	7.43
509.782	7.46
509.982	7.43
510.182	7.43
510.381	7.42
510.581	7.44
510.781	7.46
510.98	7.48
511.18	7.51
511.379	7.5
511.579	7.53
511.778	7.54
511.978	7.54
512.177	7.56
512.377	7.59
512.576	7.62
512.776	7.66
512.975	7.67
513.175	7.74
513.374	7.74
513.573	7.76
513.773	7.82
513.972	7.86
514.172	7.9
514.371	7.98
514.57	7.99
514.77	8.07
514.969	8.05
515.168	8.12
515.367	8.15
515.567	8.15
515.766	8.19
515.965	8.17
516.164	8.21
516.364	8.22
516.563	8.23
516.762	8.24
516.961	8.24
517.16	8.26
517.359	8.29
517.559	8.28
517.758	8.33
517.957	8.33
518.156	8.37
518.355	8.37
518.554	8.38
518.753	8.39
518.952	8.43
519.151	8.47
519.35	8.51
519.549	8.54
519.748	8.58
519.947	8.63
520.146	8.68
520.345	8.72
520.544	8.77
520.743	8.84
520.942	8.89
521.141	8.95
521.339	8.96
521.538	8.99
521.737	9.03
521.936	9.06
522.135	9.1
522.333	9.12
522.532	9.14
522.731	9.15
522.93	9.16
523.129	9.18
523.327	9.19
523.526	9.23
523.725	9.25
523.923	9.25
524.122	9.25
524.321	9.25
524.519	9.26
524.718	9.25
524.917	9.28
525.115	9.3
525.314	9.3
525.512	9.32
525.711	9.34
525.909	9.37
526.108	9.4
526.306	9.44
526.505	9.44
526.703	9.44
526.902	9.45
527.1	9.44
527.299	9.44
527.497	9.49
527.696	9.52
527.894	9.56
528.092	9.59
528.291	9.6
528.489	9.64
528.688	9.68
528.886	9.73
529.084	9.77
529.283	9.83
529.481	9.91
529.679	9.92
529.877	9.93
530.076	9.91
530.274	9.97
530.472	10.02
530.67	10.05
530.869	10.11
531.067	10.14
531.265	10.2
531.463	10.19
531.661	10.19
531.859	10.24
532.057	10.31
532.255	10.35
532.454	10.34
532.652	10.38
532.85	10.39
533.048	10.4
533.246	10.42
533.444	10.43
533.642	10.5
533.84	10.52
534.038	10.55
534.236	10.61
534.434	10.65
534.632	10.7
534.83	10.71
535.027	10.75
535.225	10.8
535.423	10.86
535.621	10.88
535.819	10.9
536.017	10.94
536.215	10.99
536.412	11.01
536.61	11.04
536.808	11.08
537.006	11.11
537.203	11.17
537.401	11.19
537.599	11.21
537.797	11.27
537.994	11.32
538.192	11.38
538.39	11.44
538.587	11.42
538.785	11.46
538.983	11.5
539.18	11.56
539.378	11.53
539.575	11.55
539.773	11.59
539.97	11.61
540.168	11.63
540.366	11.63
540.563	11.64
540.761	11.67
540.958	11.7
541.155	11.73
541.353	11.78
541.55	11.84
541.748	11.89
541.945	11.92
542.143	11.95
542.34	11.99
542.537	12.03
542.735	12.1
542.932	12.13
543.129	12.21
543.327	12.29
543.524	12.32
543.721	12.37
543.919	12.42
544.116	12.46
544.313	12.53
544.51	12.59
544.708	12.66
544.905	12.67
545.102	12.72
545.299	12.76
545.496	12.78
545.693	12.81
545.891	12.86
546.088	12.89
546.285	12.91
546.482	12.93
546.679	13
546.876	13.05
547.073	13.11
547.27	13.19
547.467	13.18
547.664	13.2
547.861	13.27
548.058	13.31
548.255	13.39
548.452	13.46
548.649	13.56
548.846	13.57
549.043	13.56
549.24	13.64
549.437	13.7
549.633	13.76
549.83	13.87
550.027	13.95
550.224	14.04
550.421	14.05
550.618	14.06
550.814	14.11
551.011	14.17
551.208	14.32
551.405	14.33
551.601	14.39
551.798	14.48
551.995	14.5
552.191	14.52
552.388	14.5
552.585	14.62
552.781	14.73
552.978	14.79
553.175	14.81
553.371	14.82
553.568	14.85
553.764	14.85
553.961	14.89
554.157	14.94
554.354	14.97
554.55	15.05
554.747	15.06
554.943	15.08
555.14	15.12
555.336	15.21
555.533	15.23
555.729	15.31
555.926	15.4
556.122	15.44
556.318	15.51
556.515	15.6
556.711	15.63
556.907	15.67
557.104	15.8
557.3	15.8
557.496	15.84
557.693	15.9
557.889	15.96
558.085	16.02
558.281	16.07
558.478	16.1
558.674	16.13
558.87	16.16
559.066	16.24
559.262	16.19
559.459	16.29
559.655	16.23
559.851	16.29
560.047	16.34
560.243	16.37
560.439	16.39
560.635	16.41
560.831	16.41
561.027	16.46
561.223	16.47
561.419	16.52
561.615	16.49
561.811	16.57
562.007	16.57
562.203	16.62
562.399	16.7
562.595	16.72
562.791	16.76
562.987	16.81
563.183	16.85
563.379	16.89
563.575	16.92
563.771	17.05
563.966	17.1
564.162	17.17
564.358	17.2
564.554	17.16
564.75	17.23
564.945	17.23
565.141	17.32
565.337	17.35
565.533	17.45
565.728	17.5
565.924	17.48
566.12	17.53
566.315	17.58
566.511	17.63
566.707	17.72
566.902	17.75
567.098	17.83
567.293	17.85
567.489	17.86
567.684	17.85
567.88	17.87
568.076	17.92
568.271	17.95
568.467	18.01
568.662	18.06
568.858	18.12
569.053	18.14
569.248	18.16
569.444	18.19
569.639	18.27
569.835	18.32
570.03	18.38
570.225	18.4
570.421	18.44
570.616	18.41
570.812	18.38
571.007	18.39
571.202	18.39
571.397	18.4
571.593	18.43
571.788	18.47
571.983	18.49
572.178	18.51
572.374	18.52
572.569	18.53
572.764	18.56
572.959	18.63
573.154	18.61
573.35	18.66
573.545	18.69
573.74	18.7
573.935	18.68
574.13	18.69
574.325	18.71
574.52	18.75
574.715	18.7
574.91	18.73
575.105	18.75
575.3	18.81
575.495	18.83
575.69	18.85
575.885	18.92
576.08	18.94
576.275	18.94
576.47	18.98
576.665	19.04
576.86	19.14
577.055	19.22
577.25	19.27
577.444	19.33
577.639	19.39
577.834	19.46
578.029	19.48
578.224	19.52
578.418	19.6
578.613	19.61
578.808	19.67
579.003	19.72
579.197	19.76
579.392	19.77
579.587	19.76
579.781	19.74
579.976	19.68
580.171	19.63
580.365	19.65
580.56	19.63
580.755	19.63
580.949	19.56
581.144	19.53
581.338	19.45
581.533	19.45
581.727	19.39
581.922	19.45
582.116	19.52
582.311	19.64
582.505	19.7
582.7	19.75
582.894	19.85
583.089	19.96
583.283	19.97
583.478	19.98
583.672	20
583.866	20.1
584.061	20.08
584.255	20.08
584.449	20.04
584.644	20.09
584.838	20.14
585.032	20.14
585.226	20.15
585.421	20.21
585.615	20.28
585.809	20.36
586.003	20.31
586.198	20.39
586.392	20.46
586.586	20.49
586.78	20.49
586.974	20.54
587.168	20.56
587.363	20.54
587.557	20.58
587.751	20.57
587.945	20.51
588.139	20.54
588.333	20.51
588.527	20.54
588.721	20.57
588.915	20.56
589.109	20.51
589.303	20.46
589.497	20.5
589.691	20.51
589.885	20.61
590.079	20.7
590.273	20.75
590.466	20.75
590.66	20.72
590.854	20.73
591.048	20.69
591.242	20.72
591.436	20.82
591.629	20.82
591.823	20.78
592.017	20.75
592.211	20.71
592.404	20.67
592.598	20.68
592.792	20.76
592.986	20.76
593.179	20.83
593.373	20.83
593.567	20.74
593.76	20.82
593.954	20.79
594.147	20.84
594.341	20.9
594.535	20.94
594.728	20.97
594.922	21
595.115	20.98
595.309	20.97
595.502	21
595.696	20.94
595.889	20.91
596.083	20.92
596.276	20.85
596.47	20.83
596.663	20.84
596.856	20.87
597.05	20.84
597.243	20.87
597.437	20.86
597.63	20.87
597.823	20.94
598.017	20.95
598.21	20.97
598.403	21.05
598.596	21.08
598.79	21.12
598.983	21.09
599.176	21.13
599.369	21.22
599.563	21.26
599.756	21.29
599.949	21.29
600.142	21.27
600.335	21.33
600.528	21.29
600.722	21.33
600.915	21.34
601.108	21.36
601.301	21.36
601.494	21.29
601.687	21.25
601.88	21.19
602.073	21.19
602.266	21.2
602.459	21.18
602.652	21.21
602.845	21.17
603.038	21.15
603.231	21.12
603.424	21.1
603.617	21.04
603.809	21.06
604.002	21.16
604.195	21.22
604.388	21.23
604.581	21.23
604.774	21.21
604.966	21.2
605.159	21.21
605.352	21.34
605.545	21.36
605.737	21.49
605.93	21.58
606.123	21.5
606.316	21.5
606.508	21.52
606.701	21.66
606.894	21.71
607.086	21.71
607.279	21.65
607.471	21.58
607.664	21.54
607.857	21.53
608.049	21.51
608.242	21.53
608.434	21.51
608.627	21.53
608.819	21.48
609.012	21.46
609.204	21.49
609.397	21.58
609.589	21.61
609.782	21.64
609.974	21.67
610.166	21.74
610.359	21.83
610.551	21.85
610.743	21.9
610.936	21.91
611.128	21.92
611.32	21.94
611.513	21.98
611.705	22.03
611.897	22.07
612.09	22.07
612.282	22.07
612.474	21.98
612.666	22.05
612.858	22.08
613.051	22.09
613.243	22.13
613.435	22.15
613.627	22.14
613.819	22.19
614.011	22.19
614.203	22.12
614.395	22.05
614.588	22.02
614.78	22.02
614.972	21.93
615.164	21.85
615.356	21.81
615.548	21.78
615.74	21.71
615.932	21.61
616.124	21.5
616.315	21.5
616.507	21.48
616.699	21.51
616.891	21.45
617.083	21.49
617.275	21.59
617.467	21.61
617.659	21.59
617.85	21.64
618.042	21.66
618.234	21.78
618.426	21.85
618.618	21.94
618.809	21.93
619.001	21.92
619.193	21.94
619.384	21.89
619.576	21.89
619.768	21.98
619.959	21.95
620.151	21.98
620.343	21.96
620.534	21.95
620.726	21.87
620.917	21.95
621.109	21.98
621.301	21.94
621.492	22
621.684	21.92
621.875	21.93
622.067	21.99
622.258	21.92
622.45	21.87
622.641	21.91
622.832	21.86
623.024	21.89
623.215	21.9
623.407	21.91
623.598	21.89
623.789	21.96
623.981	21.83
624.172	21.92
624.363	21.92
624.555	21.95
624.746	21.92
624.937	22.04
625.129	21.98
625.32	21.96
625.511	21.94
625.702	21.91
625.893	22.01
626.085	22.19
626.276	22.09
626.467	22.07
626.658	22.09
626.849	22.1
627.04	22
627.231	22.04
627.422	22.12
627.614	22.18
627.805	22.2
627.996	22.12
628.187	22.01
628.378	22.01
628.569	22
628.76	21.96
628.951	21.92
629.142	22.03
629.332	21.98
629.523	21.9
629.714	21.89
629.905	21.9
630.096	21.95
630.287	22.03
630.478	22.07
630.669	22.18
630.859	22.28
631.05	22.32
631.241	22.32
631.432	22.31
631.623	22.39
631.813	22.4
632.004	22.38
632.195	22.4
632.385	22.25
632.576	22.25
632.767	22.23
632.957	22.21
633.148	22.17
633.339	22.12
633.529	22.15
633.72	22.11
633.91	21.99
634.101	22.03
634.292	21.97
634.482	22.12
634.673	22.11
634.863	22.09
635.054	22.11
635.244	22.14
635.435	22.14
635.625	22.12
635.815	22.13
636.006	22.23
636.196	22.26
636.387	22.16
636.577	22.05
636.767	22.07
636.958	22.05
637.148	22.03
637.338	22.07
637.529	22.14
637.719	22.14
637.909	22.14
638.099	22.09
638.29	22.03
638.48	22.23
638.67	22.31
638.86	22.32
639.05	22.43
639.241	22.48
639.431	22.43
639.621	22.32
639.811	22.41
640.001	22.35
640.191	22.4
640.381	22.43
640.571	22.32
640.761	22.31
640.951	22.28
641.141	22.2
641.331	22.13
641.521	22.16
641.711	22.21
641.901	22.12
642.091	22.25
642.281	22.25
642.471	22.21
642.661	22.25
642.851	22.25
643.041	22.24
643.231	22.26
643.42	22.32
643.61	22.27
643.8	22.31
643.99	22.35
644.18	22.31
644.369	22.36
644.559	22.43
644.749	22.44
644.939	22.47
645.128	22.52
645.318	22.44
645.508	22.38
645.697	22.45
645.887	22.48
646.076	22.48
646.266	22.55
646.456	22.58
646.645	22.53
646.835	22.49
647.024	22.49
647.214	22.46
647.403	22.49
647.593	22.57
647.782	22.59
647.972	22.58
648.161	22.5
648.351	22.51
648.54	22.37
648.73	22.4
648.919	22.5
649.108	22.53
649.298	22.49
649.487	22.64
649.677	22.62
649.866	22.65
650.055	22.67
650.244	22.76
650.434	22.66
650.623	22.78
650.812	22.76
651.002	22.59
651.191	22.48
651.38	22.53
651.569	22.52
651.758	22.53
651.947	22.47
652.137	22.34
652.326	22.3
652.515	22.32
652.704	22.33
652.893	22.39
653.082	22.53
653.271	22.62
653.46	22.69
653.649	22.62
653.838	22.58
654.027	22.61
654.216	22.7
654.405	22.71
654.594	22.78
654.783	22.71
654.972	22.73
655.161	22.75
655.35	22.76
655.539	22.67
655.728	22.64
655.916	22.56
656.105	22.61
656.294	22.6
656.483	22.62
656.672	22.55
656.86	22.59
657.049	22.55
657.238	22.45
657.427	22.4
657.615	22.38
657.804	22.33
657.993	22.46
658.181	22.36
658.37	22.34
658.559	22.36
658.747	22.43
658.936	22.4
659.125	22.32
659.313	22.4
659.502	22.44
659.69	22.45
659.879	22.49
660.067	22.46
660.256	22.5
660.444	22.58
660.633	22.52
660.821	22.41
661.01	22.5
661.198	22.67
661.387	22.57
661.575	22.61
661.763	22.67
661.952	22.76
662.14	22.74
662.328	22.72
662.517	22.78
662.705	22.9
662.893	23
663.082	22.91
663.27	22.84
663.458	22.85
663.646	22.85
663.834	22.86
664.023	22.89
664.211	22.96
664.399	22.96
664.587	22.87
664.775	22.77
664.963	22.75
665.152	22.73
665.34	22.88
665.528	22.95
665.716	22.96
665.904	22.81
666.092	22.77
666.28	22.7
666.468	22.76
666.656	22.79
666.844	22.76
667.032	22.8
667.22	22.91
667.408	22.8
667.596	22.88
667.784	22.86
667.971	23.12
668.159	23.02
668.347	22.98
668.535	22.9
668.723	22.83
668.911	22.94
669.098	22.82
669.286	22.72
669.474	22.75
669.662	22.51
669.849	22.5
670.037	22.42
670.225	22.48
670.413	22.61
670.6	22.76
670.788	22.84
670.976	22.86
671.163	23.02
671.351	22.99
671.538	23.03
671.726	23.3
671.913	23.32
672.101	23.11
672.289	23.14
672.476	23.15
672.664	23.08
672.851	23.03
673.039	22.91
673.226	22.82
673.413	23
673.601	22.92
673.788	22.84
673.976	22.8
674.163	22.93
674.35	22.84
674.538	22.81
674.725	22.79
674.912	22.78
675.1	22.84
675.287	22.89
675.474	22.89
675.662	22.95
675.849	22.92
676.036	23
676.223	23.11
676.411	23.15
676.598	23.15
676.785	23.18
676.972	23.26
677.159	23.36
677.346	23.36
677.533	23.28
677.721	23.32
677.908	23.39
678.095	23.35
678.282	23.29
678.469	23.25
678.656	23.33
678.843	23.36
679.03	23.23
679.217	23.21
679.404	23.16
679.591	23.15
679.778	23.06
679.964	22.93
680.151	22.92
680.338	22.96
680.525	23.07
680.712	23.01
680.899	23.06
681.086	23.17
681.272	23.13
681.459	23.3
681.646	23.33
681.833	23.35
682.02	23.45
682.206	23.51
682.393	23.45
682.58	23.4
682.766	23.41
682.953	23.32
683.14	23.27
683.326	23.37
683.513	23.26
683.7	23.3
683.886	23.25
684.073	23.2
684.259	23.13
684.446	23.13
684.632	23.07
684.819	23
685.005	23.09
685.192	23.21
685.378	23.13
685.565	22.98
685.751	22.95
685.938	23.1
686.124	23.13
686.31	23.22
686.497	23.27
686.683	23.39
686.87	23.51
687.056	23.43
687.242	23.42
687.429	23.37
687.615	23.44
687.801	23.41
687.987	23.24
688.174	23.21
688.36	23.21
688.546	23.28
688.732	23.23
688.918	23.19
689.105	23.15
689.291	22.97
689.477	23.14
689.663	23.24
689.849	23.15
690.035	23.24
690.221	23.28
690.407	23.2
690.593	23.13
690.779	23.2
690.965	23.21
691.151	23.32
691.337	23.35
691.523	23.36
691.709	23.27
691.895	23.33
692.081	23.33
692.267	23.38
692.453	23.41
692.639	23.41
692.825	23.43
693.011	23.42
693.196	23.35
693.382	23.49
693.568	23.35
693.754	23.33
693.94	23.27
694.125	23.32
694.311	23.32
694.497	23.5
694.682	23.54
694.868	23.54
695.054	23.58
695.239	23.55
695.425	23.44
695.611	23.46
695.796	23.55
695.982	23.75
696.168	23.52
696.353	23.54
696.539	23.27
696.724	23.28
696.91	23.28
697.095	23.24
697.281	23.18
697.466	23.19
697.652	23.11
697.837	23.15
698.023	23.12
698.208	23.3
698.393	23.36
698.579	23.43
698.764	23.39
698.949	23.33
699.135	23.36
699.32	23.48
699.505	23.49
699.691	23.56
699.876	23.45
700.061	23.49
700.246	23.5
700.432	23.35
700.617	23.37
700.802	23.52
700.987	23.53
701.172	23.49
701.358	23.39
701.543	23.53
701.728	23.54
701.913	23.68
702.098	23.69
702.283	23.61
702.468	23.69
702.653	23.58
702.838	23.54
703.023	23.55
703.208	23.62
703.393	23.64
703.578	23.53
703.763	23.64
703.948	23.46
704.133	23.44
704.318	23.45
704.503	23.61
704.688	23.77
704.873	23.77
705.057	23.88
705.242	23.89
705.427	24.03
705.612	24.12
705.797	24.12
705.981	24.17
706.166	24.26
706.351	24.24
706.536	24.21
706.72	24.15
706.905	24.13
707.09	24.11
707.274	24.06
707.459	23.89
707.644	23.87
707.828	23.85
708.013	24
708.197	23.95
708.382	23.99
708.567	23.83
708.751	24
708.936	23.93
709.12	23.97
709.305	24.08
709.489	24.28
709.673	24.3
709.858	24.14
710.042	24.1
710.227	24.03
710.411	24.01
710.596	24
710.78	23.81
710.964	24.06
711.149	23.91
711.333	23.95
711.517	23.96
711.702	23.99
711.886	24.32
712.07	24.28
712.254	24.23
712.438	24.16
712.623	24.32
712.807	24.39
712.991	24.19
713.175	24.21
713.359	24.05
713.544	24.06
713.728	24.03
713.912	23.81
714.096	23.89
714.28	24.05
714.464	24.13
714.648	24.08
714.832	24.02
715.016	23.98
715.2	23.97
715.384	24.06
715.568	23.96
715.752	23.97
715.936	24.12
716.12	23.96
716.304	23.88
716.488	23.75
716.671	23.68
716.855	23.75
717.039	23.75
717.223	23.82
717.407	23.8
717.59	23.74
717.774	23.7
717.958	23.48
718.142	23.55
718.325	23.45
718.509	23.7
718.693	23.87
718.877	23.92
719.06	24.03
719.244	23.87
719.428	23.87
719.611	23.97
719.795	23.96
719.978	24.13
720.162	24.1
720.345	24.18
720.529	24.12
720.713	24.09
720.896	24.1
721.08	24.1
721.263	24.13
721.446	24.2
721.63	24.22
721.813	24.16
721.997	23.92
722.18	23.9
722.364	24.06
722.547	23.93
722.73	23.79
722.914	23.67
723.097	23.5
723.28	23.68
723.464	23.56
723.647	23.6
723.83	23.79
724.013	24.01
724.197	24.23
724.38	24.17
724.563	24.25
724.746	24.36
724.929	24.39
725.112	24.22
725.296	24.16
725.479	24.17
725.662	24.08
725.845	24.1
726.028	24.02
726.211	23.88
726.394	23.87
726.577	23.91
726.76	23.73
726.943	23.83
727.126	24.09
727.309	24.05
727.492	24.2
727.675	24.22
727.858	24.11
728.041	24.13
728.224	24.27
728.407	24.36
728.589	24.32
728.772	24.59
728.955	24.69
729.138	24.91
729.321	25.04
729.503	25.05
729.686	25.18
729.869	25.17
730.052	25.22
730.234	25.07
730.417	24.97
730.6	25.11
730.782	24.88
730.965	24.79
731.148	24.62
731.33	24.47
731.513	24.42
731.695	24.21
731.878	24.22
732.061	24.15
732.243	24.22
732.426	24.22
732.608	24.18
732.791	24.2
732.973	24.05
733.156	24.05
733.338	24.18
733.52	24.03
733.703	24.19
733.885	24.16
734.068	23.94
734.25	23.81
734.432	23.99
734.615	24.25
734.797	24.32
734.979	24.54
735.162	24.55
735.344	24.54
735.526	24.5
735.708	24.36
735.891	24.51
736.073	24.98
736.255	25.08
736.437	25
736.619	24.76
736.802	24.77
736.984	24.86
737.166	24.89
737.348	24.68
737.53	24.73
737.712	24.74
737.894	24.97
738.076	24.99
738.258	24.94
738.44	24.82
738.622	24.65
738.804	24.68
738.986	24.59
739.168	24.6
739.35	24.84
739.532	24.89
739.714	24.86
739.896	24.63
740.078	24.66
740.259	24.87
740.441	24.89
740.623	25.16
740.805	24.86
740.987	24.95
741.168	24.69
741.35	24.67
741.532	24.84
741.714	24.96
741.895	24.83
742.077	24.74
742.259	24.68
742.44	24.73
742.622	24.54
742.804	24.83
742.985	24.82
743.167	25.1
743.348	25.11
743.53	25.27
743.711	25.28
743.893	25.13
744.075	24.9
744.256	24.66
744.438	24.49
744.619	24.45
744.8	24.49
744.982	24.28
745.163	24.25
745.345	24.16
745.526	24.15
745.707	24.16
745.889	24.35
746.07	24.55
746.252	24.74
746.433	24.92
746.614	25.15
746.795	25.41
746.977	25.55
747.158	25.47
747.339	25.56
747.52	25.33
747.702	25.43
747.883	25.38
748.064	25.26
748.245	25.24
748.426	25.11
748.607	24.86
748.788	24.34
748.97	23.97
749.151	24.25
749.332	24.19
749.513	24.48
749.694	24.43
749.875	24.49
750.056	24.44
750.237	24.41
750.418	24.31
750.599	24.58
750.78	24.99
750.96	25.14
751.141	25.07
751.322	25.2
751.503	25.15
751.684	25.3
751.865	25.54
752.046	25.77
752.226	25.73
752.407	25.85
752.588	25.96
752.769	26.19
752.949	26.28
753.13	26.1
753.311	26.26
753.492	26.01
753.672	25.76
753.853	25.43
754.034	25.49
754.214	25.77
754.395	25.74
754.575	25.51
754.756	24.71
754.937	24.78
755.117	24.78
755.298	24.52
755.478	24.87
755.659	25.15
755.839	25.1
756.02	25.07
756.2	24.93
756.381	24.9
756.561	24.71
756.741	25.52
756.922	25.6
757.102	25.57
757.283	25.55
757.463	25.2
757.643	25.16
757.823	25.23
758.004	25.07
758.184	25.27
758.364	25.61
758.545	25.73
758.725	25.31
758.905	25.05
759.085	25.06
759.265	25.18
759.446	25.12
759.626	25.14
759.806	25.38
759.986	25.4
760.166	25.15
760.346	24.82
760.526	24.94
760.706	25.07
760.886	25.28
761.066	25.42
761.246	25.41
761.426	25.65
761.606	25.2
761.786	24.99
761.966	24.96
762.146	24.96
762.326	24.99
762.506	24.87
762.686	24.87
762.866	24.66
763.046	24.59
763.225	24.66
763.405	24.46
763.585	24.7
763.765	24.65
763.945	24.66
764.124	24.53
764.304	24.53
764.484	24.6
764.664	24.47
764.843	24.68
765.023	24.86
765.203	24.72
765.382	24.99
765.562	24.97
765.741	25.21
765.921	25.25
766.101	25.39
766.28	25.5
766.46	25.58
766.639	25.94
766.819	25.8
766.998	25.66
767.178	25.7
767.357	25.57
767.537	25.61
767.716	25.66
767.896	25.79
768.075	25.6
768.254	25.45
768.434	25.5
768.613	24.86
768.792	24.95
768.972	25.11
769.151	25.04
769.33	25.19
769.51	25.27
769.689	25.13
769.868	25.04
770.047	25.24
770.226	25.33
770.406	25.38
770.585	25.56
770.764	25.46
770.943	25.69
771.122	25.7
771.301	25.4
771.48	25.51
771.66	25.31
771.839	25.41
772.018	25.51
772.197	25.65
772.376	25.57
772.555	25.87
772.734	26.36
772.913	25.79
773.092	25.76
773.271	25.89
773.449	25.65
773.628	26.1
773.807	26
773.986	25.99
774.165	25.97
774.344	25.69
774.523	25.99
774.701	25.54
774.88	25.77
775.059	25.89
775.238	25.8
775.417	25.74
775.595	25.38
775.774	25.53
775.953	25.39
776.131	25.02
776.31	25.21
776.489	24.9
776.667	24.95
776.846	24.86
777.025	24.75
777.203	24.51
777.382	24.5
777.56	24.62
777.739	24.51
777.917	24.5
778.096	24.71
778.274	24.76
778.453	24.8
778.631	24.53
778.81	24.71
778.988	24.64
779.166	24.99
779.345	25.31
779.523	25.34
779.702	25.32
779.88	25.4
780.058	25.63
780.237	25.38
780.415	25.82
780.593	26.3
780.771	26.31
780.95	26.71
781.128	26.45
781.306	26.67
781.484	26.65
781.662	26.74
781.841	26.67
782.019	26.32
782.197	26.75
782.375	26.19
782.553	26.58
782.731	26.76
782.909	26.33
783.087	26.86
783.265	26.97
783.443	26.93
783.621	26.62
783.799	26.91
783.977	26.94
784.155	26.72
784.333	26.38
784.511	26.21
784.689	26.14
784.867	26.44
785.045	25.33
785.223	24.82
785.4	24.37
785.578	24.54
785.756	24.53
785.934	24.61
786.112	24.86
786.289	25.43
786.467	25.31
786.645	24.92
786.823	24.83
787	25.5
787.178	25.95
787.356	26.71
787.533	26.6
787.711	26.85
787.889	27.34
788.066	27.26
788.244	27.18
788.421	27.12
788.599	27.11
788.776	27.21
788.954	27.29
789.131	26.99
789.309	26.45
789.486	26.2
789.664	26.19
789.841	26.09
790.019	25.87
790.196	25.91
790.373	25.62
790.551	25.55
790.728	25.71
790.906	25.68
791.083	24.97
791.26	25.15
791.437	25.39
791.615	25.07
791.792	24.7
791.969	24.77
792.146	24.95
792.324	25.22
792.501	25.88
792.678	25.79
792.855	25.45
793.032	25.69
793.209	25.65
793.387	25.51
793.564	25.22
793.741	25.11
793.918	25.07
794.095	25.27
794.272	25.07
794.449	24.51
794.626	24.34
794.803	24.42
794.98	24.74
795.157	24.75
795.334	25.65
795.511	25.82
795.688	25.84
795.864	26.07
796.041	26.1
796.218	26.02
796.395	26.43
796.572	26.76
796.749	26.77
796.925	27.12
797.102	27.23
797.279	27.05
797.456	26.91
797.632	27.23
797.809	27.03
797.986	26.01
798.162	26.1
798.339	26.08
798.516	25.56
798.692	26.02
798.869	25.71
799.046	25.58
799.222	25.41
799.399	26.11
799.575	26.18
799.752	26.19
799.928	26.28
800.105	26.46
800.281	25.98
800.458	26.06
800.634	25.8
800.811	25.8
800.987	25.38
801.163	24.79
801.34	24.24
801.516	24.18
801.692	24.06
801.869	25.06
802.045	25.43
802.221	25.43
802.398	25.16
802.574	25.15
802.75	25.3
802.926	25.79
803.103	25.57
803.279	26.32
803.455	26.29
803.631	26.53
803.807	25.77
803.983	25.57
804.16	25.91
804.336	26.32
804.512	26.71
804.688	27.04
804.864	27.51
805.04	28.27
805.216	27.91
805.392	27.41
805.568	27.56
805.744	28.12
805.92	27.99
806.096	27.86
806.272	28.14
806.448	27.98
806.623	26.94
806.799	26.7
806.975	26.74
807.151	26.99
807.327	26.82
807.503	26.78
807.678	26.44
807.854	26.61
808.03	26.95
808.206	26.99
808.381	26.7
808.557	27.07
808.733	26.88
808.908	26.89
809.084	26.18
809.26	26.6
809.435	26.92
809.611	27.31
809.787	27.01
809.962	26.82
810.138	27.19
810.313	27.6
810.489	27.68
810.664	27.6
810.84	27.2
811.015	27.45
811.191	27.54
811.366	27.14
811.542	26.76
811.717	26.93
811.892	27.14
812.068	27.03
812.243	27.17
812.419	26.92
812.594	27.52
812.769	28.45
812.944	28.35
813.12	27.74
813.295	27.89
813.47	28.02
813.645	28.14
813.821	28.1
813.996	27.62
814.171	27
814.346	27.15
814.521	27.38
814.697	26.35
814.872	26.5
815.047	27.15
815.222	26.98
815.397	27.1
815.572	27.04
815.747	27.36
815.922	27.45
816.097	27.25
816.272	28.27
816.447	27.87
816.622	27.94
816.797	27.69
816.972	27.82
817.147	28.21
817.322	28.08
817.496	27.65
817.671	27.45
817.846	27.54
818.021	27.89
818.196	27.21
818.371	27.06
818.545	27.59
818.72	27.52
818.895	27.5
819.069	27.5
819.244	27.47
819.419	27.76
819.594	27.59
819.768	27.17
819.943	26.97
820.117	26.55
820.292	26.61
820.467	26.48
820.641	26.49
820.816	26.5
820.99	26.3
821.165	26.34
821.339	26.27
821.514	26.19
821.688	26.27
821.863	26.15
822.037	26.25
822.212	26.15
822.386	26.16
822.56	26.21
822.735	26.13
822.909	26.27
823.084	26.17
823.258	26.12
823.432	26.24
823.606	26.27
823.781	26.5
823.955	26.66
824.129	26.71
824.303	26.61
824.478	26.6
824.652	26.74
824.826	26.36
825	26.67
825.174	26.72
825.348	26.52
825.523	26.55
825.697	26.49
825.871	26.55
826.045	26.74
826.219	26.9
826.393	26.92
826.567	26.9
826.741	27.26
826.915	26.98
827.089	27.21
827.263	27.27
827.437	27.24
827.611	27.39
827.784	27.07
827.958	26.92
828.132	27.16
828.306	27.2
828.48	26.97
828.654	27.03
828.827	27.34
829.001	27.16
829.175	27.09
829.349	27.56
829.522	27.89
829.696	28.32
829.87	28.8
830.044	28.74
830.217	28.65
830.391	29.26
830.565	29.18
830.738	28.73
830.912	28.84
831.085	29.6
831.259	29.81
831.432	29.21
831.606	28.77
831.779	28.33
831.953	27.92
832.126	27.57
832.3	27.27
832.473	27.38
832.647	27.61
832.82	27.86
832.994	27.62
833.167	26.58
833.34	26.66
833.514	26.74
833.687	26.62
833.86	26.44
834.034	26.79
834.207	26.85
834.38	26.52
834.553	26.38
834.727	25.78
834.9	25.81
835.073	26.39
835.246	26.18
835.419	26.67
835.593	27.61
835.766	28.12
835.939	28.22
836.112	28.49
836.285	28.63
836.458	29.35
836.631	30.12
836.804	29.47
836.977	29.41
837.15	29.4
837.323	28.83
837.496	27.8
837.669	28.02
837.842	27.03
838.015	27.18
838.188	26.85
838.361	26.4
838.533	26.21
838.706	26.52
838.879	26.96
839.052	27.47
839.225	27.36
839.398	28.08
839.57	27.87
839.743	28.37
839.916	29.13
840.088	29.38
840.261	29.72
840.434	30.28
840.607	31.25
840.779	30.97
840.952	30.79
841.124	31.62
841.297	31.4
841.47	31.69
841.642	32.31
841.815	31.48
841.987	32.35
842.16	31.9
842.332	30.7
842.505	29.42
842.677	29.47
842.85	30.94
843.022	31.16
843.194	32.59
843.367	32.94
843.539	33.3
843.712	33.31
843.884	32.54
844.056	33.26
844.229	35.42
844.401	36.74
844.573	37.74
844.745	37.7
844.918	35.83
845.09	33.36
845.262	32.19
845.434	32.82
845.606	31.02
845.779	31.94
845.951	31.65
846.123	30.41
846.295	28.45
846.467	28.17
846.639	27.63
846.811	27.03
846.983	27.6
847.155	28.27
847.327	27.94
847.499	29.97
847.671	29.36
847.843	29.2
848.015	28.85
848.187	31.96
848.359	31.76
848.531	31.71
848.703	33.96
848.875	35.65
849.047	35.71
849.218	34.34
849.39	33.36
849.562	34.78
849.734	33.29
849.905	35.13
850.077	36.02
850.249	36.03
850.421	36.18
850.592	36.17
850.764	35.48
850.936	35.05
851.107	35.42
851.279	36.91
851.451	35.13
851.622	37.4
851.794	35.84
851.965	34.79
852.137	35.33
852.308	33.87
852.48	34.11
852.651	32.44
852.823	33.94
852.994	35.44
853.166	35.84
853.337	37.16
853.509	38.07
853.68	38.49
853.851	38.14
854.023	37.71
854.194	38.74
854.365	39.4
854.537	41.58
854.708	39.19
854.879	36.03
855.05	33.85
855.222	33.7
855.393	30.05
855.564	29.91
855.735	28.98
855.906	28.55
856.078	27.7
856.249	27.05
856.42	23.71
856.591	26.09
856.762	28.3
856.933	30.51
857.104	27.79
857.275	29.64
857.446	28.83
857.617	26.66
857.788	25.8
857.959	25.36
858.13	23.55
858.301	24.71
858.472	24.05
858.643	20.4
858.814	19.06
858.985	21.98
859.155	22.72
859.326	25.26
859.497	28.78
859.668	29.34
859.839	29.38
860.009	32.52
860.18	31.66
860.351	31.62
860.522	37.7
860.692	37.93
860.863	37.68
861.034	37.03
861.204	33.8
861.375	33.74
861.546	33.09
861.716	32.66
861.887	31.61
862.057	34.17
862.228	34.41
862.398	30.19
862.569	31.18
862.739	33.09
862.91	33.57
863.08	36.1
863.251	33.84
863.421	32
863.592	33.95
863.762	33.67
863.932	31.92
864.103	32.16
864.273	32.33
864.443	32.63
864.614	31.43
864.784	31.25
864.954	30.2
865.125	30.71
865.295	33.92
865.465	32.59
865.635	31.2
865.805	32.52
865.976	29.25
866.146	29.43
866.316	27.78
866.486	26.3
866.656	26.12
866.826	24.48
866.996	25.84
867.166	24.95
867.336	27.82
867.506	26.94
867.676	28.43
867.846	30.46
868.016	28.86
868.186	31.16
868.356	33.38
868.526	33.76
868.696	32.84
868.866	31.96
869.036	30.56
869.206	28.57
869.376	28.57
869.545	27.21
869.715	27.69
869.885	29.03
870.055	27.92
870.224	26.79
870.394	26.82
870.564	29.91
870.734	28.76
870.903	29.52
871.073	30.25
871.243	31.86
871.412	31.09
871.582	32.09
871.751	32.71
871.921	32.75
872.091	31.24
872.26	32.08
872.43	30.3
872.599	31.49
872.769	33.29
872.938	31.88
873.108	31.78
873.277	32.29
873.446	33.12
873.616	33.9
873.785	32.59
873.955	33.9
874.124	32.8
874.293	34.1
874.463	32.91
874.632	30.53
874.801	32.5
874.971	32.25
875.14	32.32
875.309	29.58
875.478	28.83
875.647	29.07
875.817	30.47
875.986	29.85
876.155	30.18
876.324	31.49
876.493	35.42
876.662	34.61
876.831	36.18
877	35.71
877.17	36.71
877.339	39.16
877.508	41.55
877.677	40.12
877.846	40.77
878.015	41.06
878.184	42.38
878.352	41.14
878.521	39.54
878.69	38.64
878.859	38.02
879.028	37.35
879.197	34.96
879.366	33.69
879.534	32.5
879.703	30.77
879.872	29.63
880.041	29.09
880.21	28.13
880.378	28.06
880.547	27.96
880.716	27.85
880.884	27.84
881.053	28.03
881.222	27.77
881.39	28.1
881.559	28.47
881.727	28.62
881.896	28.34
882.065	28.2
882.233	28.19
882.402	28.04
882.57	28.1
882.739	28.2
882.907	27.93
883.076	28.5
883.244	28.59
883.412	28.59
883.581	28.1
883.749	28.29
883.918	28.7
884.086	29.13
884.254	29.76
884.423	29.89
884.591	30.24
884.759	30.24
884.927	29.59
885.096	29.09
885.264	29.53
885.432	30.75
885.6	29.95
885.769	29.44
885.937	29.48
886.105	28.47
886.273	29.55
886.441	28.72
886.609	29.44
886.777	28.27
886.945	28.37
887.113	27.63
887.281	26.93
887.449	30.14
887.617	31.22
887.785	31.88
887.953	33.13
888.121	32
888.289	32.39
888.457	34.44
888.625	36.9
888.793	37.55
888.961	37.44
889.129	37.06
889.296	34.59
889.464	35.44
889.632	34.21
889.8	33.17
889.967	33.8
890.135	34.62
