Data from JASIL_2959_Reflection_1.txt Node
Date: Sat Nov 07 21:16:37 EST 2015
User: Geneva
Spectrometer: USB4E03002
Autoset integration time: false
Trigger mode: 4
Integration Time (sec): 1.000000E-1
Scans to average: 10
Electric dark correction enabled: true
Nonlinearity correction enabled: false
Boxcar width: 5
Stray light correction enabled: false
XAxis mode: Wavelengths
Stop averaging: false
Number of Pixels in Spectrum: 3648
>>>>>Begin Spectral Data<<<<<
177.575	61.59
177.794	74.22
178.014	38.4
178.233	-35.04
178.452	-43.55
178.672	154.75
178.891	90.99
179.11	101.27
179.33	174.61
179.549	108.38
179.768	46.73
179.987	22.81
180.207	-127.36
180.426	454.37
180.645	178.25
180.864	180.2
181.084	127.22
181.303	131.51
181.522	102.61
181.741	109.67
181.96	100.38
182.179	100.84
182.398	87.91
182.618	79.12
182.837	85.55
183.056	110.62
183.275	138.52
183.494	188.25
183.713	181.38
183.932	294.31
184.151	648.1
184.37	218.35
184.589	110.06
184.808	101.49
185.027	88.52
185.246	83.22
185.465	57.22
185.684	50.67
185.903	48.88
186.122	49.22
186.341	51.11
186.56	45.86
186.779	45.05
186.998	67.13
187.216	92.81
187.435	87.73
187.654	102.57
187.873	122.12
188.092	110.41
188.311	100.23
188.53	92.5
188.748	109.85
188.967	113.59
189.186	143.54
189.405	126.63
189.623	97.53
189.842	89.32
190.061	59.69
190.28	75.39
190.498	87.94
190.717	54.92
190.936	52.65
191.154	-130.16
191.373	1784.89
191.592	-256.44
191.81	-383.71
192.029	-62.91
192.248	-103.14
192.466	3.14
192.685	27.88
192.904	66.71
193.122	68.52
193.341	62.82
193.559	74.01
193.778	85.47
193.996	97.91
194.215	113.27
194.433	109.26
194.652	99.17
194.87	105.43
195.089	93.69
195.307	101.67
195.526	124.24
195.744	99
195.963	104.95
196.181	81.21
196.399	71.87
196.618	71.78
196.836	75.34
197.055	80.87
197.273	63.9
197.491	59.3
197.71	43.37
197.928	27.56
198.146	28.04
198.365	22.35
198.583	29.22
198.801	34.78
199.019	11.92
199.238	19.59
199.456	31.11
199.674	26.65
199.892	18.83
200.111	1.2
200.329	27.72
200.547	9.88
200.765	11.45
200.983	11.3
201.202	9.1
201.42	34.9
201.638	21.97
201.856	12.09
202.074	35.44
202.292	42.47
202.51	42.53
202.728	32.88
202.946	42.34
203.165	40.53
203.383	33.72
203.601	42.95
203.819	53.17
204.037	56.87
204.255	57.8
204.473	69.9
204.691	61.99
204.909	87.24
205.127	72.53
205.345	83.93
205.562	74.16
205.78	72.76
205.998	84.1
206.216	74.85
206.434	81.23
206.652	57.35
206.87	35.44
207.088	39.44
207.306	25.56
207.523	28.77
207.741	22.39
207.959	31.34
208.177	34.28
208.395	12.59
208.612	-10
208.83	-3.05
209.048	3.23
209.266	-8.88
209.483	-13.99
209.701	-6.06
209.919	-12.56
210.136	-12.83
210.354	5.85
210.572	14.26
210.79	23.22
211.007	29.64
211.225	20.13
211.442	26.76
211.66	32.63
211.878	28.68
212.095	33.53
212.313	37.08
212.53	28.07
212.748	20.56
212.966	22.28
213.183	26.37
213.401	28.57
213.618	40.22
213.836	39.3
214.053	31.29
214.271	31.5
214.488	29.28
214.705	24.92
214.923	35.01
215.14	42.23
215.358	47.74
215.575	47.97
215.793	49.81
216.01	43.26
216.227	39.17
216.445	39.05
216.662	39.05
216.879	36.13
217.097	35.58
217.314	31.86
217.531	27.66
217.749	15.59
217.966	16.65
218.183	12.29
218.4	7.59
218.618	13.2
218.835	16.37
219.052	19.55
219.269	17.39
219.487	17.43
219.704	14.52
219.921	16.86
220.138	22.51
220.355	21.13
220.572	21.68
220.79	23.03
221.007	24.99
221.224	23.97
221.441	25.97
221.658	25.41
221.875	25.54
222.092	24.65
222.309	20.11
222.526	11.83
222.743	9.89
222.96	6.18
223.177	5.32
223.394	4.74
223.611	9.3
223.828	5.6
224.045	8.41
224.262	9.02
224.479	8.75
224.696	9.33
224.913	14.01
225.13	15.4
225.347	15.11
225.564	16.9
225.781	15.84
225.997	14.3
226.214	13.68
226.431	14.1
226.648	13.4
226.865	14.69
227.082	15.21
227.298	14.51
227.515	13.77
227.732	13.13
227.949	13.64
228.165	13.23
228.382	12.76
228.599	12.59
228.816	12.24
229.032	11.73
229.249	11.25
229.466	11.03
229.682	10.8
229.899	11.73
230.116	13.18
230.332	12.99
230.549	14.41
230.765	15.53
230.982	16.25
231.199	16.08
231.415	16.38
231.632	15.96
231.848	16.48
232.065	17.72
232.281	16.09
232.498	15.85
232.714	15.27
232.931	13.73
233.147	12.92
233.364	13.87
233.58	15.58
233.797	16
234.013	16.5
234.23	15.57
234.446	15.72
234.662	15.83
234.879	16.97
235.095	16.56
235.312	16.16
235.528	16.73
235.744	15.36
235.961	14.03
236.177	13.84
236.393	14.44
236.61	16.25
236.826	14.86
237.042	14.96
237.258	13.46
237.475	13.36
237.691	13.63
237.907	13.84
238.123	14.23
238.339	14.05
238.556	13.77
238.772	13.29
238.988	12.12
239.204	12.43
239.42	12.29
239.636	12.29
239.853	12.65
240.069	12.5
240.285	12.21
240.501	12.38
240.717	12.1
240.933	12.61
241.149	12.53
241.365	12.79
241.581	12.52
241.797	12.61
242.013	12.7
242.229	12.91
242.445	12.88
242.661	12.68
242.877	12.64
243.093	12.9
243.309	12.64
243.525	12.73
243.741	12.46
243.957	13.09
244.173	13.53
244.388	13.05
244.604	12.31
244.82	12.44
245.036	12
245.252	11.81
245.468	11.51
245.683	11.13
245.899	11.18
246.115	10.85
246.331	10.65
246.547	10.36
246.762	10.31
246.978	10.38
247.194	10.15
247.409	10.24
247.625	9.91
247.841	9.88
248.057	10.09
248.272	9.8
248.488	10.01
248.703	9.74
248.919	9.88
249.135	9.96
249.35	9.5
249.566	9.52
249.782	9.77
249.997	10.33
250.213	10.4
250.428	10.37
250.644	10.18
250.859	9.92
251.075	10.31
251.29	10.07
251.506	9.74
251.721	9.94
251.937	9.88
252.152	10
252.368	9.79
252.583	9.76
252.798	9.21
253.014	9.17
253.229	9.43
253.445	9.5
253.66	9.64
253.875	10.15
254.091	9.88
254.306	10.27
254.521	9.45
254.737	9.49
254.952	9.3
255.167	9.75
255.383	9.91
255.598	10.22
255.813	9.88
256.028	9.43
256.244	9.17
256.459	8.92
256.674	8.77
256.889	9.02
257.104	9.07
257.32	8.97
257.535	8.94
257.75	8.72
257.965	8.39
258.18	8.24
258.395	8.28
258.61	7.95
258.826	8.01
259.041	7.94
259.256	7.8
259.471	7.57
259.686	7.63
259.901	7.55
260.116	7.59
260.331	7.61
260.546	7.68
260.761	7.59
260.976	7.84
261.191	7.93
261.406	7.63
261.621	7.76
261.836	7.67
262.05	7.31
262.265	6.77
262.48	6.8
262.695	6.53
262.91	6.37
263.125	6.13
263.34	6.58
263.555	6.49
263.769	6.52
263.984	6.49
264.199	7
264.414	7.43
264.629	7.66
264.843	7.73
265.058	7.85
265.273	7.87
265.488	7.93
265.702	7.66
265.917	8.09
266.132	8.47
266.346	8.46
266.561	8.27
266.776	8.19
266.99	8.53
267.205	8.4
267.42	8.28
267.634	8.18
267.849	8.32
268.063	8.19
268.278	7.79
268.492	7.5
268.707	7.54
268.922	7.59
269.136	7.39
269.351	7.32
269.565	7.43
269.78	7.41
269.994	7.26
270.209	7.25
270.423	7.26
270.637	7.25
270.852	7.28
271.066	7.21
271.281	7.29
271.495	7.46
271.709	7.44
271.924	7.37
272.138	7.32
272.353	7.4
272.567	7.28
272.781	7.31
272.996	7.24
273.21	7.11
273.424	6.92
273.638	6.74
273.853	6.8
274.067	6.61
274.281	6.56
274.495	6.67
274.71	6.72
274.924	6.64
275.138	6.55
275.352	6.57
275.566	6.86
275.781	7.09
275.995	7.26
276.209	7.13
276.423	7.15
276.637	7
276.851	6.96
277.065	6.85
277.279	6.96
277.493	7
277.707	7.01
277.921	6.82
278.135	6.91
278.349	6.7
278.563	6.42
278.777	6.25
278.991	6.48
279.205	6.63
279.419	6.77
279.633	6.74
279.847	6.54
280.061	6.53
280.275	6.69
280.489	6.57
280.703	6.44
280.917	6.49
281.131	6.85
281.344	6.66
281.558	6.35
281.772	6.4
281.986	6.37
282.2	6.59
282.414	6.72
282.627	6.63
282.841	6.7
283.055	6.79
283.269	6.74
283.482	6.62
283.696	6.77
283.91	7.07
284.123	6.92
284.337	6.77
284.551	6.71
284.764	6.6
284.978	6.66
285.192	6.52
285.405	6.61
285.619	6.8
285.833	6.62
286.046	6.5
286.26	6.39
286.473	6.23
286.687	6.46
286.9	6.63
287.114	6.61
287.327	6.91
287.541	6.99
287.754	6.95
287.968	6.88
288.181	7.02
288.395	6.93
288.608	6.76
288.822	6.93
289.035	6.83
289.248	6.69
289.462	6.93
289.675	6.65
289.889	6.56
290.102	6.64
290.315	6.56
290.529	6.61
290.742	6.77
290.955	6.98
291.169	6.97
291.382	7.01
291.595	6.96
291.808	6.76
292.022	6.92
292.235	6.89
292.448	7.03
292.661	7.19
292.875	7.21
293.088	7.19
293.301	7.14
293.514	7.22
293.727	7.21
293.94	7.39
294.153	7.18
294.367	6.75
294.58	6.75
294.793	6.54
295.006	6.52
295.219	6.61
295.432	6.41
295.645	6.5
295.858	6.45
296.071	6.53
296.284	6.44
296.497	6.63
296.71	6.83
296.923	6.85
297.136	6.98
297.349	7.05
297.562	6.94
297.775	7.16
297.988	7.07
298.201	7.14
298.414	6.97
298.626	6.8
298.839	6.61
299.052	6.51
299.265	6.52
299.478	6.38
299.691	6.18
299.903	6.09
300.116	6
300.329	5.99
300.542	5.94
300.755	6.08
300.967	6.28
301.18	6.53
301.393	6.62
301.605	6.55
301.818	6.46
302.031	6.7
302.243	6.71
302.456	6.97
302.669	7
302.881	7.03
303.094	6.96
303.307	6.98
303.519	6.97
303.732	7.08
303.944	7.19
304.157	7.27
304.37	7.19
304.582	7.42
304.795	7.22
305.007	7.41
305.22	7.48
305.432	7.44
305.645	7.35
305.857	7.46
306.069	7.52
306.282	7.5
306.494	7.72
306.707	7.56
306.919	7.48
307.132	7.34
307.344	7.06
307.556	6.98
307.769	7.15
307.981	7.28
308.193	7.17
308.406	6.89
308.618	7.05
308.83	6.99
309.043	7.14
309.255	7.21
309.467	7.26
309.679	7.31
309.892	7.31
310.104	7.25
310.316	7.19
310.528	7.26
310.74	7.43
310.953	7.47
311.165	7.36
311.377	7.27
311.589	7.08
311.801	7.27
312.013	7.27
312.225	7.27
312.437	7.39
312.649	7.4
312.862	7.34
313.074	7.18
313.286	6.91
313.498	6.81
313.71	7.07
313.922	7.23
314.134	7.12
314.346	7.16
314.558	7.15
314.77	7.05
314.982	6.89
315.193	6.85
315.405	6.9
315.617	7.09
315.829	7.19
316.041	6.99
316.253	6.9
316.465	6.89
316.677	6.93
316.888	7.12
317.1	7.26
317.312	7.47
317.524	7.57
317.736	7.85
317.947	7.91
318.159	8.09
318.371	8.1
318.583	8.28
318.794	8.19
319.006	8.2
319.218	8.22
319.43	7.96
319.641	8.02
319.853	7.98
320.064	7.76
320.276	7.78
320.488	7.83
320.699	8.03
320.911	8.24
321.123	8.57
321.334	8.52
321.546	8.33
321.757	8.6
321.969	8.49
322.18	8.63
322.392	8.66
322.603	8.51
322.815	8.45
323.026	8.44
323.238	8.21
323.449	8.18
323.661	8.1
323.872	8.2
324.083	8.19
324.295	8.21
324.506	7.95
324.718	7.95
324.929	8.16
325.14	8.21
325.352	8.24
325.563	8.49
325.774	8.41
325.986	8.7
326.197	8.77
326.408	8.8
326.62	8.8
326.831	9.15
327.042	9.24
327.253	9.28
327.464	9.26
327.676	9.23
327.887	9.18
328.098	9.23
328.309	9.11
328.52	9.35
328.732	9.74
328.943	9.93
329.154	10.12
329.365	10.21
329.576	10.34
329.787	10.27
329.998	10.53
330.209	10.56
330.42	10.69
330.631	10.78
330.842	10.55
331.053	10.33
331.264	10.37
331.475	10.32
331.686	10.54
331.897	10.47
332.108	10.61
332.319	10.55
332.53	10.49
332.741	10.46
332.952	10.5
333.163	10.81
333.374	10.94
333.585	11.03
333.795	10.83
334.006	10.77
334.217	10.75
334.428	10.76
334.639	10.74
334.849	10.8
335.06	10.86
335.271	10.93
335.482	10.74
335.692	10.57
335.903	10.57
336.114	10.58
336.325	10.82
336.535	10.89
336.746	10.84
336.957	10.5
337.167	10.57
337.378	10.46
337.589	10.39
337.799	10.48
338.01	10.63
338.22	10.63
338.431	10.41
338.642	10.19
338.852	10
339.063	9.97
339.273	10.02
339.484	10
339.694	10
339.905	9.93
340.115	9.71
340.326	9.55
340.536	9.67
340.746	9.91
340.957	9.74
341.167	9.8
341.378	9.94
341.588	10.39
341.799	10.35
342.009	10.32
342.219	10.29
342.43	10.55
342.64	10.57
342.85	10.35
343.061	10.57
343.271	10.74
343.481	10.79
343.691	10.6
343.902	10.26
344.112	10.13
344.322	10.23
344.532	10.25
344.743	10.03
344.953	9.87
345.163	10.02
345.373	9.75
345.583	9.58
345.793	9.41
346.004	9.54
346.214	9.71
346.424	9.83
346.634	9.9
346.844	9.93
347.054	10.1
347.264	10.36
347.474	10.15
347.684	10.12
347.894	10.15
348.104	10.28
348.314	10.23
348.524	10.24
348.734	10.2
348.944	10.1
349.154	10.05
349.364	9.89
349.574	9.79
349.784	9.84
349.994	9.93
350.204	9.79
350.413	9.69
350.623	9.63
350.833	9.43
351.043	9.25
351.253	9.37
351.463	9.39
351.672	9.27
351.882	9.34
352.092	9.33
352.302	9.35
352.511	9.44
352.721	9.44
352.931	9.4
353.141	9.44
353.35	9.42
353.56	9.2
353.77	9.17
353.979	9.36
354.189	9.25
354.399	9.28
354.608	9.25
354.818	9.32
355.027	9.32
355.237	9.34
355.447	9.38
355.656	9.51
355.866	9.51
356.075	9.5
356.285	9.45
356.494	9.36
356.704	9.27
356.913	9.24
357.123	9.21
357.332	9.18
357.542	9.25
357.751	9.23
357.96	9.12
358.17	9.16
358.379	9.25
358.589	9.2
358.798	9.4
359.007	9.42
359.217	9.31
359.426	9.31
359.635	9.38
359.845	9.27
360.054	9.19
360.263	9.24
360.472	9.15
360.682	9.04
360.891	9.07
361.1	8.94
361.309	8.99
361.519	9.04
361.728	8.99
361.937	8.93
362.146	8.92
362.355	8.97
362.564	8.99
362.774	9.03
362.983	8.97
363.192	8.91
363.401	8.94
363.61	8.83
363.819	8.91
364.028	8.96
364.237	8.92
364.446	8.96
364.655	8.88
364.864	8.82
365.073	8.87
365.282	9.03
365.491	8.94
365.7	8.93
365.909	8.91
366.118	8.83
366.327	8.72
366.536	8.75
366.745	8.68
366.954	8.65
367.162	8.59
367.371	8.52
367.58	8.49
367.789	8.42
367.998	8.33
368.207	8.38
368.415	8.29
368.624	8.22
368.833	8.23
369.042	8.35
369.25	8.4
369.459	8.43
369.668	8.34
369.877	8.17
370.085	8.26
370.294	8.29
370.503	8.34
370.711	8.38
370.92	8.39
371.129	8.26
371.337	8.07
371.546	7.99
371.754	7.99
371.963	8.08
372.171	8.08
372.38	7.91
372.589	7.96
372.797	7.84
373.006	7.76
373.214	7.69
373.423	7.68
373.631	7.75
373.84	7.78
374.048	7.72
374.256	7.61
374.465	7.59
374.673	7.59
374.882	7.42
375.09	7.4
375.298	7.35
375.507	7.42
375.715	7.49
375.923	7.49
376.132	7.48
376.34	7.39
376.548	7.43
376.757	7.53
376.965	7.57
377.173	7.67
377.381	7.72
377.59	7.75
377.798	7.77
378.006	7.67
378.214	7.7
378.423	7.75
378.631	7.78
378.839	7.7
379.047	7.6
379.255	7.56
379.463	7.4
379.671	7.21
379.879	7.14
380.088	7.12
380.296	7.15
380.504	7.18
380.712	7.11
380.92	7.09
381.128	7.11
381.336	7.13
381.544	7.17
381.752	7.3
381.96	7.35
382.168	7.4
382.376	7.42
382.584	7.36
382.791	7.22
382.999	7.14
383.207	7.13
383.415	7.09
383.623	7.15
383.831	7.02
384.039	6.94
384.247	6.93
384.454	6.99
384.662	6.96
384.87	6.94
385.078	6.99
385.285	7.01
385.493	7
385.701	6.9
385.909	6.75
386.116	6.82
386.324	6.83
386.532	6.79
386.739	6.68
386.947	6.54
387.155	6.46
387.362	6.45
387.57	6.48
387.778	6.46
387.985	6.59
388.193	6.61
388.4	6.73
388.608	6.66
388.816	6.64
389.023	6.56
389.231	6.62
389.438	6.7
389.646	6.51
389.853	6.47
390.061	6.45
390.268	6.37
390.475	6.38
390.683	6.25
390.89	6.26
391.098	6.24
391.305	6.34
391.512	6.23
391.72	6.18
391.927	6.24
392.135	6.19
392.342	6.14
392.549	6.16
392.756	6
392.964	5.96
393.171	6.02
393.378	6.01
393.586	5.9
393.793	5.93
394	5.85
394.207	5.92
394.414	5.87
394.622	5.9
394.829	5.82
395.036	5.81
395.243	5.86
395.45	5.71
395.657	5.66
395.864	5.69
396.072	5.82
396.279	5.95
396.486	5.89
396.693	6.01
396.9	6.06
397.107	5.95
397.314	6.04
397.521	6.02
397.728	6.1
397.935	6.12
398.142	6.11
398.349	5.97
398.556	5.9
398.763	5.83
398.97	5.73
399.177	5.67
399.383	5.84
399.59	5.82
399.797	5.84
400.004	5.82
400.211	5.78
400.418	5.77
400.625	5.69
400.831	5.65
401.038	5.67
401.245	5.63
401.452	5.59
401.658	5.55
401.865	5.65
402.072	5.57
402.279	5.55
402.485	5.54
402.692	5.5
402.899	5.54
403.105	5.62
403.312	5.61
403.519	5.58
403.725	5.59
403.932	5.53
404.138	5.44
404.345	5.41
404.552	5.41
404.758	5.46
404.965	5.46
405.171	5.41
405.378	5.34
405.584	5.4
405.791	5.37
405.997	5.34
406.204	5.34
406.41	5.3
406.617	5.37
406.823	5.37
407.029	5.33
407.236	5.37
407.442	5.4
407.649	5.45
407.855	5.43
408.061	5.47
408.268	5.42
408.474	5.41
408.68	5.47
408.887	5.35
409.093	5.33
409.299	5.32
409.505	5.29
409.712	5.25
409.918	5.19
410.124	5.14
410.33	5.16
410.537	5.21
410.743	5.11
410.949	5.04
411.155	5.16
411.361	5.14
411.567	5.09
411.773	5.04
411.98	5.02
412.186	4.98
412.392	4.96
412.598	4.97
412.804	4.95
413.01	4.98
413.216	4.95
413.422	4.98
413.628	5
413.834	4.91
414.04	4.95
414.246	4.97
414.452	5.03
414.658	5.02
414.864	4.98
415.07	4.98
415.275	5.03
415.481	5.01
415.687	4.9
415.893	4.83
416.099	4.91
416.305	4.93
416.511	4.88
416.716	4.81
416.922	4.76
417.128	4.75
417.334	4.75
417.539	4.73
417.745	4.74
417.951	4.76
418.157	4.79
418.362	4.8
418.568	4.77
418.774	4.78
418.979	4.79
419.185	4.78
419.391	4.74
419.596	4.67
419.802	4.63
420.008	4.59
420.213	4.93
420.419	4.92
420.624	4.87
420.83	4.85
421.035	4.89
421.241	4.85
421.446	4.88
421.652	4.87
421.857	4.88
422.063	4.89
422.268	4.9
422.474	4.55
422.679	4.54
422.885	4.54
423.09	4.54
423.295	4.5
423.501	4.5
423.706	4.46
423.911	4.49
424.117	4.49
424.322	4.5
424.527	4.52
424.733	4.5
424.938	4.51
425.143	4.52
425.349	4.52
425.554	4.51
425.759	4.51
425.964	4.53
426.169	4.5
426.375	4.51
426.58	4.48
426.785	4.46
426.99	4.5
427.195	4.44
427.4	4.47
427.605	4.46
427.811	4.47
428.016	4.49
428.221	4.52
428.426	4.52
428.631	4.52
428.836	4.48
429.041	4.46
429.246	4.45
429.451	4.52
429.656	4.47
429.861	4.48
430.066	4.52
430.271	4.51
430.476	4.45
430.681	4.42
430.886	4.42
431.09	4.47
431.295	4.52
431.5	4.52
431.705	4.49
431.91	4.48
432.115	4.5
432.32	4.44
432.524	4.41
432.729	4.4
432.934	4.39
433.139	4.38
433.343	4.41
433.548	4.37
433.753	4.37
433.958	4.32
434.162	4.32
434.367	4.33
434.572	4.32
434.776	4.35
434.981	4.41
435.186	4.4
435.39	4.44
435.595	4.43
435.799	4.43
436.004	4.41
436.209	4.4
436.413	4.41
436.618	4.33
436.822	4.39
437.027	4.39
437.231	4.33
437.436	4.36
437.64	4.31
437.845	4.27
438.049	4.28
438.253	4.26
438.458	4.26
438.662	4.27
438.867	4.28
439.071	4.28
439.275	4.29
439.48	4.33
439.684	4.33
439.888	4.35
440.093	4.32
440.297	4.3
440.501	4.35
440.706	4.37
440.91	4.38
441.114	4.36
441.318	4.35
441.523	4.33
441.727	4.31
441.931	4.35
442.135	4.31
442.339	4.35
442.543	4.37
442.748	4.27
442.952	4.25
443.156	4.22
443.36	4.25
443.564	4.23
443.768	4.21
443.972	4.17
444.176	4.12
444.38	4.17
444.584	4.14
444.788	4.13
444.992	4.19
445.196	4.17
445.4	4.19
445.604	4.15
445.808	4.16
446.012	4.17
446.216	4.2
446.42	4.19
446.624	4.19
446.828	4.18
447.032	4.18
447.235	4.13
447.439	4.15
447.643	4.16
447.847	4.17
448.051	4.16
448.254	4.18
448.458	4.16
448.662	4.21
448.866	4.15
449.069	4.2
449.273	4.24
449.477	4.27
449.681	4.29
449.884	4.28
450.088	4.29
450.292	4.29
450.495	4.32
450.699	4.31
450.902	4.21
451.106	4.26
451.31	4.19
451.513	4.17
451.717	4.12
451.92	4.07
452.124	4
452.327	3.98
452.531	3.99
452.734	3.97
452.938	3.98
453.141	4.04
453.345	4.04
453.548	4.05
453.752	4.06
453.955	4.1
454.158	4.12
454.362	4.14
454.565	4.18
454.769	4.14
454.972	4.13
455.175	4.1
455.379	4.11
455.582	4.09
455.785	4.09
455.988	4.04
456.192	4.01
456.395	3.99
456.598	4.04
456.801	4.02
457.005	4.05
457.208	4.04
457.411	4.06
457.614	4.06
457.817	4.07
458.021	4.05
458.224	4.07
458.427	4.1
458.63	4.1
458.833	4.09
459.036	4.07
459.239	4.04
459.442	4.01
459.645	4.01
459.848	4.04
460.051	4.03
460.254	4.07
460.457	4.09
460.66	4.1
460.863	4.13
461.066	4.14
461.269	4.18
461.472	4.25
461.675	4.32
461.878	4.36
462.081	4.3
462.284	4.33
462.486	4.29
462.689	4.29
462.892	4.27
463.095	4.27
463.298	4.22
463.5	4.18
463.703	4.16
463.906	4.18
464.109	4.13
464.311	4.16
464.514	4.13
464.717	4.16
464.92	4.16
465.122	4.14
465.325	4.19
465.528	4.25
465.73	4.21
465.933	4.21
466.135	4.18
466.338	4.17
466.541	4.17
466.743	4.18
466.946	4.17
467.148	4.17
467.351	4.19
467.553	4.15
467.756	4.14
467.958	4.23
468.161	4.21
468.363	4.18
468.566	4.15
468.768	4.13
468.971	4.12
469.173	4.09
469.375	4.08
469.578	4.09
469.78	4.04
469.983	4.09
470.185	4.02
470.387	4.03
470.59	4.02
470.792	4.04
470.994	4.11
471.196	4.16
471.399	4.15
471.601	4.14
471.803	4.11
472.005	4.16
472.208	4.11
472.41	4.12
472.612	4.12
472.814	4.13
473.016	4.14
473.218	4.13
473.421	4.08
473.623	4.1
473.825	4.09
474.027	4.11
474.229	4.08
474.431	4.08
474.633	4.1
474.835	4.09
475.037	4.08
475.239	4.09
475.441	4.12
475.643	4.08
475.845	4.12
476.047	4.13
476.249	4.1
476.451	4.13
476.653	4.13
476.855	4.12
477.057	4.11
477.258	4.12
477.46	4.11
477.662	4.07
477.864	4.12
478.066	4.09
478.268	4.1
478.469	4.14
478.671	4.08
478.873	4.03
479.075	4.04
479.276	4.04
479.478	4.03
479.68	4.02
479.882	4.04
480.083	4.06
480.285	4.03
480.487	4.01
480.688	3.97
480.89	4.03
481.091	4.06
481.293	4.06
481.495	4.06
481.696	4.05
481.898	4.05
482.099	4.03
482.301	4.02
482.502	4.02
482.704	4.02
482.905	4.02
483.107	4
483.308	3.99
483.51	3.98
483.711	3.97
483.913	3.96
484.114	3.95
484.315	3.95
484.517	3.96
484.718	3.98
484.92	3.97
485.121	3.98
485.322	3.99
485.524	4
485.725	4
485.926	4.02
486.127	4.03
486.329	4.03
486.53	4.03
486.731	4.02
486.932	4.01
487.134	4.01
487.335	4
487.536	4
487.737	3.99
487.938	3.99
488.139	4
488.341	4
488.542	4.02
488.743	4.04
488.944	4.04
489.145	4.06
489.346	4.05
489.547	4.05
489.748	4.07
489.949	4.08
490.15	4.08
490.351	4.09
490.552	4.09
490.753	4.08
490.954	4.07
491.155	4.08
491.356	4.07
491.557	4.09
491.758	4.11
491.959	4.1
492.159	4.08
492.36	4.11
492.561	4.13
492.762	4.14
492.963	4.14
493.164	4.13
493.364	4.13
493.565	4.15
493.766	4.16
493.967	4.15
494.167	4.19
494.368	4.25
494.569	4.21
494.769	4.18
494.97	4.19
495.171	4.2
495.371	4.25
495.572	4.26
495.773	4.31
495.973	4.29
496.174	4.31
496.375	4.29
496.575	4.29
496.776	4.32
496.976	4.35
497.177	4.36
497.377	4.38
497.578	4.4
497.778	4.39
497.979	4.38
498.179	4.41
498.38	4.42
498.58	4.47
498.78	4.45
498.981	4.49
499.181	4.51
499.382	4.52
499.582	4.55
499.782	4.56
499.983	4.59
500.183	4.61
500.383	4.6
500.584	4.63
500.784	4.6
500.984	4.61
501.184	4.56
501.385	4.61
501.585	4.63
501.785	4.63
501.985	4.64
502.185	4.63
502.386	4.63
502.586	4.66
502.786	4.68
502.986	4.69
503.186	4.75
503.386	4.8
503.586	4.82
503.786	4.8
503.987	4.83
504.187	4.84
504.387	4.89
504.587	4.9
504.787	4.92
504.987	4.95
505.187	4.97
505.387	4.97
505.587	4.96
505.786	5
505.986	5.02
506.186	5.01
506.386	5.03
506.586	5.04
506.786	5.06
506.986	5.09
507.186	5.08
507.386	5.14
507.585	5.19
507.785	5.23
507.985	5.2
508.185	5.26
508.384	5.31
508.584	5.35
508.784	5.37
508.984	5.39
509.183	5.44
509.383	5.47
509.583	5.44
509.782	5.44
509.982	5.45
510.182	5.48
510.381	5.5
510.581	5.52
510.781	5.52
510.98	5.55
511.18	5.56
511.379	5.58
511.579	5.61
511.778	5.63
511.978	5.62
512.177	5.65
512.377	5.69
512.576	5.69
512.776	5.72
512.975	5.72
513.175	5.74
513.374	5.76
513.573	5.77
513.773	5.82
513.972	5.85
514.172	5.92
514.371	5.94
514.57	5.93
514.77	6
514.969	6.02
515.168	6.09
515.367	6.11
515.567	6.15
515.766	6.16
515.965	6.18
516.164	6.2
516.364	6.23
516.563	6.27
516.762	6.32
516.961	6.32
517.16	6.34
517.359	6.36
517.559	6.4
517.758	6.42
517.957	6.44
518.156	6.46
518.355	6.5
518.554	6.52
518.753	6.54
518.952	6.57
519.151	6.6
519.35	6.65
519.549	6.66
519.748	6.67
519.947	6.71
520.146	6.76
520.345	6.78
520.544	6.8
520.743	6.84
520.942	6.87
521.141	6.85
521.339	6.86
521.538	6.83
521.737	6.84
521.936	6.88
522.135	6.87
522.333	6.9
522.532	6.93
522.731	6.94
522.93	6.95
523.129	6.98
523.327	7.01
523.526	7.03
523.725	7.06
523.923	7.1
524.122	7.1
524.321	7.13
524.519	7.14
524.718	7.12
524.917	7.13
525.115	7.13
525.314	7.15
525.512	7.17
525.711	7.23
525.909	7.23
526.108	7.25
526.306	7.27
526.505	7.26
526.703	7.28
526.902	7.37
527.1	7.37
527.299	7.38
527.497	7.4
527.696	7.42
527.894	7.44
528.092	7.45
528.291	7.49
528.489	7.52
528.688	7.55
528.886	7.58
529.084	7.56
529.283	7.58
529.481	7.63
529.679	7.65
529.877	7.68
530.076	7.67
530.274	7.73
530.472	7.73
530.67	7.76
530.869	7.82
531.067	7.83
531.265	7.85
531.463	7.93
531.661	7.95
531.859	7.97
532.057	8.01
532.255	8.05
532.454	8.05
532.652	8.08
532.85	8.08
533.048	8.08
533.246	8.11
533.444	8.16
533.642	8.17
533.84	8.2
534.038	8.24
534.236	8.3
534.434	8.32
534.632	8.35
534.83	8.38
535.027	8.42
535.225	8.48
535.423	8.52
535.621	8.56
535.819	8.59
536.017	8.63
536.215	8.65
536.412	8.62
536.61	8.66
536.808	8.68
537.006	8.7
537.203	8.76
537.401	8.74
537.599	8.75
537.797	8.76
537.994	8.79
538.192	8.82
538.39	8.84
538.587	8.88
538.785	8.9
538.983	8.98
539.18	9.05
539.378	9.07
539.575	9.13
539.773	9.18
539.97	9.21
540.168	9.23
540.366	9.25
540.563	9.28
540.761	9.31
540.958	9.33
541.155	9.35
541.353	9.37
541.55	9.38
541.748	9.39
541.945	9.44
542.143	9.45
542.34	9.48
542.537	9.5
542.735	9.56
542.932	9.61
543.129	9.67
543.327	9.73
543.524	9.8
543.721	9.89
543.919	9.98
544.116	10
544.313	10.06
544.51	10.1
544.708	10.14
544.905	10.16
545.102	10.17
545.299	10.18
545.496	10.24
545.693	10.23
545.891	10.21
546.088	10.21
546.285	10.24
546.482	10.26
546.679	10.3
546.876	10.35
547.073	10.37
547.27	10.47
547.467	10.51
547.664	10.48
547.861	10.55
548.058	10.61
548.255	10.67
548.452	10.68
548.649	10.76
548.846	10.77
549.043	10.81
549.24	10.87
549.437	10.86
549.633	10.89
549.83	10.97
550.027	10.98
550.224	11.04
550.421	11.04
550.618	11.06
550.814	11.13
551.011	11.14
551.208	11.2
551.405	11.22
551.601	11.25
551.798	11.29
551.995	11.32
552.191	11.34
552.388	11.28
552.585	11.34
552.781	11.39
552.978	11.4
553.175	11.45
553.371	11.47
553.568	11.52
553.764	11.53
553.961	11.6
554.157	11.6
554.354	11.63
554.55	11.75
554.747	11.77
554.943	11.79
555.14	11.79
555.336	11.84
555.533	11.89
555.729	11.88
555.926	11.92
556.122	11.91
556.318	11.95
556.515	11.98
556.711	12
556.907	12.03
557.104	12.12
557.3	12.2
557.496	12.26
557.693	12.27
557.889	12.32
558.085	12.36
558.281	12.42
558.478	12.45
558.674	12.54
558.87	12.59
559.066	12.55
559.262	12.53
559.459	12.51
559.655	12.54
559.851	12.61
560.047	12.65
560.243	12.67
560.439	12.7
560.635	12.77
560.831	12.71
561.027	12.75
561.223	12.8
561.419	12.87
561.615	12.92
561.811	12.93
562.007	12.88
562.203	12.86
562.399	12.9
562.595	12.93
562.791	12.92
562.987	13
563.183	13.02
563.379	13.13
563.575	13.13
563.771	13.19
563.966	13.24
564.162	13.31
564.358	13.36
564.554	13.38
564.75	13.4
564.945	13.41
565.141	13.44
565.337	13.47
565.533	13.46
565.728	13.51
565.924	13.5
566.12	13.53
566.315	13.54
566.511	13.52
566.707	13.53
566.902	13.53
567.098	13.55
567.293	13.59
567.489	13.58
567.684	13.58
567.88	13.61
568.076	13.63
568.271	13.63
568.467	13.67
568.662	13.74
568.858	13.76
569.053	13.81
569.248	13.87
569.444	13.88
569.639	13.86
569.835	13.9
570.03	13.92
570.225	13.91
570.421	13.98
570.616	13.97
570.812	14.05
571.007	14.08
571.202	14.08
571.397	14.04
571.593	14.02
571.788	14.1
571.983	14.1
572.178	14.09
572.374	14.1
572.569	14.1
572.764	14.12
572.959	14.07
573.154	14.06
573.35	14.09
573.545	14.15
573.74	14.15
573.935	14.13
574.13	14.21
574.325	14.24
574.52	14.22
574.715	14.22
574.91	14.22
575.105	14.22
575.3	14.28
575.495	14.29
575.69	14.34
575.885	14.42
576.08	14.44
576.275	14.42
576.47	14.4
576.665	14.48
576.86	14.49
577.055	14.59
577.25	14.67
577.444	14.7
577.639	14.72
577.834	14.67
578.029	14.64
578.224	14.66
578.418	14.66
578.613	14.67
578.808	14.72
579.003	14.79
579.197	14.72
579.392	14.68
579.587	14.68
579.781	14.71
579.976	14.73
580.171	14.75
580.365	14.76
580.56	14.79
580.755	14.8
580.949	14.77
581.144	14.72
581.338	14.78
581.533	14.82
581.727	14.86
581.922	14.85
582.116	14.94
582.311	14.96
582.505	14.96
582.7	15.01
582.894	15.04
583.089	15.08
583.283	15.07
583.478	15.07
583.672	15.06
583.866	15.04
584.061	15.06
584.255	15
584.449	14.95
584.644	15
584.838	14.99
585.032	15.01
585.226	15.01
585.421	15.05
585.615	15.03
585.809	14.99
586.003	14.93
586.198	14.9
586.392	14.96
586.586	15.01
586.78	14.98
586.974	15.01
587.168	15.08
587.363	15.1
587.557	15.18
587.751	15.24
587.945	15.28
588.139	15.28
588.333	15.3
588.527	15.25
588.721	15.26
588.915	15.29
589.109	15.3
589.303	15.17
589.497	15.17
589.691	15.1
589.885	15.07
590.079	15.1
590.273	15.15
590.466	15.21
590.66	15.25
590.854	15.32
591.048	15.24
591.242	15.18
591.436	15.25
591.629	15.23
591.823	15.31
592.017	15.35
592.211	15.36
592.404	15.37
592.598	15.34
592.792	15.35
592.986	15.34
593.179	15.39
593.373	15.4
593.567	15.42
593.76	15.44
593.954	15.37
594.147	15.38
594.341	15.34
594.535	15.38
594.728	15.39
594.922	15.37
595.115	15.31
595.309	15.37
595.502	15.4
595.696	15.38
595.889	15.44
596.083	15.44
596.276	15.38
596.47	15.41
596.663	15.41
596.856	15.38
597.05	15.4
597.243	15.39
597.437	15.36
597.63	15.37
597.823	15.38
598.017	15.36
598.21	15.4
598.403	15.43
598.596	15.42
598.79	15.4
598.983	15.49
599.176	15.48
599.369	15.53
599.563	15.53
599.756	15.55
599.949	15.56
600.142	15.5
600.335	15.51
600.528	15.51
600.722	15.54
600.915	15.56
601.108	15.52
601.301	15.56
601.494	15.56
601.687	15.59
601.88	15.58
602.073	15.57
602.266	15.62
602.459	15.62
602.652	15.68
602.845	15.69
603.038	15.73
603.231	15.74
603.424	15.7
603.617	15.67
603.809	15.66
604.002	15.64
604.195	15.68
604.388	15.67
604.581	15.61
604.774	15.57
604.966	15.58
605.159	15.53
605.352	15.56
605.545	15.62
605.737	15.65
605.93	15.66
606.123	15.66
606.316	15.64
606.508	15.63
606.701	15.72
606.894	15.75
607.086	15.74
607.279	15.75
607.471	15.75
607.664	15.73
607.857	15.8
608.049	15.84
608.242	15.91
608.434	15.92
608.627	15.95
608.819	15.92
609.012	15.97
609.204	15.95
609.397	16.05
609.589	16.03
609.782	16.05
609.974	16.14
610.166	16.17
610.359	16.24
610.551	16.25
610.743	16.3
610.936	16.41
611.128	16.46
611.32	16.52
611.513	16.44
611.705	16.49
611.897	16.44
612.09	16.34
612.282	16.32
612.474	16.16
612.666	16.26
612.858	16.24
613.051	16.17
613.243	16.06
613.435	16.05
613.627	16.14
613.819	16.15
614.011	16.14
614.203	16.11
614.395	16.06
614.588	16.1
614.78	16.06
614.972	16.02
615.164	16.01
615.356	16
615.548	15.92
615.74	15.88
615.932	15.85
616.124	15.9
616.315	15.96
616.507	15.89
616.699	15.92
616.891	15.9
617.083	15.99
617.275	16.05
617.467	16.08
617.659	16.15
617.85	16.09
618.042	16.13
618.234	16.19
618.426	16.1
618.618	16.24
618.809	16.26
619.001	16.26
619.193	16.2
619.384	16.1
619.576	16.13
619.768	16.15
619.959	16.13
620.151	16.12
620.343	15.98
620.534	15.99
620.726	15.97
620.917	16
621.109	15.95
621.301	15.96
621.492	16.01
621.684	15.91
621.875	15.88
622.067	15.91
622.258	15.84
622.45	15.89
622.641	15.88
622.832	15.86
623.024	15.85
623.215	15.91
623.407	15.95
623.598	15.97
623.789	16.08
623.981	16.07
624.172	16.1
624.363	16.16
624.555	16.2
624.746	16.23
624.937	16.18
625.129	16.1
625.32	16.03
625.511	16
625.702	15.9
625.893	15.9
626.085	15.98
626.276	15.97
626.467	15.93
626.658	15.97
626.849	15.94
627.04	16.03
627.231	16.05
627.422	16.09
627.614	16.1
627.805	16.21
627.996	16.22
628.187	16.15
628.378	16.11
628.569	16.11
628.76	16.04
628.951	16.06
629.142	16
629.332	16.01
629.523	16.02
629.714	16.03
629.905	16.03
630.096	15.93
630.287	15.91
630.478	15.94
630.669	15.98
630.859	16.06
631.05	16.13
631.241	16.18
631.432	16.21
631.623	16.18
631.813	16.23
632.004	16.2
632.195	16.27
632.385	16.21
632.576	16.25
632.767	16.26
632.957	16.28
633.148	16.23
633.339	16.15
633.529	16.15
633.72	16.18
633.91	15.97
634.101	16
634.292	16.02
634.482	16.05
634.673	15.97
634.863	15.93
635.054	15.86
635.244	15.87
635.435	15.86
635.625	15.85
635.815	15.85
636.006	15.95
636.196	15.94
636.387	15.9
636.577	15.98
636.767	16.03
636.958	16.06
637.148	16.03
637.338	16
637.529	16.08
637.719	16.07
637.909	16.03
638.099	16.14
638.29	16.09
638.48	16.22
638.67	16.18
638.86	16.24
639.05	16.23
639.241	16.34
639.431	16.37
639.621	16.33
639.811	16.46
640.001	16.36
640.191	16.29
640.381	16.31
640.571	16.16
640.761	16.17
640.951	16.17
641.141	16.2
641.331	16.09
641.521	16.08
641.711	16.08
641.901	15.94
642.091	16.07
642.281	16.03
642.471	15.98
642.661	16.15
642.851	16.16
643.041	16.16
643.231	16.12
643.42	16.18
643.61	16.16
643.8	16.09
643.99	16.11
644.18	16.05
644.369	16.07
644.559	16.2
644.749	16.12
644.939	16.1
645.128	15.93
645.318	15.9
645.508	15.89
645.697	15.91
645.887	16.01
646.076	16.02
646.266	16.06
646.456	16.09
646.645	16.03
646.835	16.05
647.024	16.12
647.214	16.19
647.403	16.16
647.593	16.21
647.782	16.24
647.972	16.16
648.161	16.1
648.351	16.15
648.54	16.15
648.73	16.12
648.919	16.04
649.108	15.96
649.298	15.91
649.487	16.02
649.677	15.93
649.866	15.92
650.055	15.96
650.244	16
650.434	15.87
650.623	15.86
650.812	15.86
651.002	15.89
651.191	15.98
651.38	16.05
651.569	16.08
651.758	16.21
651.947	16.15
652.137	16.09
652.326	16.11
652.515	16.17
652.704	16.19
652.893	16.27
653.082	16.21
653.271	16.24
653.46	16.29
653.649	16.24
653.838	16.14
654.027	16.23
654.216	16.29
654.405	16.34
654.594	16.44
654.783	16.49
654.972	16.42
655.161	16.57
655.35	16.54
655.539	16.49
655.728	16.46
655.916	16.42
656.105	16.48
656.294	16.54
656.483	16.43
656.672	16.38
656.86	16.33
657.049	16.27
657.238	16.16
657.427	16.12
657.615	16.09
657.804	16.09
657.993	16.14
658.181	16.1
658.37	16.09
658.559	16.06
658.747	16.07
658.936	16.03
659.125	16.08
659.313	16.1
659.502	16.09
659.69	16.09
659.879	16.07
660.067	16.09
660.256	16.07
660.444	16.05
660.633	16.11
660.821	16.09
661.01	16.11
661.198	16.09
661.387	16.14
661.575	16.18
661.763	16.28
661.952	16.32
662.14	16.3
662.328	16.31
662.517	16.22
662.705	16.25
662.893	16.32
663.082	16.44
663.27	16.4
663.458	16.41
663.646	16.33
663.834	16.36
664.023	16.38
664.211	16.47
664.399	16.38
664.587	16.48
664.775	16.47
664.963	16.47
665.152	16.31
665.34	16.4
665.528	16.35
665.716	16.38
665.904	16.3
666.092	16.18
666.28	16.19
666.468	16.3
666.656	16.2
666.844	16.13
667.032	16.09
667.22	16.23
667.408	16.18
667.596	16.14
667.784	16.21
667.971	16.2
668.159	16.3
668.347	16.21
668.535	16.08
668.723	16.06
668.911	16.13
669.098	16.07
669.286	15.99
669.474	16
669.662	16.02
669.849	15.94
670.037	15.91
670.225	15.87
670.413	15.95
670.6	16.1
670.788	16.16
670.976	16.19
671.163	16.15
671.351	16.13
671.538	16.16
671.726	16.25
671.913	16.27
672.101	16.26
672.289	16.36
672.476	16.38
672.664	16.27
672.851	16.32
673.039	16.27
673.226	16.33
673.413	16.32
673.601	16.33
673.788	16.31
673.976	16.26
674.163	16.33
674.35	16.24
674.538	16.09
674.725	16.17
674.912	16.25
675.1	16.31
675.287	16.26
675.474	16.38
675.662	16.45
675.849	16.49
676.036	16.62
676.223	16.81
676.411	16.81
676.598	16.93
676.785	16.83
676.972	16.82
677.159	16.81
677.346	16.92
677.533	16.8
677.721	16.77
677.908	16.74
678.095	16.67
678.282	16.51
678.469	16.54
678.656	16.52
678.843	16.55
679.03	16.45
679.217	16.42
679.404	16.39
679.591	16.46
679.778	16.43
679.964	16.43
680.151	16.42
680.338	16.44
680.525	16.43
680.712	16.4
680.899	16.4
681.086	16.45
681.272	16.43
681.459	16.49
681.646	16.5
681.833	16.52
682.02	16.54
682.206	16.61
682.393	16.61
682.58	16.49
682.766	16.46
682.953	16.49
683.14	16.45
683.326	16.47
683.513	16.44
683.7	16.32
683.886	16.29
684.073	16.25
684.259	16.14
684.446	16.11
684.632	16.18
684.819	16.09
685.005	16.11
685.192	16.11
685.378	16.2
685.565	16.18
685.751	16.23
685.938	16.19
686.124	16.19
686.31	16.23
686.497	16.24
686.683	16.44
686.87	16.59
687.056	16.47
687.242	16.53
687.429	16.47
687.615	16.4
687.801	16.6
687.987	16.63
688.174	16.51
688.36	16.51
688.546	16.52
688.732	16.47
688.918	16.44
689.105	16.61
689.291	16.63
689.477	16.75
689.663	16.83
689.849	16.58
690.035	16.66
690.221	16.75
690.407	16.71
690.593	16.82
690.779	16.76
690.965	16.71
691.151	16.68
691.337	16.69
691.523	16.57
691.709	16.56
691.895	16.68
692.081	16.59
692.267	16.67
692.453	16.66
692.639	16.58
692.825	16.49
693.011	16.44
693.196	16.33
693.382	16.27
693.568	16.29
693.754	16.18
693.94	16.16
694.125	16.18
694.311	16.15
694.497	16.34
694.682	16.25
694.868	16.37
695.054	16.45
695.239	16.44
695.425	16.31
695.611	16.34
695.796	16.47
695.982	16.55
696.168	16.54
696.353	16.51
696.539	16.42
696.724	16.32
696.91	16.35
697.095	16.36
697.281	16.36
697.466	16.43
697.652	16.34
697.837	16.29
698.023	16.21
698.208	16.27
698.393	16.37
698.579	16.35
698.764	16.53
698.949	16.44
699.135	16.35
699.32	16.42
699.505	16.41
699.691	16.39
699.876	16.41
700.061	16.49
700.246	16.45
700.432	16.29
700.617	16.3
700.802	16.25
700.987	16.34
701.172	16.44
701.358	16.41
701.543	16.49
701.728	16.73
701.913	16.78
702.098	16.73
702.283	16.73
702.468	16.83
702.653	16.71
702.838	16.79
703.023	16.69
703.208	16.81
703.393	16.87
703.578	16.95
703.763	16.81
703.948	16.71
704.133	16.74
704.318	16.57
704.503	16.72
704.688	16.81
704.873	16.71
705.057	16.8
705.242	16.62
705.427	16.68
705.612	16.49
705.797	16.63
705.981	16.76
706.166	16.81
706.351	16.95
706.536	16.86
706.72	16.81
706.905	16.84
707.09	16.77
707.274	16.81
707.459	16.54
707.644	16.5
707.828	16.49
708.013	16.49
708.197	16.38
708.382	16.25
708.567	16.15
708.751	16.16
708.936	16.17
709.12	16.25
709.305	16.32
709.489	16.48
709.673	16.57
709.858	16.41
710.042	16.36
710.227	16.37
710.411	16.48
710.596	16.68
710.78	16.68
710.964	16.65
711.149	16.64
711.333	16.71
711.517	16.78
711.702	16.83
711.886	16.9
712.07	16.85
712.254	17.02
712.438	17.02
712.623	17.07
712.807	17.24
712.991	17.25
713.175	17.34
713.359	17.32
713.544	17.31
713.728	17.26
713.912	17.24
714.096	17.29
714.28	17.06
714.464	17.13
714.648	16.88
714.832	16.72
715.016	16.67
715.2	16.42
715.384	16.34
715.568	16.42
715.752	16.44
715.936	16.49
716.12	16.45
716.304	16.45
716.488	16.42
716.671	16.47
716.855	16.52
717.039	16.6
717.223	16.75
717.407	16.65
717.59	16.46
717.774	16.4
717.958	16.24
718.142	16.28
718.325	16.39
718.509	16.38
718.693	16.18
718.877	16.13
719.06	16.05
719.244	15.94
719.428	16.05
719.611	16.11
719.795	16.26
719.978	16.5
720.162	16.52
720.345	16.46
720.529	16.37
720.713	16.68
720.896	16.64
721.08	16.59
721.263	16.56
721.446	16.49
721.63	16.58
721.813	16.4
721.997	16.29
722.18	16.2
722.364	16.26
722.547	16.18
722.73	16.1
722.914	16.15
723.097	16.22
723.28	16.41
723.464	16.42
723.647	16.36
723.83	16.48
724.013	16.55
724.197	16.67
724.38	16.63
724.563	16.62
724.746	16.69
724.929	16.87
725.112	16.75
725.296	16.71
725.479	16.77
725.662	16.68
725.845	16.65
726.028	16.45
726.211	16.4
726.394	16.45
726.577	16.65
726.76	16.5
726.943	16.52
727.126	16.64
727.309	16.6
727.492	16.58
727.675	16.78
727.858	16.64
728.041	16.73
728.224	16.71
728.407	16.51
728.589	16.33
728.772	16.43
728.955	16.5
729.138	16.44
729.321	16.41
729.503	16.44
729.686	16.4
729.869	16.52
730.052	16.72
730.234	16.78
730.417	16.88
730.6	16.9
730.782	16.81
730.965	16.61
731.148	16.56
731.33	16.64
731.513	16.56
731.695	16.44
731.878	16.33
732.061	16.12
732.243	16.07
732.426	16.03
732.608	16.01
732.791	15.97
732.973	16.01
733.156	16.2
733.338	16.18
733.52	16.18
733.703	16.24
733.885	16.42
734.068	16.32
734.25	16.23
734.432	16.47
734.615	16.79
734.797	16.78
734.979	16.84
735.162	16.62
735.344	16.55
735.526	16.7
735.708	16.75
735.891	16.83
736.073	17.21
736.255	17.52
736.437	17.26
736.619	16.88
736.802	16.82
736.984	16.78
737.166	16.91
737.348	16.78
737.53	16.68
737.712	16.51
737.894	16.37
738.076	16.27
738.258	15.94
738.44	15.98
738.622	16.26
738.804	16.37
738.986	16.36
739.168	16.42
739.35	16.79
739.532	16.68
739.714	16.79
739.896	16.9
740.078	16.78
740.259	17.06
740.441	17.09
740.623	17.19
740.805	17.21
740.987	17.42
741.168	17.36
741.35	17.15
741.532	17.41
741.714	17.27
741.895	17.3
742.077	17.32
742.259	17.18
742.44	17.17
742.622	17.01
742.804	16.94
742.985	16.52
743.167	16.63
743.348	16.71
743.53	16.79
743.711	16.84
743.893	16.47
744.075	16.39
744.256	16.25
744.438	16.17
744.619	16.27
744.8	16.47
744.982	16.79
745.163	16.78
745.345	16.8
745.526	16.95
745.707	17.04
745.889	17.07
746.07	17.2
746.252	17.35
746.433	17.38
746.614	17.35
746.795	17.26
746.977	17.3
747.158	17.13
747.339	16.75
747.52	16.2
747.702	16.19
747.883	16.12
748.064	15.84
748.245	15.73
748.426	15.86
748.607	15.72
748.788	15.73
748.97	15.49
749.151	15.74
749.332	15.94
749.513	16.56
749.694	16.5
749.875	16.85
750.056	17.12
750.237	17.2
750.418	17.22
750.599	17.06
750.78	17
750.96	17.18
751.141	17.05
751.322	17.43
751.503	16.86
751.684	17.19
751.865	17.14
752.046	17.29
752.226	17.21
752.407	17.19
752.588	17.4
752.769	17.69
752.949	17.49
753.13	17.41
753.311	17.32
753.492	17.46
753.672	17.2
753.853	17.16
754.034	17.2
754.214	17.45
754.395	17.18
754.575	17.17
754.756	16.98
754.937	17.05
755.117	17.19
755.298	17.2
755.478	17.51
755.659	17.61
755.839	17.75
756.02	17.74
756.2	17.54
756.381	17.56
756.561	17.3
756.741	17.54
756.922	17.63
757.102	17.58
757.283	17.17
757.463	17.09
757.643	16.99
757.823	16.87
758.004	16.58
758.184	16.95
758.364	17.26
758.545	17.58
758.725	17.09
758.905	16.75
759.085	16.67
759.265	16.72
759.446	16.5
759.626	16.59
759.806	16.33
759.986	16.61
760.166	16.04
760.346	16.03
760.526	16.02
760.706	16.34
760.886	16.49
761.066	16.53
761.246	16.71
761.426	16.81
761.606	16.52
761.786	16.53
761.966	16.66
762.146	16.85
762.326	16.67
762.506	16.65
762.686	16.67
762.866	16.69
763.046	16.61
763.225	16.73
763.405	16.7
763.585	17.05
763.765	17.05
763.945	16.92
764.124	16.78
764.304	16.78
764.484	16.83
764.664	16.82
764.843	16.98
765.023	17.05
765.203	16.71
765.382	16.61
765.562	16.34
765.741	16.87
765.921	16.51
766.101	16.86
766.28	17.02
766.46	16.77
766.639	16.89
766.819	16.75
766.998	16.9
767.178	17.19
767.357	17.28
767.537	17.09
767.716	16.83
767.896	17.2
768.075	16.86
768.254	16.9
768.434	17.29
768.613	16.65
768.792	16.63
768.972	16.85
769.151	16.7
769.33	16.64
769.51	16.94
769.689	16.72
769.868	16.78
770.047	16.94
770.226	16.93
770.406	17.02
770.585	17.47
770.764	17.25
770.943	16.78
771.122	16.93
771.301	17.05
771.48	17.24
771.66	17.55
771.839	17.43
772.018	17.51
772.197	17.83
772.376	17.36
772.555	17.35
772.734	17.79
772.913	18.17
773.092	18.15
773.271	18.01
773.449	17.91
773.628	18.08
773.807	17.98
773.986	17.48
774.165	17.13
774.344	17.45
774.523	17.5
774.701	17.29
774.88	16.87
775.059	17.08
775.238	17.18
775.417	17.06
775.595	16.59
775.774	17.25
775.953	18.01
776.131	17.82
776.31	17.68
776.489	17.64
776.667	17.57
776.846	17.84
777.025	17.52
777.203	17.63
777.382	17.75
777.56	17.86
777.739	17.3
777.917	16.66
778.096	16.78
778.274	17.12
778.453	17.28
778.631	17.2
778.81	17.05
778.988	17.3
779.166	17.36
779.345	17.23
779.523	17.26
779.702	17.34
779.88	17.61
780.058	17.56
780.237	17.28
780.415	17.5
780.593	17.62
780.771	17.7
780.95	17.74
781.128	17.47
781.306	17.57
781.484	17.99
781.662	17.81
781.841	17.8
782.019	18.29
782.197	18.32
782.375	17.96
782.553	18.41
782.731	19.16
782.909	19.15
783.087	19.22
783.265	19.22
783.443	18.91
783.621	18.67
783.799	18.77
783.977	18.69
784.155	18.56
784.333	18.6
784.511	18.48
784.689	17.96
784.867	17.97
785.045	17.83
785.223	17.61
785.4	17.24
785.578	17.42
785.756	17.37
785.934	17.05
786.112	17.04
786.289	17.15
786.467	16.35
786.645	16.17
786.823	15.98
787	16.2
787.178	16.59
787.356	16.65
787.533	16.86
787.711	17
787.889	17.25
788.066	17.27
788.244	17.28
788.421	17.83
788.599	17.84
788.776	17.8
788.954	17.92
789.131	17.5
789.309	17.35
789.486	17.11
789.664	17.3
789.841	16.85
790.019	17.05
790.196	16.73
790.373	16.52
790.551	16.35
790.728	16.56
790.906	16.54
791.083	15.82
791.26	15.76
791.437	15.71
791.615	15.16
791.792	15.51
791.969	15.12
792.146	14.95
792.324	15.08
792.501	15.53
792.678	15.6
792.855	15.03
793.032	15.86
793.209	16.47
793.387	16.97
793.564	16.73
793.741	16.91
793.918	17.01
794.095	17.54
794.272	17.57
794.449	17.41
794.626	17.51
794.803	17.93
794.98	17.73
795.157	17.29
795.334	17.23
795.511	17.17
795.688	16.94
795.864	17.15
796.041	17.49
796.218	17.36
796.395	17.57
796.572	17.7
796.749	17.74
796.925	18.2
797.102	18.1
797.279	17.96
797.456	18.62
797.632	18.67
797.809	18.64
797.986	18.07
798.162	18.56
798.339	18.5
798.516	17.88
798.692	17.8
798.869	17.95
799.046	18.17
799.222	18.31
799.399	17.85
799.575	18.37
799.752	18.17
799.928	18.2
800.105	17.61
800.281	17.31
800.458	17.55
800.634	17.69
800.811	17.8
800.987	17.65
801.163	17.43
801.34	17.42
801.516	17.05
801.692	17.32
801.869	17.13
802.045	17.48
802.221	17.42
802.398	17.3
802.574	16.79
802.75	16.19
802.926	16.34
803.103	15.48
803.279	15.99
803.455	15.93
803.631	16.83
803.807	15.93
803.983	16.08
804.16	16.32
804.336	16.41
804.512	16.93
804.688	17.83
804.864	18.19
805.04	19.33
805.216	19.41
805.392	19.51
805.568	19
805.744	21.04
805.92	21
806.096	20.37
806.272	20.13
806.448	19.86
806.623	19.12
806.799	19.14
806.975	19.33
807.151	19.24
807.327	18.46
807.503	18.39
807.678	17.55
807.854	17.61
808.03	18.25
808.206	18.77
808.381	19.13
808.557	18.62
808.733	18.42
808.908	18.14
809.084	17.65
809.26	17.84
809.435	17.85
809.611	17.95
809.787	17.37
809.962	16.25
810.138	15.96
810.313	16.32
810.489	16.48
810.664	17.08
810.84	16.89
811.015	16.73
811.191	16.47
811.366	15.83
811.542	15.23
811.717	16.13
811.892	17.72
812.068	17.84
812.243	17.19
812.419	17.1
812.594	17.08
812.769	17.28
812.944	17.57
813.12	17.5
813.295	17.72
813.47	18.47
813.645	17.62
813.821	17.17
813.996	16.88
814.171	17.06
814.346	17.24
814.521	16.97
814.697	16.73
814.872	17.33
815.047	17.89
815.222	17.44
815.397	17.64
815.572	18.07
815.747	18.04
815.922	17.53
816.097	17.3
816.272	17.28
816.447	16.66
816.622	16.96
816.797	15.89
816.972	16.04
817.147	15.86
817.322	15.03
817.496	14.94
817.671	15.39
817.846	15.94
818.021	16.08
818.196	16.33
818.371	17.21
818.545	17.54
818.72	18.26
818.895	18.45
819.069	19.04
819.244	19.42
819.419	19.44
819.594	19.08
819.768	18.83
819.943	18.71
820.117	18.72
820.292	18.31
820.467	17.88
820.641	17.73
820.816	17.59
820.99	17.38
821.165	17.26
821.339	17.21
821.514	17.07
821.688	17.02
821.863	16.99
822.037	17.01
822.212	17.03
822.386	17.08
822.56	16.99
822.735	16.92
822.909	16.98
823.084	16.85
823.258	16.84
823.432	16.92
823.606	16.9
823.781	16.87
823.955	16.71
824.129	16.66
824.303	16.66
824.478	16.86
824.652	16.96
824.826	16.81
825	17.17
825.174	16.92
825.348	16.81
825.523	16.83
825.697	16.68
825.871	16.79
826.045	16.76
826.219	16.82
826.393	16.83
826.567	16.76
826.741	16.86
826.915	16.89
827.089	17.01
827.263	17.17
827.437	17.36
827.611	17.52
827.784	17.46
827.958	17.3
828.132	17.34
828.306	17.15
828.48	17.25
828.654	17.29
828.827	16.73
829.001	17
829.175	16.52
829.349	16.81
829.522	17.37
829.696	17.87
829.87	18.57
830.044	18.88
830.217	19.1
830.391	18.94
830.565	19.64
830.738	20.3
830.912	20
831.085	20.38
831.259	19.86
831.432	18.74
831.606	17.53
831.779	17.63
831.953	17.08
832.126	17.06
832.3	17.33
832.473	16.78
832.647	16.64
832.82	16.96
832.994	16.97
833.167	16.87
833.34	17.09
833.514	17.16
833.687	17.06
833.86	16.68
834.034	16.73
834.207	16.39
834.38	16.27
834.553	16.09
834.727	15.64
834.9	15.76
835.073	15.7
835.246	15.62
835.419	15.9
835.593	16.17
835.766	16.99
835.939	16.78
836.112	16.88
836.285	16.99
836.458	17.47
836.631	17.72
836.804	17.46
836.977	17.72
837.15	17.94
837.323	18.2
837.496	17.61
837.669	17.19
837.842	17.56
838.015	18.62
838.188	18.12
838.361	18.33
838.533	18.58
838.706	17.83
838.879	17.17
839.052	17.41
839.225	17.54
839.398	17.25
839.57	17.52
839.743	16.98
839.916	16.72
840.088	17.43
840.261	17.79
840.434	18.2
840.607	18.6
840.779	19.12
840.952	18.76
841.124	19.39
841.297	19.57
841.47	18.35
841.642	18.98
841.815	17.63
841.987	18.02
842.16	18.23
842.332	16.75
842.505	17.42
842.677	18.09
842.85	18.28
843.022	17.32
843.194	17.64
843.367	20.55
843.539	20.79
843.712	22.75
843.884	22.43
844.056	21.69
844.229	22.29
844.401	21.5
844.573	22.04
844.745	22.38
844.918	22.15
845.09	21.99
845.262	20.84
845.434	22.28
845.606	20.47
845.779	20.63
845.951	21.45
846.123	22.39
846.295	22.73
846.467	22.06
846.639	22.49
846.811	23.89
846.983	24.15
847.155	23.89
847.327	23.01
847.499	23.3
847.671	21.7
847.843	20.48
848.015	18.86
848.187	20.78
848.359	19.55
848.531	19.62
848.703	18.25
848.875	19.84
849.047	21.24
849.218	20.6
849.39	20.98
849.562	23.18
849.734	21.66
849.905	21.96
850.077	20.98
850.249	21.02
850.421	20.52
850.592	20.73
850.764	19.06
850.936	16.9
851.107	16.42
851.279	18.14
851.451	17.41
851.622	18.97
851.794	22.02
851.965	22.47
852.137	23.46
852.308	22.83
852.48	22.63
852.651	21.02
852.823	22.04
852.994	23.19
853.166	23.51
853.337	22.09
853.509	21.39
853.68	20.65
853.851	20.22
854.023	19.71
854.194	19.6
854.365	19.94
854.537	19.56
854.708	19.74
854.879	17.58
855.05	17.51
855.222	17.74
855.393	17.49
855.564	15.97
855.735	14.79
855.906	14.55
856.078	13.9
856.249	14.86
856.42	15.31
856.591	14.72
856.762	16.47
856.933	17.02
857.104	18.63
857.275	19.7
857.446	20.38
857.617	20.31
857.788	22.05
857.959	21.44
858.13	19.36
858.301	18.17
858.472	20.15
858.643	17.94
858.814	18.53
858.985	18.52
859.155	20.52
859.326	21.64
859.497	21.35
859.668	17.53
859.839	19.2
860.009	22.53
860.18	22.4
860.351	21.68
860.522	23.61
860.692	22.24
860.863	21.99
861.034	18.55
861.204	17.05
861.375	17.35
861.546	19.77
861.716	19.8
861.887	15.91
862.057	19.37
862.228	18.14
862.398	17.08
862.569	18.19
862.739	19.96
862.91	21.97
863.08	22.98
863.251	22.01
863.421	20.11
863.592	19.94
863.762	23.83
863.932	20.59
864.103	20.58
864.273	18.21
864.443	17.87
864.614	16.49
864.784	16.23
864.954	13.04
865.125	16.44
865.295	17.55
865.465	17.56
865.635	16.47
865.805	19.67
865.976	18.82
866.146	23.68
866.316	20.4
866.486	19.7
866.656	17.83
866.826	19.55
866.996	16.8
867.166	18.1
867.336	18.12
867.506	18.09
867.676	16.45
867.846	15.98
868.016	12.72
868.186	13.38
868.356	11.58
868.526	13.26
868.696	13.1
868.866	15.03
869.036	13.35
869.206	14.39
869.376	13.75
869.545	13.67
869.715	12.99
869.885	14.64
870.055	17.09
870.224	20.09
870.394	20.12
870.564	23.51
870.734	21.82
870.903	22.91
871.073	22.74
871.243	23.93
871.412	23.58
871.582	25.11
871.751	24.4
871.921	24.13
872.091	21.13
872.26	19.88
872.43	18.13
872.599	19.72
872.769	19.44
872.938	18.93
873.108	18.05
873.277	19.01
873.446	21.07
873.616	21.21
873.785	21.67
873.955	25.79
874.124	26.83
874.293	26.39
874.463	25.03
874.632	23.6
874.801	22.66
874.971	21.96
875.14	23.02
875.309	19.89
875.478	18.14
875.647	18.87
875.817	15.23
875.986	12.49
876.155	12.68
876.324	11.43
876.493	15.38
876.662	15.15
876.831	15.76
877	14.44
877.17	17.24
877.339	18.17
877.508	18.85
877.677	19.52
877.846	21.44
878.015	21.01
878.184	22.88
878.352	22.88
878.521	24.18
878.69	22.96
878.859	22.07
879.028	21.72
879.197	21.34
879.366	19.9
879.534	21
879.703	20.24
879.872	20.16
880.041	19.95
880.21	18.97
880.378	18.36
880.547	18.19
880.716	18.67
880.884	18.3
881.053	18.78
881.222	18.84
881.39	18.57
881.559	19.21
881.727	19.15
881.896	18.99
882.065	18.67
882.233	18.87
882.402	19.12
882.57	18.8
882.739	18.72
882.907	18.46
883.076	18.68
883.244	18.54
883.412	17.87
883.581	17.94
883.749	17.96
883.918	18.56
884.086	18.62
884.254	18.39
884.423	18.9
884.591	19.25
884.759	18.58
884.927	18.52
885.096	18.11
885.264	18.63
885.432	17.38
885.6	16.67
885.769	16.42
885.937	17.08
886.105	17.21
886.273	16.98
886.441	16.98
886.609	18.34
886.777	16.95
886.945	17.79
887.113	17.59
887.281	19.52
887.449	22.89
887.617	23.11
887.785	21.7
887.953	21.58
888.121	19.23
888.289	19.12
888.457	18.48
888.625	19.04
888.793	21.45
888.961	18.95
889.129	18.35
889.296	16.7
889.464	16.01
889.632	16.13
889.8	15.43
889.967	17.69
890.135	17.75
