Data from JASIL_3186_Reflection_01.txt Node
Date: Fri Nov 13 14:04:20 EST 2015
User: Geneva
Spectrometer: USB4E03002
Autoset integration time: false
Trigger mode: 4
Integration Time (sec): 1.000000E-1
Scans to average: 10
Electric dark correction enabled: false
Nonlinearity correction enabled: false
Boxcar width: 5
Stray light correction enabled: false
XAxis mode: Wavelengths
Stop averaging: false
Number of Pixels in Spectrum: 3648
>>>>>Begin Spectral Data<<<<<
177.575	-19.51
177.794	6.05
178.014	30.37
178.233	46.25
178.452	71.11
178.672	62.09
178.891	84.29
179.11	99.42
179.33	123.82
179.549	140.44
179.768	192.83
179.987	168.17
180.207	209.94
180.426	195.19
180.645	167.06
180.864	162.72
181.084	171.37
181.303	158.22
181.522	149.93
181.741	143.4
181.96	140.28
182.179	106.46
182.398	84.35
182.618	76.98
182.837	85.26
183.056	89.24
183.275	72.29
183.494	72.78
183.713	80.19
183.932	98.59
184.151	80.21
184.37	63.29
184.589	60.39
184.808	69.89
185.027	73.94
185.246	71.64
185.465	72.26
185.684	81.04
185.903	79.6
186.122	67.47
186.341	69.24
186.56	89.46
186.779	106.54
186.998	108.06
187.216	116.44
187.435	104.16
187.654	102.43
187.873	91
188.092	92.08
188.311	86.63
188.53	103.64
188.748	101.51
188.967	94.04
189.186	79.69
189.405	82.65
189.623	78.13
189.842	76.02
190.061	79.89
190.28	82.29
190.498	80.92
190.717	86.87
190.936	88.99
191.154	86.37
191.373	104.7
191.592	125.79
191.81	144.43
192.029	151.63
192.248	257.21
192.466	206.52
192.685	197.97
192.904	237.56
193.122	250.38
193.341	215.21
193.559	207.88
193.778	148.71
193.996	130.65
194.215	122.18
194.433	105.26
194.652	76
194.87	81.78
195.089	92.62
195.307	86.62
195.526	85.82
195.744	66.22
195.963	77.63
196.181	82.42
196.399	88.58
196.618	76.39
196.836	80.27
197.055	92.26
197.273	88.79
197.491	93.51
197.71	117.29
197.928	121.39
198.146	156.02
198.365	130.9
198.583	131.07
198.801	145.41
199.019	132.01
199.238	152.39
199.456	133.2
199.674	116.28
199.892	100.41
200.111	96.8
200.329	74.62
200.547	66.38
200.765	50.99
200.983	41.75
201.202	50
201.42	41.3
201.638	43.27
201.856	62.64
202.074	68.58
202.292	90.92
202.51	85.91
202.728	108.19
202.946	107.42
203.165	107.29
203.383	117.52
203.601	113.07
203.819	112.13
204.037	134.59
204.255	154.39
204.473	178.4
204.691	217.44
204.909	230.61
205.127	297.73
205.345	347.77
205.562	521.26
205.78	339.68
205.998	490.7
206.216	684.56
206.434	362.21
206.652	314.95
206.87	322.22
207.088	134.15
207.306	131.68
207.523	83.07
207.741	92.05
207.959	86.53
208.177	69.33
208.395	53.35
208.612	62.71
208.83	73.24
209.048	61.17
209.266	61.23
209.483	95.99
209.701	91.87
209.919	117.06
210.136	121.69
210.354	104.65
210.572	102.72
210.79	122.87
211.007	119.55
211.225	121.53
211.442	139.53
211.66	199.46
211.878	152.12
212.095	113.24
212.313	103.41
212.53	103.36
212.748	106.98
212.966	107.94
213.183	104.94
213.401	106.06
213.618	100.38
213.836	102.55
214.053	91.15
214.271	89.97
214.488	76.86
214.705	77.68
214.923	79.47
215.14	80.68
215.358	70.47
215.575	79.02
215.793	73.89
216.01	67.21
216.227	55.18
216.445	60.08
216.662	49.34
216.879	62.8
217.097	70.27
217.314	64.28
217.531	54.15
217.749	85.25
217.966	78.29
218.183	66.17
218.4	72.07
218.618	80.69
218.835	77.98
219.052	74.25
219.269	55.25
219.487	42.77
219.704	41.5
219.921	38.66
220.138	40.33
220.355	36.87
220.572	50.4
220.79	52.5
221.007	58.68
221.224	59.15
221.441	69.37
221.658	63.79
221.875	74.9
222.092	79.57
222.309	82.37
222.526	66.34
222.743	67.38
222.96	57.63
223.177	54.83
223.394	38.81
223.611	33.04
223.828	31.18
224.045	36.17
224.262	46.38
224.479	41.19
224.696	49.03
224.913	49.9
225.13	45.75
225.347	56.85
225.564	63.12
225.781	66.03
225.997	71.09
226.214	69.7
226.431	70.32
226.648	65.78
226.865	68.91
227.082	69.84
227.298	65.51
227.515	58.46
227.732	45.7
227.949	42.14
228.165	40.44
228.382	37.44
228.599	44.02
228.816	39.07
229.032	36.42
229.249	35.5
229.466	32.63
229.682	33.01
229.899	42.59
230.116	32.91
230.332	32.73
230.549	37.31
230.765	38.82
230.982	47.9
231.199	61.77
231.415	70.86
231.632	64.26
231.848	72.93
232.065	76.89
232.281	77.62
232.498	88.57
232.714	82.48
232.931	85.73
233.147	93.84
233.364	76.84
233.58	75.77
233.797	79.03
234.013	70.51
234.23	57.72
234.446	40.51
234.662	39.09
234.879	49.08
235.095	43.78
235.312	49.55
235.528	48.7
235.744	52.54
235.961	45.55
236.177	43.15
236.393	53.19
236.61	54.86
236.826	59.13
237.042	59.39
237.258	55.64
237.475	73.63
237.691	66.79
237.907	68.25
238.123	64.76
238.339	75.07
238.556	63.69
238.772	63.72
238.988	63.28
239.204	66.76
239.42	60.95
239.636	57.99
239.853	45.14
240.069	45.15
240.285	37.68
240.501	44.32
240.717	36.38
240.933	38.4
241.149	35.8
241.365	30.44
241.581	26.46
241.797	26.53
242.013	29.15
242.229	31.43
242.445	35.32
242.661	39.1
242.877	36.8
243.093	37.8
243.309	43.61
243.525	41.53
243.741	48.13
243.957	57.82
244.173	58.46
244.388	45.06
244.604	36.4
244.82	31.27
245.036	26.74
245.252	29
245.468	23.89
245.683	17.65
245.899	16.86
246.115	16
246.331	11.82
246.547	9.01
246.762	15.57
246.978	20.37
247.194	21.77
247.409	25.67
247.625	23.96
247.841	21.51
248.057	27.07
248.272	30.2
248.488	29.91
248.703	33.28
248.919	39.78
249.135	36.56
249.35	35.76
249.566	32.36
249.782	29.01
249.997	23.52
250.213	31.3
250.428	33.23
250.644	34.12
250.859	36.17
251.075	30.64
251.29	26.46
251.506	29.15
251.721	30.92
251.937	29.17
252.152	30.59
252.368	37.65
252.583	36.65
252.798	40.4
253.014	41.38
253.229	37.19
253.445	43.51
253.66	53.86
253.875	52.09
254.091	51.78
254.306	54.66
254.521	57.55
254.737	53.94
254.952	59.13
255.167	49.59
255.383	47.14
255.598	47.26
255.813	45.95
256.028	38.37
256.244	41.66
256.459	40.41
256.674	39.77
256.889	35.6
257.104	29.85
257.32	27.95
257.535	23.1
257.75	21.47
257.965	22.19
258.18	22.98
258.395	25.03
258.61	20.23
258.826	20.92
259.041	20.8
259.256	17.24
259.471	18.1
259.686	18.85
259.901	21.07
260.116	20.91
260.331	19.95
260.546	18.27
260.761	15.86
260.976	19.88
261.191	18.38
261.406	20.11
261.621	25.96
261.836	27.11
262.05	21.41
262.265	21.24
262.48	24.02
262.695	27.44
262.91	32.66
263.125	34.15
263.34	33.9
263.555	31.84
263.769	30.07
263.984	26.87
264.199	26.99
264.414	30.29
264.629	32.9
264.843	27.46
265.058	24.65
265.273	19.85
265.488	16.22
265.702	15.97
265.917	17.96
266.132	19.65
266.346	17.34
266.561	17.69
266.776	17.68
266.99	18.6
267.205	20.03
267.42	20.91
267.634	18.47
267.849	19.13
268.063	18.39
268.278	19.17
268.492	14.18
268.707	16.38
268.922	19.65
269.136	22.17
269.351	19.38
269.565	19.67
269.78	16.53
269.994	16.67
270.209	18.14
270.423	19.07
270.637	18.14
270.852	18.32
271.066	20.13
271.281	17.53
271.495	15.16
271.709	16.02
271.924	15.08
272.138	17.4
272.353	18.67
272.567	18.39
272.781	18.8
272.996	20.94
273.21	19.97
273.424	18.5
273.638	22.6
273.853	21.53
274.067	20.51
274.281	20.92
274.495	21.98
274.71	22.92
274.924	23.66
275.138	22.53
275.352	23.94
275.566	27.07
275.781	28.05
275.995	23.27
276.209	28.66
276.423	25.46
276.637	29.34
276.851	29.23
277.065	32.01
277.279	29.33
277.493	26.54
277.707	24
277.921	22
278.135	23.24
278.349	23.14
278.563	20.3
278.777	20.96
278.991	16.58
279.205	18.72
279.419	15.7
279.633	14.8
279.847	18.4
280.061	19.1
280.275	20.05
280.489	18.52
280.703	17.25
280.917	14.3
281.131	11.9
281.344	11.9
281.558	9.96
281.772	9.77
281.986	13.25
282.2	14.42
282.414	11.42
282.627	11.4
282.841	12.08
283.055	12.93
283.269	14.07
283.482	16.26
283.696	14.91
283.91	14.29
284.123	13.17
284.337	12.65
284.551	9.7
284.764	11.51
284.978	9.78
285.192	9.25
285.405	9.38
285.619	10.03
285.833	12.52
286.046	13.37
286.26	13.24
286.473	13.34
286.687	13.38
286.9	16.42
287.114	14.96
287.327	17.22
287.541	19.2
287.754	19.65
287.968	24.33
288.181	21.83
288.395	19.55
288.608	19.99
288.822	18.91
289.035	18.05
289.248	13.92
289.462	14.26
289.675	14.01
289.889	13.52
290.102	16.1
290.315	9.86
290.529	9.72
290.742	12.94
290.955	15.21
291.169	18.4
291.382	18.45
291.595	21.28
291.808	22.16
292.022	22.42
292.235	23.98
292.448	19.93
292.661	20.55
292.875	22.09
293.088	21.32
293.301	16.86
293.514	15.64
293.727	17.2
293.94	14.96
294.153	15.36
294.367	15.08
294.58	14.81
294.793	14.74
295.006	16.31
295.219	13.66
295.432	12.14
295.645	14.2
295.858	12.49
296.071	12.53
296.284	12.57
296.497	12.79
296.71	10.57
296.923	9.18
297.136	9.54
297.349	9.67
297.562	10.97
297.775	10.89
297.988	9.94
298.201	8.51
298.414	6.98
298.626	10.34
298.839	9.11
299.052	10.55
299.265	11.38
299.478	12.48
299.691	9.38
299.903	10.25
300.116	12.35
300.329	12.71
300.542	16.29
300.755	17.21
300.967	15.41
301.18	17.87
301.393	20.13
301.605	18.82
301.818	20.23
302.031	22.79
302.243	22.41
302.456	22.58
302.669	26.14
302.881	28.93
303.094	29.23
303.307	29.5
303.519	31.15
303.732	29.98
303.944	32.2
304.157	32.61
304.37	32.14
304.582	34.36
304.795	32.5
305.007	27.38
305.22	24.78
305.432	23.68
305.645	22.61
305.857	18.33
306.069	17.28
306.282	16.37
306.494	15.29
306.707	16.21
306.919	13.32
307.132	14.18
307.344	14.34
307.556	13.61
307.769	13.51
307.981	13.92
308.193	12.65
308.406	13.28
308.618	12.41
308.83	11.14
309.043	12.3
309.255	12.58
309.467	13.28
309.679	13.85
309.892	14.28
310.104	14.78
310.316	14.51
310.528	16.07
310.74	15.89
310.953	17.54
311.165	19.73
311.377	18.33
311.589	16.86
311.801	15.72
312.013	21.1
312.225	18.69
312.437	19.54
312.649	20.81
312.862	21.18
313.074	22.61
313.286	18.95
313.498	17.94
313.71	20.37
313.922	22.54
314.134	24.25
314.346	21.21
314.558	26.91
314.77	27.13
314.982	26.26
315.193	27.47
315.405	25.83
315.617	28.19
315.829	27.24
316.041	24.52
316.253	25.57
316.465	25.52
316.677	23.84
316.888	22.44
317.1	20.5
317.312	18.99
317.524	17.18
317.736	17.4
317.947	18.81
318.159	20.97
318.371	21.32
318.583	21.84
318.794	20.93
319.006	21.37
319.218	20.09
319.43	21.81
319.641	22.83
319.853	25.03
320.064	24.84
320.276	22.85
320.488	23.71
320.699	20.75
320.911	19.88
321.123	22.88
321.334	22.54
321.546	23.75
321.757	23.22
321.969	23.37
322.18	23.26
322.392	25.34
322.603	26.49
322.815	23.92
323.026	27.91
323.238	26.33
323.449	23.05
323.661	19.85
323.872	20.28
324.083	18.46
324.295	17.76
324.506	16.1
324.718	15.85
324.929	12.6
325.14	13.94
325.352	12.56
325.563	13.57
325.774	17.63
325.986	21.77
326.197	21.52
326.408	23.66
326.62	25.41
326.831	27.61
327.042	28.67
327.253	30.42
327.464	30.53
327.676	29.47
327.887	30.23
328.098	26.8
328.309	24.46
328.52	25.04
328.732	24.94
328.943	26.4
329.154	24.62
329.365	23.99
329.576	23.77
329.787	22.4
329.998	26.17
330.209	27.38
330.42	28.1
330.631	29.64
330.842	27.57
331.053	27.29
331.264	22.92
331.475	23.62
331.686	21.18
331.897	22.86
332.108	23.2
332.319	21.14
332.53	19.6
332.741	19.8
332.952	22.44
333.163	21.36
333.374	18.88
333.585	20.34
333.795	19.83
334.006	20.82
334.217	20.4
334.428	19.68
334.639	19.97
334.849	19.72
335.06	20.29
335.271	16.73
335.482	18.27
335.692	21.09
335.903	21.11
336.114	21.62
336.325	24.99
336.535	25.4
336.746	27.63
336.957	28.92
337.167	29.39
337.378	27.89
337.589	30.38
337.799	30.2
338.01	30.6
338.22	32.07
338.431	32.09
338.642	29.68
338.852	28.94
339.063	28.61
339.273	29.95
339.484	29.44
339.694	31.04
339.905	26.24
340.115	27.49
340.326	27.53
340.536	25.99
340.746	22.98
340.957	23.63
341.167	24.09
341.378	22.08
341.588	19.65
341.799	19.35
342.009	19.75
342.219	22.08
342.43	22.42
342.64	21.59
342.85	24.7
343.061	25.32
343.271	25.39
343.481	24.93
343.691	25.1
343.902	23
344.112	22.49
344.322	21.76
344.532	21.8
344.743	21.41
344.953	20.45
345.163	17.88
345.373	18.63
345.583	19.38
345.793	17.58
346.004	18.31
346.214	20.07
346.424	20.86
346.634	21.49
346.844	22.19
347.054	20.98
347.264	22.99
347.474	21.84
347.684	23.25
347.894	21.55
348.104	23.32
348.314	21.58
348.524	19.59
348.734	20.23
348.944	19.21
349.154	18.78
349.364	20.75
349.574	17.69
349.784	20.5
349.994	21.59
350.204	22.63
350.413	22.9
350.623	22.52
350.833	23.53
351.043	22.29
351.253	22.12
351.463	23.71
351.672	22.39
351.882	25.91
352.092	24.32
352.302	23.82
352.511	24.12
352.721	23.67
352.931	24.21
353.141	23.23
353.35	22.6
353.56	21.25
353.77	19.21
353.979	19.35
354.189	17.03
354.399	17.9
354.608	18.92
354.818	18.26
355.027	19.71
355.237	20.44
355.447	19.99
355.656	20.13
355.866	20.54
356.075	20.72
356.285	21.03
356.494	22.83
356.704	23.43
356.913	21.65
357.123	21.67
357.332	19.4
357.542	19.76
357.751	21.01
357.96	21.54
358.17	21.95
358.379	22.43
358.589	21.91
358.798	19.24
359.007	18.16
359.217	18.59
359.426	18.33
359.635	18.64
359.845	17.91
360.054	17.11
360.263	16.56
360.472	17.44
360.682	17.64
360.891	16.9
361.1	18.3
361.309	18.73
361.519	18.22
361.728	18.7
361.937	19.73
362.146	20.32
362.355	21.52
362.564	22.88
362.774	22.06
362.983	20.33
363.192	21.26
363.401	20.87
363.61	19.72
363.819	19.41
364.028	17.88
364.237	17.72
364.446	17.98
364.655	17.27
364.864	17.9
365.073	19.05
365.282	20.34
365.491	20.25
365.7	20.38
365.909	21.2
366.118	20.84
366.327	21.32
366.536	21.75
366.745	21.5
366.954	22.65
367.162	21.53
367.371	20.54
367.58	21.88
367.789	22.82
367.998	23.1
368.207	23.03
368.415	22.39
368.624	22.93
368.833	21.34
369.042	20.78
369.25	19.67
369.459	19.84
369.668	19.72
369.877	19.53
370.085	18.39
370.294	16.54
370.503	15.91
370.711	16.77
370.92	15.78
371.129	18.4
371.337	18.08
371.546	17.6
371.754	17.05
371.963	16.14
372.171	15.23
372.38	14.96
372.589	15.34
372.797	15.05
373.006	15.58
373.214	16.14
373.423	14.31
373.631	15.83
373.84	15.49
374.048	16.3
374.256	17.29
374.465	17.61
374.673	18.06
374.882	19.27
375.09	18.8
375.298	19.5
375.507	19.94
375.715	19.63
375.923	18.05
376.132	19.46
376.34	19.1
376.548	19.76
376.757	19.05
376.965	18.68
377.173	18.4
377.381	19.18
377.59	18.96
377.798	18.81
378.006	18.89
378.214	20.42
378.423	20.2
378.631	18.81
378.839	19.15
379.047	20.09
379.255	19.25
379.463	18.3
379.671	19.15
379.879	18.13
380.088	17.9
380.296	18.21
380.504	20.04
380.712	18.93
380.92	19.71
381.128	18.75
381.336	17.95
381.544	19.24
381.752	20.01
381.96	18.96
382.168	20.8
382.376	20.54
382.584	19.98
382.791	17.47
382.999	17.78
383.207	17.19
383.415	18.49
383.623	19.08
383.831	19.35
384.039	19.43
384.247	20.15
384.454	19.84
384.662	20.42
384.87	20.56
385.078	20.71
385.285	20.92
385.493	21.72
385.701	20.25
385.909	19.17
386.116	18.99
386.324	18.28
386.532	17.72
386.739	16.63
386.947	17.24
387.155	17.24
387.362	17.18
387.57	17.28
387.778	16.92
387.985	16.42
388.193	18.47
388.4	17.06
388.608	17.48
388.816	17.74
389.023	17.81
389.231	17.25
389.438	17.2
389.646	17.93
389.853	18.18
390.061	17.48
390.268	17.35
390.475	16.1
390.683	16.78
390.89	16.67
391.098	16.61
391.305	17.21
391.512	17.73
391.72	17.81
391.927	17.68
392.135	17.21
392.342	17.14
392.549	18.42
392.756	17.73
392.964	17.88
393.171	18.06
393.378	17.91
393.586	17.75
393.793	16.63
394	16.75
394.207	16.66
394.414	16.76
394.622	18.1
394.829	17.39
395.036	17.95
395.243	18.15
395.45	18.51
395.657	18.39
395.864	18.63
396.072	19.59
396.279	19.84
396.486	18.96
396.693	19.75
396.9	18.52
397.107	17.94
397.314	18.24
397.521	17.86
397.728	16.51
397.935	16.81
398.142	16.29
398.349	16.06
398.556	15.18
398.763	15.02
398.97	14.21
399.177	15.92
399.383	16.27
399.59	16.62
399.797	16.81
400.004	17.48
400.211	17.81
400.418	18.98
400.625	19.1
400.831	19.41
401.038	19.41
401.245	18.58
401.452	17.57
401.658	17.86
401.865	17.42
402.072	18.04
402.279	17.84
402.485	16.34
402.692	15.95
402.899	16.54
403.105	17.18
403.312	18.52
403.519	18.63
403.725	18.26
403.932	18.28
404.138	17.55
404.345	17.59
404.552	18.59
404.758	19.62
404.965	19.17
405.171	18.32
405.378	18.24
405.584	17.79
405.791	18.26
405.997	19.29
406.204	19.68
406.41	19.93
406.617	19.59
406.823	17.82
407.029	18.72
407.236	17.73
407.442	17.61
407.649	17.6
407.855	17.31
408.061	16.43
408.268	16.24
408.474	16.03
408.68	16.45
408.887	15.65
409.093	16.75
409.299	15.78
409.505	16.48
409.712	16.52
409.918	16.35
410.124	15.82
410.33	17.15
410.537	16.58
410.743	16.71
410.949	17.33
411.155	17.41
411.361	18.53
411.567	18.3
411.773	17.53
411.98	17.49
412.186	16.57
412.392	16.89
412.598	16.56
412.804	16.93
413.01	16.28
413.216	15.94
413.422	16.35
413.628	14.2
413.834	13.37
414.04	14.1
414.246	13.96
414.452	14.69
414.658	14.89
414.864	13.92
415.07	14.55
415.275	14.42
415.481	14.22
415.687	14.78
415.893	16.28
416.099	17.56
416.305	17.46
416.511	17.69
416.716	17.03
416.922	16.64
417.128	16.35
417.334	15.62
417.539	15.77
417.745	16.1
417.951	14.73
418.157	14.46
418.362	13.94
418.568	13.47
418.774	12.42
418.979	12.78
419.185	13
419.391	13.53
419.596	13.84
419.802	13.56
420.008	12.75
420.213	13.68
420.419	13.72
420.624	13.54
420.83	14.07
421.035	14.59
421.241	14.49
421.446	14.09
421.652	14.4
421.857	13.93
422.063	14.15
422.268	14.26
422.474	13.87
422.679	13.83
422.885	13.87
423.09	13.63
423.295	13.88
423.501	14.41
423.706	14.16
423.911	13.54
424.117	13.34
424.322	13.53
424.527	14.35
424.733	14.73
424.938	14.47
425.143	14.73
425.349	14.95
425.554	14.28
425.759	14.03
425.964	14.36
426.169	14.8
426.375	15.56
426.58	15.3
426.785	14.54
426.99	14.35
427.195	14.38
427.4	14.32
427.605	13.86
427.811	14.91
428.016	14.09
428.221	14.73
428.426	13.95
428.631	13.75
428.836	13.83
429.041	13.91
429.246	13.57
429.451	13.45
429.656	13.53
429.861	14.06
430.066	13.74
430.271	14.74
430.476	14.79
430.681	16.07
430.886	15.4
431.09	15.29
431.295	15.46
431.5	15.5
431.705	15.12
431.91	15.08
432.115	14.86
432.32	14.61
432.524	14.04
432.729	13.81
432.934	13.06
433.139	12.95
433.343	12.66
433.548	12.72
433.753	13.16
433.958	13.62
434.162	13.06
434.367	12.65
434.572	13.02
434.776	12.64
434.981	12.03
435.186	12.21
435.39	12.29
435.595	12.82
435.799	12.86
436.004	11.88
436.209	12.22
436.413	12.64
436.618	12.76
436.822	12.3
437.027	11.94
437.231	12.3
437.436	11.78
437.64	11.67
437.845	11.47
438.049	11.45
438.253	12.2
438.458	12.05
438.662	11.75
438.867	12
439.071	12.56
439.275	12.63
439.48	12.5
439.684	12.81
439.888	13.11
440.093	12.92
440.297	12.53
440.501	12.26
440.706	12.23
440.91	12.39
441.114	12.14
441.318	11.62
441.523	12.07
441.727	12.5
441.931	12.92
442.135	12.62
442.339	12.93
442.543	13.12
442.748	13.35
442.952	13.63
443.156	14.3
443.36	14.38
443.564	14.47
443.768	14.35
443.972	14.36
444.176	13.39
444.38	13.89
444.584	14.07
444.788	13.49
444.992	13.67
445.196	13.58
445.4	13.02
445.604	12.99
445.808	12.88
446.012	12.98
446.216	12.78
446.42	13.54
446.624	13.55
446.828	13.54
447.032	13.79
447.235	13.69
447.439	13.44
447.643	13.29
447.847	13.19
448.051	13.69
448.254	13.79
448.458	14.21
448.662	13.72
448.866	13.32
449.069	13.12
449.273	13.63
449.477	13.25
449.681	13.49
449.884	13.95
450.088	14.55
450.292	14.1
450.495	14.09
450.699	13.48
450.902	13.76
451.106	14.16
451.31	14.74
451.513	14.08
451.717	13.72
451.92	13.06
452.124	12.52
452.327	12.47
452.531	11.86
452.734	12.15
452.938	11.73
453.141	11.8
453.345	11.56
453.548	11.26
453.752	11.95
453.955	12.58
454.158	12.81
454.362	13.17
454.565	12.67
454.769	13.68
454.972	13.45
455.175	13.79
455.379	13.83
455.582	14.18
455.785	13.59
455.988	13.55
456.192	13.62
456.395	13.79
456.598	14.39
456.801	14.36
457.005	14.31
457.208	13.89
457.411	14.02
457.614	13.42
457.817	13.41
458.021	13.47
458.224	12.97
458.427	12.84
458.63	13.18
458.833	12.29
459.036	12.38
459.239	12.08
459.442	12.1
459.645	12.22
459.848	12.24
460.051	12.41
460.254	12.2
460.457	12.15
460.66	12.09
460.863	11.71
461.066	12.29
461.269	11.73
461.472	11.68
461.675	11.48
461.878	10.8
462.081	11.57
462.284	11.17
462.486	10.84
462.689	10.76
462.892	10.86
463.095	10.51
463.298	10.9
463.5	11.96
463.703	12.5
463.906	13.37
464.109	14.28
464.311	13.91
464.514	14.47
464.717	15.17
464.92	15.51
465.122	15.11
465.325	15.01
465.528	14.62
465.73	14.36
465.933	14.16
466.135	13.5
466.338	12.79
466.541	12.65
466.743	11.78
466.946	11.57
467.148	10.94
467.351	10.89
467.553	11.13
467.756	11.42
467.958	11.38
468.161	10.99
468.363	10.68
468.566	10.99
468.768	11.4
468.971	11.95
469.173	12.22
469.375	12.85
469.578	13.06
469.78	13.03
469.983	12.98
470.185	13.34
470.387	13.56
470.59	14.19
470.792	14.21
470.994	13.94
471.196	13.59
471.399	13.56
471.601	13.69
471.803	13.36
472.005	13.67
472.208	12.93
472.41	12.96
472.612	12.92
472.814	12.35
473.016	12.69
473.218	12.4
473.421	12.06
473.623	12.14
473.825	12.39
474.027	12.79
474.229	12.52
474.431	13.08
474.633	12.19
474.835	12.88
475.037	13.2
475.239	13.04
475.441	13.61
475.643	14.32
475.845	14.47
476.047	13.98
476.249	14.22
476.451	14.44
476.653	14.57
476.855	15.35
477.057	15.47
477.258	15.83
477.46	15.67
477.662	15.74
477.864	15.42
478.066	15.36
478.268	15.61
478.469	15.22
478.671	14.76
478.873	14.53
479.075	13.65
479.276	13.57
479.478	13.41
479.68	13.08
479.882	12.82
480.083	12.85
480.285	12.56
480.487	12.57
480.688	12.43
480.89	12.86
481.091	12.82
481.293	13.09
481.495	12.5
481.696	12.25
481.898	12.13
482.099	11.85
482.301	11.89
482.502	12.07
482.704	11.96
482.905	11.9
483.107	11.58
483.308	11.43
483.51	11.26
483.711	11.26
483.913	11.22
484.114	11.26
484.315	11.25
484.517	10.98
484.718	10.8
484.92	10.66
485.121	10.8
485.322	11.01
485.524	11.29
485.725	11.41
485.926	11.49
486.127	11.57
486.329	11.7
486.53	11.73
486.731	12.01
486.932	11.89
487.134	11.92
487.335	11.92
487.536	11.95
487.737	11.78
487.938	11.74
488.139	11.68
488.341	11.77
488.542	11.8
488.743	12.02
488.944	11.86
489.145	11.83
489.346	12
489.547	11.86
489.748	11.89
489.949	12.12
490.15	12.58
490.351	12.46
490.552	12.39
490.753	12.5
490.954	12.52
491.155	12.74
491.356	12.79
491.557	12.82
491.758	12.86
491.959	12.81
492.159	12.56
492.36	12.36
492.561	12.68
492.762	13.21
492.963	13.31
493.164	13.23
493.364	13.15
493.565	13.1
493.766	13.18
493.967	13.75
494.167	13.48
494.368	13.74
494.569	13.49
494.769	13.6
494.97	13.13
495.171	13.07
495.371	13.43
495.572	13.66
495.773	13.87
495.973	14.18
496.174	13.6
496.375	14.04
496.575	13.97
496.776	14.31
496.976	14.26
497.177	14.1
497.377	13.91
497.578	13.77
497.778	13.59
497.979	14.07
498.179	13.53
498.38	13.76
498.58	13.95
498.78	14.32
498.981	13.98
499.181	14.38
499.382	14.42
499.582	14.8
499.782	14.94
499.983	14.83
500.183	14.24
500.383	14.68
500.584	14.73
500.784	14.65
500.984	14.31
501.184	14.36
501.385	14.28
501.585	14.79
501.785	14.09
501.985	13.91
502.185	13.79
502.386	14.31
502.586	13.68
502.786	13.68
502.986	13.27
503.186	13.21
503.386	14.05
503.586	13.82
503.786	13.32
503.987	13.96
504.187	13.92
504.387	14.46
504.587	14.56
504.787	14.84
504.987	15.12
505.187	15.73
505.387	15.83
505.587	15.49
505.786	15.47
505.986	15.69
506.186	15.26
506.386	15.53
506.586	15.35
506.786	15.09
506.986	15.49
507.186	15.32
507.386	15.57
507.585	15.41
507.785	15.48
507.985	15.23
508.185	15.02
508.384	15.35
508.584	15.38
508.784	15.55
508.984	15.37
509.183	15.02
509.383	15.54
509.583	15.09
509.782	15.51
509.982	15.47
510.182	15.66
510.381	15.87
510.581	15.66
510.781	15.78
510.98	15.39
511.18	15.65
511.379	15.34
511.579	14.44
511.778	14.54
511.978	14.1
512.177	13.69
512.377	13.87
512.576	14.03
512.776	14.27
512.975	14.04
513.175	14.38
513.374	14.34
513.573	15.24
513.773	15.66
513.972	15.58
514.172	16.12
514.371	16.75
514.57	17.27
514.77	17.38
514.969	16.99
515.168	17.39
515.367	17.82
515.567	17.74
515.766	17.12
515.965	17.46
516.164	17.73
516.364	17.64
516.563	17.41
516.762	16.77
516.961	16.66
517.16	16.4
517.359	16.18
517.559	16.14
517.758	16.43
517.957	16.37
518.156	16.3
518.355	15.81
518.554	16.02
518.753	16.05
518.952	16.29
519.151	16.17
519.35	17.02
519.549	17.21
519.748	17.13
519.947	16.78
520.146	17.5
520.345	17.38
520.544	17.94
520.743	18.08
520.942	18.03
521.141	18.21
521.339	18.34
521.538	18.05
521.737	17.81
521.936	17.5
522.135	18.13
522.333	17.79
522.532	17.88
522.731	17.59
522.93	16.94
523.129	17.1
523.327	16.87
523.526	17.2
523.725	17.5
523.923	17.26
524.122	17.29
524.321	17.1
524.519	17.34
524.718	17.12
524.917	17.44
525.115	17.73
525.314	17.82
525.512	18.06
525.711	17.88
525.909	17.55
526.108	17.63
526.306	17.58
526.505	17.66
526.703	17.44
526.902	17.39
527.1	17.33
527.299	17.28
527.497	17.23
527.696	16.77
527.894	16.68
528.092	16.79
528.291	16.93
528.489	16.95
528.688	16.83
528.886	16.77
529.084	16.96
529.283	16.85
529.481	16.9
529.679	16.95
529.877	17.47
530.076	17.63
530.274	17.52
530.472	17.38
530.67	17.65
530.869	17.63
531.067	18.06
531.265	17.91
531.463	18.29
531.661	18.04
531.859	17.82
532.057	17.66
532.255	17.8
532.454	18.02
532.652	17.91
532.85	17.97
533.048	18.18
533.246	17.98
533.444	18.02
533.642	17.98
533.84	18.45
534.038	18.61
534.236	18.88
534.434	18.96
534.632	19.05
534.83	19.48
535.027	19.53
535.225	19.59
535.423	19.72
535.621	20.18
535.819	19.71
536.017	19.47
536.215	19.95
536.412	20.07
536.61	20.15
536.808	20.45
537.006	20.59
537.203	20.91
537.401	21.15
537.599	21.52
537.797	21.61
537.994	22.35
538.192	22.77
538.39	22.01
538.587	21.82
538.785	21.97
538.983	21.81
539.18	22.13
539.378	21.8
539.575	21.91
539.773	21.81
539.97	21.66
540.168	21.54
540.366	21.65
540.563	21.89
540.761	21.99
540.958	22.01
541.155	21.89
541.353	21.64
541.55	21.51
541.748	21.52
541.945	21.57
542.143	21.69
542.34	21.98
542.537	21.99
542.735	21.92
542.932	21.96
543.129	22.16
543.327	22.4
543.524	22.64
543.721	23.09
543.919	23.18
544.116	23.29
544.313	23.33
544.51	23.29
544.708	23.21
544.905	23.78
545.102	23.89
545.299	23.52
545.496	23.57
545.693	23.46
545.891	23.59
546.088	23.35
546.285	23.67
546.482	24.02
546.679	24.31
546.876	24.52
547.073	24.95
547.27	24.95
547.467	25.2
547.664	25.31
547.861	25.68
548.058	25.57
548.255	25.84
548.452	25.91
548.649	25.95
548.846	25.98
549.043	26.28
549.24	25.93
549.437	25.99
549.633	26.44
549.83	26.77
550.027	26.91
550.224	27.51
550.421	27.58
550.618	27.6
550.814	27.56
551.011	26.92
551.208	27.18
551.405	27.32
551.601	27.74
551.798	28.09
551.995	27.94
552.191	27.95
552.388	27.87
552.585	28.39
552.781	28.43
552.978	28.59
553.175	29.53
553.371	29.49
553.568	29.45
553.764	29.84
553.961	29.54
554.157	29.61
554.354	29.4
554.55	30.16
554.747	30.33
554.943	30.73
555.14	31.08
555.336	31.39
555.533	31.43
555.729	31.82
555.926	31.51
556.122	31.64
556.318	32.17
556.515	32.72
556.711	32.52
556.907	32.45
557.104	33.14
557.3	33.27
557.496	33.08
557.693	33.52
557.889	33.51
558.085	33.31
558.281	34.19
558.478	34.48
558.674	34.69
558.87	34.31
559.066	34.5
559.262	33.84
559.459	34.4
559.655	34.18
559.851	34.03
560.047	34.28
560.243	35.27
560.439	35.01
560.635	34.82
560.831	35.07
561.027	35.37
561.223	35.52
561.419	36.25
561.615	35.96
561.811	36.91
562.007	37
562.203	36.76
562.399	36.81
562.595	37.3
562.791	37.7
562.987	37.45
563.183	37.27
563.379	37.64
563.575	37.29
563.771	37.51
563.966	36.78
564.162	37.21
564.358	37.51
564.554	37.31
564.75	36.66
564.945	36.72
565.141	36.87
565.337	37.3
565.533	37.41
565.728	37.55
565.924	37.27
566.12	37.97
566.315	37.9
566.511	38.09
566.707	38.21
566.902	38.39
567.098	39.03
567.293	39.64
567.489	40.6
567.684	40.85
567.88	40.72
568.076	41.39
568.271	41.61
568.467	41.84
568.662	42.46
568.858	42.88
569.053	43.39
569.248	42.9
569.444	42.82
569.639	42.22
569.835	42.46
570.03	43.42
570.225	43.14
570.421	42.71
570.616	42.93
570.812	42.67
571.007	42.8
571.202	42.39
571.397	42.76
571.593	42.82
571.788	43.11
571.983	42.34
572.178	42.04
572.374	42.54
572.569	42.67
572.764	42.88
572.959	42.93
573.154	42.85
573.35	43.6
573.545	43.74
573.74	43.91
573.935	43.91
574.13	44.41
574.325	44.23
574.52	44.16
574.715	44.42
574.91	43.89
575.105	44.1
575.3	44.11
575.495	44.21
575.69	44.49
575.885	44.75
576.08	44.44
576.275	45.19
576.47	45.66
576.665	46.16
576.86	46.53
577.055	46.88
577.25	46.48
577.444	46.49
577.639	46.54
577.834	46.79
578.029	47.18
578.224	48.1
578.418	48.44
578.613	48.02
578.808	47.49
579.003	47.39
579.197	48.29
579.392	49.22
579.587	49.52
579.781	49.37
579.976	49.25
580.171	48.83
580.365	48.24
580.56	47.75
580.755	48.47
580.949	49.1
581.144	49.71
581.338	49.33
581.533	49.63
581.727	50.6
581.922	50.76
582.116	51.51
582.311	51.37
582.505	51.65
582.7	52.1
582.894	51.69
583.089	50.86
583.283	50.42
583.478	50.85
583.672	50.75
583.866	49.53
584.061	50.06
584.255	49.47
584.449	50.14
584.644	50.3
584.838	50.13
585.032	50.4
585.226	51.09
585.421	51.46
585.615	50.28
585.809	50.45
586.003	51.72
586.198	51.68
586.392	51.36
586.586	51.88
586.78	52.15
586.974	52.36
587.168	52.52
587.363	52.27
587.557	52.7
587.751	53.06
587.945	53.46
588.139	52.97
588.333	52.67
588.527	52.99
588.721	52.15
588.915	52.36
589.109	52.01
589.303	51.62
589.497	51.73
589.691	50.58
589.885	50.8
590.079	50.5
590.273	50.42
590.466	50.36
590.66	50.68
590.854	50.75
591.048	50.3
591.242	50.41
591.436	51.27
591.629	51.74
591.823	52.4
592.017	52.47
592.211	52.96
592.404	52.81
592.598	52.97
592.792	52.43
592.986	52.23
593.179	52.89
593.373	52.69
593.567	53.11
593.76	52.73
593.954	52.59
594.147	53.05
594.341	52.27
594.535	52.78
594.728	52.83
594.922	53.21
595.115	53.16
595.309	52.7
595.502	52.59
595.696	52.15
595.889	52.21
596.083	52.83
596.276	52.39
596.47	52.48
596.663	52.15
596.856	51.89
597.05	52
597.243	52.54
597.437	52.33
597.63	52.23
597.823	52.22
598.017	51.79
598.21	51.51
598.403	51.5
598.596	52.49
598.79	53.52
598.983	54.31
599.176	54.84
599.369	55.12
599.563	55.38
599.756	56.77
599.949	56.87
600.142	58.04
600.335	57.03
600.528	57.47
600.722	56.56
600.915	56.21
601.108	56.14
601.301	55.62
601.494	55.52
601.687	55.23
601.88	54.68
602.073	54.41
602.266	53.88
602.459	54.35
602.652	54.31
602.845	53.95
603.038	53.93
603.231	53.66
603.424	53.89
603.617	53.79
603.809	54.34
604.002	53.83
604.195	53.92
604.388	53.93
604.581	54.57
604.774	54.8
604.966	55.01
605.159	54.69
605.352	54.36
605.545	53.9
605.737	54.3
605.93	54.44
606.123	55.44
606.316	55.2
606.508	55.3
606.701	54.01
606.894	53.13
607.086	53.4
607.279	53.15
607.471	54.36
607.664	54.29
607.857	54.14
608.049	54.1
608.242	53.9
608.434	54.03
608.627	54.56
608.819	55.16
609.012	55.47
609.204	55.82
609.397	55.87
609.589	55.34
609.782	55.85
609.974	56.06
610.166	56.01
610.359	56.38
610.551	57.05
610.743	56.07
610.936	57.12
611.128	57.61
611.32	57.43
611.513	57.33
611.705	57.55
611.897	57.68
612.09	58.51
612.282	58.57
612.474	59.38
612.666	59.63
612.858	60.85
613.051	59.38
613.243	60.29
613.435	61.19
613.627	61.97
613.819	62.61
614.011	62.88
614.203	62.63
614.395	63.07
614.588	61.53
614.78	60.93
614.972	60.86
615.164	61.95
615.356	62.14
615.548	61.1
615.74	62.15
615.932	62.16
616.124	61.65
616.315	61.39
616.507	61.1
616.699	61.29
616.891	61.67
617.083	61.6
617.275	61.97
617.467	60.32
617.659	60.95
617.85	59.59
618.042	58.26
618.234	57.7
618.426	57.6
618.618	58.39
618.809	58.25
619.001	58.52
619.193	58.72
619.384	58.4
619.576	59.37
619.768	59
619.959	59.66
620.151	60.65
620.343	61.48
620.534	60.6
620.726	60.52
620.917	60.96
621.109	60.65
621.301	61.55
621.492	61.65
621.684	61.97
621.875	62.38
622.067	62.14
622.258	62.5
622.45	62.01
622.641	62.8
622.832	62.08
623.024	61.91
623.215	61.84
623.407	61.78
623.598	60.64
623.789	59.9
623.981	59.31
624.172	59.62
624.363	59.39
624.555	60.28
624.746	59.93
624.937	60.13
625.129	60.09
625.32	60.22
625.511	59.55
625.702	60.18
625.893	60.6
626.085	60.27
626.276	59.56
626.467	59.14
626.658	58.91
626.849	59.32
627.04	58.99
627.231	59.28
627.422	60.02
627.614	59.75
627.805	60.33
627.996	60.03
628.187	60.99
628.378	62.5
628.569	62.96
628.76	62.45
628.951	62.82
629.142	62.49
629.332	63.42
629.523	62.1
629.714	61.98
629.905	61.87
630.096	61.7
630.287	61.15
630.478	60.18
630.669	60.56
630.859	62.13
631.05	61.63
631.241	61.91
631.432	60.72
631.623	62.13
631.813	62.27
632.004	62.05
632.195	62.32
632.385	63.52
632.576	63.7
632.767	64.26
632.957	62.91
633.148	62.61
633.339	62.98
633.529	62.86
633.72	62.41
633.91	62.86
634.101	62.96
634.292	63.33
634.482	62.62
634.673	62.55
634.863	61.98
635.054	62.45
635.244	63.34
635.435	63.93
635.625	64.18
635.815	64.06
636.006	64.53
636.196	64.65
636.387	65.01
636.577	65.33
636.767	66.11
636.958	65.86
637.148	66.09
637.338	65.58
637.529	65.67
637.719	65.86
637.909	66.18
638.099	65.18
638.29	65.11
638.48	64.92
638.67	64.39
638.86	63.51
639.05	64.22
639.241	65.17
639.431	64.72
639.621	64.56
639.811	65.86
640.001	66.23
640.191	66.47
640.381	66.2
640.571	65.17
640.761	65.84
640.951	65.98
641.141	66.12
641.331	65.16
641.521	66.27
641.711	66.07
641.901	64.79
642.091	64.52
642.281	65.71
642.471	67.2
642.661	68.73
642.851	68.98
643.041	68.89
643.231	68.15
643.42	67.72
643.61	66.26
643.8	66.26
643.99	66.15
644.18	66.6
644.369	67.08
644.559	65.54
644.749	63.7
644.939	63.88
645.128	63.48
645.318	63.17
645.508	63.81
645.697	65.12
645.887	65.33
646.076	65.9
646.266	65.53
646.456	63.36
646.645	64.35
646.835	65.44
647.024	64.61
647.214	65.62
647.403	65.59
647.593	65.08
647.782	65.32
647.972	64.95
648.161	64.53
648.351	64.44
648.54	65.49
648.73	64.82
648.919	65.02
649.108	64.9
649.298	63.8
649.487	64.26
649.677	63.93
649.866	63.16
650.055	63.45
650.244	63.52
650.434	63.51
650.623	63.46
650.812	64.23
651.002	63.92
651.191	64.18
651.38	65.04
651.569	66.25
651.758	66.25
651.947	66.21
652.137	66.33
652.326	67.08
652.515	67.39
652.704	67.73
652.893	66.27
653.082	65.96
653.271	65.99
653.46	64.87
653.649	63.55
653.838	64.82
654.027	65.09
654.216	64.84
654.405	64.66
654.594	65.06
654.783	64.52
654.972	65.45
655.161	66.9
655.35	66.63
655.539	66.79
655.728	66.53
655.916	65.1
656.105	64.43
656.294	64.23
656.483	63.57
656.672	62.67
656.86	62.82
657.049	62.61
657.238	60.58
657.427	61.29
657.615	61.78
657.804	61.62
657.993	62.56
658.181	62.63
658.37	63.03
658.559	62.91
658.747	63.3
658.936	63.14
659.125	61.5
659.313	61.98
659.502	61.61
659.69	60.99
659.879	61.16
660.067	61.18
660.256	61.78
660.444	60.64
660.633	60.89
660.821	61.31
661.01	62.61
661.198	65.35
661.387	66.88
661.575	67.64
661.763	68.62
661.952	67.8
662.14	67.55
662.328	68.07
662.517	69.05
662.705	68.9
662.893	68.17
663.082	66.9
663.27	65.18
663.458	65.15
663.646	65.25
663.834	66.36
664.023	68.9
664.211	68.93
664.399	68.49
664.587	68.32
664.775	69.74
664.963	70.17
665.152	70.29
665.34	71.53
665.528	71.75
665.716	70.12
665.904	70.12
666.092	70.04
666.28	71.13
666.468	70.89
666.656	71
666.844	71.05
667.032	69.55
667.22	70.49
667.408	71.01
667.596	71.42
667.784	72.08
667.971	70.84
668.159	69.95
668.347	70.71
668.535	72.08
668.723	72.75
668.911	71.37
669.098	72.6
669.286	71.76
669.474	71.24
669.662	70.33
669.849	71.25
670.037	71.43
670.225	72.19
670.413	70.09
670.6	70.06
670.788	69.06
670.976	69.79
671.163	70.38
671.351	69.88
671.538	70.34
671.726	69.58
671.913	68.6
672.101	69.95
672.289	70.29
672.476	71.2
672.664	69.1
672.851	70.14
673.039	71.16
673.226	71.51
673.413	72.55
673.601	71.77
673.788	72.63
673.976	72.83
674.163	72.03
674.35	69.73
674.538	70.56
674.725	72.23
674.912	71.84
675.1	70.92
675.287	70.07
675.474	69.79
675.662	71.76
675.849	72.1
676.036	72.74
676.223	71.94
676.411	72.54
676.598	71.79
676.785	71
676.972	71.52
677.159	71.51
677.346	70.02
677.533	70.1
677.721	68.53
677.908	67.49
678.095	68.31
678.282	69
678.469	69.82
678.656	68.68
678.843	67.89
679.03	66.98
679.217	65.5
679.404	66.31
679.591	65.77
679.778	66.13
679.964	67.24
680.151	65.64
680.338	65.24
680.525	65.66
680.712	67.01
680.899	66.91
681.086	67.53
681.272	68.3
681.459	70.1
681.646	70.55
681.833	69.64
682.02	68.73
682.206	67.87
682.393	68.65
682.58	68.03
682.766	66.72
682.953	67.77
683.14	68.91
683.326	69.49
683.513	68.12
683.7	67.74
683.886	67.69
684.073	68.75
684.259	70.59
684.446	69.61
684.632	70.93
684.819	72.16
685.005	73.59
685.192	73.36
685.378	72.29
685.565	71.51
685.751	72.3
685.938	72.66
686.124	71.19
686.31	71.35
686.497	71.15
686.683	68.68
686.87	67.62
687.056	66.01
687.242	64.51
687.429	65.71
687.615	65.46
687.801	64.91
687.987	65.63
688.174	65.4
688.36	65.78
688.546	65.35
688.732	65.47
688.918	66.64
689.105	67.14
689.291	68.65
689.477	68.13
689.663	69.01
689.849	69.41
690.035	68.72
690.221	71.53
690.407	71.2
690.593	71.47
690.779	71.97
690.965	72.09
691.151	72.66
691.337	71.73
691.523	73.33
691.709	73.98
691.895	73.74
692.081	76.27
692.267	74.7
692.453	72.49
692.639	72.87
692.825	73.17
693.011	72.6
693.196	70.14
693.382	69.25
693.568	67.8
693.754	67.27
693.94	66.71
694.125	65.38
694.311	66.02
694.497	67.31
694.682	68.51
694.868	68.89
695.054	69.6
695.239	71.39
695.425	71.95
695.611	70.92
695.796	70.65
695.982	71.55
696.168	71.32
696.353	69.46
696.539	68.57
696.724	68.46
696.91	67.2
697.095	65.24
697.281	64.69
697.466	64.28
697.652	65.32
697.837	64.89
698.023	63.91
698.208	62.87
698.393	63.17
698.579	63.68
698.764	62.5
698.949	63.03
699.135	64.2
699.32	63.76
699.505	63.52
699.691	63.79
699.876	63.93
700.061	65.29
700.246	64.91
700.432	65.84
700.617	67.03
700.802	70.82
700.987	71.03
701.172	74.46
701.358	75.21
701.543	77.38
701.728	80.31
701.913	80.6
702.098	80
702.283	83.8
702.468	81.59
702.653	81.67
702.838	80.09
703.023	81.72
703.208	78
703.393	79.82
703.578	79.28
703.763	78.38
703.948	78.95
704.133	80.12
704.318	79.21
704.503	81.53
704.688	82.38
704.873	83.35
705.057	82.2
705.242	83.58
705.427	81.76
705.612	81.97
705.797	79.96
705.981	79.81
706.166	78.67
706.351	77.58
706.536	76.39
706.72	74.33
706.905	72.68
707.09	72.1
707.274	70.13
707.459	70.39
707.644	71.61
707.828	70.11
708.013	68.34
708.197	68.88
708.382	68
708.567	68.44
708.751	69.21
708.936	69.67
709.12	70.16
709.305	71.45
709.489	72
709.673	70.11
709.858	72.17
710.042	73.7
710.227	72.58
710.411	73.75
710.596	73.96
710.78	74.32
710.964	74.51
711.149	74.71
711.333	74.5
711.517	72.94
711.702	73.15
711.886	72.07
712.07	72.17
712.254	74.26
712.438	75.26
712.623	77.15
712.807	76.85
712.991	76.82
713.175	76.77
713.359	75.87
713.544	76.73
713.728	77.89
713.912	76.25
714.096	77.49
714.28	77.47
714.464	77.88
714.648	74.25
714.832	73.22
715.016	73.07
715.2	72.78
715.384	71.23
715.568	71.19
715.752	67.43
715.936	69.03
716.12	64.87
716.304	61.92
716.488	59.97
716.671	60.58
716.855	61.13
717.039	58.95
717.223	59.12
717.407	57.97
717.59	57.71
717.774	60.64
717.958	60.99
718.142	63.26
718.325	63.4
718.509	63.12
718.693	61.58
718.877	59.91
719.06	60.19
719.244	58.5
719.428	63.6
719.611	64.29
719.795	64.92
719.978	65.15
720.162	64.3
720.345	67.27
720.529	66.14
720.713	68
720.896	68.98
721.08	69.26
721.263	70.81
721.446	69.52
721.63	68.13
721.813	67.66
721.997	66.62
722.18	67.66
722.364	64.39
722.547	65.06
722.73	65.2
722.914	65.66
723.097	64.88
723.28	64.11
723.464	63.69
723.647	67.12
723.83	66.58
724.013	69.66
724.197	71.02
724.38	74.26
724.563	74.19
724.746	75.61
724.929	76.11
725.112	77.02
725.296	79.73
725.479	79.87
725.662	76.33
725.845	76.52
726.028	72.91
726.211	69.96
726.394	66.97
726.577	67.77
726.76	66.49
726.943	65.18
727.126	65.85
727.309	65.11
727.492	65.73
727.675	66.68
727.858	64.59
728.041	65.34
728.224	65.85
728.407	66.47
728.589	66.96
728.772	66.79
728.955	67.56
729.138	67.18
729.321	66.38
729.503	65.38
729.686	64.53
729.869	66.15
730.052	65.89
730.234	67.28
730.417	66.44
730.6	67.56
730.782	67.68
730.965	64.95
731.148	65.99
731.33	66.44
731.513	67.23
731.695	66.57
731.878	67.93
732.061	66.99
732.243	67.69
732.426	67.28
732.608	67.45
732.791	67.32
732.973	70.96
733.156	70.46
733.338	72.73
733.52	72.62
733.703	76.74
733.885	72.97
734.068	74.09
734.25	71.65
734.432	75.79
734.615	74.11
734.797	74.85
734.979	74.47
735.162	75.84
735.344	75.57
735.526	76.18
735.708	75.35
735.891	76.57
736.073	77.69
736.255	77.71
736.437	75.11
736.619	75.84
736.802	77.42
736.984	76.48
737.166	76.68
737.348	73.45
737.53	73.89
737.712	72.61
737.894	73.08
738.076	74.43
738.258	77.99
738.44	79.94
738.622	80.15
738.804	79.01
738.986	82.09
739.168	80.36
739.35	83.1
739.532	78.94
739.714	77.08
739.896	79.77
740.078	79.22
740.259	79.22
740.441	78.37
740.623	80.66
740.805	81.07
740.987	78.85
741.168	79.59
741.35	80.3
741.532	84.2
741.714	89.2
741.895	89.53
742.077	90.77
742.259	86.78
742.44	87.57
742.622	84.12
742.804	83.84
742.985	86.11
743.167	85.9
743.348	82.22
743.53	83.33
743.711	81.21
743.893	79.34
744.075	80.57
744.256	83.83
744.438	82.21
744.619	83.05
744.8	83.32
744.982	80.72
745.163	80.59
745.345	86.78
745.526	87.25
745.707	86.41
745.889	86.08
746.07	85.17
746.252	83.24
746.433	85.56
746.614	84.22
746.795	81.27
746.977	81.66
747.158	83.2
747.339	79.86
747.52	80.41
747.702	82.07
747.883	82.36
748.064	81.13
748.245	82.39
748.426	81.02
748.607	78.93
748.788	81.62
748.97	80.18
749.151	79.28
749.332	81.04
749.513	78.97
749.694	78.54
749.875	80.06
750.056	81.18
750.237	78.17
750.418	80.16
750.599	85.18
750.78	85.84
750.96	87.09
751.141	87.02
751.322	84.99
751.503	82.71
751.684	79.01
751.865	77.13
752.046	74.61
752.226	76.81
752.407	72.86
752.588	72
752.769	74
752.949	75.15
753.13	74.69
753.311	74.25
753.492	77.54
753.672	80.37
753.853	80.72
754.034	82.51
754.214	83.13
754.395	84.33
754.575	82.49
754.756	80.59
754.937	81.61
755.117	81.6
755.298	79.2
755.478	77.97
755.659	79.34
755.839	80.27
756.02	76.33
756.2	75.58
756.381	79.45
756.561	79.71
756.741	78.34
756.922	74.24
757.102	75.08
757.283	78.28
757.463	79.1
757.643	78.08
757.823	77.77
758.004	81.93
758.184	79.68
758.364	76.2
758.545	74.1
758.725	72.58
758.905	71.72
759.085	69.28
759.265	70.41
759.446	68.97
759.626	69.35
759.806	68.82
759.986	64.8
760.166	65.85
760.346	62.7
760.526	63.78
760.706	64.17
760.886	66.55
761.066	65.12
761.246	59.86
761.426	60.41
761.606	59.76
761.786	56.83
761.966	59.41
762.146	58.52
762.326	60.32
762.506	61.29
762.686	61.7
762.866	60.27
763.046	63.15
763.225	65.67
763.405	65.01
763.585	63.59
763.765	65.4
763.945	63
764.124	66.16
764.304	68.46
764.484	70.41
764.664	70.97
764.843	71.89
765.023	68.24
765.203	68.35
765.382	69.71
765.562	71.62
765.741	73.68
765.921	76.14
766.101	77.99
766.28	78.67
766.46	77.82
766.639	77.98
766.819	80.34
766.998	85.5
767.178	86.85
767.357	88.24
767.537	88.61
767.716	89.6
767.896	87.99
768.075	83.94
768.254	81.39
768.434	77.14
768.613	77.61
768.792	79.05
768.972	79.29
769.151	79.93
769.33	81.17
769.51	80.44
769.689	79.86
769.868	83.12
770.047	82.55
770.226	81.36
770.406	83.55
770.585	86.03
770.764	87.98
770.943	87.79
771.122	85.16
771.301	83.37
771.48	87.03
771.66	88.73
771.839	89.14
772.018	91.39
772.197	93.33
772.376	94.62
772.555	91.62
772.734	87.02
772.913	87.35
773.092	91.39
773.271	90.88
773.449	90.41
773.628	90.38
773.807	88.69
773.986	88.67
774.165	88.56
774.344	91.83
774.523	92.68
774.701	94.11
774.88	95.3
775.059	90.52
775.238	91.11
775.417	89.92
775.595	92.16
775.774	90.94
775.953	90.51
776.131	91.25
776.31	88.09
776.489	88.3
776.667	90.56
776.846	87.26
777.025	87.38
777.203	89.94
777.382	91.6
777.56	86.14
777.739	85.66
777.917	84.44
778.096	83.48
778.274	86.49
778.453	85.72
778.631	82.15
778.81	83.59
778.988	87.2
779.166	88.38
779.345	88.2
779.523	90.75
779.702	95.36
779.88	99.31
780.058	93.95
780.237	94.49
780.415	94.38
780.593	90.95
780.771	91.22
780.95	91.66
781.128	89.14
781.306	83.51
781.484	82.03
781.662	80.18
781.841	78.26
782.019	82.03
782.197	80.79
782.375	82.54
782.553	88.52
782.731	91.97
782.909	89.94
783.087	90.24
783.265	98.17
783.443	99.76
783.621	101.49
783.799	96.59
783.977	101.27
784.155	98.68
784.333	97.47
784.511	99.18
784.689	98.1
784.867	96.63
785.045	94.47
785.223	91.49
785.4	90.1
785.578	92.67
785.756	95.73
785.934	92.14
786.112	90.87
786.289	87.93
786.467	89.4
786.645	85.27
786.823	85.48
787	83.69
787.178	84.71
787.356	84.56
787.533	80.1
787.711	78.5
787.889	79.02
788.066	81.4
788.244	82.18
788.421	77.57
788.599	78.55
788.776	80.09
788.954	81.87
789.131	80.6
789.309	80.5
789.486	87.37
789.664	90.33
789.841	88.31
790.019	87.51
790.196	85.8
790.373	85.57
790.551	84.1
790.728	83.65
790.906	83.13
791.083	85.82
791.26	86.19
791.437	78.39
791.615	77.43
791.792	80.44
791.969	79.42
792.146	86.94
792.324	88.6
792.501	95.6
792.678	90.76
792.855	89.16
793.032	84.78
793.209	86.75
793.387	88.36
793.564	90.29
793.741	91.55
793.918	91.43
794.095	90.99
794.272	88.16
794.449	86.53
794.626	90.76
794.803	93.25
794.98	89.9
795.157	86.71
795.334	85.36
795.511	80.71
795.688	75.22
795.864	75.9
796.041	71.67
796.218	73.68
796.395	76.07
796.572	72.54
796.749	67.71
796.925	70.29
797.102	69.55
797.279	71.38
797.456	72.49
797.632	76.67
797.809	73.03
797.986	75.26
798.162	76.36
798.339	72.9
798.516	75.1
798.692	78.77
798.869	83.31
799.046	84.64
799.222	82.79
799.399	80.7
799.575	76.48
799.752	79.29
799.928	78.83
800.105	74.49
800.281	70.36
800.458	73.74
800.634	73.27
800.811	73.91
800.987	69.34
801.163	70.17
801.34	72.66
801.516	78.22
801.692	81.51
801.869	77.47
802.045	84.42
802.221	86.13
802.398	83.64
802.574	86.72
802.75	83.51
802.926	90.25
803.103	89.46
803.279	92.13
803.455	82.77
803.631	86.24
803.807	93.46
803.983	89.07
804.16	91.4
804.336	85.87
804.512	87.11
804.688	86.54
804.864	88.52
805.04	90.43
805.216	87.9
805.392	96.25
805.568	83.96
805.744	84.2
805.92	82.82
806.096	85.89
806.272	92.22
806.448	79.51
806.623	81.57
806.799	79.33
806.975	79.27
807.151	80.09
807.327	79.13
807.503	93
807.678	98.51
807.854	94.15
808.03	87.45
808.206	85.28
808.381	91.76
808.557	96.6
808.733	97.47
808.908	95.94
809.084	96.54
809.26	88.14
809.435	79.64
809.611	74.93
809.787	81.26
809.962	81.32
810.138	81.04
810.313	84.33
810.489	77.12
810.664	76.4
810.84	75.13
811.015	76.17
811.191	81
811.366	84.54
811.542	82.5
811.717	83.08
811.892	83.28
812.068	81.82
812.243	79.15
812.419	80.76
812.594	79.16
812.769	81.02
812.944	75.12
813.12	77.55
813.295	74.3
813.47	78.16
813.645	75.4
813.821	76.75
813.996	75.58
814.171	76.5
814.346	73.99
814.521	77.36
814.697	80.79
814.872	81.18
815.047	81.15
815.222	79.05
815.397	81.63
815.572	79.48
815.747	78.68
815.922	82.07
816.097	80.09
816.272	81.3
816.447	77.37
816.622	73.8
816.797	75.47
816.972	66.06
817.147	69.79
817.322	66.26
817.496	68.27
817.671	68.45
817.846	66.7
818.021	70.75
818.196	72.91
818.371	68.82
818.545	70.24
818.72	69.17
818.895	72.36
819.069	66.68
819.244	65.49
819.419	60.27
819.594	58.88
819.768	57.84
819.943	53.61
820.117	52.17
820.292	53.78
820.467	51.7
820.641	51.73
820.816	51.7
820.99	50.93
821.165	50.48
821.339	51.25
821.514	52.08
821.688	51.74
821.863	50.83
822.037	50.73
822.212	49.78
822.386	49.08
822.56	49.01
822.735	48.61
822.909	49.86
823.084	50.03
823.258	50.61
823.432	49.92
823.606	49.65
823.781	51.1
823.955	51.27
824.129	52.8
824.303	53.83
824.478	52.26
824.652	51.86
824.826	53.1
825	56.31
825.174	55.72
825.348	55.3
825.523	55.44
825.697	57.24
825.871	58.03
826.045	58.55
826.219	57.48
826.393	58.44
826.567	57.47
826.741	57.35
826.915	54.07
827.089	55.55
827.263	56.33
827.437	57.93
827.611	53.81
827.784	53.01
827.958	50.89
828.132	51.97
828.306	52.11
828.48	54.5
828.654	53.93
828.827	56.06
829.001	56.37
829.175	60.02
829.349	61.03
829.522	65.02
829.696	68.26
829.87	72.4
830.044	72.54
830.217	73.79
830.391	76.49
830.565	80.11
830.738	76.76
830.912	71.97
831.085	65.13
831.259	64.43
831.432	64.11
831.606	63.89
831.779	64.16
831.953	67.01
832.126	67.14
832.3	61.35
832.473	59.26
832.647	60.29
832.82	62.92
832.994	63.89
833.167	62.23
833.34	62.63
833.514	60.03
833.687	57.66
833.86	58.35
834.034	58.53
834.207	62.56
834.38	63.77
834.553	64.87
834.727	65.5
834.9	71.13
835.073	72.19
835.246	71.51
835.419	68.14
835.593	68.13
835.766	63.01
835.939	62.06
836.112	59.59
836.285	57.28
836.458	57.92
836.631	57.16
836.804	53.37
836.977	57.23
837.15	54.8
837.323	60.78
837.496	66.64
837.669	74.41
837.842	79.46
838.015	83.74
838.188	89.11
838.361	80.41
838.533	83.51
838.706	78.6
838.879	75.79
839.052	77.78
839.225	87.42
839.398	82.58
839.57	80.03
839.743	77.34
839.916	84.78
840.088	83.95
840.261	89.51
840.434	84.97
840.607	90.71
840.779	95.62
840.952	102.76
841.124	99.96
841.297	97.32
841.47	99.19
841.642	98.28
841.815	86.38
841.987	83.87
842.16	85.47
842.332	86.94
842.505	73.89
842.677	59.5
842.85	58.21
843.022	55.63
843.194	60.3
843.367	56.81
843.539	59.42
843.712	60.89
843.884	66.42
844.056	72.78
844.229	70.91
844.401	77.32
844.573	87.57
844.745	88.81
844.918	88.19
845.09	84.96
845.262	89
845.434	87.92
845.606	90.8
845.779	96.95
845.951	84.77
846.123	88.28
846.295	87.1
846.467	92.85
846.639	95.14
846.811	97.13
846.983	93.51
847.155	100.57
847.327	95.8
847.499	102.68
847.671	94.7
847.843	87.4
848.015	81.42
848.187	82.21
848.359	70.5
848.531	65.11
848.703	65.11
848.875	68.6
849.047	59.97
849.218	71.27
849.39	60.41
849.562	56.15
849.734	62.44
849.905	77.89
850.077	77.46
850.249	90.09
850.421	93.25
850.592	94.05
850.764	93.05
850.936	96.73
851.107	94.21
851.279	97.28
851.451	99.74
851.622	102.37
851.794	97.48
851.965	109.32
852.137	111.11
852.308	109.95
852.48	108.62
852.651	110.29
852.823	114.6
852.994	123.59
853.166	120.33
853.337	119.02
853.509	118.67
853.68	109.78
853.851	105.66
854.023	102.46
854.194	103.37
854.365	110.62
854.537	122.94
854.708	117.67
854.879	109.1
855.05	110.22
855.222	104.88
855.393	96.2
855.564	93.94
855.735	96.09
855.906	102.83
856.078	101.66
856.249	89.38
856.42	86.83
856.591	92.8
856.762	91.5
856.933	96.48
857.104	102
857.275	98.26
857.446	105.14
857.617	99.87
857.788	97.98
857.959	107.38
858.13	107.46
858.301	99.03
858.472	91.9
858.643	98.55
858.814	93.18
858.985	90.12
859.155	92.67
859.326	94.36
859.497	92.55
859.668	90.64
859.839	80.36
860.009	98.37
860.18	105.25
860.351	120.57
860.522	103.57
860.692	106.69
860.863	108.74
861.034	115.98
861.204	123.34
861.375	133.44
861.546	121.72
861.716	125.85
861.887	102.24
862.057	100.23
862.228	84.53
862.398	82.32
862.569	85.47
862.739	89.38
862.91	84.64
863.08	85.07
863.251	79.83
863.421	82.13
863.592	88.55
863.762	83.8
863.932	83.95
864.103	87.81
864.273	90.87
864.443	91.77
864.614	93.19
864.784	92.33
864.954	82.85
865.125	86.28
865.295	87.62
865.465	84.22
865.635	96.99
865.805	94.37
865.976	93.88
866.146	100
866.316	99.89
866.486	107.8
866.656	113.22
866.826	119.06
866.996	117.31
867.166	125.43
867.336	119.67
867.506	115
867.676	110.92
867.846	124.64
868.016	127.64
868.186	122.05
868.356	111.43
868.526	113.46
868.696	100.71
868.866	114.1
869.036	93.16
869.206	106.49
869.376	103.03
869.545	116.58
869.715	103.21
869.885	108.46
870.055	105.2
870.224	101.32
870.394	101.18
870.564	114.28
870.734	100.32
870.903	101.04
871.073	88.63
871.243	91.03
871.412	94.93
871.582	88.42
871.751	82.77
871.921	93.94
872.091	90.31
872.26	85.79
872.43	77.4
872.599	75.03
872.769	82.55
872.938	86.8
873.108	85.1
873.277	76.82
873.446	74.41
873.616	78.04
873.785	68.52
873.955	71.53
874.124	75.63
874.293	86.75
874.463	93.52
874.632	79.57
874.801	89.58
874.971	89.42
875.14	98.25
875.309	106.64
875.478	98.76
875.647	118.3
875.817	121.33
875.986	103.63
876.155	87.18
876.324	76.63
876.493	81.32
876.662	76.42
876.831	76.43
877	73.17
877.17	87
877.339	95.56
877.508	87.9
877.677	93.6
877.846	88.33
878.015	97.31
878.184	98.42
878.352	97.87
878.521	104.26
878.69	103.84
878.859	104.38
879.028	91.35
879.197	81.12
879.366	83.9
879.534	77.39
879.703	79.69
879.872	71.62
880.041	68.05
880.21	70.36
880.378	62.63
880.547	63.14
880.716	58.24
880.884	56.77
881.053	55.33
881.222	53.89
881.39	52.52
881.559	54.27
881.727	53.41
881.896	51.7
882.065	53.36
882.233	52.55
882.402	47.87
882.57	47.46
882.739	46.99
882.907	47.42
883.076	47.19
883.244	47.37
883.412	46.77
883.581	47.08
883.749	50.03
883.918	47.37
884.086	46.69
884.254	52.33
884.423	57.58
884.591	56.88
884.759	61.78
884.927	62.07
885.096	62.36
885.264	62.52
885.432	58.33
885.6	52.26
885.769	48.06
885.937	51.74
886.105	44.6
886.273	40.62
886.441	37.64
886.609	41.89
886.777	40.95
886.945	34.9
887.113	34.94
887.281	41.62
887.449	43.47
887.617	50.77
887.785	53.55
887.953	52.84
888.121	53.85
888.289	60.22
888.457	50
888.625	53.08
888.793	58.88
888.961	73.92
889.129	75.57
889.296	71.49
889.464	73.47
889.632	67.23
889.8	81.73
889.967	79.36
890.135	70.94
