Data from JASIL_3080_Reflection_03.txt Node
Date: Mon Nov 09 11:57:10 EST 2015
User: Geneva
Spectrometer: USB4E03002
Autoset integration time: false
Trigger mode: 4
Integration Time (sec): 1.000000E-1
Scans to average: 10
Electric dark correction enabled: false
Nonlinearity correction enabled: false
Boxcar width: 5
Stray light correction enabled: false
XAxis mode: Wavelengths
Stop averaging: false
Number of Pixels in Spectrum: 3648
>>>>>Begin Spectral Data<<<<<
177.575	-185.83
177.794	1442.11
178.014	-281.63
178.233	-49.71
178.452	15.94
178.672	43.32
178.891	85.33
179.11	146.87
179.33	192.18
179.549	88.86
179.768	126.04
179.987	98.82
180.207	100.17
180.426	84.12
180.645	152.16
180.864	99.75
181.084	131.97
181.303	108.53
181.522	130.23
181.741	1690.91
181.96	-35.53
182.179	60
182.398	-37.12
182.618	23.58
182.837	-27.73
183.056	39.68
183.275	133.33
183.494	-60.14
183.713	-1775
183.932	-490.91
184.151	-72.55
184.37	48.84
184.589	61.25
184.808	71.49
185.027	75.24
185.246	82.74
185.465	95.07
185.684	138.31
185.903	452.13
186.122	658.49
186.341	443.02
186.56	1065.79
186.779	-253.52
186.998	-434.83
187.216	-652
187.435	18.12
187.654	157.14
187.873	-39.22
188.092	74
188.311	154.96
188.53	185.87
188.748	164.2
188.967	151.49
189.186	125.35
189.405	110.53
189.623	160.88
189.842	179.58
190.061	308.17
190.28	324.42
190.498	945.45
190.717	232.33
190.936	88.33
191.154	42.91
191.373	-169.57
191.592	-14.69
191.81	164.37
192.029	44.72
192.248	46.09
192.466	32.48
192.685	36.76
192.904	41.13
193.122	69.64
193.341	99.73
193.559	103.52
193.778	117.87
193.996	164.99
194.215	176.11
194.433	245.34
194.652	172.73
194.87	190.45
195.089	276.1
195.307	619.59
195.526	846.3
195.744	1062.86
195.963	357.34
196.181	700
196.399	240.82
196.618	198.01
196.836	162.78
197.055	198.31
197.273	237.93
197.491	178.25
197.71	116
197.928	132.58
198.146	150.38
198.365	161.2
198.583	151.9
198.801	128.69
199.019	182.86
199.238	498.15
199.456	651.38
199.674	1568.75
199.892	-6336.36
200.111	-961.04
200.329	27366.67
200.547	441.48
200.765	273.53
200.983	222.38
201.202	280
201.42	194.78
201.638	155.05
201.856	123.45
202.074	94.67
202.292	109.36
202.51	91.21
202.728	76.16
202.946	85.75
203.165	78.83
203.383	91.3
203.601	61.47
203.819	59.14
204.037	57.94
204.255	55.08
204.473	90.25
204.691	65.07
204.909	80.8
205.127	88.24
205.345	76.97
205.562	79.55
205.78	88.74
205.998	95.88
206.216	163.58
206.434	129.32
206.652	109.11
206.87	89.81
207.088	66.87
207.306	65.92
207.523	69.01
207.741	100
207.959	612.12
208.177	-93.75
208.395	537.5
208.612	-844.44
208.83	109.76
209.048	290.29
209.266	11266.67
209.483	-561.36
209.701	-187.8
209.919	-118.5
210.136	-201.38
210.354	875.81
210.572	1111.76
210.79	-372.17
211.007	-625
211.225	-193.27
211.442	-51.73
211.66	-146.9
211.878	-112.55
212.095	-637.1
212.313	707.69
212.53	1681.82
212.748	-660
212.966	-1648.57
213.183	5083.33
213.401	-429.37
213.618	-147.06
213.836	-342.06
214.053	-163.91
214.271	-636.54
214.488	-95.79
214.705	-41.57
214.923	-104.84
215.14	-143.04
215.358	-71.08
215.575	-85.4
215.793	-156.15
216.01	-409.16
216.227	-252.2
216.445	-177.87
216.662	-151.69
216.879	-253.21
217.097	-226.85
217.314	-206.25
217.531	215.91
217.749	834.37
217.966	-2300
218.183	23600
218.4	-140.74
218.618	214.71
218.835	-479.41
219.052	-171.92
219.269	-152.26
219.487	-155.11
219.704	-1336
219.921	-437.88
220.138	323.68
220.355	620.97
220.572	200
220.79	141.85
221.007	158.13
221.224	142.66
221.441	71.55
221.658	72.01
221.875	90.53
222.092	89.98
222.309	126.91
222.526	96.18
222.743	65.62
222.96	35.47
223.177	49.42
223.394	26.02
223.611	50.2
223.828	57.44
224.045	52.75
224.262	37.74
224.479	46.1
224.696	37.73
224.913	44.59
225.13	49.51
225.347	72.16
225.564	57.96
225.781	73.81
225.997	68.83
226.214	56.35
226.431	50.97
226.648	48.65
226.865	38.39
227.082	37.72
227.298	24.86
227.515	28.76
227.732	26.43
227.949	23.38
228.165	18.2
228.382	14.04
228.599	18.96
228.816	14.65
229.032	16.18
229.249	12.66
229.466	8.99
229.682	21.27
229.899	13.68
230.116	18.97
230.332	15.66
230.549	6.72
230.765	13.06
230.982	11.52
231.199	21.62
231.415	20
231.632	28.56
231.848	26.52
232.065	32.36
232.281	43.65
232.498	17.29
232.714	9.03
232.931	21.99
233.147	12.46
233.364	20.86
233.58	26.3
233.797	22.17
234.013	18.37
234.23	21.03
234.446	19.23
234.662	11.35
234.879	9.53
235.095	20.69
235.312	12.98
235.528	24.5
235.744	0.83
235.961	-15.45
236.177	-7.89
236.393	-1.34
236.61	1.02
236.826	-0.21
237.042	-7.32
237.258	-1.36
237.475	-14.8
237.691	-12.76
237.907	-13.11
238.123	-4.89
238.339	0
238.556	-8.12
238.772	-10.04
238.988	-12.27
239.204	-15.06
239.42	-0.45
239.636	15.69
239.853	22.07
240.069	22.6
240.285	20.41
240.501	19.96
240.717	18.21
240.933	19.17
241.149	19.26
241.365	20.25
241.581	20.19
241.797	17.53
242.013	15.66
242.229	17.01
242.445	14.84
242.661	13.9
242.877	15.52
243.093	15.41
243.309	19.17
243.525	17.42
243.741	22.52
243.957	22.56
244.173	23.52
244.388	17.42
244.604	10.34
244.82	11.89
245.036	10
245.252	6.6
245.468	5.26
245.683	2.42
245.899	7.81
246.115	4.72
246.331	6.39
246.547	3.65
246.762	3.05
246.978	4.02
247.194	-0.64
247.409	-0.35
247.625	0.37
247.841	0.82
248.057	1.49
248.272	-6.79
248.488	-10.38
248.703	-18.3
248.919	-12.11
249.135	-9.46
249.35	-8.3
249.566	5.04
249.782	4.99
249.997	2.08
250.213	4.83
250.428	5.23
250.644	8.58
250.859	11.78
251.075	17.4
251.29	17.76
251.506	15.51
251.721	20.13
251.937	22.15
252.152	27.14
252.368	31.78
252.583	32.26
252.798	33.65
253.014	32.13
253.229	34.57
253.445	27.15
253.66	20.18
253.875	27.06
254.091	17.43
254.306	20.89
254.521	15.46
254.737	5.02
254.952	1.8
255.167	3.09
255.383	3.66
255.598	5.78
255.813	11.18
256.028	11.54
256.244	6.4
256.459	12.42
256.674	5.97
256.889	6.64
257.104	15.28
257.32	17.32
257.535	12.02
257.75	9.25
257.965	7.71
258.18	5.1
258.395	5.58
258.61	5.11
258.826	5.16
259.041	6.65
259.256	6.21
259.471	3.86
259.686	4.04
259.901	6.82
260.116	8.67
260.331	9.63
260.546	9.72
260.761	9.87
260.976	7.05
261.191	2.48
261.406	3.61
261.621	1.65
261.836	4.24
262.05	-0.39
262.265	-1.28
262.48	-4.08
262.695	-3.7
262.91	-0.95
263.125	5.27
263.34	12.14
263.555	14.65
263.769	9.83
263.984	9.48
264.199	7.11
264.414	10.87
264.629	8.5
264.843	14.21
265.058	8.87
265.273	10.31
265.488	3.84
265.702	2.89
265.917	3.87
266.132	3.12
266.346	6.28
266.561	10.29
266.776	11.91
266.99	10.81
267.205	7.59
267.42	10.65
267.634	10.68
267.849	13.38
268.063	11.97
268.278	14.73
268.492	15.11
268.707	15.4
268.922	13.13
269.136	5.83
269.351	11.22
269.565	13.42
269.78	14.44
269.994	10.92
270.209	10.18
270.423	12.04
270.637	9.08
270.852	8.84
271.066	6.21
271.281	6.42
271.495	8.47
271.709	3.54
271.924	1.42
272.138	-2.04
272.353	-1.29
272.567	1.17
272.781	1.71
272.996	2.77
273.21	4.74
273.424	4.79
273.638	1.13
273.853	0.49
274.067	-0.36
274.281	-2.14
274.495	0.31
274.71	4.66
274.924	4.02
275.138	1.94
275.352	-2.75
275.566	-9.11
275.781	-7.99
275.995	0.74
276.209	3.41
276.423	9.78
276.637	11.53
276.851	7.74
277.065	3.75
277.279	3
277.493	1.8
277.707	6.32
277.921	12.79
278.135	13.27
278.349	7.17
278.563	6.73
278.777	6.78
278.991	3.99
279.205	8.06
279.419	5.36
279.633	3.69
279.847	5.39
280.061	7.55
280.275	6.37
280.489	7.67
280.703	8.13
280.917	8.14
281.131	7.84
281.344	10.86
281.558	7.82
281.772	9.93
281.986	10.64
282.2	9.63
282.414	7.87
282.627	6.51
282.841	2.66
283.055	2.21
283.269	1.81
283.482	-0.1
283.696	-1.16
283.91	1.13
284.123	-0.09
284.337	-0.31
284.551	0.12
284.764	-1.17
284.978	-0.6
285.192	-0.83
285.405	1.24
285.619	-0.47
285.833	1.69
286.046	2.57
286.26	0.59
286.473	2.95
286.687	4.27
286.9	5.21
287.114	5.21
287.327	3.15
287.541	5.83
287.754	3.12
287.968	3.62
288.181	1.88
288.395	3.05
288.608	3.37
288.822	1.93
289.035	-1.58
289.248	-3.92
289.462	-4.31
289.675	-3.89
289.889	-5.68
290.102	-4.38
290.315	-1.17
290.529	-2.54
290.742	-4.52
290.955	-2.07
291.169	1.28
291.382	4.57
291.595	4.93
291.808	5.41
292.022	5.95
292.235	7.23
292.448	5.79
292.661	3.52
292.875	3.48
293.088	2.5
293.301	3.03
293.514	3.58
293.727	4.38
293.94	6.19
294.153	6.22
294.367	7.02
294.58	5.82
294.793	5.33
295.006	4.59
295.219	5.93
295.432	6.37
295.645	6.47
295.858	3.42
296.071	3.16
296.284	2.35
296.497	3.64
296.71	4.64
296.923	6.91
297.136	7.42
297.349	8.58
297.562	8.6
297.775	8.47
297.988	6.77
298.201	7.78
298.414	7.91
298.626	7.64
298.839	7.19
299.052	4.88
299.265	2.15
299.478	3.92
299.691	4.89
299.903	5.58
300.116	5.68
300.329	6.72
300.542	7.06
300.755	7.51
300.967	8.86
301.18	9.02
301.393	10.25
301.605	11.67
301.818	9.02
302.031	9.28
302.243	9.77
302.456	9.96
302.669	8.84
302.881	10.28
303.094	8.46
303.307	9.68
303.519	8.46
303.732	5.86
303.944	5.93
304.157	6.82
304.37	4.17
304.582	3.24
304.795	5.55
305.007	4.95
305.22	6.84
305.432	9.79
305.645	8.54
305.857	9.37
306.069	10.3
306.282	10.74
306.494	11.26
306.707	10.47
306.919	10.31
307.132	6.97
307.344	9.05
307.556	6.51
307.769	3.14
307.981	0.43
308.193	0.98
308.406	4.29
308.618	4.21
308.83	5.3
309.043	7.25
309.255	7.94
309.467	9.35
309.679	9.22
309.892	7.43
310.104	10.39
310.316	9.77
310.528	9.95
310.74	8.15
310.953	7.49
311.165	7.67
311.377	7.3
311.589	7.27
311.801	6.39
312.013	5.53
312.225	6.34
312.437	2.31
312.649	5.69
312.862	1.98
313.074	0.9
313.286	1.6
313.498	1.08
313.71	2.46
313.922	2.37
314.134	4.68
314.346	4.21
314.558	6.79
314.77	9.64
314.982	9.31
315.193	12.87
315.405	12.24
315.617	11.99
315.829	10.99
316.041	11.2
316.253	12.28
316.465	10.52
316.677	12.95
316.888	8.53
317.1	9.33
317.312	10.55
317.524	8.24
317.736	12.39
317.947	13.56
318.159	13.56
318.371	10.9
318.583	10.62
318.794	11.82
319.006	12.19
319.218	14.62
319.43	12.73
319.641	11.9
319.853	14.46
320.064	15.16
320.276	14.74
320.488	14.49
320.699	15.97
320.911	13.92
321.123	13.3
321.334	10.35
321.546	11.08
321.757	9.92
321.969	10.6
322.18	11.05
322.392	9.04
322.603	7.69
322.815	8.9
323.026	9.72
323.238	11.8
323.449	13.09
323.661	13.03
323.872	12.87
324.083	12.77
324.295	10.86
324.506	9.37
324.718	7.36
324.929	9.98
325.14	10.46
325.352	9.31
325.563	9.32
325.774	8.81
325.986	10.57
326.197	11.19
326.408	15.08
326.62	15.95
326.831	15.81
327.042	16.86
327.253	15.92
327.464	16.39
327.676	19.45
327.887	17.46
328.098	15.77
328.309	16.22
328.52	16
328.732	7.99
328.943	9.74
329.154	9.93
329.365	9.52
329.576	7.77
329.787	7.37
329.998	5.32
330.209	4.99
330.42	6.78
330.631	5.47
330.842	4.96
331.053	9.16
331.264	7.13
331.475	6.77
331.686	7.84
331.897	10.05
332.108	10.45
332.319	8.03
332.53	9.17
332.741	9.54
332.952	10.07
333.163	11.11
333.374	11.92
333.585	14.66
333.795	17
334.006	16.05
334.217	14.64
334.428	14.96
334.639	15.8
334.849	16.15
335.06	13.22
335.271	12.64
335.482	10.47
335.692	8.21
335.903	6.68
336.114	5.43
336.325	4
336.535	3.91
336.746	1.84
336.957	2.55
337.167	1.91
337.378	6.2
337.589	6.95
337.799	8.5
338.01	9.07
338.22	8.75
338.431	10.17
338.642	13.61
338.852	13.99
339.063	14.4
339.273	13.88
339.484	15.93
339.694	15.53
339.905	13.54
340.115	12.43
340.326	12.68
340.536	10.67
340.746	8.77
340.957	5.19
341.167	3.82
341.378	1.15
341.588	1.96
341.799	-0.36
342.009	-1.04
342.219	0.15
342.43	1.14
342.64	1.59
342.85	2.11
343.061	1.64
343.271	4.65
343.481	7.62
343.691	10.9
343.902	10.84
344.112	9.17
344.322	8.82
344.532	8.56
344.743	8.23
344.953	7.82
345.163	9.75
345.373	10.71
345.583	10.27
345.793	6.31
346.004	5.99
346.214	5.94
346.424	6.93
346.634	8.94
346.844	9.77
347.054	8.85
347.264	8.83
347.474	8.74
347.684	8.54
347.894	8.64
348.104	10.38
348.314	9.14
348.524	5.77
348.734	5.53
348.944	2.52
349.154	1.43
349.364	2.92
349.574	2.98
349.784	2.3
349.994	0.49
350.204	-0.49
350.413	-1.03
350.623	-1.55
350.833	1.56
351.043	2.54
351.253	4.65
351.463	6.52
351.672	5.53
351.882	7.87
352.092	8.21
352.302	9.96
352.511	11.42
352.721	10.48
352.931	11.8
353.141	11.65
353.35	11.08
353.56	12.05
353.77	12.24
353.979	13.02
354.189	10.98
354.399	10.04
354.608	10.16
354.818	10.39
355.027	12.67
355.237	12
355.447	12.33
355.656	12.7
355.866	12.14
356.075	11.32
356.285	11.11
356.494	11.95
356.704	13.15
356.913	12.08
357.123	12.27
357.332	11.73
357.542	11.04
357.751	9.87
357.96	9.26
358.17	7.18
358.379	6.92
358.589	8.05
358.798	7.09
359.007	6.26
359.217	9.08
359.426	7.95
359.635	8.34
359.845	10.06
360.054	10.81
360.263	11.72
360.472	11.56
360.682	11.77
360.891	11.38
361.1	10.43
361.309	9.55
361.519	7.53
361.728	7.77
361.937	7.07
362.146	5.94
362.355	6.33
362.564	4.92
362.774	4.74
362.983	6.9
363.192	6.01
363.401	7.09
363.61	8.91
363.819	10.79
364.028	9.62
364.237	9.26
364.446	9.26
364.655	7.96
364.864	8.19
365.073	10.1
365.282	8.28
365.491	7.71
365.7	7.81
365.909	6.19
366.118	5.25
366.327	6.04
366.536	6.3
366.745	6.12
366.954	6.07
367.162	6.22
367.371	4.75
367.58	3.59
367.789	3.99
367.998	2.88
368.207	3.37
368.415	2.35
368.624	1.18
368.833	2.02
369.042	1.19
369.25	2.76
369.459	2.9
369.668	4.83
369.877	3.67
370.085	3.33
370.294	5.84
370.503	7.46
370.711	8.14
370.92	10.16
371.129	9.73
371.337	10.96
371.546	9.99
371.754	10.13
371.963	8.35
372.171	10.48
372.38	11.07
372.589	10.36
372.797	9.25
373.006	8.69
373.214	8.17
373.423	8.81
373.631	7.63
373.84	8
374.048	8.57
374.256	8.65
374.465	8.11
374.673	8.29
374.882	8.02
375.09	7.2
375.298	7.44
375.507	5.27
375.715	5.22
375.923	7.62
376.132	6.73
376.34	6.66
376.548	6.33
376.757	5.66
376.965	5.88
377.173	6.83
377.381	7.92
377.59	8.14
377.798	10.18
378.006	8.41
378.214	8.28
378.423	9.6
378.631	8.15
378.839	9.56
379.047	10.19
379.255	8.98
379.463	7.9
379.671	8.06
379.879	7.98
380.088	6.59
380.296	6.67
380.504	6.38
380.712	6.74
380.92	6.38
381.128	5.06
381.336	5.06
381.544	5.21
381.752	4.33
381.96	4.66
382.168	4.98
382.376	6.72
382.584	7.4
382.791	6
382.999	4.51
383.207	5.79
383.415	5.77
383.623	5.96
383.831	7.13
384.039	7.75
384.247	6.88
384.454	4.22
384.662	4.23
384.87	4.41
385.078	5.28
385.285	5.16
385.493	5.15
385.701	6.42
385.909	7.56
386.116	8.08
386.324	8.74
386.532	8.93
386.739	11.06
386.947	11.29
387.155	11.66
387.362	11.94
387.57	11.32
387.778	10.28
387.985	8.21
388.193	7.54
388.4	7.45
388.608	7.14
388.816	6.76
389.023	8.02
389.231	6.16
389.438	7.08
389.646	6.91
389.853	7.02
390.061	8.06
390.268	9.11
390.475	8.36
390.683	7.97
390.89	7.51
391.098	7.36
391.305	6.5
391.512	6.58
391.72	7.02
391.927	5.56
392.135	7.01
392.342	7.59
392.549	7.76
392.756	7.94
392.964	8.03
393.171	7.54
393.378	8.2
393.586	8.7
393.793	9
394	7.51
394.207	7.78
394.414	8.24
394.622	7.3
394.829	6.48
395.036	7.15
395.243	6.23
395.45	6.48
395.657	6.2
395.864	5.11
396.072	5.74
396.279	5.94
396.486	7.09
396.693	6.7
396.9	7.34
397.107	8.93
397.314	9.28
397.521	9.05
397.728	8.57
397.935	8.27
398.142	8.36
398.349	8.9
398.556	8.94
398.763	8.73
398.97	8.79
399.177	8.73
399.383	8.31
399.59	8.08
399.797	8.32
400.004	9.46
400.211	10.65
400.418	11.5
400.625	11.44
400.831	11.78
401.038	12.66
401.245	14.02
401.452	13.85
401.658	13.52
401.865	13.29
402.072	12.95
402.279	12.46
402.485	12.09
402.692	11.66
402.899	11.87
403.105	10.73
403.312	10.48
403.519	8.18
403.725	8.09
403.932	7.71
404.138	7.6
404.345	7.66
404.552	8.52
404.758	7.76
404.965	7.42
405.171	7.26
405.378	8.9
405.584	9.07
405.791	10.75
405.997	11.61
406.204	11.88
406.41	11.77
406.617	11.29
406.823	10.14
407.029	11.55
407.236	11.72
407.442	10.78
407.649	9.76
407.855	9.49
408.061	8.83
408.268	8.37
408.474	7.75
408.68	8.11
408.887	8.9
409.093	9.84
409.299	9.39
409.505	9.92
409.712	10.43
409.918	10.73
410.124	11.48
410.33	11.67
410.537	10.69
410.743	11.52
410.949	11.15
411.155	11.2
411.361	9.94
411.567	9.66
411.773	9.44
411.98	9.62
412.186	9.99
412.392	7.67
412.598	7.61
412.804	8.29
413.01	7.93
413.216	7.52
413.422	7.42
413.628	7.94
413.834	7.86
414.04	7.59
414.246	7.18
414.452	6.91
414.658	7.58
414.864	7.54
415.07	8.23
415.275	8.6
415.481	9.38
415.687	9.99
415.893	10.79
416.099	10.11
416.305	10.32
416.511	10.07
416.716	10.7
416.922	10.45
417.128	11.04
417.334	10.83
417.539	11.12
417.745	10.61
417.951	10.12
418.157	9.46
418.362	9.86
418.568	9.52
418.774	9.44
418.979	8.59
419.185	8.9
419.391	8.09
419.596	7.83
419.802	7.41
420.008	7.46
420.213	3.26
420.419	3.64
420.624	3.39
420.83	3.32
421.035	3.53
421.241	3.94
421.446	3.55
421.652	3.75
421.857	3.76
422.063	3.28
422.268	3.59
422.474	7.67
422.679	7.5
422.885	7.25
423.09	6.95
423.295	7.15
423.501	7.27
423.706	7.99
423.911	8.07
424.117	8.15
424.322	8.51
424.527	8.12
424.733	8.59
424.938	8.06
425.143	8.76
425.349	9.58
425.554	9.2
425.759	8.93
425.964	8.14
426.169	8.05
426.375	7.79
426.58	7.6
426.785	7.23
426.99	7.25
427.195	7.34
427.4	6.91
427.605	6.93
427.811	7.16
428.016	7.1
428.221	8.02
428.426	8.4
428.631	8.18
428.836	9.14
429.041	9.64
429.246	9.64
429.451	10.29
429.656	10.46
429.861	10.31
430.066	10.34
430.271	10.08
430.476	10.07
430.681	9.66
430.886	9.32
431.09	8.73
431.295	9.86
431.5	9.58
431.705	9.73
431.91	9.3
432.115	9.09
432.32	8.82
432.524	8.69
432.729	8.78
432.934	8.65
433.139	9.62
433.343	9.75
433.548	8.78
433.753	9.45
433.958	9.1
434.162	8.98
434.367	8.5
434.572	8.82
434.776	8.8
434.981	8.34
435.186	8.01
435.39	7.87
435.595	7.78
435.799	8.36
436.004	7.16
436.209	6.72
436.413	7.1
436.618	7.77
436.822	7.72
437.027	8.18
437.231	8.85
437.436	9.57
437.64	9.28
437.845	9.44
438.049	9.06
438.253	9.17
438.458	9.32
438.662	9.77
438.867	9.25
439.071	9.06
439.275	8.61
439.48	8.46
439.684	7.94
439.888	7.8
440.093	7.69
440.297	7.68
440.501	7.93
440.706	7.71
440.91	7.02
441.114	7.41
441.318	7.88
441.523	8.5
441.727	8.01
441.931	8.26
442.135	8.43
442.339	8.4
442.543	8.4
442.748	7.57
442.952	8.07
443.156	8.06
443.36	8.18
443.564	8.1
443.768	7.75
443.972	8.09
444.176	8.06
444.38	8.24
444.584	7.87
444.788	7.64
444.992	8.18
445.196	7.85
445.4	8.07
445.604	7.42
445.808	7.45
446.012	7.2
446.216	7.17
446.42	7.37
446.624	6.86
446.828	7.63
447.032	7.78
447.235	7.92
447.439	8.39
447.643	9
447.847	9.25
448.051	8.74
448.254	9.47
448.458	9.36
448.662	9
448.866	9.33
449.069	8.56
449.273	8.68
449.477	8.63
449.681	8.32
449.884	7.9
450.088	8.25
450.292	8.71
450.495	8.06
450.699	8.19
450.902	7.8
451.106	7.8
451.31	8.39
451.513	8.58
451.717	8.67
451.92	8.72
452.124	8.6
452.327	8.53
452.531	8.5
452.734	8.67
452.938	8.31
453.141	8.59
453.345	9.03
453.548	8.56
453.752	7.89
453.955	7.63
454.158	8.02
454.362	7.72
454.565	7.99
454.769	7.11
454.972	7.23
455.175	7.12
455.379	7.47
455.582	7.1
455.785	7.42
455.988	7.43
456.192	7.37
456.395	6.84
456.598	7.07
456.801	6.81
457.005	7.5
457.208	7.4
457.411	7.65
457.614	7.04
457.817	6.76
458.021	6.69
458.224	6.88
458.427	7
458.63	7.38
458.833	7.37
459.036	7.53
459.239	7.69
459.442	7.53
459.645	7.09
459.848	7.3
460.051	7.38
460.254	7.56
460.457	7.06
460.66	6.87
460.863	6.17
461.066	6.02
461.269	6.25
461.472	6.83
461.675	6.64
461.878	7.04
462.081	7.88
462.284	7.77
462.486	7.65
462.689	8.18
462.892	9.16
463.095	9.94
463.298	9.93
463.5	8.98
463.703	7.78
463.906	8.09
464.109	8.17
464.311	7.29
464.514	7.73
464.717	7.52
464.92	8.07
465.122	7.13
465.325	7.03
465.528	7.18
465.73	6.92
465.933	6.68
466.135	6.99
466.338	7.13
466.541	7.82
466.743	7.93
466.946	7.32
467.148	6.86
467.351	7.24
467.553	7.43
467.756	7.06
467.958	7.54
468.161	7.78
468.363	7.41
468.566	7.42
468.768	7.33
468.971	7.23
469.173	8.1
469.375	7.98
469.578	7.87
469.78	7.14
469.983	7.51
470.185	7.85
470.387	7.9
470.59	7.77
470.792	6.73
470.994	6.3
471.196	6.2
471.399	5.81
471.601	5.7
471.803	5.83
472.005	5.81
472.208	5.69
472.41	5.55
472.612	5.26
472.814	5.66
473.016	6.51
473.218	6.75
473.421	7.17
473.623	7.85
473.825	8.25
474.027	8.15
474.229	7.83
474.431	7.79
474.633	7.78
474.835	8.03
475.037	7.84
475.239	7.56
475.441	7.63
475.643	7.42
475.845	7.08
476.047	6.71
476.249	6.44
476.451	7.65
476.653	7.91
476.855	7.59
477.057	7.87
477.258	8
477.46	8.29
477.662	8.2
477.864	8.39
478.066	7.99
478.268	8.52
478.469	8.7
478.671	8.04
478.873	7.85
479.075	7.9
479.276	8.1
479.478	8.28
479.68	8.03
479.882	8.03
480.083	7.6
480.285	7.8
480.487	7.37
480.688	7.4
480.89	7.05
481.091	6.96
481.293	7.31
481.495	7.08
481.696	6.75
481.898	6.86
482.099	6.61
482.301	6.47
482.502	6.54
482.704	6.71
482.905	6.63
483.107	6.74
483.308	6.82
483.51	6.82
483.711	6.76
483.913	6.98
484.114	7
484.315	7.17
484.517	7.37
484.718	7.28
484.92	7.19
485.121	7.1
485.322	7.33
485.524	7.16
485.725	7.01
485.926	7.19
486.127	7.12
486.329	7.07
486.53	6.98
486.731	6.91
486.932	7.14
487.134	7.31
487.335	7.4
487.536	7.27
487.737	7.53
487.938	7.49
488.139	7.4
488.341	7.33
488.542	7.61
488.743	7.69
488.944	7.64
489.145	7.55
489.346	7.5
489.547	7.41
489.748	7.29
489.949	7.22
490.15	7.2
490.351	7.17
490.552	7.23
490.753	6.83
490.954	6.63
491.155	6.72
491.356	6.6
491.557	6.35
491.758	6.45
491.959	6.71
492.159	6.72
492.36	6.74
492.561	6.49
492.762	6.34
492.963	6.6
493.164	6.93
493.364	7.32
493.565	7.46
493.766	7.77
493.967	7.74
494.167	7.41
494.368	7.59
494.569	7.4
494.769	7.98
494.97	8.11
495.171	8.07
495.371	8.06
495.572	8.09
495.773	8.32
495.973	8.59
496.174	8.67
496.375	8.54
496.575	8.44
496.776	8.9
496.976	8.82
497.177	9.08
497.377	9.22
497.578	9.56
497.778	9.29
497.979	8.95
498.179	8.62
498.38	8.72
498.58	8.79
498.78	9.04
498.981	8.86
499.181	8.68
499.382	8.88
499.582	9.04
499.782	8.87
499.983	8.77
500.183	8.98
500.383	9.05
500.584	9.15
500.784	9.6
500.984	9.41
501.184	9.29
501.385	9.08
501.585	8.95
501.785	9.03
501.985	8.95
502.185	8.9
502.386	9.08
502.586	9.02
502.786	8.56
502.986	8.7
503.186	8.52
503.386	8.78
503.586	8.65
503.786	8.54
503.987	8.32
504.187	8.7
504.387	8.82
504.587	8.51
504.787	8.8
504.987	8.96
505.187	8.9
505.387	8.74
505.587	8.38
505.786	8.74
505.986	8.77
506.186	8.89
506.386	9.08
506.586	9.7
506.786	9.99
506.986	9.76
507.186	10.03
507.386	9.58
507.585	9.73
507.785	10.25
507.985	10.53
508.185	10.43
508.384	10.37
508.584	9.95
508.784	9.03
508.984	9.03
509.183	8.92
509.383	9.04
509.583	9.27
509.782	9.33
509.982	9.26
510.182	9.29
510.381	9.13
510.581	9.07
510.781	8.9
510.98	9.5
511.18	9.21
511.379	9.08
511.579	8.83
511.778	9.11
511.978	9.1
512.177	9.14
512.377	8.86
512.576	9
512.776	8.82
512.975	9.03
513.175	9.43
513.374	9.92
513.573	10.49
513.773	10.64
513.972	10.09
514.172	10.28
514.371	10.26
514.57	11.08
514.77	11.51
514.969	11.74
515.168	11.37
515.367	11.34
515.567	11.13
515.766	10.96
515.965	11.03
516.164	11.4
516.364	10.87
516.563	10.77
516.762	9.92
516.961	9.69
517.16	9.75
517.359	9.91
517.559	9.45
517.758	9.59
517.957	9.47
518.156	9.54
518.355	9.8
518.554	10.02
518.753	9.54
518.952	9.46
519.151	9.51
519.35	9.46
519.549	9.82
519.748	9.7
519.947	9.52
520.146	9.83
520.345	9.95
520.544	10.01
520.743	10.44
520.942	11.13
521.141	11.54
521.339	11.74
521.538	11.92
521.737	11.93
521.936	12.42
522.135	12.88
522.333	12.49
522.532	12.3
522.731	12.3
522.93	12.23
523.129	12.32
523.327	12.25
523.526	12.24
523.725	12.33
523.923	12.39
524.122	12.27
524.321	11.99
524.519	12.06
524.718	12.19
524.917	11.75
525.115	11.65
525.314	11.59
525.512	11.6
525.711	11.87
525.909	11.73
526.108	11.83
526.306	11.69
526.505	11.57
526.703	11.62
526.902	11.63
527.1	11.95
527.299	12.08
527.497	12.08
527.696	12.15
527.894	12.11
528.092	12.23
528.291	12.24
528.489	12.44
528.688	12.45
528.886	12.83
529.084	13
529.283	12.86
529.481	12.99
529.679	12.94
529.877	13.5
530.076	13.4
530.274	13.35
530.472	13.41
530.67	13.67
530.869	13.87
531.067	13.44
531.265	13.14
531.463	13.36
531.661	13.41
531.859	13.58
532.057	13.4
532.255	13.52
532.454	13.41
532.652	13.36
532.85	13.02
533.048	13.08
533.246	13.39
533.444	13.56
533.642	13.51
533.84	13.58
534.038	13.54
534.236	13.5
534.434	13.57
534.632	14
534.83	14.09
535.027	14.22
535.225	14.44
535.423	14.48
535.621	14.78
535.819	14.86
536.017	14.6
536.215	14.62
536.412	14.44
536.61	14.75
536.808	14.75
537.006	14.74
537.203	15.23
537.401	15.22
537.599	15.31
537.797	15.07
537.994	15.37
538.192	15.7
538.39	16.19
538.587	16.29
538.785	16.2
538.983	16.39
539.18	16.48
539.378	16.63
539.575	17
539.773	17.11
539.97	17.38
540.168	17.18
540.366	17.2
540.563	17.07
540.761	17.3
540.958	17.24
541.155	17.31
541.353	17.46
541.55	17.42
541.748	17.06
541.945	17.03
542.143	17.02
542.34	17.13
542.537	17.14
542.735	17.66
542.932	18.02
543.129	18.38
543.327	18.52
543.524	19.03
543.721	19.27
543.919	19.51
544.116	19.59
544.313	19.78
544.51	19.99
544.708	20.23
544.905	19.96
545.102	19.97
545.299	20.48
545.496	20.45
545.693	20.32
545.891	20.48
546.088	21.06
546.285	21.43
546.482	21.82
546.679	21.9
546.876	22.28
547.073	22.57
547.27	22.63
547.467	22.33
547.664	22.51
547.861	22.56
548.058	22.26
548.255	22.34
548.452	22.01
548.649	22.3
548.846	22.61
549.043	22.84
549.24	22.58
549.437	22.56
549.633	22.54
549.83	22.55
550.027	22.59
550.224	23.07
550.421	22.82
550.618	22.98
550.814	22.71
551.011	22.85
551.208	22.74
551.405	23.15
551.601	23.16
551.798	22.93
551.995	22.97
552.191	22.97
552.388	23.01
552.585	23.38
552.781	23.37
552.978	23.23
553.175	23.38
553.371	23.19
553.568	23.17
553.764	23.24
553.961	23.82
554.157	23.82
554.354	24.01
554.55	24.22
554.747	24.11
554.943	24.47
555.14	25.35
555.336	25.54
555.533	26.22
555.729	26.67
555.926	26.43
556.122	26.23
556.318	26.47
556.515	26.51
556.711	26.54
556.907	26.33
557.104	26.52
557.3	26.04
557.496	26.24
557.693	25.75
557.889	25.82
558.085	26.38
558.281	26.33
558.478	27.07
558.674	26.91
558.87	27.3
559.066	28.4
559.262	28.76
559.459	29.18
559.655	29.13
559.851	29.65
560.047	30.02
560.243	30.1
560.439	30.92
560.635	30.27
560.831	30.61
561.027	30.7
561.223	30.06
561.419	29.97
561.615	29.95
561.811	30.42
562.007	30.22
562.203	30.46
562.399	30.54
562.595	30.47
562.791	30.4
562.987	30.51
563.183	30.02
563.379	30.68
563.575	30.49
563.771	31.07
563.966	31.06
564.162	31.42
564.358	30.76
564.554	31.15
564.75	31.2
564.945	31.69
565.141	31.95
565.337	32.37
565.533	31.81
565.728	31.99
565.924	31.28
566.12	31.43
566.315	30.85
566.511	31.82
566.707	32.2
566.902	31.61
567.098	31.53
567.293	30.84
567.489	30.1
567.684	30.88
567.88	30.59
568.076	30.33
568.271	30.85
568.467	30.96
568.662	29.98
568.858	29.44
569.053	29.79
569.248	30.3
569.444	30.94
569.639	32.05
569.835	32.14
570.03	32.7
570.225	33.42
570.421	32.47
570.616	32.54
570.812	33.36
571.007	33.37
571.202	33.89
571.397	33.99
571.593	34.23
571.788	33.73
571.983	33.19
572.178	33.46
572.374	33.26
572.569	33.48
572.764	33.47
572.959	33.06
573.154	33.3
573.35	33.32
573.545	33.13
573.74	33.06
573.935	33.41
574.13	34.05
574.325	33.48
574.52	33.67
574.715	33.28
574.91	34.24
575.105	34.34
575.3	34.42
575.495	34.14
575.69	34.35
575.885	34.19
576.08	34.25
576.275	34.43
576.47	34.61
576.665	34.47
576.86	34.83
577.055	34.18
577.25	34.67
577.444	34.86
577.639	35.52
577.834	35.64
578.029	36.43
578.224	36.61
578.418	36.21
578.613	36.92
578.808	37.03
579.003	37.62
579.197	37.85
579.392	37.53
579.587	37.02
579.781	37.32
579.976	37.86
580.171	37.62
580.365	38.3
580.56	38.22
580.755	37.44
580.949	37.73
581.144	38.17
581.338	38.15
581.533	37.95
581.727	38.62
581.922	37.85
582.116	37.85
582.311	37.36
582.505	37.15
582.7	37.2
582.894	38.29
583.089	39.21
583.283	39.66
583.478	39.97
583.672	40.85
583.866	40.93
584.061	41.67
584.255	41.21
584.449	42.1
584.644	42.21
584.838	42.94
585.032	42.76
585.226	42.11
585.421	41.17
585.615	41.32
585.809	41.33
586.003	40.42
586.198	40.82
586.392	40.58
586.586	39.94
586.78	40.02
586.974	39.87
587.168	39.76
587.363	40.05
587.557	40.3
587.751	39.87
587.945	39.43
588.139	40.45
588.333	39.35
588.527	39.39
588.721	40.02
588.915	39.82
589.109	38.83
589.303	38.86
589.497	38.49
589.691	38.3
589.885	38.82
590.079	38.64
590.273	38.16
590.466	38.63
590.66	38.73
590.854	38.23
591.048	37.81
591.242	39
591.436	38.64
591.629	38.51
591.823	38.9
592.017	38.99
592.211	38.84
592.404	39.26
592.598	39.05
592.792	38.76
592.986	39.55
593.179	39.94
593.373	39.22
593.567	39.99
593.76	40.38
593.954	40.25
594.147	40.19
594.341	40.65
594.535	40.69
594.728	41
594.922	41.95
595.115	41.12
595.309	41.3
595.502	41.88
595.696	41.43
595.889	41.24
596.083	41.27
596.276	41.23
596.47	41.22
596.663	41.25
596.856	40.94
597.05	40.48
597.243	40.45
597.437	40.11
597.63	39.13
597.823	39.11
598.017	40.17
598.21	39.99
598.403	39.7
598.596	39.88
598.79	39.26
598.983	40.2
599.176	40.32
599.369	41.18
599.563	41.31
599.756	42.56
599.949	43.11
600.142	42.39
600.335	43.04
600.528	44.19
600.722	44.58
600.915	45.27
601.108	44.39
601.301	44.98
601.494	44.84
601.687	44.12
601.88	43.52
602.073	44
602.266	43.83
602.459	43.08
602.652	42.19
602.845	42.11
603.038	42.74
603.231	42.82
603.424	42.49
603.617	42.48
603.809	42.99
604.002	43.19
604.195	42.63
604.388	42.7
604.581	42.78
604.774	43.24
604.966	42.86
605.159	41.92
605.352	42.16
605.545	42.46
605.737	42.77
605.93	43.16
606.123	43.52
606.316	43.48
606.508	43.87
606.701	44.46
606.894	43.98
607.086	43.96
607.279	43.79
607.471	43.61
607.664	43.85
607.857	43.64
608.049	43.45
608.242	43.33
608.434	43.48
608.627	42.8
608.819	43.12
609.012	43.31
609.204	43.48
609.397	44.24
609.589	44.27
609.782	43.12
609.974	43.39
610.166	43.84
610.359	43.83
610.551	44.4
610.743	44.77
610.936	45.07
611.128	45.75
611.32	45.74
611.513	45.45
611.705	46.13
611.897	46.93
612.09	46.09
612.282	46.38
612.474	45.09
612.666	44.71
612.858	45.18
613.051	44.74
613.243	44.9
613.435	45.18
613.627	45.22
613.819	45.81
614.011	45.8
614.203	47.16
614.395	46.41
614.588	48.02
614.78	47.96
614.972	47.96
615.164	48.42
615.356	48.12
615.548	49.2
615.74	49.92
615.932	48.93
616.124	49.35
616.315	49.26
616.507	49.7
616.699	50.03
616.891	49.98
617.083	49.33
617.275	49.79
617.467	50.59
617.659	49.84
617.85	48.93
618.042	49.67
618.234	48.9
618.426	48.43
618.618	47.51
618.809	47.66
619.001	47.01
619.193	48.32
619.384	47.24
619.576	46.08
619.768	45.61
619.959	45.93
620.151	46.13
620.343	46.59
620.534	46.77
620.726	47.35
620.917	47.48
621.109	48.17
621.301	47.38
621.492	48.04
621.684	49.21
621.875	50.58
622.067	50.48
622.258	49.53
622.45	50
622.641	49.56
622.832	49.4
623.024	49.04
623.215	49.67
623.407	49.23
623.598	49.08
623.789	48.03
623.981	46.84
624.172	47.24
624.363	46.97
624.555	46.24
624.746	46.69
624.937	47.18
625.129	47.84
625.32	47.85
625.511	48.81
625.702	48.78
625.893	49.26
626.085	50.26
626.276	50
626.467	50.73
626.658	50.73
626.849	50.51
627.04	50.13
627.231	49.92
627.422	49.4
627.614	50.07
627.805	50.21
627.996	50.58
628.187	50.56
628.378	50.17
628.569	50.39
628.76	50.48
628.951	50.43
629.142	50.96
629.332	51.02
629.523	50.89
629.714	50.05
629.905	50.46
630.096	50.28
630.287	49.26
630.478	49.91
630.669	49.64
630.859	50.91
631.05	50.99
631.241	50.87
631.432	50.89
631.623	50.98
631.813	50.07
632.004	48.86
632.195	48.12
632.385	48.16
632.576	48.88
632.767	49.12
632.957	49
633.148	49.91
633.339	50.5
633.529	49.31
633.72	49.64
633.91	50.7
634.101	50.95
634.292	51.64
634.482	51.47
634.673	50.73
634.863	50.38
635.054	49.77
635.244	48.99
635.435	47.65
635.625	49.1
635.815	50.6
636.006	51.46
636.196	52.14
636.387	52.46
636.577	54.41
636.767	54.01
636.958	53.97
637.148	53.45
637.338	53.77
637.529	54.41
637.719	53.29
637.909	51.87
638.099	50.71
638.29	51.58
638.48	51.77
638.67	50.8
638.86	52.19
639.05	52.88
639.241	54.49
639.431	54.18
639.621	54.34
639.811	54.83
640.001	56.13
640.191	55.17
640.381	54.64
640.571	54.79
640.761	54.4
640.951	54.4
641.141	53.15
641.331	52.04
641.521	52.79
641.711	53.37
641.901	53.98
642.091	53.46
642.281	54.93
642.471	54.24
642.661	54.31
642.851	54.51
643.041	53.55
643.231	54.42
643.42	55.74
643.61	55.14
643.8	55.08
643.99	55.37
644.18	54.89
644.369	55.96
644.559	56.72
644.749	55.87
644.939	56.48
645.128	56.65
645.318	56.03
645.508	54.94
645.697	54.75
645.887	54.11
646.076	52.36
646.266	51.58
646.456	49.24
646.645	49.3
646.835	49.96
647.024	48.38
647.214	49.44
647.403	50.67
647.593	50.88
647.782	51.63
647.972	52.94
648.161	53.77
648.351	53.78
648.54	55.28
648.73	54.12
648.919	54.05
649.108	55.52
649.298	54.65
649.487	53.74
649.677	53.97
649.866	54.49
650.055	54.8
650.244	55.1
650.434	56.42
650.623	55.73
650.812	56.13
651.002	56.12
651.191	56.4
651.38	56.51
651.569	56.17
651.758	56.02
651.947	54.59
652.137	54.16
652.326	54.64
652.515	54.76
652.704	54.11
652.893	53.93
653.082	53.52
653.271	53.59
653.46	53.49
653.649	53.68
653.838	54.53
654.027	54.5
654.216	53.44
654.405	53.23
654.594	52.15
654.783	52.73
654.972	53.16
655.161	53.64
655.35	52.15
655.539	51.86
655.728	51.92
655.916	50.85
656.105	50.9
656.294	49.77
656.483	50.16
656.672	49.62
656.86	49.51
657.049	49.24
657.238	47.83
657.427	49.46
657.615	48.69
657.804	48.03
657.993	48.16
658.181	47.92
658.37	49.3
658.559	49.66
658.747	49.77
658.936	50.19
659.125	48.88
659.313	49.6
659.502	48.67
659.69	49.98
659.879	50.89
660.067	52.02
660.256	52.8
660.444	51.99
660.633	50.47
660.821	51.18
661.01	51.66
661.198	53.85
661.387	54.71
661.575	53.33
661.763	53.56
661.952	54.02
662.14	53.67
662.328	53.95
662.517	55.45
662.705	57.21
662.893	56.61
663.082	55.35
663.27	55.85
663.458	56.69
663.646	57.71
663.834	57.15
664.023	56.84
664.211	55.62
664.399	55.27
664.587	54.42
664.775	53.13
664.963	54.28
665.152	55.42
665.34	54.87
665.528	54.03
665.716	55.96
665.904	56.19
666.092	56.13
666.28	57.11
666.468	59.01
666.656	59.55
666.844	58.86
667.032	58.79
667.22	58.81
667.408	59.22
667.596	58.51
667.784	57.63
667.971	56.93
668.159	57.34
668.347	57.19
668.535	56.47
668.723	57.13
668.911	58.33
669.098	57.77
669.286	57.55
669.474	58.16
669.662	58.95
669.849	59.25
670.037	59.08
670.225	58.59
670.413	58.69
670.6	57.22
670.788	58.02
670.976	58.14
671.163	59.19
671.351	60.45
671.538	59.02
671.726	59.44
671.913	59.34
672.101	60.5
672.289	60.03
672.476	58.45
672.664	59.71
672.851	58.58
673.039	58.72
673.226	59.37
673.413	57.18
673.601	59.03
673.788	59.27
673.976	58.94
674.163	58.74
674.35	59.71
674.538	62.62
674.725	62.43
674.912	62.64
675.1	60.96
675.287	61.23
675.474	61.53
675.662	61.74
675.849	61.87
676.036	61.53
676.223	61.58
676.411	60.37
676.598	59.05
676.785	58.77
676.972	58.83
677.159	59.39
677.346	58.32
677.533	58.99
677.721	58.08
677.908	56.52
678.095	56
678.282	56.86
678.469	57.87
678.656	59.35
678.843	60.51
679.03	59.58
679.217	59.52
679.404	58.86
679.591	57.45
679.778	56.75
679.964	57.58
680.151	57.8
680.338	56.88
680.525	56.79
680.712	55.89
680.899	54.91
681.086	55.36
681.272	56.72
681.459	56.66
681.646	58.67
681.833	58.64
682.02	58.63
682.206	58.71
682.393	58.96
682.58	58.9
682.766	57.2
682.953	57.22
683.14	57.18
683.326	57.67
683.513	58.91
683.7	57.7
683.886	58.74
684.073	57.71
684.259	57.8
684.446	58.13
684.632	59.05
684.819	61.14
685.005	60.26
685.192	59.84
685.378	58.86
685.565	57.5
685.751	57.84
685.938	57.52
686.124	57.69
686.31	58.22
686.497	58.39
686.683	58.53
686.87	57.83
687.056	59.72
687.242	59.97
687.429	60.71
687.615	61.17
687.801	60.46
687.987	60.15
688.174	61.29
688.36	61.48
688.546	61.49
688.732	60.58
688.918	60.61
689.105	59.19
689.291	58.21
689.477	57.27
689.663	55.87
689.849	56.11
690.035	54.43
690.221	53.53
690.407	53.41
690.593	52.54
690.779	53.53
690.965	52.39
691.151	52.9
691.337	54.24
691.523	53.85
691.709	54.32
691.895	54.72
692.081	57.56
692.267	56.82
692.453	56.49
692.639	57.92
692.825	55.86
693.011	56.54
693.196	56.44
693.382	54.78
693.568	55.21
693.754	55.88
693.94	55.86
694.125	56.42
694.311	57.03
694.497	56.85
694.682	55.25
694.868	56.83
695.054	56.48
695.239	58.65
695.425	58.47
695.611	58.47
695.796	58.67
695.982	57.82
696.168	56.39
696.353	54.74
696.539	54.46
696.724	54.84
696.91	52.63
697.095	53.64
697.281	51.04
697.466	51.78
697.652	51.71
697.837	51.22
698.023	52.78
698.208	52.89
698.393	54.9
698.579	55.57
698.764	55.63
698.949	57.16
699.135	56.48
699.32	57.7
699.505	58.24
699.691	58.75
699.876	60.6
700.061	59.52
700.246	60.29
700.432	59.17
700.617	59.79
700.802	60.44
700.987	62.22
701.172	63.02
701.358	64.39
701.543	63.67
701.728	64.53
701.913	65.06
702.098	67.01
702.283	66.64
702.468	68.42
702.653	66.98
702.838	67.86
703.023	66.81
703.208	66.26
703.393	66.85
703.578	67.53
703.763	66.43
703.948	65.62
704.133	63.72
704.318	65.56
704.503	65.6
704.688	68.27
704.873	67.14
705.057	67.81
705.242	68.5
705.427	68.5
705.612	69.19
705.797	69.35
705.981	69.01
706.166	71.15
706.351	71.26
706.536	71.36
706.72	68.8
706.905	68.81
707.09	69.12
707.274	68.22
707.459	68.17
707.644	67.8
707.828	69.41
708.013	69.17
708.197	68.14
708.382	65.7
708.567	65.72
708.751	66.68
708.936	68.08
709.12	68.82
709.305	70.99
709.489	68.81
709.673	69.39
709.858	68.81
710.042	68.9
710.227	69.11
710.411	69.79
710.596	69.73
710.78	70.05
710.964	69.94
711.149	66.5
711.333	65.66
711.517	67.89
711.702	69.27
711.886	66.7
712.07	67.55
712.254	66.79
712.438	67.14
712.623	66.64
712.807	65.09
712.991	65.17
713.175	65.32
713.359	63.16
713.544	60.28
713.728	57.26
713.912	57.51
714.096	56.63
714.28	55.08
714.464	52.94
714.648	52.71
714.832	53.56
715.016	51.88
715.2	54.17
715.384	55.6
715.568	57.82
715.752	59.16
715.936	59.96
716.12	58.79
716.304	58.28
716.488	60.58
716.671	58.65
716.855	57.1
717.039	56.2
717.223	55.8
717.407	54.25
717.59	53.88
717.774	51.94
717.958	51.67
718.142	52.39
718.325	53.87
718.509	53.53
718.693	57.13
718.877	59.14
719.06	64.95
719.244	65.15
719.428	68.7
719.611	69.54
719.795	71.23
719.978	70.96
720.162	72.79
720.345	74.7
720.529	76.2
720.713	74.55
720.896	76.51
721.08	76.11
721.263	72.97
721.446	71.99
721.63	70.4
721.813	68.38
721.997	71.51
722.18	71.01
722.364	69.77
722.547	66.15
722.73	65.39
722.914	61.52
723.097	57.52
723.28	59.03
723.464	57.52
723.647	59.43
723.83	63.01
724.013	58.78
724.197	57.15
724.38	57.3
724.563	59.34
724.746	61.99
724.929	63.25
725.112	61.25
725.296	61.56
725.479	62.97
725.662	60.2
725.845	60.42
726.028	63.21
726.211	63.53
726.394	61.5
726.577	62.38
726.76	61.79
726.943	61.02
727.126	61.53
727.309	62.94
727.492	61.52
727.675	65.41
727.858	65.13
728.041	63.55
728.224	65.03
728.407	67.81
728.589	66.39
728.772	64.22
728.955	66.74
729.138	67.84
729.321	66.5
729.503	68.58
729.686	66.17
729.869	65.84
730.052	66.53
730.234	65.93
730.417	65.8
730.6	67.2
730.782	67.42
730.965	67.93
731.148	70.29
731.33	69.22
731.513	66
731.695	66.24
731.878	62.66
732.061	61.98
732.243	63.85
732.426	63.25
732.608	61.8
732.791	62.02
732.973	59.88
733.156	59.33
733.338	59.8
733.52	61.42
733.703	63.12
733.885	68.91
734.068	68.09
734.25	69.46
734.432	71.21
734.615	72.2
734.797	72.1
734.979	72.7
735.162	70.06
735.344	68.31
735.526	71.24
735.708	69.16
735.891	66.94
736.073	69.16
736.255	65.34
736.437	65.42
736.619	65.73
736.802	68.29
736.984	66.02
737.166	64.51
737.348	66.08
737.53	65.54
737.712	63.2
737.894	63.38
738.076	64.99
738.258	65.08
738.44	66.03
738.622	67.98
738.804	69.66
738.986	75.17
739.168	78.51
739.35	78.49
739.532	78.11
739.714	81.86
739.896	82.65
740.078	80.31
740.259	81.24
740.441	80.37
740.623	80.38
740.805	78.87
740.987	77.13
741.168	75.66
741.35	76.44
741.532	77.22
741.714	78.77
741.895	80.69
742.077	81.82
742.259	80.48
742.44	76.24
742.622	75.61
742.804	74.36
742.985	76.06
743.167	79.65
743.348	80.49
743.53	78.69
743.711	75.52
743.893	74.97
744.075	74.5
744.256	76.95
744.438	81.95
744.619	79.62
744.8	80.16
744.982	79.35
745.163	79.39
745.345	80.68
745.526	82.14
745.707	82.75
745.889	85.22
746.07	85.77
746.252	87.52
746.433	85.92
746.614	86.97
746.795	83.18
746.977	82.69
747.158	82.62
747.339	77.78
747.52	76.7
747.702	78.02
747.883	76.67
748.064	77.17
748.245	76.57
748.426	77.57
748.607	77.13
748.788	80.56
748.97	84.35
749.151	83.13
749.332	85.6
749.513	91.22
749.694	88.25
749.875	86.51
750.056	83.76
750.237	87.03
750.418	87.23
750.599	90.03
750.78	94.32
750.96	90.4
751.141	94.7
751.322	99.01
751.503	94.53
751.684	96.27
751.865	98.29
752.046	98.29
752.226	97.29
752.407	99.28
752.588	93.9
752.769	84.61
752.949	86.72
753.13	84.05
753.311	85.13
753.492	86.57
753.672	83.81
753.853	81.52
754.034	84.07
754.214	80.36
754.395	78.61
754.575	81.59
754.756	85.25
754.937	84.66
755.117	83.03
755.298	80.38
755.478	76.18
755.659	82.19
755.839	84.01
756.02	81.9
756.2	79.44
756.381	79.1
756.561	80.57
756.741	78.24
756.922	71.38
757.102	73.19
757.283	71.88
757.463	72.06
757.643	66.77
757.823	64.79
758.004	63.78
758.184	64.59
758.364	64.13
758.545	57.99
758.725	56.1
758.905	60.69
759.085	54.3
759.265	51.67
759.446	52.36
759.626	58.34
759.806	60.22
759.986	57.37
760.166	61.24
760.346	55.66
760.526	57.52
760.706	60.89
760.886	57.6
761.066	59.69
761.246	60.51
761.426	58.85
761.606	52.38
761.786	50.09
761.966	54.92
762.146	51.87
762.326	53.03
762.506	54.9
762.686	54.09
762.866	55.39
763.046	56.19
763.225	57.86
763.405	60.9
763.585	63.9
763.765	67.15
763.945	66.79
764.124	69.81
764.304	71.24
764.484	72.7
764.664	73.76
764.843	75.65
765.023	74.51
765.203	75.27
765.382	74.99
765.562	75.95
765.741	79.17
765.921	81.03
766.101	84.67
766.28	84.37
766.46	86.13
766.639	86.46
766.819	83.33
766.998	86.28
767.178	85.87
767.357	84.08
767.537	84.42
767.716	79.97
767.896	79.26
768.075	79.39
768.254	80.64
768.434	78.49
768.613	77.85
768.792	83.53
768.972	83.97
769.151	82.55
769.33	87.06
769.51	89.43
769.689	89.38
769.868	89.46
770.047	88.04
770.226	91.05
770.406	92.17
770.585	93.57
770.764	95.4
770.943	98.8
771.122	109.86
771.301	102.22
771.48	103.24
771.66	105.68
771.839	110.91
772.018	109.26
772.197	112.01
772.376	120.77
772.555	125.23
772.734	121.83
772.913	123.54
773.092	111.97
773.271	119.86
773.449	128.16
773.628	123.78
773.807	123.1
773.986	125
774.165	120.38
774.344	113.43
774.523	115.25
774.701	110.32
774.88	105.27
775.059	105.77
775.238	103.07
775.417	98.31
775.595	98.08
775.774	89.13
775.953	93.8
776.131	92.09
776.31	90.91
776.489	88.74
776.667	97.27
776.846	98.49
777.025	98.2
777.203	100.43
777.382	101.18
777.56	98.31
777.739	106.74
777.917	105.85
778.096	108.92
778.274	112.86
778.453	109.47
778.631	116.99
778.81	113.38
778.988	111.46
779.166	109.55
779.345	106.61
779.523	108.2
779.702	104.83
779.88	101.34
780.058	104.21
780.237	101.28
780.415	105
780.593	91.15
780.771	99.43
780.95	102.04
781.128	100.73
781.306	98.87
781.484	96.81
781.662	103.8
781.841	105.21
782.019	98.89
782.197	105.88
782.375	106.44
782.553	114.69
782.731	117.32
782.909	120.59
783.087	120.19
783.265	144.31
783.443	147.02
783.621	134.76
783.799	130.87
783.977	129.77
784.155	117.58
784.333	116.91
784.511	105.61
784.689	97.62
784.867	92.65
785.045	100.34
785.223	82.92
785.4	80.13
785.578	85.33
785.756	87.21
785.934	84.74
786.112	82.75
786.289	77.89
786.467	77.12
786.645	74.51
786.823	78.4
787	78.9
787.178	82.17
787.356	84.38
787.533	80.7
787.711	78.01
787.889	87.71
788.066	86.73
788.244	87.44
788.421	98.97
788.599	96.46
788.776	95.44
788.954	95.58
789.131	89.58
789.309	91.97
789.486	85.38
789.664	92.53
789.841	91.94
790.019	94.83
790.196	97.52
790.373	89.95
790.551	95.55
790.728	97.87
790.906	100.68
791.083	98.12
791.26	94.22
791.437	105.18
791.615	95.02
791.792	91.65
791.969	95.7
792.146	102.13
792.324	99.13
792.501	102.25
792.678	97.2
792.855	91.34
793.032	102.4
793.209	103.58
793.387	101.05
793.564	101.41
793.741	104.24
793.918	99.23
794.095	97.61
794.272	101.96
794.449	101.31
794.626	97.5
794.803	96.88
794.98	91.5
795.157	93.13
795.334	92.77
795.511	95.89
795.688	88.69
795.864	84.54
796.041	80.59
796.218	78.97
796.395	78
796.572	74.42
796.749	67.03
796.925	69.42
797.102	71.45
797.279	74.21
797.456	71.62
797.632	74.87
797.809	80.12
797.986	82.73
798.162	86.54
798.339	81.61
798.516	82.91
798.692	88.36
798.869	80.55
799.046	76.35
799.222	75.54
799.399	74.1
799.575	76.6
799.752	83.25
799.928	80.9
800.105	76.35
800.281	79.95
800.458	87.55
800.634	94.92
800.811	99.68
800.987	102.89
801.163	95.92
801.34	106.05
801.516	99.02
801.692	97.81
801.869	97.5
802.045	99.03
802.221	96.36
802.398	98.75
802.574	99.24
802.75	99.53
802.926	103.23
803.103	106.91
803.279	98.26
803.455	100.11
803.631	94.85
803.807	95.31
803.983	99.08
804.16	101.05
804.336	97.24
804.512	81.77
804.688	89.33
804.864	87.17
805.04	91.33
805.216	92.6
805.392	98.77
805.568	99.64
805.744	109.37
805.92	104.24
806.096	102.2
806.272	109.88
806.448	126.28
806.623	116.4
806.799	119.95
806.975	107.96
807.151	127.66
807.327	125.91
807.503	128.64
807.678	113.53
807.854	132.74
808.03	118.39
808.206	108.61
808.381	89.78
808.557	97.96
808.733	85.88
808.908	102.85
809.084	90.41
809.26	83.27
809.435	86.92
809.611	91.89
809.787	77
809.962	85.9
810.138	89.16
810.313	94.01
810.489	92.55
810.664	83.63
810.84	76.89
811.015	70.22
811.191	75.63
811.366	86.63
811.542	90.37
811.717	103.71
811.892	106.08
812.068	100.86
812.243	98.38
812.419	100.67
812.594	109.94
812.769	107.97
812.944	105.97
813.12	117.41
813.295	99.46
813.47	88.67
813.645	75.24
813.821	70.32
813.996	85.87
814.171	85.94
814.346	71.42
814.521	82.14
814.697	95.79
814.872	100.87
815.047	85.77
815.222	107.69
815.397	116.7
815.572	111.91
815.747	106.73
815.922	103.4
816.097	105.19
816.272	102.95
816.447	89.06
816.622	82.45
816.797	87.15
816.972	83.63
817.147	70.95
817.322	62.6
817.496	66.2
817.671	75.9
817.846	64.88
818.021	59.56
818.196	63.55
818.371	63.16
818.545	56.64
818.72	56.43
818.895	62.26
819.069	67
819.244	61.83
819.419	54.37
819.594	46.83
819.768	46.38
819.943	48.48
820.117	44.88
820.292	45.36
820.467	48.34
820.641	46.11
820.816	43.72
820.99	42.65
821.165	43.69
821.339	46.32
821.514	45.51
821.688	46.65
821.863	47.23
822.037	48.12
822.212	47.71
822.386	45.77
822.56	44.6
822.735	46.65
822.909	48.85
823.084	50.61
823.258	50.69
823.432	54.33
823.606	56.85
823.781	56.65
823.955	61.21
824.129	66.78
824.303	69.84
824.478	73.66
824.652	72.34
824.826	67.41
825	65.51
825.174	58.88
825.348	58.03
825.523	55.51
825.697	55.4
825.871	49.96
826.045	50.61
826.219	50.51
826.393	52.32
826.567	52.25
826.741	52.96
826.915	51.41
827.089	58.24
827.263	61.77
827.437	61.69
827.611	64.1
827.784	71.91
827.958	72.45
828.132	77.41
828.306	81.94
828.48	85.67
828.654	89.11
828.827	94.52
829.001	82.79
829.175	89.23
829.349	95.07
829.522	101.61
829.696	101.12
829.87	102.6
830.044	110.66
830.217	108.29
830.391	115.68
830.565	119.95
830.738	113.64
830.912	108.03
831.085	80.73
831.259	80.33
831.432	78.73
831.606	74.54
831.779	68.91
831.953	64.27
832.126	61.33
832.3	62.67
832.473	61.18
832.647	65.93
832.82	67.93
832.994	68.88
833.167	69.74
833.34	72.47
833.514	75.76
833.687	78.53
833.86	77.45
834.034	81.92
834.207	81.31
834.38	84.14
834.553	79.88
834.727	77.64
834.9	79.8
835.073	78.5
835.246	73.94
835.419	71.47
835.593	75.69
835.766	81.5
835.939	70.89
836.112	76.34
836.285	73.82
836.458	75.16
836.631	90.16
836.804	83.7
836.977	83.03
837.15	92.74
837.323	93.25
837.496	82.16
837.669	83.68
837.842	87.54
838.015	78.6
838.188	87.01
838.361	88.86
838.533	87.91
838.706	89.73
838.879	99.86
839.052	92.28
839.225	88.72
839.398	95.43
839.57	96.8
839.743	101.87
839.916	103.63
840.088	106.34
840.261	111.48
840.434	103.34
840.607	109.29
840.779	98.44
840.952	106.74
841.124	103.34
841.297	97.42
841.47	107.31
841.642	112.07
841.815	104.11
841.987	104.32
842.16	86.42
842.332	111.23
842.505	121.6
842.677	113.9
842.85	126.89
843.022	130.76
843.194	117.82
843.367	117.44
843.539	118.27
843.712	116.72
843.884	115.22
844.056	149.65
844.229	129.21
844.401	106.44
844.573	114.71
844.745	93.24
844.918	116
845.09	143.67
845.262	126.11
845.434	115.95
845.606	131.42
845.779	163.7
845.951	143.84
846.123	119.75
846.295	135.34
846.467	149.07
846.639	123.54
846.811	115.85
846.983	120.52
847.155	117.37
847.327	155.14
847.499	172.59
847.671	174.67
847.843	350.7
848.015	1396.77
848.187	-735.56
848.359	910.53
848.531	-748.15
848.703	15733.33
848.875	-519.15
849.047	818.09
849.218	297.37
849.39	300.81
849.562	262.24
849.734	247
849.905	395.43
850.077	471.13
850.249	420.18
850.421	1692.16
850.592	625
850.764	730.5
850.936	3524
851.107	16166.67
851.279	681.1
851.451	345.6
851.622	333.1
851.794	230.71
851.965	229.92
852.137	229.8
852.308	181.94
852.48	198.74
852.651	182.57
852.823	195.29
852.994	141.73
853.166	200
853.337	184.42
853.509	182.09
853.68	195.79
853.851	153.2
854.023	147.03
854.194	160.32
854.365	172.31
854.537	135.81
854.708	134.62
854.879	178.68
855.05	143.04
855.222	149.21
855.393	196.54
855.564	140.38
855.735	139.8
855.906	214.77
856.078	178.48
856.249	182.22
856.42	145.43
856.591	145.11
856.762	154.9
856.933	175.96
857.104	135.71
857.275	115.38
857.446	151.19
857.617	151.41
857.788	130.27
857.959	123.77
858.13	97.09
858.301	117.34
858.472	104.89
858.643	88.68
858.814	114.86
858.985	160.05
859.155	174.93
859.326	161.94
859.497	505.04
859.668	156.1
859.839	191.56
860.009	232.82
860.18	255.12
860.351	264.69
860.522	305.96
860.692	276.36
860.863	201.75
861.034	174.43
861.204	160.78
861.375	110.54
861.546	136.81
861.716	136
861.887	127.89
862.057	177.5
862.228	156.92
862.398	152.95
862.569	125.14
862.739	102.7
862.91	71.14
863.08	91.63
863.251	132.69
863.421	160.87
863.592	149.26
863.762	129.65
863.932	101.1
864.103	61.63
864.273	-142.86
864.443	-245
864.614	-79.13
864.784	-82.82
864.954	-1416.67
865.125	5528.57
865.295	-452.24
865.465	-587.72
865.635	-4837.5
865.805	574.68
865.976	-6450
866.146	-1095.45
866.316	-1336
866.486	871.43
866.656	-221.05
866.826	-127
866.996	-751.92
867.166	384.62
867.336	571.43
867.506	732.86
867.676	269.74
867.846	238.4
868.016	214.06
868.186	186.67
868.356	171.53
868.526	115.07
868.696	108
868.866	140.71
869.036	270.13
869.206	175.34
869.376	188.13
869.545	1889.47
869.715	786.84
869.885	187.44
870.055	124.3
870.224	273.26
870.394	-676.19
870.564	314.93
870.734	274
870.903	136.92
871.073	143.43
871.243	88.57
871.412	81.8
871.582	95.09
871.751	113.09
871.921	128.43
872.091	102.09
872.26	93.55
872.43	128.01
872.599	153.58
872.769	133.33
872.938	101.26
873.108	97.52
873.277	94.09
873.446	84.7
873.616	70.83
873.785	54.92
873.955	51.13
874.124	53.12
874.293	65.53
874.463	40.89
874.632	43.33
874.801	76.13
874.971	126.59
875.14	118.56
875.309	135.59
875.478	293.78
875.647	304.76
875.817	180.4
875.986	155.84
876.155	102.51
876.324	102.79
876.493	116.3
876.662	113.69
876.831	82.79
877	120.08
877.17	154.89
877.339	132.81
877.508	132.97
877.677	134.4
877.846	148.39
878.015	184.51
878.184	152.6
878.352	128.86
878.521	102.93
878.69	131.69
878.859	96.89
879.028	57.62
879.197	59.84
879.366	70.42
879.534	78.32
879.703	71.51
879.872	59.93
880.041	75.03
880.21	72.56
880.378	68.82
880.547	68.81
880.716	58.01
880.884	56.27
881.053	55.34
881.222	53.77
881.39	45.3
881.559	45.54
881.727	54.73
881.896	47.81
882.065	51.41
882.233	57.53
882.402	57.78
882.57	60.86
882.739	68.68
882.907	71.15
883.076	75.03
883.244	84.91
883.412	93.9
883.581	95.65
883.749	93.94
883.918	89.97
884.086	91.31
884.254	90.14
884.423	93.08
884.591	93.85
884.759	115.53
884.927	124.81
885.096	106.27
885.264	100.38
885.432	120.43
885.6	141.58
885.769	193.03
885.937	138.57
886.105	172.26
886.273	184.54
886.441	144.82
886.609	209.92
886.777	164.43
886.945	-126.14
887.113	-120.47
887.281	-14150
887.449	-130.86
887.617	0
887.785	-154.63
887.953	-72.49
888.121	-163.82
888.289	-112.17
888.457	-636.99
888.625	-16566.67
888.793	2305
888.961	5875
889.129	1010.2
889.296	240.8
889.464	779.17
889.632	199.31
889.8	237.25
889.967	315.56
890.135	201.21
