Data from JASIL_3204_Reflection_02.txt Node
Date: Fri Nov 13 14:36:15 EST 2015
User: Geneva
Spectrometer: USB4E03002
Autoset integration time: false
Trigger mode: 4
Integration Time (sec): 1.000000E-1
Scans to average: 10
Electric dark correction enabled: false
Nonlinearity correction enabled: false
Boxcar width: 5
Stray light correction enabled: false
XAxis mode: Wavelengths
Stop averaging: false
Number of Pixels in Spectrum: 3648
>>>>>Begin Spectral Data<<<<<
177.575	73.95
177.794	82.23
178.014	87.86
178.233	88.35
178.452	90.16
178.672	92.71
178.891	97.81
179.11	101.67
179.33	102.36
179.549	103.85
179.768	107.95
179.987	103.84
180.207	98.94
180.426	98.57
180.645	100.81
180.864	100.59
181.084	98.01
181.303	94.14
181.522	92.98
181.741	95
181.96	96.62
182.179	93.19
182.398	100.93
182.618	105.73
182.837	106.82
183.056	106.65
183.275	106.42
183.494	108.99
183.713	110.37
183.932	112.37
184.151	114.7
184.37	119.62
184.589	123.83
184.808	125.06
185.027	125.51
185.246	117.99
185.465	120.48
185.684	121.51
185.903	119.74
186.122	119.04
186.341	115.93
186.56	111.46
186.779	102.8
186.998	100.82
187.216	98.12
187.435	95.11
187.654	99.29
187.873	99.78
188.092	99.87
188.311	96.52
188.53	97.54
188.748	91.31
188.967	94.37
189.186	95.62
189.405	98.29
189.623	96.95
189.842	96.91
190.061	96.53
190.28	94.02
190.498	94.03
190.717	96.11
190.936	93.06
191.154	98.4
191.373	97.08
191.592	100.57
191.81	97.2
192.029	91.03
192.248	87.45
192.466	89.22
192.685	91.56
192.904	92.62
193.122	95.13
193.341	97.15
193.559	100.32
193.778	104.72
193.996	102.72
194.215	107.12
194.433	113.78
194.652	118.32
194.87	113.7
195.089	111.06
195.307	112.18
195.526	113.93
195.744	120.19
195.963	117.42
196.181	110.03
196.399	108.82
196.618	108.9
196.836	106.92
197.055	104.41
197.273	101.55
197.491	99.13
197.71	95.26
197.928	94.11
198.146	88.55
198.365	89.69
198.583	96.3
198.801	92.77
199.019	91.28
199.238	96.17
199.456	96.47
199.674	105.31
199.892	108.25
200.111	111.52
200.329	108.74
200.547	110.99
200.765	109.94
200.983	105.21
201.202	110.16
201.42	111.39
201.638	112.87
201.856	110.74
202.074	105.25
202.292	105.44
202.51	99.81
202.728	97.37
202.946	98.47
203.165	98.18
203.383	96.9
203.601	93.92
203.819	92.04
204.037	86.49
204.255	90.22
204.473	92.65
204.691	91.99
204.909	99.67
205.127	101.76
205.345	99.3
205.562	103.32
205.78	105.26
205.998	116.1
206.216	128.67
206.434	123.16
206.652	121.79
206.87	115.43
207.088	112.33
207.306	108.87
207.523	107.46
207.741	109.47
207.959	106.14
208.177	105.49
208.395	101.84
208.612	97.87
208.83	96.68
209.048	94.25
209.266	107.28
209.483	104.98
209.701	104.88
209.919	107.45
210.136	112.2
210.354	114.18
210.572	111.14
210.79	108.81
211.007	110.7
211.225	115.3
211.442	121.49
211.66	106.03
211.878	105.97
212.095	101.65
212.313	104.55
212.53	103.89
212.748	102.45
212.966	104.37
213.183	107.62
213.401	104.04
213.618	107.41
213.836	110.92
214.053	116.21
214.271	120.56
214.488	138.53
214.705	132.97
214.923	125.21
215.14	130.31
215.358	131.9
215.575	129.17
215.793	139.34
216.01	144.91
216.227	131.02
216.445	123.23
216.662	126.12
216.879	116.62
217.097	120.07
217.314	126.37
217.531	124.26
217.749	118.14
217.966	111.93
218.183	107.58
218.4	104.22
218.618	103.16
218.835	103.36
219.052	100.3
219.269	106.87
219.487	103.09
219.704	101.8
219.921	100
220.138	105.33
220.355	105.59
220.572	107.57
220.79	101.52
221.007	101.49
221.224	102.78
221.441	99.91
221.658	96.88
221.875	97.35
222.092	97.44
222.309	97.55
222.526	98.79
222.743	105.03
222.96	100.11
223.177	103.15
223.394	106.15
223.611	105.92
223.828	104.74
224.045	107.19
224.262	108.82
224.479	108.35
224.696	109.23
224.913	102.55
225.13	97.03
225.347	95.22
225.564	91.56
225.781	90.28
225.997	87.37
226.214	87.94
226.431	87.52
226.648	76.95
226.865	72.97
227.082	71.01
227.298	70.4
227.515	70.86
227.732	68.47
227.949	70.45
228.165	68.02
228.382	68.01
228.599	66.76
228.816	64.02
229.032	66.97
229.249	68.06
229.466	64.54
229.682	65.11
229.899	63.63
230.116	68.8
230.332	70.17
230.549	73.44
230.765	72.84
230.982	75.77
231.199	76.94
231.415	79.89
231.632	80.62
231.848	82.91
232.065	88.99
232.281	89.07
232.498	81.98
232.714	80.32
232.931	80.18
233.147	80.17
233.364	75.71
233.58	74.64
233.797	74.8
234.013	72.21
234.23	76.98
234.446	73.86
234.662	79.22
234.879	81.02
235.095	80.52
235.312	80.01
235.528	81.13
235.744	83.83
235.961	85.14
236.177	87.92
236.393	91.88
236.61	87.51
236.826	85.65
237.042	84.49
237.258	85.4
237.475	86.51
237.691	85.15
237.907	87.2
238.123	89.19
238.339	89.11
238.556	86.45
238.772	83.47
238.988	82.66
239.204	83.23
239.42	81.41
239.636	82.48
239.853	77.56
240.069	77.87
240.285	73.33
240.501	69.02
240.717	68.46
240.933	68.98
241.149	69.72
241.365	68.04
241.581	68.7
241.797	66.48
242.013	63.22
242.229	67.7
242.445	68.32
242.661	69.69
242.877	68.1
243.093	67.72
243.309	65.84
243.525	61.53
243.741	58.54
243.957	58.87
244.173	59.87
244.388	59.48
244.604	51.77
244.82	48.29
245.036	43.6
245.252	45.16
245.468	41.01
245.683	41.4
245.899	40.34
246.115	41.5
246.331	37.35
246.547	35.43
246.762	36.64
246.978	37.91
247.194	37.91
247.409	40.32
247.625	40.71
247.841	40.83
248.057	42.85
248.272	43.6
248.488	45.2
248.703	49.99
248.919	52.8
249.135	52.96
249.35	55.26
249.566	57.68
249.782	58.7
249.997	59.89
250.213	61.77
250.428	60.19
250.644	61.76
250.859	62.33
251.075	58.7
251.29	59.5
251.506	59.13
251.721	58.03
251.937	56.16
252.152	57.68
252.368	58.76
252.583	61.58
252.798	61.33
253.014	60.58
253.229	59.13
253.445	64.12
253.66	62.21
253.875	63.82
254.091	67.07
254.306	71.67
254.521	72.8
254.737	72.55
254.952	68.18
255.167	69.48
255.383	72.4
255.598	74.78
255.813	70.97
256.028	71.89
256.244	69.59
256.459	67.94
256.674	67.49
256.889	61.13
257.104	57.16
257.32	56.93
257.535	53.16
257.75	49.95
257.965	47.69
258.18	45.71
258.395	45.19
258.61	43.21
258.826	40.75
259.041	37.86
259.256	37.4
259.471	37.09
259.686	36.87
259.901	36.5
260.116	36.65
260.331	36.69
260.546	37.54
260.761	38.58
260.976	40.77
261.191	42.91
261.406	45.45
261.621	46.77
261.836	49.13
262.05	51.84
262.265	55.09
262.48	55.2
262.695	56.72
262.91	59.4
263.125	59.81
263.34	60.9
263.555	61.31
263.769	59.24
263.984	61.33
264.199	59.75
264.414	58.19
264.629	54.92
264.843	54.98
265.058	53.61
265.273	51.04
265.488	47.14
265.702	45.22
265.917	46.24
266.132	48.58
266.346	47.81
266.561	48.1
266.776	46.79
266.99	49.37
267.205	48.38
267.42	46.61
267.634	46.85
267.849	48.03
268.063	47.83
268.278	48.46
268.492	46.37
268.707	46.69
268.922	47.63
269.136	48.11
269.351	46.85
269.565	47.02
269.78	46.04
269.994	43.76
270.209	44.17
270.423	43.75
270.637	39.81
270.852	38.03
271.066	37.81
271.281	37.01
271.495	36.96
271.709	35.48
271.924	36.38
272.138	38.63
272.353	39.06
272.567	38.22
272.781	39.32
272.996	42
273.21	42.36
273.424	42.69
273.638	42.71
273.853	42.45
274.067	44.84
274.281	44.06
274.495	45.22
274.71	46.17
274.924	47.59
275.138	47.38
275.352	45.36
275.566	46.3
275.781	45.6
275.995	45.18
276.209	46.7
276.423	46.33
276.637	47.88
276.851	47.18
277.065	49.64
277.279	49.59
277.493	49.74
277.707	49.65
277.921	50.81
278.135	49.15
278.349	50.58
278.563	49.28
278.777	49.83
278.991	45.22
279.205	44.95
279.419	42.75
279.633	40.69
279.847	38.78
280.061	39.9
280.275	38.95
280.489	40.95
280.703	38.48
280.917	39.13
281.131	37.79
281.344	39.77
281.558	38.07
281.772	38.28
281.986	37.8
282.2	38.45
282.414	36.78
282.627	35.87
282.841	35.23
283.055	35.14
283.269	33.65
283.482	33.55
283.696	33.74
283.91	34.79
284.123	32.65
284.337	32.96
284.551	31.87
284.764	33.76
284.978	33.45
285.192	33.96
285.405	34.13
285.619	33.26
285.833	33.58
286.046	33.7
286.26	32.6
286.473	32.5
286.687	32.88
286.9	34.69
287.114	32.56
287.327	32.77
287.541	31.62
287.754	31.77
287.968	32.52
288.181	30.89
288.395	30.41
288.608	32.01
288.822	32.42
289.035	32.6
289.248	30.65
289.462	31.75
289.675	32.58
289.889	33.26
290.102	33.11
290.315	31.74
290.529	34.04
290.742	34.9
290.955	34.96
291.169	35.63
291.382	36.51
291.595	37
291.808	37.23
292.022	34.64
292.235	34.53
292.448	34.14
292.661	35.29
292.875	34.77
293.088	34.43
293.301	33.92
293.514	33.02
293.727	32.67
293.94	33.08
294.153	33.33
294.367	35.52
294.58	35.07
294.793	35.69
295.006	36.44
295.219	35.5
295.432	34.47
295.645	34.04
295.858	32.81
296.071	32
296.284	31.95
296.497	32.21
296.71	31.18
296.923	31.91
297.136	31.18
297.349	30.42
297.562	30.03
297.775	29.24
297.988	27.74
298.201	28.73
298.414	28.69
298.626	28.74
298.839	26.87
299.052	27.76
299.265	27.38
299.478	28.42
299.691	28.37
299.903	30.22
300.116	30.38
300.329	31.76
300.542	33.73
300.755	35.05
300.967	36.36
301.18	39.51
301.393	39.44
301.605	37.92
301.818	37.52
302.031	37.31
302.243	36.25
302.456	39.02
302.669	40.31
302.881	40.61
303.094	40.25
303.307	40.8
303.519	39.53
303.732	40.71
303.944	41.86
304.157	42.65
304.37	41.95
304.582	43.3
304.795	43.18
305.007	42.87
305.22	41.47
305.432	40.43
305.645	39.86
305.857	40.67
306.069	40.18
306.282	39.59
306.494	38.53
306.707	41.63
306.919	39.44
307.132	38.05
307.344	37.44
307.556	37.51
307.769	37.23
307.981	34.59
308.193	33.18
308.406	32.1
308.618	31.97
308.83	31.89
309.043	32.44
309.255	32.87
309.467	32.34
309.679	31.06
309.892	29.7
310.104	30.56
310.316	33.01
310.528	32.72
310.74	32.75
310.953	33.24
311.165	33.9
311.377	32.86
311.589	32.09
311.801	33.08
312.013	36.13
312.225	36.31
312.437	36.07
312.649	36.62
312.862	35.86
313.074	36.24
313.286	36.11
313.498	36.46
313.71	37.5
313.922	39.5
314.134	40.8
314.346	39.41
314.558	41.18
314.77	42.83
314.982	41.95
315.193	42.11
315.405	42.85
315.617	41.67
315.829	40.46
316.041	39.76
316.253	37.91
316.465	36.9
316.677	35.97
316.888	38.08
317.1	35.74
317.312	35.3
317.524	35.85
317.736	36.01
317.947	37.97
318.159	38.62
318.371	37.31
318.583	39.11
318.794	37.45
319.006	37.12
319.218	35.68
319.43	36.62
319.641	37.86
319.853	37.71
320.064	37.19
320.276	37.07
320.488	37.29
320.699	38.56
320.911	36.84
321.123	38.09
321.334	40.05
321.546	38.73
321.757	40.35
321.969	39.43
322.18	40.23
322.392	40.35
322.603	39.09
322.815	40.07
323.026	39.85
323.238	41.37
323.449	42.09
323.661	40.46
323.872	41.53
324.083	40.35
324.295	40.09
324.506	39.4
324.718	41.35
324.929	41.29
325.14	40.39
325.352	39.56
325.563	38.49
325.774	38.7
325.986	42.24
326.197	41.33
326.408	41.76
326.62	42.09
326.831	43.43
327.042	41.76
327.253	42.9
327.464	44.07
327.676	43.6
327.887	44.23
328.098	42.95
328.309	39.1
328.52	40.32
328.732	39.8
328.943	39.46
329.154	38.91
329.365	39.28
329.576	40.03
329.787	40.46
329.998	41.37
330.209	41.99
330.42	42.72
330.631	44.54
330.842	45.66
331.053	46.39
331.264	47.13
331.475	46.62
331.686	46.56
331.897	45.18
332.108	43.62
332.319	43.77
332.53	42.35
332.741	42.26
332.952	41.04
333.163	39.05
333.374	37.04
333.585	35.87
333.795	37.45
334.006	36.49
334.217	36.07
334.428	37.69
334.639	38.55
334.849	41.65
335.06	42.67
335.271	42.69
335.482	42.86
335.692	44.76
335.903	45.22
336.114	43.5
336.325	44.41
336.535	45.87
336.746	43.88
336.957	43.14
337.167	41.08
337.378	40.72
337.589	41.01
337.799	40.52
338.01	40.96
338.22	41.18
338.431	42.43
338.642	42.45
338.852	42.97
339.063	44.04
339.273	44.59
339.484	43.96
339.694	42.7
339.905	42.39
340.115	43.55
340.326	42.07
340.536	41.2
340.746	40.29
340.957	40.6
341.167	38.64
341.378	37
341.588	36.6
341.799	36.66
342.009	37.27
342.219	37.14
342.43	36.61
342.64	37.06
342.85	38.22
343.061	37.18
343.271	37.31
343.481	37.3
343.691	37.69
343.902	36.81
344.112	36.82
344.322	36.61
344.532	36.72
344.743	37.56
344.953	38.44
345.163	38.67
345.373	38.97
345.583	38.32
345.793	37.03
346.004	38.51
346.214	38
346.424	38.67
346.634	38.53
346.844	39.44
347.054	38.05
347.264	38.15
347.474	36.77
347.684	37.97
347.894	36.88
348.104	38.55
348.314	36.76
348.524	37.53
348.734	36.1
348.944	36.05
349.154	35.27
349.364	34.7
349.574	32.58
349.784	34.05
349.994	34.61
350.204	35.3
350.413	35.4
350.623	35.97
350.833	35.06
351.043	35.49
351.253	35.36
351.463	36.18
351.672	36.58
351.882	38.33
352.092	37.05
352.302	36.66
352.511	36.43
352.721	36.01
352.931	36.71
353.141	37.12
353.35	36.33
353.56	36.24
353.77	38.09
353.979	38.74
354.189	38.38
354.399	39.13
354.608	37.91
354.818	38.73
355.027	38.45
355.237	38.2
355.447	38.5
355.656	38.56
355.866	37.78
356.075	34.7
356.285	34.04
356.494	33.88
356.704	33.09
356.913	32.37
357.123	31.34
357.332	31.07
357.542	29.89
357.751	30.11
357.96	30.64
358.17	31.19
358.379	32.44
358.589	33.3
358.798	31.23
359.007	31.05
359.217	31.27
359.426	30.74
359.635	30.61
359.845	31.25
360.054	30.41
360.263	30.17
360.472	29.39
360.682	28.49
360.891	26.79
361.1	28
361.309	28.49
361.519	28.96
361.728	29.18
361.937	29.68
362.146	29.65
362.355	29.94
362.564	30.25
362.774	30.81
362.983	31.15
363.192	32.52
363.401	32.79
363.61	32.1
363.819	32.33
364.028	31.99
364.237	31.76
364.446	32.07
364.655	31.27
364.864	31.3
365.073	31.96
365.282	30.84
365.491	31.19
365.7	29.98
365.909	29.76
366.118	29.34
366.327	29.57
366.536	30.27
366.745	29.97
366.954	31.64
367.162	31.81
367.371	31.79
367.58	33.38
367.789	32.26
367.998	33.39
368.207	33.77
368.415	33.56
368.624	33.54
368.833	33.48
369.042	34.03
369.25	33.47
369.459	32.84
369.668	32.78
369.877	32.29
370.085	32.86
370.294	31.85
370.503	32.31
370.711	31.94
370.92	32.58
371.129	31.78
371.337	31.59
371.546	31.17
371.754	31.52
371.963	30.75
372.171	29.9
372.38	29.42
372.589	29.42
372.797	28.14
373.006	28.68
373.214	27.76
373.423	27.69
373.631	27.58
373.84	27.5
374.048	27.19
374.256	27.82
374.465	28.55
374.673	29.17
374.882	29.75
375.09	28.81
375.298	28.79
375.507	28.87
375.715	29.44
375.923	28.21
376.132	28.36
376.34	28.8
376.548	28.69
376.757	27.96
376.965	26.93
377.173	26.65
377.381	28.91
377.59	29.93
377.798	30.25
378.006	29.64
378.214	31.31
378.423	31.61
378.631	31.67
378.839	32.05
379.047	33.38
379.255	33.86
379.463	33.12
379.671	32.69
379.879	32.65
380.088	31.77
380.296	32.14
380.504	31.85
380.712	30.39
380.92	29.56
381.128	29.54
381.336	29.35
381.544	28.56
381.752	29.43
381.96	29.24
382.168	29.55
382.376	30.09
382.584	29.98
382.791	29.17
382.999	29.28
383.207	29.89
383.415	29.71
383.623	29.54
383.831	30.78
384.039	31.01
384.247	30.5
384.454	29.6
384.662	29.73
384.87	27.86
385.078	28.35
385.285	27.8
385.493	27.14
385.701	27.28
385.909	27.29
386.116	26.99
386.324	27.24
386.532	27.89
386.739	27.71
386.947	28.09
387.155	29.99
387.362	30.52
387.57	32.58
387.778	32.12
387.985	31.07
388.193	31.23
388.4	31.05
388.608	30.8
388.816	30.14
389.023	29.55
389.231	28.68
389.438	28
389.646	27.61
389.853	25.88
390.061	27.37
390.268	26.85
390.475	25.47
390.683	25.45
390.89	25.33
391.098	25.33
391.305	26.08
391.512	26.42
391.72	26.45
391.927	25.7
392.135	26.19
392.342	25.54
392.549	26.74
392.756	27.04
392.964	27.1
393.171	27.33
393.378	28.05
393.586	26.92
393.793	26.6
394	25.9
394.207	26.29
394.414	26.85
394.622	26.53
394.829	26.42
395.036	26.56
395.243	26.53
395.45	25.86
395.657	25.02
395.864	26.14
396.072	26.84
396.279	27.96
396.486	28.37
396.693	28.44
396.9	28.3
397.107	26.85
397.314	27.63
397.521	27.88
397.728	27.48
397.935	27.81
398.142	26.86
398.349	27.02
398.556	27.16
398.763	26.57
398.97	27.25
399.177	27.91
399.383	28.84
399.59	29.06
399.797	30.22
400.004	31.7
400.211	31.68
400.418	32.41
400.625	32.35
400.831	31.46
401.038	32.18
401.245	31.06
401.452	30.18
401.658	29.96
401.865	29.3
402.072	27.79
402.279	27.06
402.485	26.77
402.692	26.53
402.899	26.94
403.105	27.02
403.312	26.57
403.519	26.09
403.725	26.11
403.932	26.15
404.138	25.35
404.345	25.52
404.552	26.04
404.758	26.02
404.965	25.64
405.171	25.13
405.378	25.88
405.584	26.12
405.791	26.12
405.997	26.95
406.204	27.27
406.41	28.08
406.617	27.45
406.823	27.27
407.029	27.53
407.236	27.71
407.442	27.8
407.649	28.14
407.855	27.4
408.061	27.97
408.268	27.69
408.474	28.39
408.68	28.25
408.887	28.91
409.093	28.14
409.299	28.36
409.505	28.75
409.712	28.62
409.918	28.34
410.124	28.58
410.33	28.62
410.537	29.22
410.743	29.04
410.949	29.75
411.155	29.86
411.361	30.66
411.567	29.77
411.773	29.4
411.98	28.69
412.186	28.43
412.392	29.36
412.598	29.88
412.804	29.82
413.01	29.79
413.216	29.52
413.422	29.8
413.628	29.23
413.834	29.26
414.04	29.65
414.246	30.2
414.452	30.6
414.658	30.32
414.864	29.32
415.07	29.24
415.275	29.07
415.481	28.64
415.687	28.54
415.893	28.23
416.099	29.05
416.305	28.42
416.511	27.94
416.716	26.81
416.922	26.23
417.128	25.81
417.334	25.34
417.539	24.76
417.745	24.18
417.951	22.95
418.157	23.16
418.362	22.22
418.568	22.17
418.774	21.79
418.979	22.42
419.185	22.07
419.391	22.44
419.596	22.03
419.802	21.93
420.008	22.1
420.213	17.65
420.419	17.33
420.624	17.57
420.83	17.53
421.035	17.7
421.241	17.65
421.446	17.65
421.652	17.7
421.857	17.57
422.063	17.67
422.268	17.83
422.474	22.67
422.679	23.01
422.885	22.94
423.09	22.72
423.295	22.96
423.501	22.92
423.706	23.2
423.911	22.48
424.117	22.52
424.322	22.4
424.527	22.65
424.733	22.6
424.938	22.32
425.143	22.63
425.349	22.79
425.554	22.56
425.759	22.88
425.964	23.01
426.169	23.88
426.375	24.62
426.58	25.24
426.785	24.86
426.99	25.4
427.195	26.08
427.4	25.89
427.605	25.86
427.811	26.54
428.016	25.47
428.221	25.29
428.426	24.41
428.631	24.08
428.836	23.78
429.041	24.04
429.246	23.84
429.451	23.61
429.656	24.04
429.861	24.6
430.066	24.77
430.271	25.62
430.476	25.31
430.681	26.45
430.886	26.17
431.09	26.14
431.295	25.81
431.5	25.91
431.705	25.79
431.91	25.24
432.115	25.13
432.32	24.5
432.524	24.58
432.729	24.6
432.934	24.25
433.139	24.46
433.343	24.52
433.548	24.66
433.753	24.51
433.958	24.94
434.162	25.23
434.367	24.72
434.572	24.94
434.776	24.24
434.981	24.11
435.186	24.53
435.39	24.61
435.595	24.98
435.799	24.98
436.004	24.73
436.209	24.35
436.413	23.93
436.618	24.27
436.822	24.17
437.027	24.06
437.231	24.52
437.436	23.23
437.64	23.07
437.845	22.56
438.049	22.48
438.253	22.68
438.458	22.96
438.662	23.01
438.867	22.8
439.071	22.69
439.275	22.72
439.48	22.83
439.684	23.5
439.888	23.64
440.093	23.23
440.297	22.97
440.501	22.91
440.706	22.49
440.91	22.64
441.114	22.72
441.318	22.82
441.523	23.17
441.727	23.26
441.931	23.71
442.135	23.42
442.339	23.82
442.543	24.31
442.748	24.41
442.952	24.76
443.156	24.78
443.36	25.2
443.564	25.07
443.768	24.74
443.972	25.04
444.176	24.53
444.38	24.16
444.584	23.9
444.788	23.33
444.992	23.32
445.196	23.01
445.4	22.88
445.604	22.43
445.808	22.45
446.012	22.38
446.216	21.51
446.42	21.58
446.624	21.53
446.828	21.7
447.032	22.13
447.235	22.16
447.439	21.72
447.643	21.7
447.847	21.67
448.051	21.97
448.254	22.18
448.458	22.97
448.662	23.07
448.866	23.62
449.069	24
449.273	24.09
449.477	24.29
449.681	25.12
449.884	25.65
450.088	26.33
450.292	25.68
450.495	25.89
450.699	25.93
450.902	25.77
451.106	25.87
451.31	26.14
451.513	26.09
451.717	25.69
451.92	25.69
452.124	24.93
452.327	24.56
452.531	24.52
452.734	24.95
452.938	24.39
453.141	25.05
453.345	25.17
453.548	24.58
453.752	24.82
453.955	25.34
454.158	25.61
454.362	26.35
454.565	26.6
454.769	27.14
454.972	27.02
455.175	26.88
455.379	26.38
455.582	26.92
455.785	26.61
455.988	26.34
456.192	25.64
456.395	25.2
456.598	25.07
456.801	24.8
457.005	24.06
457.208	23.38
457.411	23.11
457.614	22.11
457.817	21.36
458.021	21.4
458.224	21.21
458.427	21.14
458.63	21.01
458.833	20.29
459.036	19.99
459.239	20.53
459.442	20.7
459.645	20.88
459.848	21.31
460.051	21.31
460.254	21.36
460.457	21.71
460.66	22.25
460.863	22.48
461.066	23.02
461.269	23.39
461.472	23.24
461.675	23.27
461.878	23.67
462.081	24.24
462.284	24.79
462.486	24.71
462.689	24.08
462.892	23.96
463.095	24.22
463.298	24.87
463.5	25.18
463.703	25.73
463.906	26.13
464.109	26.12
464.311	26.03
464.514	26.17
464.717	26.24
464.92	26.48
465.122	26.1
465.325	25.84
465.528	25.58
465.73	25.75
465.933	25.34
466.135	24.69
466.338	24.51
466.541	24.83
466.743	23.88
466.946	24.22
467.148	24
467.351	24.04
467.553	24.14
467.756	23.91
467.958	23.24
468.161	23.42
468.363	23.76
468.566	23.82
468.768	23.56
468.971	24.49
469.173	24.36
469.375	24.76
469.578	24.82
469.78	25.12
469.983	25.49
470.185	26.05
470.387	26.12
470.59	26.23
470.792	26.27
470.994	26.16
471.196	25.77
471.399	25.94
471.601	26.06
471.803	25.9
472.005	25.54
472.208	24.79
472.41	24.14
472.612	24.18
472.814	23.67
473.016	23.32
473.218	23.19
473.421	22.95
473.623	22.94
473.825	22.76
474.027	22.81
474.229	22.66
474.431	23.16
474.633	23.7
474.835	23.79
475.037	23.98
475.239	24.42
475.441	24.41
475.643	24.57
475.845	24.37
476.047	24.49
476.249	24.58
476.451	25.18
476.653	24.83
476.855	24.96
477.057	24.98
477.258	25.24
477.46	25.09
477.662	25.62
477.864	25.74
478.066	25.56
478.268	25.69
478.469	25.71
478.671	24.76
478.873	24.87
479.075	24.54
479.276	24.29
479.478	24.32
479.68	23.62
479.882	23.02
480.083	22.93
480.285	22.99
480.487	22.72
480.688	22.41
480.89	22.79
481.091	22.42
481.293	22.07
481.495	21.54
481.696	20.76
481.898	20.4
482.099	19.8
482.301	19.46
482.502	18.84
482.704	18.37
482.905	17.92
483.107	17.51
483.308	17.2
483.51	16.92
483.711	16.78
483.913	16.73
484.114	16.86
484.315	16.86
484.517	16.86
484.718	17.1
484.92	17.07
485.121	17.4
485.322	17.48
485.524	17.84
485.725	17.93
485.926	18.03
486.127	18.1
486.329	18.08
486.53	18.08
486.731	17.98
486.932	18.01
487.134	18.03
487.335	18.13
487.536	18.25
487.737	18.25
487.938	18.59
488.139	18.56
488.341	18.59
488.542	18.73
488.743	19.17
488.944	19.33
489.145	19.41
489.346	19.75
489.547	19.45
489.748	19.42
489.949	19.55
490.15	19.52
490.351	19.37
490.552	19.46
490.753	19.17
490.954	18.87
491.155	18.74
491.356	18.59
491.557	18.62
491.758	18.81
491.959	18.86
492.159	18.7
492.36	18.93
492.561	19.36
492.762	19.64
492.963	20.29
493.164	20.66
493.364	21.31
493.565	21.49
493.766	21.84
493.967	22.09
494.167	22.56
494.368	22.86
494.569	22.66
494.769	22.81
494.97	22.91
495.171	22.82
495.371	22.96
495.572	22.66
495.773	22.78
495.973	22.38
496.174	22.37
496.375	22.32
496.575	22.38
496.776	22.32
496.976	22.35
497.177	22.41
497.377	22.31
497.578	22.38
497.778	22.51
497.979	22.92
498.179	23.05
498.38	23.39
498.58	23.31
498.78	23.27
498.981	23.77
499.181	24.18
499.382	24.12
499.582	24.23
499.782	24.74
499.983	24.95
500.183	24.86
500.383	25.31
500.584	25.15
500.784	25.2
500.984	25.44
501.184	25.04
501.385	24.8
501.585	25
501.785	25.39
501.985	24.64
502.185	24.25
502.386	24.05
502.586	23.38
502.786	23.65
502.986	23.35
503.186	22.79
503.386	22.83
503.586	22.87
503.786	22.33
503.987	21.85
504.187	21.91
504.387	21.92
504.587	22.26
504.787	22.78
504.987	22.99
505.187	23.35
505.387	24.01
505.587	24.15
505.786	24.21
505.986	24.33
506.186	24.3
506.386	24.61
506.586	24.94
506.786	24.76
506.986	24.56
507.186	24.15
507.386	24.35
507.585	24
507.785	24.31
507.985	24.18
508.185	24.21
508.384	24.34
508.584	24.36
508.784	24.49
508.984	24.67
509.183	25.01
509.383	25.35
509.583	25.54
509.782	25.69
509.982	25.26
510.182	25.17
510.381	25.23
510.581	25.32
510.781	25.12
510.98	24.79
511.18	24.96
511.379	24.7
511.579	24.24
511.778	24
511.978	24.25
512.177	24.24
512.377	24.18
512.576	24.54
512.776	24.84
512.975	25
513.175	25.22
513.374	25.17
513.573	25.56
513.773	25.78
513.972	25.85
514.172	25.92
514.371	26.03
514.57	26.59
514.77	26.92
514.969	26.5
515.168	26.96
515.367	27.03
515.567	26.42
515.766	26.16
515.965	26.19
516.164	26.1
516.364	25.37
516.563	25.49
516.762	24.82
516.961	24.41
517.16	23.99
517.359	23.54
517.559	23.78
517.758	24.15
517.957	23.93
518.156	23.96
518.355	23.9
518.554	24.47
518.753	24.24
518.952	24.54
519.151	24.52
519.35	25.25
519.549	25.93
519.748	25.8
519.947	26.09
520.146	26.76
520.345	26.64
520.544	27.18
520.743	27.42
520.942	27.53
521.141	27.79
521.339	28.01
521.538	27.59
521.737	27.03
521.936	27
522.135	27.06
522.333	27.04
522.532	27.53
522.731	26.98
522.93	26.57
523.129	26.91
523.327	26.9
523.526	27.11
523.725	27.44
523.923	27.13
524.122	26.96
524.321	26.58
524.519	26.38
524.718	26.08
524.917	26.13
525.115	26.43
525.314	26.24
525.512	26.08
525.711	25.71
525.909	25.46
526.108	25.21
526.306	25.08
526.505	24.98
526.703	24.64
526.902	24.44
527.1	24.29
527.299	23.95
527.497	23.64
527.696	23.35
527.894	23.28
528.092	23.35
528.291	23.48
528.489	23.66
528.688	23.81
528.886	24.02
529.084	24.34
529.283	24.48
529.481	24.68
529.679	25.08
529.877	25.41
530.076	25.56
530.274	25.75
530.472	26.02
530.67	26.16
530.869	26.18
531.067	26.36
531.265	26.15
531.463	26.17
531.661	25.9
531.859	25.73
532.057	26.04
532.255	26.14
532.454	26.12
532.652	26.05
532.85	25.91
533.048	26.03
533.246	25.91
533.444	26.2
533.642	26.27
533.84	26.84
534.038	27.02
534.236	26.98
534.434	27.5
534.632	27.78
534.83	28.08
535.027	28.38
535.225	28.52
535.423	28.79
535.621	28.8
535.819	28.69
536.017	28.68
536.215	28.93
536.412	28.94
536.61	28.86
536.808	29.21
537.006	29.61
537.203	29.84
537.401	30.04
537.599	30.09
537.797	30.46
537.994	31.12
538.192	31.15
538.39	31.33
538.587	31.35
538.785	31.18
538.983	30.79
539.18	30.63
539.378	30.24
539.575	29.99
539.773	29.9
539.97	29.51
540.168	29.44
540.366	29.31
540.563	28.94
540.761	29.14
540.958	29.36
541.155	29.17
541.353	29.01
541.55	29.04
541.748	29.06
541.945	28.94
542.143	29.11
542.34	29.34
542.537	29.71
542.735	30.17
542.932	30.41
543.129	30.24
543.327	30.86
543.524	31.38
543.721	31.77
543.919	32.19
544.116	32.79
544.313	33.03
544.51	33.07
544.708	32.99
544.905	33.21
545.102	33.24
545.299	33.35
545.496	33.28
545.693	32.86
545.891	33.36
546.088	33.63
546.285	33.81
546.482	34.11
546.679	34.22
546.876	34.57
547.073	34.95
547.27	35.3
547.467	35.98
547.664	36.01
547.861	36.76
548.058	36.99
548.255	36.97
548.452	37
548.649	37.29
548.846	37.63
549.043	37.94
549.24	38.21
549.437	38.19
549.633	37.95
549.83	38.64
550.027	38.79
550.224	38.7
550.421	38.75
550.618	39.23
550.814	39.25
551.011	38.84
551.208	38.7
551.405	38.57
551.601	38.16
551.798	38.52
551.995	38.2
552.191	38.12
552.388	37.81
552.585	37.86
552.781	38.03
552.978	38.11
553.175	38.64
553.371	39.04
553.568	39.39
553.764	40.43
553.961	40.49
554.157	40.89
554.354	41.37
554.55	41.62
554.747	41.92
554.943	41.75
555.14	42.15
555.336	42.72
555.533	42.25
555.729	42.75
555.926	42.89
556.122	43.58
556.318	43.66
556.515	43.84
556.711	44.17
556.907	44.91
557.104	45.43
557.3	45.31
557.496	44.84
557.693	45.01
557.889	45.6
558.085	45.37
558.281	45.4
558.478	45.67
558.674	45.49
558.87	45.59
559.066	45.29
559.262	45.77
559.459	46.27
559.655	46.71
559.851	46.93
560.047	46.2
560.243	45.75
560.439	45.97
560.635	45.86
560.831	46.08
561.027	46.04
561.223	46.03
561.419	45.33
561.615	44.68
561.811	45
562.007	45.56
562.203	45.44
562.399	46.17
562.595	45.85
562.791	46.1
562.987	45.96
563.183	46.19
563.379	45.96
563.575	46.23
563.771	46.47
563.966	45.97
564.162	45.86
564.358	45.76
564.554	45.46
564.75	44.97
564.945	45.42
565.141	45.21
565.337	45.38
565.533	45.69
565.728	45.46
565.924	45.71
566.12	45.69
566.315	45.64
566.511	45.28
566.707	45.42
566.902	45.9
567.098	45.92
567.293	46.39
567.489	46.63
567.684	47.02
567.88	47.36
568.076	47.18
568.271	47.16
568.467	47.68
568.662	47.95
568.858	48.02
569.053	47.98
569.248	47.76
569.444	47.39
569.639	46.87
569.835	46.59
570.03	46.26
570.225	46.14
570.421	46.12
570.616	45.69
570.812	46.47
571.007	46.04
571.202	45.47
571.397	45.22
571.593	45.32
571.788	45.87
571.983	45.85
572.178	46.22
572.374	46.85
572.569	46.98
572.764	47.23
572.959	46.84
573.154	47.22
573.35	48.04
573.545	48.9
573.74	49.19
573.935	48.5
574.13	49
574.325	48.73
574.52	48.25
574.715	48.78
574.91	49.08
575.105	49.26
575.3	49.64
575.495	49.59
575.69	49.49
575.885	49.6
576.08	50.42
576.275	50.39
576.47	51.17
576.665	51.64
576.86	51.61
577.055	50.31
577.25	50.49
577.444	50.61
577.639	51.1
577.834	51.2
578.029	51.84
578.224	51.89
578.418	52
578.613	52.56
578.808	52.55
579.003	52.74
579.197	54.2
579.392	54.19
579.587	54.36
579.781	54.5
579.976	54.18
580.171	54.12
580.365	54.93
580.56	55.05
580.755	55.17
580.949	55.21
581.144	55.13
581.338	55.09
581.533	55.41
581.727	55.08
581.922	54.71
582.116	55.69
582.311	55.48
582.505	55.11
582.7	55.26
582.894	54.47
583.089	54.52
583.283	55.25
583.478	55.36
583.672	55.36
583.866	56.13
584.061	56.69
584.255	56.65
584.449	57.23
584.644	57.2
584.838	57.29
585.032	57.67
585.226	57.81
585.421	57.53
585.615	57.7
585.809	57.86
586.003	57.67
586.198	57.64
586.392	56.91
586.586	56.64
586.78	55.63
586.974	55.86
587.168	55.39
587.363	55.35
587.557	55.32
587.751	55.15
587.945	55.02
588.139	55.04
588.333	54.91
588.527	55.23
588.721	55.31
588.915	56.15
589.109	55.65
589.303	56.38
589.497	56.89
589.691	56.77
589.885	56.63
590.079	56.59
590.273	56.3
590.466	56.35
590.66	55.99
590.854	56.31
591.048	56.58
591.242	56.42
591.436	56.14
591.629	56.35
591.823	56.69
592.017	56.62
592.211	57.02
592.404	56.63
592.598	56.37
592.792	56.71
592.986	56.49
593.179	56.29
593.373	56.64
593.567	56.17
593.76	55.43
593.954	54.36
594.147	54.72
594.341	54.49
594.535	55.24
594.728	55.37
594.922	55.43
595.115	55.13
595.309	54.7
595.502	55.04
595.696	54.63
595.889	54.92
596.083	55.44
596.276	55.47
596.47	55.56
596.663	55.65
596.856	55.17
597.05	54.97
597.243	55.23
597.437	55.65
597.63	55.59
597.823	56.61
598.017	57.28
598.21	57.78
598.403	58.82
598.596	59.01
598.79	59.92
598.983	60.85
599.176	61.54
599.369	62.34
599.563	62.62
599.756	63.01
599.949	63.43
600.142	62.54
600.335	62.83
600.528	62.26
600.722	62.55
600.915	61.83
601.108	61.7
601.301	61.66
601.494	60.77
601.687	59.86
601.88	59.35
602.073	58.82
602.266	58.89
602.459	58.33
602.652	58.16
602.845	57.48
603.038	57.21
603.231	57.29
603.424	56.58
603.617	56.54
603.809	57.1
604.002	56.8
604.195	56.82
604.388	56.6
604.581	56.48
604.774	56.51
604.966	56.5
605.159	56.57
605.352	56.82
605.545	57.69
605.737	57.87
605.93	58.5
606.123	59.45
606.316	59.85
606.508	60
606.701	60.61
606.894	59.71
607.086	60.39
607.279	60.53
607.471	60.55
607.664	60.21
607.857	60.45
608.049	60.05
608.242	59.43
608.434	58.82
608.627	59.43
608.819	59.13
609.012	59.86
609.204	59.77
609.397	59.7
609.589	58.86
609.782	58.98
609.974	58.99
610.166	58.88
610.359	59.08
610.551	60.08
610.743	59.72
610.936	60.31
611.128	60.85
611.32	61.58
611.513	62.35
611.705	63.53
611.897	64.4
612.09	64.6
612.282	65.35
612.474	65.81
612.666	66.4
612.858	67.16
613.051	67.05
613.243	67.16
613.435	66.87
613.627	66.25
613.819	66.35
614.011	65.53
614.203	65.43
614.395	64.04
614.588	64.33
614.78	63.5
614.972	63.61
615.164	63.85
615.356	64.4
615.548	64.49
615.74	65.21
615.932	65.71
616.124	65.3
616.315	66.32
616.507	68.12
616.699	67.61
616.891	67.57
617.083	67.29
617.275	67.41
617.467	66.72
617.659	66.21
617.85	66.13
618.042	65.74
618.234	66.68
618.426	65.88
618.618	66
618.809	65.33
619.001	65
619.193	64.21
619.384	64.3
619.576	64.52
619.768	64.31
619.959	64.38
620.151	64.16
620.343	64.41
620.534	64.63
620.726	64.69
620.917	66.2
621.109	66.57
621.301	68.12
621.492	68.24
621.684	68.3
621.875	69.31
622.067	68.94
622.258	69.47
622.45	69.34
622.641	69.24
622.832	67.59
623.024	67.31
623.215	68.34
623.407	67.52
623.598	67.56
623.789	67.55
623.981	66.93
624.172	67.24
624.363	66.03
624.555	65.9
624.746	65.19
624.937	65.47
625.129	64.87
625.32	64.35
625.511	64.49
625.702	64.18
625.893	63.81
626.085	63.4
626.276	62.93
626.467	63.34
626.658	62.95
626.849	63.19
627.04	64.19
627.231	64.8
627.422	65.29
627.614	65.58
627.805	66.7
627.996	67.22
628.187	67.72
628.378	68.38
628.569	69.02
628.76	69.22
628.951	70.17
629.142	69.67
629.332	70.27
629.523	69.56
629.714	69.06
629.905	68.9
630.096	68.41
630.287	69
630.478	68.63
630.669	68.7
630.859	69.51
631.05	69.46
631.241	69.15
631.432	68.41
631.623	68.77
631.813	69.33
632.004	68.13
632.195	67.67
632.385	67.29
632.576	67.38
632.767	66.8
632.957	65.85
633.148	65.06
633.339	65.55
633.529	65.63
633.72	65.33
633.91	65.17
634.101	66.3
634.292	67.52
634.482	68.41
634.673	68.77
634.863	69.35
635.054	69.51
635.244	70.35
635.435	70.09
635.625	69.86
635.815	69.83
636.006	69.77
636.196	69.62
636.387	69.24
636.577	68.63
636.767	68.86
636.958	68.75
637.148	69.01
637.338	69.28
637.529	70.34
637.719	70.39
637.909	71.3
638.099	71.45
638.29	72.12
638.48	72.7
638.67	72.65
638.86	73.26
639.05	73.48
639.241	74.09
639.431	74.08
639.621	73.58
639.811	74.44
640.001	75.41
640.191	76.19
640.381	76.11
640.571	75.99
640.761	76.19
640.951	75.67
641.141	75.76
641.331	75.84
641.521	75.94
641.711	77.08
641.901	76.94
642.091	75.3
642.281	74.99
642.471	75.07
642.661	75.09
642.851	75.87
643.041	76.26
643.231	76.23
643.42	76.56
643.61	77.72
643.8	76.61
643.99	76.95
644.18	77.81
644.369	77.22
644.559	76.56
644.749	77.34
644.939	75.92
645.128	75.08
645.318	75.4
645.508	75.19
645.697	73.7
645.887	74.45
646.076	73.33
646.266	73.38
646.456	73.77
646.645	74.67
646.835	73.46
647.024	74.14
647.214	75.51
647.403	75.34
647.593	75.71
647.782	75.55
647.972	74.85
648.161	75.65
648.351	75.11
648.54	75.4
648.73	74.28
648.919	74.63
649.108	75.15
649.298	73.93
649.487	73.86
649.677	73.36
649.866	74.46
650.055	74.08
650.244	73.8
650.434	74.1
650.623	75.46
650.812	76.03
651.002	76.34
651.191	76.02
651.38	77.21
651.569	77.26
651.758	77.16
651.947	76.84
652.137	77.81
652.326	78.26
652.515	78.47
652.704	77.2
652.893	77.23
653.082	78.69
653.271	79.04
653.46	78.38
653.649	78.55
653.838	78.64
654.027	78.63
654.216	79.15
654.405	79.54
654.594	77.82
654.783	77.39
654.972	77.05
655.161	76.08
655.35	76.24
655.539	76.4
655.728	75.86
655.916	76.14
656.105	76.15
656.294	74.47
656.483	74.63
656.672	75.91
656.86	75.14
657.049	73.87
657.238	72.57
657.427	72.11
657.615	70.69
657.804	70.14
657.993	69.61
658.181	69.55
658.37	70.09
658.559	69.06
658.747	68.63
658.936	69.34
659.125	69.76
659.313	71.05
659.502	70.92
659.69	71.98
659.879	72.35
660.067	73.03
660.256	72.9
660.444	73.15
660.633	73.35
660.821	74.63
661.01	75.8
661.198	76.93
661.387	76.89
661.575	77.68
661.763	77.74
661.952	78.52
662.14	79.8
662.328	79.94
662.517	80.28
662.705	81.52
662.893	81.91
663.082	81.07
663.27	80.92
663.458	81.56
663.646	81.37
663.834	81.33
664.023	81.34
664.211	80.97
664.399	82.36
664.587	83.04
664.775	82.84
664.963	81.71
665.152	81.49
665.34	81.68
665.528	81.73
665.716	82.26
665.904	82.9
666.092	82.38
666.28	81.83
666.468	80.52
666.656	80.76
666.844	81.22
667.032	81.46
667.22	83.13
667.408	83.77
667.596	81.85
667.784	81.9
667.971	82.83
668.159	84.13
668.347	83.96
668.535	85.29
668.723	85.26
668.911	84.94
669.098	85.99
669.286	84.01
669.474	84.25
669.662	86.38
669.849	85.99
670.037	85.52
670.225	84.96
670.413	85.16
670.6	84.98
670.788	83.17
670.976	82.86
671.163	81.4
671.351	82.33
671.538	81.82
671.726	80.91
671.913	81.13
672.101	80.91
672.289	81.33
672.476	80.99
672.664	79.6
672.851	81.75
673.039	82.35
673.226	84.13
673.413	84.32
673.601	84.07
673.788	83.52
673.976	83.31
674.163	83.59
674.35	83.34
674.538	83
674.725	84.81
674.912	83.7
675.1	83.44
675.287	82.05
675.474	81.26
675.662	81.67
675.849	82.72
676.036	83.07
676.223	83.11
676.411	82.75
676.598	83.43
676.785	82.34
676.972	82.47
677.159	83.03
677.346	84.01
677.533	84.04
677.721	83.2
677.908	82.23
678.095	81.66
678.282	81.12
678.469	80.69
678.656	79.96
678.843	79.31
679.03	78.42
679.217	77.24
679.404	76.64
679.591	77.01
679.778	77.7
679.964	78.88
680.151	79.49
680.338	79.79
680.525	80.19
680.712	80.51
680.899	81.23
681.086	81.63
681.272	81.85
681.459	81.99
681.646	80.85
681.833	80.14
682.02	80.22
682.206	79.71
682.393	80.3
682.58	80.15
682.766	80.72
682.953	81.01
683.14	82.5
683.326	83.48
683.513	83.38
683.7	84.99
683.886	84.59
684.073	83.52
684.259	84.42
684.446	84.17
684.632	84.08
684.819	84.48
685.005	82.96
685.192	81.43
685.378	80.97
685.565	81.13
685.751	81.64
685.938	83.09
686.124	83.15
686.31	82.62
686.497	81.41
686.683	82.62
686.87	81.72
687.056	82.77
687.242	81.94
687.429	83.55
687.615	83.06
687.801	82.5
687.987	81.27
688.174	81.56
688.36	81.97
688.546	82.53
688.732	81.96
688.918	83.12
689.105	83.41
689.291	85.55
689.477	84.31
689.663	84.35
689.849	84.38
690.035	85
690.221	84.25
690.407	83.52
690.593	83.52
690.779	83.05
690.965	82.7
691.151	83.76
691.337	83.29
691.523	83.12
691.709	84.93
691.895	85.95
692.081	86.69
692.267	85.99
692.453	87.26
692.639	86.98
692.825	88.24
693.011	87.72
693.196	86.32
693.382	86.69
693.568	86.82
693.754	85.61
693.94	84.1
694.125	83.41
694.311	85.77
694.497	85.12
694.682	87.15
694.868	86.7
695.054	86.04
695.239	85.61
695.425	86.39
695.611	86.63
695.796	85.82
695.982	85.56
696.168	84.36
696.353	82.58
696.539	81.51
696.724	79.46
696.91	78.77
697.095	78.3
697.281	76.97
697.466	75.55
697.652	74.19
697.837	74.29
698.023	74.5
698.208	74.98
698.393	75.11
698.579	75.39
698.764	75.82
698.949	75.39
699.135	76.37
699.32	77.23
699.505	77.39
699.691	79.47
699.876	80.07
700.061	80.67
700.246	80.37
700.432	81.23
700.617	81.7
700.802	82.34
700.987	83.35
701.172	85.09
701.358	87.21
701.543	88.6
701.728	88.66
701.913	88.34
702.098	89.11
702.283	90.95
702.468	91.36
702.653	93.18
702.838	92.36
703.023	94.72
703.208	93.98
703.393	94.35
703.578	93.87
703.763	93.79
703.948	94.25
704.133	95.54
704.318	95.13
704.503	94.48
704.688	93.96
704.873	96.13
705.057	95.48
705.242	95.59
705.427	94.51
705.612	93.6
705.797	93.67
705.981	94.09
706.166	92.92
706.351	91.95
706.536	92.97
706.72	92.7
706.905	91.49
707.09	90.84
707.274	90.39
707.459	90.87
707.644	92.12
707.828	91.7
708.013	91.27
708.197	90.22
708.382	90.72
708.567	90.71
708.751	90.09
708.936	90.14
709.12	91.57
709.305	91.09
709.489	90.62
709.673	90.29
709.858	89.34
710.042	90.89
710.227	92.22
710.411	91.35
710.596	90.85
710.78	90.79
710.964	91.46
711.149	91.07
711.333	92.01
711.517	92.67
711.702	94.85
711.886	95.32
712.07	93.63
712.254	92
712.438	93.45
712.623	91.98
712.807	91.95
712.991	90.28
713.175	89.13
713.359	88.32
713.544	87
713.728	85.65
713.912	87.75
714.096	88.35
714.28	87.93
714.464	87.7
714.648	88.79
714.832	89.09
715.016	90.97
715.2	90.21
715.384	89.15
715.568	88.96
715.752	87.18
715.936	85.57
716.12	85.3
716.304	86.07
716.488	85.37
716.671	85.31
716.855	84.28
717.039	83.25
717.223	84.29
717.407	85.33
717.59	85.49
717.774	85.56
717.958	84.44
718.142	83.63
718.325	83.74
718.509	82.85
718.693	83.96
718.877	85.97
719.06	85.9
719.244	86.01
719.428	85.56
719.611	86.62
719.795	88.54
719.978	90.07
720.162	91.92
720.345	92.42
720.529	95.04
720.713	94.72
720.896	93.37
721.08	94.14
721.263	94.27
721.446	93.96
721.63	93.09
721.813	92.64
721.997	91.13
722.18	88.92
722.364	89.24
722.547	89.05
722.73	87.1
722.914	87.73
723.097	86.99
723.28	87.73
723.464	88.59
723.647	90.24
723.83	89.16
724.013	90.76
724.197	91.05
724.38	88.46
724.563	88.19
724.746	91.38
724.929	90.19
725.112	90.85
725.296	91.1
725.479	91.68
725.662	88.67
725.845	89.45
726.028	90.29
726.211	89.27
726.394	91.85
726.577	92.19
726.76	89.01
726.943	90.89
727.126	91.14
727.309	89.96
727.492	90.27
727.675	92.53
727.858	92.37
728.041	91.51
728.224	92.09
728.407	92.31
728.589	92.03
728.772	93.61
728.955	93.38
729.138	91.81
729.321	92.69
729.503	91.25
729.686	90.06
729.869	89.88
730.052	89.02
730.234	90.49
730.417	90.05
730.6	89.32
730.782	88.64
730.965	89.15
731.148	89.35
731.33	89.98
731.513	90.51
731.695	91.68
731.878	91.95
732.061	94.45
732.243	94.48
732.426	94.84
732.608	95.1
732.791	95.14
732.973	95.62
733.156	96.86
733.338	94.81
733.52	95.51
733.703	94.52
733.885	94.13
734.068	92.12
734.25	91.64
734.432	91.24
734.615	93.82
734.797	93.43
734.979	93.98
735.162	92.91
735.344	92.94
735.526	92.28
735.708	92.6
735.891	94.54
736.073	95.82
736.255	94.61
736.437	93.87
736.619	92.37
736.802	94.28
736.984	93.64
737.166	94.97
737.348	96.18
737.53	95.36
737.712	97.02
737.894	95.49
738.076	94.66
738.258	96.93
738.44	96.03
738.622	95.78
738.804	94.13
738.986	93.26
739.168	92.9
739.35	93.42
739.532	95.88
739.714	94.64
739.896	95.07
740.078	95.98
740.259	96.9
740.441	98.86
740.623	97.76
740.805	100.05
740.987	99.71
741.168	101.71
741.35	101.51
741.532	101.88
741.714	102.87
741.895	104.6
742.077	104.24
742.259	102.47
742.44	103.84
742.622	106.47
742.804	107.37
742.985	109.35
743.167	111.21
743.348	112.39
743.53	110.5
743.711	111.92
743.893	113.03
744.075	112.52
744.256	113.58
744.438	115.62
744.619	112.1
744.8	112.06
744.982	113.25
745.163	109.85
745.345	109.55
745.526	109.42
745.707	109.43
745.889	109.1
746.07	108.76
746.252	110.79
746.433	110.7
746.614	113.92
746.795	113.68
746.977	112.52
747.158	113.83
747.339	113.95
747.52	112.95
747.702	113.69
747.883	111.21
748.064	111.7
748.245	110.41
748.426	108.58
748.607	108.72
748.788	106.71
748.97	107.53
749.151	106.86
749.332	107.67
749.513	109.16
749.694	106.86
749.875	109.39
750.056	109.33
750.237	110.08
750.418	110.25
750.599	107.66
750.78	107.74
750.96	107.35
751.141	107.07
751.322	106.79
751.503	105.31
751.684	106.18
751.865	104.39
752.046	105.92
752.226	104.73
752.407	104.65
752.588	104.82
752.769	105.18
752.949	103.84
753.13	104.85
753.311	104.46
753.492	107.91
753.672	107.74
753.853	108.11
754.034	106.59
754.214	106.07
754.395	106.04
754.575	107.77
754.756	108.04
754.937	109.27
755.117	108.95
755.298	109.45
755.478	108.16
755.659	107.73
755.839	108.36
756.02	106.77
756.2	104.52
756.381	103.31
756.561	102.79
756.741	103.04
756.922	100.3
757.102	98.07
757.283	96.45
757.463	94.63
757.643	93.1
757.823	90.7
758.004	92.27
758.184	93.86
758.364	92.82
758.545	90.35
758.725	87.67
758.905	88.42
759.085	88.57
759.265	86.8
759.446	84.86
759.626	84.99
759.806	84.6
759.986	82.08
760.166	79.22
760.346	78.19
760.526	78.35
760.706	81.04
760.886	79.98
761.066	78.11
761.246	77.43
761.426	77.87
761.606	76.94
761.786	75.44
761.966	74.2
762.146	74.87
762.326	76.31
762.506	76.53
762.686	74.79
762.866	73.59
763.046	73.47
763.225	75.14
763.405	75.23
763.585	76.39
763.765	78.66
763.945	80.76
764.124	82.51
764.304	82.81
764.484	83.62
764.664	84.49
764.843	85.69
765.023	87.88
765.203	87.88
765.382	89.27
765.562	91.18
765.741	93.31
765.921	93.35
766.101	92.46
766.28	92.69
766.46	94.43
766.639	97.32
766.819	97.86
766.998	99.26
767.178	101.25
767.357	102.51
767.537	100.46
767.716	102.19
767.896	104.26
768.075	108.81
768.254	110.93
768.434	111
768.613	109.68
768.792	112.75
768.972	112.58
769.151	113.85
769.33	117.36
769.51	119.98
769.689	117.66
769.868	116.63
770.047	116.58
770.226	112.75
770.406	114.05
770.585	112.43
770.764	110.53
770.943	109.89
771.122	107.95
771.301	106.85
771.48	104.82
771.66	105.99
771.839	105.45
772.018	99.93
772.197	102.53
772.376	102.64
772.555	102.05
772.734	103.63
772.913	103.91
773.092	106.11
773.271	106.16
773.449	107.67
773.628	104.65
773.807	105.32
773.986	110.06
774.165	107.25
774.344	107.29
774.523	111.37
774.701	113.31
774.88	115.13
775.059	115.51
775.238	114.37
775.417	114.05
775.595	114.93
775.774	114.86
775.953	113.82
776.131	116.92
776.31	117.08
776.489	113.62
776.667	114.05
776.846	113.34
777.025	113.46
777.203	113.01
777.382	116.98
777.56	116.85
777.739	114.53
777.917	111.92
778.096	113.41
778.274	112.42
778.453	114.69
778.631	110.78
778.81	110.11
778.988	108.25
779.166	106.88
779.345	104.32
779.523	102
779.702	103.42
779.88	107.25
780.058	106.59
780.237	107.37
780.415	107.42
780.593	110.35
780.771	109.04
780.95	109.28
781.128	108.26
781.306	107.86
781.484	114.88
781.662	114.96
781.841	113.68
782.019	113.52
782.197	111.56
782.375	109.52
782.553	108.24
782.731	108.63
782.909	111.37
783.087	113.27
783.265	113.6
783.443	107.89
783.621	108.51
783.799	109.49
783.977	111.67
784.155	111.49
784.333	110.36
784.511	106.91
784.689	110.54
784.867	108.7
785.045	107.34
785.223	107.19
785.4	107.94
785.578	107.83
785.756	108.64
785.934	104.02
786.112	105.08
786.289	107.94
786.467	109.47
786.645	108.06
786.823	109.41
787	110.37
787.178	108.57
787.356	108.09
787.533	109.8
787.711	108.36
787.889	113.16
788.066	111.57
788.244	109.06
788.421	110.69
788.599	108.12
788.776	104
788.954	104.45
789.131	105.62
789.309	104.54
789.486	105.23
789.664	102.53
789.841	100.28
790.019	100.06
790.196	102.56
790.373	101.47
790.551	103.13
790.728	104.83
790.906	104.43
791.083	101.42
791.26	102.43
791.437	102.02
791.615	103.19
791.792	103.47
791.969	103.97
792.146	103.78
792.324	105.2
792.501	106.2
792.678	106.35
792.855	110.05
793.032	111.95
793.209	112.89
793.387	111.18
793.564	114.14
793.741	114.12
793.918	115.79
794.095	118.24
794.272	117.96
794.449	118.4
794.626	118.51
794.803	114.58
794.98	114.21
795.157	109.17
795.334	108.37
795.511	107.76
795.688	106.31
795.864	107.12
796.041	102.59
796.218	104.78
796.395	104.57
796.572	104.53
796.749	107.44
796.925	109.61
797.102	112.01
797.279	111.14
797.456	107.81
797.632	109.86
797.809	110.04
797.986	114.29
798.162	108.84
798.339	108.82
798.516	107.61
798.692	103.94
798.869	102.45
799.046	103.07
799.222	103.1
799.399	104.73
799.575	105.18
799.752	104.42
799.928	102.2
800.105	103.22
800.281	100.79
800.458	102.16
800.634	103.35
800.811	104.7
800.987	107.48
801.163	110.12
801.34	111.7
801.516	109.39
801.692	106.73
801.869	105.5
802.045	106.94
802.221	108.76
802.398	105.02
802.574	106.39
802.75	106.21
802.926	106.27
803.103	103.09
803.279	100.58
803.455	99.71
803.631	101.98
803.807	100.36
803.983	97.97
804.16	98.99
804.336	102.47
804.512	98.41
804.688	94.7
804.864	93.65
805.04	95.29
805.216	96.87
805.392	99.05
805.568	99.23
805.744	102.27
805.92	106.26
806.096	107.25
806.272	110.53
806.448	116.36
806.623	121.02
806.799	122.06
806.975	119.91
807.151	117.47
807.327	113.97
807.503	110.04
807.678	111.03
807.854	107.8
808.03	105.58
808.206	101.86
808.381	95.17
808.557	94.94
808.733	93.03
808.908	90.18
809.084	93.38
809.26	94.87
809.435	96.43
809.611	96.67
809.787	97.84
809.962	95.64
810.138	95.73
810.313	98.17
810.489	99.28
810.664	99.3
810.84	103.59
811.015	100.18
811.191	100.1
811.366	100.36
811.542	99.18
811.717	101.33
811.892	106.12
812.068	107.42
812.243	110.46
812.419	109.5
812.594	113.85
812.769	111.42
812.944	114.38
813.12	115.69
813.295	114.22
813.47	113.46
813.645	110.59
813.821	106.12
813.996	99.61
814.171	98.23
814.346	98.76
814.521	96.02
814.697	95.13
814.872	95.34
815.047	91.77
815.222	94.07
815.397	92.98
815.572	93.37
815.747	93.63
815.922	97.47
816.097	97.53
816.272	96.32
816.447	96.43
816.622	99.63
816.797	95.54
816.972	94.9
817.147	92.94
817.322	95.08
817.496	93.33
817.671	93.06
817.846	91
818.021	88.96
818.196	87.26
818.371	84.75
818.545	84.28
818.72	86.08
818.895	87.09
819.069	89.76
819.244	85.98
819.419	83.28
819.594	81.46
819.768	80.9
819.943	78.19
820.117	77.65
820.292	76.19
820.467	73.58
820.641	72.53
820.816	71.72
820.99	68.36
821.165	67.79
821.339	66.76
821.514	66.57
821.688	66.06
821.863	65.14
822.037	64.75
822.212	64.98
822.386	64.46
822.56	63.9
822.735	63.92
822.909	64.75
823.084	65.07
823.258	65.68
823.432	65.7
823.606	66.26
823.781	68.55
823.955	68.84
824.129	69.53
824.303	71.2
824.478	69.68
824.652	68.67
824.826	67.66
825	68.32
825.174	69.4
825.348	70.03
825.523	68.91
825.697	69.34
825.871	70.06
826.045	71.34
826.219	72.16
826.393	74.45
826.567	75.41
826.741	76.46
826.915	76.51
827.089	77.05
827.263	76.75
827.437	80.55
827.611	80.02
827.784	81.17
827.958	80.2
828.132	78.26
828.306	79.25
828.48	79.7
828.654	81.17
828.827	82.16
829.001	81.95
829.175	83.17
829.349	82.28
829.522	81.99
829.696	83.08
829.87	83.8
830.044	87.65
830.217	89.86
830.391	90.57
830.565	90.44
830.738	89.31
830.912	91.6
831.085	90.57
831.259	88.92
831.432	91.34
831.606	90.65
831.779	90.64
831.953	87.75
832.126	85.79
832.3	86.87
832.473	86.5
832.647	84.89
832.82	83.16
832.994	83.68
833.167	84.6
833.34	84.43
833.514	82.95
833.687	82
833.86	82.47
834.034	84.08
834.207	84.21
834.38	84.64
834.553	85.45
834.727	88.63
834.9	89.34
835.073	89.28
835.246	89.1
835.419	90.29
835.593	93.22
835.766	94.56
835.939	92.28
836.112	94.11
836.285	97.15
836.458	98.4
836.631	95.29
836.804	96.26
836.977	97.61
837.15	103.84
837.323	104.71
837.496	104.95
837.669	103.39
837.842	107.96
838.015	103.68
838.188	100.07
838.361	99.67
838.533	104.1
838.706	108.09
838.879	108.85
839.052	104.68
839.225	104.42
839.398	102.63
839.57	107.47
839.743	103.88
839.916	104.36
840.088	104.18
840.261	107.35
840.434	102.89
840.607	100.94
840.779	99.42
840.952	98.48
841.124	99.19
841.297	98.78
841.47	97.17
841.642	96.91
841.815	100.55
841.987	100.93
842.16	102.06
842.332	103.97
842.505	104.4
842.677	107.7
842.85	106.06
843.022	107.74
843.194	109.96
843.367	112.12
843.539	114.62
843.712	113.7
843.884	113.31
844.056	115
844.229	115.68
844.401	112.21
844.573	111.04
844.745	111.15
844.918	111
845.09	108.95
845.262	102.47
845.434	104.05
845.606	105.05
845.779	106.06
845.951	103.95
846.123	105.45
846.295	111.19
846.467	107.53
846.639	107.71
846.811	103.19
846.983	107.2
847.155	109.35
847.327	108.51
847.499	106.68
847.671	105.5
847.843	105.89
848.015	103.67
848.187	100.58
848.359	105.17
848.531	106.28
848.703	107.35
848.875	104.35
849.047	107.36
849.218	106.26
849.39	104.53
849.562	104.44
849.734	106.53
849.905	107.11
850.077	106.3
850.249	103.08
850.421	99.04
850.592	104.29
850.764	105.05
850.936	103.43
851.107	106.24
851.279	109.71
851.451	113.36
851.622	113.52
851.794	114
851.965	115.08
852.137	115.06
852.308	123.68
852.48	117.99
852.651	119.43
852.823	117.98
852.994	114.67
853.166	111.79
853.337	113.19
853.509	107.28
853.68	106.63
853.851	107.1
854.023	108.94
854.194	104.26
854.365	107.37
854.537	104.76
854.708	105.8
854.879	103.04
855.05	102.41
855.222	100.29
855.393	102.22
855.564	104.61
855.735	104.29
855.906	103.95
856.078	106.67
856.249	105.7
856.42	106.27
856.591	111.42
856.762	115.3
856.933	117.97
857.104	119.08
857.275	119.41
857.446	119.73
857.617	118.03
857.788	122.93
857.959	125.12
858.13	125.31
858.301	124.29
858.472	118.16
858.643	110.86
858.814	110.49
858.985	110.02
859.155	109.79
859.326	110.38
859.497	110.16
859.668	105.66
859.839	102.85
860.009	102.5
860.18	103.46
860.351	105.34
860.522	111.77
860.692	113.29
860.863	113.98
861.034	112.38
861.204	113.18
861.375	115.48
861.546	117.13
861.716	116.63
861.887	119.62
862.057	121.96
862.228	116.87
862.398	115.92
862.569	115.64
862.739	113.11
862.91	114.08
863.08	111.86
863.251	111.15
863.421	110.61
863.592	110.95
863.762	110.1
863.932	102.83
864.103	103.82
864.273	105.93
864.443	102.74
864.614	104.69
864.784	101.31
864.954	97.37
865.125	98.25
865.295	101.68
865.465	102.04
865.635	98.77
865.805	104.85
865.976	105.13
866.146	101.45
866.316	100.02
866.486	100.07
866.656	102.42
866.826	103.52
866.996	102.12
867.166	98.82
867.336	100.92
867.506	101.18
867.676	101.23
867.846	102.37
868.016	107.42
868.186	107.18
868.356	106.22
868.526	107.3
868.696	110.49
868.866	111.45
869.036	108.31
869.206	105.18
869.376	106.7
869.545	100.03
869.715	99.5
869.885	97.88
870.055	98.11
870.224	100.92
870.394	102.78
870.564	103.98
870.734	104.29
870.903	106.18
871.073	109.61
871.243	107.34
871.412	113.43
871.582	115.53
871.751	112.8
871.921	117.66
872.091	115.8
872.26	115.34
872.43	112.1
872.599	115.12
872.769	114.97
872.938	113.73
873.108	114.59
873.277	110.08
873.446	111.13
873.616	111.06
873.785	107.58
873.955	103.46
874.124	103
874.293	103.61
874.463	104.15
874.632	104.14
874.801	98.4
874.971	101.62
875.14	110.41
875.309	105.85
875.478	104.85
875.647	105.25
875.817	110.76
875.986	110.94
876.155	112.19
876.324	104.5
876.493	106.03
876.662	109.14
876.831	108.16
877	103.2
877.17	108.81
877.339	107.31
877.508	107.22
877.677	104.19
877.846	102.42
878.015	98.44
878.184	103.21
878.352	102.6
878.521	101.86
878.69	102.88
878.859	96.37
879.028	94.2
879.197	99.64
879.366	96.31
879.534	93.37
879.703	90.66
879.872	87.74
880.041	85.26
880.21	87.24
880.378	85.25
880.547	80.62
880.716	80.99
880.884	77.45
881.053	72.4
881.222	72.02
881.39	72.9
881.559	72.31
881.727	72.53
881.896	70.23
882.065	67.65
882.233	67.3
882.402	67.43
882.57	70.31
882.739	71.23
882.907	72.56
883.076	73.73
883.244	73.04
883.412	76.13
883.581	78.09
883.749	80
883.918	80
884.086	81.1
884.254	82.79
884.423	82.82
884.591	82.97
884.759	81.24
884.927	83.67
885.096	84.87
885.264	84.04
885.432	84.49
885.6	85.91
885.769	86.24
885.937	86.18
886.105	85.53
886.273	88
886.441	90.1
886.609	95.18
886.777	94.58
886.945	98.11
887.113	98.41
887.281	96.47
887.449	102.06
887.617	103.08
887.785	108.12
887.953	111.24
888.121	111.51
888.289	111.22
888.457	111.16
888.625	110.49
888.793	110.95
888.961	110.5
889.129	112.43
889.296	107
889.464	109.68
889.632	106.95
889.8	106.4
889.967	104.18
890.135	104.6
