Data from JASIL_3136_Reflection_1.txt Node
Date: Thu Nov 12 20:46:12 EST 2015
User: Geneva
Spectrometer: USB4E03002
Autoset integration time: false
Trigger mode: 4
Integration Time (sec): 1.000000E-1
Scans to average: 10
Electric dark correction enabled: true
Nonlinearity correction enabled: false
Boxcar width: 5
Stray light correction enabled: false
XAxis mode: Wavelengths
Stop averaging: false
Number of Pixels in Spectrum: 3648
>>>>>Begin Spectral Data<<<<<
177.575	344.87
177.794	384.36
178.014	519.5
178.233	82.81
178.452	110.7
178.672	1412.82
178.891	168.13
179.11	103.81
179.33	98.56
179.549	23.7
179.768	-163.85
179.987	157.24
180.207	-3457.69
180.426	40.78
180.645	102.53
180.864	60.81
181.084	53.05
181.303	66.4
181.522	101.87
181.741	55.88
181.96	-49.7
182.179	-52.51
182.398	-13.36
182.618	41.75
182.837	100.06
183.056	227.46
183.275	-600.38
183.494	680.89
183.713	297.6
183.932	350.7
184.151	489.24
184.37	385.11
184.589	353.19
184.808	785.95
185.027	965.79
185.246	718.62
185.465	-948.79
185.684	576.58
185.903	-289.25
186.122	-182.69
186.341	-286.19
186.56	-186.12
186.779	2.69
186.998	34.12
187.216	77.9
187.435	84.93
187.654	100.28
187.873	2742.31
188.092	108.27
188.311	-122.98
188.53	614.69
188.748	262.99
188.967	142.04
189.186	72.32
189.405	89.08
189.623	191.65
189.842	-12.72
190.061	0.58
190.28	13.45
190.498	25.74
190.717	-3.25
190.936	12.14
191.154	27.83
191.373	35.78
191.592	103.82
191.81	113.85
192.029	84.41
192.248	-95.99
192.466	18.83
192.685	-821.15
192.904	-665.81
193.122	-16.76
193.341	44.6
193.559	87.93
193.778	86.48
193.996	122.14
194.215	143.23
194.433	108.36
194.652	44.23
194.87	96.08
195.089	52.63
195.307	26.67
195.526	-19.91
195.744	6.75
195.963	846.15
196.181	49.56
196.399	73.86
196.618	-10.47
196.836	-72.79
197.055	-38.46
197.273	-26.24
197.491	-14.16
197.71	23.68
197.928	10.06
198.146	11.6
198.365	15.13
198.583	11.39
198.801	0.56
199.019	22.27
199.238	38.01
199.456	55.94
199.674	83.76
199.892	103.66
200.111	101.57
200.329	122.37
200.547	127.28
200.765	174.42
200.983	152.74
201.202	157.15
201.42	149.24
201.638	159.51
201.856	134.39
202.074	87.25
202.292	1012.67
202.51	-1.9
202.728	24
202.946	36.73
203.165	9.42
203.383	60.06
203.601	84.52
203.819	102.27
204.037	115.65
204.255	48.26
204.473	-36.17
204.691	13.53
204.909	62.61
205.127	83.98
205.345	-1.2
205.562	1.16
205.78	123.67
205.998	-550.96
206.216	702.75
206.434	-171.99
206.652	9.1
206.87	36.92
207.088	58.48
207.306	95.95
207.523	240.5
207.741	467.4
207.959	-51.52
208.177	4515.38
208.395	24.93
208.612	-40.18
208.83	-1.67
209.048	-6.48
209.266	-12.95
209.483	11.64
209.701	25.54
209.919	11.65
210.136	-1.11
210.354	23.19
210.572	42.73
210.79	42.18
211.007	80.74
211.225	63.86
211.442	148.07
211.66	256.49
211.878	-420.51
212.095	-68.61
212.313	-117.59
212.53	-96.89
212.748	-124.5
212.966	-27.52
213.183	-39.46
213.401	15.01
213.618	11.35
213.836	4.03
214.053	-46.83
214.271	-53.41
214.488	-106.52
214.705	47.32
214.923	-1626.28
215.14	264.59
215.358	127.79
215.575	121.45
215.793	158.11
216.01	248.15
216.227	307.79
216.445	139.25
216.662	91.98
216.879	104.22
217.097	-185.73
217.314	-233.97
217.531	36.91
217.749	31.76
217.966	35.96
218.183	27.45
218.4	-246.47
218.618	7.51
218.835	66.27
219.052	81.75
219.269	88.58
219.487	84.01
219.704	99.69
219.921	99.54
220.138	85.42
220.355	80.19
220.572	87.99
220.79	88.95
221.007	148.57
221.224	135.49
221.441	111.92
221.658	123.49
221.875	105.08
222.092	116.87
222.309	120.15
222.526	133.12
222.743	146.78
222.96	130.7
223.177	116.48
223.394	110.32
223.611	196.35
223.828	26615.38
224.045	202.81
224.262	-1804.44
224.479	477.07
224.696	2701.18
224.913	-305.68
225.13	-174.6
225.347	-183.93
225.564	-351.49
225.781	-364.91
225.997	-149.02
226.214	-154.82
226.431	-15.47
226.648	-24.6
226.865	-15.42
227.082	-16.48
227.298	-9.47
227.515	-18.56
227.732	-13.24
227.949	-7.42
228.165	-13.84
228.382	-23.24
228.599	-16.95
228.816	-9.04
229.032	-12.5
229.249	-14.78
229.466	-17.36
229.682	-20.65
229.899	-24.05
230.116	-23.45
230.332	-20.84
230.549	-29.32
230.765	-18.22
230.982	-31.94
231.199	-57.5
231.415	-43.13
231.632	-21.66
231.848	-14.82
232.065	-9.27
232.281	-5.1
232.498	-1.62
232.714	3.97
232.931	30.21
233.147	36.04
233.364	28.7
233.58	28.27
233.797	12.36
234.013	18.64
234.23	2.48
234.446	9.57
234.662	3.69
234.879	-2.47
235.095	-13.47
235.312	-38.44
235.528	-77.46
235.744	-79.96
235.961	-65.23
236.177	-49.3
236.393	-108.46
236.61	-77.64
236.826	-119.84
237.042	-88.98
237.258	-76.27
237.475	-84.82
237.691	-100.2
237.907	-55.73
238.123	-30.58
238.339	-37.47
238.556	-29.94
238.772	-17.37
238.988	-15.55
239.204	-5.02
239.42	0.41
239.636	-18.84
239.853	-2.2
240.069	10.64
240.285	15.7
240.501	5.39
240.717	0.92
240.933	-1.69
241.149	-2.75
241.365	0.07
241.581	2.91
241.797	0.91
242.013	8.95
242.229	7.49
242.445	8.42
242.661	4.68
242.877	15.57
243.093	20.56
243.309	22.17
243.525	28.66
243.741	26.82
243.957	21.62
244.173	17.21
244.388	19.2
244.604	15.74
244.82	10.01
245.036	5.93
245.252	-2.59
245.468	-5.49
245.683	-8.14
245.899	-12.04
246.115	-8.85
246.331	-5.2
246.547	-4.4
246.762	-6.46
246.978	-7.61
247.194	-10.42
247.409	-8.82
247.625	-5.41
247.841	-6.6
248.057	-3.39
248.272	-5.36
248.488	-9.85
248.703	-10.84
248.919	-14.52
249.135	-19.92
249.35	-14.36
249.566	-17.02
249.782	-13.54
249.997	-10.73
250.213	-9.08
250.428	-11.85
250.644	-6.16
250.859	-2.99
251.075	-2.52
251.29	-2.37
251.506	0.03
251.721	-2.19
251.937	-0.53
252.152	0.71
252.368	-1.99
252.583	-2.46
252.798	0.45
253.014	-2.68
253.229	0.43
253.445	0.63
253.66	4.63
253.875	3.88
254.091	-0.23
254.306	-0.23
254.521	-1.02
254.737	-4.6
254.952	-9.02
255.167	-16.57
255.383	-11.85
255.598	-10.52
255.813	-12.03
256.028	-13.34
256.244	-14.43
256.459	-7.47
256.674	-8.28
256.889	-13.45
257.104	-13.37
257.32	-7.03
257.535	-2.7
257.75	-1.68
257.965	-2.38
258.18	1
258.395	2.52
258.61	4.03
258.826	1.15
259.041	3.62
259.256	4.23
259.471	5.86
259.686	5.44
259.901	2.97
260.116	2.91
260.331	5.72
260.546	1.74
260.761	3.13
260.976	-0.83
261.191	2.1
261.406	-1.16
261.621	-2.75
261.836	-3.35
262.05	-4.66
262.265	2.44
262.48	4.99
262.695	-1.27
262.91	9.92
263.125	3.93
263.34	6.53
263.555	10.48
263.769	13.46
263.984	15.16
264.199	13.62
264.414	19.86
264.629	16.21
264.843	11.32
265.058	12.12
265.273	3.16
265.488	4.28
265.702	6.43
265.917	2.6
266.132	0.39
266.346	-2.34
266.561	-4.45
266.776	-9.48
266.99	-7.49
267.205	-8.94
267.42	-12.81
267.634	-10.93
267.849	-11.79
268.063	-14.86
268.278	-13.86
268.492	-11.25
268.707	-10.66
268.922	-4.38
269.136	-1.82
269.351	-6.35
269.565	-5.95
269.78	-7.91
269.994	-5.78
270.209	-3.52
270.423	-2.12
270.637	-1.17
270.852	-3.57
271.066	-2.93
271.281	-4.43
271.495	-3.77
271.709	-0.83
271.924	-0.3
272.138	3.65
272.353	2.4
272.567	-0.28
272.781	-0.72
272.996	-2.28
273.21	-0.33
273.424	3.81
273.638	5.34
273.853	2.37
274.067	-0.94
274.281	-2.12
274.495	-2.02
274.71	-2.71
274.924	-0.19
275.138	2.75
275.352	0.34
275.566	-4.5
275.781	-10.33
275.995	-14.86
276.209	-14.1
276.423	-10.74
276.637	-8.07
276.851	-10.73
277.065	-7
277.279	-9.89
277.493	-6.14
277.707	-4.98
277.921	-5.08
278.135	-5.57
278.349	-3.07
278.563	-2.98
278.777	-0.68
278.991	-5.13
279.205	-7.52
279.419	-5.36
279.633	-5.23
279.847	-10.82
280.061	-10.59
280.275	-8.45
280.489	-4.59
280.703	-4.22
280.917	-5.84
281.131	-6.21
281.344	-2.85
281.558	-3.19
281.772	-10.23
281.986	-7.99
282.2	-9.89
282.414	-5.12
282.627	-2.86
282.841	-5.15
283.055	-4.55
283.269	-4.38
283.482	-7.46
283.696	-8.03
283.91	-6.34
284.123	-5.54
284.337	-5.52
284.551	-3.36
284.764	-5.75
284.978	-4.51
285.192	-4.21
285.405	-7.02
285.619	-5.79
285.833	-3.08
286.046	-1.63
286.26	1.27
286.473	2.32
286.687	3.32
286.9	5.17
287.114	6.82
287.327	4.81
287.541	5
287.754	5.31
287.968	4.21
288.181	3.93
288.395	2.55
288.608	1.67
288.822	3.15
289.035	2.38
289.248	0.63
289.462	-0.56
289.675	-1.55
289.889	0.04
290.102	1.26
290.315	3.42
290.529	1.93
290.742	2.25
290.955	0.47
291.169	-0.38
291.382	-0.82
291.595	-1.61
291.808	-0.6
292.022	3.13
292.235	4.26
292.448	4.57
292.661	1.34
292.875	0.36
293.088	-1.03
293.301	-0.27
293.514	-1.09
293.727	-0.54
293.94	2.31
294.153	2.53
294.367	-0.03
294.58	0.62
294.793	0.68
295.006	2.1
295.219	3.53
295.432	4.46
295.645	3.66
295.858	3.38
296.071	2.48
296.284	-0.16
296.497	-1.97
296.71	-1.91
296.923	-3.38
297.136	-2.85
297.349	-4.26
297.562	-3.57
297.775	-3.17
297.988	-2.05
298.201	-1.44
298.414	-2.68
298.626	0.31
298.839	2.23
299.052	2.94
299.265	4.06
299.478	1.9
299.691	3.6
299.903	0.85
300.116	0.08
300.329	0.49
300.542	1.99
300.755	1.67
300.967	-0.67
301.18	-2.56
301.393	-5.02
301.605	-7.5
301.818	-6.8
302.031	-7.52
302.243	-4.49
302.456	-6.86
302.669	-5.42
302.881	-5.27
303.094	-2.18
303.307	-0.64
303.519	3.58
303.732	5.22
303.944	3.86
304.157	4.12
304.37	3.63
304.582	3.87
304.795	4.61
305.007	4.31
305.22	0.8
305.432	-0.19
305.645	-3.95
305.857	-9.23
306.069	-9.47
306.282	-7.28
306.494	-7.26
306.707	-3.03
306.919	-5.95
307.132	-3.1
307.344	-3.94
307.556	-5.37
307.769	-5.53
307.981	-2.11
308.193	-1.31
308.406	-2.34
308.618	-1.9
308.83	1.18
309.043	-1.29
309.255	2.22
309.467	2.25
309.679	2.32
309.892	2.97
310.104	5.49
310.316	6.19
310.528	6.01
310.74	7.4
310.953	8.2
311.165	4.95
311.377	6.01
311.589	4.05
311.801	2.45
312.013	3.12
312.225	4.41
312.437	2.05
312.649	3.24
312.862	4.59
313.074	4.54
313.286	4.13
313.498	3.95
313.71	4.05
313.922	4.3
314.134	7.14
314.346	5.29
314.558	5.13
314.77	4.58
314.982	2.12
315.193	0.4
315.405	0.7
315.617	0.33
315.829	3.88
316.041	1.34
316.253	1.18
316.465	-3.51
316.677	-4.65
316.888	-3.44
317.1	-1.79
317.312	-1.01
317.524	-0.68
317.736	-0.14
317.947	2.52
318.159	-0.11
318.371	1.76
318.583	2.03
318.794	4.52
319.006	6.22
319.218	4.4
319.43	4.6
319.641	4.24
319.853	5.61
320.064	5.42
320.276	-0.63
320.488	0.73
320.699	2.55
320.911	1.62
321.123	3.2
321.334	0.59
321.546	2.01
321.757	0.31
321.969	-1.24
322.18	-2.77
322.392	-3.45
322.603	0.03
322.815	-0.02
323.026	-0.46
323.238	0.38
323.449	-0.17
323.661	2.98
323.872	0.01
324.083	0.68
324.295	2.38
324.506	1.66
324.718	2.4
324.929	1.85
325.14	1.22
325.352	-1.44
325.563	-2.43
325.774	-1.92
325.986	1.02
326.197	3.24
326.408	2.86
326.62	1.22
326.831	4.14
327.042	4.86
327.253	4.26
327.464	3.62
327.676	5.59
327.887	6.23
328.098	6.92
328.309	4.57
328.52	6.11
328.732	6.32
328.943	4.05
329.154	0.7
329.365	0.57
329.576	1.52
329.787	3.14
329.998	2.21
330.209	2.41
330.42	1.49
330.631	-0
330.842	0.86
331.053	2.12
331.264	3.49
331.475	6.25
331.686	5.3
331.897	4.97
332.108	1.73
332.319	-1.42
332.53	-0.03
332.741	1.01
332.952	3.09
333.163	0.83
333.374	-0.58
333.585	1.91
333.795	-0.63
334.006	1.68
334.217	2.34
334.428	6.9
334.639	11.41
334.849	8.71
335.06	5.75
335.271	3.19
335.482	2.45
335.692	3.25
335.903	4.42
336.114	4.99
336.325	1.43
336.535	1.82
336.746	-0.9
336.957	-1.01
337.167	-0.96
337.378	0.66
337.589	0.3
337.799	1.21
338.01	2.04
338.22	2.27
338.431	2.86
338.642	3.38
338.852	3.77
339.063	5.49
339.273	4.18
339.484	8.02
339.694	7.96
339.905	9.51
340.115	11.04
340.326	9.99
340.536	10.26
340.746	10.1
340.957	9.01
341.167	6.97
341.378	8.15
341.588	7.62
341.799	7.11
342.009	7.84
342.219	7.64
342.43	5.9
342.64	6.15
342.85	3.87
343.061	3.27
343.271	4.45
343.481	6.6
343.691	3.22
343.902	3.83
344.112	1.5
344.322	0.07
344.532	1.17
344.743	1.79
344.953	2.53
345.163	3.02
345.373	4.55
345.583	5.8
345.793	5.09
346.004	6
346.214	7.19
346.424	8.8
346.634	9.46
346.844	8.8
347.054	8.06
347.264	8.54
347.474	8.59
347.684	8.52
347.894	8.29
348.104	6.76
348.314	7.5
348.524	5.89
348.734	3.61
348.944	5.35
349.154	4.47
349.364	5.98
349.574	4.13
349.784	3.61
349.994	5.33
350.204	4.86
350.413	5.22
350.623	7.63
350.833	8.64
351.043	9.18
351.253	7.69
351.463	7.62
351.672	6.26
351.882	6.9
352.092	7.78
352.302	5.99
352.511	5.16
352.721	6.55
352.931	3.74
353.141	3
353.35	3.62
353.56	1.33
353.77	2.3
353.979	4.13
354.189	4.24
354.399	3.08
354.608	1.48
354.818	2.44
355.027	2.36
355.237	2.16
355.447	1.45
355.656	0.11
355.866	2.44
356.075	2.52
356.285	1.23
356.494	1.34
356.704	2.79
356.913	3.21
357.123	4.19
357.332	3.59
357.542	3.92
357.751	5.3
357.96	5.83
358.17	4.81
358.379	2.98
358.589	3.71
358.798	3.35
359.007	2.08
359.217	2.72
359.426	2.58
359.635	3.1
359.845	3.56
360.054	3.41
360.263	4.14
360.472	4.43
360.682	5.94
360.891	5.53
361.1	6.22
361.309	7.63
361.519	8.19
361.728	7.46
361.937	6.92
362.146	6.1
362.355	5.78
362.564	5.67
362.774	5.19
362.983	5.09
363.192	4.92
363.401	4.81
363.61	1.58
363.819	1.87
364.028	3.44
364.237	4.31
364.446	4.69
364.655	4.97
364.864	5.91
365.073	7.06
365.282	4.64
365.491	3.93
365.7	4.45
365.909	7.05
366.118	5.57
366.327	4.57
366.536	3.99
366.745	3.94
366.954	5.25
367.162	4.82
367.371	5.96
367.58	8.04
367.789	7.25
367.998	5.74
368.207	5.52
368.415	6.63
368.624	4.93
368.833	5.39
369.042	6.27
369.25	5.52
369.459	5.11
369.668	4.73
369.877	4.16
370.085	6.6
370.294	6.09
370.503	5.8
370.711	6.01
370.92	6.58
371.129	7.23
371.337	6.01
371.546	5.75
371.754	5.39
371.963	2.64
372.171	3.44
372.38	2.86
372.589	4.27
372.797	3.36
373.006	3
373.214	4.02
373.423	2.81
373.631	3.28
373.84	1.45
374.048	2.02
374.256	3.26
374.465	4.4
374.673	4.75
374.882	5.04
375.09	5.23
375.298	4.08
375.507	3.67
375.715	5.06
375.923	4.59
376.132	5.31
376.34	5.17
376.548	5.81
376.757	3.75
376.965	2.51
377.173	1.66
377.381	1.87
377.59	1.47
377.798	0.99
378.006	-0.31
378.214	0.67
378.423	0.42
378.631	-0.4
378.839	-0.09
379.047	1.26
379.255	2.15
379.463	2.22
379.671	2.52
379.879	3.8
380.088	3.49
380.296	3.79
380.504	1.65
380.712	2.39
380.92	2.58
381.128	2.85
381.336	2.41
381.544	1.48
381.752	2.07
381.96	2.24
382.168	2.9
382.376	3.93
382.584	3.5
382.791	5.46
382.999	5.43
383.207	5.23
383.415	4.13
383.623	4.19
383.831	4.64
384.039	4.06
384.247	2.48
384.454	1.01
384.662	1.45
384.87	1.31
385.078	0.72
385.285	-0.13
385.493	-0.53
385.701	-0.36
385.909	-1.46
386.116	-0.7
386.324	-0.85
386.532	0.8
386.739	1.66
386.947	0.04
387.155	0.77
387.362	1.61
387.57	1.58
387.778	2.7
387.985	2.53
388.193	3.39
388.4	1.2
388.608	0.06
388.816	0.13
389.023	-1.68
389.231	-1.44
389.438	-1.44
389.646	-0.93
389.853	-0.48
390.061	-0.09
390.268	1.04
390.475	1.65
390.683	3.48
390.89	4.12
391.098	4.79
391.305	5.77
391.512	5.77
391.72	5.1
391.927	4.9
392.135	4.14
392.342	3.73
392.549	3.07
392.756	2.69
392.964	2.9
393.171	2.88
393.378	2.43
393.586	3.39
393.793	3.26
394	3.37
394.207	3.27
394.414	4.17
394.622	3.93
394.829	4.78
395.036	3.51
395.243	2.35
395.45	2.64
395.657	1.72
395.864	0.38
396.072	0.66
396.279	1.13
396.486	-0.25
396.693	-0.55
396.9	-0.79
397.107	-1.72
397.314	-0.44
397.521	-0.25
397.728	0.8
397.935	0.62
398.142	0.62
398.349	1.54
398.556	1.7
398.763	2.71
398.97	2.88
399.177	3.81
399.383	3.69
399.59	2.49
399.797	2.33
400.004	1.45
400.211	2.28
400.418	2.94
400.625	2.19
400.831	1.82
401.038	2.08
401.245	2.51
401.452	1.81
401.658	1.83
401.865	3.85
402.072	4.6
402.279	4.99
402.485	4.46
402.692	3.79
402.899	2.99
403.105	2.84
403.312	2.53
403.519	2.23
403.725	1.53
403.932	1.56
404.138	1.68
404.345	0.62
404.552	-0.11
404.758	0.94
404.965	0.38
405.171	1.59
405.378	1.58
405.584	0.57
405.791	0.84
405.997	1.51
406.204	2.41
406.41	1.33
406.617	2.07
406.823	2.22
407.029	0.87
407.236	2.3
407.442	2.37
407.649	2.51
407.855	3.38
408.061	3.37
408.268	3.14
408.474	2.05
408.68	2.34
408.887	1.99
409.093	2.7
409.299	3.28
409.505	1.81
409.712	0.62
409.918	0.01
410.124	-0.27
410.33	-0.41
410.537	0.1
410.743	0.06
410.949	0.09
411.155	0.17
411.361	-2.19
411.567	-1.91
411.773	-0.66
411.98	-0.6
412.186	0.4
412.392	1.48
412.598	2.31
412.804	1.58
413.01	1.61
413.216	1.61
413.422	1.69
413.628	3
413.834	2.62
414.04	2.69
414.246	3.04
414.452	2.98
414.658	2.06
414.864	0.78
415.07	1.69
415.275	1.7
415.481	1.8
415.687	2.25
415.893	3.16
416.099	2.92
416.305	3.06
416.511	2.94
416.716	2.98
416.922	3.62
417.128	4.2
417.334	4.04
417.539	4.15
417.745	3.8
417.951	3.39
418.157	3.66
418.362	4.1
418.568	4.02
418.774	4.02
418.979	3.6
419.185	3.18
419.391	2.94
419.596	3.37
419.802	2.74
420.008	2.72
420.213	7.33
420.419	6.67
420.624	6.86
420.83	6.91
421.035	7.22
421.241	6.93
421.446	7.45
421.652	7.35
421.857	6.86
422.063	7.02
422.268	7.13
422.474	2.4
422.679	2.57
422.885	1.9
423.09	1.77
423.295	1.53
423.501	1.94
423.706	1.69
423.911	1.54
424.117	2.08
424.322	2.39
424.527	2.68
424.733	2.94
424.938	3.13
425.143	3.42
425.349	3.3
425.554	3.58
425.759	3.36
425.964	3.43
426.169	3.76
426.375	3.16
426.58	3.08
426.785	3.06
426.99	2.96
427.195	2.92
427.4	2.7
427.605	3.07
427.811	2.41
428.016	2.76
428.221	2.64
428.426	3.14
428.631	3.28
428.836	3.18
429.041	2.55
429.246	2.61
429.451	2.55
429.656	2.79
429.861	2.06
430.066	1.81
430.271	1.89
430.476	1.24
430.681	1.22
430.886	1.21
431.09	1.08
431.295	1.52
431.5	1.88
431.705	2.26
431.91	2.21
432.115	2.5
432.32	3.09
432.524	3.03
432.729	3.23
432.934	3.16
433.139	3.45
433.343	4.01
433.548	3.72
433.753	3.38
433.958	3.05
434.162	3.2
434.367	3.25
434.572	3.19
434.776	3.11
434.981	3.32
435.186	3.15
435.39	2.71
435.595	2.11
435.799	1.81
436.004	2.21
436.209	1.94
436.413	1.83
436.618	1.34
436.822	1.5
437.027	2.16
437.231	1.92
437.436	1.66
437.64	1.93
437.845	2.22
438.049	2.61
438.253	2.66
438.458	3.12
438.662	2.85
438.867	3.21
439.071	3
439.275	2.62
439.48	2.78
439.684	2.85
439.888	2.36
440.093	1.84
440.297	1.99
440.501	1.57
440.706	0.91
440.91	1.29
441.114	1.29
441.318	1.38
441.523	1.49
441.727	1.39
441.931	0.83
442.135	1.17
442.339	1.7
442.543	1.74
442.748	1.92
442.952	1.83
443.156	1.69
443.36	1.81
443.564	1.76
443.768	1.35
443.972	1.39
444.176	2.01
444.38	2.13
444.584	2.16
444.788	1.56
444.992	1.8
445.196	2.5
445.4	2.9
445.604	2.95
445.808	2.83
446.012	2.82
446.216	2.86
446.42	2.79
446.624	2.99
446.828	2.69
447.032	2.79
447.235	2.91
447.439	2.54
447.643	2.15
447.847	1.99
448.051	1.91
448.254	1.86
448.458	1.44
448.662	1.74
448.866	1.01
449.069	1.74
449.273	1.95
449.477	1.14
449.681	0.95
449.884	1.13
450.088	1.16
450.292	1.1
450.495	1.65
450.699	1.93
450.902	2.18
451.106	2.22
451.31	1.92
451.513	1.69
451.717	2.15
451.92	1.93
452.124	1.68
452.327	2.34
452.531	2.48
452.734	2.12
452.938	2.46
453.141	1.86
453.345	2.21
453.548	1.97
453.752	2.23
453.955	2.66
454.158	3.07
454.362	2.77
454.565	2.54
454.769	2.03
454.972	2.07
455.175	1.81
455.379	1.7
455.582	1.98
455.785	1.5
455.988	1.48
456.192	1.25
456.395	0.86
456.598	0.47
456.801	-0.78
457.005	-0.4
457.208	-0.14
457.411	0.02
457.614	0.11
457.817	-0.22
458.021	0.31
458.224	0.49
458.427	0.55
458.63	0.93
458.833	1.41
459.036	1.5
459.239	1.78
459.442	1.47
459.645	1.92
459.848	1.95
460.051	1.99
460.254	1.95
460.457	1.91
460.66	1.62
460.863	1.84
461.066	1.95
461.269	2.33
461.472	1.92
461.675	2.36
461.878	1.85
462.081	2.03
462.284	2.09
462.486	1.86
462.689	1.64
462.892	2.08
463.095	1.28
463.298	1.47
463.5	1.6
463.703	2.15
463.906	1.9
464.109	1.88
464.311	2.16
464.514	2
464.717	2.57
464.92	3
465.122	2.91
465.325	3.41
465.528	2.7
465.73	3.35
465.933	2.75
466.135	1.86
466.338	1.44
466.541	0.95
466.743	0.83
466.946	0.73
467.148	0.89
467.351	0.74
467.553	0.7
467.756	0.92
467.958	0.05
468.161	0.5
468.363	1.85
468.566	2.44
468.768	2.33
468.971	2.08
469.173	1.99
469.375	2.06
469.578	2.05
469.78	1.61
469.983	1.62
470.185	1.68
470.387	1.82
470.59	1.54
470.792	1.75
470.994	1.7
471.196	2.28
471.399	2.14
471.601	1.3
471.803	1.26
472.005	1.53
472.208	1.68
472.41	1.6
472.612	1.3
472.814	1.41
473.016	1.3
473.218	1.56
473.421	1.85
473.623	1.78
473.825	1.63
474.027	1.49
474.229	1.31
474.431	1.06
474.633	0.87
474.835	0.66
475.037	0.31
475.239	-0.2
475.441	-0.29
475.643	-0.24
475.845	-0.08
476.047	-0.02
476.249	0.18
476.451	0.35
476.653	0.59
476.855	1.24
477.057	1.73
477.258	1.88
477.46	2.12
477.662	2.31
477.864	1.9
478.066	1.64
478.268	2.06
478.469	2.15
478.671	2.38
478.873	2.17
479.075	1.81
479.276	1.69
479.478	1.82
479.68	1.59
479.882	1.33
480.083	1.52
480.285	1.91
480.487	2.15
480.688	1.87
480.89	1.93
481.091	2.3
481.293	2.44
481.495	2.65
481.696	2.53
481.898	2.55
482.099	2.57
482.301	2.58
482.502	2.6
482.704	2.28
482.905	2.4
483.107	2.28
483.308	2.18
483.51	2.36
483.711	2.23
483.913	2.21
484.114	2.19
484.315	2.24
484.517	2.41
484.718	2.36
484.92	2.8
485.121	2.75
485.322	2.98
485.524	3.19
485.725	3.03
485.926	2.9
486.127	2.78
486.329	2.76
486.53	2.68
486.731	2.32
486.932	2.22
487.134	1.99
487.335	1.97
487.536	1.97
487.737	1.72
487.938	1.57
488.139	1.61
488.341	1.89
488.542	1.81
488.743	1.82
488.944	1.99
489.145	2.1
489.346	1.75
489.547	1.89
489.748	1.74
489.949	1.88
490.15	2.12
490.351	2.43
490.552	2.39
490.753	2.56
490.954	2.62
491.155	2.74
491.356	2.39
491.557	2.72
491.758	2.76
491.959	2.86
492.159	2.95
492.36	2.81
492.561	2.65
492.762	2.43
492.963	2.23
493.164	2.07
493.364	1.78
493.565	2.19
493.766	2.59
493.967	2.58
494.167	2.54
494.368	2.5
494.569	2.39
494.769	2.52
494.97	2.88
495.171	3.01
495.371	3.14
495.572	3.15
495.773	3.03
495.973	2.5
496.174	2.53
496.375	2.44
496.575	2.33
496.776	2.57
496.976	2.02
497.177	1.3
497.377	1.31
497.578	1.19
497.778	0.97
497.979	1.33
498.179	1.37
498.38	1.46
498.58	1.05
498.78	1.35
498.981	0.91
499.181	1.48
499.382	1.8
499.582	1.52
499.782	1.74
499.983	1.41
500.183	1.08
500.383	1.2
500.584	0.09
500.784	0.67
500.984	0.21
501.184	1.04
501.385	0.96
501.585	1.07
501.785	1.23
501.985	1.58
502.185	2.12
502.386	2.86
502.586	2.81
502.786	3.62
502.986	3.18
503.186	3.36
503.386	3.25
503.586	3.02
503.786	3.23
503.987	3.43
504.187	2.81
504.387	2.87
504.587	1.98
504.787	2.02
504.987	2.01
505.187	2.04
505.387	2.11
505.587	2.01
505.786	2.41
505.986	2.71
506.186	2.61
506.386	3.14
506.586	3.45
506.786	3.74
506.986	3.54
507.186	3.73
507.386	4.2
507.585	4.06
507.785	3.53
507.985	3.34
508.185	3
508.384	3.14
508.584	3.34
508.784	3.1
508.984	3.22
509.183	3.21
509.383	3.1
509.583	3.25
509.782	3.33
509.982	3.9
510.182	3.97
510.381	3.93
510.581	4.13
510.781	3.79
510.98	3.55
511.18	3.63
511.379	3.91
511.579	4.16
511.778	3.51
511.978	3.37
512.177	3.37
512.377	3.47
512.576	4.03
512.776	4.16
512.975	4.48
513.175	4.57
513.374	4.43
513.573	4.77
513.773	4.22
513.972	5.03
514.172	5.01
514.371	4.69
514.57	4.81
514.77	4.16
514.969	4.16
515.168	4.16
515.367	4.6
515.567	4.56
515.766	4.26
515.965	4.84
516.164	4.39
516.364	4.38
516.563	4.95
516.762	4.75
516.961	5.36
517.16	5.28
517.359	4.98
517.559	4.79
517.758	4.7
517.957	5.02
518.156	4.98
518.355	5.28
518.554	5.76
518.753	5.71
518.952	5.8
519.151	5.46
519.35	5.35
519.549	5.33
519.748	5.61
519.947	5.56
520.146	5.13
520.345	5.08
520.544	4.9
520.743	4.34
520.942	4.07
521.141	4.17
521.339	4.54
521.538	4.69
521.737	4.91
521.936	4.76
522.135	5.25
522.333	5.35
522.532	5.48
522.731	5.38
522.93	5.49
523.129	5.66
523.327	5.52
523.526	5.4
523.725	5.65
523.923	5.91
524.122	5.92
524.321	5.93
524.519	6
524.718	6.17
524.917	6.45
525.115	6.85
525.314	7.01
525.512	7.23
525.711	7.5
525.909	7.51
526.108	7.43
526.306	7.46
526.505	7.59
526.703	7.43
526.902	7.46
527.1	7.61
527.299	7.53
527.497	7.48
527.696	7.53
527.894	7.51
528.092	7.4
528.291	7.27
528.489	7.19
528.688	7.17
528.886	7.27
529.084	7.33
529.283	7.08
529.481	6.92
529.679	6.93
529.877	6.79
530.076	6.66
530.274	6.65
530.472	7.09
530.67	7.48
530.869	7.3
531.067	7.57
531.265	7.42
531.463	7.61
531.661	7.95
531.859	8.15
532.057	8.37
532.255	8.18
532.454	8.22
532.652	8.08
532.85	8.09
533.048	8.24
533.246	8.18
533.444	8.18
533.642	8.26
533.84	8.31
534.038	8.22
534.236	8.18
534.434	8.54
534.632	8.91
534.83	8.9
535.027	8.9
535.225	8.69
535.423	8.67
535.621	8.63
535.819	8.47
536.017	8.28
536.215	8.22
536.412	8.02
536.61	8.09
536.808	7.44
537.006	7.62
537.203	7.54
537.401	7.96
537.599	8.21
537.797	8.31
537.994	8.52
538.192	8.85
538.39	8.86
538.587	9.05
538.785	9.01
538.983	9.67
539.18	9.32
539.378	9.35
539.575	9.43
539.773	9.48
539.97	9.74
540.168	9.83
540.366	9.9
540.563	9.97
540.761	10.04
540.958	9.98
541.155	9.84
541.353	10.19
541.55	10.44
541.748	10.45
541.945	10.3
542.143	10.29
542.34	10.65
542.537	10.52
542.735	10.56
542.932	10.43
543.129	10.31
543.327	10.33
543.524	10.12
543.721	9.41
543.919	9.34
544.116	9.74
544.313	9.47
544.51	8.89
544.708	9.02
544.905	9.1
545.102	9.12
545.299	9.38
545.496	9.53
545.693	9.95
545.891	10.87
546.088	10.85
546.285	10.71
546.482	11.21
546.679	11.48
546.876	11.08
547.073	10.78
547.27	11.18
547.467	11.57
547.664	12.06
547.861	11.52
548.058	11.59
548.255	11.8
548.452	11.72
548.649	11.66
548.846	11.05
549.043	11.62
549.24	12.16
549.437	12.04
549.633	11.47
549.83	10.77
550.027	10.95
550.224	10.71
550.421	10.6
550.618	10.73
550.814	10.44
551.011	11.45
551.208	11.48
551.405	11.48
551.601	11.65
551.798	11.76
551.995	11.76
552.191	12.31
552.388	12.6
552.585	13.08
552.781	13.39
552.978	13.26
553.175	12.43
553.371	12.41
553.568	11.53
553.764	11.25
553.961	10.86
554.157	10.93
554.354	9.83
554.55	9.59
554.747	8.48
554.943	8.11
555.14	8.53
555.336	8.92
555.533	9.1
555.729	9.98
555.926	10.46
556.122	11.38
556.318	11.58
556.515	12.33
556.711	12.78
556.907	13.69
557.104	13.98
557.3	14.15
557.496	15.03
557.693	15.13
557.889	15.81
558.085	15.75
558.281	15.58
558.478	15.51
558.674	15.41
558.87	14.66
559.066	14.62
559.262	14.3
559.459	14.13
559.655	13.69
559.851	13.67
560.047	12.91
560.243	12.65
560.439	12.59
560.635	13.13
560.831	13.59
561.027	13.74
561.223	13.67
561.419	13.41
561.615	13.94
561.811	13.41
562.007	13.33
562.203	13.31
562.399	13.63
562.595	13.5
562.791	13.02
562.987	12.32
563.183	12.14
563.379	12.87
563.575	13.86
563.771	13.79
563.966	14.03
564.162	14.15
564.358	14.53
564.554	14.65
564.75	14.51
564.945	14.72
565.141	15.34
565.337	15.28
565.533	14.88
565.728	14.6
565.924	14.18
566.12	14.38
566.315	14.84
566.511	14.9
566.707	14.79
566.902	15.12
567.098	15.25
567.293	14.81
567.489	15.06
567.684	15.18
567.88	15.16
568.076	15.51
568.271	15.8
568.467	15.74
568.662	15.58
568.858	15.36
569.053	15.34
569.248	14.68
569.444	15.27
569.639	14.81
569.835	14.59
570.03	15.01
570.225	15.08
570.421	15.05
570.616	14.84
570.812	15
571.007	15.82
571.202	16.19
571.397	16.7
571.593	16.35
571.788	16.86
571.983	17.02
572.178	16.88
572.374	16.45
572.569	15.92
572.764	16.02
572.959	16.17
573.154	15.42
573.35	15.33
573.545	15.26
573.74	15.46
573.935	15.77
574.13	14.97
574.325	14.53
574.52	14.74
574.715	14.72
574.91	14.58
575.105	14.23
575.3	14.5
575.495	14.63
575.69	14.67
575.885	14.51
576.08	14.23
576.275	15.81
576.47	15.83
576.665	16.04
576.86	16.23
577.055	16.05
577.25	16.55
577.444	16.48
577.639	16.36
577.834	16.15
578.029	15.98
578.224	16.1
578.418	15.91
578.613	15.72
578.808	16.1
579.003	16.28
579.197	16.13
579.392	15.92
579.587	15
579.781	15.65
579.976	16.27
580.171	16.81
580.365	16.39
580.56	16.01
580.755	16.12
580.949	15.85
581.144	15.92
581.338	16.5
581.533	16.87
581.727	17.77
581.922	16.9
582.116	16.57
582.311	16.02
582.505	17.03
582.7	16.41
582.894	16.82
583.089	16.84
583.283	17.04
583.478	16.66
583.672	15.15
583.866	15.23
584.061	15.39
584.255	15.31
584.449	16.08
584.644	15.53
584.838	16.16
585.032	15.97
585.226	15.72
585.421	15.83
585.615	16.29
585.809	17.96
586.003	18.94
586.198	18.76
586.392	18.74
586.586	18.6
586.78	18.1
586.974	18.07
587.168	18.12
587.363	17.89
587.557	17.37
587.751	17.11
587.945	17.03
588.139	16.78
588.333	17.19
588.527	17.41
588.721	17.37
588.915	17.42
589.109	17.37
589.303	17.4
589.497	17.99
589.691	18.53
589.885	19.2
590.079	19.08
590.273	18.48
590.466	17.8
590.66	17.68
590.854	17.88
591.048	18.66
591.242	18.96
591.436	19.1
591.629	19.21
591.823	18.88
592.017	18.96
592.211	19.02
592.404	18.86
592.598	19.54
592.792	19.11
592.986	19.09
593.179	19.05
593.373	18.39
593.567	18.29
593.76	18.53
593.954	18.57
594.147	18.07
594.341	18.42
594.535	18.68
594.728	18.4
594.922	18.84
595.115	18.61
595.309	17.86
595.502	18.37
595.696	18.96
595.889	18.22
596.083	18.45
596.276	18.46
596.47	18.19
596.663	18.77
596.856	18.84
597.05	18.8
597.243	18.98
597.437	19.88
597.63	19.78
597.823	19.94
598.017	20.72
598.21	20.93
598.403	20.61
598.596	20.44
598.79	19.48
598.983	19.28
599.176	19.87
599.369	18.79
599.563	18.37
599.756	17.74
599.949	17.26
600.142	16.79
600.335	17.03
600.528	17.82
600.722	17.88
600.915	18.56
601.108	19.82
601.301	19.88
601.494	20.97
601.687	20.82
601.88	21.8
602.073	22.07
602.266	22.11
602.459	21.19
602.652	20.88
602.845	20.9
603.038	20.49
603.231	19.44
603.424	19.43
603.617	19.51
603.809	19.77
604.002	19.5
604.195	19.76
604.388	20.11
604.581	20.13
604.774	20.81
604.966	20.86
605.159	20.99
605.352	21.43
605.545	21.55
605.737	21.57
605.93	21.4
606.123	21.05
606.316	19.99
606.508	19.31
606.701	19.81
606.894	19.06
607.086	19.03
607.279	19.11
607.471	18.43
607.664	17.68
607.857	18.34
608.049	18.51
608.242	18.39
608.434	18.51
608.627	18.2
608.819	18.1
609.012	18.01
609.204	18.39
609.397	18.25
609.589	18.82
609.782	19.44
609.974	18.51
610.166	18.48
610.359	18.72
610.551	18.89
610.743	19.35
610.936	19.14
611.128	18.99
611.32	19.14
611.513	19.39
611.705	19.04
611.897	18.13
612.09	18.88
612.282	18.42
612.474	18.66
612.666	19.47
612.858	19.43
613.051	19.57
613.243	19.92
613.435	19.19
613.627	20.03
613.819	20.1
614.011	20.65
614.203	19.52
614.395	20.26
614.588	20.83
614.78	20.5
614.972	20.48
615.164	20.99
615.356	20.57
615.548	21.56
615.74	21.06
615.932	21.18
616.124	21.66
616.315	21.61
616.507	20.75
616.699	20.64
616.891	20.22
617.083	21.01
617.275	21.54
617.467	21.78
617.659	20.37
617.85	19.59
618.042	20.41
618.234	19.8
618.426	20.4
618.618	21.5
618.809	21.5
619.001	20.55
619.193	19.51
619.384	19.75
619.576	20.86
619.768	20.69
619.959	21.37
620.151	20.85
620.343	21.49
620.534	21.14
620.726	19.89
620.917	18.97
621.109	19.63
621.301	19.96
621.492	19.05
621.684	18.04
621.875	18.75
622.067	18.72
622.258	18.75
622.45	18.72
622.641	19.09
622.832	19.54
623.024	20.74
623.215	21.14
623.407	20.79
623.598	21.9
623.789	22.33
623.981	22.69
624.172	21.95
624.363	21.99
624.555	22.28
624.746	21.74
624.937	21.43
625.129	21.03
625.32	20.94
625.511	22.18
625.702	21.08
625.893	21.64
626.085	21.66
626.276	22.33
626.467	22.59
626.658	21.93
626.849	22.3
627.04	22.73
627.231	22.84
627.422	23.04
627.614	21.47
627.805	21.57
627.996	20.85
628.187	20.19
628.378	19.55
628.569	19.29
628.76	19.28
628.951	18.78
629.142	19.21
629.332	18.42
629.523	19.31
629.714	19.91
629.905	20.22
630.096	20.37
630.287	20.55
630.478	20.78
630.669	20.96
630.859	20.94
631.05	21.65
631.241	21.94
631.432	23.3
631.623	21.76
631.813	22.39
632.004	22.56
632.195	21.68
632.385	21.21
632.576	21.4
632.767	21.35
632.957	21.54
633.148	21.05
633.339	19.84
633.529	19.63
633.72	19.74
633.91	18.96
634.101	17.4
634.292	17.11
634.482	17.42
634.673	17.08
634.863	16.76
635.054	17.25
635.244	16.97
635.435	18.37
635.625	17.7
635.815	18.57
636.006	19.86
636.196	20.41
636.387	21.17
636.577	22.23
636.767	22.44
636.958	22.45
637.148	22.38
637.338	22.68
637.529	21.55
637.719	22.22
637.909	21.38
638.099	20.93
638.29	21.16
638.48	21.31
638.67	21.17
638.86	22.56
639.05	22.3
639.241	22.29
639.431	23.08
639.621	23.3
639.811	22.73
640.001	23.38
640.191	23.65
640.381	24.82
640.571	24.77
640.761	24.33
640.951	22.74
641.141	23.58
641.331	22.76
641.521	21.25
641.711	20.4
641.901	19.48
642.091	18.45
642.281	17.13
642.471	16.78
642.661	17.67
642.851	17.96
643.041	18.57
643.231	17.84
643.42	18.33
643.61	19.16
643.8	20.91
643.99	21.4
644.18	22.73
644.369	22.64
644.559	22.6
644.749	22.63
644.939	22.85
645.128	23.06
645.318	23.39
645.508	23.06
645.697	24.43
645.887	23.92
646.076	24.31
646.266	23.61
646.456	25.28
646.645	25.82
646.835	24.91
647.024	24.63
647.214	24.03
647.403	23.79
647.593	23.98
647.782	23.35
647.972	23.22
648.161	24.86
648.351	24.29
648.54	23.69
648.73	24.05
648.919	24.47
649.108	24.33
649.298	24.6
649.487	25.35
649.677	25.83
649.866	25.41
650.055	25.12
650.244	24.57
650.434	25.39
650.623	24.67
650.812	22.69
651.002	22.81
651.191	22.94
651.38	22.24
651.569	22.02
651.758	21.28
651.947	20.85
652.137	20.59
652.326	19.88
652.515	19.19
652.704	18.77
652.893	19
653.082	18.24
653.271	17.83
653.46	18.22
653.649	18.46
653.838	18.08
654.027	18.04
654.216	18.56
654.405	18.43
654.594	19.85
654.783	20.9
654.972	21.54
655.161	22.59
655.35	22.93
655.539	22.65
655.728	21.82
655.916	22.26
656.105	21.55
656.294	20.73
656.483	20.19
656.672	19.9
656.86	19.92
657.049	20.16
657.238	20.14
657.427	19.93
657.615	20.95
657.804	20.98
657.993	21.64
658.181	22.69
658.37	23.46
658.559	23.82
658.747	22.91
658.936	22.9
659.125	25.34
659.313	25.09
659.502	25.55
659.69	25.08
659.879	25.05
660.067	24.81
660.256	24.45
660.444	24.56
660.633	24.95
660.821	25.8
661.01	25.36
661.198	22.29
661.387	22.93
661.575	22.75
661.763	23.39
661.952	23.3
662.14	23.52
662.328	23.39
662.517	22.39
662.705	22.9
662.893	22.96
663.082	23.09
663.27	23.01
663.458	21.66
663.646	21.72
663.834	22.41
664.023	23.1
664.211	22.24
664.399	23.39
664.587	22.99
664.775	21.69
664.963	22.06
665.152	22.68
665.34	22.54
665.528	22.72
665.716	22.15
665.904	20.68
666.092	21.29
666.28	22.29
666.468	22.01
666.656	21.8
666.844	21.79
667.032	21.09
667.22	19.67
667.408	20.36
667.596	20.88
667.784	21.43
667.971	21.29
668.159	20.78
668.347	19.38
668.535	19.13
668.723	20.68
668.911	21.18
669.098	21.15
669.286	22.56
669.474	22.92
669.662	23.05
669.849	23.77
670.037	23.75
670.225	22.95
670.413	22.68
670.6	23.41
670.788	23.13
670.976	23.76
671.163	23.95
671.351	23.83
671.538	23.43
671.726	23.07
671.913	21.59
672.101	22.07
672.289	22.55
672.476	24.43
672.664	24.18
672.851	23.98
673.039	23.82
673.226	23.04
673.413	22.12
673.601	22.64
673.788	22.97
673.976	24.01
674.163	24.14
674.35	24.9
674.538	24.43
674.725	24.93
674.912	24.7
675.1	23.75
675.287	24.76
675.474	25.08
675.662	24.13
675.849	22.68
676.036	22.73
676.223	23.48
676.411	22.98
676.598	22.56
676.785	20.71
676.972	22.43
677.159	22.78
677.346	22.69
677.533	24.13
677.721	24.13
677.908	26.1
678.095	25.98
678.282	24.88
678.469	24.55
678.656	25.9
678.843	26.39
679.03	24.72
679.217	25.57
679.404	25.76
679.591	24.7
679.778	25.36
679.964	24.92
680.151	24.22
680.338	23.53
680.525	24.34
680.712	23.78
680.899	23.84
681.086	24.34
681.272	23.62
681.459	23.98
681.646	23.94
681.833	22.06
682.02	22.64
682.206	23.25
682.393	25.01
682.58	25.17
682.766	24.41
682.953	23.55
683.14	24.02
683.326	22.98
683.513	21.97
683.7	21.33
683.886	22.9
684.073	21.49
684.259	21.82
684.446	21.08
684.632	19.01
684.819	20.53
685.005	21.23
685.192	21.77
685.378	23.75
685.565	24.15
685.751	24.36
685.938	23.32
686.124	23.77
686.31	23.01
686.497	21.92
686.683	22.34
686.87	21.88
687.056	21.62
687.242	20.22
687.429	18.76
687.615	19.32
687.801	18.78
687.987	20.15
688.174	20.16
688.36	20.82
688.546	21.37
688.732	22.18
688.918	22.12
689.105	23.81
689.291	24.11
689.477	23.69
689.663	23.69
689.849	24.47
690.035	23.04
690.221	23.1
690.407	21.23
690.593	20.46
690.779	19.11
690.965	18.47
691.151	18.32
691.337	19.32
691.523	21.59
691.709	20.28
691.895	20.62
692.081	21.18
692.267	20.98
692.453	21.68
692.639	23.57
692.825	24.23
693.011	24.51
693.196	22.68
693.382	22.62
693.568	21.98
693.754	22.3
693.94	22
694.125	21.51
694.311	22.27
694.497	22.29
694.682	21.49
694.868	21.9
695.054	21.93
695.239	22.02
695.425	21.57
695.611	21.07
695.796	21.25
695.982	22.08
696.168	21.9
696.353	21.38
696.539	22.04
696.724	21.9
696.91	21.47
697.095	20.01
697.281	20.51
697.466	20.69
697.652	20.95
697.837	21.25
698.023	21.68
698.208	22.29
698.393	22.4
698.579	23.04
698.764	22.61
698.949	22.24
699.135	22.63
699.32	23.91
699.505	23.62
699.691	23.26
699.876	21.55
700.061	20.79
700.246	20.7
700.432	21.18
700.617	18.84
700.802	20.09
700.987	21.67
701.172	21.73
701.358	22.6
701.543	21.63
701.728	20.45
701.913	21.88
702.098	21.41
702.283	21.48
702.468	19.89
702.653	20.64
702.838	20.46
703.023	20.32
703.208	22.09
703.393	20.03
703.578	21.91
703.763	22.3
703.948	24.16
704.133	24.98
704.318	24.84
704.503	27.14
704.688	28.68
704.873	26.41
705.057	25.06
705.242	25.26
705.427	23.39
705.612	23.04
705.797	23.2
705.981	22.26
706.166	21.89
706.351	21.83
706.536	20.27
706.72	18.88
706.905	21.84
707.09	22.52
707.274	22.6
707.459	22.8
707.644	23.98
707.828	24.09
708.013	22.6
708.197	22.53
708.382	24.73
708.567	25.68
708.751	25.56
708.936	25.09
709.12	25.17
709.305	23.48
709.489	24.99
709.673	24.12
709.858	25.52
710.042	26.51
710.227	26.7
710.411	23.77
710.596	20.9
710.78	21.43
710.964	22.6
711.149	21.72
711.333	24.05
711.517	24.02
711.702	23.65
711.886	23.82
712.07	24.36
712.254	25.56
712.438	27.64
712.623	29.24
712.807	29.34
712.991	29.15
713.175	29.09
713.359	27.55
713.544	27.15
713.728	26.38
713.912	25.9
714.096	25.6
714.28	24.87
714.464	26.22
714.648	26.62
714.832	26.63
715.016	26.8
715.2	26.71
715.384	28.44
715.568	28.84
715.752	29.13
715.936	28.55
716.12	29.74
716.304	29.95
716.488	28.17
716.671	26.72
716.855	27.49
717.039	22.92
717.223	24.15
717.407	22.4
717.59	19.62
717.774	21.49
717.958	20.53
718.142	19.01
718.325	17.52
718.509	17.44
718.693	20.16
718.877	17.1
719.06	19.72
719.244	19.62
719.428	19.45
719.611	22.73
719.795	21.98
719.978	22.38
720.162	23.32
720.345	22.48
720.529	22.56
720.713	22.22
720.896	23.77
721.08	26.9
721.263	25.4
721.446	25.02
721.63	23.93
721.813	23.69
721.997	25.99
722.18	25.87
722.364	25.28
722.547	25.61
722.73	26.38
722.914	25.7
723.097	23.17
723.28	25.31
723.464	26.89
723.647	27.56
723.83	27.08
724.013	25.48
724.197	26.25
724.38	28.78
724.563	26.09
724.746	24.69
724.929	26.76
725.112	25.83
725.296	26.31
725.479	23.71
725.662	23.62
725.845	22.09
726.028	22.2
726.211	23.95
726.394	22.89
726.577	24.91
726.76	25.73
726.943	25.21
727.126	26.42
727.309	25.08
727.492	25.09
727.675	25.15
727.858	25.71
728.041	26.97
728.224	23.87
728.407	24.42
728.589	26.22
728.772	25.32
728.955	26.56
729.138	27.43
729.321	26.4
729.503	27.27
729.686	26.56
729.869	27.55
730.052	27.89
730.234	28.17
730.417	28.24
730.6	25.05
730.782	24.4
730.965	21.44
731.148	20.57
731.33	22.04
731.513	23.31
731.695	21.77
731.878	20.41
732.061	21.54
732.243	23.29
732.426	22.56
732.608	26.54
732.791	27.45
732.973	29.96
733.156	29.23
733.338	29.46
733.52	28.24
733.703	30.12
733.885	30.05
734.068	24.77
734.25	24.03
734.432	25.07
734.615	20.78
734.797	21.88
734.979	20.54
735.162	24.04
735.344	23.32
735.526	22.96
735.708	23.26
735.891	24.84
736.073	28
736.255	24.46
736.437	20.42
736.619	20.87
736.802	20.52
736.984	23.28
737.166	20.38
737.348	21.63
737.53	23.17
737.712	24.24
737.894	27.68
738.076	28.47
738.258	31.88
738.44	33.95
738.622	36.71
738.804	35.97
738.986	33.04
739.168	32.98
739.35	35.29
739.532	34.62
739.714	33.03
739.896	29.57
740.078	29.42
740.259	27.81
740.441	27.98
740.623	28.81
740.805	29.83
740.987	30.44
741.168	27.84
741.35	25.42
741.532	23.4
741.714	24.17
741.895	22.16
742.077	21.13
742.259	20.34
742.44	23.93
742.622	21.2
742.804	18.21
742.985	18.56
743.167	22.48
743.348	23.29
743.53	26.3
743.711	28.12
743.893	30.8
744.075	29.06
744.256	27.67
744.438	25.86
744.619	26.88
744.8	29.57
744.982	28.16
745.163	30.74
745.345	29.38
745.526	30.36
745.707	27.05
745.889	28.42
746.07	32.67
746.252	35.02
746.433	35.78
746.614	37.35
746.795	36.59
746.977	37.55
747.158	37.15
747.339	36.73
747.52	35.72
747.702	34.6
747.883	34.4
748.064	29.08
748.245	29.98
748.426	31.13
748.607	30.25
748.788	27.67
748.97	28.74
749.151	26.09
749.332	23.99
749.513	23.13
749.694	24.69
749.875	24.58
750.056	25.18
750.237	27.39
750.418	24.91
750.599	22.38
750.78	25.56
750.96	29.3
751.141	30.04
751.322	30.36
751.503	31.07
751.684	33.68
751.865	33.66
752.046	36.07
752.226	33.97
752.407	31.93
752.588	28.33
752.769	26.27
752.949	21.09
753.13	21.67
753.311	23.11
753.492	22.17
753.672	21.24
753.853	19.96
754.034	22.7
754.214	20.12
754.395	19.3
754.575	25.07
754.756	27.87
754.937	29.8
755.117	28.63
755.298	26.54
755.478	26.51
755.659	25.02
755.839	23.74
756.02	22.67
756.2	25.3
756.381	31.58
756.561	26.03
756.741	22.12
756.922	21.99
757.102	20.57
757.283	21.87
757.463	21.57
757.643	21.11
757.823	19.9
758.004	17.81
758.184	13.73
758.364	12.21
758.545	18.76
758.725	21.22
758.905	20.59
759.085	25.46
759.265	23.59
759.446	24.1
759.626	26.74
759.806	28.96
759.986	30.79
760.166	35.34
760.346	34.24
760.526	33.41
760.706	35
760.886	36.62
761.066	34.35
761.246	36.38
761.426	37.07
761.606	33.81
761.786	33.32
761.966	32.13
762.146	29.93
762.326	31.15
762.506	31.13
762.686	29.96
762.866	30.45
763.046	30.39
763.225	30.3
763.405	27.87
763.585	31.33
763.765	33.08
763.945	34.43
764.124	32.64
764.304	31.63
764.484	32.1
764.664	31.37
764.843	29.96
765.023	29.13
765.203	29.36
765.382	31.02
765.562	28.99
765.741	26.82
765.921	25.47
766.101	25.45
766.28	23.34
766.46	21.08
766.639	20.66
766.819	20.34
766.998	23.18
767.178	22.16
767.357	20.72
767.537	17.99
767.716	15.12
767.896	12.93
768.075	16.39
768.254	16.15
768.434	18.74
768.613	21.33
768.792	17.27
768.972	16.66
769.151	21.78
769.33	24.94
769.51	29.65
769.689	31.76
769.868	35.18
770.047	34.97
770.226	37.07
770.406	36.88
770.585	38.68
770.764	40.13
770.943	38.66
771.122	32.97
771.301	33.75
771.48	28.13
771.66	28.78
771.839	25.03
772.018	27.36
772.197	29.54
772.376	28.68
772.555	29.15
772.734	31.58
772.913	34.41
773.092	34.44
773.271	35.39
773.449	37.78
773.628	38.71
773.807	39.92
773.986	36
774.165	35.81
774.344	32.67
774.523	26.71
774.701	25.63
774.88	22.53
775.059	23.5
775.238	20.32
775.417	22.42
775.595	23.14
775.774	24.69
775.953	26.26
776.131	26.97
776.31	33.72
776.489	32.32
776.667	32.11
776.846	35.9
777.025	37.91
777.203	37.95
777.382	37.12
777.56	35.16
777.739	32.46
777.917	30.95
778.096	27.4
778.274	23.41
778.453	29.13
778.631	29.77
778.81	22.2
778.988	22.74
779.166	21.82
779.345	20.27
779.523	20.37
779.702	23.8
779.88	25.91
780.058	25.67
780.237	23.79
780.415	25.78
780.593	24.11
780.771	32.35
780.95	33.23
781.128	30.3
781.306	30.72
781.484	32.85
781.662	29.54
781.841	31.22
782.019	37.88
782.197	38.11
782.375	33.21
782.553	31.77
782.731	27.33
782.909	28.53
783.087	32.1
783.265	34.62
783.443	32.34
783.621	32.37
783.799	30.11
783.977	22.12
784.155	23.87
784.333	24.3
784.511	28.33
784.689	28.81
784.867	24.61
785.045	27.84
785.223	24.19
785.4	22.25
785.578	18.12
785.756	23.08
785.934	23.85
786.112	26.32
786.289	24.94
786.467	25.14
786.645	24.69
786.823	22.95
787	23.13
787.178	21.46
787.356	22.7
787.533	28.92
787.711	21.62
787.889	23.72
788.066	25.71
788.244	27.05
788.421	24.57
788.599	27.21
788.776	32.68
788.954	31.33
789.131	40.34
789.309	38.36
789.486	36.87
789.664	46.89
789.841	46.2
790.019	44.07
790.196	45.21
790.373	49.38
790.551	57.01
790.728	54.23
790.906	51.02
791.083	48.51
791.26	47.22
791.437	41.25
791.615	36.44
791.792	33.46
791.969	29
792.146	33.67
792.324	24.07
792.501	18.33
792.678	19.07
792.855	11.75
793.032	11.57
793.209	12.34
793.387	12.1
793.564	11.36
793.741	9.57
793.918	9.81
794.095	8.17
794.272	17.48
794.449	18.1
794.626	18.92
794.803	26.28
794.98	28.04
795.157	30.54
795.334	35.52
795.511	36.75
795.688	44.29
795.864	46.33
796.041	43.01
796.218	40.14
796.395	33.68
796.572	31.01
796.749	31.68
796.925	27.16
797.102	25.94
797.279	28.7
797.456	27.31
797.632	19.31
797.809	17.47
797.986	17.58
798.162	13.66
798.339	20.05
798.516	21.65
798.692	22.25
798.869	18.69
799.046	26.27
799.222	25.51
799.399	24.98
799.575	32.61
799.752	35.48
799.928	39.66
800.105	39.99
800.281	40.04
800.458	37.21
800.634	36.46
800.811	37.01
800.987	31.27
801.163	24.45
801.34	25.93
801.516	25.14
801.692	22.38
801.869	19.43
802.045	29.78
802.221	25.96
802.398	27.02
802.574	25.74
802.75	24.32
802.926	23.54
803.103	26.9
803.279	22.19
803.455	23.58
803.631	23.47
803.807	16.69
803.983	16.44
804.16	10.9
804.336	14.68
804.512	21.01
804.688	20.16
804.864	24.49
805.04	32.32
805.216	37.43
805.392	34.6
805.568	36.81
805.744	39.7
805.92	30.92
806.096	38.55
806.272	36.98
806.448	35.85
806.623	39.07
806.799	34.03
806.975	23.04
807.151	19
807.327	21.17
807.503	24.53
807.678	27.94
807.854	32.19
808.03	27.94
808.206	28.31
808.381	27.22
808.557	35.73
808.733	37.69
808.908	38.67
809.084	37.93
809.26	40.59
809.435	41.99
809.611	40.38
809.787	37.49
809.962	43.24
810.138	31.18
810.313	33.96
810.489	27.44
810.664	29.8
810.84	30.95
811.015	34.31
811.191	25.03
811.366	20.18
811.542	18.23
811.717	18.97
811.892	16.27
812.068	23.2
812.243	17.13
812.419	22.8
812.594	24.32
812.769	29.31
812.944	30.44
813.12	33.54
813.295	37.26
813.47	37.76
813.645	34.61
813.821	36.58
813.996	39.6
814.171	38.59
814.346	32.69
814.521	36.21
814.697	38.41
814.872	41.02
815.047	41.61
815.222	41.03
815.397	49.07
815.572	43.02
815.747	36.59
815.922	33.47
816.097	35.27
816.272	31.21
816.447	22.71
816.622	18.94
816.797	9.49
816.972	15.53
817.147	9.18
817.322	2.06
817.496	6.95
817.671	13.95
817.846	15.31
818.021	14.93
818.196	27.63
818.371	28.68
818.545	29.08
818.72	29.94
818.895	20.77
819.069	19.91
819.244	21.93
819.419	23.5
819.594	20.09
819.768	17.76
819.943	18.43
820.117	15.26
820.292	13.8
820.467	15.36
820.641	18.01
820.816	21.12
820.99	22.05
821.165	21.72
821.339	21.84
821.514	21.63
821.688	22.14
821.863	22.11
822.037	23.13
822.212	24.41
822.386	24.06
822.56	23.59
822.735	22.87
822.909	22.76
823.084	22.87
823.258	23.38
823.432	24.72
823.606	25.17
823.781	25.92
823.955	25.05
824.129	24.19
824.303	24.15
824.478	23.48
824.652	25.56
824.826	26.59
825	28.75
825.174	26.73
825.348	24.78
825.523	22.77
825.697	21.62
825.871	22.87
826.045	23.79
826.219	23.68
826.393	25.41
826.567	24.82
826.741	26.7
826.915	25.35
827.089	26.2
827.263	27.54
827.437	30.95
827.611	32.72
827.784	31.46
827.958	31.82
828.132	31.31
828.306	28.91
828.48	27.07
828.654	21.77
828.827	19.77
829.001	19.6
829.175	19.46
829.349	15
829.522	15.11
829.696	13.39
829.87	10.45
830.044	12.46
830.217	18.22
830.391	21.71
830.565	23.37
830.738	23.37
830.912	17.79
831.085	20.33
831.259	20.14
831.432	18.4
831.606	24.23
831.779	25.76
831.953	26.27
832.126	25.32
832.3	20.53
832.473	23.57
832.647	22.68
832.82	25.83
832.994	22.8
833.167	22.92
833.34	25.03
833.514	19.89
833.687	21.49
833.86	20.6
834.034	22.23
834.207	24.89
834.38	21.42
834.553	23.77
834.727	20.29
834.9	22.81
835.073	23.33
835.246	18.27
835.419	15.21
835.593	9.54
835.766	10.64
835.939	1.25
836.112	-3.12
836.285	-5.36
836.458	-12.14
836.631	7.08
836.804	2.43
836.977	13.26
837.15	20.71
837.323	26.8
837.496	31.29
837.669	33.1
837.842	39.61
838.015	37.16
838.188	39.94
838.361	39
838.533	24.04
838.706	20.86
838.879	7.72
839.052	-4.77
839.225	6.33
839.398	3.22
839.57	-2.9
839.743	-0.99
839.916	7.24
840.088	-5.78
840.261	-9.32
840.434	-8.09
840.607	-7.04
840.779	-3.34
840.952	13.39
841.124	19.83
841.297	23.51
841.47	25.82
841.642	24.77
841.815	23.93
841.987	49.7
842.16	48.48
842.332	64.14
842.505	56.29
842.677	51.26
842.85	46.49
843.022	37.89
843.194	39.26
843.367	46.04
843.539	43.69
843.712	48.66
843.884	18.63
844.056	22.69
844.229	1.4
844.401	12.95
844.573	26.84
844.745	-3.4
844.918	-23.58
845.09	-30.93
845.262	-118.22
845.434	-86.74
845.606	-33.02
845.779	-14.68
845.951	-40.88
846.123	-33.64
846.295	-76.29
846.467	-114.61
846.639	-81.93
846.811	-46.1
846.983	-51.22
847.155	-54.37
847.327	-70.86
847.499	-66.3
847.671	-83.58
847.843	-35.2
848.015	-71.96
848.187	-75.28
848.359	-65.93
848.531	-56.33
848.703	-149.65
848.875	-176.77
849.047	-151.43
849.218	-76.9
849.39	-237.52
849.562	-192.38
849.734	-254.58
849.905	-207.74
850.077	-173
850.249	-344.91
850.421	-72.5
850.592	-32.98
850.764	-55.02
850.936	-84.42
851.107	-154.95
851.279	-32.4
851.451	9.55
851.622	18.95
851.794	32.83
851.965	45.45
852.137	52.11
852.308	63.23
852.48	83.41
852.651	120.48
852.823	130.55
852.994	162.74
853.166	133.97
853.337	168.51
853.509	108.78
853.68	109.93
853.851	88.71
854.023	98.34
854.194	67.53
854.365	20.76
854.537	37.72
854.708	34.38
854.879	27.2
855.05	-0.41
855.222	6.65
855.393	4.16
855.564	-33.36
855.735	-33.74
855.906	-62.34
856.078	-24.87
856.249	-15.98
856.42	-53.09
856.591	-62.62
856.762	-60.03
856.933	-71.24
857.104	-60.42
857.275	-72.25
857.446	-21.09
857.617	1.69
857.788	14.73
857.959	24.29
858.13	51.5
858.301	54.34
858.472	52.95
858.643	56.1
858.814	45.91
858.985	36.93
859.155	39.6
859.326	52.32
859.497	47.5
859.668	53.36
859.839	42.86
860.009	20.66
860.18	19.33
860.351	37.27
860.522	47.42
860.692	60.55
860.863	47.66
861.034	48.63
861.204	48.83
861.375	30.38
861.546	16.82
861.716	-1.67
861.887	8.06
862.057	10.71
862.228	20.66
862.398	19.83
862.569	-20.68
862.739	-11.55
862.91	-0.4
863.08	-5.98
863.251	9.14
863.421	32.03
863.592	40.87
863.762	27.79
863.932	34.96
864.103	-0.41
864.273	-20.75
864.443	-21.72
864.614	-18.76
864.784	-29.99
864.954	-133.53
865.125	-25.52
865.295	-104.26
865.465	-79.91
865.635	-135.42
865.805	-327.81
865.976	-592.5
866.146	-356.37
866.316	-155
866.486	-119.3
866.656	-412.07
866.826	-106.29
866.996	-153.43
867.166	-80.78
867.336	-50.53
867.506	-5.71
867.676	5.32
867.846	8.19
868.016	15.33
868.186	14.73
868.356	17.69
868.526	21.24
868.696	33.41
868.866	52.92
869.036	48.02
869.206	42.31
869.376	8.67
869.545	-0.05
869.715	2.31
869.885	2.66
870.055	19.27
870.224	-15.29
870.394	-29.73
870.564	-16.8
870.734	-53.41
870.903	-63.54
871.073	-109.16
871.243	-21.05
871.412	-2.44
871.582	-7
871.751	-35.91
871.921	-23.41
872.091	-14.59
872.26	-28.85
872.43	-64.51
872.599	-41.8
872.769	-17.09
872.938	-22.86
873.108	-70.38
873.277	-249.62
873.446	-130.57
873.616	-89.26
873.785	-120.65
873.955	-95.77
874.124	-73.89
874.293	-33.64
874.463	-80.91
874.632	-41.96
874.801	-42.28
874.971	-27.42
875.14	-12.15
875.309	-3.97
875.478	-5.81
875.647	7.48
875.817	-21.05
875.986	-5.38
876.155	-18.6
876.324	-28.33
876.493	-96.82
876.662	-122.31
876.831	-101.43
877	-116.38
877.17	-348.46
877.339	-168.74
877.508	-317.58
877.677	-245.2
877.846	-312.16
878.015	-337.51
878.184	-118.66
878.352	-164.82
878.521	-97.4
878.69	-119.72
878.859	-35.33
879.028	-36.42
879.197	-36.47
879.366	-25.14
879.534	-25.79
879.703	-2.64
879.872	1.9
880.041	1.22
880.21	9.8
880.378	3.23
880.547	7.8
880.716	3.07
880.884	3.05
881.053	12.08
881.222	14.94
881.39	23.8
881.559	23.22
881.727	23.32
881.896	22.48
882.065	19.21
882.233	21.19
882.402	21.31
882.57	20.14
882.739	24.37
882.907	21.44
883.076	22.45
883.244	17.18
883.412	12.05
883.581	13.17
883.749	15.68
883.918	16.68
884.086	19.84
884.254	19.82
884.423	16.48
884.591	11.69
884.759	6.41
884.927	12.13
885.096	10.17
885.264	10.09
885.432	0.67
885.6	-3.17
885.769	0.77
885.937	-9.38
886.105	-13.95
886.273	1.69
886.441	0.2
886.609	-3.65
886.777	-23.59
886.945	-21.26
887.113	-20.41
887.281	-22.94
887.449	-43.58
887.617	-45.67
887.785	-22.56
887.953	-31.7
888.121	-60.66
888.289	-98.71
888.457	-43.2
888.625	-51.84
888.793	-17.38
888.961	-3.65
889.129	41.97
889.296	77.36
889.464	80.3
889.632	81.02
889.8	90.05
889.967	115.72
890.135	133.52
