Data from JASIL_3267_Reflection_2.txt Node
Date: Mon Nov 16 21:03:06 EST 2015
User: Geneva
Spectrometer: USB4E03002
Autoset integration time: false
Trigger mode: 4
Integration Time (sec): 1.000000E-1
Scans to average: 10
Electric dark correction enabled: false
Nonlinearity correction enabled: false
Boxcar width: 5
Stray light correction enabled: false
XAxis mode: Wavelengths
Stop averaging: false
Number of Pixels in Spectrum: 3648
>>>>>Begin Spectral Data<<<<<
177.575	-781.2
177.794	-869.29
178.014	-879.52
178.233	-1489.72
178.452	-2128.92
178.672	-1490.15
178.891	-2044.34
179.11	6137.84
179.33	2145.54
179.549	-10740.91
179.768	2007.63
179.987	2409.68
180.207	1398.71
180.426	764.81
180.645	785.12
180.864	1427.92
181.084	580.98
181.303	499.54
181.522	980
181.741	2942.25
181.96	647.58
182.179	870.26
182.398	1099.56
182.618	1089.83
182.837	1053.78
183.056	976.59
183.275	604.18
183.494	625.81
183.713	659.75
183.932	539.01
184.151	548.14
184.37	572.75
184.589	459.08
184.808	376.9
185.027	381.92
185.246	477.23
185.465	702.93
185.684	786.46
185.903	3175.86
186.122	1277.58
186.341	1611.24
186.56	792.89
186.779	1484.46
186.998	2052.31
187.216	2060.63
187.435	1516.17
187.654	1411.89
187.873	672.26
188.092	557.6
188.311	528.96
188.53	821.31
188.748	793.48
188.967	1848.8
189.186	930.65
189.405	1034.63
189.623	1100
189.842	992.18
190.061	1037.32
190.28	2730.77
190.498	-2627.5
190.717	1704.76
190.936	-3630.51
191.154	-1680.36
191.373	-38316.67
191.592	-20736.36
191.81	-1297.13
192.029	-1696.95
192.248	-592.51
192.466	-575.85
192.685	-623.04
192.904	-873.99
193.122	-648.27
193.341	-1292.43
193.559	-1236.55
193.778	-1378.79
193.996	-1708.4
194.215	61950
194.433	-5776.19
194.652	1155.67
194.87	1036.36
195.089	1055.46
195.307	1268.95
195.526	3684.75
195.744	2064.04
195.963	1347.8
196.181	30000
196.399	-2064.1
196.618	11500
196.836	38666.67
197.055	-1922.13
197.273	-3679.31
197.491	-2243.33
197.71	-3919.61
197.928	2732.5
198.146	4930.95
198.365	-21160
198.583	993.07
198.801	1309.94
199.019	2948.05
199.238	-5250
199.456	2280.19
199.674	1057.2
199.892	800
200.111	1044.23
200.329	1043.02
200.547	801.41
200.765	719.11
200.983	807.83
201.202	645.95
201.42	1012.6
201.638	644.81
201.856	743.18
202.074	2206.61
202.292	2731.31
202.51	1904.08
202.728	2872.16
202.946	-7142.5
203.165	9081.82
203.383	-2917.53
203.601	-3339.53
203.819	6228
204.037	31740
204.255	3270.1
204.473	1444.86
204.691	2064
204.909	1286.94
205.127	1408.84
205.345	1653.98
205.562	1433.17
205.78	961.41
205.998	1155.1
206.216	996.79
206.434	952.36
206.652	825.15
206.87	632.97
207.088	484.34
207.306	616.24
207.523	542.23
207.741	425
207.959	424.23
208.177	487.09
208.395	392.31
208.612	415.32
208.83	376.12
209.048	451.53
209.266	561.81
209.483	628
209.701	472.63
209.919	561.59
210.136	574.9
210.354	1427
210.572	1312.67
210.79	2008.89
211.007	1187.34
211.225	1968.22
211.442	-10923.81
211.66	-3086.11
211.878	-1449.31
212.095	524.52
212.313	546.55
212.53	801.39
212.748	448.34
212.966	419.44
213.183	371.82
213.401	402.27
213.618	373.56
213.836	442.64
214.053	448.27
214.271	411.84
214.488	2332.77
214.705	1270.18
214.923	891.94
215.14	944.48
215.358	825.23
215.575	1291.04
215.793	1246.58
216.01	1739.88
216.227	607.23
216.445	459.1
216.662	531.65
216.879	544.62
217.097	464.39
217.314	525.52
217.531	646.01
217.749	702.73
217.966	884
218.183	718.46
218.4	790.55
218.618	956.69
218.835	1023.55
219.052	695.48
219.269	622.62
219.487	982.64
219.704	677.26
219.921	492.99
220.138	377.44
220.355	376.09
220.572	416.14
220.79	475.46
221.007	559.2
221.224	790.58
221.441	719.13
221.658	799.66
221.875	535.47
222.092	545.6
222.309	840.94
222.526	900.4
222.743	781.63
222.96	1102.36
223.177	529.51
223.394	587.9
223.611	411.29
223.828	481.87
224.045	502.47
224.262	588.78
224.479	397.8
224.696	314.56
224.913	387.65
225.13	318.32
225.347	245.11
225.564	230.63
225.781	179.6
225.997	165.65
226.214	138.64
226.431	117.84
226.648	101.22
226.865	100.33
227.082	96.65
227.298	82.88
227.515	72.02
227.732	69.96
227.949	64.94
228.165	62.84
228.382	60.37
228.599	59.65
228.816	59.69
229.032	59.62
229.249	57.37
229.466	56.01
229.682	57.43
229.899	62.87
230.116	61.93
230.332	68.09
230.549	73.73
230.765	74.24
230.982	74.08
231.199	80.02
231.415	87.32
231.632	93.62
231.848	96.62
232.065	102.64
232.281	105.41
232.498	119.59
232.714	117.28
232.931	115.29
233.147	115.93
233.364	121.43
233.58	119.58
233.797	122.53
234.013	118.88
234.23	119.76
234.446	119.61
234.662	109.64
234.879	101.01
235.095	102.37
235.312	103.91
235.528	105
235.744	106.44
235.961	109.87
236.177	97.44
236.393	102.93
236.61	111.42
236.826	111.4
237.042	117.55
237.258	118.17
237.475	113.57
237.691	110.28
237.907	113.13
238.123	117.5
238.339	100.42
238.556	101.6
238.772	93.59
238.988	81.94
239.204	79.9
239.42	81.42
239.636	80.78
239.853	77.62
240.069	76.17
240.285	69.65
240.501	62.45
240.717	58.64
240.933	52.85
241.149	49.8
241.365	47.26
241.581	45.31
241.797	40.85
242.013	38.66
242.229	37.08
242.445	36.27
242.661	35.52
242.877	36.68
243.093	38.23
243.309	41.63
243.525	44.39
243.741	44.24
243.957	43.03
244.173	42.81
244.388	43.21
244.604	44.69
244.82	42.92
245.036	40.94
245.252	36.07
245.468	33.3
245.683	30.22
245.899	28.71
246.115	27.02
246.331	25.52
246.547	24
246.762	22.39
246.978	23.23
247.194	22.9
247.409	23.47
247.625	24.67
247.841	25.46
248.057	25.83
248.272	26.14
248.488	30.32
248.703	33.67
248.919	37.06
249.135	40.33
249.35	40.79
249.566	42.92
249.782	42.88
249.997	41.85
250.213	43.22
250.428	44.59
250.644	44.27
250.859	41.82
251.075	36.41
251.29	37.14
251.506	37.06
251.721	36.82
251.937	36.68
252.152	38.12
252.368	43.03
252.583	45.05
252.798	46.54
253.014	48.79
253.229	50.18
253.445	57.92
253.66	59.7
253.875	61.87
254.091	65.4
254.306	67.44
254.521	73.26
254.737	69.55
254.952	67.96
255.167	64.4
255.383	63.49
255.598	58.3
255.813	54.94
256.028	55.12
256.244	56.02
256.459	52.49
256.674	48.54
256.889	43.82
257.104	40.06
257.32	36.43
257.535	32.63
257.75	28.86
257.965	27.53
258.18	26.1
258.395	23.44
258.61	19.92
258.826	18.68
259.041	18.88
259.256	18.53
259.471	17.9
259.686	18.26
259.901	19.01
260.116	19.16
260.331	20.14
260.546	19.74
260.761	20.75
260.976	22.17
261.191	23.42
261.406	24.04
261.621	25.21
261.836	28.56
262.05	28.16
262.265	30.23
262.48	31.96
262.695	33.35
262.91	35.13
263.125	35.77
263.34	37.28
263.555	38.67
263.769	41.52
263.984	40.98
264.199	41.68
264.414	43.85
264.629	41.98
264.843	38.76
265.058	38.37
265.273	35.36
265.488	33.42
265.702	32.93
265.917	31.7
266.132	28.86
266.346	28.78
266.561	25.93
266.776	26.04
266.99	27.13
267.205	29.37
267.42	28.54
267.634	30.7
267.849	30.52
268.063	31.66
268.278	32.38
268.492	33.57
268.707	33.1
268.922	33.6
269.136	32.02
269.351	30.41
269.565	28.29
269.78	27.78
269.994	25.79
270.209	24.43
270.423	22.1
270.637	21.34
270.852	19.48
271.066	18.55
271.281	20.89
271.495	20.62
271.709	20.86
271.924	22.16
272.138	22.73
272.353	24.68
272.567	25.39
272.781	26.03
272.996	25.78
273.21	26.27
273.424	27.41
273.638	25.97
273.853	28.59
274.067	28.86
274.281	29.47
274.495	29.07
274.71	27.81
274.924	29.63
275.138	29.48
275.352	29.41
275.566	31.32
275.781	30.83
275.995	30.29
276.209	28.81
276.423	31.1
276.637	30.23
276.851	31.34
277.065	31.23
277.279	30.6
277.493	30.35
277.707	30.81
277.921	30.17
278.135	32.08
278.349	33.81
278.563	33.59
278.777	31.84
278.991	31.79
279.205	31.19
279.419	29.87
279.633	29.46
279.847	29.48
280.061	29.91
280.275	28.02
280.489	27.3
280.703	25.32
280.917	25.19
281.131	23.9
281.344	24.05
281.558	23.37
281.772	24.34
281.986	24.83
282.2	24.85
282.414	22.98
282.627	23.48
282.841	22.01
283.055	22.45
283.269	22.81
283.482	23.43
283.696	23.3
283.91	23.97
284.123	23.43
284.337	23.15
284.551	22.34
284.764	22.86
284.978	22.28
285.192	23.19
285.405	22.92
285.619	22.11
285.833	21.25
286.046	20.7
286.26	19.55
286.473	18.71
286.687	19.1
286.9	20.12
287.114	20.55
287.327	21.23
287.541	20.08
287.754	20.11
287.968	19.91
288.181	21.37
288.395	21.1
288.608	21.78
288.822	22.77
289.035	22.2
289.248	22.17
289.462	21.69
289.675	22.52
289.889	22.62
290.102	21.53
290.315	22.58
290.529	21.98
290.742	22.46
290.955	22.67
291.169	22.67
291.382	21.91
291.595	22.95
291.808	23.69
292.022	22.21
292.235	23.93
292.448	25.03
292.661	23.77
292.875	24.84
293.088	24.41
293.301	23.54
293.514	21.74
293.727	21.72
293.94	18.91
294.153	18.76
294.367	20.49
294.58	18.49
294.793	18.09
295.006	18.55
295.219	17.22
295.432	17.61
295.645	17.4
295.858	18.62
296.071	18.43
296.284	18.84
296.497	18.38
296.71	17.83
296.923	19.51
297.136	19.33
297.349	19.02
297.562	19.25
297.775	19.77
297.988	19.4
298.201	20.86
298.414	21.59
298.626	22.88
298.839	22.65
299.052	22.3
299.265	22.07
299.478	23.31
299.691	23.51
299.903	23.68
300.116	23.48
300.329	24.56
300.542	22.53
300.755	23.84
300.967	23.41
301.18	23.36
301.393	23.87
301.605	23.55
301.818	22.81
302.031	24.02
302.243	25.43
302.456	25.26
302.669	25.49
302.881	27.72
303.094	26.62
303.307	26.97
303.519	28.66
303.732	28.49
303.944	28.23
304.157	29.27
304.37	29.3
304.582	28.83
304.795	28.45
305.007	28.34
305.22	26.73
305.432	26.28
305.645	26.12
305.857	26.81
306.069	27.35
306.282	27.96
306.494	26.42
306.707	25.61
306.919	24.31
307.132	24.05
307.344	25.56
307.556	25.93
307.769	27.11
307.981	26.26
308.193	24.19
308.406	23.57
308.618	23.24
308.83	23.17
309.043	22.75
309.255	24.23
309.467	25.22
309.679	23.52
309.892	23.36
310.104	22.14
310.316	22.22
310.528	22.26
310.74	21.66
310.953	21.49
311.165	23.1
311.377	23.16
311.589	23.16
311.801	22.43
312.013	23.14
312.225	23.98
312.437	23.97
312.649	24.3
312.862	25.16
313.074	25.55
313.286	26.66
313.498	28.11
313.71	27.15
313.922	27.33
314.134	28.88
314.346	28.11
314.558	27.34
314.77	28.11
314.982	29.37
315.193	29.78
315.405	30.24
315.617	29.04
315.829	28.18
316.041	29.13
316.253	28.43
316.465	28.81
316.677	30.4
316.888	31.18
317.1	30.38
317.312	28.73
317.524	28.28
317.736	29.7
317.947	31.52
318.159	31.05
318.371	31.92
318.583	31.32
318.794	30.58
319.006	30.3
319.218	30.72
319.43	32.53
319.641	33.44
319.853	34.01
320.064	32.03
320.276	31.89
320.488	31.12
320.699	31.38
320.911	34.42
321.123	36.49
321.334	36.58
321.546	37.22
321.757	38.51
321.969	37.55
322.18	36.82
322.392	36.75
322.603	35.61
322.815	34.58
323.026	33.35
323.238	31.44
323.449	28.43
323.661	28.89
323.872	27.55
324.083	25.32
324.295	26.25
324.506	26.45
324.718	25.59
324.929	24.94
325.14	25.61
325.352	26.79
325.563	27.11
325.774	27.23
325.986	26.6
326.197	26.5
326.408	26.84
326.62	26.5
326.831	26.44
327.042	27.55
327.253	28.21
327.464	29.46
327.676	29.18
327.887	29.49
328.098	30.17
328.309	30.62
328.52	31.18
328.732	32.31
328.943	32.95
329.154	34
329.365	34.52
329.576	35.38
329.787	34.22
329.998	34.91
330.209	33.85
330.42	34.08
330.631	35.15
330.842	35.65
331.053	36.44
331.264	37.09
331.475	35.87
331.686	36.32
331.897	35.45
332.108	36.01
332.319	35.3
332.53	36.17
332.741	35.29
332.952	34.1
333.163	32.74
333.374	30.83
333.585	29.8
333.795	30.46
334.006	29.76
334.217	30.57
334.428	29.56
334.639	31.17
334.849	30.54
335.06	30.28
335.271	31.04
335.482	31.97
335.692	31.8
335.903	30.44
336.114	30.81
336.325	30.7
336.535	29.7
336.746	30.55
336.957	29.86
337.167	29.75
337.378	31.66
337.589	30.43
337.799	29.66
338.01	31.33
338.22	33.22
338.431	32.11
338.642	32.66
338.852	32.95
339.063	32.16
339.273	31.88
339.484	32.88
339.694	30.83
339.905	31.95
340.115	31.94
340.326	30.11
340.536	29.88
340.746	30.59
340.957	29.79
341.167	29.74
341.378	30.21
341.588	29.43
341.799	27.98
342.009	28.96
342.219	27.93
342.43	29.03
342.64	30
342.85	29.39
343.061	28.75
343.271	29.52
343.481	28.49
343.691	27.88
343.902	27.77
344.112	28.33
344.322	27.77
344.532	27.79
344.743	27.83
344.953	27.79
345.163	27.68
345.373	27.35
345.583	28.01
345.793	28.39
346.004	30.02
346.214	30.51
346.424	29.48
346.634	29.45
346.844	30.14
347.054	30.39
347.264	29.56
347.474	30.48
347.684	31.07
347.894	29.41
348.104	30.02
348.314	29.18
348.524	29.05
348.734	29.03
348.944	29.49
349.154	29.44
349.364	28.45
349.574	27.84
349.784	28.64
349.994	28.19
350.204	29.03
350.413	28.63
350.623	27.38
350.833	27.5
351.043	28.31
351.253	28.74
351.463	28.03
351.672	27.76
351.882	29.81
352.092	28.29
352.302	29.1
352.511	28.82
352.721	28.61
352.931	29.15
353.141	29.22
353.35	29.07
353.56	28.97
353.77	29.58
353.979	29.74
354.189	29.26
354.399	29.69
354.608	30.32
354.818	29.58
355.027	29.86
355.237	29.86
355.447	28.56
355.656	28.77
355.866	28.13
356.075	28.19
356.285	28.05
356.494	27.25
356.704	26.49
356.913	25.64
357.123	27
357.332	26.37
357.542	26.61
357.751	26.6
357.96	26.97
358.17	26.07
358.379	25.6
358.589	25.46
358.798	25.41
359.007	25.1
359.217	24.08
359.426	22.49
359.635	22.54
359.845	21.1
360.054	21.67
360.263	21.32
360.472	21.74
360.682	21.32
360.891	21.22
361.1	20.67
361.309	20.68
361.519	20.89
361.728	21.61
361.937	21.54
362.146	21.98
362.355	21.83
362.564	21.86
362.774	21.37
362.983	21.4
363.192	22.27
363.401	22.87
363.61	23.01
363.819	24.23
364.028	23.34
364.237	23.05
364.446	23.13
364.655	22.96
364.864	22.83
365.073	23.78
365.282	23.17
365.491	22.15
365.7	22.46
365.909	22.94
366.118	22.06
366.327	22.9
366.536	24.21
366.745	24.06
366.954	24.95
367.162	25.52
367.371	25.44
367.58	25.86
367.789	26.45
367.998	25.79
368.207	25.17
368.415	25.57
368.624	25.16
368.833	24.77
369.042	25.37
369.25	25.35
369.459	24.6
369.668	24.76
369.877	25.29
370.085	24.87
370.294	25.09
370.503	25.03
370.711	24.26
370.92	23.81
371.129	23.9
371.337	23.94
371.546	23.06
371.754	23.23
371.963	23.1
372.171	23.16
372.38	23.31
372.589	24.1
372.797	24.17
373.006	24.31
373.214	24.9
373.423	24.46
373.631	24
373.84	23.39
374.048	22.73
374.256	22.23
374.465	21.47
374.673	21.65
374.882	20.65
375.09	20.69
375.298	21.18
375.507	21.03
375.715	20.16
375.923	19.23
376.132	19.91
376.34	19.77
376.548	20.63
376.757	20.73
376.965	20.72
377.173	21.04
377.381	21.52
377.59	21.71
377.798	21.28
378.006	22.16
378.214	23.56
378.423	23.66
378.631	23.18
378.839	22.46
379.047	22.83
379.255	22.24
379.463	21.56
379.671	21.05
379.879	19.85
380.088	20.4
380.296	19.99
380.504	19.98
380.712	20.17
380.92	20.5
381.128	20.59
381.336	20.64
381.544	21.83
381.752	21.8
381.96	21.53
382.168	22.24
382.376	21.77
382.584	21.13
382.791	20.14
382.999	20.13
383.207	20.24
383.415	20.65
383.623	19.88
383.831	18.22
384.039	18.84
384.247	18.97
384.454	19.17
384.662	18.68
384.87	18.82
385.078	19.41
385.285	18.98
385.493	19.22
385.701	18.28
385.909	18.35
386.116	18.83
386.324	18.75
386.532	18.45
386.739	17.7
386.947	18.02
387.155	18.82
387.362	18.02
387.57	17.69
387.778	17.98
387.985	18.54
388.193	18.46
388.4	18.49
388.608	18.24
388.816	17.84
389.023	17.69
389.231	17.7
389.438	17.31
389.646	18.21
389.853	18.56
390.061	17.8
390.268	16.97
390.475	17.13
390.683	16.11
390.89	16.09
391.098	15.73
391.305	16.08
391.512	16.44
391.72	15.77
391.927	15.24
392.135	15.52
392.342	15.47
392.549	15.95
392.756	16.01
392.964	16.62
393.171	16.42
393.378	16.91
393.586	16.56
393.793	15.62
394	16.4
394.207	16.52
394.414	15.99
394.622	16.4
394.829	15.76
395.036	15.66
395.243	15.55
395.45	16.39
395.657	16.9
395.864	17.23
396.072	18.11
396.279	17.67
396.486	17.7
396.693	18.09
396.9	17.87
397.107	18.91
397.314	19.12
397.521	19.42
397.728	18.64
397.935	17.54
398.142	16.94
398.349	16.58
398.556	16.29
398.763	15.85
398.97	15.35
399.177	15.26
399.383	14.97
399.59	14.94
399.797	15.02
400.004	15.3
400.211	15.92
400.418	16.71
400.625	17.65
400.831	18
401.038	18.11
401.245	18.43
401.452	18.29
401.658	18.31
401.865	18.18
402.072	17.54
402.279	17.08
402.485	16.85
402.692	16.22
402.899	14.98
403.105	14.33
403.312	14.61
403.519	14.52
403.725	14.61
403.932	13.99
404.138	13.67
404.345	13.42
404.552	13.52
404.758	13.6
404.965	13.13
405.171	13.43
405.378	13.57
405.584	13.38
405.791	12.85
405.997	12.81
406.204	12.89
406.41	13.4
406.617	13.35
406.823	12.93
407.029	12.78
407.236	12.64
407.442	12.4
407.649	13.03
407.855	13.19
408.061	13.83
408.268	13.79
408.474	14.46
408.68	13.28
408.887	13.47
409.093	13.45
409.299	13.4
409.505	13.84
409.712	13.86
409.918	13.38
410.124	12.71
410.33	12.56
410.537	12.3
410.743	12.19
410.949	13.1
411.155	13.03
411.361	13.86
411.567	13.9
411.773	13.81
411.98	13.75
412.186	13.51
412.392	14.17
412.598	13.55
412.804	13.98
413.01	13.84
413.216	13.64
413.422	14.17
413.628	13.58
413.834	13.38
414.04	14.04
414.246	14.16
414.452	14.7
414.658	14.8
414.864	15.25
415.07	15.53
415.275	15.63
415.481	15.4
415.687	14.92
415.893	14.78
416.099	14.87
416.305	14.58
416.511	14.35
416.716	13.71
416.922	13.32
417.128	12.94
417.334	12.42
417.539	11.81
417.745	11.4
417.951	11.36
418.157	11.03
418.362	10.73
418.568	10.28
418.774	9.84
418.979	9.84
419.185	9.34
419.391	9.39
419.596	9.09
419.802	8.87
420.008	8.97
420.213	8.72
420.419	8.91
420.624	8.63
420.83	8.64
421.035	8.82
421.241	8.72
421.446	9.12
421.652	8.81
421.857	8.73
422.063	8.97
422.268	8.73
422.474	8.9
422.679	8.69
422.885	9.07
423.09	8.9
423.295	8.75
423.501	8.74
423.706	8.45
423.911	8.54
424.117	8.61
424.322	8.41
424.527	8.56
424.733	8.57
424.938	8.84
425.143	8.62
425.349	8.8
425.554	9.05
425.759	9.19
425.964	9.35
426.169	9.51
426.375	9.76
426.58	9.81
426.785	9.86
426.99	9.93
427.195	9.92
427.4	9.85
427.605	9.84
427.811	9.62
428.016	9.87
428.221	9.98
428.426	10.04
428.631	10.06
428.836	10.44
429.041	10.93
429.246	11.25
429.451	11.58
429.656	11.85
429.861	12.07
430.066	12.35
430.271	12.47
430.476	12.38
430.681	12.4
430.886	12.23
431.09	11.71
431.295	11.44
431.5	10.81
431.705	9.81
431.91	9.46
432.115	9.23
432.32	9.59
432.524	9.18
432.729	8.89
432.934	8.56
433.139	8.81
433.343	9.06
433.548	8.66
433.753	8.66
433.958	9.24
434.162	9.53
434.367	9.73
434.572	9.27
434.776	9.38
434.981	9.72
435.186	9.94
435.39	9.71
435.595	10.08
435.799	10.19
436.004	10.17
436.209	10.16
436.413	10.36
436.618	10.33
436.822	10.38
437.027	10.04
437.231	9.43
437.436	9.4
437.64	9.43
437.845	9.23
438.049	9.4
438.253	9.76
438.458	9.19
438.662	8.95
438.867	8.68
439.071	8.55
439.275	8.51
439.48	8.88
439.684	8.88
439.888	8.77
440.093	8.79
440.297	8.62
440.501	8.4
440.706	8.69
440.91	8.68
441.114	8.69
441.318	9.19
441.523	9.71
441.727	9.84
441.931	9.81
442.135	9.92
442.339	10.01
442.543	10.37
442.748	10.67
442.952	10.72
443.156	10.72
443.36	10.84
443.564	10.51
443.768	9.79
443.972	9.92
444.176	9.68
444.38	9.53
444.584	9.24
444.788	8.82
444.992	8.23
445.196	8.2
445.4	8.21
445.604	7.9
445.808	7.79
446.012	8
446.216	7.63
446.42	7.6
446.624	7.74
446.828	7.78
447.032	7.93
447.235	8.38
447.439	8.22
447.643	8.23
447.847	8.65
448.051	8.88
448.254	9.26
448.458	9.36
448.662	9.63
448.866	9.74
449.069	9.83
449.273	9.87
449.477	9.76
449.681	10.26
449.884	10.34
450.088	10.46
450.292	10.38
450.495	10.03
450.699	10.18
450.902	10.15
451.106	10.02
451.31	10.13
451.513	10.21
451.717	10.25
451.92	10.25
452.124	10.19
452.327	10
452.531	9.89
452.734	9.73
452.938	9.57
453.141	9.66
453.345	9.61
453.548	9.38
453.752	9.59
453.955	9.88
454.158	9.62
454.362	9.61
454.565	9.75
454.769	9.89
454.972	10.19
455.175	10.36
455.379	10.43
455.582	10.41
455.785	10.55
455.988	10.55
456.192	10.14
456.395	10.41
456.598	10.65
456.801	10.54
457.005	10.25
457.208	10.31
457.411	10.01
457.614	9.88
457.817	10.21
458.021	10.08
458.224	9.97
458.427	9.83
458.63	9.52
458.833	9.23
459.036	9.01
459.239	8.86
459.442	8.65
459.645	8.9
459.848	8.86
460.051	8.67
460.254	8.55
460.457	8.36
460.66	8.36
460.863	8.33
461.066	8.21
461.269	8.37
461.472	8.56
461.675	8.66
461.878	8.62
462.081	8.65
462.284	8.42
462.486	8.63
462.689	8.95
462.892	9.59
463.095	9.82
463.298	10.41
463.5	10.74
463.703	10.76
463.906	10.86
464.109	10.92
464.311	11.01
464.514	11.21
464.717	11.62
464.92	11.13
465.122	10.76
465.325	10.56
465.528	10.24
465.73	9.73
465.933	9.98
466.135	10.27
466.338	10.26
466.541	9.94
466.743	9.95
466.946	9.34
467.148	9.84
467.351	9.77
467.553	10.03
467.756	10.25
467.958	10.18
468.161	10.01
468.363	9.65
468.566	9.46
468.768	9.82
468.971	9.8
469.173	10
469.375	9.41
469.578	9.41
469.78	9.25
469.983	9.15
470.185	9.85
470.387	10.05
470.59	10.39
470.792	10.51
470.994	10.15
471.196	10.36
471.399	10.52
471.601	11.08
471.803	10.99
472.005	10.89
472.208	10.8
472.41	10.36
472.612	10.25
472.814	9.71
473.016	9.59
473.218	9.68
473.421	9.58
473.623	9.42
473.825	9.02
474.027	9.09
474.229	9.27
474.431	9.41
474.633	9.39
474.835	9.49
475.037	9.62
475.239	9.67
475.441	10.08
475.643	10.08
475.845	9.94
476.047	10.16
476.249	10
476.451	9.81
476.653	9.66
476.855	9.53
477.057	9.31
477.258	9.19
477.46	9.06
477.662	8.86
477.864	8.41
478.066	8.47
478.268	8.22
478.469	8.01
478.671	8.11
478.873	8.17
479.075	8.34
479.276	8.23
479.478	8.21
479.68	8.1
479.882	7.85
480.083	7.98
480.285	7.95
480.487	8.06
480.688	8.46
480.89	8.34
481.091	8.17
481.293	7.82
481.495	7.58
481.696	7.54
481.898	7.41
482.099	7.27
482.301	7.04
482.502	6.73
482.704	6.45
482.905	6.11
483.107	5.83
483.308	5.65
483.51	5.54
483.711	5.49
483.913	5.32
484.114	5.34
484.315	5.26
484.517	5.21
484.718	5.26
484.92	5.32
485.121	5.38
485.322	5.54
485.524	5.63
485.725	5.88
485.926	5.93
486.127	6.06
486.329	5.88
486.53	5.9
486.731	5.89
486.932	5.86
487.134	5.91
487.335	5.91
487.536	5.77
487.737	5.82
487.938	5.69
488.139	5.67
488.341	5.6
488.542	5.82
488.743	5.97
488.944	6.12
489.145	6.11
489.346	6.1
489.547	6.15
489.748	6.38
489.949	6.27
490.15	6.37
490.351	6.38
490.552	6.41
490.753	6.44
490.954	6.38
491.155	6.41
491.356	6.56
491.557	6.64
491.758	6.58
491.959	6.41
492.159	6.61
492.36	6.67
492.561	6.76
492.762	7
492.963	6.99
493.164	7.1
493.364	7.04
493.565	7.23
493.766	7.29
493.967	7.57
494.167	7.84
494.368	7.79
494.569	7.77
494.769	8.01
494.97	7.9
495.171	7.99
495.371	8.22
495.572	8.28
495.773	8.12
495.973	8.15
496.174	8.12
496.375	8.39
496.575	8.27
496.776	8.09
496.976	7.66
497.177	7.74
497.377	7.75
497.578	7.52
497.778	7.69
497.979	7.81
498.179	7.66
498.38	7.56
498.58	7.62
498.78	7.63
498.981	7.85
499.181	8.46
499.382	8.42
499.582	8.7
499.782	8.69
499.983	8.62
500.183	8.53
500.383	8.65
500.584	8.75
500.784	8.6
500.984	8.93
501.184	8.9
501.385	8.66
501.585	8.99
501.785	8.99
501.985	9.23
502.185	9.47
502.386	9.66
502.586	9.52
502.786	9.52
502.986	9.33
503.186	9.29
503.386	9.43
503.586	9.56
503.786	9.39
503.987	9.11
504.187	9.19
504.387	9.38
504.587	9.09
504.787	9.47
504.987	9.67
505.187	9.9
505.387	9.9
505.587	9.86
505.786	9.89
505.986	9.94
506.186	10.09
506.386	9.86
506.586	9.65
506.786	9.91
506.986	9.71
507.186	9.8
507.386	9.7
507.585	9.96
507.785	10.25
507.985	10.19
508.185	10.06
508.384	9.98
508.584	10.14
508.784	9.99
508.984	9.99
509.183	10.03
509.383	10.06
509.583	10.05
509.782	10.09
509.982	10.13
510.182	10.19
510.381	10.5
510.581	10.79
510.781	10.8
510.98	10.92
511.18	11.08
511.379	11.13
511.579	10.91
511.778	11.09
511.978	11.01
512.177	10.88
512.377	11.09
512.576	10.89
512.776	10.85
512.975	10.88
513.175	11.12
513.374	11.05
513.573	11.23
513.773	11.55
513.972	11.56
514.172	11.57
514.371	11.83
514.57	11.74
514.77	11.76
514.969	11.64
515.168	11.81
515.367	11.86
515.567	12.12
515.766	12.16
515.965	12.13
516.164	12.32
516.364	12.46
516.563	12.51
516.762	12.68
516.961	12.99
517.16	13.02
517.359	12.89
517.559	12.86
517.758	12.83
517.957	12.81
518.156	12.98
518.355	12.89
518.554	12.93
518.753	12.8
518.952	12.6
519.151	12.61
519.35	12.8
519.549	13.05
519.748	13.27
519.947	13.4
520.146	13.77
520.345	13.8
520.544	14.04
520.743	14.42
520.942	14.78
521.141	15.19
521.339	15.48
521.538	15.62
521.737	15.57
521.936	15.35
522.135	15.42
522.333	15.5
522.532	15.41
522.731	15.43
522.93	15.17
523.129	14.86
523.327	15.16
523.526	15.16
523.725	15.33
523.923	15.55
524.122	15.53
524.321	15.74
524.519	15.59
524.718	15.77
524.917	15.95
525.115	16.08
525.314	16.39
525.512	16.42
525.711	16.35
525.909	16.35
526.108	16.22
526.306	16.5
526.505	16.52
526.703	16.65
526.902	16.61
527.1	16.51
527.299	16.55
527.497	16.4
527.696	16.33
527.894	16.35
528.092	16.32
528.291	16.36
528.489	16.33
528.688	16.28
528.886	16.19
529.084	16.3
529.283	16.5
529.481	16.51
529.679	16.82
529.877	16.91
530.076	17.11
530.274	17.41
530.472	17.76
530.67	18.04
530.869	18.36
531.067	18.67
531.265	18.87
531.463	18.83
531.661	19.01
531.859	18.83
532.057	18.91
532.255	18.98
532.454	18.97
532.652	19.02
532.85	19.07
533.048	18.98
533.246	19.11
533.444	19.22
533.642	19.43
533.84	19.55
534.038	19.68
534.236	19.9
534.434	20.02
534.632	20.01
534.83	20.17
535.027	20.39
535.225	20.7
535.423	20.95
535.621	20.97
535.819	20.94
536.017	20.95
536.215	21.22
536.412	21.26
536.61	21.44
536.808	21.67
537.006	21.7
537.203	22.06
537.401	22.2
537.599	22.18
537.797	22.62
537.994	22.76
538.192	22.95
538.39	23.08
538.587	23.23
538.785	23.61
538.983	23.74
539.18	23.74
539.378	23.25
539.575	23.19
539.773	23.15
539.97	22.91
540.168	23.11
540.366	23.16
540.563	23.08
540.761	22.97
540.958	22.64
541.155	22.56
541.353	22.79
541.55	22.89
541.748	22.95
541.945	23.12
542.143	23.19
542.34	23.18
542.537	23.16
542.735	23.27
542.932	23.58
543.129	23.85
543.327	24.08
543.524	23.98
543.721	24.35
543.919	24.66
544.116	24.82
544.313	25.05
544.51	25.02
544.708	25.26
544.905	25.43
545.102	25.55
545.299	25.74
545.496	25.77
545.693	25.92
545.891	25.88
546.088	25.91
546.285	25.97
546.482	25.87
546.679	26.13
546.876	26.22
547.073	26.33
547.27	26.25
547.467	26.06
547.664	26.41
547.861	26.75
548.058	26.89
548.255	27.02
548.452	27.43
548.649	27.94
548.846	28.33
549.043	28.76
549.24	29.07
549.437	29.57
549.633	29.94
549.83	29.82
550.027	29.62
550.224	29.58
550.421	29.44
550.618	29.11
550.814	28.72
551.011	28.85
551.208	28.7
551.405	28.64
551.601	28.55
551.798	28.76
551.995	28.82
552.191	29.03
552.388	29.15
552.585	29.17
552.781	29.08
552.978	29.45
553.175	29.25
553.371	29.35
553.568	29.67
553.764	29.74
553.961	29.62
554.157	29.85
554.354	30.04
554.55	30.15
554.747	30.3
554.943	30.31
555.14	30.42
555.336	30.73
555.533	30.9
555.729	30.82
555.926	31.15
556.122	31.23
556.318	31.38
556.515	31.36
556.711	31.24
556.907	31.38
557.104	31.92
557.3	31.75
557.496	31.32
557.693	31.5
557.889	31.87
558.085	31.91
558.281	32.3
558.478	32.58
558.674	32.77
558.87	32.93
559.066	32.8
559.262	32.5
559.459	32.78
559.655	32.94
559.851	32.62
560.047	32.45
560.243	32.11
560.439	31.95
560.635	31.42
560.831	31.15
561.027	31.14
561.223	31.24
561.419	31.64
561.615	31.62
561.811	31.92
562.007	32.53
562.203	32.4
562.399	32.56
562.595	32.52
562.791	32.9
562.987	33.42
563.183	33.53
563.379	33.84
563.575	33.58
563.771	33.56
563.966	33.32
564.162	32.67
564.358	32.6
564.554	32.41
564.75	32.27
564.945	32.08
565.141	31.51
565.337	31.25
565.533	31
565.728	30.87
565.924	30.78
566.12	30.92
566.315	30.95
566.511	30.48
566.707	30.35
566.902	30.54
567.098	30.75
567.293	30.93
567.489	30.77
567.684	31.01
567.88	31.34
568.076	31.58
568.271	31.74
568.467	31.72
568.662	32.46
568.858	32.87
569.053	32.81
569.248	32.29
569.444	32.24
569.639	32.53
569.835	32.41
570.03	32.31
570.225	32.03
570.421	31.61
570.616	31.76
570.812	31.44
571.007	31.19
571.202	31.02
571.397	31.19
571.593	31.23
571.788	31.01
571.983	30.79
572.178	30.66
572.374	30.46
572.569	30.8
572.764	31.05
572.959	31.32
573.154	31.59
573.35	31.9
573.545	32.17
573.74	32.19
573.935	32.98
574.13	33.06
574.325	33.05
574.52	33.53
574.715	33.45
574.91	33.12
575.105	33.13
575.3	33.29
575.495	33.05
575.69	32.92
575.885	33.39
576.08	33.3
576.275	33.91
576.47	34.4
576.665	34.49
576.86	34.37
577.055	34.57
577.25	34.46
577.444	34.27
577.639	34.53
577.834	35.18
578.029	34.89
578.224	34.55
578.418	34.31
578.613	34.14
578.808	34.28
579.003	34.66
579.197	35.12
579.392	35.46
579.587	35.63
579.781	35.7
579.976	35.61
580.171	35.6
580.365	35.74
580.56	35.81
580.755	36.14
580.949	35.84
581.144	35.88
581.338	35.64
581.533	35.31
581.727	35.02
581.922	35.11
582.116	35.14
582.311	35.04
582.505	35.13
582.7	34.64
582.894	34.56
583.089	34.62
583.283	34.69
583.478	34.95
583.672	35.58
583.866	35.72
584.061	35.48
584.255	35.05
584.449	35.42
584.644	35.41
584.838	35.99
585.032	35.91
585.226	36.19
585.421	36.02
585.615	35.83
585.809	35.52
586.003	35.78
586.198	36.13
586.392	36.46
586.586	36.45
586.78	36.49
586.974	36.45
587.168	36.04
587.363	36.13
587.557	36.51
587.751	36.55
587.945	36.74
588.139	36.83
588.333	36.83
588.527	36.6
588.721	36.55
588.915	36.62
589.109	36.39
589.303	36.67
589.497	36.47
589.691	36.47
589.885	36.28
590.079	36.01
590.273	35.89
590.466	35.95
590.66	36.12
590.854	36.13
591.048	35.9
591.242	36.2
591.436	36.27
591.629	36.1
591.823	35.73
592.017	36
592.211	36.23
592.404	36.19
592.598	35.57
592.792	35.02
592.986	35.22
593.179	35.41
593.373	35.25
593.567	35.25
593.76	35.47
593.954	35.91
594.147	35.93
594.341	35.64
594.535	35.9
594.728	36.27
594.922	36.54
595.115	36.11
595.309	36.11
595.502	36.44
595.696	36.32
595.889	36.59
596.083	36.12
596.276	35.98
596.47	36.06
596.663	36.04
596.856	36.05
597.05	36.04
597.243	36.38
597.437	36.65
597.63	36.24
597.823	36.44
598.017	36.15
598.21	36.1
598.403	36.29
598.596	36.87
598.79	37.02
598.983	37.13
599.176	37.29
599.369	37.17
599.563	37.04
599.756	37.67
599.949	38.02
600.142	38.08
600.335	38.2
600.528	38.31
600.722	37.68
600.915	37.26
601.108	37.34
601.301	37.47
601.494	37.61
601.687	38.05
601.88	37.66
602.073	37.46
602.266	37.14
602.459	37.15
602.652	37.12
602.845	37.19
603.038	36.71
603.231	36.75
603.424	36.39
603.617	36.22
603.809	35.63
604.002	35.38
604.195	35.35
604.388	35.48
604.581	35.62
604.774	35.6
604.966	35.26
605.159	35.84
605.352	35.67
605.545	35.86
605.737	35.87
605.93	36.52
606.123	37.42
606.316	37.11
606.508	37.06
606.701	37.04
606.894	37.16
607.086	37.89
607.279	37.6
607.471	38.04
607.664	38.45
607.857	38.41
608.049	38.21
608.242	38.07
608.434	38.32
608.627	38.12
608.819	38.21
609.012	38.3
609.204	38.51
609.397	38.64
609.589	38.69
609.782	38.1
609.974	38.47
610.166	38.18
610.359	37.47
610.551	37.77
610.743	38.3
610.936	38.54
611.128	38.33
611.32	38.19
611.513	38.08
611.705	38.09
611.897	38.83
612.09	39.15
612.282	39.57
612.474	40.28
612.666	40.38
612.858	40.74
613.051	41.3
613.243	41.51
613.435	41.41
613.627	42.02
613.819	42.04
614.011	42.86
614.203	42.85
614.395	42.83
614.588	42.64
614.78	42.65
614.972	43.01
615.164	43.09
615.356	43.3
615.548	43.07
615.74	43.21
615.932	43
616.124	41.93
616.315	41.52
616.507	42.15
616.699	42.33
616.891	42.29
617.083	42.32
617.275	41.87
617.467	41.52
617.659	41.78
617.85	41.97
618.042	42.26
618.234	42.12
618.426	42.39
618.618	42.28
618.809	42.43
619.001	42.25
619.193	41.75
619.384	41.79
619.576	41.9
619.768	42
619.959	41.09
620.151	41.01
620.343	41.63
620.534	41.61
620.726	40.47
620.917	40.19
621.109	40.09
621.301	40.26
621.492	40.43
621.684	40.9
621.875	41.02
622.067	41.35
622.258	41.75
622.45	41.92
622.641	42.06
622.832	42.49
623.024	42.46
623.215	42.6
623.407	42.42
623.598	42.25
623.789	41.43
623.981	41.62
624.172	41.52
624.363	40.78
624.555	40.72
624.746	40.28
624.937	40.37
625.129	40.66
625.32	40.52
625.511	40.65
625.702	40.41
625.893	40.9
626.085	40.41
626.276	40.57
626.467	40.59
626.658	40.72
626.849	40.73
627.04	41.03
627.231	41.09
627.422	41.29
627.614	41.67
627.805	41.34
627.996	41.56
628.187	41.79
628.378	41.96
628.569	42.16
628.76	42.13
628.951	42.44
629.142	42.49
629.332	42.42
629.523	42.49
629.714	42.15
629.905	42.5
630.096	42.2
630.287	42.69
630.478	42.78
630.669	43.23
630.859	42.96
631.05	42.79
631.241	42.39
631.432	42.53
631.623	42.85
631.813	42.63
632.004	42.38
632.195	41.95
632.385	41.8
632.576	41.82
632.767	41.49
632.957	41.75
633.148	42.27
633.339	42.09
633.529	42.09
633.72	41.81
633.91	41.92
634.101	42.57
634.292	43.36
634.482	43.2
634.673	43.23
634.863	43.89
635.054	43.93
635.244	42.98
635.435	43.47
635.625	43.65
635.815	43.81
636.006	43.88
636.196	44.21
636.387	44.15
636.577	44.28
636.767	44.09
636.958	43.34
637.148	43.3
637.338	44.27
637.529	44.35
637.719	44.04
637.909	43.85
638.099	44.88
638.29	44.58
638.48	44.99
638.67	44.84
638.86	45.13
639.05	45.13
639.241	44.97
639.431	44.91
639.621	45.24
639.811	45.15
640.001	45.49
640.191	44.32
640.381	44.11
640.571	43.64
640.761	43.57
640.951	43.61
641.141	43.78
641.331	44.49
641.521	44.45
641.711	44.89
641.901	45.38
642.091	45.72
642.281	45.74
642.471	46.07
642.661	46.3
642.851	46.72
643.041	47.28
643.231	47.33
643.42	47.05
643.61	47.16
643.8	46.74
643.99	46.31
644.18	46.39
644.369	46.41
644.559	46.91
644.749	46.94
644.939	47.41
645.128	46.64
645.318	46.98
645.508	46.94
645.697	46.9
645.887	46.59
646.076	46.92
646.266	46.08
646.456	46.35
646.645	46.44
646.835	45.5
647.024	43.92
647.214	44.45
647.403	44.24
647.593	44.23
647.782	43.68
647.972	43.42
648.161	43.3
648.351	44.05
648.54	44.67
648.73	43.8
648.919	43.92
649.108	44.21
649.298	44.26
649.487	44.19
649.677	44.54
649.866	44.67
650.055	45.2
650.244	45.54
650.434	44.45
650.623	44.09
650.812	44.31
651.002	45.44
651.191	45.98
651.38	45.44
651.569	45.38
651.758	45.22
651.947	45.74
652.137	45.52
652.326	45.21
652.515	45.46
652.704	45.6
652.893	45.9
653.082	45.14
653.271	45.2
653.46	45.44
653.649	46.28
653.838	46.21
654.027	45.76
654.216	45.95
654.405	45.46
654.594	46.14
654.783	46.21
654.972	45.42
655.161	45.88
655.35	45.51
655.539	45.44
655.728	44.65
655.916	44.39
656.105	45.01
656.294	44.43
656.483	44.45
656.672	43.69
656.86	43.12
657.049	43.73
657.238	42.99
657.427	43.33
657.615	42.98
657.804	42.98
657.993	42.49
658.181	41.57
658.37	42.2
658.559	43.03
658.747	43.48
658.936	43.51
659.125	44.64
659.313	45.01
659.502	45.15
659.69	45.31
659.879	45.26
660.067	45.52
660.256	46.04
660.444	46.1
660.633	45.85
660.821	45.49
661.01	45.28
661.198	43.47
661.387	44.56
661.575	44.2
661.763	45.02
661.952	45.44
662.14	46.03
662.328	46.17
662.517	45.82
662.705	46.22
662.893	46.86
663.082	47.92
663.27	47.8
663.458	47.01
663.646	47.72
663.834	47.18
664.023	47.39
664.211	47.42
664.399	47.05
664.587	47.13
664.775	46.31
664.963	47.17
665.152	46.96
665.34	48.09
665.528	47.75
665.716	47.27
665.904	47.68
666.092	47.16
666.28	47.81
666.468	47.49
666.656	47.5
666.844	48
667.032	47.27
667.22	47.11
667.408	46.9
667.596	46.4
667.784	47.14
667.971	47.02
668.159	47.49
668.347	46.01
668.535	46.62
668.723	46.48
668.911	46.75
669.098	46.86
669.286	46.58
669.474	47.31
669.662	48.47
669.849	48.47
670.037	48.72
670.225	48.7
670.413	49.37
670.6	49.55
670.788	49.98
670.976	49.77
671.163	49.68
671.351	50.37
671.538	49.53
671.726	49.66
671.913	49.63
672.101	48.71
672.289	49.04
672.476	48.73
672.664	48.82
672.851	49.07
673.039	49.08
673.226	49.25
673.413	49.73
673.601	49.19
673.788	48.73
673.976	47.94
674.163	48.25
674.35	47.82
674.538	48.24
674.725	48.14
674.912	48.67
675.1	48.08
675.287	47.71
675.474	47.71
675.662	48.54
675.849	48.6
676.036	48.38
676.223	49.28
676.411	49.5
676.598	49.65
676.785	49.8
676.972	49.5
677.159	49.87
677.346	50.12
677.533	49.87
677.721	49.48
677.908	50.13
678.095	51.21
678.282	50.5
678.469	50.19
678.656	49.41
678.843	49.3
679.03	48.83
679.217	48.46
679.404	47.81
679.591	47.33
679.778	47.43
679.964	46.36
680.151	45.93
680.338	46.09
680.525	46.18
680.712	46.99
680.899	46.65
681.086	47.3
681.272	47.77
681.459	48.7
681.646	48.98
681.833	49.18
682.02	49.74
682.206	50.45
682.393	51.07
682.58	51.65
682.766	50.84
682.953	51.86
683.14	50.56
683.326	51.68
683.513	51.91
683.7	51.73
683.886	51.79
684.073	51.99
684.259	51.38
684.446	51.56
684.632	51.66
684.819	52.73
685.005	53.23
685.192	53.79
685.378	53.39
685.565	53.36
685.751	52.91
685.938	52.74
686.124	51.84
686.31	51.51
686.497	50.76
686.683	49.83
686.87	49.2
687.056	48.44
687.242	49.63
687.429	49.1
687.615	47.94
687.801	48.46
687.987	48.89
688.174	49.24
688.36	49.7
688.546	50.66
688.732	51.79
688.918	52.8
689.105	53.09
689.291	52.46
689.477	53.02
689.663	54.49
689.849	55.15
690.035	54.79
690.221	55.65
690.407	55.83
690.593	55.82
690.779	55.92
690.965	54.91
691.151	54.15
691.337	54.47
691.523	54.14
691.709	53.34
691.895	53.28
692.081	53.75
692.267	54.28
692.453	54.86
692.639	53.48
692.825	52.92
693.011	53.66
693.196	55.12
693.382	55.44
693.568	55.56
693.754	56.26
693.94	56.55
694.125	56.45
694.311	55.21
694.497	54.54
694.682	55.54
694.868	55.68
695.054	55.72
695.239	54.7
695.425	53.8
695.611	53.22
695.796	52.03
695.982	51.48
696.168	51.07
696.353	50.99
696.539	50.25
696.724	49.82
696.91	48.66
697.095	48.38
697.281	48.03
697.466	47.62
697.652	47.71
697.837	47.88
698.023	48.08
698.208	47.1
698.393	47.19
698.579	47.39
698.764	46.89
698.949	47.04
699.135	46.87
699.32	46.97
699.505	47.31
699.691	47.23
699.876	46.53
700.061	46.49
700.246	47.94
700.432	47.39
700.617	48.36
700.802	48.62
700.987	49.75
701.172	50.63
701.358	51.76
701.543	52.05
701.728	52.7
701.913	54.97
702.098	55.84
702.283	55.85
702.468	57.43
702.653	57.37
702.838	58.81
703.023	58.91
703.208	58.5
703.393	58.06
703.578	58.71
703.763	58.21
703.948	58.3
704.133	58.08
704.318	59.32
704.503	59.1
704.688	58.52
704.873	58.07
705.057	59.31
705.242	58.7
705.427	58.9
705.612	59.22
705.797	60.74
705.981	60.61
706.166	60.07
706.351	58.95
706.536	59.83
706.72	58.96
706.905	60.11
707.09	58.86
707.274	60.28
707.459	60.67
707.644	59.85
707.828	59.51
708.013	58.77
708.197	58.8
708.382	60.32
708.567	59.47
708.751	59.44
708.936	58.82
709.12	58.25
709.305	58.16
709.489	58.1
709.673	57.68
709.858	56.72
710.042	57.98
710.227	57.61
710.411	57.44
710.596	57.03
710.78	57.61
710.964	56.51
711.149	56.18
711.333	55.78
711.517	55.44
711.702	56.55
711.886	56.41
712.07	54.66
712.254	55.89
712.438	55.71
712.623	56.74
712.807	57.36
712.991	57.29
713.175	58.65
713.359	59.28
713.544	58.99
713.728	57.89
713.912	58.86
714.096	59.91
714.28	58.62
714.464	57.7
714.648	56.93
714.832	57.54
715.016	58.06
715.2	57.53
715.384	56.45
715.568	56.75
715.752	56.45
715.936	56.45
716.12	56.25
716.304	56.87
716.488	57.01
716.671	57.1
716.855	56.84
717.039	56.66
717.223	56.47
717.407	57.15
717.59	57.53
717.774	59.3
717.958	59.33
718.142	59.08
718.325	58.62
718.509	59.57
718.693	59.22
718.877	59.33
719.06	60.22
719.244	61.56
719.428	62.64
719.611	63.98
719.795	63.42
719.978	65.14
720.162	65.57
720.345	66.89
720.529	66.43
720.713	68.8
720.896	68.85
721.08	68.36
721.263	68.19
721.446	69.01
721.63	68.89
721.813	68.62
721.997	67.55
722.18	67.56
722.364	68.83
722.547	68.88
722.73	67.37
722.914	67.22
723.097	70.2
723.28	71.57
723.464	71.36
723.647	71.89
723.83	72.87
724.013	71.7
724.197	72.91
724.38	70.41
724.563	70.12
724.746	70.92
724.929	71.37
725.112	69
725.296	67.79
725.479	66.26
725.662	63.64
725.845	61.88
726.028	63.25
726.211	62.91
726.394	64.75
726.577	65.28
726.76	64.43
726.943	63.91
727.126	63.8
727.309	62.84
727.492	63.92
727.675	64.79
727.858	66.24
728.041	66.04
728.224	63.39
728.407	61.21
728.589	60.23
728.772	58.99
728.955	58.63
729.138	59.44
729.321	61.01
729.503	60.91
729.686	59.43
729.869	58.85
730.052	58.39
730.234	60.29
730.417	60.32
730.6	61.11
730.782	61.5
730.965	60.75
731.148	60.39
731.33	57.74
731.513	57.3
731.695	59.03
731.878	59.31
732.061	57.98
732.243	57.42
732.426	57.43
732.608	57.49
732.791	59.34
732.973	60.14
733.156	61.5
733.338	63.67
733.52	64.05
733.703	64.22
733.885	63.07
734.068	65.73
734.25	66.9
734.432	68.74
734.615	68.71
734.797	67.17
734.979	67.72
735.162	67.1
735.344	67.38
735.526	67.21
735.708	66.35
735.891	68.07
736.073	66.93
736.255	66.93
736.437	66.61
736.619	66.63
736.802	67.53
736.984	67.28
737.166	67.35
737.348	67.23
737.53	67.68
737.712	69.23
737.894	66.63
738.076	67.64
738.258	68
738.44	67.16
738.622	66.52
738.804	66.47
738.986	65.58
739.168	65.53
739.35	65.28
739.532	64.62
739.714	64.09
739.896	65.11
740.078	64.78
740.259	64.7
740.441	67.05
740.623	67.16
740.805	67.44
740.987	68.56
741.168	68.43
741.35	69.37
741.532	70.07
741.714	71.08
741.895	73.36
742.077	70.43
742.259	69.58
742.44	67.55
742.622	69.16
742.804	71.01
742.985	69.9
743.167	69.62
743.348	69.46
743.53	69.52
743.711	68.92
743.893	69.23
744.075	71.81
744.256	72.92
744.438	72.31
744.619	73.95
744.8	72.27
744.982	74.66
745.163	78.52
745.345	78.26
745.526	76.01
745.707	76.66
745.889	76.46
746.07	77.83
746.252	77.47
746.433	77.44
746.614	75.87
746.795	74.45
746.977	77.12
747.158	73.91
747.339	73.04
747.52	76.95
747.702	75.81
747.883	75.93
748.064	75.88
748.245	75.67
748.426	78.67
748.607	77.79
748.788	81.65
748.97	78.09
749.151	78.74
749.332	80.88
749.513	80.03
749.694	80.45
749.875	81.52
750.056	81.78
750.237	83.56
750.418	82.85
750.599	84.93
750.78	80.41
750.96	80.57
751.141	81.18
751.322	80.64
751.503	79.84
751.684	82.8
751.865	80.13
752.046	78.05
752.226	76.19
752.407	75.34
752.588	73.3
752.769	74.7
752.949	73.17
753.13	71.41
753.311	69.77
753.492	71.04
753.672	69.15
753.853	71.84
754.034	73.08
754.214	71.83
754.395	71.87
754.575	72.27
754.756	71.63
754.937	74.34
755.117	73.59
755.298	76.12
755.478	79.3
755.659	78.84
755.839	78.21
756.02	78.94
756.2	83.56
756.381	83.06
756.561	84.65
756.741	85.53
756.922	87.04
757.102	89.94
757.283	88
757.463	84.24
757.643	85.41
757.823	85.16
758.004	84.75
758.184	81.94
758.364	82.08
758.545	81.93
758.725	83.16
758.905	83.04
759.085	82.29
759.265	82.24
759.446	81.22
759.626	81.85
759.806	77.71
759.986	75.03
760.166	76.38
760.346	76.77
760.526	75.01
760.706	76.03
760.886	73.21
761.066	74.29
761.246	72.63
761.426	71.83
761.606	68.03
761.786	69.78
761.966	69.84
762.146	68.25
762.326	67.97
762.506	68.22
762.686	66.22
762.866	66.75
763.046	63.77
763.225	63.57
763.405	62.04
763.585	62.26
763.765	61.34
763.945	62.31
764.124	62.77
764.304	62.6
764.484	64.18
764.664	65.07
764.843	64.96
765.023	68.64
765.203	68.52
765.382	70.64
765.562	71.61
765.741	73.78
765.921	74.18
766.101	74.62
766.28	74.21
766.46	73.3
766.639	71.57
766.819	72.79
766.998	71.29
767.178	72.99
767.357	74.88
767.537	77.77
767.716	77.76
767.896	77.98
768.075	79.41
768.254	78.74
768.434	79.13
768.613	80.9
768.792	80.98
768.972	79.23
769.151	81.78
769.33	81.11
769.51	78.74
769.689	81.32
769.868	83.86
770.047	82.56
770.226	83.54
770.406	81.92
770.585	83.98
770.764	83.41
770.943	83.66
771.122	81.86
771.301	84.17
771.48	83.96
771.66	85.58
771.839	86.68
772.018	88.58
772.197	94.04
772.376	98.3
772.555	99.2
772.734	99.82
772.913	102
773.092	100.67
773.271	98.02
773.449	101.5
773.628	99.39
773.807	98.88
773.986	98.38
774.165	94.95
774.344	93.58
774.523	89.69
774.701	89.87
774.88	92.89
775.059	93.56
775.238	95.18
775.417	97.97
775.595	99.52
775.774	96.77
775.953	98.82
776.131	98.36
776.31	95.54
776.489	96.95
776.667	96.74
776.846	93.07
777.025	93.9
777.203	94.86
777.382	90.73
777.56	88.92
777.739	92.03
777.917	91.54
778.096	94.19
778.274	97.1
778.453	95.24
778.631	95.34
778.81	96.43
778.988	95.86
779.166	95.21
779.345	96.46
779.523	102.42
779.702	102.35
779.88	102.8
780.058	98.48
780.237	99.84
780.415	102.84
780.593	103.5
780.771	102.53
780.95	107.9
781.128	107.48
781.306	110.46
781.484	105.07
781.662	104.51
781.841	103.15
782.019	102.08
782.197	100.27
782.375	96.46
782.553	96.78
782.731	100.35
782.909	97.44
783.087	103.25
783.265	102.07
783.443	103.57
783.621	103.39
783.799	102.67
783.977	109.48
784.155	111.21
784.333	115.76
784.511	112.83
784.689	114.88
784.867	111.25
785.045	107.85
785.223	103.38
785.4	105.64
785.578	103.64
785.756	103.16
785.934	101.31
786.112	102.69
786.289	101.49
786.467	104.41
786.645	99.88
786.823	102.47
787	101.81
787.178	104.31
787.356	101.46
787.533	101.21
787.711	98.55
787.889	96.56
788.066	92.05
788.244	95.03
788.421	94.08
788.599	97.34
788.776	99.14
788.954	94.96
789.131	92.93
789.309	93.91
789.486	96.43
789.664	98.71
789.841	102.52
790.019	104.62
790.196	106.11
790.373	106.83
790.551	104.04
790.728	108.77
790.906	115.63
791.083	120.18
791.26	119.89
791.437	113.07
791.615	116.39
791.792	115.08
791.969	116.34
792.146	112.96
792.324	111.19
792.501	113.67
792.678	108.84
792.855	104.48
793.032	103.32
793.209	99.92
793.387	104.15
793.564	103.18
793.741	106.95
793.918	108.3
794.095	104.36
794.272	107.97
794.449	106.66
794.626	109.09
794.803	108.69
794.98	105.14
795.157	108.46
795.334	107.84
795.511	107.09
795.688	99.39
795.864	96.28
796.041	98.48
796.218	98.1
796.395	96.33
796.572	93.19
796.749	96.33
796.925	97.58
797.102	95.02
797.279	96.11
797.456	100.66
797.632	105.55
797.809	111.09
797.986	112.73
798.162	113.93
798.339	121
798.516	127.02
798.692	126.72
798.869	132.02
799.046	141.23
799.222	137.03
799.399	131.94
799.575	135.6
799.752	128.74
799.928	127.55
800.105	118.98
800.281	114.88
800.458	111.8
800.634	105.86
800.811	108.81
800.987	108.48
801.163	111.63
801.34	113.18
801.516	102.41
801.692	105.23
801.869	101.27
802.045	106.23
802.221	106.12
802.398	105.72
802.574	107.72
802.75	105.57
802.926	110.57
803.103	111.18
803.279	109.06
803.455	115.2
803.631	125
803.807	132.59
803.983	135.66
804.16	139.1
804.336	138.56
804.512	138.65
804.688	147.22
804.864	145.64
805.04	144.29
805.216	147.95
805.392	151.23
805.568	143.7
805.744	135.93
805.92	130.8
806.096	130.33
806.272	136.13
806.448	138.37
806.623	132.51
806.799	132.48
806.975	129.19
807.151	130.5
807.327	135.2
807.503	132.46
807.678	135.4
807.854	147.39
808.03	147.9
808.206	145.65
808.381	144.96
808.557	134.2
808.733	133.84
808.908	132.6
809.084	130.56
809.26	124.99
809.435	124.12
809.611	125.4
809.787	113.17
809.962	115.1
810.138	114.49
810.313	117.97
810.489	125.09
810.664	122.92
810.84	117.99
811.015	115.6
811.191	123.64
811.366	125.79
811.542	131.98
811.717	136.55
811.892	130.61
812.068	137.24
812.243	138.77
812.419	134.94
812.594	129.34
812.769	143.15
812.944	148.56
813.12	139.08
813.295	140.19
813.47	136.61
813.645	139.78
813.821	145.38
813.996	145.58
814.171	146.17
814.346	151.12
814.521	151.27
814.697	149.78
814.872	141.59
815.047	143.46
815.222	141.18
815.397	141.5
815.572	143.5
815.747	141.45
815.922	135.61
816.097	134.81
816.272	132.42
816.447	129.49
816.622	126.8
816.797	130.84
816.972	129.35
817.147	126.99
817.322	124.73
817.496	123.13
817.671	117.6
817.846	118.54
818.021	113.13
818.196	112.82
818.371	113.96
818.545	112.15
818.72	105.04
818.895	103.14
819.069	99.55
819.244	103.79
819.419	102
819.594	97.18
819.768	89.36
819.943	85.78
820.117	80.92
820.292	78.92
820.467	74.88
820.641	72.22
820.816	67.85
820.99	64.57
821.165	59.46
821.339	55.87
821.514	55.2
821.688	53.42
821.863	51.83
822.037	50.65
822.212	48.83
822.386	48.29
822.56	47.69
822.735	47.99
822.909	48.49
823.084	48.17
823.258	48.83
823.432	49.3
823.606	51.16
823.781	52.17
823.955	53.26
824.129	54.41
824.303	56.18
824.478	57.5
824.652	59.17
824.826	58.67
825	60.86
825.174	61.61
825.348	60.9
825.523	59.04
825.697	59.97
825.871	60.7
826.045	61.7
826.219	61.56
826.393	63.54
826.567	61.79
826.741	63.8
826.915	64.09
827.089	63.72
827.263	65.41
827.437	67.92
827.611	67.53
827.784	68.73
827.958	69.68
828.132	70.51
828.306	68.45
828.48	70.94
828.654	70.87
828.827	72.61
829.001	76.13
829.175	77.33
829.349	80.37
829.522	85.86
829.696	86.68
829.87	90.26
830.044	97.28
830.217	104.81
830.391	112.24
830.565	116.72
830.738	118.24
830.912	116.02
831.085	118.96
831.259	116.24
831.432	119.61
831.606	133.01
831.779	130
831.953	118.23
832.126	111.61
832.3	105.97
832.473	102.35
832.647	104.99
832.82	100.83
832.994	98.38
833.167	92.23
833.34	87.96
833.514	81.51
833.687	80.01
833.86	79.72
834.034	82.07
834.207	79.66
834.38	80.22
834.553	77.8
834.727	82.96
834.9	85.56
835.073	91.07
835.246	93.48
835.419	93.79
835.593	101.62
835.766	105.39
835.939	104.75
836.112	113.92
836.285	117.96
836.458	120.32
836.631	117.25
836.804	118.85
836.977	125.47
837.15	129.93
837.323	138.08
837.496	138.44
837.669	160.12
837.842	173.08
838.015	171.32
838.188	172.6
838.361	177.76
838.533	178.11
838.706	190.21
838.879	184.11
839.052	192.26
839.225	197.95
839.398	195.02
839.57	176.39
839.743	180.88
839.916	184.74
840.088	167.15
840.261	171.14
840.434	187.46
840.607	176.54
840.779	183.71
840.952	177.68
841.124	168.29
841.297	179.9
841.47	178.04
841.642	173.37
841.815	181.48
841.987	223.71
842.16	218.2
842.332	221.21
842.505	244.11
842.677	221.65
842.85	252.74
843.022	258.48
843.194	268.19
843.367	280.32
843.539	259.16
843.712	213.44
843.884	191.18
844.056	207.11
844.229	198.63
844.401	203.89
844.573	214.37
844.745	210.27
844.918	223.82
845.09	219.24
845.262	244.66
845.434	248.51
845.606	281.05
845.779	287.34
845.951	298.87
846.123	264.3
846.295	262.23
846.467	265.68
846.639	248
846.811	260.66
846.983	252.14
847.155	248.79
847.327	241.55
847.499	252.3
847.671	304.44
847.843	283.71
848.015	417.2
848.187	380.89
848.359	380.85
848.531	412.95
848.703	371.93
848.875	464.71
849.047	440.21
849.218	570.26
849.39	535.83
849.562	430.2
849.734	423.14
849.905	331.1
850.077	402.86
850.249	553.63
850.421	624.19
850.592	580.09
850.764	500.2
850.936	460.93
851.107	511.98
851.279	570.11
851.451	450
851.622	388.63
851.794	353.38
851.965	304.16
852.137	277.62
852.308	258.85
852.48	262.02
852.651	246.3
852.823	230.31
852.994	214.94
853.166	206.57
853.337	220.01
853.509	244.81
853.68	311.34
853.851	310.07
854.023	368.52
854.194	373.2
854.365	420.69
854.537	417.87
854.708	667.05
854.879	1148.72
855.05	1030.88
855.222	875.1
855.393	561.6
855.564	623.95
855.735	543.19
855.906	401.46
856.078	421.96
856.249	505.6
856.42	469.41
856.591	412.77
856.762	386.7
856.933	491.43
857.104	576.5
857.275	678.87
857.446	403.38
857.617	410.62
857.788	428.95
857.959	372.77
858.13	312.28
858.301	371.65
858.472	415.59
858.643	431.67
858.814	463.65
858.985	435.02
859.155	430.95
859.326	595.03
859.497	601.4
859.668	554.82
859.839	977.41
860.009	652.4
860.18	464.27
860.351	371.72
860.522	351.95
860.692	289.94
860.863	314.19
861.034	311.53
861.204	272.07
861.375	280.04
861.546	263.51
861.716	238.93
861.887	263.21
862.057	338.25
862.228	300
862.398	315.17
862.569	304.99
862.739	302.06
862.91	298.37
863.08	388.06
863.251	406
863.421	455.49
863.592	422.26
863.762	448.25
863.932	335.15
864.103	422.09
864.273	374.93
864.443	436.01
864.614	363.73
864.784	388.56
864.954	365.72
865.125	366.98
865.295	390.76
865.465	398.9
865.635	429.72
865.805	435.19
865.976	422.72
866.146	467.65
866.316	541.34
866.486	814.73
866.656	533.33
866.826	534.43
866.996	485.05
867.166	450.49
867.336	420.92
867.506	352.16
867.676	366.3
867.846	349.82
868.016	364.43
868.186	334.65
868.356	295.7
868.526	338.85
868.696	357.58
868.866	396.23
869.036	403.04
869.206	381.67
869.376	417.74
869.545	405.79
869.715	440
869.885	464.68
870.055	488.39
870.224	539.92
870.394	772.06
870.564	580.21
870.734	593.08
870.903	521.68
871.073	655.83
871.243	511.55
871.412	509.37
871.582	420.46
871.751	398.76
871.921	389.75
872.091	357.88
872.26	322.86
872.43	256.39
872.599	263.38
872.769	289.36
872.938	260.04
873.108	372.78
873.277	424.92
873.446	515.91
873.616	491.69
873.785	547.27
873.955	732.91
874.124	553.94
874.293	1490.77
874.463	1610.78
874.632	1956.82
874.801	2198.32
874.971	663.01
875.14	623.6
875.309	429.8
875.478	370.98
875.647	347.95
875.817	275.28
875.986	305.3
876.155	319.77
876.324	340.63
876.493	314
876.662	281.34
876.831	316.57
877	303.3
877.17	357.54
877.339	430.25
877.508	327.3
877.677	365.77
877.846	388
878.015	318.83
878.184	264.78
878.352	257.48
878.521	252.97
878.69	255.59
878.859	244.23
879.028	249.51
879.197	210.7
879.366	235.19
879.534	214.65
879.703	201.67
879.872	191.06
880.041	189.09
880.21	162.13
880.378	161.12
880.547	149.87
880.716	139.55
880.884	127.13
881.053	131.61
881.222	121.62
881.39	113.96
881.559	100.06
881.727	92.76
881.896	90.23
882.065	88.26
882.233	88.34
882.402	84.95
882.57	83.91
882.739	83.45
882.907	82.19
883.076	84.06
883.244	85.96
883.412	88.18
883.581	91.75
883.749	98.27
883.918	101.13
884.086	105.09
884.254	111.09
884.423	117.3
884.591	122.41
884.759	123.81
884.927	120.86
885.096	123.57
885.264	140.9
885.432	145.28
885.6	141.61
885.769	160.72
885.937	171.43
886.105	171.02
886.273	165.44
886.441	169.53
886.609	186.05
886.777	208.64
886.945	240.34
887.113	235.88
887.281	254.84
887.449	263.69
887.617	247.41
887.785	277.49
887.953	286.48
888.121	299.27
888.289	323.95
888.457	409.32
888.625	514.94
888.793	388.12
888.961	421.29
889.129	328.28
889.296	342.62
889.464	386.57
889.632	310.88
889.8	344.4
889.967	360.81
890.135	381.68
