Data from JASIL_3077_Reflection_02.txt Node
Date: Mon Nov 09 11:48:07 EST 2015
User: Geneva
Spectrometer: USB4E03002
Autoset integration time: false
Trigger mode: 4
Integration Time (sec): 1.000000E-1
Scans to average: 10
Electric dark correction enabled: false
Nonlinearity correction enabled: false
Boxcar width: 5
Stray light correction enabled: false
XAxis mode: Wavelengths
Stop averaging: false
Number of Pixels in Spectrum: 3648
>>>>>Begin Spectral Data<<<<<
177.575	-303.94
177.794	2278.95
178.014	-706.12
178.233	-209.25
178.452	-357.97
178.672	-270.59
178.891	-112.36
179.11	-239.58
179.33	-0.56
179.549	-28.01
179.768	-58.33
179.987	-16.78
180.207	-0.67
180.426	-27.22
180.645	-20.75
180.864	6.45
181.084	17.24
181.303	-35.07
181.522	17.44
181.741	-1236.36
181.96	4.61
182.179	15.38
182.398	25.76
182.618	21.41
182.837	-32.77
183.056	-16.93
183.275	-150
183.494	30.43
183.713	2375
183.932	-300
184.151	-59.48
184.37	-38.05
184.589	-33.96
184.808	-21.49
185.027	4.4
185.246	-15.95
185.465	4.93
185.684	-10.7
185.903	-239.36
186.122	-856.6
186.341	-451.16
186.56	-757.89
186.779	90.14
186.998	156.18
187.216	604
187.435	228.26
187.654	-5000
187.873	-701.96
188.092	-172
188.311	52.07
188.53	51.3
188.748	44.32
188.967	41.86
189.186	10.31
189.405	29.19
189.623	23.86
189.842	11.26
190.061	10.89
190.28	-82.95
190.498	-515.15
190.717	-389.47
190.936	-225.83
191.154	-215.75
191.373	-583.48
191.592	-362.94
191.81	-471.26
192.029	-74.65
192.248	-54.72
192.466	-63.87
192.685	-48.95
192.904	-38.37
193.122	-31.7
193.341	14.87
193.559	7.88
193.778	18.17
193.996	1.53
194.215	-58.6
194.433	-125.85
194.652	-33
194.87	36.62
195.089	49.8
195.307	65.98
195.526	-116.67
195.744	-417.14
195.963	-107.69
196.181	-198.92
196.399	-76.03
196.618	-36.18
196.836	-16.14
197.055	-66.95
197.273	-110
197.491	-57
197.71	5.08
197.928	6.48
198.146	4.73
198.365	10.62
198.583	29.62
198.801	4.92
199.019	43.71
199.238	85.19
199.456	118.35
199.674	687.5
199.892	-2472.73
200.111	-112.99
200.329	9200
200.547	147.73
200.765	127.65
200.983	83.43
201.202	171.43
201.42	69.39
201.638	52.26
201.856	58.07
202.074	33.51
202.292	44.07
202.51	44.75
202.728	38.83
202.946	38.04
203.165	37.86
203.383	46.18
203.601	6.8
203.819	18.42
204.037	15.88
204.255	-27.27
204.473	-11.95
204.691	-3.49
204.909	-11.75
205.127	16.47
205.345	32.32
205.562	-1
205.78	-1.31
205.998	-4.8
206.216	17.44
206.434	5.02
206.652	16.93
206.87	-1.43
207.088	-20.39
207.306	-9.44
207.523	-24.17
207.741	-73.39
207.959	-1454.55
208.177	665.63
208.395	-550
208.612	-2666.67
208.83	-167.07
209.048	57.28
209.266	3833.33
209.483	-275
209.701	-9.84
209.919	43.93
210.136	11.93
210.354	179.03
210.572	109.8
210.79	150.43
211.007	281.25
211.225	150.48
211.442	120.09
211.66	240.7
211.878	278.6
212.095	891.94
212.313	-555.13
212.53	-1336.36
212.748	366.67
212.966	460
213.183	-983.33
213.401	93.71
213.618	71.04
213.836	113.08
214.053	-21.05
214.271	-190.38
214.488	5.14
214.705	39.16
214.923	44.98
215.14	102.17
215.358	150.9
215.575	179.81
215.793	286.89
216.01	459.54
216.227	350.24
216.445	338.52
216.662	385.51
216.879	466.03
217.097	455.7
217.314	613.39
217.531	-612.5
217.749	-1418.75
217.966	3880
218.183	-20000
218.4	276.85
218.618	-136.27
218.835	205.88
219.052	-22.17
219.269	2.01
219.487	9.09
219.704	-252
219.921	-95.45
220.138	138.6
220.355	322.58
220.572	113.62
220.79	113.28
221.007	156.93
221.224	110.17
221.441	39.78
221.658	36.84
221.875	59.17
222.092	51.81
222.309	16.3
222.526	7.86
222.743	5.65
222.96	-8.13
223.177	-12.65
223.394	-39.12
223.611	-18.76
223.828	-6.65
224.045	-18.93
224.262	-45.27
224.479	-51.59
224.696	-43.47
224.913	-65.14
225.13	-83.37
225.347	-57.73
225.564	-59.98
225.781	-51.14
225.997	-51.15
226.214	-48.11
226.431	-42.84
226.648	-42.86
226.865	-39.94
227.082	-35.93
227.298	-30.66
227.515	-27.4
227.732	-35.68
227.949	-35.89
228.165	-29.64
228.382	-29.37
228.599	-26.82
228.816	-15.25
229.032	-9.81
229.249	-14.11
229.466	-8.43
229.682	-8.04
229.899	-11.36
230.116	0.06
230.332	0.58
230.549	-12.66
230.765	-9.64
230.982	-9.63
231.199	-25.79
231.415	-22.52
231.632	-2.32
231.848	-0.89
232.065	-5.17
232.281	-7.76
232.498	-18.25
232.714	-13.73
232.931	-7.39
233.147	-18.28
233.364	-18.87
233.58	-11.05
233.797	-17.88
234.013	-20.96
234.23	-24.46
234.446	-17.14
234.662	-3.87
234.879	-12.61
235.095	-21.06
235.312	-18.46
235.528	-9.93
235.744	-15.15
235.961	-28.33
236.177	-9.36
236.393	-6.13
236.61	-11.03
236.826	-15.32
237.042	-24.47
237.258	-17.22
237.475	-19.19
237.691	-11.31
237.907	-16.58
238.123	-12.3
238.339	-5.54
238.556	-27.17
238.772	-29.35
238.988	-28.91
239.204	-37.43
239.42	-28.89
239.636	-16.35
239.853	-11.26
240.069	-9.5
240.285	-3.41
240.501	0.86
240.717	4.51
240.933	9.72
241.149	6.37
241.365	10.1
241.581	13.24
241.797	11.06
242.013	6.66
242.229	9.2
242.445	4.03
242.661	6.21
242.877	1.69
243.093	-0.23
243.309	-1.01
243.525	4.71
243.741	1.45
243.957	-3.49
244.173	-5.98
244.388	-3.66
244.604	-8.51
244.82	-5.41
245.036	-9.81
245.252	-6.29
245.468	-7.04
245.683	-9.15
245.899	-6.49
246.115	-5.17
246.331	-1.92
246.547	-2.52
246.762	-1.67
246.978	-0.76
247.194	-1.86
247.409	-2.37
247.625	-3.73
247.841	-4.95
248.057	-3.84
248.272	-6.52
248.488	-11.43
248.703	-23.37
248.919	-18.85
249.135	-18.14
249.35	-14.17
249.566	-10.55
249.782	-9.53
249.997	-9.92
250.213	-5
250.428	-5.1
250.644	-4.29
250.859	-2.28
251.075	1.31
251.29	-2.01
251.506	-5.26
251.721	-3.45
251.937	-4.72
252.152	-0.27
252.368	-5.18
252.583	-7.26
252.798	-7.21
253.014	-8.79
253.229	-9.19
253.445	-11.1
253.66	-12.85
253.875	-13.35
254.091	-15.68
254.306	-11.99
254.521	-19.41
254.737	-15.89
254.952	-20.96
255.167	-21.43
255.383	-16.42
255.598	-12.11
255.813	-5.08
256.028	-4.99
256.244	-2.98
256.459	-4.26
256.674	-5.18
256.889	-0.99
257.104	-2.11
257.32	0.69
257.535	2.89
257.75	-1.14
257.965	-0.55
258.18	-1.08
258.395	-0.72
258.61	1.05
258.826	1.76
259.041	1.82
259.256	0.7
259.471	2.59
259.686	3.08
259.901	3.21
260.116	4.85
260.331	2.12
260.546	1.74
260.761	4.73
260.976	2.59
261.191	1.32
261.406	2.4
261.621	6.66
261.836	4.21
262.05	0.33
262.265	-1.7
262.48	-0.65
262.695	1.03
262.91	0.29
263.125	2.76
263.34	0.77
263.555	-0.35
263.769	-0.32
263.984	-2.01
264.199	-2.48
264.414	3.32
264.629	0.45
264.843	0.73
265.058	-0.46
265.273	0.36
265.488	-3.58
265.702	-5.36
265.917	-3.87
266.132	-4.48
266.346	-6.53
266.561	-3.57
266.776	-3.45
266.99	-4.9
267.205	-5.04
267.42	-5.3
267.634	-6.63
267.849	-4.42
268.063	-3.78
268.278	-6.09
268.492	-7.15
268.707	-4.77
268.922	-3.74
269.136	-8.44
269.351	-3.99
269.565	-3.81
269.78	-1.18
269.994	-0.5
270.209	-1.49
270.423	2.01
270.637	2.71
270.852	3.49
271.066	2.63
271.281	-0.84
271.495	-0.19
271.709	-0.81
271.924	-4.58
272.138	-4.92
272.353	-6.04
272.567	-7.12
272.781	-11.51
272.996	-12.48
273.21	-13.43
273.424	-16.18
273.638	-14.95
273.853	-15.64
274.067	-18.01
274.281	-20.13
274.495	-22.11
274.71	-18.06
274.924	-18.95
275.138	-19.99
275.352	-24.19
275.566	-26.2
275.781	-25.88
275.995	-20.78
276.209	-19.48
276.423	-13.43
276.637	-4.32
276.851	-3.59
277.065	-6.23
277.279	-5.51
277.493	-1.66
277.707	-0.55
277.921	0.05
278.135	4.55
278.349	2.41
278.563	3.93
278.777	1.91
278.991	-2.23
279.205	2.99
279.419	0.85
279.633	-2.17
279.847	-2.47
280.061	1.39
280.275	3.74
280.489	1.99
280.703	1.19
280.917	2.94
281.131	3.12
281.344	2.71
281.558	-3.24
281.772	-2.24
281.986	-0.39
282.2	-1.46
282.414	-2.45
282.627	-3.95
282.841	-5.01
283.055	-6.13
283.269	-6.62
283.482	-6.08
283.696	-3.56
283.91	0.73
284.123	-0.24
284.337	-0.4
284.551	-1.13
284.764	-2.97
284.978	-3.7
285.192	-4.45
285.405	-3.12
285.619	-4.99
285.833	-4.18
286.046	-4.52
286.26	-7.35
286.473	-5.55
286.687	-3.96
286.9	-0.76
287.114	0.19
287.327	2.16
287.541	4.22
287.754	6.52
287.968	7.71
288.181	7.58
288.395	7.84
288.608	9.45
288.822	8.9
289.035	6.94
289.248	4.53
289.462	4.89
289.675	3.04
289.889	4.34
290.102	1.78
290.315	2.22
290.529	-1.28
290.742	-2.41
290.955	-2.07
291.169	-0.87
291.382	0.38
291.595	-0.62
291.808	-1.8
292.022	-2.63
292.235	-2.98
292.448	-2.81
292.661	-4.4
292.875	-2.33
293.088	-3.06
293.301	-4.21
293.514	-4.26
293.727	-0.86
293.94	0.95
294.153	3.39
294.367	3.61
294.58	3.14
294.793	1.2
295.006	-0.17
295.219	0.34
295.432	1.34
295.645	1.85
295.858	1.03
296.071	-1.18
296.284	-2.46
296.497	-1.57
296.71	0.49
296.923	0.05
297.136	2
297.349	4.47
297.562	3.9
297.775	2.49
297.988	3.77
298.201	5.34
298.414	6.03
298.626	9.28
298.839	8.12
299.052	7.13
299.265	7.06
299.478	4.98
299.691	3.12
299.903	3.77
300.116	5.46
300.329	4.18
300.542	2.38
300.755	1.49
300.967	-0.9
301.18	-0.24
301.393	-0.73
301.605	-1.14
301.818	-2.75
302.031	-0.86
302.243	-1.06
302.456	-2.63
302.669	-1.95
302.881	-0.78
303.094	-1.75
303.307	0.5
303.519	-1.84
303.732	-3.1
303.944	0.57
304.157	3.21
304.37	1.03
304.582	0.41
304.795	0.54
305.007	-1.69
305.22	-0.96
305.432	0.88
305.645	-1.12
305.857	-0.34
306.069	1.76
306.282	-0.51
306.494	0.02
306.707	0
306.919	0.59
307.132	1.33
307.344	0.96
307.556	-1.53
307.769	-4.98
307.981	-6.35
308.193	-5.19
308.406	-3.76
308.618	-2.55
308.83	-2.77
309.043	-1.98
309.255	-1.61
309.467	-2.29
309.679	-1.19
309.892	0.36
310.104	3.26
310.316	3.97
310.528	3.26
310.74	1.3
310.953	-0.83
311.165	1.88
311.377	0.6
311.589	0
311.801	0.74
312.013	-1.76
312.225	-1.73
312.437	-3.2
312.649	-4.53
312.862	-5.39
313.074	-5.89
313.286	-4.72
313.498	-7.57
313.71	-3.53
313.922	0.04
314.134	0.04
314.346	4.12
314.558	5.66
314.77	9.05
314.982	7.36
315.193	8.78
315.405	9.85
315.617	8.44
315.829	8.02
316.041	7.68
316.253	6.1
316.465	7.44
316.677	5.99
316.888	1.68
317.1	1.1
317.312	5.58
317.524	4.01
317.736	2.14
317.947	3.62
318.159	3
318.371	2.09
318.583	2.07
318.794	3.51
319.006	3.92
319.218	6.3
319.43	4.44
319.641	3.5
319.853	5.34
320.064	7.61
320.276	7.98
320.488	5.64
320.699	7.49
320.911	4.42
321.123	3.41
321.334	3.38
321.546	6.65
321.757	5.02
321.969	5.62
322.18	5.49
322.392	7.3
322.603	8.47
322.815	11.86
323.026	9.85
323.238	11.4
323.449	9.21
323.661	8.63
323.872	4.43
324.083	6.99
324.295	4.35
324.506	5
324.718	2.06
324.929	2.69
325.14	3.66
325.352	3.24
325.563	4.97
325.774	6.29
325.986	6.01
326.197	7.48
326.408	6.26
326.62	8.69
326.831	9.27
327.042	9.64
327.253	6.48
327.464	6.2
327.676	11.65
327.887	10.83
328.098	10.77
328.309	10.19
328.52	9.76
328.732	6.42
328.943	9.52
329.154	8.11
329.365	8.65
329.576	8.8
329.787	6
329.998	0.65
330.209	-1.31
330.42	0.42
330.631	2.86
330.842	4.42
331.053	8.63
331.264	5.8
331.475	6.02
331.686	4.68
331.897	6.2
332.108	5.42
332.319	7.17
332.53	9.8
332.741	8.55
332.952	7.87
333.163	9.34
333.374	9.6
333.585	9.52
333.795	11.91
334.006	11.83
334.217	10.8
334.428	15.42
334.639	15.96
334.849	16.69
335.06	16.49
335.271	15.89
335.482	14.16
335.692	11.61
335.903	12.89
336.114	11.01
336.325	12.01
336.535	11.09
336.746	9.67
336.957	8.1
337.167	5.7
337.378	8.89
337.589	10.31
337.799	12.61
338.01	15.9
338.22	15.44
338.431	11.13
338.642	11.39
338.852	11.76
339.063	8.17
339.273	8.12
339.484	9.63
339.694	9.99
339.905	7.82
340.115	6.73
340.326	4.02
340.536	1.7
340.746	4.39
340.957	5.21
341.167	5.53
341.378	7.02
341.588	6.09
341.799	6.33
342.009	4.29
342.219	6.56
342.43	5.44
342.64	5.78
342.85	7.84
343.061	10.01
343.271	9.48
343.481	11.34
343.691	11.34
343.902	11.37
344.112	10.08
344.322	9.6
344.532	7.79
344.743	7.43
344.953	8.7
345.163	10.11
345.373	8.28
345.583	9.06
345.793	7.96
346.004	8
346.214	9.08
346.424	6.81
346.634	7.57
346.844	10.06
347.054	10.33
347.264	9.57
347.474	7.83
347.684	8.33
347.894	6.75
348.104	6.05
348.314	5.79
348.524	4.65
348.734	7.62
348.944	5.49
349.154	4.28
349.364	5.38
349.574	6.54
349.784	4.7
349.994	5.47
350.204	6.55
350.413	6.08
350.623	5.6
350.833	6.82
351.043	6.58
351.253	9.66
351.463	11.26
351.672	10.29
351.882	9.62
352.092	12.3
352.302	11.68
352.511	11.26
352.721	12.16
352.931	10.91
353.141	11.94
353.35	11.61
353.56	10.55
353.77	8.01
353.979	7.56
354.189	5.92
354.399	6.16
354.608	4.85
354.818	6.24
355.027	7.74
355.237	9.67
355.447	9.12
355.656	8.62
355.866	9.27
356.075	8.99
356.285	10.58
356.494	11.52
356.704	11.65
356.913	11.87
357.123	9.93
357.332	7.24
357.542	6.78
357.751	5.15
357.96	4.03
358.17	3.23
358.379	4.56
358.589	4.58
358.798	4.57
359.007	3.79
359.217	5.59
359.426	6.74
359.635	9.77
359.845	10.04
360.054	10.65
360.263	11.35
360.472	10.17
360.682	9.86
360.891	9.52
361.1	8.23
361.309	8.36
361.519	7.92
361.728	7.29
361.937	5.05
362.146	6.1
362.355	6.24
362.564	6.52
362.774	6.91
362.983	8.51
363.192	7.37
363.401	8.55
363.61	10.06
363.819	10.48
364.028	11.2
364.237	11.21
364.446	9.97
364.655	10.46
364.864	9.01
365.073	9.66
365.282	8.19
365.491	7.87
365.7	8.19
365.909	7.24
366.118	7
366.327	7.18
366.536	9.26
366.745	8.52
366.954	8.35
367.162	9.92
367.371	8.54
367.58	9.72
367.789	10.09
367.998	8.09
368.207	7.55
368.415	7.29
368.624	6.31
368.833	4.78
369.042	5.46
369.25	5.57
369.459	6.3
369.668	8.8
369.877	6.88
370.085	6.44
370.294	8.67
370.503	9.5
370.711	9.66
370.92	10.48
371.129	10.79
371.337	10.15
371.546	8.69
371.754	7.6
371.963	6.75
372.171	8.1
372.38	8.37
372.589	8.4
372.797	6.86
373.006	6.85
373.214	5.36
373.423	6.86
373.631	7.02
373.84	7.4
374.048	7.95
374.256	6.19
374.465	5.78
374.673	7.38
374.882	8.54
375.09	8.63
375.298	8.68
375.507	9.25
375.715	8.29
375.923	9.64
376.132	10.69
376.34	10.83
376.548	12.4
376.757	13.13
376.965	12.31
377.173	11.49
377.381	11.92
377.59	12.06
377.798	13.25
378.006	11.27
378.214	9.72
378.423	9.59
378.631	9.82
378.839	9.82
379.047	9.18
379.255	9.07
379.463	8.88
379.671	9.46
379.879	8.27
380.088	7.28
380.296	10.85
380.504	11.07
380.712	10.93
380.92	8.95
381.128	8.34
381.336	8.69
381.544	8.92
381.752	8.84
381.96	7.98
382.168	7.9
382.376	8.46
382.584	5.74
382.791	6.34
382.999	5.36
383.207	7.71
383.415	8.64
383.623	7.89
383.831	8.78
384.039	8.47
384.247	8.16
384.454	6.78
384.662	6.47
384.87	7.51
385.078	7.71
385.285	7.47
385.493	6.89
385.701	5.56
385.909	6.58
386.116	6.01
386.324	5.94
386.532	5.89
386.739	9.1
386.947	9.27
387.155	8.91
387.362	8.68
387.57	8.16
387.778	7.18
387.985	8.19
388.193	8.29
388.4	7.68
388.608	8.06
388.816	7.39
389.023	6.32
389.231	5.66
389.438	5.8
389.646	6.31
389.853	7.13
390.061	7.98
390.268	8.71
390.475	8.18
390.683	8.94
390.89	8.43
391.098	9.78
391.305	9.8
391.512	10.75
391.72	10.99
391.927	10.86
392.135	12.13
392.342	12.59
392.549	11.23
392.756	10.51
392.964	9.75
393.171	9.96
393.378	9.95
393.586	11
393.793	10.08
394	8.77
394.207	7.54
394.414	7.34
394.622	6.85
394.829	7.26
395.036	8.13
395.243	8.21
395.45	7.86
395.657	6.67
395.864	4.31
396.072	4.35
396.279	5.03
396.486	6.49
396.693	5.74
396.9	5.84
397.107	6.92
397.314	6.89
397.521	7.29
397.728	7.35
397.935	8.08
398.142	9.18
398.349	10.03
398.556	11.4
398.763	12.02
398.97	12.3
399.177	12.35
399.383	11.63
399.59	12.33
399.797	11.78
400.004	12.63
400.211	13.03
400.418	12.06
400.625	11.37
400.831	10.76
401.038	9.56
401.245	11.25
401.452	10.88
401.658	10.59
401.865	10.72
402.072	11.29
402.279	9.69
402.485	9.76
402.692	9.53
402.899	10.56
403.105	10.46
403.312	11.04
403.519	8.37
403.725	8.77
403.932	9.75
404.138	9.27
404.345	8.68
404.552	10.13
404.758	10.32
404.965	11.28
405.171	11.56
405.378	11.65
405.584	11.62
405.791	13.15
405.997	13.12
406.204	12.15
406.41	12.1
406.617	12.81
406.823	12.52
407.029	12.47
407.236	12.92
407.442	12.49
407.649	11.67
407.855	10.97
408.061	10.3
408.268	10.11
408.474	10.18
408.68	10.8
408.887	11.33
409.093	11.07
409.299	11.43
409.505	11.06
409.712	10.94
409.918	11.12
410.124	11.83
410.33	12.42
410.537	12.17
410.743	12.01
410.949	12.31
411.155	10.91
411.361	11.5
411.567	10.25
411.773	10.15
411.98	10.34
412.186	10.82
412.392	10.51
412.598	11.21
412.804	11.29
413.01	11.26
413.216	10.15
413.422	10.92
413.628	10.09
413.834	11.12
414.04	10.63
414.246	10.37
414.452	10.65
414.658	11.24
414.864	10.46
415.07	10.85
415.275	11.41
415.481	12.21
415.687	12.58
415.893	13.04
416.099	12.91
416.305	13.45
416.511	14.25
416.716	14.5
416.922	13.82
417.128	14.24
417.334	14.3
417.539	14.88
417.745	14.17
417.951	13.72
418.157	14.27
418.362	14.07
418.568	13.59
418.774	12.8
418.979	12.3
419.185	12.37
419.391	12.01
419.596	12.24
419.802	11.96
420.008	12.63
420.213	12.33
420.419	11.75
420.624	11.76
420.83	12.32
421.035	12.65
421.241	12.96
421.446	13.01
421.652	13.26
421.857	13.52
422.063	13.68
422.268	13.51
422.474	13.87
422.679	14.43
422.885	14.17
423.09	14.23
423.295	14.16
423.501	14.32
423.706	14.09
423.911	13.66
424.117	13.36
424.322	13.04
424.527	13.28
424.733	13.98
424.938	13.76
425.143	15.02
425.349	15.28
425.554	15.06
425.759	14.93
425.964	15.66
426.169	16.77
426.375	16.27
426.58	16.56
426.785	16.83
426.99	16.17
427.195	15.8
427.4	15.05
427.605	14.66
427.811	15.35
428.016	15.3
428.221	15.65
428.426	15
428.631	15.29
428.836	15.16
429.041	14.27
429.246	15.28
429.451	15.77
429.656	16.06
429.861	16.68
430.066	16.73
430.271	16.84
430.476	16.57
430.681	16.12
430.886	16.55
431.09	16.84
431.295	17.16
431.5	16.46
431.705	16.38
431.91	15.76
432.115	15.74
432.32	15.83
432.524	15.84
432.729	16.75
432.934	17.55
433.139	17.27
433.343	17.57
433.548	17.32
433.753	17.86
433.958	17.62
434.162	17.56
434.367	16.75
434.572	16.26
434.776	16.27
434.981	15.51
435.186	14.84
435.39	15.01
435.595	14.19
435.799	14.15
436.004	13.07
436.209	12.96
436.413	13.54
436.618	13.92
436.822	13.61
437.027	14.13
437.231	14.32
437.436	15.14
437.64	15.37
437.845	15.38
438.049	15.79
438.253	16.15
438.458	16.34
438.662	16.66
438.867	16.56
439.071	16.76
439.275	16.36
439.48	16.16
439.684	15.8
439.888	15.67
440.093	16.04
440.297	16.22
440.501	16.67
440.706	16.67
440.91	16.33
441.114	16.4
441.318	16.76
441.523	16.84
441.727	16.94
441.931	17.3
442.135	17.7
442.339	17.62
442.543	17.41
442.748	16.66
442.952	17.2
443.156	16.62
443.36	16.55
443.564	16.46
443.768	16.59
443.972	16.33
444.176	15.93
444.38	15.73
444.584	15.85
444.788	15.73
444.992	16.74
445.196	16.47
445.4	17.1
445.604	17.18
445.808	17.35
446.012	17.35
446.216	17.37
446.42	17.22
446.624	16.91
446.828	17.09
447.032	16.9
447.235	16.24
447.439	16.19
447.643	15.62
447.847	15.75
448.051	15.46
448.254	15.51
448.458	15.75
448.662	16.04
448.866	16.52
449.069	16.23
449.273	16.94
449.477	17.08
449.681	17.52
449.884	17.92
450.088	18.44
450.292	18.56
450.495	18.3
450.699	18.31
450.902	17.73
451.106	17.39
451.31	17.04
451.513	17.09
451.717	16.43
451.92	15.43
452.124	15.61
452.327	14.57
452.531	14.9
452.734	14.8
452.938	14.36
453.141	14.66
453.345	15.06
453.548	15.24
453.752	14.14
453.955	14.73
454.158	15.51
454.362	15.18
454.565	15.93
454.769	14.63
454.972	14.19
455.175	14.17
455.379	14.43
455.582	14.39
455.785	14.83
455.988	14.61
456.192	14.24
456.395	14.61
456.598	14.7
456.801	14.84
457.005	16.13
457.208	16.18
457.411	16.62
457.614	16.22
457.817	16.12
458.021	16.01
458.224	16.53
458.427	16.78
458.63	16.13
458.833	16.43
459.036	15.85
459.239	15.51
459.442	15.87
459.645	15.49
459.848	15.71
460.051	15.92
460.254	16
460.457	15.53
460.66	14.87
460.863	14.86
461.066	14.3
461.269	14.63
461.472	15.01
461.675	14.94
461.878	15.51
462.081	16.06
462.284	16.02
462.486	15.28
462.689	15.89
462.892	16.89
463.095	17.72
463.298	18.27
463.5	18.24
463.703	17.65
463.906	16.98
464.109	16.69
464.311	15.84
464.514	14.81
464.717	15.98
464.92	16.4
465.122	16.06
465.325	15.81
465.528	16.78
465.73	16.66
465.933	16.95
466.135	17.28
466.338	17.14
466.541	17.56
466.743	18.46
466.946	17.47
467.148	17.06
467.351	17.39
467.553	17.29
467.756	16.06
467.958	16.85
468.161	16.91
468.363	16.99
468.566	17.21
468.768	17.2
468.971	17.31
469.173	17.76
469.375	17.9
469.578	17.51
469.78	17.28
469.983	17.47
470.185	16.88
470.387	16.35
470.59	16.42
470.792	15.56
470.994	15.89
471.196	15.45
471.399	15.41
471.601	15.16
471.803	15.75
472.005	15.7
472.208	15.9
472.41	16.07
472.612	16.24
472.814	16.31
473.016	16.78
473.218	16.49
473.421	17.03
473.623	17.03
473.825	17.27
474.027	16.64
474.229	16.67
474.431	16.54
474.633	16.46
474.835	16.77
475.037	16.48
475.239	16.23
475.441	16.47
475.643	16.52
475.845	17.01
476.047	17.24
476.249	17.33
476.451	17.75
476.653	17.44
476.855	17.28
477.057	17.46
477.258	17.94
477.46	18.31
477.662	18.04
477.864	17.74
478.066	16.71
478.268	16.36
478.469	16.86
478.671	16.93
478.873	16.99
479.075	17
479.276	16.61
479.478	16.5
479.68	16.2
479.882	16.17
480.083	16.03
480.285	16.36
480.487	16.36
480.688	15.63
480.89	15.23
481.091	15.25
481.293	15.33
481.495	15.2
481.696	15.14
481.898	15.33
482.099	15.15
482.301	15.06
482.502	15.13
482.704	15.25
482.905	15.51
483.107	15.65
483.308	15.58
483.51	15.59
483.711	15.81
483.913	15.98
484.114	16.18
484.315	16.38
484.517	16.65
484.718	16.78
484.92	16.76
485.121	16.65
485.322	16.43
485.524	16.31
485.725	16.28
485.926	16.34
486.127	16.19
486.329	15.92
486.53	15.88
486.731	15.7
486.932	15.75
487.134	15.95
487.335	15.95
487.536	16.15
487.737	16.42
487.938	16.42
488.139	16.22
488.341	16.56
488.542	16.79
488.743	16.96
488.944	17.16
489.145	17.14
489.346	16.77
489.547	16.66
489.748	16.47
489.949	16.42
490.15	16.5
490.351	16.56
490.552	16.46
490.753	16.46
490.954	16.19
491.155	16.09
491.356	15.99
491.557	16.15
491.758	16.49
491.959	16.81
492.159	17.08
492.36	16.81
492.561	16.7
492.762	16.46
492.963	16.62
493.164	17.14
493.364	17.78
493.565	18.06
493.766	18.41
493.967	17.99
494.167	17.71
494.368	17.59
494.569	17.98
494.769	18.19
494.97	18.27
495.171	17.98
495.371	17.68
495.572	17.39
495.773	17.35
495.973	17.2
496.174	17.47
496.375	17.19
496.575	17.31
496.776	17.33
496.976	17.31
497.177	17.48
497.377	17.34
497.578	17.59
497.778	17.72
497.979	17.48
498.179	17.3
498.38	17.01
498.58	17.4
498.78	17.64
498.981	17.68
499.181	17.41
499.382	17.82
499.582	18.28
499.782	18.17
499.983	17.72
500.183	18.17
500.383	17.94
500.584	18.12
500.784	18.52
500.984	18.1
501.184	18.26
501.385	18.38
501.585	17.97
501.785	17.85
501.985	18.23
502.185	18.48
502.386	18.32
502.586	18.72
502.786	19
502.986	18.58
503.186	18.38
503.386	18.59
503.586	18.62
503.786	18.34
503.987	18.36
504.187	18.27
504.387	18.18
504.587	18.19
504.787	18.29
504.987	18.24
505.187	18.63
505.387	18.82
505.587	18.39
505.786	18.62
505.986	18.97
506.186	19.11
506.386	19.51
506.586	19.7
506.786	19.75
506.986	19.96
507.186	19.97
507.386	20
507.585	20.24
507.785	20.67
507.985	20.73
508.185	20.81
508.384	20.58
508.584	19.96
508.784	19.87
508.984	20.2
509.183	19.42
509.383	19.37
509.583	19.53
509.782	19.33
509.982	19.51
510.182	19.7
510.381	19.57
510.581	19.35
510.781	19.59
510.98	19.62
511.18	19.02
511.379	19.39
511.579	19.36
511.778	18.82
511.978	18.97
512.177	18.85
512.377	18.83
512.576	18.85
512.776	18.89
512.975	18.74
513.175	19.29
513.374	19.33
513.573	19.81
513.773	20.16
513.972	20.38
514.172	20.75
514.371	20.7
514.57	20.78
514.77	20.77
514.969	21.11
515.168	21.16
515.367	21.11
515.567	21.54
515.766	21.41
515.965	21.3
516.164	21.57
516.364	20.93
516.563	20.99
516.762	20.67
516.961	20.51
517.16	20.78
517.359	21.28
517.559	20.54
517.758	20.64
517.957	20.79
518.156	20.74
518.355	20.82
518.554	21.27
518.753	21.16
518.952	21.02
519.151	21.55
519.35	21.37
519.549	21.08
519.748	21.97
519.947	21.97
520.146	22
520.345	22.08
520.544	22.74
520.743	22.76
520.942	22.8
521.141	23.6
521.339	23.53
521.538	23.82
521.737	24.03
521.936	23.73
522.135	24.07
522.333	24.07
522.532	24.23
522.731	23.4
522.93	23.25
523.129	23.17
523.327	22.98
523.526	23.04
523.725	23.12
523.923	23.19
524.122	23.24
524.321	22.95
524.519	22.71
524.718	22.79
524.917	22.9
525.115	22.96
525.314	23.19
525.512	23.24
525.711	23.31
525.909	23.01
526.108	22.99
526.306	22.75
526.505	22.61
526.703	22.81
526.902	22.56
527.1	22.6
527.299	22.61
527.497	22.53
527.696	22.56
527.894	22.54
528.092	22.7
528.291	22.9
528.489	23.14
528.688	23.17
528.886	23.38
529.084	23.69
529.283	23.74
529.481	24.08
529.679	24.35
529.877	24.57
530.076	24.65
530.274	24.77
530.472	24.62
530.67	25.01
530.869	25.09
531.067	24.79
531.265	24.73
531.463	24.93
531.661	24.86
531.859	24.99
532.057	24.91
532.255	24.86
532.454	24.95
532.652	24.99
532.85	24.49
533.048	24.64
533.246	24.85
533.444	24.98
533.642	25.14
533.84	25.14
534.038	24.84
534.236	24.84
534.434	25.05
534.632	25.07
534.83	25.16
535.027	25.35
535.225	25.56
535.423	25.69
535.621	25.74
535.819	25.81
536.017	25.51
536.215	25.52
536.412	25.58
536.61	25.72
536.808	25.67
537.006	25.59
537.203	26.09
537.401	26.06
537.599	25.95
537.797	26.26
537.994	26.22
538.192	26.62
538.39	27.33
538.587	27.33
538.785	27.05
538.983	27.19
539.18	26.93
539.378	27.05
539.575	27.01
539.773	26.98
539.97	26.99
540.168	26.93
540.366	26.89
540.563	26.9
540.761	26.98
540.958	27.16
541.155	27.17
541.353	27.61
541.55	27.35
541.748	27.36
541.945	27.48
542.143	27.55
542.34	27.51
542.537	27.69
542.735	27.61
542.932	27.69
543.129	27.75
543.327	27.86
543.524	28.37
543.721	28.5
543.919	28.83
544.116	28.98
544.313	28.88
544.51	29.46
544.708	29.84
544.905	29.97
545.102	30.4
545.299	30.88
545.496	31.11
545.693	30.48
545.891	30.66
546.088	30.81
546.285	31.19
546.482	31.93
546.679	31.75
546.876	31.54
547.073	31.24
547.27	31.11
547.467	30.63
547.664	30.58
547.861	31.04
548.058	31.28
548.255	31.85
548.452	31.29
548.649	30.6
548.846	30.62
549.043	31.06
549.24	31.22
549.437	31.43
549.633	31.95
549.83	32.15
550.027	32.3
550.224	32.72
550.421	32.19
550.618	32.79
550.814	32.98
551.011	32.57
551.208	32.14
551.405	32.55
551.601	32.77
551.798	32.77
551.995	32.77
552.191	32.93
552.388	32.67
552.585	32.95
552.781	32.83
552.978	31.97
553.175	32.41
553.371	32.87
553.568	33.12
553.764	33.2
553.961	33.12
554.157	33.58
554.354	33.12
554.55	32.94
554.747	33.16
554.943	33.64
555.14	35.14
555.336	34.84
555.533	34.73
555.729	35.38
555.926	34.49
556.122	34.63
556.318	34.1
556.515	34.33
556.711	35.05
556.907	35.09
557.104	34.55
557.3	34.76
557.496	35.83
557.693	35.93
557.889	35.69
558.085	36.47
558.281	36.58
558.478	36.8
558.674	37.22
558.87	37.69
559.066	38.21
559.262	38.55
559.459	38.19
559.655	38.16
559.851	38.06
560.047	37.85
560.243	38
560.439	38.45
560.635	38.39
560.831	38.24
561.027	37.99
561.223	37.61
561.419	37.24
561.615	37.31
561.811	37.13
562.007	38.03
562.203	38.02
562.399	37.45
562.595	36.68
562.791	36.78
562.987	37.18
563.183	36.86
563.379	36.79
563.575	37.12
563.771	36.56
563.966	36.91
564.162	36.27
564.358	36.21
564.554	36.96
564.75	37.24
564.945	37.21
565.141	36.39
565.337	36.6
565.533	36.57
565.728	36.68
565.924	36.98
566.12	37.04
566.315	37.3
566.511	37.31
566.707	37.47
566.902	37.2
567.098	37.09
567.293	37.87
567.489	37.61
567.684	37.55
567.88	37.65
568.076	37.77
568.271	37.68
568.467	37.28
568.662	36.87
568.858	36.28
569.053	36.24
569.248	36.21
569.444	36.36
569.639	36.26
569.835	36.46
570.03	36.38
570.225	36.92
570.421	36.87
570.616	37.07
570.812	37.74
571.007	38.15
571.202	38.91
571.397	39.01
571.593	39.04
571.788	38.9
571.983	39.03
572.178	38.97
572.374	39.15
572.569	38.89
572.764	38.8
572.959	38.21
573.154	37.97
573.35	37.65
573.545	37.68
573.74	37.23
573.935	37.81
574.13	37.75
574.325	38.17
574.52	37.3
574.715	37.58
574.91	38.26
575.105	38.97
575.3	39.32
575.495	39.56
575.69	39.84
575.885	40.14
576.08	40.12
576.275	40.68
576.47	40.56
576.665	41.01
576.86	40.26
577.055	40.01
577.25	39.88
577.444	39.83
577.639	39.65
577.834	39.78
578.029	39.46
578.224	40.23
578.418	39.66
578.613	40
578.808	40.31
579.003	40.78
579.197	40.3
579.392	40.24
579.587	39.81
579.781	40.48
579.976	40.61
580.171	41.17
580.365	40.27
580.56	40.18
580.755	39.72
580.949	39.94
581.144	40.29
581.338	40.87
581.533	40.85
581.727	41.56
581.922	40.76
582.116	41.07
582.311	40.77
582.505	40.69
582.7	41.26
582.894	41.98
583.089	41.91
583.283	41.67
583.478	41.58
583.672	41.5
583.866	41.06
584.061	41.29
584.255	41.2
584.449	41.87
584.644	42.24
584.838	42
585.032	41.92
585.226	40.86
585.421	41.69
585.615	41.61
585.809	41.62
586.003	41.45
586.198	41.93
586.392	41.56
586.586	41.22
586.78	41.12
586.974	41.68
587.168	41.23
587.363	41.86
587.557	41.19
587.751	40.77
587.945	40.49
588.139	40.56
588.333	39.91
588.527	40.14
588.721	40.04
588.915	40.12
589.109	38.61
589.303	39
589.497	39.21
589.691	39.44
589.885	40.54
590.079	40.78
590.273	40.56
590.466	40.71
590.66	40.28
590.854	40.68
591.048	40.11
591.242	41.2
591.436	41.08
591.629	41.41
591.823	41
592.017	40.38
592.211	39.99
592.404	41.06
592.598	40.96
592.792	40.65
592.986	40.32
593.179	40.47
593.373	40.96
593.567	40.65
593.76	40.02
593.954	40.76
594.147	40.81
594.341	41.76
594.535	40.58
594.728	40.53
594.922	41.54
595.115	41.41
595.309	42.03
595.502	41.96
595.696	41.96
595.889	42.27
596.083	41.99
596.276	42.41
596.47	41.94
596.663	42.22
596.856	42.47
597.05	41.72
597.243	41.73
597.437	41.85
597.63	41.17
597.823	41.22
598.017	41.9
598.21	41.93
598.403	41.98
598.596	42.25
598.79	42.63
598.983	42.79
599.176	43.26
599.369	43.57
599.563	43.22
599.756	43.58
599.949	43.83
600.142	43.07
600.335	43.46
600.528	43.74
600.722	44.44
600.915	44.46
601.108	44.17
601.301	44.97
601.494	44.18
601.687	43.6
601.88	43.42
602.073	43.5
602.266	43.36
602.459	42.77
602.652	42.04
602.845	41.72
603.038	42.17
603.231	41.9
603.424	41.44
603.617	42.46
603.809	42.81
604.002	43.38
604.195	43.97
604.388	43.93
604.581	44.59
604.774	45.18
604.966	44.89
605.159	44.3
605.352	44.95
605.545	44.78
605.737	44.29
605.93	44.01
606.123	43.11
606.316	42.81
606.508	43.75
606.701	43.12
606.894	42.67
607.086	42.35
607.279	42.76
607.471	42.99
607.664	43.9
607.857	44.31
608.049	44.9
608.242	45.51
608.434	45.39
608.627	44.6
608.819	45.27
609.012	45.46
609.204	45.96
609.397	46.34
609.589	46.41
609.782	45.32
609.974	45.15
610.166	44.69
610.359	44.67
610.551	44.87
610.743	45.03
610.936	45.46
611.128	45.13
611.32	45.58
611.513	45.43
611.705	45.28
611.897	46.08
612.09	45.81
612.282	47.2
612.474	46.69
612.666	46.86
612.858	47.67
613.051	46.79
613.243	47.55
613.435	47.41
613.627	48.45
613.819	48.43
614.011	47.63
614.203	48.09
614.395	47.27
614.588	47.81
614.78	47.65
614.972	45.82
615.164	46.61
615.356	46.17
615.548	46.08
615.74	44.33
615.932	45.26
616.124	45.52
616.315	45.4
616.507	45.77
616.699	45.94
616.891	45.32
617.083	46.26
617.275	45.4
617.467	46.13
617.659	46.59
617.85	47.72
618.042	46.34
618.234	47.04
618.426	46.91
618.618	46.69
618.809	47.78
619.001	47.58
619.193	48.29
619.384	48.14
619.576	47.89
619.768	46.5
619.959	45.16
620.151	45.25
620.343	44.82
620.534	46.03
620.726	45.91
620.917	44.94
621.109	45.32
621.301	45.07
621.492	46.12
621.684	46.13
621.875	47.95
622.067	48.68
622.258	49.36
622.45	50.11
622.641	48
622.832	48.07
623.024	48
623.215	47.96
623.407	47.89
623.598	47.91
623.789	47.56
623.981	46.2
624.172	46.85
624.363	46.64
624.555	45.17
624.746	46.37
624.937	46.1
625.129	46.62
625.32	47.23
625.511	46.98
625.702	46.41
625.893	45.78
626.085	46.94
626.276	46.39
626.467	47.11
626.658	48.03
626.849	47.41
627.04	46.95
627.231	46.79
627.422	46.95
627.614	46.87
627.805	47.27
627.996	47.88
628.187	48.06
628.378	48.34
628.569	47.71
628.76	46.67
628.951	47.51
629.142	48.59
629.332	47.6
629.523	46.84
629.714	47.54
629.905	47.86
630.096	47.76
630.287	46.81
630.478	46.01
630.669	45.68
630.859	46.59
631.05	46.19
631.241	45.96
631.432	46.89
631.623	46.42
631.813	45.93
632.004	45.38
632.195	45.85
632.385	45.94
632.576	46.06
632.767	47.27
632.957	47.6
633.148	47.57
633.339	47.4
633.529	47.16
633.72	47.65
633.91	47.3
634.101	46.35
634.292	46.44
634.482	47.12
634.673	47.39
634.863	46
635.054	45.88
635.244	46.65
635.435	46.44
635.625	47.22
635.815	48.23
636.006	49.05
636.196	50.39
636.387	50.73
636.577	50
636.767	49.75
636.958	50.66
637.148	50.01
637.338	50.17
637.529	51.53
637.719	51.49
637.909	51.56
638.099	51.68
638.29	51.4
638.48	51.11
638.67	52.22
638.86	53.25
639.05	53.36
639.241	55.36
639.431	53.95
639.621	52.88
639.811	53
640.001	52.45
640.191	51.9
640.381	52.87
640.571	52.8
640.761	52.03
640.951	51.01
641.141	50.02
641.331	48.81
641.521	49.69
641.711	49.44
641.901	48.41
642.091	48.41
642.281	48.7
642.471	48.73
642.661	49.46
642.851	48.35
643.041	50.19
643.231	51.05
643.42	50.6
643.61	49.71
643.8	50.45
643.99	50.96
644.18	51.16
644.369	50.72
644.559	50.53
644.749	49.88
644.939	51.23
645.128	49.88
645.318	50.19
645.508	51.13
645.697	51.96
645.887	51.42
646.076	49.71
646.266	49.16
646.456	48.79
646.645	47.98
646.835	48
647.024	47.8
647.214	48.48
647.403	48.3
647.593	47.22
647.782	47.77
647.972	47.44
648.161	48.77
648.351	48.71
648.54	49.22
648.73	49.61
648.919	49.65
649.108	49.45
649.298	48.16
649.487	47.33
649.677	47.14
649.866	47.72
650.055	48.65
650.244	48.93
650.434	48.99
650.623	49.46
650.812	49.47
651.002	49.55
651.191	48.82
651.38	50.57
651.569	49.91
651.758	50.63
651.947	49.87
652.137	49.77
652.326	49.67
652.515	50.66
652.704	50.2
652.893	51.36
653.082	51.73
653.271	52.63
653.46	51.7
653.649	53.15
653.838	52.12
654.027	52.13
654.216	52.08
654.405	52.4
654.594	51.39
654.783	52.16
654.972	51.28
655.161	50.97
655.35	50.04
655.539	50.51
655.728	49.4
655.916	49.76
656.105	48.88
656.294	48.14
656.483	47.79
656.672	46.21
656.86	45.36
657.049	45.65
657.238	44.94
657.427	45.89
657.615	45.86
657.804	46.03
657.993	45.37
658.181	45.8
658.37	46.41
658.559	46.18
658.747	47.14
658.936	47.93
659.125	47.54
659.313	47.73
659.502	47.58
659.69	47.22
659.879	48.09
660.067	49.85
660.256	50.41
660.444	49.81
660.633	49.89
660.821	50.72
661.01	51.21
661.198	51.73
661.387	53.12
661.575	53.21
661.763	54.53
661.952	54.73
662.14	54.48
662.328	54.24
662.517	54.4
662.705	54.78
662.893	54.68
663.082	52.95
663.27	53.63
663.458	52.91
663.646	52.96
663.834	52.35
664.023	51.57
664.211	50.91
664.399	51.08
664.587	51.9
664.775	52.03
664.963	51.49
665.152	52.29
665.34	50.6
665.528	50.96
665.716	50.72
665.904	49.91
666.092	49.64
666.28	51.07
666.468	51.71
666.656	52.94
666.844	54.42
667.032	54.6
667.22	53.85
667.408	54.51
667.596	53.54
667.784	54.78
667.971	54.38
668.159	54.58
668.347	53.51
668.535	54.09
668.723	52.15
668.911	50.32
669.098	50
669.286	49.24
669.474	49.21
669.662	50.84
669.849	49.94
670.037	50.82
670.225	51.63
670.413	51.28
670.6	50.27
670.788	51.89
670.976	52.74
671.163	53.94
671.351	56.4
671.538	54.61
671.726	53.75
671.913	53.57
672.101	53.32
672.289	52.85
672.476	54.68
672.664	55.44
672.851	53.47
673.039	53.12
673.226	54.18
673.413	52.97
673.601	53.74
673.788	53.92
673.976	53.72
674.163	53.57
674.35	53.32
674.538	53.48
674.725	53.03
674.912	54.06
675.1	52.9
675.287	51.98
675.474	52.16
675.662	54.48
675.849	54.87
676.036	54.74
676.223	55.77
676.411	56.92
676.598	54.73
676.785	53.16
676.972	54.14
677.159	54.38
677.346	53.55
677.533	54.35
677.721	53.19
677.908	51.45
678.095	51.48
678.282	51.01
678.469	50.36
678.656	52.04
678.843	53.27
679.03	52.06
679.217	52.46
679.404	51.97
679.591	51.94
679.778	51.81
679.964	53.17
680.151	54.46
680.338	53.34
680.525	53.61
680.712	53.57
680.899	52.94
681.086	52.42
681.272	52.48
681.459	53.83
681.646	53.44
681.833	53.44
682.02	53.2
682.206	52.35
682.393	53.86
682.58	53.92
682.766	52.56
682.953	52.9
683.14	54.84
683.326	54.95
683.513	54.84
683.7	54.12
683.886	54.25
684.073	52.5
684.259	51.87
684.446	51.71
684.632	52.3
684.819	52.36
685.005	51.07
685.192	50.42
685.378	50.14
685.565	49.11
685.751	50.26
685.938	50.84
686.124	53.09
686.31	53.18
686.497	53.21
686.683	53.09
686.87	54.2
687.056	55.48
687.242	54.91
687.429	55.95
687.615	56.27
687.801	55.69
687.987	54.17
688.174	53.57
688.36	53.48
688.546	52.72
688.732	52.84
688.918	51.11
689.105	51.54
689.291	51.2
689.477	50.12
689.663	48.88
689.849	47.59
690.035	48.12
690.221	47.12
690.407	47.5
690.593	47.76
690.779	46.97
690.965	49.51
691.151	49.11
691.337	49.98
691.523	49.5
691.709	50.22
691.895	52.66
692.081	52.07
692.267	52.69
692.453	52.19
692.639	52.21
692.825	51.51
693.011	51.08
693.196	49.95
693.382	49.66
693.568	49.56
693.754	50.79
693.94	48.07
694.125	50.69
694.311	50.05
694.497	50.79
694.682	50.64
694.868	51.18
695.054	49.99
695.239	51.04
695.425	50.5
695.611	51.69
695.796	51.09
695.982	51.83
696.168	50.59
696.353	50.25
696.539	49.94
696.724	49.82
696.91	47.9
697.095	47.06
697.281	46.45
697.466	46.2
697.652	45.86
697.837	45.52
698.023	46.12
698.208	45.19
698.393	47.05
698.579	46.71
698.764	47.51
698.949	47.8
699.135	48.18
699.32	49.73
699.505	49.4
699.691	49.93
699.876	50.65
700.061	50.7
700.246	50.89
700.432	49.8
700.617	50.63
700.802	49.78
700.987	53.16
701.172	56.35
701.358	55.5
701.543	57.8
701.728	57.03
701.913	59.04
702.098	60.27
702.283	62.5
702.468	62.61
702.653	61.56
702.838	62.59
703.023	61.87
703.208	60.32
703.393	60.11
703.578	59.37
703.763	59.62
703.948	57.11
704.133	56.5
704.318	55.52
704.503	54.43
704.688	56.31
704.873	56.26
705.057	55.38
705.242	56.96
705.427	55.97
705.612	57.67
705.797	57.94
705.981	59.06
706.166	58.42
706.351	59.73
706.536	60.63
706.72	59.21
706.905	57.99
707.09	60.33
707.274	58.26
707.459	58.45
707.644	54.64
707.828	55.61
708.013	54.38
708.197	54.77
708.382	52.87
708.567	52.51
708.751	53.62
708.936	55.38
709.12	54.33
709.305	54.13
709.489	55.88
709.673	58.61
709.858	59.07
710.042	59.39
710.227	59.21
710.411	60.64
710.596	61.78
710.78	60.57
710.964	59.78
711.149	57.95
711.333	57.91
711.517	57.76
711.702	57.69
711.886	55.12
712.07	56.19
712.254	56.86
712.438	56.51
712.623	56.15
712.807	56.13
712.991	56.35
713.175	55.72
713.359	55.56
713.544	55.64
713.728	54.11
713.912	56.6
714.096	55.46
714.28	55.91
714.464	54.48
714.648	53.09
714.832	53.12
715.016	51.17
715.2	51.87
715.384	52.19
715.568	50.23
715.752	51.09
715.936	50.52
716.12	49.82
716.304	47.27
716.488	48.01
716.671	49.6
716.855	49.33
717.039	48.81
717.223	49.95
717.407	50.28
717.59	51.54
717.774	51
717.958	50.51
718.142	49.98
718.325	49.02
718.509	48.55
718.693	48.92
718.877	47.82
719.06	53.29
719.244	53.4
719.428	54.95
719.611	55.25
719.795	54.92
719.978	54.41
720.162	55.79
720.345	59.47
720.529	62.72
720.713	60.05
720.896	62.74
721.08	60.51
721.263	59.83
721.446	57.64
721.63	55.78
721.813	54.84
721.997	55.42
722.18	54.66
722.364	51.78
722.547	49.95
722.73	50.31
722.914	50.91
723.097	49.15
723.28	49.57
723.464	46.48
723.647	47.19
723.83	47.94
724.013	49.32
724.197	51.2
724.38	53.12
724.563	51.61
724.746	52.53
724.929	52.98
725.112	55.4
725.296	54.81
725.479	57.42
725.662	55.36
725.845	54.96
726.028	54.33
726.211	50.49
726.394	49.16
726.577	48.32
726.76	47.1
726.943	43.78
727.126	40.28
727.309	41.05
727.492	40.6
727.675	43.37
727.858	43.22
728.041	43.13
728.224	45.28
728.407	48.34
728.589	48.95
728.772	48.48
728.955	52.79
729.138	55.12
729.321	54.6
729.503	54.85
729.686	53.75
729.869	56.87
730.052	54.79
730.234	55.08
730.417	53.33
730.6	56.34
730.782	55.51
730.965	52.74
731.148	53.36
731.33	53.47
731.513	54.62
731.695	54.29
731.878	50.82
732.061	51.77
732.243	53.04
732.426	51.6
732.608	50.93
732.791	53.69
732.973	54.21
733.156	52.3
733.338	50.26
733.52	49.36
733.703	50.02
733.885	52.77
734.068	50.2
734.25	50.11
734.432	52.86
734.615	51.04
734.797	50.73
734.979	52.04
735.162	55.12
735.344	59.88
735.526	59.5
735.708	57.93
735.891	57.78
736.073	58.67
736.255	56.62
736.437	56.18
736.619	57.11
736.802	56.15
736.984	55.68
737.166	54.39
737.348	50.8
737.53	52.57
737.712	52.77
737.894	52.18
738.076	55.87
738.258	56.56
738.44	57.67
738.622	57.59
738.804	61.02
738.986	64.74
739.168	66.32
739.35	70.03
739.532	68.43
739.714	72.21
739.896	76.84
740.078	72.05
740.259	71.51
740.441	70.76
740.623	73.85
740.805	69.08
740.987	67.86
741.168	66.27
741.35	66.92
741.532	67.51
741.714	68.31
741.895	67.58
742.077	70.34
742.259	70.28
742.44	68.98
742.622	67.66
742.804	71.16
742.985	70.35
743.167	70.8
743.348	72.98
743.53	75.12
743.711	73.57
743.893	67.91
744.075	69.98
744.256	71.71
744.438	71.43
744.619	68.02
744.8	68.59
744.982	67.45
745.163	68.34
745.345	63.45
745.526	60.84
745.707	60.79
745.889	61.34
746.07	58.97
746.252	60.05
746.433	60.57
746.614	60.77
746.795	57.23
746.977	56.82
747.158	56.38
747.339	54.14
747.52	57.46
747.702	57.44
747.883	58.22
748.064	60.51
748.245	57
748.426	57.91
748.607	58.36
748.788	61.11
748.97	66.15
749.151	65.84
749.332	70
749.513	71.95
749.694	68.95
749.875	72.8
750.056	71.98
750.237	76.68
750.418	77.19
750.599	77.06
750.78	78.76
750.96	72.64
751.141	79.13
751.322	81
751.503	76.8
751.684	79.59
751.865	80.83
752.046	80.21
752.226	80.57
752.407	83.53
752.588	80.32
752.769	76.8
752.949	76.1
753.13	72.94
753.311	72.5
753.492	76.75
753.672	74.36
753.853	70.54
754.034	69.91
754.214	65.23
754.395	64.56
754.575	63.02
754.756	64.2
754.937	69.3
755.117	67.74
755.298	69.16
755.478	61.69
755.659	65.28
755.839	64.62
756.02	64.93
756.2	69.69
756.381	66.97
756.561	74.15
756.741	70.04
756.922	61.23
757.102	60.86
757.283	58.95
757.463	60.02
757.643	55
757.823	56.26
758.004	50.18
758.184	46.39
758.364	46.81
758.545	40.59
758.725	46.23
758.905	51.4
759.085	48.31
759.265	43.59
759.446	47.92
759.626	51.94
759.806	51.16
759.986	58.61
760.166	55.46
760.346	50.7
760.526	54.53
760.706	51.24
760.886	51.2
761.066	50.24
761.246	52.21
761.426	51.23
761.606	48.37
761.786	48.38
761.966	48.06
762.146	48.69
762.326	49.08
762.506	47.93
762.686	46.31
762.866	46.95
763.046	48.21
763.225	48.5
763.405	48.12
763.585	47.85
763.765	48.48
763.945	49.88
764.124	51.4
764.304	52.1
764.484	55.8
764.664	57.31
764.843	58.22
765.023	62.1
765.203	62.06
765.382	64.02
765.562	67.33
765.741	68.47
765.921	68.67
766.101	70.46
766.28	70.07
766.46	71.35
766.639	72.8
766.819	74.12
766.998	74.79
767.178	74.51
767.357	72.63
767.537	72.56
767.716	71.49
767.896	73.92
768.075	73.41
768.254	74.19
768.434	69.2
768.613	69.72
768.792	66.93
768.972	70.37
769.151	70.25
769.33	72.62
769.51	73.15
769.689	75.12
769.868	75.8
770.047	76.97
770.226	80.44
770.406	82.46
770.585	83.29
770.764	81.37
770.943	74.75
771.122	80.52
771.301	76.18
771.48	76.87
771.66	71.12
771.839	68.84
772.018	70.76
772.197	72.7
772.376	73.66
772.555	74.77
772.734	79.39
772.913	85.17
773.092	80.32
773.271	86.21
773.449	87.05
773.628	87.09
773.807	93.42
773.986	86.48
774.165	82.92
774.344	81.11
774.523	78.08
774.701	71.04
774.88	68.52
775.059	74.08
775.238	73.41
775.417	73.84
775.595	79.04
775.774	67.96
775.953	69.36
776.131	71.78
776.31	68.8
776.489	70.48
776.667	74.22
776.846	69.96
777.025	65.13
777.203	65.24
777.382	66.2
777.56	61.29
777.739	68.58
777.917	74.12
778.096	78.44
778.274	83.7
778.453	85.08
778.631	88.45
778.81	90.56
778.988	88.14
779.166	83.73
779.345	81.37
779.523	81.26
779.702	74.19
779.88	69.1
780.058	67.4
780.237	65.36
780.415	63.02
780.593	60.17
780.771	63.78
780.95	67.45
781.128	68.65
781.306	67.37
781.484	69.6
781.662	74.62
781.841	79.96
782.019	74.45
782.197	77.56
782.375	82.72
782.553	86.42
782.731	87.48
782.909	84.3
783.087	80.11
783.265	91.26
783.443	85.9
783.621	81.52
783.799	73.08
783.977	70.63
784.155	65.41
784.333	67.6
784.511	68.61
784.689	65.72
784.867	68.94
785.045	76.64
785.223	71.33
785.4	74.91
785.578	75.86
785.756	83.18
785.934	79.56
786.112	79.31
786.289	73.41
786.467	61.14
786.645	61.66
786.823	65.77
787	68.77
787.178	71.62
787.356	75.61
787.533	78.66
787.711	74.12
787.889	82.1
788.066	85.04
788.244	84.2
788.421	101.87
788.599	97.04
788.776	93.97
788.954	87.8
789.131	85.17
789.309	78.92
789.486	67.76
789.664	74.69
789.841	67.37
790.019	64.25
790.196	66.87
790.373	59.87
790.551	63.68
790.728	67.39
790.906	66.33
791.083	55.63
791.26	55.41
791.437	66.39
791.615	58.84
791.792	60.95
791.969	66.06
792.146	61.02
792.324	60.2
792.501	62.9
792.678	56.95
792.855	56.62
793.032	66.91
793.209	66.81
793.387	63.28
793.564	65.01
793.741	70.98
793.918	67.02
794.095	72.13
794.272	73.93
794.449	66.34
794.626	67.65
794.803	69.82
794.98	60.61
795.157	64.88
795.334	64.16
795.511	63.46
795.688	63.92
795.864	66.48
796.041	63.7
796.218	64.41
796.395	62.24
796.572	60.96
796.749	62.84
796.925	68.42
797.102	70.28
797.279	74.42
797.456	73.92
797.632	77.82
797.809	83.94
797.986	77.38
798.162	81.53
798.339	80.36
798.516	82.96
798.692	74.76
798.869	72.79
799.046	68.81
799.222	62.43
799.399	59.18
799.575	47.13
799.752	47.12
799.928	49.64
800.105	43.02
800.281	49.62
800.458	57.97
800.634	61.14
800.811	63.38
800.987	64.31
801.163	64.6
801.34	77.43
801.516	79.8
801.692	83.85
801.869	88.08
802.045	89.91
802.221	86.74
802.398	78.14
802.574	78.4
802.75	76.84
802.926	84.85
803.103	83.56
803.279	74.85
803.455	69.43
803.631	59.26
803.807	50.9
803.983	60
804.16	59.95
804.336	56.06
804.512	55.9
804.688	56.47
804.864	50.27
805.04	59.26
805.216	58.3
805.392	60.03
805.568	61.73
805.744	68.99
805.92	55.36
806.096	52.86
806.272	59.6
806.448	68.23
806.623	71.41
806.799	63.44
806.975	58.3
807.151	57.21
807.327	54.32
807.503	46.61
807.678	48.39
807.854	49.29
808.03	49.37
808.206	42.66
808.381	33.27
808.557	34.22
808.733	41.25
808.908	41.21
809.084	44.71
809.26	52.15
809.435	63.39
809.611	64.01
809.787	67.74
809.962	77.4
810.138	73.53
810.313	76.93
810.489	69.38
810.664	72.04
810.84	72.74
811.015	70.39
811.191	69.55
811.366	79.1
811.542	79.21
811.717	80.63
811.892	76.32
812.068	73.58
812.243	70.13
812.419	70.04
812.594	60.97
812.769	57.2
812.944	61.83
813.12	64.3
813.295	48.69
813.47	30.95
813.645	25.19
813.821	20.04
813.996	38.29
814.171	30.06
814.346	21.79
814.521	40.37
814.697	35.21
814.872	36.66
815.047	38.68
815.222	34.11
815.397	51.3
815.572	48.15
815.747	45.91
815.922	42.59
816.097	52.03
816.272	52.82
816.447	48.15
816.622	56.31
816.797	57.45
816.972	58.03
817.147	54.78
817.322	54.84
817.496	57.91
817.671	59.92
817.846	56.97
818.021	49.19
818.196	53.94
818.371	45.68
818.545	40.58
818.72	40.09
818.895	35.94
819.069	41.88
819.244	40.36
819.419	38.77
819.594	43.18
819.768	45.16
819.943	47.55
820.117	46.67
820.292	48.77
820.467	47.87
820.641	45.89
820.816	45.49
820.99	43.78
821.165	43.46
821.339	43.99
821.514	42.13
821.688	41.85
821.863	42.43
822.037	42.91
822.212	42.56
822.386	42.74
822.56	41.94
822.735	43.36
822.909	45.54
823.084	43.74
823.258	44.22
823.432	44.14
823.606	44.29
823.781	41.28
823.955	42.19
824.129	43.52
824.303	43.1
824.478	46.17
824.652	44.53
824.826	43.97
825	44.82
825.174	42.82
825.348	46.28
825.523	44.99
825.697	48.99
825.871	44.7
826.045	44.19
826.219	43.94
826.393	44.54
826.567	45.15
826.741	45.67
826.915	46.87
827.089	48.7
827.263	48.68
827.437	49.53
827.611	43.93
827.784	40.06
827.958	38.87
828.132	45.42
828.306	46.4
828.48	47.2
828.654	49.26
828.827	54.02
829.001	50.78
829.175	50.73
829.349	53.18
829.522	59.01
829.696	81.53
829.87	81.55
830.044	74.25
830.217	69.98
830.391	65.14
830.565	52.31
830.738	46.38
830.912	55.37
831.085	49.52
831.259	49.24
831.432	54.23
831.606	45.03
831.779	46.53
831.953	47.33
832.126	46.02
832.3	55.03
832.473	56.55
832.647	53.62
832.82	53.35
832.994	56.34
833.167	55.07
833.34	56.19
833.514	57.31
833.687	60.67
833.86	64.44
834.034	72.07
834.207	64.55
834.38	62.68
834.553	63.47
834.727	60.27
834.9	58.63
835.073	56.39
835.246	54.81
835.419	56.52
835.593	61.24
835.766	54.75
835.939	47.44
836.112	53.7
836.285	65.53
836.458	64.73
836.631	67.23
836.804	60
836.977	69.46
837.15	64.38
837.323	59.72
837.496	27.29
837.669	22.56
837.842	24.17
838.015	27.75
838.188	15.23
838.361	24.41
838.533	38.29
838.706	33.11
838.879	26.35
839.052	32.96
839.225	25.59
839.398	33.38
839.57	34.04
839.743	34.47
839.916	33.04
840.088	45.1
840.261	44.54
840.434	28.98
840.607	36.75
840.779	46.88
840.952	32.49
841.124	39.61
841.297	37.24
841.47	43.47
841.642	44.5
841.815	40.69
841.987	31.37
842.16	29.15
842.332	39.36
842.505	53.06
842.677	49.28
842.85	56.94
843.022	62.11
843.194	54.82
843.367	57.18
843.539	58.56
843.712	53.15
843.884	48.14
844.056	56.89
844.229	82.12
844.401	52.17
844.573	65.29
844.745	30.76
844.918	45.44
845.09	57.55
845.262	61.74
845.434	36.21
845.606	33.72
845.779	60.58
845.951	53.9
846.123	7.46
846.295	9.73
846.467	17.08
846.639	59.92
846.811	49.93
846.983	46.27
847.155	35.26
847.327	64.11
847.499	80.25
847.671	70.76
847.843	114.08
848.015	625.81
848.187	-368.89
848.359	313.16
848.531	-96.3
848.703	1066.67
848.875	-207.45
849.047	374.47
849.218	119.74
849.39	122.76
849.562	99.3
849.734	132.18
849.905	163.45
850.077	231.96
850.249	177.58
850.421	539.22
850.592	278.41
850.764	180.14
850.936	816
851.107	3050
851.279	129.13
851.451	61.89
851.622	31.34
851.794	64.32
851.965	37.24
852.137	27.6
852.308	38.77
852.48	1.89
852.651	46.73
852.823	5.21
852.994	38.98
853.166	77.23
853.337	108.21
853.509	96.99
853.68	97.89
853.851	88.79
854.023	112.71
854.194	106.65
854.365	100.77
854.537	74.67
854.708	60.92
854.879	59.06
855.05	41.05
855.222	32.73
855.393	12.69
855.564	14.79
855.735	45.21
855.906	48.99
856.078	55.26
856.249	70.62
856.42	22.22
856.591	19.84
856.762	21.57
856.933	45.99
857.104	26.1
857.275	27.07
857.446	15.36
857.617	-4.86
857.788	-18.11
857.959	-13.44
858.13	14.77
858.301	48.46
858.472	58.3
858.643	40.83
858.814	46.85
858.985	64.72
859.155	28.17
859.326	51.49
859.497	126.89
859.668	82.68
859.839	47.5
860.009	11.66
860.18	-59.45
860.351	-20.98
860.522	21.7
860.692	-30
860.863	7.02
861.034	34.66
861.204	26.58
861.375	36.26
861.546	36.43
861.716	56
861.887	76.09
862.057	130.53
862.228	122.33
862.398	108.38
862.569	106.7
862.739	82.03
862.91	69.7
863.08	63.12
863.251	51.54
863.421	20.43
863.592	13.97
863.762	-73.84
863.932	-349.45
864.103	451.16
864.273	1128.57
864.443	291.67
864.614	130.22
864.784	133.8
864.954	990
865.125	-4742.86
865.295	592.54
865.465	487.72
865.635	2962.5
865.805	-170.89
865.976	3233.33
866.146	306.82
866.316	904
866.486	-669.05
866.656	109.87
866.826	66.92
866.996	-73.08
867.166	101.4
867.336	-38.96
867.506	12.86
867.676	-1.32
867.846	-3.04
868.016	-36.33
868.186	61.27
868.356	94.02
868.526	60.11
868.696	83
868.866	87.7
869.036	151.95
869.206	113.42
869.376	122.55
869.545	1021.05
869.715	292.11
869.885	45.89
870.055	3.19
870.224	-161.63
870.394	566.67
870.564	-426.87
870.734	-276
870.903	-52.62
871.073	-73.31
871.243	-40
871.412	25.21
871.582	31.46
871.751	24.74
871.921	-10.14
872.091	2.98
872.26	13.04
872.43	8.32
872.599	17.79
872.769	43.48
872.938	18.91
873.108	15.4
873.277	-13.58
873.446	-11.34
873.616	19.48
873.785	27.62
873.955	23.51
874.124	27.13
874.293	27.24
874.463	13.07
874.632	13.65
874.801	51.44
874.971	76.59
875.14	115.98
875.309	137.65
875.478	207.77
875.647	218.52
875.817	117.61
875.986	126.54
876.155	75.89
876.324	79.12
876.493	57.04
876.662	50.57
876.831	38.06
877	54.27
877.17	49.72
877.339	34.24
877.508	37.69
877.677	57.2
877.846	41.61
878.015	57.4
878.184	68.98
878.352	47.7
878.521	22.49
878.69	43.68
878.859	18.83
879.028	15.38
879.197	25.15
879.366	37.59
879.534	47.76
879.703	49.45
879.872	53.33
880.041	55.17
880.21	62.3
880.378	60.58
880.547	53.68
880.716	53.23
880.884	53.88
881.053	54.25
881.222	47.91
881.39	43.32
881.559	41.07
881.727	43.5
881.896	33.22
882.065	35.53
882.233	29.66
882.402	33.36
882.57	28.2
882.739	32.38
882.907	35.22
883.076	47.46
883.244	51.12
883.412	47.84
883.581	47.28
883.749	52.14
883.918	42.35
884.086	54.94
884.254	55.54
884.423	46.96
884.591	50.92
884.759	62.34
884.927	65.49
885.096	73.43
885.264	86.48
885.432	79.57
885.6	86.08
885.769	123.82
885.937	82.95
886.105	125.64
886.273	132.18
886.441	126.05
886.609	136.36
886.777	-17.01
886.945	178.41
887.113	190.64
887.281	2100
887.449	18.52
887.617	0
887.785	1.76
887.953	110.04
888.121	12.06
888.289	56.27
888.457	-6.85
888.625	-5066.67
888.793	45
888.961	-1000
889.129	-567.35
889.296	-181.61
889.464	-681.25
889.632	-184.03
889.8	-104.58
889.967	-268.89
890.135	-98.18
