Data from JASIL_3287_Reflection_1.txt Node
Date: Tue Nov 17 19:36:23 EST 2015
User: Geneva
Spectrometer: USB4E03002
Autoset integration time: false
Trigger mode: 4
Integration Time (sec): 1.000000E-1
Scans to average: 10
Electric dark correction enabled: false
Nonlinearity correction enabled: false
Boxcar width: 5
Stray light correction enabled: false
XAxis mode: Wavelengths
Stop averaging: false
Number of Pixels in Spectrum: 3648
>>>>>Begin Spectral Data<<<<<
177.575	-47.52
177.794	-104.35
178.014	4.49
178.233	-105.66
178.452	28.33
178.672	-30.71
178.891	3.45
179.11	1250
179.33	365.22
179.549	649.02
179.768	-2909.09
179.987	304.55
180.207	164.75
180.426	377.4
180.645	418.4
180.864	3158.82
181.084	334.94
181.303	284.37
181.522	240.8
181.741	173.03
181.96	130.3
182.179	900
182.398	-61.04
182.618	53.23
182.837	129.05
183.056	163.93
183.275	272.78
183.494	159.64
183.713	160.56
183.932	124.51
184.151	114.46
184.37	96.1
184.589	122.53
184.808	119.25
185.027	112.87
185.246	119.84
185.465	95.77
185.684	55.82
185.903	59.87
186.122	-32.92
186.341	-112.39
186.56	-27.98
186.779	755.56
186.998	84.13
187.216	98.33
187.435	120.61
187.654	202.42
187.873	181.25
188.092	199.36
188.311	64.29
188.53	152.72
188.748	126.15
188.967	148.82
189.186	103.2
189.405	129.39
189.623	90.62
189.842	38.83
190.061	17.94
190.28	13.73
190.498	41.08
190.717	97.41
190.936	115.81
191.154	236.26
191.373	479.31
191.592	-532.56
191.81	-325.24
192.029	-255.79
192.248	-125
192.466	-132.6
192.685	-20.63
192.904	-102.48
193.122	-61.9
193.341	-49.58
193.559	-46.89
193.778	-3.31
193.996	-43.13
194.215	-63.77
194.433	-67.14
194.652	-100
194.87	-113.12
195.089	-240.77
195.307	-592.98
195.526	263.27
195.744	94.96
195.963	-0
196.181	-80.99
196.399	-265.52
196.618	319.74
196.836	260.99
197.055	310.14
197.273	314.18
197.491	306.31
197.71	163.89
197.928	101.99
198.146	35.62
198.365	-211.9
198.583	17.46
198.801	177.42
199.019	92.44
199.238	96.92
199.456	94.32
199.674	38.17
199.892	21.46
200.111	7.98
200.329	-8.06
200.547	-40.71
200.765	511.76
200.983	-28.21
201.202	288.16
201.42	110.36
201.638	88.59
201.856	114.96
202.074	70
202.292	73.57
202.51	48.05
202.728	29.75
202.946	-525
203.165	-586.54
203.383	-48.74
203.601	-23.35
203.819	-5.45
204.037	354.55
204.255	381.48
204.473	131.47
204.691	78.82
204.909	98.67
205.127	164.58
205.345	-15.15
205.562	17.83
205.78	55.56
205.998	67.57
206.216	83.58
206.434	100.79
206.652	121.71
206.87	188.62
207.088	210.95
207.306	130.64
207.523	59.28
207.741	-22.39
207.959	-38.29
208.177	-81.87
208.395	-29.9
208.612	-80.56
208.83	-70.28
209.048	-60.64
209.266	-32.32
209.483	5.7
209.701	19
209.919	44.8
210.136	92.29
210.354	86.57
210.572	99.38
210.79	67
211.007	130.99
211.225	1453.33
211.442	-532.2
211.66	-940
211.878	9.97
212.095	-54.97
212.313	-160.17
212.53	-36.49
212.748	-16.73
212.966	-28.7
213.183	-118.68
213.401	3322.22
213.618	264.29
213.836	203.07
214.053	222.02
214.271	178.85
214.488	213.84
214.705	201.67
214.923	195.55
215.14	143.45
215.358	115.76
215.575	89.34
215.793	59.34
216.01	30.33
216.227	-20.69
216.445	75
216.662	122.84
216.879	90.87
217.097	77.91
217.314	43.19
217.531	-87.5
217.749	112.87
217.966	35.16
218.183	31.14
218.4	-83.23
218.618	-63.16
218.835	-20.88
219.052	8.46
219.269	27.95
219.487	68.49
219.704	55.66
219.921	56.85
220.138	67.59
220.355	81.87
220.572	67.48
220.79	33.45
221.007	36.73
221.224	40.68
221.441	74.62
221.658	41.88
221.875	848.57
222.092	202.27
222.309	-460.61
222.526	-157.58
222.743	-105.8
222.96	-238.13
223.177	-506.98
223.394	-244.74
223.611	0.7
223.828	7.2
224.045	5.54
224.262	21.79
224.479	25.12
224.696	17.31
224.913	80.99
225.13	-16.04
225.347	-4.14
225.564	28.98
225.781	10.04
225.997	-10.21
226.214	1.39
226.431	-15.47
226.648	-5.33
226.865	-22.96
227.082	-21.86
227.298	-8.49
227.515	-4.32
227.732	1.16
227.949	3.12
228.165	-0.95
228.382	-2.49
228.599	-9.56
228.816	-1.16
229.032	0.23
229.249	14.68
229.466	21.49
229.682	19.64
229.899	17.86
230.116	21.71
230.332	20.78
230.549	19.94
230.765	15.82
230.982	7.77
231.199	9.25
231.415	-1.82
231.632	-6.78
231.848	-34
232.065	-38.13
232.281	-30.87
232.498	-23.16
232.714	-43.76
232.931	-26.07
233.147	-28.38
233.364	-12.49
233.58	-22.83
233.797	-18.75
234.013	-15.52
234.23	11.18
234.446	19.33
234.662	38.13
234.879	1.09
235.095	44.15
235.312	35.38
235.528	44.69
235.744	28.76
235.961	55.81
236.177	75.96
236.393	67.33
236.61	66.8
236.826	47.49
237.042	30.44
237.258	45.15
237.475	24.5
237.691	15.38
237.907	5.78
238.123	17.7
238.339	11.86
238.556	1.65
238.772	6.03
238.988	-9.4
239.204	-15.84
239.42	-19.29
239.636	-14.03
239.853	-5.74
240.069	-1.39
240.285	-0.97
240.501	1.48
240.717	-0.5
240.933	-2.02
241.149	-2.66
241.365	-2.07
241.581	-1.55
241.797	2.03
242.013	2.79
242.229	0.24
242.445	-5.63
242.661	-6.04
242.877	-8.68
243.093	-3.35
243.309	1.16
243.525	1.61
243.741	8.09
243.957	8.73
244.173	4.22
244.388	5.9
244.604	9.97
244.82	15.24
245.036	15.27
245.252	13.88
245.468	13.26
245.683	10.12
245.899	7.52
246.115	5.33
246.331	5.53
246.547	8.24
246.762	6.78
246.978	6.22
247.194	4.6
247.409	3.67
247.625	1.68
247.841	-0.8
248.057	1.69
248.272	3.12
248.488	3.3
248.703	0.56
248.919	-0.75
249.135	2.19
249.35	-0.09
249.566	-2.54
249.782	-0.36
249.997	6.75
250.213	8.04
250.428	7.31
250.644	7.38
250.859	7.59
251.075	9.28
251.29	6.04
251.506	3.54
251.721	4.75
251.937	2.66
252.152	5.8
252.368	-0.24
252.583	0.81
252.798	-2
253.014	-6.09
253.229	-10.96
253.445	-10.36
253.66	-13.22
253.875	-13.3
254.091	-20.74
254.306	-19.81
254.521	-31.96
254.737	-27.95
254.952	-29.13
255.167	-24.94
255.383	-21.68
255.598	-15.59
255.813	-20.17
256.028	-15.59
256.244	-16.49
256.459	-6.84
256.674	-0.72
256.889	1.69
257.104	-0.37
257.32	1.35
257.535	1.33
257.75	2.05
257.965	-0.14
258.18	0.24
258.395	-0.92
258.61	-0.58
258.826	-3.04
259.041	-3.57
259.256	-5.24
259.471	-6.58
259.686	-6.09
259.901	-7.52
260.116	-7.23
260.331	-6.23
260.546	-5.48
260.761	-4.07
260.976	-3.56
261.191	-4.35
261.406	-4.92
261.621	-3.83
261.836	2.6
262.05	0.29
262.265	3.08
262.48	-4.97
262.695	-1.72
262.91	-5.37
263.125	-6.94
263.34	-14
263.555	-12.45
263.769	-15.71
263.984	-18.27
264.199	-17.16
264.414	-15.76
264.629	-14.94
264.843	-3.78
265.058	-7.79
265.273	-6.78
265.488	-2.43
265.702	0.36
265.917	5.84
266.132	6.81
266.346	11.74
266.561	11.1
266.776	9.92
266.99	10.8
267.205	9.88
267.42	8.15
267.634	8.77
267.849	5.74
268.063	4.36
268.278	1.04
268.492	-1.04
268.707	-5.75
268.922	-7.17
269.136	-4.3
269.351	-5.05
269.565	-5.53
269.78	-2.65
269.994	-1.31
270.209	-0.48
270.423	0.33
270.637	-0.71
270.852	1.18
271.066	3.35
271.281	4.12
271.495	1.67
271.709	1.69
271.924	0.14
272.138	1.47
272.353	1.3
272.567	0.39
272.781	-0.33
272.996	-0.8
273.21	-0.72
273.424	-0.22
273.638	-3.74
273.853	-1.31
274.067	-1.63
274.281	-2.78
274.495	-2.2
274.71	-1.61
274.924	-1.37
275.138	2.6
275.352	6.15
275.566	7.1
275.781	3.56
275.995	7.45
276.209	3.48
276.423	2.81
276.637	5.18
276.851	0.7
277.065	-2.07
277.279	-3.1
277.493	-7.02
277.707	-10.4
277.921	-10.48
278.135	-4.25
278.349	-4.91
278.563	-1.81
278.777	-2.97
278.991	-2.46
279.205	-0.1
279.419	-0.76
279.633	-1.37
279.847	2.66
280.061	3.44
280.275	3.65
280.489	-1.41
280.703	-2.1
280.917	-0.66
281.131	1.27
281.344	3.02
281.558	3.08
281.772	3.16
281.986	5.14
282.2	2.2
282.414	2.42
282.627	1.66
282.841	2.61
283.055	1.08
283.269	0.52
283.482	1.19
283.696	0.29
283.91	0.52
284.123	1.78
284.337	1.97
284.551	1.43
284.764	1.09
284.978	0.9
285.192	1.13
285.405	2.45
285.619	1.76
285.833	0.38
286.046	0.18
286.26	1.21
286.473	0.91
286.687	0.51
286.9	3.25
287.114	3.67
287.327	3.93
287.541	3.28
287.754	3.86
287.968	6.03
288.181	6.77
288.395	6.07
288.608	6.48
288.822	7.09
289.035	6.82
289.248	5.09
289.462	5.27
289.675	5.5
289.889	7.56
290.102	6.54
290.315	5.31
290.529	5.56
290.742	6.19
290.955	6.11
291.169	6.83
291.382	6.18
291.595	6.9
291.808	6.4
292.022	4.59
292.235	3.79
292.448	4.41
292.661	4.64
292.875	3.6
293.088	4.68
293.301	1.93
293.514	-0.46
293.727	-0.13
293.94	-1.77
294.153	-2.6
294.367	0.2
294.58	-0.22
294.793	-0.91
295.006	-1.12
295.219	-1.01
295.432	-2.28
295.645	-0.4
295.858	2.26
296.071	2.58
296.284	4.14
296.497	5.39
296.71	5.09
296.923	4.94
297.136	4.85
297.349	6.32
297.562	6.5
297.775	6.09
297.988	5.38
298.201	4.72
298.414	5.75
298.626	3.61
298.839	3.52
299.052	3.99
299.265	5.98
299.478	7.15
299.691	6.09
299.903	6.09
300.116	5.28
300.329	5.15
300.542	5.77
300.755	5.33
300.967	7.4
301.18	8.47
301.393	5.99
301.605	3.33
301.818	2.99
302.031	3.2
302.243	2.09
302.456	3.61
302.669	4.46
302.881	2.37
303.094	3
303.307	2.37
303.519	2.58
303.732	3.37
303.944	5.53
304.157	6.16
304.37	6.68
304.582	8.46
304.795	9.12
305.007	10.64
305.22	10.5
305.432	9.04
305.645	9.75
305.857	7.82
306.069	6.57
306.282	6.1
306.494	4.89
306.707	3.45
306.919	2.19
307.132	2.51
307.344	1.24
307.556	1.34
307.769	0.73
307.981	0.22
308.193	-0.65
308.406	0.58
308.618	-0.81
308.83	1.44
309.043	1.09
309.255	2.17
309.467	2.02
309.679	-0.36
309.892	1.11
310.104	2.79
310.316	5.13
310.528	5.79
310.74	5.87
310.953	5.25
311.165	3.67
311.377	5.92
311.589	6.18
311.801	5.25
312.013	5.19
312.225	4.04
312.437	2.02
312.649	-0.57
312.862	-0.46
313.074	-0.55
313.286	-0.01
313.498	0.05
313.71	-2.75
313.922	-3.81
314.134	-2.11
314.346	0.22
314.558	0.48
314.77	1.05
314.982	2.24
315.193	2.05
315.405	2.62
315.617	2.96
315.829	2.9
316.041	3.81
316.253	3.71
316.465	3.12
316.677	1.46
316.888	4.2
317.1	4.29
317.312	3.4
317.524	5.88
317.736	6.51
317.947	7.24
318.159	8.83
318.371	9.42
318.583	9.87
318.794	11.4
319.006	14.29
319.218	13.39
319.43	13.94
319.641	14.99
319.853	14.39
320.064	11.61
320.276	12.18
320.488	10.34
320.699	9.36
320.911	9.19
321.123	8.58
321.334	6.5
321.546	6.01
321.757	6.57
321.969	4.58
322.18	3.61
322.392	4.86
322.603	4.54
322.815	5.82
323.026	4.23
323.238	3.09
323.449	2.05
323.661	3.48
323.872	0.98
324.083	0.18
324.295	0.77
324.506	1.25
324.718	0.2
324.929	1.03
325.14	1.27
325.352	1.9
325.563	3.4
325.774	4.67
325.986	2.84
326.197	5.22
326.408	5.57
326.62	4.83
326.831	4.27
327.042	5.78
327.253	5.98
327.464	6.08
327.676	6.72
327.887	7
328.098	7.53
328.309	9.35
328.52	9.63
328.732	10.78
328.943	12.9
329.154	13.31
329.365	14.85
329.576	13.53
329.787	14.75
329.998	14.19
330.209	14.47
330.42	14.58
330.631	14.14
330.842	14.75
331.053	14.48
331.264	14.55
331.475	14.12
331.686	13.68
331.897	13.01
332.108	13.02
332.319	12.92
332.53	12.05
332.741	11.69
332.952	10.91
333.163	11.19
333.374	12.61
333.585	12.77
333.795	13.17
334.006	12.75
334.217	14.1
334.428	11.68
334.639	12.27
334.849	13.87
335.06	13.98
335.271	15.4
335.482	14.64
335.692	14.06
335.903	12.21
336.114	13.02
336.325	12.62
336.535	12.01
336.746	13.11
336.957	13.45
337.167	11.67
337.378	12.41
337.589	12.57
337.799	11.36
338.01	11.09
338.22	13.85
338.431	11.46
338.642	12.22
338.852	13.44
339.063	12.99
339.273	13.67
339.484	15.44
339.694	14.19
339.905	14.09
340.115	15.8
340.326	15.28
340.536	12.78
340.746	14
340.957	13.94
341.167	14.98
341.378	16.35
341.588	15.77
341.799	14.82
342.009	14.07
342.219	13.41
342.43	13.11
342.64	12.38
342.85	13.39
343.061	14.28
343.271	13.63
343.481	11.54
343.691	10.68
343.902	11.44
344.112	12.47
344.322	12.48
344.532	12.79
344.743	13.38
344.953	13.95
345.163	13.57
345.373	13.94
345.583	13.86
345.793	16.38
346.004	17.13
346.214	17.96
346.424	18.06
346.634	18.86
346.844	19.36
347.054	18.41
347.264	17.95
347.474	18.17
347.684	16.37
347.894	16.19
348.104	13.36
348.314	12.75
348.524	11.2
348.734	11.38
348.944	10.67
349.154	9.71
349.364	9.75
349.574	10.49
349.784	10.9
349.994	12.2
350.204	12.44
350.413	13.07
350.623	12.45
350.833	14.16
351.043	13.18
351.253	13.43
351.463	13.68
351.672	14.44
351.882	13.03
352.092	12.68
352.302	12.97
352.511	12.81
352.721	12.37
352.931	12.96
353.141	11.32
353.35	11.39
353.56	11.3
353.77	10.68
353.979	9.96
354.189	10.7
354.399	10.52
354.608	9.25
354.818	9.02
355.027	10.54
355.237	10.15
355.447	10.79
355.656	10.68
355.866	11.17
356.075	11.93
356.285	12.28
356.494	12.54
356.704	13.39
356.913	13.76
357.123	13.71
357.332	12.58
357.542	12.09
357.751	11.62
357.96	10.38
358.17	10.63
358.379	10.45
358.589	10.16
358.798	10.69
359.007	11.21
359.217	11.69
359.426	12.43
359.635	13.74
359.845	13.79
360.054	13.34
360.263	14.51
360.472	14.42
360.682	14.26
360.891	14.31
361.1	14.24
361.309	14.04
361.519	13.27
361.728	13.08
361.937	12.49
362.146	12.65
362.355	12.81
362.564	11.93
362.774	11.92
362.983	11.81
363.192	11.9
363.401	12.5
363.61	11.47
363.819	12.23
364.028	12.18
364.237	11.9
364.446	12.23
364.655	12.28
364.864	12.54
365.073	11.51
365.282	10.71
365.491	10.54
365.7	10.78
365.909	9.69
366.118	9.63
366.327	9.49
366.536	8.73
366.745	8.36
366.954	9.04
367.162	10.07
367.371	10.65
367.58	12
367.789	11.99
367.998	10.96
368.207	11.1
368.415	11.46
368.624	11.32
368.833	11.17
369.042	11.34
369.25	10.5
369.459	10.55
369.668	10.32
369.877	10.82
370.085	10.52
370.294	10.69
370.503	12.53
370.711	12.4
370.92	12.8
371.129	13.58
371.337	13.17
371.546	13.57
371.754	13.01
371.963	13.68
372.171	12.73
372.38	12.24
372.589	12.19
372.797	11.47
373.006	11.72
373.214	11.04
373.423	10.42
373.631	11.4
373.84	10.03
374.048	9.91
374.256	9.32
374.465	10.12
374.673	11.66
374.882	10.26
375.09	10.67
375.298	10.55
375.507	10.28
375.715	10.34
375.923	10.4
376.132	11.36
376.34	11.09
376.548	11.69
376.757	11.2
376.965	10.13
377.173	11.03
377.381	11.22
377.59	10.55
377.798	10.78
378.006	10.47
378.214	9.56
378.423	9.05
378.631	9.4
378.839	9
379.047	9.14
379.255	10.5
379.463	10.86
379.671	10.32
379.879	11.21
380.088	11.3
380.296	12.58
380.504	13.15
380.712	13.73
380.92	13.67
381.128	14.16
381.336	13.81
381.544	12.36
381.752	11.7
381.96	11.73
382.168	10.14
382.376	10.64
382.584	9.64
382.791	9.58
382.999	9.35
383.207	9.26
383.415	8.65
383.623	8.38
383.831	8.88
384.039	9
384.247	8.95
384.454	9.58
384.662	9.53
384.87	10.25
385.078	9.42
385.285	9.43
385.493	9.83
385.701	10.15
385.909	10.95
386.116	11.7
386.324	10.96
386.532	10.8
386.739	11.46
386.947	11.27
387.155	10.75
387.362	10.73
387.57	10.31
387.778	8.58
387.985	7.45
388.193	6.94
388.4	6.11
388.608	7.3
388.816	8
389.023	8.01
389.231	8.21
389.438	8.38
389.646	9.44
389.853	10.52
390.061	11.99
390.268	12.4
390.475	11.87
390.683	11.72
390.89	11.77
391.098	11.61
391.305	10.53
391.512	10.5
391.72	9.77
391.927	9.72
392.135	9.13
392.342	8.55
392.549	8.15
392.756	8.55
392.964	8.46
393.171	8.66
393.378	8.03
393.586	8.58
393.793	8.9
394	9.66
394.207	8.95
394.414	9.56
394.622	10.42
394.829	10.77
395.036	10.55
395.243	10.61
395.45	10.57
395.657	10.69
395.864	10.58
396.072	10.17
396.279	9.98
396.486	10.45
396.693	9.51
396.9	8.6
397.107	9.1
397.314	9.83
397.521	9.49
397.728	9.61
397.935	8.96
398.142	9.27
398.349	9.06
398.556	8.47
398.763	8.32
398.97	9.35
399.177	9.97
399.383	10.31
399.59	10.11
399.797	10.6
400.004	10.23
400.211	10.74
400.418	10.66
400.625	10.62
400.831	11.81
401.038	11.35
401.245	10.98
401.452	10.49
401.658	10.45
401.865	9.88
402.072	9.38
402.279	9.28
402.485	9.94
402.692	9.95
402.899	9.45
403.105	8.73
403.312	9.15
403.519	9.17
403.725	8.87
403.932	8.38
404.138	8.71
404.345	8.74
404.552	8.86
404.758	8.5
404.965	8.45
405.171	8.96
405.378	9.62
405.584	9.77
405.791	9.31
405.997	9.76
406.204	10.38
406.41	10.26
406.617	10.97
406.823	10.18
407.029	9.7
407.236	10.11
407.442	10.02
407.649	9.65
407.855	9.35
408.061	9.59
408.268	9.89
408.474	9.25
408.68	8.66
408.887	8.54
409.093	9.7
409.299	10.77
409.505	9.82
409.712	10.3
409.918	9.98
410.124	9.55
410.33	9.65
410.537	9.67
410.743	9.39
410.949	10.46
411.155	9.5
411.361	9.04
411.567	7.82
411.773	8.22
411.98	7.39
412.186	8.26
412.392	8.82
412.598	8.76
412.804	8.6
413.01	8.9
413.216	8.26
413.422	8.97
413.628	8.96
413.834	9.44
414.04	9.68
414.246	9.83
414.452	9.49
414.658	9.43
414.864	9.32
415.07	9.28
415.275	8.81
415.481	9.16
415.687	9.37
415.893	9.17
416.099	9.85
416.305	9.96
416.511	10.39
416.716	10.03
416.922	10.3
417.128	10.42
417.334	10.62
417.539	10.96
417.745	11.08
417.951	10.77
418.157	11.03
418.362	10.86
418.568	10.68
418.774	10.46
418.979	10.5
419.185	10.3
419.391	10.4
419.596	10.24
419.802	10.53
420.008	10.16
420.213	10.54
420.419	10.27
420.624	10.25
420.83	10.34
421.035	10.86
421.241	11.19
421.446	11.32
421.652	11.21
421.857	11.14
422.063	11.06
422.268	11.38
422.474	11.08
422.679	11.25
422.885	11.13
423.09	11.16
423.295	10.5
423.501	10.33
423.706	10.18
423.911	10.12
424.117	10.46
424.322	10.5
424.527	10.33
424.733	10.6
424.938	10.51
425.143	10.55
425.349	10.31
425.554	10.52
425.759	10.35
425.964	10.34
426.169	10.51
426.375	10.15
426.58	10.05
426.785	9.62
426.99	9.67
427.195	9.74
427.4	9.77
427.605	10.18
427.811	9.91
428.016	9.99
428.221	10.22
428.426	10.09
428.631	9.84
428.836	9.56
429.041	10.19
429.246	9.97
429.451	9.87
429.656	9.57
429.861	9.36
430.066	9.93
430.271	10.26
430.476	10.25
430.681	9.96
430.886	10.42
431.09	10.51
431.295	10.14
431.5	10.63
431.705	10.88
431.91	11.05
432.115	11.08
432.32	10.76
432.524	10.63
432.729	10.64
432.934	11.07
433.139	11.04
433.343	11.11
433.548	11.46
433.753	10.91
433.958	10.53
434.162	10.31
434.367	10.44
434.572	10.13
434.776	10.07
434.981	10.09
435.186	9.7
435.39	9.53
435.595	9.58
435.799	9.34
436.004	9.38
436.209	10.02
436.413	10.07
436.618	9.64
436.822	9.91
437.027	9.88
437.231	9.97
437.436	10.39
437.64	10.52
437.845	10.46
438.049	10.53
438.253	10.6
438.458	10.06
438.662	10.35
438.867	10.62
439.071	10.79
439.275	10.93
439.48	10.73
439.684	10.62
439.888	10.87
440.093	10.88
440.297	10.9
440.501	10.82
440.706	11.35
440.91	11.26
441.114	11.18
441.318	11.33
441.523	11.2
441.727	10.92
441.931	11.04
442.135	10.82
442.339	10.43
442.543	10.45
442.748	10.48
442.952	9.94
443.156	9.77
443.36	9.84
443.564	9.64
443.768	9.94
443.972	10.7
444.176	10.81
444.38	10.6
444.584	10.81
444.788	10.63
444.992	10.59
445.196	10.62
445.4	10.76
445.604	10.56
445.808	10.38
446.012	9.96
446.216	9.77
446.42	9.41
446.624	9.56
446.828	9.64
447.032	9.57
447.235	9.69
447.439	9.48
447.643	9.52
447.847	9.83
448.051	9.98
448.254	10.19
448.458	9.92
448.662	10.01
448.866	9.87
449.069	9.74
449.273	9.86
449.477	9.75
449.681	9.85
449.884	9.49
450.088	9.01
450.292	9.1
450.495	8.8
450.699	9.11
450.902	9.22
451.106	9.27
451.31	9.47
451.513	9.97
451.717	9.94
451.92	10.24
452.124	10.72
452.327	11.06
452.531	11.55
452.734	11.85
452.938	11.52
453.141	11.51
453.345	11.47
453.548	11.15
453.752	10.67
453.955	10.58
454.158	10.14
454.362	10
454.565	9.87
454.769	9.08
454.972	9.25
455.175	9.41
455.379	9.34
455.582	9.49
455.785	9.7
455.988	9.77
456.192	9.61
456.395	9.84
456.598	10.06
456.801	10.49
457.005	10.5
457.208	10.33
457.411	10.15
457.614	10.07
457.817	9.8
458.021	9.65
458.224	9.57
458.427	9.8
458.63	9.6
458.833	9.61
459.036	9.51
459.239	9.54
459.442	9.43
459.645	9.61
459.848	10.01
460.051	10.24
460.254	10.49
460.457	10.6
460.66	10.47
460.863	10.91
461.066	10.78
461.269	10.56
461.472	10.8
461.675	11.09
461.878	11.06
462.081	10.55
462.284	10.49
462.486	10.07
462.689	9.58
462.892	9.73
463.095	9.51
463.298	9
463.5	9.16
463.703	8.94
463.906	8.85
464.109	8.71
464.311	8.94
464.514	8.83
464.717	8.79
464.92	9.41
465.122	9.22
465.325	9.26
465.528	9.44
465.73	9.45
465.933	9.29
466.135	8.92
466.338	8.8
466.541	8.47
466.743	8.61
466.946	8.84
467.148	8.5
467.351	8.65
467.553	8.47
467.756	8.51
467.958	8.49
468.161	8.96
468.363	9.19
468.566	9.26
468.768	9.45
468.971	9.46
469.173	9.84
469.375	10.13
469.578	10.16
469.78	10.26
469.983	10.49
470.185	10.43
470.387	10.43
470.59	10.43
470.792	10.42
470.994	10.3
471.196	10.07
471.399	9.68
471.601	9.9
471.803	9.58
472.005	9.72
472.208	9.84
472.41	9.49
472.612	9.41
472.814	9.75
473.016	9.64
473.218	9.87
473.421	9.66
473.623	9.83
473.825	9.67
474.027	10.27
474.229	10.52
474.431	10.19
474.633	10.28
474.835	9.84
475.037	9.39
475.239	9.88
475.441	9.8
475.643	10.1
475.845	9.82
476.047	9.93
476.249	9.6
476.451	9.39
476.653	9.49
476.855	9.93
477.057	10.26
477.258	10.18
477.46	9.97
477.662	9.87
477.864	9.92
478.066	10.31
478.268	10.49
478.469	10.51
478.671	10.33
478.873	10.33
479.075	10.04
479.276	10.04
479.478	10.1
479.68	10.05
479.882	10.34
480.083	10.59
480.285	10.46
480.487	10.44
480.688	10.57
480.89	10.52
481.091	10.51
481.293	10.63
481.495	10.67
481.696	10.64
481.898	10.82
482.099	10.83
482.301	10.51
482.502	10.43
482.704	10.26
482.905	10.21
483.107	10.28
483.308	10.15
483.51	10.11
483.711	10.06
483.913	10.16
484.114	10.07
484.315	9.94
484.517	10.07
484.718	10.12
484.92	10.18
485.121	10.17
485.322	10.13
485.524	10.31
485.725	10.42
485.926	10.39
486.127	10.37
486.329	10.45
486.53	10.39
486.731	10.42
486.932	10.3
487.134	10.29
487.335	10.14
487.536	10.14
487.737	10.11
487.938	10.03
488.139	10.01
488.341	9.83
488.542	9.63
488.743	9.74
488.944	9.73
489.145	9.88
489.346	10.02
489.547	10.22
489.748	10.33
489.949	10.31
490.15	10.35
490.351	10.31
490.552	10.36
490.753	10.48
490.954	10.57
491.155	10.47
491.356	10.32
491.557	10.17
491.758	10.31
491.959	10.3
492.159	10.38
492.36	10.36
492.561	10.55
492.762	10.54
492.963	10.42
493.164	10.46
493.364	10.63
493.565	10.96
493.766	10.81
493.967	10.6
494.167	10.64
494.368	10.62
494.569	10.52
494.769	10.67
494.97	10.81
495.171	10.98
495.371	10.61
495.572	10.71
495.773	10.65
495.973	10.8
496.174	10.77
496.375	10.79
496.575	10.71
496.776	10.78
496.976	10.46
497.177	10.4
497.377	10.39
497.578	10.36
497.778	10.07
497.979	10.23
498.179	10.17
498.38	10.33
498.58	10.13
498.78	10.4
498.981	10.43
499.181	10.8
499.382	10.78
499.582	10.66
499.782	10.98
499.983	11.42
500.183	11.25
500.383	11.51
500.584	11.23
500.784	11.72
500.984	11.43
501.184	11.3
501.385	11.18
501.585	11.57
501.785	11.63
501.985	11.69
502.185	11.74
502.386	11.92
502.586	12.1
502.786	12.46
502.986	11.84
503.186	12.18
503.386	12.27
503.586	12.54
503.786	12.53
503.987	12.73
504.187	12.61
504.387	12.52
504.587	12.13
504.787	11.93
504.987	11.94
505.187	12.22
505.387	12
505.587	12.12
505.786	11.96
505.986	11.89
506.186	11.64
506.386	11.99
506.586	12.18
506.786	12.57
506.986	12.87
507.186	12.84
507.386	12.89
507.585	12.95
507.785	12.96
507.985	13.02
508.185	13.36
508.384	13.71
508.584	13.7
508.784	13.84
508.984	14.02
509.183	13.98
509.383	14.02
509.583	14.34
509.782	14.25
509.982	14.59
510.182	14.68
510.381	14.57
510.581	14.31
510.781	14.41
510.98	14.15
511.18	13.95
511.379	13.94
511.579	13.74
511.778	13.83
511.978	14.31
512.177	13.92
512.377	13.9
512.576	13.62
512.776	13.7
512.975	13.54
513.175	13.76
513.374	14.07
513.573	14.28
513.773	14.67
513.972	14.82
514.172	14.76
514.371	14.91
514.57	15.11
514.77	15.41
514.969	15.27
515.168	15.6
515.367	15.7
515.567	15.48
515.766	15.34
515.965	15.46
516.164	15.32
516.364	15.27
516.563	15.64
516.762	15.78
516.961	15.87
517.16	16.38
517.359	16.1
517.559	15.92
517.758	16.18
517.957	16.25
518.156	16.35
518.355	16.28
518.554	16.53
518.753	16.3
518.952	16.22
519.151	16.1
519.35	16.18
519.549	16.6
519.748	16.85
519.947	16.66
520.146	16.83
520.345	16.8
520.544	16.73
520.743	16.53
520.942	16.6
521.141	16.73
521.339	16.87
521.538	16.73
521.737	16.5
521.936	16.68
522.135	16.79
522.333	17.02
522.532	17.36
522.731	17.62
522.93	17.68
523.129	18.1
523.327	18.23
523.526	18.47
523.725	18.42
523.923	18.65
524.122	18.58
524.321	18.89
524.519	18.79
524.718	18.78
524.917	19.11
525.115	19.14
525.314	19.08
525.512	19.32
525.711	19.42
525.909	19.38
526.108	19.39
526.306	19.44
526.505	19.47
526.703	19.64
526.902	19.49
527.1	19.46
527.299	19.6
527.497	19.62
527.696	19.49
527.894	19.53
528.092	19.7
528.291	19.65
528.489	19.7
528.688	19.7
528.886	19.75
529.084	19.99
529.283	19.9
529.481	19.9
529.679	20.02
529.877	20.17
530.076	20.42
530.274	20.51
530.472	20.48
530.67	20.58
530.869	20.72
531.067	20.5
531.265	20.51
531.463	20.73
531.661	20.89
531.859	20.99
532.057	20.89
532.255	20.8
532.454	20.79
532.652	21.03
532.85	21.03
533.048	21.07
533.246	21.37
533.444	21.42
533.642	21.58
533.84	21.88
534.038	21.95
534.236	22.02
534.434	22.01
534.632	22.25
534.83	22.43
535.027	22.57
535.225	22.77
535.423	22.8
535.621	22.97
535.819	22.82
536.017	22.56
536.215	22.51
536.412	22.67
536.61	22.7
536.808	22.78
537.006	22.73
537.203	22.64
537.401	22.52
537.599	22.59
537.797	22.33
537.994	22.58
538.192	22.65
538.39	22.65
538.587	22.77
538.785	22.78
538.983	22.63
539.18	22.94
539.378	23.15
539.575	23.2
539.773	23.04
539.97	23.22
540.168	23.19
540.366	23.38
540.563	23.38
540.761	23.44
540.958	23.48
541.155	23.64
541.353	23.44
541.55	23.45
541.748	23.42
541.945	23.65
542.143	23.59
542.34	23.74
542.537	23.76
542.735	24
542.932	24.02
543.129	24.24
543.327	24.08
543.524	24.2
543.721	24.06
543.919	24.2
544.116	24.23
544.313	24.72
544.51	24.68
544.708	24.86
544.905	24.76
545.102	24.85
545.299	24.85
545.496	25.09
545.693	25.27
545.891	25.31
546.088	25.09
546.285	24.67
546.482	24.55
546.679	24.43
546.876	24.17
547.073	24.11
547.27	23.95
547.467	23.94
547.664	24.11
547.861	23.95
548.058	24.36
548.255	25.07
548.452	25.38
548.649	25.29
548.846	25.55
549.043	25.65
549.24	26.06
549.437	26.06
549.633	26.23
549.83	25.76
550.027	25.73
550.224	25.93
550.421	25.44
550.618	25.7
550.814	25.64
551.011	25.69
551.208	25.62
551.405	25.77
551.601	25.8
551.798	25.41
551.995	25.44
552.191	25.71
552.388	25.59
552.585	26.09
552.781	26.23
552.978	26.09
553.175	25.84
553.371	25.7
553.568	25.62
553.764	25.79
553.961	26.16
554.157	26.36
554.354	26.03
554.55	25.76
554.747	25.66
554.943	25.8
555.14	26.37
555.336	26.51
555.533	26.36
555.729	26.37
555.926	26.26
556.122	26.15
556.318	26.26
556.515	26.86
556.711	27.35
556.907	27.11
557.104	27.1
557.3	26.93
557.496	27.01
557.693	27.32
557.889	27.11
558.085	27.18
558.281	27.39
558.478	27.72
558.674	27.49
558.87	27.04
559.066	26.85
559.262	26.72
559.459	26.48
559.655	26.35
559.851	26.34
560.047	26.57
560.243	26.51
560.439	26.23
560.635	26.26
560.831	26.38
561.027	26.68
561.223	26.99
561.419	26.96
561.615	27.52
561.811	27.45
562.007	27.56
562.203	27.58
562.399	27.85
562.595	28.11
562.791	28.06
562.987	27.91
563.183	27.95
563.379	27.5
563.575	27.7
563.771	27.28
563.966	27.61
564.162	27.87
564.358	28.04
564.554	27.73
564.75	27.64
564.945	27.57
565.141	28.05
565.337	27.97
565.533	28.47
565.728	28.25
565.924	28.64
566.12	28.63
566.315	28.2
566.511	27.93
566.707	28.42
566.902	28.74
567.098	28.99
567.293	28.82
567.489	29.15
567.684	29.19
567.88	29.4
568.076	28.86
568.271	28.91
568.467	29.25
568.662	28.88
568.858	29.03
569.053	29.17
569.248	28.77
569.444	28.67
569.639	28.39
569.835	28.25
570.03	28.01
570.225	28.4
570.421	28.48
570.616	28.36
570.812	29.02
571.007	28.94
571.202	28.96
571.397	29.19
571.593	28.98
571.788	29.12
571.983	29.32
572.178	29.9
572.374	29.41
572.569	29.24
572.764	29.67
572.959	29.39
573.154	29.25
573.35	29.68
573.545	29.71
573.74	29.99
573.935	29.83
574.13	29.74
574.325	29.42
574.52	29.48
574.715	29.82
574.91	29.81
575.105	30.06
575.3	30.28
575.495	29.68
575.69	29.57
575.885	29.08
576.08	29.37
576.275	29.65
576.47	30.25
576.665	30.57
576.86	30.46
577.055	30.18
577.25	30.14
577.444	30.3
577.639	29.84
577.834	30.19
578.029	30.74
578.224	30.52
578.418	30.13
578.613	29.57
578.808	29.6
579.003	29.54
579.197	29.83
579.392	29.98
579.587	30.04
579.781	30.75
579.976	30.69
580.171	30.87
580.365	31.11
580.56	31.06
580.755	31.16
580.949	31.16
581.144	31.3
581.338	31.19
581.533	30.93
581.727	30.75
581.922	30.71
582.116	30.64
582.311	30.67
582.505	30.69
582.7	30.62
582.894	30.95
583.089	31.11
583.283	30.53
583.478	30.45
583.672	30.71
583.866	30.53
584.061	30.36
584.255	30.01
584.449	29.67
584.644	29.9
584.838	30.37
585.032	30.13
585.226	29.86
585.421	30.5
585.615	31.03
585.809	30.65
586.003	30.75
586.198	31.01
586.392	31.43
586.586	31.74
586.78	31.67
586.974	31.55
587.168	31.61
587.363	32.29
587.557	31.9
587.751	31.53
587.945	32.18
588.139	32.48
588.333	32.4
588.527	32.32
588.721	32.27
588.915	31.84
589.109	31.71
589.303	31.72
589.497	31.44
589.691	32.03
589.885	32.01
590.079	31.67
590.273	31.6
590.466	31.59
590.66	31.59
590.854	31.36
591.048	31.34
591.242	31.48
591.436	31.22
591.629	31.61
591.823	31.16
592.017	31.49
592.211	31.7
592.404	31.33
592.598	31.25
592.792	31.37
592.986	31.25
593.179	31.7
593.373	31.86
593.567	31.98
593.76	31.57
593.954	32.18
594.147	32.13
594.341	32.08
594.535	32.09
594.728	32.01
594.922	31.92
595.115	32.09
595.309	32.03
595.502	31.96
595.696	32.14
595.889	32.23
596.083	32.26
596.276	32.13
596.47	32.37
596.663	32.68
596.856	32.99
597.05	32.98
597.243	33.02
597.437	33.36
597.63	33.46
597.823	33.3
598.017	33.25
598.21	32.74
598.403	32.91
598.596	32.51
598.79	33.16
598.983	32.9
599.176	32.67
599.369	32.59
599.563	31.97
599.756	31.83
599.949	32.06
600.142	32.35
600.335	32.9
600.528	32.53
600.722	32.65
600.915	32.08
601.108	32.3
601.301	32.28
601.494	32.49
601.687	32.83
601.88	33.36
602.073	32.65
602.266	32.88
602.459	32.67
602.652	32.48
602.845	32.57
603.038	32.48
603.231	32.4
603.424	32.86
603.617	32.69
603.809	32.61
604.002	32.44
604.195	32.68
604.388	32.34
604.581	32.7
604.774	33.07
604.966	33.4
605.159	33.14
605.352	33.08
605.545	33
605.737	33.21
605.93	33.4
606.123	32.8
606.316	33.29
606.508	33.1
606.701	32.15
606.894	31.86
607.086	31.16
607.279	31.59
607.471	31.57
607.664	31.34
607.857	31.62
608.049	31.62
608.242	31.88
608.434	31.74
608.627	32.1
608.819	32.49
609.012	32.83
609.204	32.92
609.397	33.2
609.589	33.55
609.782	33.65
609.974	33.4
610.166	33.53
610.359	33.85
610.551	34.06
610.743	33.94
610.936	33.59
611.128	33.92
611.32	34.4
611.513	34.04
611.705	34.35
611.897	35.2
612.09	35.34
612.282	35.08
612.474	34.96
612.666	35.05
612.858	35.35
613.051	36.15
613.243	35.48
613.435	35.62
613.627	35.56
613.819	34.82
614.011	33.52
614.203	33.45
614.395	33.74
614.588	33.96
614.78	34.24
614.972	34.42
615.164	34.32
615.356	34.96
615.548	34.42
615.74	34.39
615.932	34.53
616.124	35.85
616.315	36.46
616.507	36.28
616.699	36
616.891	35.67
617.083	35.4
617.275	35.59
617.467	35.36
617.659	34.95
617.85	35.28
618.042	36.26
618.234	35.17
618.426	34.5
618.618	33.97
618.809	34.28
619.001	34.18
619.193	34.31
619.384	34.4
619.576	35.15
619.768	35.86
619.959	35.87
620.151	35.21
620.343	35.41
620.534	36.09
620.726	36.93
620.917	36.54
621.109	36.62
621.301	36.48
621.492	36.23
621.684	35.51
621.875	35.04
622.067	34.44
622.258	35.06
622.45	35.78
622.641	35.23
622.832	34.91
623.024	34.66
623.215	34.78
623.407	34.4
623.598	34.53
623.789	34.57
623.981	35.33
624.172	35.97
624.363	35.63
624.555	35.12
624.746	34.96
624.937	35.34
625.129	35.84
625.32	35.41
625.511	35.78
625.702	35.63
625.893	35.92
626.085	35.35
626.276	35.24
626.467	34.8
626.658	34.7
626.849	35.29
627.04	35.55
627.231	35.47
627.422	35.82
627.614	35.38
627.805	35.18
627.996	35.35
628.187	35.68
628.378	36.01
628.569	36.29
628.76	36.89
628.951	36.17
629.142	36.09
629.332	35.35
629.523	35.47
629.714	35.9
629.905	36.59
630.096	36.53
630.287	36.36
630.478	35.62
630.669	35.55
630.859	35.33
631.05	35.98
631.241	34.47
631.432	35.15
631.623	34.84
631.813	34.72
632.004	34.72
632.195	33.98
632.385	34.33
632.576	34.74
632.767	34.66
632.957	35.28
633.148	34.7
633.339	34.97
633.529	35.45
633.72	35.77
633.91	35.39
634.101	35.09
634.292	35.7
634.482	35.24
634.673	35.27
634.863	35.1
635.054	34.05
635.244	35.09
635.435	36.17
635.625	35.73
635.815	36.09
636.006	36.52
636.196	36.7
636.387	37.2
636.577	37.76
636.767	37.9
636.958	37.76
637.148	38.07
637.338	38.14
637.529	37.9
637.719	38
637.909	38.08
638.099	38.42
638.29	38.03
638.48	37.3
638.67	36.5
638.86	35.91
639.05	36.39
639.241	36.69
639.431	36.31
639.621	36.22
639.811	35.95
640.001	35.51
640.191	35.3
640.381	34.87
640.571	35.92
640.761	36.94
640.951	37.84
641.141	37.61
641.331	37.64
641.521	37.58
641.711	37.61
641.901	38.13
642.091	38.52
642.281	37.61
642.471	38.64
642.661	37.67
642.851	37.04
643.041	35.93
643.231	36.51
643.42	36.16
643.61	36.16
643.8	35.79
643.99	35.11
644.18	34.55
644.369	35.63
644.559	34.74
644.749	33.78
644.939	33.5
645.128	34.49
645.318	34.26
645.508	34.41
645.697	34.95
645.887	35.74
646.076	36.4
646.266	37.25
646.456	37.02
646.645	37.74
646.835	39.13
647.024	39.41
647.214	38.81
647.403	38.41
647.593	37.66
647.782	37.13
647.972	36.63
648.161	36.85
648.351	35.87
648.54	35.88
648.73	35.73
648.919	35.08
649.108	34.76
649.298	35.68
649.487	36.38
649.677	37.48
649.866	37.63
650.055	37.52
650.244	37.59
650.434	37.92
650.623	37.93
650.812	37.77
651.002	38.36
651.191	38.5
651.38	38.58
651.569	38.33
651.758	38.34
651.947	37.85
652.137	37.24
652.326	36.83
652.515	37.36
652.704	37.34
652.893	36.94
653.082	36.56
653.271	36.58
653.46	35.65
653.649	36.11
653.838	35.79
654.027	36.51
654.216	38.02
654.405	38.36
654.594	38.45
654.783	38.7
654.972	38.78
655.161	38.29
655.35	38
655.539	38.38
655.728	37.54
655.916	37.44
656.105	37.26
656.294	37
656.483	36.51
656.672	36.17
656.86	35.94
657.049	36
657.238	36.57
657.427	37.44
657.615	37.49
657.804	38.31
657.993	38.11
658.181	38.26
658.37	38.34
658.559	38.3
658.747	37.7
658.936	38.26
659.125	37.35
659.313	36.77
659.502	36.54
659.69	36.3
659.879	36.5
660.067	36.02
660.256	35.29
660.444	34.8
660.633	34.28
660.821	34.75
661.01	34.24
661.198	35.45
661.387	36.02
661.575	36.43
661.763	37.2
661.952	36.27
662.14	36.8
662.328	37.78
662.517	38.85
662.705	39.82
662.893	40.12
663.082	40.41
663.27	40.47
663.458	40.11
663.646	39.29
663.834	37.47
664.023	37.79
664.211	37.7
664.399	37.59
664.587	36.81
664.775	36.32
664.963	35.41
665.152	35.27
665.34	35.58
665.528	36.05
665.716	36.73
665.904	38.95
666.092	38.6
666.28	39.82
666.468	38.51
666.656	38.48
666.844	39.58
667.032	39.81
667.22	39.89
667.408	39.38
667.596	39.51
667.784	39.75
667.971	39.69
668.159	39.45
668.347	39.18
668.535	39.74
668.723	39.51
668.911	38.67
669.098	38.44
669.286	37.54
669.474	38.24
669.662	38.18
669.849	37.51
670.037	36.81
670.225	37.09
670.413	36.73
670.6	36.3
670.788	36.84
670.976	37.24
671.163	37.68
671.351	38.08
671.538	38.18
671.726	38.02
671.913	38.01
672.101	37.9
672.289	38.48
672.476	38.33
672.664	38.95
672.851	38.95
673.039	39.9
673.226	40.49
673.413	40.52
673.601	40.02
673.788	39.99
673.976	40.57
674.163	41.06
674.35	40.12
674.538	41.02
674.725	40.91
674.912	39.51
675.1	38.34
675.287	37.3
675.474	36.8
675.662	36.85
675.849	36.85
676.036	36.3
676.223	36.23
676.411	37.11
676.598	36.38
676.785	37.26
676.972	39.03
677.159	39.47
677.346	39.47
677.533	40.07
677.721	39.76
677.908	39.89
678.095	39.27
678.282	38.82
678.469	37.76
678.656	37.64
678.843	37.14
679.03	36.51
679.217	37.34
679.404	37.53
679.591	37.71
679.778	38.15
679.964	38.51
680.151	38.88
680.338	38.67
680.525	39.16
680.712	39.03
680.899	39.05
681.086	39.31
681.272	38.59
681.459	39.02
681.646	38.78
681.833	38.98
682.02	38.75
682.206	39.09
682.393	39.56
682.58	39.54
682.766	42.22
682.953	42.3
683.14	42.94
683.326	42.68
683.513	43.19
683.7	44.29
683.886	44.94
684.073	44.43
684.259	45.13
684.446	44.89
684.632	45.19
684.819	41.89
685.005	42.19
685.192	40.82
685.378	40.89
685.565	40.54
685.751	39.76
685.938	39.77
686.124	39.34
686.31	38.39
686.497	38.06
686.683	38.52
686.87	39.6
687.056	39.83
687.242	39.86
687.429	39.75
687.615	39.75
687.801	40.94
687.987	38.86
688.174	39.31
688.36	39.57
688.546	40
688.732	39.8
688.918	38.24
689.105	37.59
689.291	39.44
689.477	39.29
689.663	38.43
689.849	37.38
690.035	39.27
690.221	39.56
690.407	39.97
690.593	40.04
690.779	39.83
690.965	41.7
691.151	41.5
691.337	41.04
691.523	41.25
691.709	41.51
691.895	42.41
692.081	42.05
692.267	42.55
692.453	42.6
692.639	42.47
692.825	41.96
693.011	40.76
693.196	42.54
693.382	41.1
693.568	41.37
693.754	43.35
693.94	42.77
694.125	41.64
694.311	41.64
694.497	40.53
694.682	41.51
694.868	42.41
695.054	43.08
695.239	42.82
695.425	43.41
695.611	42.75
695.796	40.84
695.982	39.95
696.168	40.88
696.353	40.63
696.539	41.01
696.724	40.31
696.91	39.85
697.095	40.29
697.281	39.65
697.466	39.22
697.652	38.67
697.837	38.85
698.023	39.74
698.208	39.74
698.393	39.86
698.579	40.12
698.764	40.02
698.949	39.24
699.135	39.32
699.32	38.77
699.505	38.88
699.691	40.19
699.876	39.87
700.061	39.61
700.246	39.6
700.432	39.07
700.617	38.77
700.802	37.66
700.987	39.2
701.172	38.86
701.358	39.67
701.543	40.83
701.728	40.57
701.913	41.35
702.098	41.47
702.283	40.92
702.468	40.97
702.653	40.55
702.838	42.25
703.023	41.68
703.208	41.45
703.393	42.4
703.578	42.29
703.763	42.24
703.948	42.16
704.133	41.59
704.318	42.6
704.503	42.72
704.688	41.91
704.873	41.09
705.057	41.45
705.242	41.1
705.427	39.66
705.612	38.88
705.797	37.43
705.981	38.84
706.166	38.91
706.351	39.81
706.536	39.95
706.72	41.46
706.905	42.16
707.09	42.95
707.274	41.7
707.459	41.37
707.644	41.76
707.828	41.98
708.013	41.65
708.197	40.31
708.382	38.61
708.567	38.86
708.751	39.89
708.936	39.26
709.12	38.45
709.305	40.07
709.489	39.69
709.673	38.36
709.858	39.08
710.042	38.28
710.227	39.86
710.411	40.61
710.596	40.71
710.78	39.59
710.964	40.83
711.149	40.79
711.333	40.67
711.517	40.96
711.702	41.7
711.886	41.91
712.07	41.99
712.254	42.62
712.438	41.75
712.623	41.92
712.807	41.62
712.991	41.97
713.175	41.47
713.359	40.51
713.544	40.4
713.728	41.32
713.912	41.99
714.096	42.55
714.28	40.55
714.464	40.52
714.648	40.17
714.832	41.61
715.016	41.56
715.2	42.64
715.384	43.4
715.568	43.58
715.752	42.7
715.936	41.45
716.12	40.67
716.304	41.2
716.488	41.86
716.671	43.11
716.855	42.1
717.039	40.29
717.223	40.4
717.407	41.83
717.59	40.97
717.774	42.22
717.958	43.89
718.142	45.03
718.325	47.25
718.509	46.49
718.693	46.16
718.877	45.44
719.06	47.29
719.244	46.79
719.428	46.96
719.611	48.55
719.795	47.16
719.978	47.36
720.162	47.73
720.345	46.49
720.529	47.35
720.713	46.26
720.896	46.83
721.08	46.79
721.263	45.99
721.446	44.46
721.63	44.77
721.813	45.63
721.997	45.11
722.18	44.78
722.364	46.43
722.547	47.09
722.73	47.63
722.914	46.21
723.097	44.37
723.28	45.8
723.464	47.45
723.647	47.31
723.83	47.72
724.013	49.47
724.197	48.34
724.38	47.21
724.563	46.41
724.746	46.32
724.929	47.35
725.112	48.16
725.296	45.65
725.479	43.47
725.662	43.88
725.845	42.31
726.028	40.71
726.211	39.5
726.394	40.26
726.577	38.69
726.76	37.47
726.943	37.77
727.126	37.49
727.309	38.83
727.492	38.65
727.675	37.95
727.858	38.32
728.041	37.7
728.224	38.1
728.407	35.43
728.589	36.71
728.772	36.5
728.955	36.16
729.138	35.87
729.321	36.31
729.503	36.97
729.686	37.72
729.869	37.63
730.052	38.18
730.234	38.55
730.417	39.34
730.6	40.62
730.782	41.45
730.965	42.28
731.148	42.99
731.33	42.64
731.513	43.25
731.695	42.62
731.878	42.67
732.061	42.89
732.243	43.39
732.426	43.65
732.608	42.04
732.791	42.89
732.973	42.01
733.156	42.33
733.338	42.22
733.52	41.43
733.703	41.62
733.885	42.95
734.068	41.18
734.25	41.27
734.432	44.14
734.615	44.9
734.797	46.65
734.979	49.67
735.162	49.84
735.344	50.1
735.526	50.36
735.708	49.15
735.891	47.43
736.073	47.6
736.255	47.35
736.437	42.9
736.619	41.35
736.802	39
736.984	35.9
737.166	34.68
737.348	33.96
737.53	34.85
737.712	34.6
737.894	36.02
738.076	36.52
738.258	37.71
738.44	38.09
738.622	38.31
738.804	39.48
738.986	39.47
739.168	41.31
739.35	41.91
739.532	43.4
739.714	45.95
739.896	46.84
740.078	46.05
740.259	44.03
740.441	44.13
740.623	46.37
740.805	45.4
740.987	47.9
741.168	46.62
741.35	46.51
741.532	42.34
741.714	41.62
741.895	38.99
742.077	40.2
742.259	43.43
742.44	44.98
742.622	43.38
742.804	42.75
742.985	41.36
743.167	41.61
743.348	39.47
743.53	42.44
743.711	42.45
743.893	41.11
744.075	41.7
744.256	39.02
744.438	39.26
744.619	39.97
744.8	39.59
744.982	38.51
745.163	37.86
745.345	39.93
745.526	39.45
745.707	40.25
745.889	43.42
746.07	44.54
746.252	43.75
746.433	44.07
746.614	43.7
746.795	44.25
746.977	47.33
747.158	48.26
747.339	48.2
747.52	47.15
747.702	46.02
747.883	44.57
748.064	43.62
748.245	45.51
748.426	45.97
748.607	46.09
748.788	47.81
748.97	46.13
749.151	47.37
749.332	49.76
749.513	49.37
749.694	50.95
749.875	48.94
750.056	49.18
750.237	49.59
750.418	47.55
750.599	47.29
750.78	44.24
750.96	43.19
751.141	42.12
751.322	39.4
751.503	40.09
751.684	39.29
751.865	41.44
752.046	42.75
752.226	39.77
752.407	39.25
752.588	41.13
752.769	42.48
752.949	43.1
753.13	40.71
753.311	41.21
753.492	41.43
753.672	39.79
753.853	40.05
754.034	37.96
754.214	37.89
754.395	37.99
754.575	36.53
754.756	35.51
754.937	37.03
755.117	38.75
755.298	40.36
755.478	40.09
755.659	41.37
755.839	42.44
756.02	42.31
756.2	44.1
756.381	45.67
756.561	46.59
756.741	47.97
756.922	44.4
757.102	43.15
757.283	39.57
757.463	40.52
757.643	40.3
757.823	40.35
758.004	38.9
758.184	38.52
758.364	38.52
758.545	38.15
758.725	38.27
758.905	40.24
759.085	41.13
759.265	42.35
759.446	43.03
759.626	42.86
759.806	41.81
759.986	44.38
760.166	43.97
760.346	44.37
760.526	43.04
760.706	43.03
760.886	42.96
761.066	44.42
761.246	43.96
761.426	43.07
761.606	42.71
761.786	41.17
761.966	40.18
762.146	39.26
762.326	39
762.506	39.34
762.686	39.54
762.866	38.75
763.046	37.2
763.225	37.57
763.405	37.13
763.585	36.7
763.765	39.06
763.945	38.44
764.124	39.42
764.304	39.09
764.484	39.96
764.664	39.42
764.843	40.89
765.023	42.58
765.203	42.93
765.382	42.35
765.562	44.17
765.741	43.24
765.921	43.67
766.101	44.71
766.28	46.84
766.46	46.02
766.639	45.38
766.819	47.01
766.998	44.8
767.178	44.67
767.357	46
767.537	44.7
767.716	45.06
767.896	45.47
768.075	46.48
768.254	45.83
768.434	47.84
768.613	50
768.792	46.5
768.972	47.28
769.151	49
769.33	49.62
769.51	49.34
769.689	48.62
769.868	48.5
770.047	47.58
770.226	46.47
770.406	43.53
770.585	40.4
770.764	40.93
770.943	40.33
771.122	40.76
771.301	41.46
771.48	42.36
771.66	42.64
771.839	41.87
772.018	41.63
772.197	40.55
772.376	42.38
772.555	46.31
772.734	45.75
772.913	47.4
773.092	44.01
773.271	43.26
773.449	44.93
773.628	44.1
773.807	48.7
773.986	47.89
774.165	49.95
774.344	49.62
774.523	46.15
774.701	47.12
774.88	47.38
775.059	44.42
775.238	44.29
775.417	44.01
775.595	44.83
775.774	41.52
775.953	41.31
776.131	39.16
776.31	41.01
776.489	41.54
776.667	44.09
776.846	45.14
777.025	51.51
777.203	52.16
777.382	51.15
777.56	51.48
777.739	48.88
777.917	47.69
778.096	47.08
778.274	44.04
778.453	45.56
778.631	45.15
778.81	44.52
778.988	42.68
779.166	44.03
779.345	44.64
779.523	45.13
779.702	47.98
779.88	50.25
780.058	49.72
780.237	51.95
780.415	51.66
780.593	48.73
780.771	49.1
780.95	46.25
781.128	45.47
781.306	44.9
781.484	45.05
781.662	45.56
781.841	43.54
782.019	45.53
782.197	47.49
782.375	48.53
782.553	53.1
782.731	52.91
782.909	53.88
783.087	51.46
783.265	48.89
783.443	47.48
783.621	48
783.799	50.6
783.977	51.54
784.155	47.79
784.333	46.95
784.511	43.73
784.689	41.15
784.867	43.47
785.045	42.83
785.223	42.13
785.4	44.71
785.578	44.96
785.756	47.22
785.934	46.37
786.112	48.05
786.289	48.8
786.467	46.45
786.645	48.28
786.823	47.83
787	48.1
787.178	50.48
787.356	50.78
787.533	49.38
787.711	47.39
787.889	46.44
788.066	44.36
788.244	41.92
788.421	43.42
788.599	43.15
788.776	41.77
788.954	41.51
789.131	41.15
789.309	39.15
789.486	37.57
789.664	37.4
789.841	38.22
790.019	41.11
790.196	44.3
790.373	43.73
790.551	41.93
790.728	45.03
790.906	47.08
791.083	47.7
791.26	47.62
791.437	48.09
791.615	48.52
791.792	48.6
791.969	45.6
792.146	44.68
792.324	43.12
792.501	44.86
792.678	45.58
792.855	40.73
793.032	37.75
793.209	39.28
793.387	42.49
793.564	40.11
793.741	40.42
793.918	39.47
794.095	41.77
794.272	44.1
794.449	44.89
794.626	41.18
794.803	42.46
794.98	45.05
795.157	43.66
795.334	41.22
795.511	42.51
795.688	38.03
795.864	41.65
796.041	37.63
796.218	34.64
796.395	33.67
796.572	36.98
796.749	41.89
796.925	43.87
797.102	41.16
797.279	43.6
797.456	41.54
797.632	44.85
797.809	42.01
797.986	39.93
798.162	43.71
798.339	48.41
798.516	44.78
798.692	40.68
798.869	40.45
799.046	42.07
799.222	42.06
799.399	41.91
799.575	41.76
799.752	42.06
799.928	46.08
800.105	46.7
800.281	40.53
800.458	45.33
800.634	45.3
800.811	43.63
800.987	43.09
801.163	39.46
801.34	44.19
801.516	40.82
801.692	43.98
801.869	41.09
802.045	39.17
802.221	41.66
802.398	41.62
802.574	45.73
802.75	45.75
802.926	47.77
803.103	52.65
803.279	53.7
803.455	59.02
803.631	54.92
803.807	56.52
803.983	54.6
804.16	54.93
804.336	49.83
804.512	46.86
804.688	48.3
804.864	48.23
805.04	45.55
805.216	40.41
805.392	38.86
805.568	40.57
805.744	43.22
805.92	44.69
806.096	42.49
806.272	49.21
806.448	50.27
806.623	43.58
806.799	45.85
806.975	45.12
807.151	52.07
807.327	48.9
807.503	49.38
807.678	46.85
807.854	53.26
808.03	55.34
808.206	48.87
808.381	51.74
808.557	57.73
808.733	56.36
808.908	56.96
809.084	52.39
809.26	57.47
809.435	58.76
809.611	61.37
809.787	53.8
809.962	52.67
810.138	57.83
810.313	52.64
810.489	51.35
810.664	47.74
810.84	49.95
811.015	53.44
811.191	53.32
811.366	50.68
811.542	49.53
811.717	47.68
811.892	47.83
812.068	39.96
812.243	43.65
812.419	50.49
812.594	52.6
812.769	53.98
812.944	48.79
813.12	42.52
813.295	43.38
813.47	48.39
813.645	53.25
813.821	50.92
813.996	52.74
814.171	50.37
814.346	39.35
814.521	38.53
814.697	37.53
814.872	40.23
815.047	41.69
815.222	38.43
815.397	35.9
815.572	35.32
815.747	38.63
815.922	44.49
816.097	41.05
816.272	44.63
816.447	47.11
816.622	49.31
816.797	49.18
816.972	53.19
817.147	57.94
817.322	56.03
817.496	53.31
817.671	57.3
817.846	55.81
818.021	58.76
818.196	58.94
818.371	55.84
818.545	52.49
818.72	53.25
818.895	50.33
819.069	48.31
819.244	48.29
819.419	45.22
819.594	40.88
819.768	37.75
819.943	37.98
820.117	37.87
820.292	37.06
820.467	35.88
820.641	35.46
820.816	33.56
820.99	32.69
821.165	31.35
821.339	32.03
821.514	31.32
821.688	31.61
821.863	30.79
822.037	30.39
822.212	29.46
822.386	29.22
822.56	28.09
822.735	29.72
822.909	30.71
823.084	30.42
823.258	29.95
823.432	30.54
823.606	29.78
823.781	30.35
823.955	30
824.129	30.24
824.303	29.56
824.478	29.91
824.652	28.89
824.826	27.6
825	29.25
825.174	29.97
825.348	29.6
825.523	29.21
825.697	27.11
825.871	28.26
826.045	28.46
826.219	29.92
826.393	29.81
826.567	30.12
826.741	29.61
826.915	30.14
827.089	30.05
827.263	28.69
827.437	30.65
827.611	31.84
827.784	30.24
827.958	31.87
828.132	30.07
828.306	32.09
828.48	33.15
828.654	32.87
828.827	31.4
829.001	32.29
829.175	33.18
829.349	34.2
829.522	33.52
829.696	34.34
829.87	32.9
830.044	35.92
830.217	34.09
830.391	33.23
830.565	36.77
830.738	37.13
830.912	36.49
831.085	37.31
831.259	36.84
831.432	37.97
831.606	37.05
831.779	38.66
831.953	39.19
832.126	37.85
832.3	36.93
832.473	37.13
832.647	36.66
832.82	36.27
832.994	35.98
833.167	35.47
833.34	35.12
833.514	33.48
833.687	31.94
833.86	31.12
834.034	30.34
834.207	29.38
834.38	27.57
834.553	27.44
834.727	27.65
834.9	32.22
835.073	31.1
835.246	32.66
835.419	37.19
835.593	34.93
835.766	35.18
835.939	39.5
836.112	40.51
836.285	39.94
836.458	39.9
836.631	40.4
836.804	35.28
836.977	36.06
837.15	34.08
837.323	35.25
837.496	44.45
837.669	51.74
837.842	46.78
838.015	51.82
838.188	52.96
838.361	55.14
838.533	57.49
838.706	57.24
838.879	58.14
839.052	57.07
839.225	53.72
839.398	56.02
839.57	54.62
839.743	57.16
839.916	57.16
840.088	57.9
840.261	52.63
840.434	46.05
840.607	46.52
840.779	40.67
840.952	43.02
841.124	47.48
841.297	44.27
841.47	38.09
841.642	38.24
841.815	37.01
841.987	37.86
842.16	47.31
842.332	50.68
842.505	51.37
842.677	50.14
842.85	52.41
843.022	48.52
843.194	54.93
843.367	57.71
843.539	53.56
843.712	48.81
843.884	52.54
844.056	48.6
844.229	47.96
844.401	40.29
844.573	44.96
844.745	44.47
844.918	47.28
845.09	31.46
845.262	23.07
845.434	34.13
845.606	36.15
845.779	23.29
845.951	13.11
846.123	22.33
846.295	22.79
846.467	32.47
846.639	23.54
846.811	14.13
846.983	36.84
847.155	34.88
847.327	40.26
847.499	37.46
847.671	60.17
847.843	74.57
848.015	71
848.187	72.59
848.359	64.22
848.531	78.89
848.703	73.55
848.875	66.61
849.047	61.65
849.218	56.36
849.39	50.48
849.562	47.47
849.734	42.06
849.905	50.69
850.077	36.2
850.249	35.01
850.421	18.47
850.592	16.24
850.764	34.63
850.936	35.9
851.107	27.14
851.279	33.44
851.451	32.63
851.622	34.59
851.794	39.99
851.965	55.58
852.137	57.71
852.308	61.83
852.48	64.13
852.651	65.75
852.823	83.43
852.994	96.67
853.166	97.11
853.337	117.57
853.509	125.64
853.68	113.7
853.851	99.25
854.023	100.74
854.194	105.24
854.365	113.63
854.537	105.87
854.708	97.99
854.879	94.78
855.05	107.21
855.222	74.27
855.393	76.21
855.564	75.71
855.735	85.49
855.906	79.49
856.078	68.23
856.249	51.24
856.42	42.8
856.591	40.27
856.762	32.22
856.933	28.82
857.104	31.29
857.275	30.94
857.446	32.17
857.617	31.49
857.788	38.21
857.959	35.05
858.13	48.57
858.301	60.45
858.472	54.78
858.643	62.21
858.814	59.24
858.985	64.65
859.155	50.15
859.326	30.67
859.497	18.51
859.668	-15.66
859.839	-0
860.009	19.13
860.18	-9.96
860.351	12.64
860.522	-2.43
860.692	5.55
860.863	15.98
861.034	21.58
861.204	32.84
861.375	35.35
861.546	44.24
861.716	49.02
861.887	39.46
862.057	45.85
862.228	50.92
862.398	56.88
862.569	69.86
862.739	81.56
862.91	89.76
863.08	92.59
863.251	94.41
863.421	82.79
863.592	79.51
863.762	95.24
863.932	77.8
864.103	64.69
864.273	61.84
864.443	37.21
864.614	30.44
864.784	14.49
864.954	16.47
865.125	27.1
865.295	33.96
865.465	40.79
865.635	15.97
865.805	22.83
865.976	38.27
866.146	45.42
866.316	67.04
866.486	77.08
866.656	76.45
866.826	66.15
866.996	75.91
867.166	87.8
867.336	78.75
867.506	64.17
867.676	59.84
867.846	54.52
868.016	66.38
868.186	60.59
868.356	64.65
868.526	66.56
868.696	58.93
868.866	49.88
869.036	51.82
869.206	49.44
869.376	52.82
869.545	60.36
869.715	62.74
869.885	65.19
870.055	59.12
870.224	47.43
870.394	41.26
870.564	59.74
870.734	56.8
870.903	47.31
871.073	50.48
871.243	51.16
871.412	51.81
871.582	51.34
871.751	36.26
871.921	45.41
872.091	60.61
872.26	61.62
872.43	47.56
872.599	53.12
872.769	53.56
872.938	53.04
873.108	62.14
873.277	48.8
873.446	43.88
873.616	39.37
873.785	39.52
873.955	41.4
874.124	37.27
874.293	53.35
874.463	43.26
874.632	48.3
874.801	60.05
874.971	55.29
875.14	55.98
875.309	66.56
875.478	63.82
875.647	67.82
875.817	57.75
875.986	66.07
876.155	59.73
876.324	67.2
876.493	57.01
876.662	60.24
876.831	59.6
877	56.18
877.17	56.71
877.339	59.64
877.508	56.96
877.677	63.92
877.846	57.74
878.015	52.1
878.184	40.12
878.352	47.18
878.521	37.23
878.69	36.58
878.859	30.8
879.028	23.35
879.197	20.31
879.366	24.28
879.534	26.38
879.703	20.8
879.872	24.87
880.041	28.11
880.21	27.07
880.378	25.19
880.547	23.49
880.716	26.1
880.884	27.64
881.053	25.92
881.222	25.06
881.39	26.58
881.559	26.85
881.727	27.03
881.896	25.75
882.065	26.08
882.233	26.69
882.402	26.55
882.57	28.22
882.739	27.63
882.907	28.02
883.076	28.27
883.244	25.85
883.412	26.87
883.581	24.13
883.749	26.13
883.918	26.11
884.086	27.04
884.254	26.4
884.423	26.28
884.591	29.15
884.759	29.88
884.927	28.13
885.096	26.06
885.264	27.17
885.432	28.33
885.6	24.31
885.769	29.78
885.937	27.16
886.105	33.35
886.273	28.44
886.441	21.93
886.609	30.98
886.777	30.9
886.945	40.01
887.113	42.77
887.281	50.88
887.449	57.31
887.617	57.81
887.785	57.08
887.953	53.82
888.121	63.07
888.289	62.82
888.457	49.97
888.625	56.53
888.793	57.15
888.961	54.58
889.129	48.66
889.296	47.95
889.464	32.56
889.632	31.43
889.8	38.19
889.967	24.48
890.135	34.88
