Data from JASIL_3132_Reflection_1.txt Node
Date: Thu Nov 12 20:40:17 EST 2015
User: Geneva
Spectrometer: USB4E03002
Autoset integration time: false
Trigger mode: 4
Integration Time (sec): 1.000000E-1
Scans to average: 10
Electric dark correction enabled: true
Nonlinearity correction enabled: false
Boxcar width: 5
Stray light correction enabled: false
XAxis mode: Wavelengths
Stop averaging: false
Number of Pixels in Spectrum: 3648
>>>>>Begin Spectral Data<<<<<
177.575	259.62
177.794	408.83
178.014	628.26
178.233	180.24
178.452	182.42
178.672	2838.46
178.891	50.11
179.11	49.29
179.33	70.11
179.549	228.26
179.768	1165.13
179.987	-124.38
180.207	14376.92
180.426	-236.21
180.645	-135.08
180.864	-80.8
181.084	-28.08
181.303	26.18
181.522	44.21
181.741	43.72
181.96	29.05
182.179	45.93
182.398	27.22
182.618	21.25
182.837	26.84
183.056	48.8
183.275	261.35
183.494	7.2
183.713	46.76
183.932	72.23
184.151	126.42
184.37	169.43
184.589	154.78
184.808	306.66
185.027	524.44
185.246	463.41
185.465	-610.66
185.684	403.28
185.903	-130.4
186.122	-70.11
186.341	-100.31
186.56	-77.42
186.779	-50.67
186.998	-27.55
187.216	-43.55
187.435	-72.97
187.654	-84.64
187.873	-20223.08
188.092	-348.09
188.311	611.54
188.53	-1380.19
188.748	-286.44
188.967	-15.17
189.186	39.79
189.405	30.2
189.623	207.94
189.842	164.2
190.061	75.25
190.28	55.01
190.498	56.56
190.717	41.77
190.936	55.63
191.154	62.82
191.373	-6.66
191.592	-4.22
191.81	39.68
192.029	67.67
192.248	4.58
192.466	-9.31
192.685	-2788.46
192.904	-530.77
193.122	48.74
193.341	43.51
193.559	90.91
193.778	47.54
193.996	86.7
194.215	141.06
194.433	202.48
194.652	307.28
194.87	281.06
195.089	386.14
195.307	232.58
195.526	289.1
195.744	627.79
195.963	-2943.89
196.181	995.52
196.399	619.04
196.618	318.03
196.836	146.97
197.055	45.28
197.273	45.44
197.491	24.65
197.71	39.17
197.928	36.88
198.146	23.08
198.365	31.07
198.583	27.62
198.801	20.65
199.019	24.68
199.238	24.55
199.456	43.36
199.674	46.74
199.892	75.65
200.111	76.02
200.329	79.75
200.547	94.46
200.765	81.39
200.983	66.96
201.202	58.32
201.42	65.48
201.638	52.09
201.856	8.65
202.074	-102.53
202.292	-1150.23
202.51	118.28
202.728	74.96
202.946	115.15
203.165	161.23
203.383	182.03
203.601	163.55
203.819	145.41
204.037	163.24
204.255	137.28
204.473	157.3
204.691	497.48
204.909	-104.54
205.127	-17.34
205.345	-33.14
205.562	66.74
205.78	594.08
205.998	147.12
206.216	391.58
206.434	-17.26
206.652	100.67
206.87	66.24
207.088	56.03
207.306	81.65
207.523	194.98
207.741	-326.37
207.959	364.04
208.177	-19753.85
208.395	6.53
208.612	-13.23
208.83	63.95
209.048	80.17
209.266	69.72
209.483	53.83
209.701	55.22
209.919	45.92
210.136	45.99
210.354	33.29
210.572	54.98
210.79	75.11
211.007	97.66
211.225	89.81
211.442	109.52
211.66	350.72
211.878	-881.54
212.095	-229.17
212.313	-195.5
212.53	-245.46
212.748	-565.09
212.966	-451.45
213.183	-252.05
213.401	-113.61
213.618	-80.76
213.836	-74.75
214.053	-75.68
214.271	-55.93
214.488	86.83
214.705	93.47
214.923	-787.18
215.14	50.79
215.358	48.21
215.575	56.41
215.793	33.88
216.01	-4.25
216.227	81.6
216.445	108.49
216.662	73.5
216.879	73.95
217.097	89.19
217.314	148.08
217.531	197.23
217.749	92.21
217.966	75.88
218.183	131.9
218.4	748.08
218.618	-45.37
218.835	-12.44
219.052	13.89
219.269	22.04
219.487	25.54
219.704	-11.66
219.921	11.73
220.138	33.52
220.355	25
220.572	38.33
220.79	38.12
221.007	34.61
221.224	47.18
221.441	27.91
221.658	48.02
221.875	59.31
222.092	100.72
222.309	68.62
222.526	28.07
222.743	22.52
222.96	20.83
223.177	-2.53
223.394	16.24
223.611	14.63
223.828	-2953.85
224.045	99.79
224.262	-836.39
224.479	235.06
224.696	1926.63
224.913	-210.68
225.13	-188.9
225.347	-123.16
225.564	-398.61
225.781	-415.68
225.997	-143.33
226.214	-107.23
226.431	13.26
226.648	-2.47
226.865	-24.29
227.082	-29.11
227.298	-57.23
227.515	-57.49
227.732	-48.52
227.949	-15.35
228.165	-15.77
228.382	-25.38
228.599	-26.29
228.816	-22.47
229.032	-20.97
229.249	-9.51
229.466	-14.49
229.682	-10.76
229.899	-19.64
230.116	-26.22
230.332	-26.33
230.549	-39.18
230.765	-31.71
230.982	-45.7
231.199	-63.25
231.415	-52.83
231.632	-38.07
231.848	-31.87
232.065	-13.93
232.281	4.85
232.498	4.55
232.714	-9.91
232.931	17.93
233.147	16.55
233.364	19.81
233.58	21.42
233.797	0.78
234.013	10.67
234.23	6.49
234.446	9.18
234.662	-3.1
234.879	-14.86
235.095	-5.92
235.312	-22.97
235.528	-37.53
235.744	-16.06
235.961	-8.15
236.177	-6.61
236.393	-44.21
236.61	-37.06
236.826	-84.24
237.042	-21.7
237.258	-16.8
237.475	-32.67
237.691	-6.44
237.907	13.33
238.123	-7.17
238.339	2.89
238.556	8.53
238.772	23.01
238.988	33.76
239.204	49.22
239.42	32.22
239.636	29.03
239.853	23
240.069	7.96
240.285	13.63
240.501	9.29
240.717	-6.45
240.933	1.93
241.149	0.3
241.365	0.81
241.581	-1.86
241.797	-11.08
242.013	-4.23
242.229	-3.98
242.445	0.08
242.661	-6.68
242.877	3.7
243.093	10.73
243.309	5.45
243.525	6.46
243.741	8.46
243.957	5.94
244.173	12.69
244.388	11.64
244.604	13.33
244.82	10.9
245.036	11.26
245.252	2.44
245.468	0.61
245.683	-0.01
245.899	-0.22
246.115	-5.58
246.331	-3.16
246.547	-1.04
246.762	-1.06
246.978	-2.01
247.194	-5.89
247.409	-7.91
247.625	-2.43
247.841	-2.83
248.057	-1.52
248.272	-0.21
248.488	5.79
248.703	9.01
248.919	5.78
249.135	0.02
249.35	1.54
249.566	8.03
249.782	11.77
249.997	7.12
250.213	13.16
250.428	12.83
250.644	15.99
250.859	17.34
251.075	5.87
251.29	2.28
251.506	6.33
251.721	12.28
251.937	10.85
252.152	12.38
252.368	16.99
252.583	13.89
252.798	13.14
253.014	5.73
253.229	0.1
253.445	16.54
253.66	19.38
253.875	19.93
254.091	7.8
254.306	5.6
254.521	3.99
254.737	-2.24
254.952	-4.63
255.167	-3.65
255.383	-6.86
255.598	-3.99
255.813	-7.5
256.028	-8.18
256.244	-12.01
256.459	-6.34
256.674	-6.38
256.889	-6.62
257.104	-5.93
257.32	-7.01
257.535	-1.2
257.75	4.63
257.965	7.85
258.18	8.9
258.395	9.83
258.61	11.82
258.826	10.22
259.041	11.66
259.256	9.72
259.471	9.91
259.686	9.7
259.901	5.51
260.116	4
260.331	3.67
260.546	-0.62
260.761	-1.56
260.976	-4.56
261.191	-6.31
261.406	-11.02
261.621	-7.66
261.836	-9.84
262.05	-11.47
262.265	-7.03
262.48	-6.68
262.695	-16.44
262.91	-9.97
263.125	-10.66
263.34	-10.3
263.555	-2.91
263.769	-1.12
263.984	-2.06
264.199	-6.1
264.414	-0.79
264.629	0.23
264.843	0.51
265.058	2.42
265.273	0.44
265.488	4.87
265.702	5.15
265.917	4.14
266.132	7.95
266.346	7.11
266.561	8.16
266.776	8.4
266.99	9.68
267.205	10.09
267.42	8.05
267.634	4.86
267.849	-2.39
268.063	-1.56
268.278	-1.17
268.492	-1.01
268.707	-2.35
268.922	0.55
269.136	-3.44
269.351	-9.31
269.565	-9.83
269.78	-6.61
269.994	-6.06
270.209	-4.86
270.423	-6.09
270.637	-3.85
270.852	-8.23
271.066	-6.04
271.281	-4.85
271.495	-2.58
271.709	-0.37
271.924	-1.4
272.138	-1.79
272.353	1.53
272.567	2.33
272.781	5.32
272.996	2.29
273.21	2.67
273.424	1.17
273.638	2.96
273.853	2.62
274.067	1.13
274.281	2.63
274.495	6.31
274.71	1.98
274.924	5.01
275.138	3.29
275.352	3.5
275.566	3.95
275.781	5.27
275.995	0.06
276.209	-3.41
276.423	2.37
276.637	3.67
276.851	1.31
277.065	3.82
277.279	1.87
277.493	6.43
277.707	4.99
277.921	2.05
278.135	-0.5
278.349	2.33
278.563	5.75
278.777	3.28
278.991	-2.33
279.205	-7.44
279.419	-5.69
279.633	-5.39
279.847	-11.93
280.061	-11.53
280.275	-10.38
280.489	-4.24
280.703	-5.55
280.917	-7.24
281.131	-5.4
281.344	-0.44
281.558	2.13
281.772	-1.39
281.986	-2.4
282.2	-0.23
282.414	-0.54
282.627	4.34
282.841	2.05
283.055	3.22
283.269	4.22
283.482	2.72
283.696	2.88
283.91	2.06
284.123	1.8
284.337	4.07
284.551	3.34
284.764	4.22
284.978	1.86
285.192	-1.35
285.405	-2.3
285.619	-2.11
285.833	-0.45
286.046	-1.04
286.26	3.85
286.473	5.79
286.687	3.91
286.9	6.16
287.114	6.05
287.327	5.47
287.541	7.06
287.754	7.52
287.968	7.96
288.181	6.89
288.395	4.95
288.608	0.46
288.822	-0.01
289.035	2.59
289.248	1.42
289.462	2.52
289.675	0.68
289.889	0.88
290.102	2.34
290.315	4.5
290.529	3.3
290.742	4.92
290.955	6.22
291.169	5.6
291.382	4.21
291.595	-1.8
291.808	-0.87
292.022	5.24
292.235	8.71
292.448	4.45
292.661	0.93
292.875	0.3
293.088	-1.29
293.301	-3.98
293.514	-0.37
293.727	0.72
293.94	5.8
294.153	4.15
294.367	0.28
294.58	-0.9
294.793	1.97
295.006	3.54
295.219	5.21
295.432	5.29
295.645	7.81
295.858	6.87
296.071	6.41
296.284	4.56
296.497	4.15
296.71	4.85
296.923	5.35
297.136	4.35
297.349	4.01
297.562	3.01
297.775	4.13
297.988	3.2
298.201	0.06
298.414	-0.23
298.626	0.64
298.839	3.57
299.052	1.86
299.265	2.58
299.478	2.5
299.691	2.68
299.903	2.83
300.116	2.58
300.329	2.49
300.542	5.41
300.755	6.69
300.967	6.1
301.18	5.09
301.393	3.72
301.605	0.37
301.818	1.48
302.031	1.25
302.243	3.38
302.456	1.2
302.669	2.93
302.881	5.11
303.094	3.99
303.307	7.65
303.519	7.11
303.732	9.22
303.944	9.34
304.157	9.3
304.37	7.97
304.582	7.74
304.795	8.96
305.007	7.95
305.22	4.48
305.432	5.3
305.645	0.52
305.857	-1.7
306.069	0.91
306.282	0.87
306.494	0.86
306.707	3.25
306.919	-0.21
307.132	0.76
307.344	-2.43
307.556	-0.94
307.769	-0.39
307.981	1.7
308.193	3.55
308.406	3.23
308.618	3.7
308.83	6.82
309.043	5.57
309.255	8.87
309.467	7.26
309.679	10.43
309.892	6.95
310.104	6.87
310.316	7.47
310.528	7.25
310.74	7.37
310.953	6.74
311.165	4.16
311.377	4.07
311.589	3.16
311.801	5.05
312.013	7.22
312.225	11.74
312.437	10.41
312.649	11.92
312.862	11.94
313.074	12.18
313.286	14.41
313.498	14.15
313.71	14.93
313.922	15.89
314.134	15.53
314.346	12.39
314.558	9.84
314.77	11.58
314.982	12.29
315.193	10.48
315.405	8.81
315.617	8.39
315.829	12.69
316.041	10.36
316.253	7.11
316.465	5.69
316.677	6.24
316.888	7.58
317.1	5.49
317.312	2.65
317.524	3.66
317.736	5.79
317.947	6.71
318.159	2.73
318.371	3.25
318.583	2.19
318.794	3.13
319.006	2.93
319.218	4.15
319.43	6.62
319.641	8.3
319.853	10.28
320.064	10.88
320.276	8.69
320.488	9.58
320.699	11.35
320.911	13.35
321.123	12.74
321.334	10.75
321.546	7.52
321.757	7.81
321.969	4.95
322.18	4.93
322.392	2.36
322.603	3.16
322.815	1.53
323.026	2.53
323.238	4.54
323.449	6.38
323.661	7.76
323.872	10.67
324.083	9.05
324.295	11.07
324.506	10.68
324.718	12.95
324.929	11.44
325.14	11.83
325.352	11.31
325.563	9.37
325.774	9.15
325.986	10.63
326.197	10.09
326.408	11.15
326.62	9.22
326.831	8.08
327.042	9.18
327.253	12.28
327.464	11.42
327.676	11.26
327.887	11.76
328.098	13.01
328.309	11.43
328.52	12.38
328.732	10.96
328.943	12.83
329.154	12.82
329.365	11.04
329.576	9.03
329.787	9.52
329.998	11.17
330.209	12.76
330.42	11.62
330.631	10.1
330.842	9.28
331.053	9.36
331.264	7.38
331.475	9.63
331.686	9.1
331.897	9.05
332.108	10.1
332.319	6.88
332.53	7.46
332.741	6.3
332.952	10.44
333.163	10.14
333.374	11.55
333.585	13.19
333.795	10.41
334.006	10.86
334.217	12.27
334.428	13.68
334.639	14.86
334.849	12.73
335.06	12.5
335.271	9.05
335.482	6.7
335.692	5.05
335.903	5.66
336.114	8.36
336.325	6.13
336.535	6.78
336.746	4.7
336.957	4.98
337.167	4.15
337.378	8.1
337.589	9.21
337.799	10.06
338.01	10.96
338.22	9.96
338.431	9.05
338.642	10.12
338.852	7.26
339.063	9.85
339.273	11.35
339.484	15
339.694	11.28
339.905	12.06
340.115	14.14
340.326	14.7
340.536	16.34
340.746	17.27
340.957	17.57
341.167	18.11
341.378	18.5
341.588	18.14
341.799	17.32
342.009	18.07
342.219	18.25
342.43	15.31
342.64	14.47
342.85	13.19
343.061	12.8
343.271	13.2
343.481	13.98
343.691	11.7
343.902	11.13
344.112	9.8
344.322	10.45
344.532	9.6
344.743	11.17
344.953	12
345.163	11.92
345.373	10.69
345.583	12.09
345.793	12.81
346.004	12.91
346.214	12.85
346.424	13.7
346.634	13.75
346.844	14.81
347.054	14.8
347.264	13.69
347.474	12.5
347.684	13.07
347.894	12.25
348.104	10.41
348.314	11.39
348.524	10.71
348.734	9.85
348.944	10.85
349.154	10.19
349.364	10.95
349.574	10.7
349.784	13.53
349.994	13.48
350.204	12.72
350.413	13
350.623	16.65
350.833	18.06
351.043	17.67
351.253	17.57
351.463	18.51
351.672	17.65
351.882	18.47
352.092	16.21
352.302	16.81
352.511	17.1
352.721	19.22
352.931	15.72
353.141	15.25
353.35	17.11
353.56	14.45
353.77	14.18
353.979	16.2
354.189	15.73
354.399	14.85
354.608	13.73
354.818	13.92
355.027	12.71
355.237	11.41
355.447	11.92
355.656	10.13
355.866	11.61
356.075	11.48
356.285	9.91
356.494	9.6
356.704	10.71
356.913	10.77
357.123	11.43
357.332	10.82
357.542	11.65
357.751	11.43
357.96	11.94
358.17	11.47
358.379	10.61
358.589	11.14
358.798	11.77
359.007	11.45
359.217	11.47
359.426	10.75
359.635	11.84
359.845	10.9
360.054	10.31
360.263	10.84
360.472	10.97
360.682	11.87
360.891	11.35
361.1	10.68
361.309	11.33
361.519	11.22
361.728	10.49
361.937	9.75
362.146	10.55
362.355	10.99
362.564	10.9
362.774	10.78
362.983	9.54
363.192	9.62
363.401	10.28
363.61	9.73
363.819	12.44
364.028	12.71
364.237	14.18
364.446	13.79
364.655	12.62
364.864	13.22
365.073	12.19
365.282	12.04
365.491	11.6
365.7	12.4
365.909	12.44
366.118	9.83
366.327	10.54
366.536	8.82
366.745	8.16
366.954	9.48
367.162	7.39
367.371	8.61
367.58	9.12
367.789	8.71
367.998	7.75
368.207	9.67
368.415	11.38
368.624	12.41
368.833	13.38
369.042	14.67
369.25	15.6
369.459	15.86
369.668	16.99
369.877	16.47
370.085	16.7
370.294	16.59
370.503	16.73
370.711	16.08
370.92	14.74
371.129	13.64
371.337	13.17
371.546	12.48
371.754	11.61
371.963	9.3
372.171	9.11
372.38	10.04
372.589	10.88
372.797	8.95
373.006	8.19
373.214	9.07
373.423	8.83
373.631	8.75
373.84	8.08
374.048	10.06
374.256	9.77
374.465	11
374.673	10.84
374.882	9.06
375.09	9.94
375.298	9.36
375.507	8.81
375.715	9.97
375.923	9.54
376.132	9.14
376.34	8.88
376.548	10.33
376.757	9.43
376.965	9.2
377.173	10.14
377.381	10.17
377.59	10
377.798	10.73
378.006	10.44
378.214	11.97
378.423	11.54
378.631	11.93
378.839	12.91
379.047	13.52
379.255	13.34
379.463	13.18
379.671	12.49
379.879	13.39
380.088	11.91
380.296	9.98
380.504	8.79
380.712	9.32
380.92	7.77
381.128	8.11
381.336	9.28
381.544	9.68
381.752	9.58
381.96	10.6
382.168	10.68
382.376	11.59
382.584	12.84
382.791	13.05
382.999	13.15
383.207	13.75
383.415	12.88
383.623	11.61
383.831	11.9
384.039	12.58
384.247	11.93
384.454	11.49
384.662	11.1
384.87	12.52
385.078	10.99
385.285	10.63
385.493	10.94
385.701	10.73
385.909	11.03
386.116	11.34
386.324	11.3
386.532	12.09
386.739	12.61
386.947	12.58
387.155	12.7
387.362	14.57
387.57	14.96
387.778	16.15
387.985	15.36
388.193	16.27
388.4	13.74
388.608	12.38
388.816	12.56
389.023	11.69
389.231	11.22
389.438	10.34
389.646	10.94
389.853	11.31
390.061	11.21
390.268	11.76
390.475	11.32
390.683	14.09
390.89	15.07
391.098	13.98
391.305	14.31
391.512	14.65
391.72	14.09
391.927	13.44
392.135	12.81
392.342	11.89
392.549	11.85
392.756	12.18
392.964	11.77
393.171	11.6
393.378	11.64
393.586	11.72
393.793	12.24
394	11.93
394.207	12.05
394.414	12.1
394.622	12.79
394.829	12.74
395.036	11.09
395.243	10.64
395.45	10.6
395.657	10.96
395.864	11.27
396.072	10.68
396.279	11.38
396.486	11.93
396.693	12.17
396.9	11.45
397.107	11.95
397.314	12.39
397.521	12.37
397.728	12.71
397.935	12.96
398.142	12.57
398.349	12.77
398.556	13.05
398.763	12.14
398.97	13.21
399.177	13.57
399.383	12.76
399.59	11.81
399.797	10.63
400.004	10.48
400.211	10.52
400.418	10.39
400.625	10.26
400.831	9.82
401.038	10.6
401.245	9.95
401.452	9.38
401.658	9.77
401.865	12.33
402.072	14.08
402.279	14.66
402.485	14.06
402.692	15.04
402.899	15.24
403.105	15.36
403.312	14.48
403.519	14.56
403.725	13.98
403.932	14.19
404.138	13.84
404.345	12.98
404.552	12.12
404.758	13.21
404.965	11.79
405.171	11.32
405.378	11.25
405.584	11.63
405.791	11.66
405.997	12.77
406.204	12.87
406.41	12.14
406.617	11.85
406.823	12.16
407.029	10.83
407.236	12.04
407.442	12.36
407.649	12.86
407.855	12.51
408.061	11.73
408.268	11.79
408.474	12.06
408.68	12.44
408.887	12.71
409.093	13.45
409.299	13.99
409.505	12.84
409.712	12.32
409.918	12.27
410.124	12.41
410.33	12.77
410.537	13.2
410.743	13.16
410.949	13.48
411.155	13.59
411.361	11.44
411.567	12.56
411.773	13.16
411.98	13.78
412.186	14.02
412.392	14.3
412.598	15.21
412.804	14.01
413.01	13.92
413.216	13.22
413.422	14.09
413.628	15.36
413.834	14
414.04	14.54
414.246	14.73
414.452	14.93
414.658	15.1
414.864	14.63
415.07	15.28
415.275	14.82
415.481	14.37
415.687	13.53
415.893	13.23
416.099	13.07
416.305	12.54
416.511	12.16
416.716	12.17
416.922	12.28
417.128	11.75
417.334	12.04
417.539	12.17
417.745	12.79
417.951	12.97
418.157	13.64
418.362	14.14
418.568	14.24
418.774	14.72
418.979	14.16
419.185	14.18
419.391	14.3
419.596	14.43
419.802	14.17
420.008	13.67
420.213	13.47
420.419	12.84
420.624	12.88
420.83	12.57
421.035	12.56
421.241	12.04
421.446	12.27
421.652	12.19
421.857	11.48
422.063	11.69
422.268	11.99
422.474	11.9
422.679	12.31
422.885	11.42
423.09	11.76
423.295	11.33
423.501	12.06
423.706	11.56
423.911	11.89
424.117	12.33
424.322	12.46
424.527	12.62
424.733	12.64
424.938	12.85
425.143	13.47
425.349	13.66
425.554	14.36
425.759	13.81
425.964	13.96
426.169	14.23
426.375	14.11
426.58	13.66
426.785	13.42
426.99	13.34
427.195	12.77
427.4	12.66
427.605	12.44
427.811	11.56
428.016	11.84
428.221	11.74
428.426	11.07
428.631	11.04
428.836	11.52
429.041	11.33
429.246	11.43
429.451	11.51
429.656	11.92
429.861	12.3
430.066	12.43
430.271	12.86
430.476	12.65
430.681	13.22
430.886	13.59
431.09	13.39
431.295	13.28
431.5	13.81
431.705	14.25
431.91	13.92
432.115	13.63
432.32	14
432.524	13.69
432.729	13.88
432.934	13.73
433.139	13.61
433.343	13.6
433.548	13.55
433.753	13.29
433.958	12.81
434.162	12.88
434.367	12.82
434.572	12.97
434.776	13.59
434.981	13.61
435.186	13.32
435.39	12.86
435.595	12.93
435.799	13.68
436.004	13.89
436.209	14.46
436.413	13.86
436.618	13.98
436.822	13.7
437.027	13.43
437.231	13.05
437.436	12.5
437.64	13.01
437.845	13.04
438.049	12.71
438.253	12.88
438.458	12.41
438.662	12.57
438.867	12.4
439.071	12.46
439.275	12.43
439.48	12.3
439.684	12.61
439.888	12.19
440.093	11.77
440.297	11.54
440.501	11.39
440.706	11.55
440.91	12.03
441.114	12.22
441.318	12.4
441.523	12.86
441.727	13.16
441.931	12.95
442.135	13.05
442.339	13.35
442.543	13.39
442.748	13.15
442.952	12.58
443.156	12.45
443.36	12.19
443.564	11.76
443.768	10.74
443.972	10.87
444.176	11.41
444.38	11.38
444.584	11.63
444.788	11.46
444.992	11.59
445.196	12.18
445.4	12.42
445.604	12.8
445.808	12.48
446.012	12.73
446.216	12.7
446.42	12.43
446.624	12.75
446.828	12.42
447.032	12.55
447.235	12.54
447.439	12.03
447.643	11.58
447.847	11.3
448.051	11.3
448.254	10.92
448.458	10.51
448.662	10.9
448.866	10.46
449.069	11.12
449.273	11.41
449.477	11.09
449.681	11.13
449.884	11.46
450.088	11.07
450.292	10.78
450.495	11.37
450.699	11.82
450.902	12
451.106	11.81
451.31	11.05
451.513	10.72
451.717	10.72
451.92	10.76
452.124	10.31
452.327	10.77
452.531	11.36
452.734	11.08
452.938	11.19
453.141	10.97
453.345	11
453.548	11.11
453.752	12.39
453.955	12.62
454.158	12.89
454.362	12.83
454.565	12.96
454.769	12.93
454.972	13.08
455.175	13.17
455.379	12.82
455.582	13.34
455.785	13.36
455.988	12.15
456.192	12.12
456.395	11.85
456.598	11.7
456.801	10.89
457.005	10.68
457.208	11.25
457.411	10.25
457.614	9.79
457.817	9.36
458.021	9.63
458.224	9.72
458.427	9.85
458.63	9.94
458.833	10.3
459.036	10.37
459.239	10.73
459.442	10.37
459.645	11.01
459.848	11.64
460.051	11.9
460.254	11.63
460.457	11.62
460.66	11.34
460.863	11.55
461.066	11.86
461.269	12.53
461.472	12.13
461.675	12.3
461.878	12.41
462.081	12.23
462.284	12.19
462.486	12.77
462.689	12.59
462.892	12.99
463.095	12.78
463.298	12.7
463.5	12.29
463.703	12.97
463.906	12.96
464.109	12.24
464.311	12.96
464.514	12.59
464.717	12.39
464.92	12.98
465.122	13.05
465.325	13.02
465.528	12.41
465.73	12.84
465.933	12.17
466.135	11.11
466.338	11.6
466.541	10.8
466.743	10.87
466.946	11.06
467.148	10.7
467.351	10.5
467.553	10.79
467.756	11.22
467.958	10.21
468.161	10.61
468.363	11.91
468.566	11.83
468.768	11.49
468.971	11.48
469.173	11.22
469.375	11.83
469.578	11.76
469.78	11.6
469.983	11.63
470.185	12.36
470.387	11.93
470.59	11.23
470.792	11.52
470.994	11.64
471.196	11.84
471.399	12.21
471.601	11.85
471.803	12.53
472.005	12.58
472.208	12.53
472.41	12.26
472.612	12.88
472.814	13.44
473.016	13.25
473.218	13.72
473.421	14.05
473.623	14.04
473.825	13.7
474.027	13.31
474.229	13.1
474.431	12.87
474.633	13.01
474.835	12
475.037	11.88
475.239	12.31
475.441	11.82
475.643	11.71
475.845	11.14
476.047	10.94
476.249	11.15
476.451	11.07
476.653	11.13
476.855	11.24
477.057	12.12
477.258	12.63
477.46	11.9
477.662	12.25
477.864	12.37
478.066	12.83
478.268	13.39
478.469	13.07
478.671	13.37
478.873	13.82
479.075	13.65
479.276	13.59
479.478	13.14
479.68	13.52
479.882	13.41
480.083	13.25
480.285	12.77
480.487	12.77
480.688	12.48
480.89	12.51
481.091	12.31
481.293	12.5
481.495	12.32
481.696	11.99
481.898	11.92
482.099	12.02
482.301	11.86
482.502	12.04
482.704	11.81
482.905	11.96
483.107	11.85
483.308	11.8
483.51	11.71
483.711	11.6
483.913	11.77
484.114	11.62
484.315	11.6
484.517	11.8
484.718	11.63
484.92	11.89
485.121	11.84
485.322	11.88
485.524	11.89
485.725	11.99
485.926	12.17
486.127	12.04
486.329	12.12
486.53	12.03
486.731	11.7
486.932	11.85
487.134	11.64
487.335	11.63
487.536	11.7
487.737	11.59
487.938	11.33
488.139	11.27
488.341	11.21
488.542	11.32
488.743	11.32
488.944	11.63
489.145	11.7
489.346	11.69
489.547	11.67
489.748	11.8
489.949	11.77
490.15	12.09
490.351	12.27
490.552	12.3
490.753	12.26
490.954	12.32
491.155	12.19
491.356	11.92
491.557	11.93
491.758	11.95
491.959	11.74
492.159	12.03
492.36	12.05
492.561	12.06
492.762	12.05
492.963	11.99
493.164	11.82
493.364	11.57
493.565	11.73
493.766	12.26
493.967	12.5
494.167	12.8
494.368	12.74
494.569	12.7
494.769	12.49
494.97	12.78
495.171	13.09
495.371	13.69
495.572	13.54
495.773	13.54
495.973	12.73
496.174	12.51
496.375	12.47
496.575	11.93
496.776	11.41
496.976	11.01
497.177	10.63
497.377	10.3
497.578	9.73
497.778	10.22
497.979	10.6
498.179	10.95
498.38	11.21
498.58	10.71
498.78	11.07
498.981	11.43
499.181	11.93
499.382	12.16
499.582	12.4
499.782	12.93
499.983	12.7
500.183	12.36
500.383	12.29
500.584	11.79
500.784	12.18
500.984	12.09
501.184	12.35
501.385	12.32
501.585	12.11
501.785	11.87
501.985	11.78
502.185	12.11
502.386	12.85
502.586	12.8
502.786	13.13
502.986	13.21
503.186	13.12
503.386	13.01
503.586	13.12
503.786	13.38
503.987	13.67
504.187	12.91
504.387	12.75
504.587	11.61
504.787	12
504.987	11.83
505.187	11.79
505.387	11.79
505.587	11.79
505.786	11.88
505.986	12.06
506.186	11.88
506.386	12.48
506.586	12.61
506.786	12.97
506.986	12.94
507.186	13
507.386	13.13
507.585	13.17
507.785	12.88
507.985	12.79
508.185	12.95
508.384	13.14
508.584	13.1
508.784	13.02
508.984	13.27
509.183	13.23
509.383	13.36
509.583	13.46
509.782	13.77
509.982	14.33
510.182	14.27
510.381	14.22
510.581	14.05
510.781	14.12
510.98	13.96
511.18	13.94
511.379	13.76
511.579	14.31
511.778	14.23
511.978	14.18
512.177	13.99
512.377	14.12
512.576	13.96
512.776	14.35
512.975	14.61
513.175	14.44
513.374	14.61
513.573	14.59
513.773	14.06
513.972	14.11
514.172	13.85
514.371	13.5
514.57	13.43
514.77	13.28
514.969	12.8
515.168	12.33
515.367	12.62
515.567	12.36
515.766	12.46
515.965	12.61
516.164	12.13
516.364	12.21
516.563	12.77
516.762	13.14
516.961	13.7
517.16	13.95
517.359	14.11
517.559	14.12
517.758	14.08
517.957	14.12
518.156	13.9
518.355	14.36
518.554	14.73
518.753	14.42
518.952	14.13
519.151	13.65
519.35	13.3
519.549	13.17
519.748	13.28
519.947	13.29
520.146	13.38
520.345	13.42
520.544	13.13
520.743	12.52
520.942	12.72
521.141	12.81
521.339	13.03
521.538	13.43
521.737	13.57
521.936	13.76
522.135	13.85
522.333	13.84
522.532	13.7
522.731	13.48
522.93	13.8
523.129	13.66
523.327	13.89
523.526	13.78
523.725	14.01
523.923	14.1
524.122	14.02
524.321	14.21
524.519	14.39
524.718	14.51
524.917	14.95
525.115	15.01
525.314	15.27
525.512	15.11
525.711	15.36
525.909	15.37
526.108	15.42
526.306	15.4
526.505	15.62
526.703	15.52
526.902	15.59
527.1	15.68
527.299	15.68
527.497	15.74
527.696	15.87
527.894	15.73
528.092	15.65
528.291	15.53
528.489	15.42
528.688	15.22
528.886	14.98
529.084	15.12
529.283	15.17
529.481	15.11
529.679	15.04
529.877	14.81
530.076	14.77
530.274	14.84
530.472	15.01
530.67	15.13
530.869	15.13
531.067	15.7
531.265	15.8
531.463	15.6
531.661	15.77
531.859	15.83
532.057	16.25
532.255	16.34
532.454	15.99
532.652	16.17
532.85	16.41
533.048	16.43
533.246	16.61
533.444	16.38
533.642	16.43
533.84	16.46
534.038	16.37
534.236	16.18
534.434	16.35
534.632	16.8
534.83	16.77
535.027	16.95
535.225	16.84
535.423	16.66
535.621	16.66
535.819	16.63
536.017	16.65
536.215	16.66
536.412	16.69
536.61	16.71
536.808	16.52
537.006	16.23
537.203	15.89
537.401	16.15
537.599	16.24
537.797	16.47
537.994	16.54
538.192	16.72
538.39	16.74
538.587	16.48
538.785	16.54
538.983	17.1
539.18	17.12
539.378	17.41
539.575	17.49
539.773	17.66
539.97	17.84
540.168	18.04
540.366	17.98
540.563	17.99
540.761	18.15
540.958	18.13
541.155	18.13
541.353	18.51
541.55	18.56
541.748	18.71
541.945	18.72
542.143	18.6
542.34	18.6
542.537	18.87
542.735	19.14
542.932	19.36
543.129	19.57
543.327	19.39
543.524	19.49
543.721	19.28
543.919	19.19
544.116	19.25
544.313	19.44
544.51	19.44
544.708	19.23
544.905	19.31
545.102	19.39
545.299	19.16
545.496	19.33
545.693	19.33
545.891	19.97
546.088	20.08
546.285	20.19
546.482	20.51
546.679	20.63
546.876	20.7
547.073	20.72
547.27	21.02
547.467	21.4
547.664	21.83
547.861	21.44
548.058	21.57
548.255	22.4
548.452	22.48
548.649	22.22
548.846	22.31
549.043	22.79
549.24	22.78
549.437	22.3
549.633	21.95
549.83	21.26
550.027	21.28
550.224	21.21
550.421	20.41
550.618	20.29
550.814	20.4
551.011	20.91
551.208	20.4
551.405	20.97
551.601	21.42
551.798	21.59
551.995	22.31
552.191	23.36
552.388	23.43
552.585	23.55
552.781	24.11
552.978	23.82
553.175	23.77
553.371	24.19
553.568	23.68
553.764	23.49
553.961	23.7
554.157	23.45
554.354	22.86
554.55	22.61
554.747	22.54
554.943	21.66
555.14	22.19
555.336	21.78
555.533	22.45
555.729	22.58
555.926	22.7
556.122	22.7
556.318	23.13
556.515	23.19
556.711	23.05
556.907	23.32
557.104	23.35
557.3	23.33
557.496	24.14
557.693	23.47
557.889	24.09
558.085	24.14
558.281	24.11
558.478	23.51
558.674	23.62
558.87	23.97
559.066	24.24
559.262	24.88
559.459	25.61
559.655	25.65
559.851	26.18
560.047	25.36
560.243	25.59
560.439	26.47
560.635	27.01
560.831	27.17
561.027	26.89
561.223	26.54
561.419	26.25
561.615	25.88
561.811	25.47
562.007	25.02
562.203	25.56
562.399	25.41
562.595	24.57
562.791	24.81
562.987	24.63
563.183	25.16
563.379	26.11
563.575	26.61
563.771	26.83
563.966	27.06
564.162	27.52
564.358	27.68
564.554	27.94
564.75	28.31
564.945	28.48
565.141	28.56
565.337	28.1
565.533	27.86
565.728	27.83
565.924	27.66
566.12	27.24
566.315	27.55
566.511	27.7
566.707	28.02
566.902	28.04
567.098	27.89
567.293	28.44
567.489	29.17
567.684	28.9
567.88	28.82
568.076	29.31
568.271	30.05
568.467	30.27
568.662	30.43
568.858	30.15
569.053	30.53
569.248	30.45
569.444	30.48
569.639	29.89
569.835	30.21
570.03	30.97
570.225	30.33
570.421	29.9
570.616	29.68
570.812	29.03
571.007	29.33
571.202	28.98
571.397	29.45
571.593	29.13
571.788	29.54
571.983	29.53
572.178	29.13
572.374	29.57
572.569	29.62
572.764	29.85
572.959	30.53
573.154	30.36
573.35	30.54
573.545	30.33
573.74	30.65
573.935	30.46
574.13	30.1
574.325	29.84
574.52	30.08
574.715	30.37
574.91	29.88
575.105	30.18
575.3	30.25
575.495	30.29
575.69	30.5
575.885	30.03
576.08	30.11
576.275	31.09
576.47	31.05
576.665	30.79
576.86	30.31
577.055	30.09
577.25	30.49
577.444	30.53
577.639	31.24
577.834	30.91
578.029	30.59
578.224	31.27
578.418	31.19
578.613	31.3
578.808	31.33
579.003	31.55
579.197	31.89
579.392	30.99
579.587	31.11
579.781	31.4
579.976	31.62
580.171	32.17
580.365	31.44
580.56	30.92
580.755	30.84
580.949	30.82
581.144	31.16
581.338	31.5
581.533	31.48
581.727	31.98
581.922	31.15
582.116	32.17
582.311	32.97
582.505	33.91
582.7	33.22
582.894	34.28
583.089	34.97
583.283	34.94
583.478	34.33
583.672	33.92
583.866	33.43
584.061	34.37
584.255	33.12
584.449	32.4
584.644	32.2
584.838	33.34
585.032	32.8
585.226	33.24
585.421	33.36
585.615	34.69
585.809	35.83
586.003	36.07
586.198	35.64
586.392	35.91
586.586	36.82
586.78	36.25
586.974	37.08
587.168	36.83
587.363	35.75
587.557	36.22
587.751	35.81
587.945	35.68
588.139	35.53
588.333	35.4
588.527	35.74
588.721	36.07
588.915	35.82
589.109	34.83
589.303	35.43
589.497	35.77
589.691	35.51
589.885	35.75
590.079	35.42
590.273	35.79
590.466	35.23
590.66	35.52
590.854	34.67
591.048	36.18
591.242	36.59
591.436	36.54
591.629	36.14
591.823	36.08
592.017	35.96
592.211	36.58
592.404	36.24
592.598	36.75
592.792	35.69
592.986	35.82
593.179	34.94
593.373	35.16
593.567	35.16
593.76	35.67
593.954	36.38
594.147	36.61
594.341	37.22
594.535	37.52
594.728	37.44
594.922	38.29
595.115	38.11
595.309	37.89
595.502	37.55
595.696	37.88
595.889	37.98
596.083	37.49
596.276	37.55
596.47	37.22
596.663	37.33
596.856	37.62
597.05	37.16
597.243	37.45
597.437	37.84
597.63	38.11
597.823	38.01
598.017	38.38
598.21	38.86
598.403	37.83
598.596	36.87
598.79	36.55
598.983	36.26
599.176	37.16
599.369	37.35
599.563	36.96
599.756	36.96
599.949	36.34
600.142	36.15
600.335	36.37
600.528	37.59
600.722	38.66
600.915	38.96
601.108	39.06
601.301	39.14
601.494	38.88
601.687	38.85
601.88	38.42
602.073	38.65
602.266	38.98
602.459	38.37
602.652	37.84
602.845	37.35
603.038	36.43
603.231	36.78
603.424	36.58
603.617	36.45
603.809	36.65
604.002	37.17
604.195	37.15
604.388	36.85
604.581	36.88
604.774	37.41
604.966	37.17
605.159	38.07
605.352	37.98
605.545	37.63
605.737	38.02
605.93	38.26
606.123	37.64
606.316	37.98
606.508	38.18
606.701	38.2
606.894	37.84
607.086	38.94
607.279	38.6
607.471	38.55
607.664	38.67
607.857	38.67
608.049	39.42
608.242	39.33
608.434	39.73
608.627	39.64
608.819	39.72
609.012	40.11
609.204	40.38
609.397	40.35
609.589	40.61
609.782	41.07
609.974	41.1
610.166	39.98
610.359	40.04
610.551	39.32
610.743	39.49
610.936	38.96
611.128	38.68
611.32	38.1
611.513	38.69
611.705	37.76
611.897	37.05
612.09	36.57
612.282	35.93
612.474	36.6
612.666	37.19
612.858	36.78
613.051	37.49
613.243	37.02
613.435	36.64
613.627	36.61
613.819	37.49
614.011	37.65
614.203	38.47
614.395	40.06
614.588	40.41
614.78	40.7
614.972	40.64
615.164	40.02
615.356	40.24
615.548	40.06
615.74	39.69
615.932	39.4
616.124	40.38
616.315	39.85
616.507	39.68
616.699	39.19
616.891	38.44
617.083	38.87
617.275	39.6
617.467	40.13
617.659	40.12
617.85	39.74
618.042	39.98
618.234	39.47
618.426	38.75
618.618	39.29
618.809	39.47
619.001	39.24
619.193	38.96
619.384	39.37
619.576	39.29
619.768	39.04
619.959	39.8
620.151	40.02
620.343	39.83
620.534	40.81
620.726	39.53
620.917	39.18
621.109	40.08
621.301	40.65
621.492	40.56
621.684	39.94
621.875	40.48
622.067	39.29
622.258	38.81
622.45	39.52
622.641	39.29
622.832	40.39
623.024	40.44
623.215	39.94
623.407	39.09
623.598	38.58
623.789	38.76
623.981	39.24
624.172	39.96
624.363	40.38
624.555	40.73
624.746	40.29
624.937	39.38
625.129	39.66
625.32	39.95
625.511	40.16
625.702	40.19
625.893	40.65
626.085	40.14
626.276	40.17
626.467	39.89
626.658	39.14
626.849	39.58
627.04	40.24
627.231	39.83
627.422	39.42
627.614	39.04
627.805	38.88
627.996	38.22
628.187	38.32
628.378	38.88
628.569	38.61
628.76	38.76
628.951	38.19
629.142	38.59
629.332	38.65
629.523	40.13
629.714	39.84
629.905	40.89
630.096	41
630.287	40.56
630.478	40.48
630.669	41.04
630.859	40.86
631.05	41.55
631.241	41.76
631.432	41.93
631.623	40.44
631.813	41.27
632.004	40.27
632.195	40.18
632.385	40.66
632.576	39.84
632.767	39.62
632.957	39.73
633.148	39.83
633.339	38.72
633.529	39
633.72	39.2
633.91	38.87
634.101	39.23
634.292	39.23
634.482	39.15
634.673	39.91
634.863	40.4
635.054	40.14
635.244	39.59
635.435	40.41
635.625	39.82
635.815	39.93
636.006	40.55
636.196	40.65
636.387	40.7
636.577	40.79
636.767	40.11
636.958	39.52
637.148	39.96
637.338	39.67
637.529	39.15
637.719	39.43
637.909	39.82
638.099	39.22
638.29	39.2
638.48	39.62
638.67	40.51
638.86	40.81
639.05	40.7
639.241	40.51
639.431	41.43
639.621	41.79
639.811	41.92
640.001	41.89
640.191	42.48
640.381	42.38
640.571	41.78
640.761	41.38
640.951	40.5
641.141	40.79
641.331	40.66
641.521	39.91
641.711	39.54
641.901	39.57
642.091	39.58
642.281	38.86
642.471	39.42
642.661	40.42
642.851	40.65
643.041	42.65
643.231	42.98
643.42	43.13
643.61	43.47
643.8	43.62
643.99	44.43
644.18	43.39
644.369	43.74
644.559	43.42
644.749	43.67
644.939	42.84
645.128	41.63
645.318	41.87
645.508	41.61
645.697	42.26
645.887	41.67
646.076	41.22
646.266	42.47
646.456	43.37
646.645	44.12
646.835	42.96
647.024	42.71
647.214	43.6
647.403	43.3
647.593	43.6
647.782	42.81
647.972	43.96
648.161	44.17
648.351	42.46
648.54	42.37
648.73	41.84
648.919	42.63
649.108	43.49
649.298	42.65
649.487	43.02
649.677	43.17
649.866	42.59
650.055	41.63
650.244	42.71
650.434	44.58
650.623	44.01
650.812	43.44
651.002	44.06
651.191	42.95
651.38	42.8
651.569	42.61
651.758	42.45
651.947	43.62
652.137	43.19
652.326	42.01
652.515	41.51
652.704	41.11
652.893	40.32
653.082	39.88
653.271	40.03
653.46	39.74
653.649	38.93
653.838	38.53
654.027	38.7
654.216	38.4
654.405	38.12
654.594	37.73
654.783	38.67
654.972	38.96
655.161	38.88
655.35	40.15
655.539	40.07
655.728	39.86
655.916	40.13
656.105	39.82
656.294	39.92
656.483	39.09
656.672	39.41
656.86	38.52
657.049	39.37
657.238	39.46
657.427	38.68
657.615	39.5
657.804	40.3
657.993	40.46
658.181	40.53
658.37	40.91
658.559	41.65
658.747	40.88
658.936	41.81
659.125	43.54
659.313	42.57
659.502	43.43
659.69	43.1
659.879	43.6
660.067	43.95
660.256	43.52
660.444	44.1
660.633	44.29
660.821	45.6
661.01	44.82
661.198	42.51
661.387	43.57
661.575	42.04
661.763	42.54
661.952	42.14
662.14	41.34
662.328	41.12
662.517	41.57
662.705	41.21
662.893	40.28
663.082	41.48
663.27	41.69
663.458	42.02
663.646	43.06
663.834	44.18
664.023	44.17
664.211	45.04
664.399	46.24
664.587	46.77
664.775	47.51
664.963	48.12
665.152	46.85
665.34	46.23
665.528	47.02
665.716	45.93
665.904	43.97
666.092	44.92
666.28	44.86
666.468	43.62
666.656	43.6
666.844	43.38
667.032	43.01
667.22	41.7
667.408	41.92
667.596	40.78
667.784	41.61
667.971	41.27
668.159	39.71
668.347	39.42
668.535	39.6
668.723	39.35
668.911	38.42
669.098	38.3
669.286	38.84
669.474	39.45
669.662	40.34
669.849	40.11
670.037	41.6
670.225	41.74
670.413	40.71
670.6	40.39
670.788	40.55
670.976	41.12
671.163	41.31
671.351	41.16
671.538	40.87
671.726	40.72
671.913	41.2
672.101	40.11
672.289	39.55
672.476	41.29
672.664	42.57
672.851	42.38
673.039	42.83
673.226	42.97
673.413	43.53
673.601	43.4
673.788	42.58
673.976	42.87
674.163	43.81
674.35	44.59
674.538	43.38
674.725	44.01
674.912	43.66
675.1	43.91
675.287	44.62
675.474	45.15
675.662	45.35
675.849	45.63
676.036	45.36
676.223	45.61
676.411	45.97
676.598	46.93
676.785	45.33
676.972	46.25
677.159	45.84
677.346	45.74
677.533	45.16
677.721	45.84
677.908	46.02
678.095	45.53
678.282	45.4
678.469	44.87
678.656	44.34
678.843	44.97
679.03	44.45
679.217	44.04
679.404	43.51
679.591	43.96
679.778	43.01
679.964	42.35
680.151	42.01
680.338	40.7
680.525	41.15
680.712	41.31
680.899	40.89
681.086	41.13
681.272	40.94
681.459	40.94
681.646	40.56
681.833	40.06
682.02	39.63
682.206	40.87
682.393	42.21
682.58	42.2
682.766	42.73
682.953	42.55
683.14	43.19
683.326	43.94
683.513	44.65
683.7	46.54
683.886	47
684.073	47.95
684.259	46.87
684.446	45.89
684.632	45.69
684.819	45.04
685.005	45.99
685.192	45.2
685.378	45.51
685.565	44.62
685.751	43.56
685.938	43.54
686.124	44.71
686.31	44.94
686.497	45.35
686.683	46.05
686.87	47.09
687.056	45.66
687.242	45.3
687.429	44.06
687.615	43.72
687.801	42.73
687.987	43.95
688.174	42.58
688.36	43.57
688.546	43.2
688.732	42.59
688.918	41.3
689.105	43.26
689.291	43.64
689.477	44.96
689.663	45.53
689.849	44.89
690.035	44.32
690.221	43.49
690.407	40.85
690.593	40.04
690.779	39.01
690.965	37
691.151	36.66
691.337	37.35
691.523	37.18
691.709	38.18
691.895	39.76
692.081	38.87
692.267	39.71
692.453	41.17
692.639	43.18
692.825	43.46
693.011	44.55
693.196	42.99
693.382	41.6
693.568	41.86
693.754	41.74
693.94	41.59
694.125	40.93
694.311	41.16
694.497	42.31
694.682	41.09
694.868	41.36
695.054	41.89
695.239	41.43
695.425	41.38
695.611	40.81
695.796	39.46
695.982	39.55
696.168	40.72
696.353	41.28
696.539	41.53
696.724	41.95
696.91	41.44
697.095	40.52
697.281	41.4
697.466	41.06
697.652	41.31
697.837	43.09
698.023	43.41
698.208	42.7
698.393	42.5
698.579	42.52
698.764	41.68
698.949	42.32
699.135	43.27
699.32	43.74
699.505	44.73
699.691	44.15
699.876	41.44
700.061	40.73
700.246	41
700.432	41.53
700.617	39.99
700.802	41.99
700.987	42.02
701.172	38.22
701.358	37.93
701.543	36.51
701.728	36.19
701.913	37.82
702.098	36.37
702.283	37.03
702.468	37.57
702.653	36.7
702.838	38.01
703.023	37.91
703.208	40.16
703.393	38.82
703.578	39.74
703.763	39.34
703.948	39.47
704.133	41.92
704.318	41.4
704.503	40.3
704.688	40.3
704.873	38.63
705.057	38.91
705.242	40.58
705.427	41.88
705.612	40.45
705.797	41.72
705.981	41.48
706.166	41.76
706.351	41.54
706.536	39.83
706.72	39.41
706.905	39.24
707.09	38.62
707.274	40.59
707.459	40.01
707.644	42.81
707.828	41.75
708.013	41.33
708.197	39.79
708.382	40
708.567	40.95
708.751	42.45
708.936	42.44
709.12	43.43
709.305	39.96
709.489	41.35
709.673	39.23
709.858	40.76
710.042	40.82
710.227	41.55
710.411	41.95
710.596	41.53
710.78	41.05
710.964	41.52
711.149	41.29
711.333	44.14
711.517	42.83
711.702	42.76
711.886	42.17
712.07	43.83
712.254	43.24
712.438	43.56
712.623	44.87
712.807	45.63
712.991	44.34
713.175	43.23
713.359	42.58
713.544	42.1
713.728	43.25
713.912	44.03
714.096	43.83
714.28	46.68
714.464	47.48
714.648	47.07
714.832	46.21
715.016	46.63
715.2	46.35
715.384	47.44
715.568	49.07
715.752	48.12
715.936	47.44
716.12	47.37
716.304	44.73
716.488	44.77
716.671	43.55
716.855	44.59
717.039	43.72
717.223	44.28
717.407	42.93
717.59	40.65
717.774	41.03
717.958	40.22
718.142	39.37
718.325	40.21
718.509	39.73
718.693	40.77
718.877	39.2
719.06	41.17
719.244	42.2
719.428	41.45
719.611	41.97
719.795	41.02
719.978	41.48
720.162	41.93
720.345	40.59
720.529	40.48
720.713	40.24
720.896	41.07
721.08	41.76
721.263	39.68
721.446	39.96
721.63	42.21
721.813	41.99
721.997	44.66
722.18	42.44
722.364	42.07
722.547	42.93
722.73	40.67
722.914	43.07
723.097	42.85
723.28	43.95
723.464	45.98
723.647	46.91
723.83	48.05
724.013	46.03
724.197	46.99
724.38	47.44
724.563	44.98
724.746	48.54
724.929	46.69
725.112	45.32
725.296	46.3
725.479	44.62
725.662	42.32
725.845	40.96
726.028	41.23
726.211	43.07
726.394	41.15
726.577	42.59
726.76	41.94
726.943	44.06
727.126	43.24
727.309	43.75
727.492	41.51
727.675	42.2
727.858	42.4
728.041	41.76
728.224	41.4
728.407	41.7
728.589	41.55
728.772	40.53
728.955	39.7
729.138	40.02
729.321	38.21
729.503	38.94
729.686	39.61
729.869	40.88
730.052	40.48
730.234	39.14
730.417	39.87
730.6	39.35
730.782	38.54
730.965	37.36
731.148	37.42
731.33	38.83
731.513	38.8
731.695	36.94
731.878	35.65
732.061	36.69
732.243	36.4
732.426	36.76
732.608	37.95
732.791	39.49
732.973	40.9
733.156	40.51
733.338	39.37
733.52	41.42
733.703	41.26
733.885	40.83
734.068	41.54
734.25	42.39
734.432	41.98
734.615	42.52
734.797	42.6
734.979	42.01
735.162	42.68
735.344	41.99
735.526	41.86
735.708	42.9
735.891	44.95
736.073	43.28
736.255	42.63
736.437	42.31
736.619	40.99
736.802	40.15
736.984	41.37
737.166	41.33
737.348	43.24
737.53	42.78
737.712	44.74
737.894	45.34
738.076	45.25
738.258	45.65
738.44	47.14
738.622	46.87
738.804	46.66
738.986	43.34
739.168	43.57
739.35	43.67
739.532	42.99
739.714	41.34
739.896	41.15
740.078	40.66
740.259	39.54
740.441	38.06
740.623	37.38
740.805	38.51
740.987	36.05
741.168	34.1
741.35	32.4
741.532	32.72
741.714	30.49
741.895	28.1
742.077	26.17
742.259	26.69
742.44	28.55
742.622	29.39
742.804	28.96
742.985	36.39
743.167	38.96
743.348	40.7
743.53	39.77
743.711	41.62
743.893	42.79
744.075	42.35
744.256	41.33
744.438	40.11
744.619	37.76
744.8	36.19
744.982	35.74
745.163	36.45
745.345	35.14
745.526	34.67
745.707	32.74
745.889	35.11
746.07	36.11
746.252	36.5
746.433	38.57
746.614	39.82
746.795	41.82
746.977	37.03
747.158	36.49
747.339	36.33
747.52	35.93
747.702	38.79
747.883	38.77
748.064	38.42
748.245	39.15
748.426	39.36
748.607	40.6
748.788	38.22
748.97	42.29
749.151	41.69
749.332	42.74
749.513	45.15
749.694	46.16
749.875	45.79
750.056	49.62
750.237	51.74
750.418	49.38
750.599	48.57
750.78	50.92
750.96	51.82
751.141	51.25
751.322	49.82
751.503	50.46
751.684	49.35
751.865	47.35
752.046	46.65
752.226	44.28
752.407	47.8
752.588	45.61
752.769	41.96
752.949	40.86
753.13	42.6
753.311	41.78
753.492	39.29
753.672	38.04
753.853	39.99
754.034	39.88
754.214	40.67
754.395	36.92
754.575	41.98
754.756	44.29
754.937	43.05
755.117	40.18
755.298	43.87
755.478	45.44
755.659	42.59
755.839	38.1
756.02	36.55
756.2	34.69
756.381	36.44
756.561	33.11
756.741	34.22
756.922	33.94
757.102	38.49
757.283	32.83
757.463	34.14
757.643	35.65
757.823	38.48
758.004	36.69
758.184	33.31
758.364	35.71
758.545	38.45
758.725	37.09
758.905	39.4
759.085	39.35
759.265	39.98
759.446	41.32
759.626	43.96
759.806	43.27
759.986	47.31
760.166	50.65
760.346	47.17
760.526	46.61
760.706	48.03
760.886	46.4
761.066	44.37
761.246	47.03
761.426	47.25
761.606	45.72
761.786	46.62
761.966	44.12
762.146	45.46
762.326	47.29
762.506	47.43
762.686	46.43
762.866	46.18
763.046	46.3
763.225	45.8
763.405	43.44
763.585	46.93
763.765	47.73
763.945	48.82
764.124	45.46
764.304	44.81
764.484	43.86
764.664	43.58
764.843	44.16
765.023	42.85
765.203	42.36
765.382	42.47
765.562	37.39
765.741	36
765.921	32.46
766.101	34.31
766.28	36.1
766.46	34.34
766.639	34.04
766.819	33.94
766.998	39.59
767.178	39.85
767.357	39.39
767.537	37.27
767.716	36.31
767.896	38
768.075	36.3
768.254	36.5
768.434	39.67
768.613	40.48
768.792	37.74
768.972	35.25
769.151	38.49
769.33	40.26
769.51	43.58
769.689	44.54
769.868	46.15
770.047	52.56
770.226	49.94
770.406	47.74
770.585	47.17
770.764	48.9
770.943	49.3
771.122	47.32
771.301	48.74
771.48	49.47
771.66	48.41
771.839	47.51
772.018	43.21
772.197	47.56
772.376	45.41
772.555	47.72
772.734	48.43
772.913	49.62
773.092	49.47
773.271	50.24
773.449	47.94
773.628	48.57
773.807	48.44
773.986	49.69
774.165	45.97
774.344	50.54
774.523	47.69
774.701	45.82
774.88	42.85
775.059	40.16
775.238	35.96
775.417	37.62
775.595	35.59
775.774	36.64
775.953	32.75
776.131	31.48
776.31	33.17
776.489	34.21
776.667	35.24
776.846	40.78
777.025	40.44
777.203	46.17
777.382	45.4
777.56	46.44
777.739	45.66
777.917	44.55
778.096	47.02
778.274	44.9
778.453	44.57
778.631	46.25
778.81	40.97
778.988	42.53
779.166	36.96
779.345	35.21
779.523	37.28
779.702	38.11
779.88	40.7
780.058	42.56
780.237	42.6
780.415	48.4
780.593	49.32
780.771	51.77
780.95	49.78
781.128	53.98
781.306	60.53
781.484	58.85
781.662	54.24
781.841	52.74
782.019	51
782.197	51.36
782.375	48.64
782.553	46.74
782.731	47.61
782.909	48.06
783.087	43.86
783.265	37.58
783.443	37.42
783.621	46.71
783.799	50.9
783.977	49.19
784.155	47.91
784.333	43.38
784.511	43.59
784.689	40.69
784.867	43.37
785.045	47.04
785.223	47.22
785.4	43.36
785.578	32.58
785.756	31.9
785.934	35.49
786.112	36.15
786.289	36.64
786.467	42.21
786.645	44.01
786.823	42.23
787	41.22
787.178	40.37
787.356	44.18
787.533	48.06
787.711	48.42
787.889	42.97
788.066	46.11
788.244	48.15
788.421	41.91
788.599	41.64
788.776	41.5
788.954	45.9
789.131	45.19
789.309	42.6
789.486	44.52
789.664	46.04
789.841	45.7
790.019	41.64
790.196	40.54
790.373	40.64
790.551	46.1
790.728	49.06
790.906	43.57
791.083	54.76
791.26	57.7
791.437	54.78
791.615	54.65
791.792	55.05
791.969	57.92
792.146	59.15
792.324	62.2
792.501	57.78
792.678	59.37
792.855	62.95
793.032	55.52
793.209	52.39
793.387	48.55
793.564	42.81
793.741	42.27
793.918	37.68
794.095	35.02
794.272	31.98
794.449	34.99
794.626	29.61
794.803	29.85
794.98	23.89
795.157	28.41
795.334	36.14
795.511	37.05
795.688	36.23
795.864	37.69
796.041	33.89
796.218	35.26
796.395	25.97
796.572	22.34
796.749	21.03
796.925	19.44
797.102	16.33
797.279	11.88
797.456	9.11
797.632	8.39
797.809	5.93
797.986	7.53
798.162	2.79
798.339	9.38
798.516	15.44
798.692	15.98
798.869	19.13
799.046	23.13
799.222	30.14
799.399	32.44
799.575	40.13
799.752	38.46
799.928	41.6
800.105	44.29
800.281	44.61
800.458	43.86
800.634	46.63
800.811	45.39
800.987	48.72
801.163	44.61
801.34	41.4
801.516	34.18
801.692	40.67
801.869	43.65
802.045	45.33
802.221	48.71
802.398	48.02
802.574	48.99
802.75	48.78
802.926	41.02
803.103	45.01
803.279	44.01
803.455	50.11
803.631	43.85
803.807	39.25
803.983	42.71
804.16	32.16
804.336	37.06
804.512	30.18
804.688	30.02
804.864	37.81
805.04	36.54
805.216	35.84
805.392	41.09
805.568	44.46
805.744	44.74
805.92	45.14
806.096	49.97
806.272	50.55
806.448	55.82
806.623	51
806.799	45.64
806.975	42.91
807.151	55.79
807.327	45.96
807.503	47.78
807.678	47.84
807.854	46.26
808.03	47.62
808.206	39.99
808.381	37.06
808.557	48.64
808.733	46.94
808.908	45.31
809.084	44.52
809.26	49.88
809.435	56.03
809.611	56.65
809.787	47.75
809.962	42.72
810.138	43.8
810.313	42.53
810.489	32.85
810.664	32.57
810.84	29.88
811.015	31.62
811.191	25.5
811.366	24.99
811.542	27.23
811.717	30.04
811.892	32.91
812.068	28.52
812.243	27.38
812.419	37.47
812.594	40.74
812.769	43.69
812.944	33.57
813.12	34.09
813.295	31.9
813.47	25.81
813.645	23.73
813.821	25.57
813.996	34.11
814.171	35.55
814.346	28.82
814.521	26.84
814.697	30.08
814.872	35.42
815.047	32.11
815.222	33.97
815.397	32.73
815.572	38.76
815.747	37.89
815.922	33.71
816.097	31.44
816.272	27.41
816.447	30.84
816.622	30.1
816.797	26.86
816.972	29.84
817.147	27.58
817.322	26.38
817.496	21.47
817.671	20.64
817.846	26.94
818.021	30.76
818.196	36.55
818.371	35.47
818.545	36.05
818.72	38.58
818.895	39
819.069	37.74
819.244	42.83
819.419	44.29
819.594	43.78
819.768	42.36
819.943	41.09
820.117	37.89
820.292	36.54
820.467	38.06
820.641	37.93
820.816	39.16
820.99	37.63
821.165	37.25
821.339	37.58
821.514	36.94
821.688	35.31
821.863	34.63
822.037	34.72
822.212	34.88
822.386	33.18
822.56	33.07
822.735	31.71
822.909	32.16
823.084	32.06
823.258	31.63
823.432	31.5
823.606	33.17
823.781	33.77
823.955	34.71
824.129	33.87
824.303	34.64
824.478	34.16
824.652	35.75
824.826	35.37
825	37.63
825.174	37.31
825.348	39
825.523	36.74
825.697	36.62
825.871	35.28
826.045	35.54
826.219	36.34
826.393	38.23
826.567	38.56
826.741	40.25
826.915	37.57
827.089	38.12
827.263	36.07
827.437	37.57
827.611	41.2
827.784	42.29
827.958	43.52
828.132	41.95
828.306	38.91
828.48	36.58
828.654	35.11
828.827	33.62
829.001	29.55
829.175	31.39
829.349	30.08
829.522	23.32
829.696	20.85
829.87	15.15
830.044	18.97
830.217	26.36
830.391	29.63
830.565	28.31
830.738	33.64
830.912	39.04
831.085	42.32
831.259	44.63
831.432	42.7
831.606	45.78
831.779	44.45
831.953	45.99
832.126	38.01
832.3	34.91
832.473	36.28
832.647	35.83
832.82	35.06
832.994	35.5
833.167	32.31
833.34	34.93
833.514	32.86
833.687	35.18
833.86	32.65
834.034	35.22
834.207	36.13
834.38	34.77
834.553	33.37
834.727	32.07
834.9	26.93
835.073	25.21
835.246	21.95
835.419	17.69
835.593	16.19
835.766	15.62
835.939	14.17
836.112	12.84
836.285	9.22
836.458	3.82
836.631	3.96
836.804	6
836.977	24.81
837.15	36.18
837.323	37.26
837.496	39.61
837.669	49.43
837.842	53.43
838.015	52.95
838.188	52.11
838.361	54.04
838.533	58.66
838.706	59.41
838.879	53.9
839.052	25.99
839.225	30.31
839.398	27.05
839.57	18.68
839.743	18.15
839.916	25.59
840.088	28.36
840.261	26.28
840.434	27.28
840.607	29.47
840.779	31.25
840.952	46.67
841.124	53.35
841.297	56.21
841.47	73.44
841.642	75.35
841.815	78.23
841.987	89.08
842.16	109.95
842.332	98.14
842.505	103.95
842.677	90.32
842.85	83.16
843.022	80.09
843.194	91.55
843.367	76.88
843.539	77.21
843.712	79.55
843.884	31.18
844.056	26.39
844.229	25.82
844.401	15.17
844.573	22.91
844.745	36.43
844.918	9.76
845.09	-35.62
845.262	-113.72
845.434	-98.79
845.606	-46.4
845.779	-29.39
845.951	-113.66
846.123	-83.19
846.295	-114.53
846.467	-125.31
846.639	-92.02
846.811	-47.4
846.983	-58.59
847.155	-60.53
847.327	-54.26
847.499	-50.6
847.671	-23.01
847.843	22.78
848.015	27.04
848.187	24.94
848.359	12.65
848.531	6.7
848.703	-35.73
848.875	-48.77
849.047	21.61
849.218	-4.01
849.39	-45.88
849.562	-33.39
849.734	-127.23
849.905	-180.27
850.077	-162.74
850.249	-382.34
850.421	-81.45
850.592	-16.31
850.764	-2.66
850.936	-10.44
851.107	-38.39
851.279	11.41
851.451	13.59
851.622	31.22
851.794	40.63
851.965	56.22
852.137	84.91
852.308	81.71
852.48	81.24
852.651	66.4
852.823	74.35
852.994	101.88
853.166	90.74
853.337	144.91
853.509	78.08
853.68	71.62
853.851	70.23
854.023	41.29
854.194	53
854.365	40.83
854.537	59.47
854.708	38.91
854.879	37.2
855.05	17.24
855.222	13.05
855.393	18.21
855.564	22.68
855.735	12.98
855.906	-8.31
856.078	32.09
856.249	31.34
856.42	32.87
856.591	42.66
856.762	45.74
856.933	74.6
857.104	85.86
857.275	80.03
857.446	61.66
857.617	63.54
857.788	71.28
857.959	52.77
858.13	64.66
858.301	55.89
858.472	45.54
858.643	33.31
858.814	35.24
858.985	43.51
859.155	31.35
859.326	45.97
859.497	49.75
859.668	52.9
859.839	62.84
860.009	52.27
860.18	49.56
860.351	50.91
860.522	43.15
860.692	47.56
860.863	25.41
861.034	43.88
861.204	33.68
861.375	-10.89
861.546	-16.39
861.716	-39.61
861.887	-32.78
862.057	-37.8
862.228	-19.75
862.398	-6.85
862.569	-36.13
862.739	-29.07
862.91	-37.29
863.08	-67.08
863.251	-21.93
863.421	11.55
863.592	9.67
863.762	12.51
863.932	44.98
864.103	30.7
864.273	12.37
864.443	16.46
864.614	27.56
864.784	21.52
864.954	-20.44
865.125	-1.77
865.295	-67.53
865.465	-12.04
865.635	-54.55
865.805	-157.74
865.976	-207
866.146	-143.33
866.316	-27.46
866.486	15.65
866.656	-24.28
866.826	19.41
866.996	13.16
867.166	35.05
867.336	24.97
867.506	40.81
867.676	45.35
867.846	40.24
868.016	50.64
868.186	32.71
868.356	25.46
868.526	31.44
868.696	30.87
868.866	35.71
869.036	13.66
869.206	25.8
869.376	-31.52
869.545	-56.1
869.715	-7.9
869.885	33.71
870.055	76.07
870.224	87.71
870.394	79.68
870.564	57.37
870.734	90.55
870.903	129.69
871.073	201.21
871.243	181.79
871.412	107.33
871.582	82.18
871.751	80.04
871.921	64.71
872.091	62.86
872.26	52.01
872.43	38.53
872.599	59.45
872.769	44.42
872.938	27.8
873.108	3.05
873.277	-37.03
873.446	26.61
873.616	34.92
873.785	21.85
873.955	8.12
874.124	40.47
874.293	66.71
874.463	9.32
874.632	19.77
874.801	10.77
874.971	56.3
875.14	55.31
875.309	56.63
875.478	20.53
875.647	30.16
875.817	60.78
875.986	44.56
876.155	40.61
876.324	52.67
876.493	63.51
876.662	44.7
876.831	-8.78
877	34.18
877.17	-10.38
877.339	107.96
877.508	36.77
877.677	-47.99
877.846	-40.68
878.015	-21.78
878.184	28.33
878.352	20.32
878.521	42.32
878.69	25.91
878.859	12.84
879.028	4.79
879.197	-9.11
879.366	-1.51
879.534	4.02
879.703	9.13
879.872	9.08
880.041	4.08
880.21	13.05
880.378	12.81
880.547	19.33
880.716	22.69
880.884	21.73
881.053	24.86
881.222	30.91
881.39	32.68
881.559	27.56
881.727	29.77
881.896	32.82
882.065	28.99
882.233	30.79
882.402	31.65
882.57	32.67
882.739	39.21
882.907	37.99
883.076	35.31
883.244	33.74
883.412	37.75
883.581	39.25
883.749	36.17
883.918	38.43
884.086	36.43
884.254	34.22
884.423	28.37
884.591	18.85
884.759	17.88
884.927	17.2
885.096	16.61
885.264	15.91
885.432	0.51
885.6	1.07
885.769	7.51
885.937	11.6
886.105	14.88
886.273	24.15
886.441	36.49
886.609	48.48
886.777	51.31
886.945	61.42
887.113	79.33
887.281	89.89
887.449	113.35
887.617	129.15
887.785	104.92
887.953	107.97
888.121	104.42
888.289	64.94
888.457	37.54
888.625	48.9
888.793	21.74
888.961	20.76
889.129	46.09
889.296	6.2
889.464	-12.79
889.632	-50.79
889.8	-25.17
889.967	-67.43
890.135	13.81
