Data from JASIL_3380_Reflection_1.txt Node
Date: Thu Nov 19 19:04:23 EST 2015
User: Geneva
Spectrometer: USB4E03002
Autoset integration time: false
Trigger mode: 4
Integration Time (sec): 1.000000E-1
Scans to average: 10
Electric dark correction enabled: false
Nonlinearity correction enabled: false
Boxcar width: 5
Stray light correction enabled: false
XAxis mode: Wavelengths
Stop averaging: false
Number of Pixels in Spectrum: 3648
>>>>>Begin Spectral Data<<<<<
177.575	240.58
177.794	290.79
178.014	269.03
178.233	268.91
178.452	262.7
178.672	290.61
178.891	333.24
179.11	420.07
179.33	528.21
179.549	734.62
179.768	1077.2
179.987	708.44
180.207	814.75
180.426	3302.67
180.645	242000
180.864	-9357.69
181.084	4350
181.303	-9800
181.522	10465.22
181.741	1664.63
181.96	834.48
182.179	518.89
182.398	859.04
182.618	451.99
182.837	340.32
183.056	358.01
183.275	352.24
183.494	446.67
183.713	311.41
183.932	233.18
184.151	265.57
184.37	272.57
184.589	341.18
184.808	399.31
185.027	665.01
185.246	678.81
185.465	486.81
185.684	408.63
185.903	367.67
186.122	445.17
186.341	718.62
186.56	775.2
186.779	712.44
186.998	701.32
187.216	656.4
187.435	457.17
187.654	502.71
187.873	575.23
188.092	738.46
188.311	818.43
188.53	622.13
188.748	463.95
188.967	356.27
189.186	456.41
189.405	448.33
189.623	375.45
189.842	494.74
190.061	597.89
190.28	583.91
190.498	609.47
190.717	446.89
190.936	459.63
191.154	402.23
191.373	596.95
191.592	407.81
191.81	509.46
192.029	515.42
192.248	450.84
192.466	489.16
192.685	476.95
192.904	499.03
193.122	586.04
193.341	722.19
193.559	1522.09
193.778	783
193.996	1176.74
194.215	773.93
194.433	783.53
194.652	739.62
194.87	519.88
195.089	499.82
195.307	520.78
195.526	627.81
195.744	561.22
195.963	378.73
196.181	403.49
196.399	436.38
196.618	474.12
196.836	435.17
197.055	416.57
197.273	508.83
197.491	529.26
197.71	516
197.928	511.51
198.146	614.55
198.365	1510.14
198.583	1051.36
198.801	895.87
199.019	649.24
199.238	1037.57
199.456	815.44
199.674	594.12
199.892	500
200.111	487.95
200.329	472.66
200.547	354.88
200.765	316.17
200.983	322.45
201.202	336.39
201.42	438.87
201.638	637.65
201.856	678.32
202.074	739.26
202.292	640.72
202.51	524.14
202.728	446.74
202.946	424.08
203.165	484.73
203.383	474.85
203.601	627.11
203.819	469.5
204.037	339.35
204.255	329.25
204.473	282.08
204.691	344.6
204.909	360.03
205.127	500.42
205.345	708.41
205.562	494.86
205.78	435.52
205.998	392.47
206.216	375.34
206.434	423.95
206.652	410.96
206.87	471.74
207.088	462.48
207.306	479.83
207.523	478.51
207.741	331.29
207.959	345.27
208.177	365.91
208.395	314.36
208.612	299.39
208.83	282.64
209.048	281.33
209.266	268.93
209.483	289.43
209.701	295.25
209.919	318.95
210.136	428.05
210.354	569.07
210.572	546.8
210.79	553.15
211.007	680.93
211.225	576.19
211.442	741.32
211.66	1533.14
211.878	2092.13
212.095	1493.75
212.313	922.77
212.53	1159.27
212.748	611.84
212.966	833.15
213.183	1092.75
213.401	796.44
213.618	936.66
213.836	1179.53
214.053	701.92
214.271	532.78
214.488	606.77
214.705	674.53
214.923	533.08
215.14	667.28
215.358	550.93
215.575	536.36
215.793	526.23
216.01	405.09
216.227	402.39
216.445	520.36
216.662	506.71
216.879	410.03
217.097	382.11
217.314	390.76
217.531	406.98
217.749	400.8
217.966	372.7
218.183	381.56
218.4	431.39
218.618	450.6
218.835	328.57
219.052	343.78
219.269	338.41
219.487	309.84
219.704	355.43
219.921	314.87
220.138	318.71
220.355	303.97
220.572	343.83
220.79	437.36
221.007	356
221.224	313.31
221.441	282.61
221.658	290.69
221.875	322.24
222.092	295.6
222.309	283.04
222.526	278.55
222.743	270.83
222.96	228.46
223.177	189.22
223.394	195.98
223.611	214.65
223.828	201.44
224.045	218.47
224.262	199.92
224.479	205.05
224.696	236.18
224.913	255.14
225.13	265.02
225.347	277.29
225.564	269.58
225.781	235.46
225.997	210.36
226.214	193.98
226.431	166.69
226.648	138.33
226.865	120.48
227.082	102.35
227.298	88.61
227.515	82.1
227.732	74.58
227.949	72.79
228.165	68.13
228.382	65.72
228.599	69.64
228.816	65.89
229.032	72.79
229.249	70.78
229.466	72.32
229.682	72.6
229.899	72.82
230.116	73.67
230.332	77.57
230.549	81.33
230.765	84.78
230.982	82.24
231.199	88.87
231.415	90.8
231.632	95.47
231.848	97.37
232.065	99.58
232.281	110.5
232.498	119.76
232.714	118.23
232.931	116.25
233.147	118.35
233.364	129
233.58	132.37
233.797	122.85
234.013	128.45
234.23	132.42
234.446	141.11
234.662	130.43
234.879	128.58
235.095	134.74
235.312	143.42
235.528	138.93
235.744	142.51
235.961	133.36
236.177	133.99
236.393	140.33
236.61	136.34
236.826	126.69
237.042	121.94
237.258	125.1
237.475	129.03
237.691	120.76
237.907	123.25
238.123	112.54
238.339	113.52
238.556	108.79
238.772	98.17
238.988	94.43
239.204	99.73
239.42	97.01
239.636	92.48
239.853	88.7
240.069	83.32
240.285	78.37
240.501	72.06
240.717	71.97
240.933	69.41
241.149	67.05
241.365	67.9
241.581	64.04
241.797	61.58
242.013	59.7
242.229	55.57
242.445	55.75
242.661	54.66
242.877	59.52
243.093	55.75
243.309	59.03
243.525	59.6
243.741	61.73
243.957	60.09
244.173	61.1
244.388	61.06
244.604	59.83
244.82	54.71
245.036	53.02
245.252	46.18
245.468	45.58
245.683	43.59
245.899	39.63
246.115	37.11
246.331	36.41
246.547	35.34
246.762	34.18
246.978	35.06
247.194	36.19
247.409	37.17
247.625	39
247.841	39.26
248.057	39.41
248.272	41.95
248.488	42.1
248.703	44.83
248.919	48.62
249.135	51.52
249.35	52.61
249.566	53.92
249.782	51
249.997	50.75
250.213	52.55
250.428	52.87
250.644	51.38
250.859	52.56
251.075	50.45
251.29	46.42
251.506	45.71
251.721	43.5
251.937	43.1
252.152	44.22
252.368	43.35
252.583	42.73
252.798	41.77
253.014	44.51
253.229	45.33
253.445	49.71
253.66	56.59
253.875	59.78
254.091	65.91
254.306	67.26
254.521	70.35
254.737	74
254.952	77
255.167	78.4
255.383	78.38
255.598	74.93
255.813	71.09
256.028	64.83
256.244	59.28
256.459	52.67
256.674	50.31
256.889	45.89
257.104	41.78
257.32	39.94
257.535	37.59
257.75	35.08
257.965	33.37
258.18	30.05
258.395	28.38
258.61	27.13
258.826	26.72
259.041	25.87
259.256	26.7
259.471	26.51
259.686	25.42
259.901	25.08
260.116	23.88
260.331	24.94
260.546	25.73
260.761	27.35
260.976	28.91
261.191	30.9
261.406	32.6
261.621	33.78
261.836	36.03
262.05	37.07
262.265	41.19
262.48	43.89
262.695	44.05
262.91	46.92
263.125	44.77
263.34	45.64
263.555	44.06
263.769	44.16
263.984	43.54
264.199	43.61
264.414	44.66
264.629	42.57
264.843	43.64
265.058	43.43
265.273	41.77
265.488	42.49
265.702	42.17
265.917	42.98
266.132	41.96
266.346	40.39
266.561	40.26
266.776	39.88
266.99	37.75
267.205	36.37
267.42	37.01
267.634	37.42
267.849	38.27
268.063	36.93
268.278	36.06
268.492	36.44
268.707	36.69
268.922	34.61
269.136	33.33
269.351	33.58
269.565	34.18
269.78	33.55
269.994	32.13
270.209	32.33
270.423	32.77
270.637	32.54
270.852	33.43
271.066	33.8
271.281	34.39
271.495	34.08
271.709	35.87
271.924	36.05
272.138	34.58
272.353	34.16
272.567	32.95
272.781	34.34
272.996	33.94
273.21	33.17
273.424	32.92
273.638	32.89
273.853	34.21
274.067	32.45
274.281	32.47
274.495	34.33
274.71	35.19
274.924	35.47
275.138	33.34
275.352	34.78
275.566	36.3
275.781	37.13
275.995	36.75
276.209	37.71
276.423	38.36
276.637	37.3
276.851	37.94
277.065	38.3
277.279	38.23
277.493	39.32
277.707	40
277.921	37.56
278.135	37.16
278.349	36.37
278.563	34.96
278.777	33.67
278.991	35.22
279.205	33.97
279.419	34.03
279.633	32.48
279.847	31.43
280.061	30.61
280.275	30.73
280.489	31.16
280.703	30.89
280.917	29.89
281.131	30.36
281.344	28.74
281.558	30.38
281.772	30.08
281.986	31.09
282.2	32.46
282.414	32.26
282.627	32.79
282.841	31.88
283.055	33.36
283.269	33.95
283.482	33.71
283.696	34.12
283.91	32.21
284.123	31.08
284.337	30.98
284.551	29.65
284.764	29.03
284.978	28.59
285.192	28.9
285.405	28.24
285.619	27.74
285.833	28.21
286.046	26.77
286.26	26.43
286.473	25.93
286.687	26.53
286.9	26.55
287.114	27.62
287.327	28.11
287.541	27.33
287.754	27.98
287.968	29.21
288.181	28.38
288.395	29.4
288.608	29.84
288.822	30.5
289.035	28.85
289.248	28.55
289.462	27.25
289.675	26.65
289.889	27.89
290.102	26.87
290.315	26.84
290.529	27.36
290.742	28.33
290.955	28.91
291.169	29.75
291.382	30.37
291.595	31.51
291.808	32.83
292.022	34.34
292.235	33.55
292.448	34.91
292.661	33.17
292.875	33.58
293.088	32.51
293.301	33.07
293.514	33.6
293.727	33.06
293.94	33.34
294.153	31.69
294.367	30.24
294.58	28.98
294.793	27.07
295.006	26.31
295.219	25.56
295.432	24.8
295.645	24.7
295.858	23.49
296.071	23.17
296.284	21.74
296.497	21.18
296.71	20.63
296.923	21.94
297.136	22.63
297.349	23.9
297.562	24.59
297.775	25.03
297.988	24.01
298.201	24.28
298.414	25.6
298.626	26.39
298.839	28.31
299.052	28.39
299.265	27.6
299.478	27.84
299.691	27.89
299.903	27.74
300.116	28.45
300.329	29.84
300.542	29.73
300.755	28.21
300.967	28.33
301.18	28.35
301.393	29.72
301.605	30.66
301.818	31.32
302.031	31.2
302.243	32.1
302.456	32.52
302.669	31.44
302.881	32.75
303.094	34.42
303.307	33.75
303.519	33.43
303.732	33.06
303.944	32.94
304.157	33.15
304.37	33.13
304.582	31.96
304.795	31.83
305.007	32.52
305.22	32.32
305.432	31.84
305.645	33.5
305.857	33.69
306.069	35.12
306.282	35.69
306.494	34.58
306.707	34.96
306.919	34.77
307.132	35.21
307.344	34.62
307.556	32.99
307.769	33.07
307.981	31.29
308.193	30.41
308.406	29.03
308.618	28.9
308.83	29.57
309.043	28.46
309.255	27.76
309.467	26.09
309.679	26.06
309.892	26.56
310.104	25.51
310.316	25.78
310.528	26.86
310.74	26.73
310.953	25.52
311.165	24.5
311.377	25.56
311.589	26.01
311.801	25.97
312.013	26.59
312.225	26.75
312.437	28.07
312.649	28.54
312.862	28.43
313.074	29.36
313.286	30.86
313.498	32.69
313.71	32.79
313.922	33.06
314.134	34.39
314.346	34.4
314.558	33.41
314.77	33.23
314.982	34.42
315.193	34.91
315.405	34
315.617	34.88
315.829	34.89
316.041	35.83
316.253	36.42
316.465	36.59
316.677	36.21
316.888	37.51
317.1	38.32
317.312	38.46
317.524	37.5
317.736	39.01
317.947	37.43
318.159	36.89
318.371	36.45
318.583	36.7
318.794	36.3
319.006	37.54
319.218	37.17
319.43	35.19
319.641	34.08
319.853	33.98
320.064	33.92
320.276	36.33
320.488	33.96
320.699	32.94
320.911	32.58
321.123	33.32
321.334	32.31
321.546	32.73
321.757	34.62
321.969	34.65
322.18	34.87
322.392	34.42
322.603	31.46
322.815	33.62
323.026	33.61
323.238	33.7
323.449	32.83
323.661	32.93
323.872	32.62
324.083	32.35
324.295	32.54
324.506	32.73
324.718	31.68
324.929	31.96
325.14	31.93
325.352	33.2
325.563	33.26
325.774	34.7
325.986	35.16
326.197	35.34
326.408	36.06
326.62	34.64
326.831	34.58
327.042	33.94
327.253	33.74
327.464	34.22
327.676	34.39
327.887	34.85
328.098	33.79
328.309	34.17
328.52	35
328.732	33.65
328.943	35.28
329.154	35.31
329.365	38.3
329.576	39.08
329.787	39.03
329.998	39.24
330.209	38.77
330.42	39.44
330.631	40.29
330.842	41.14
331.053	40.46
331.264	40.21
331.475	40.88
331.686	41.62
331.897	41.9
332.108	41.61
332.319	40.77
332.53	40.29
332.741	39.49
332.952	38.65
333.163	37.41
333.374	37.73
333.585	37.31
333.795	37.28
334.006	36.1
334.217	36.7
334.428	37.17
334.639	37.21
334.849	37.63
335.06	37.5
335.271	36.39
335.482	36.44
335.692	37.24
335.903	37.51
336.114	36.22
336.325	35.89
336.535	35.43
336.746	35.56
336.957	35.12
337.167	36.01
337.378	36.2
337.589	37.01
337.799	37.83
338.01	36.83
338.22	36.96
338.431	38.37
338.642	38.52
338.852	38.09
339.063	36.44
339.273	36.99
339.484	35.61
339.694	35.51
339.905	36.03
340.115	35.14
340.326	36
340.536	34.97
340.746	34.19
340.957	33.71
341.167	34.04
341.378	36.07
341.588	35.38
341.799	35.94
342.009	36.11
342.219	35.63
342.43	35.44
342.64	34.45
342.85	35.19
343.061	36.51
343.271	37.59
343.481	36.5
343.691	34.84
343.902	34.99
344.112	35.54
344.322	35.92
344.532	35.48
344.743	35.96
344.953	35.96
345.163	35.93
345.373	35.77
345.583	35.05
345.793	35.61
346.004	35.64
346.214	35.9
346.424	36.11
346.634	35.98
346.844	36.32
347.054	35.32
347.264	34.91
347.474	34.38
347.684	33.48
347.894	33.23
348.104	33.19
348.314	32.3
348.524	31.89
348.734	31.22
348.944	31.11
349.154	31.84
349.364	32.74
349.574	34.05
349.784	34.53
349.994	33.93
350.204	34.32
350.413	33.44
350.623	35.44
350.833	35.4
351.043	34.69
351.253	34.82
351.463	33.83
351.672	34.18
351.882	34
352.092	33.16
352.302	33.79
352.511	34.21
352.721	35.1
352.931	34.16
353.141	33.13
353.35	33.78
353.56	33.78
353.77	33.39
353.979	33.34
354.189	33.35
354.399	34.73
354.608	34.12
354.818	33.32
355.027	33.38
355.237	33.17
355.447	33.41
355.656	32.77
355.866	31.95
356.075	31.28
356.285	30.4
356.494	30.19
356.704	29.57
356.913	29.83
357.123	29.86
357.332	28.82
357.542	28.47
357.751	29.7
357.96	30.37
358.17	30.54
358.379	31.63
358.589	31.65
358.798	31.07
359.007	31.19
359.217	30.62
359.426	30.27
359.635	31.38
359.845	31.47
360.054	29.73
360.263	29.12
360.472	28.6
360.682	28.85
360.891	27.59
361.1	27.45
361.309	27.24
361.519	27.39
361.728	27.13
361.937	26.79
362.146	26.34
362.355	27.01
362.564	27
362.774	27.85
362.983	27.46
363.192	28.42
363.401	28.95
363.61	29.09
363.819	29.44
364.028	29.46
364.237	29.44
364.446	30.23
364.655	29.86
364.864	28.98
365.073	28.8
365.282	28.32
365.491	28.85
365.7	29.26
365.909	29.16
366.118	28.76
366.327	29.6
366.536	29.41
366.745	28.83
366.954	29.46
367.162	29.99
367.371	29.75
367.58	29.7
367.789	29.89
367.998	29.87
368.207	29.17
368.415	29.4
368.624	28.46
368.833	29.2
369.042	29.55
369.25	29.76
369.459	29.86
369.668	29.68
369.877	30.07
370.085	29.38
370.294	29.1
370.503	30.14
370.711	30.29
370.92	30.53
371.129	29.77
371.337	28.9
371.546	27.63
371.754	27.97
371.963	27.71
372.171	27.04
372.38	27
372.589	26.84
372.797	26.44
373.006	26.24
373.214	25.53
373.423	25.77
373.631	26.56
373.84	27.1
374.048	27.1
374.256	27.21
374.465	28.23
374.673	28.87
374.882	28.63
375.09	29.09
375.298	28.23
375.507	28.65
375.715	28.92
375.923	28.41
376.132	27.77
376.34	26.85
376.548	26.52
376.757	25.98
376.965	24.82
377.173	24.81
377.381	24.34
377.59	24.56
377.798	24.04
378.006	23.56
378.214	23.79
378.423	24.4
378.631	24.51
378.839	24.69
379.047	25.13
379.255	26.11
379.463	25.35
379.671	24.86
379.879	24.93
380.088	25.75
380.296	25.35
380.504	25.16
380.712	25.5
380.92	25.94
381.128	26.04
381.336	25.27
381.544	24.47
381.752	24.78
381.96	25.14
382.168	25.17
382.376	25.03
382.584	25.68
382.791	26.84
382.999	26.48
383.207	26.23
383.415	26.38
383.623	25.82
383.831	26.01
384.039	26.65
384.247	26.26
384.454	26.01
384.662	25.64
384.87	24.61
385.078	23.42
385.285	23.53
385.493	23.2
385.701	22.76
385.909	23.04
386.116	22.24
386.324	21.82
386.532	21.96
386.739	22.47
386.947	22.77
387.155	23.12
387.362	22.82
387.57	22.68
387.778	22.45
387.985	22.36
388.193	22.32
388.4	22.69
388.608	22.54
388.816	22.82
389.023	22.82
389.231	22.9
389.438	23.28
389.646	23.63
389.853	23.5
390.061	23.7
390.268	24.06
390.475	23.96
390.683	24.19
390.89	24.13
391.098	23.73
391.305	23.77
391.512	22.82
391.72	22.45
391.927	22.36
392.135	21.88
392.342	22.2
392.549	21.5
392.756	21.55
392.964	21.84
393.171	22.21
393.378	22.2
393.586	22.05
393.793	22.62
394	22.22
394.207	21.85
394.414	22.22
394.622	21.95
394.829	22.39
395.036	22.28
395.243	21.66
395.45	21.34
395.657	20.96
395.864	20.78
396.072	20.88
396.279	21.62
396.486	21.86
396.693	21.52
396.9	21.44
397.107	21.34
397.314	21.31
397.521	21.72
397.728	21.37
397.935	21.84
398.142	21.67
398.349	21.27
398.556	21.2
398.763	21.28
398.97	21.81
399.177	21.95
399.383	21.99
399.59	22.37
399.797	21.66
400.004	22.16
400.211	22.24
400.418	22.43
400.625	22.96
400.831	22.79
401.038	23.15
401.245	23.16
401.452	22.83
401.658	23.09
401.865	22.82
402.072	23.73
402.279	23.53
402.485	22.83
402.692	22.52
402.899	22.42
403.105	22.06
403.312	21.74
403.519	21.68
403.725	22
403.932	21.24
404.138	21.31
404.345	21.26
404.552	21.64
404.758	22.25
404.965	22.66
405.171	22.47
405.378	22.59
405.584	22.59
405.791	22.59
405.997	22.48
406.204	23.03
406.41	23.25
406.617	22.96
406.823	22.35
407.029	22.66
407.236	22.99
407.442	23.31
407.649	23.2
407.855	22.91
408.061	22.51
408.268	22.75
408.474	23.04
408.68	23.08
408.887	23.14
409.093	23.33
409.299	22.17
409.505	21.69
409.712	21.83
409.918	21.65
410.124	22.16
410.33	22.18
410.537	22.3
410.743	22.14
410.949	22.15
411.155	22.1
411.361	21.83
411.567	22.43
411.773	22.44
411.98	22.31
412.186	22.7
412.392	22.43
412.598	22.59
412.804	22.64
413.01	22.49
413.216	22.87
413.422	23.49
413.628	23.64
413.834	23.57
414.04	23.64
414.246	23.56
414.452	23.83
414.658	23.72
414.864	23.65
415.07	23.34
415.275	23.01
415.481	22.33
415.687	21.86
415.893	21.91
416.099	22.17
416.305	22.24
416.511	21.98
416.716	21.89
416.922	21.98
417.128	22.28
417.334	22.24
417.539	22.48
417.745	22.23
417.951	22.05
418.157	22.13
418.362	21.64
418.568	21.36
418.774	21.14
418.979	21.04
419.185	20.72
419.391	20.36
419.596	20.47
419.802	20.17
420.008	20.47
420.213	22.11
420.419	21.88
420.624	22.08
420.83	22.14
421.035	22.5
421.241	22.66
421.446	23.06
421.652	23.24
421.857	23.18
422.063	23.52
422.268	23.69
422.474	22.22
422.679	22.5
422.885	22.34
423.09	22.23
423.295	22.12
423.501	21.87
423.706	21.75
423.911	21.85
424.117	21.78
424.322	21.72
424.527	21.46
424.733	21.71
424.938	21.63
425.143	21.68
425.349	21.71
425.554	21.63
425.759	21.97
425.964	22.01
426.169	22.07
426.375	21.92
426.58	22.03
426.785	22.33
426.99	22.26
427.195	22.01
427.4	22.58
427.605	23.08
427.811	23.7
428.016	23.7
428.221	23.61
428.426	23.97
428.631	24.42
428.836	24.45
429.041	24.44
429.246	24.59
429.451	24.96
429.656	24.92
429.861	24.71
430.066	24.53
430.271	24.84
430.476	25.13
430.681	24.74
430.886	24.71
431.09	24.79
431.295	24.95
431.5	24.98
431.705	24.99
431.91	24.91
432.115	25.05
432.32	25.07
432.524	24.72
432.729	24.83
432.934	24.82
433.139	25.05
433.343	24.94
433.548	24.7
433.753	24.66
433.958	24.88
434.162	25.03
434.367	24.87
434.572	24.43
434.776	24.78
434.981	24.91
435.186	25.35
435.39	25.35
435.595	25.84
435.799	26.21
436.004	26.33
436.209	26.35
436.413	26.23
436.618	26.61
436.822	27.18
437.027	27.08
437.231	26.95
437.436	26.79
437.64	26.86
437.845	27
438.049	27.05
438.253	26.97
438.458	27.05
438.662	27.09
438.867	27.34
439.071	27.33
439.275	27.15
439.48	27.19
439.684	27.44
439.888	27.46
440.093	27.44
440.297	27.38
440.501	27.39
440.706	27.5
440.91	27.8
441.114	27.73
441.318	27.94
441.523	28.51
441.727	28.64
441.931	28.58
442.135	28.67
442.339	28.64
442.543	28.97
442.748	29.21
442.952	29.44
443.156	29.44
443.36	29.54
443.564	29.56
443.768	29.48
443.972	29.48
444.176	29.32
444.38	29.53
444.584	29.35
444.788	29.16
444.992	29.1
445.196	28.98
445.4	29.15
445.604	29.1
445.808	29.48
446.012	29.48
446.216	29.55
446.42	29.78
446.624	29.8
446.828	29.91
447.032	30.24
447.235	30.51
447.439	30.64
447.643	30.46
447.847	30.81
448.051	30.71
448.254	30.81
448.458	31.16
448.662	31.29
448.866	31.41
449.069	31.84
449.273	31.98
449.477	31.86
449.681	32.17
449.884	32.72
450.088	32.43
450.292	32.34
450.495	32.57
450.699	32.65
450.902	32.69
451.106	32.36
451.31	32.42
451.513	32.75
451.717	33.14
451.92	33.09
452.124	32.93
452.327	33.54
452.531	33.5
452.734	33.65
452.938	33.59
453.141	33.74
453.345	34.18
453.548	34.38
453.752	34.31
453.955	34.39
454.158	34.49
454.362	34.82
454.565	34.43
454.769	34.62
454.972	34.54
455.175	34.7
455.379	34.82
455.582	34.96
455.785	34.75
455.988	34.48
456.192	34.5
456.395	34.67
456.598	34.66
456.801	34.79
457.005	34.93
457.208	34.9
457.411	34.68
457.614	34.67
457.817	34.69
458.021	34.61
458.224	34.65
458.427	34.54
458.63	34.47
458.833	34.52
459.036	34.27
459.239	34.27
459.442	34.27
459.645	34.28
459.848	34.37
460.051	34.47
460.254	34.5
460.457	34.72
460.66	34.93
460.863	34.97
461.066	34.85
461.269	35.29
461.472	35.5
461.675	35.55
461.878	36.14
462.081	36.21
462.284	36.4
462.486	36.63
462.689	36.47
462.892	36.5
463.095	36.52
463.298	36.83
463.5	37.03
463.703	37.08
463.906	37.48
464.109	37.37
464.311	37.37
464.514	37.19
464.717	37.24
464.92	37.21
465.122	37.15
465.325	37.24
465.528	37.28
465.73	37.18
465.933	36.87
466.135	36.84
466.338	36.58
466.541	36.53
466.743	36.68
466.946	36.91
467.148	37.23
467.351	37.45
467.553	37.65
467.756	37.57
467.958	37.37
468.161	37.61
468.363	37.47
468.566	37.46
468.768	37.85
468.971	38.07
469.173	37.98
469.375	37.94
469.578	37.89
469.78	37.76
469.983	37.78
470.185	38.03
470.387	38.32
470.59	38.29
470.792	38.32
470.994	38.16
471.196	37.98
471.399	37.92
471.601	37.67
471.803	37.79
472.005	37.87
472.208	37.88
472.41	37.96
472.612	37.65
472.814	37.89
473.016	38.1
473.218	38.28
473.421	38.22
473.623	38.52
473.825	38.84
474.027	38.64
474.229	38.52
474.431	38.48
474.633	38.31
474.835	38.37
475.037	38.16
475.239	38.25
475.441	37.8
475.643	37.96
475.845	37.84
476.047	38.06
476.249	38.33
476.451	38.35
476.653	38.6
476.855	38.59
477.057	38.59
477.258	38.57
477.46	38.46
477.662	38.85
477.864	38.69
478.066	38.52
478.268	38.31
478.469	38.13
478.671	38.19
478.873	38.03
479.075	38.32
479.276	38.27
479.478	38.49
479.68	38.37
479.882	38.21
480.083	38.38
480.285	38.48
480.487	38.46
480.688	38.51
480.89	38.37
481.091	38.28
481.293	38.18
481.495	38.08
481.696	37.8
481.898	37.78
482.099	37.64
482.301	37.37
482.502	37.23
482.704	36.91
482.905	36.65
483.107	36.6
483.308	36.53
483.51	36.32
483.711	36.21
483.913	36.21
484.114	36.18
484.315	36.23
484.517	36.29
484.718	36.24
484.92	36.39
485.121	36.56
485.322	36.54
485.524	36.51
485.725	36.71
485.926	36.92
486.127	37.01
486.329	37.09
486.53	36.97
486.731	36.99
486.932	37.04
487.134	37.01
487.335	36.96
487.536	37.12
487.737	37.31
487.938	37.29
488.139	37.36
488.341	37.32
488.542	37.35
488.743	37.44
488.944	37.5
489.145	37.67
489.346	37.72
489.547	37.8
489.748	37.74
489.949	37.73
490.15	37.68
490.351	37.61
490.552	37.72
490.753	37.64
490.954	37.64
491.155	37.6
491.356	37.43
491.557	37.45
491.758	37.46
491.959	37.42
492.159	37.33
492.36	37.38
492.561	37.45
492.762	37.54
492.963	37.68
493.164	37.67
493.364	37.79
493.565	38.06
493.766	38.31
493.967	38.67
494.167	39
494.368	39.17
494.569	39.4
494.769	39.48
494.97	39.2
495.171	39.07
495.371	39.16
495.572	39.26
495.773	39.31
495.973	39.24
496.174	38.99
496.375	38.78
496.575	38.69
496.776	38.67
496.976	38.72
497.177	38.91
497.377	39.02
497.578	39.3
497.778	39.23
497.979	39.25
498.179	39.32
498.38	39.37
498.58	39.59
498.78	39.66
498.981	39.93
499.181	39.92
499.382	40.1
499.582	40.25
499.782	40.11
499.983	40.23
500.183	40.33
500.383	40.2
500.584	40.56
500.784	40.7
500.984	40.94
501.184	40.94
501.385	41
501.585	41.08
501.785	41.04
501.985	41.25
502.185	40.93
502.386	41.14
502.586	41.24
502.786	41.03
502.986	40.89
503.186	40.85
503.386	40.61
503.586	40.65
503.786	40.62
503.987	40.95
504.187	40.83
504.387	41.07
504.587	40.9
504.787	41.06
504.987	40.99
505.187	41.04
505.387	41.13
505.587	41.22
505.786	41.01
505.986	41.01
506.186	40.8
506.386	40.91
506.586	41.08
506.786	40.9
506.986	40.97
507.186	41.04
507.386	41.1
507.585	40.97
507.785	41.16
507.985	41.55
508.185	41.47
508.384	41.46
508.584	41.39
508.784	41.44
508.984	41.59
509.183	41.58
509.383	41.64
509.583	41.62
509.782	41.69
509.982	41.54
510.182	41.38
510.381	41.69
510.581	41.93
510.781	42.05
510.98	41.86
511.18	42.04
511.379	42.15
511.579	42.21
511.778	42.24
511.978	42.45
512.177	42.54
512.377	42.62
512.576	42.47
512.776	42.38
512.975	42.22
513.175	42.44
513.374	42.51
513.573	42.61
513.773	42.87
513.972	42.99
514.172	42.8
514.371	43.03
514.57	43.07
514.77	43.21
514.969	43.36
515.168	43.67
515.367	43.67
515.567	43.38
515.766	43.31
515.965	43.19
516.164	43.13
516.364	43.31
516.563	43.15
516.762	43.1
516.961	42.76
517.16	42.56
517.359	42.68
517.559	42.58
517.758	42.6
517.957	42.65
518.156	42.6
518.355	42.62
518.554	42.67
518.753	42.64
518.952	42.7
519.151	43.05
519.35	43.15
519.549	42.93
519.748	43.1
519.947	43.25
520.146	43.28
520.345	43.39
520.544	43.53
520.743	43.6
520.942	43.72
521.141	43.98
521.339	43.96
521.538	44.1
521.737	44.38
521.936	44.3
522.135	44.2
522.333	44.11
522.532	44.08
522.731	43.89
522.93	43.98
523.129	43.91
523.327	43.6
523.526	43.4
523.725	43.47
523.923	43.43
524.122	43.47
524.321	43.55
524.519	43.58
524.718	43.53
524.917	43.55
525.115	43.48
525.314	43.51
525.512	43.56
525.711	43.56
525.909	43.44
526.108	43.36
526.306	43.39
526.505	43.47
526.703	43.36
526.902	43.32
527.1	43.41
527.299	43.36
527.497	43.27
527.696	43.18
527.894	43.27
528.092	43.29
528.291	43.25
528.489	43.19
528.688	43.02
528.886	43.08
529.084	43.09
529.283	43.1
529.481	43.15
529.679	43.35
529.877	43.52
530.076	43.56
530.274	43.58
530.472	43.71
530.67	43.87
530.869	44.22
531.067	44.32
531.265	44.58
531.463	44.72
531.661	44.9
531.859	44.82
532.057	44.84
532.255	44.9
532.454	45.02
532.652	45.05
532.85	45.09
533.048	44.99
533.246	45.07
533.444	45.02
533.642	44.96
533.84	44.82
534.038	44.84
534.236	44.87
534.434	45.01
534.632	44.94
534.83	44.88
535.027	44.96
535.225	45.13
535.423	45.04
535.621	45.12
535.819	45.16
536.017	45.12
536.215	45.1
536.412	45.06
536.61	44.94
536.808	44.77
537.006	44.87
537.203	44.98
537.401	45.11
537.599	45.24
537.797	45.25
537.994	45.36
538.192	45.51
538.39	45.72
538.587	45.75
538.785	45.89
538.983	46.32
539.18	46.44
539.378	46.31
539.575	46.06
539.773	45.97
539.97	46.02
540.168	45.97
540.366	45.98
540.563	45.95
540.761	45.87
540.958	45.8
541.155	45.84
541.353	45.92
541.55	45.91
541.748	46.05
541.945	46.13
542.143	46.1
542.34	46.23
542.537	46.47
542.735	46.61
542.932	46.97
543.129	47.02
543.327	47.03
543.524	46.83
543.721	47.09
543.919	47.2
544.116	47.45
544.313	47.48
544.51	47.45
544.708	47.56
544.905	47.68
545.102	47.57
545.299	47.84
545.496	47.92
545.693	48.24
545.891	48.3
546.088	48.28
546.285	48.27
546.482	48.16
546.679	48.15
546.876	48.02
547.073	48.04
547.27	48.14
547.467	48.02
547.664	48.06
547.861	48.08
548.058	48.02
548.255	48.29
548.452	48.35
548.649	48.79
548.846	48.89
549.043	49.03
549.24	49.11
549.437	49.09
549.633	49.24
549.83	49.4
550.027	49.43
550.224	49.44
550.421	49.42
550.618	49.29
550.814	49.27
551.011	49.12
551.208	49.21
551.405	48.99
551.601	49.05
551.798	49.07
551.995	49.13
552.191	48.99
552.388	48.89
552.585	48.78
552.781	48.86
552.978	48.77
553.175	48.97
553.371	48.85
553.568	49.01
553.764	49.32
553.961	49.19
554.157	48.72
554.354	48.64
554.55	48.95
554.747	48.63
554.943	48.74
555.14	48.78
555.336	48.77
555.533	48.83
555.729	48.99
555.926	48.73
556.122	48.87
556.318	49.41
556.515	49.71
556.711	49.8
556.907	50.22
557.104	50.56
557.3	50.74
557.496	50.81
557.693	50.58
557.889	50.74
558.085	50.4
558.281	50.65
558.478	50.67
558.674	50.32
558.87	50.06
559.066	49.99
559.262	49.72
559.459	49.31
559.655	49.11
559.851	49.44
560.047	48.83
560.243	49.2
560.439	48.79
560.635	48.69
560.831	49.21
561.027	49.35
561.223	49.52
561.419	49.66
561.615	50.11
561.811	50.63
562.007	50.7
562.203	51.19
562.399	51.08
562.595	51.47
562.791	51.41
562.987	51.4
563.183	51.55
563.379	51.37
563.575	51.11
563.771	50.92
563.966	50.84
564.162	50.91
564.358	50.64
564.554	50.76
564.75	50.64
564.945	50.67
565.141	50.5
565.337	50.34
565.533	50.26
565.728	50.36
565.924	50.44
566.12	50.24
566.315	49.95
566.511	49.9
566.707	49.98
566.902	49.98
567.098	50.15
567.293	50.3
567.489	50.32
567.684	50.48
567.88	50.36
568.076	50.3
568.271	50.52
568.467	50.48
568.662	50.69
568.858	50.27
569.053	50.51
569.248	50.18
569.444	49.81
569.639	50.01
569.835	49.89
570.03	49.94
570.225	50.27
570.421	50.15
570.616	50.31
570.812	50.43
571.007	50.76
571.202	50.46
571.397	50.45
571.593	50.66
571.788	50.32
571.983	50.62
572.178	50.84
572.374	50.8
572.569	50.61
572.764	50.78
572.959	50.75
573.154	50.57
573.35	50.85
573.545	51.09
573.74	51.18
573.935	51.76
574.13	51.52
574.325	51.24
574.52	51.02
574.715	51.32
574.91	51.27
575.105	51.27
575.3	51.37
575.495	51.15
575.69	51.52
575.885	51.4
576.08	51.38
576.275	51.41
576.47	51.57
576.665	51.81
576.86	51.95
577.055	51.77
577.25	51.79
577.444	52
577.639	52.36
577.834	52.03
578.029	52.49
578.224	52.43
578.418	52.67
578.613	52.89
578.808	52.73
579.003	52.56
579.197	52.79
579.392	52.7
579.587	52.67
579.781	52.52
579.976	52.62
580.171	52.45
580.365	52.43
580.56	52.26
580.755	52.01
580.949	52.36
581.144	52.69
581.338	52.77
581.533	53.07
581.727	53.19
581.922	53.16
582.116	53.25
582.311	53.15
582.505	53.06
582.7	53.12
582.894	53.18
583.089	53.02
583.283	52.76
583.478	52.96
583.672	53.13
583.866	53.12
584.061	53.25
584.255	53.18
584.449	53.29
584.644	53.66
584.838	53.94
585.032	54.09
585.226	54
585.421	54.3
585.615	54.13
585.809	53.68
586.003	53.85
586.198	53.78
586.392	53.76
586.586	53.56
586.78	53.05
586.974	52.94
587.168	52.56
587.363	52.62
587.557	52.82
587.751	53.07
587.945	53.2
588.139	53.32
588.333	53.45
588.527	53.42
588.721	53.52
588.915	53.71
589.109	53.67
589.303	53.99
589.497	53.78
589.691	53.55
589.885	53.03
590.079	53.31
590.273	52.96
590.466	52.8
590.66	52.71
590.854	52.54
591.048	52.7
591.242	52.54
591.436	52.67
591.629	52.84
591.823	52.86
592.017	53.3
592.211	53.12
592.404	53.28
592.598	52.95
592.792	52.93
592.986	53.13
593.179	52.57
593.373	52.33
593.567	51.99
593.76	51.95
593.954	51.93
594.147	51.88
594.341	51.85
594.535	52.14
594.728	52.51
594.922	52.53
595.115	52.57
595.309	52.91
595.502	53.12
595.696	53.24
595.889	53.37
596.083	53.3
596.276	53.21
596.47	53.07
596.663	52.56
596.856	52.45
597.05	52.61
597.243	52.61
597.437	52.52
597.63	52.52
597.823	52.45
598.017	52.37
598.21	52.4
598.403	52.49
598.596	52.74
598.79	53.2
598.983	53.27
599.176	53.01
599.369	53.37
599.563	53.41
599.756	53.5
599.949	53.98
600.142	54.16
600.335	54.12
600.528	54.01
600.722	53.91
600.915	53.98
601.108	53.96
601.301	54.1
601.494	53.73
601.687	53.95
601.88	54.04
602.073	53.69
602.266	53.48
602.459	53.35
602.652	53.27
602.845	53.44
603.038	53.03
603.231	52.9
603.424	52.93
603.617	52.91
603.809	52.67
604.002	52.57
604.195	52.59
604.388	52.55
604.581	52.86
604.774	53.14
604.966	52.89
605.159	52.82
605.352	53.02
605.545	53.05
605.737	53.37
605.93	53.24
606.123	53.42
606.316	53.88
606.508	53.87
606.701	53.61
606.894	53.21
607.086	53.62
607.279	54.19
607.471	54.08
607.664	54.02
607.857	53.74
608.049	54.44
608.242	54.31
608.434	54.28
608.627	54.93
608.819	55.17
609.012	55.86
609.204	56.04
609.397	55.86
609.589	56.26
609.782	56.69
609.974	56.69
610.166	56.68
610.359	57.28
610.551	57.56
610.743	57.85
610.936	58.11
611.128	58.06
611.32	57.91
611.513	58.25
611.705	58.11
611.897	57.9
612.09	58.09
612.282	57.88
612.474	57.76
612.666	57.3
612.858	57.1
613.051	57.06
613.243	56.87
613.435	57.22
613.627	57.31
613.819	57.68
614.011	57.95
614.203	58.08
614.395	58.04
614.588	57.93
614.78	57.99
614.972	57.59
615.164	57.64
615.356	57.69
615.548	57.81
615.74	57.53
615.932	57.23
616.124	57.28
616.315	57.21
616.507	57.47
616.699	57.34
616.891	56.84
617.083	56.59
617.275	56.48
617.467	55.96
617.659	55.51
617.85	55.41
618.042	55.71
618.234	55.35
618.426	55.78
618.618	55.79
618.809	55.75
619.001	56.01
619.193	56.59
619.384	55.9
619.576	56.49
619.768	56.54
619.959	56.78
620.151	56.48
620.343	56.76
620.534	56.92
620.726	56.52
620.917	57
621.109	57.21
621.301	57.06
621.492	57.76
621.684	57.51
621.875	57.79
622.067	57.64
622.258	57.99
622.45	57.93
622.641	58
622.832	57.67
623.024	56.96
623.215	56.7
623.407	56.35
623.598	56.2
623.789	56.37
623.981	55.79
624.172	56.01
624.363	55.92
624.555	56.04
624.746	55.3
624.937	55.53
625.129	56.12
625.32	56.37
625.511	56.19
625.702	55.96
625.893	55.75
626.085	55.82
626.276	55.29
626.467	54.84
626.658	54.72
626.849	54.77
627.04	55.16
627.231	54.87
627.422	54.75
627.614	54.79
627.805	54.85
627.996	55.07
628.187	54.97
628.378	55.48
628.569	55.88
628.76	55.73
628.951	55.8
629.142	55.55
629.332	55.08
629.523	55.21
629.714	55.53
629.905	55.63
630.096	55.42
630.287	55.43
630.478	55.57
630.669	55.81
630.859	55.86
631.05	56.1
631.241	56.07
631.432	56.27
631.623	56.51
631.813	56.42
632.004	56.52
632.195	56.53
632.385	57.12
632.576	56.95
632.767	56.95
632.957	56.87
633.148	56.69
633.339	56.8
633.529	57.19
633.72	56.73
633.91	56.67
634.101	56.79
634.292	56.7
634.482	56.31
634.673	56.57
634.863	56.33
635.054	56.29
635.244	56.82
635.435	56.79
635.625	56.71
635.815	56.87
636.006	57.12
636.196	57.13
636.387	57.17
636.577	57.05
636.767	56.89
636.958	57.22
637.148	57.34
637.338	56.47
637.529	56.84
637.719	56.94
637.909	57.04
638.099	57.09
638.29	56.98
638.48	57.5
638.67	57.77
638.86	57.43
639.05	57.72
639.241	57.94
639.431	58.17
639.621	58.17
639.811	58.39
640.001	58.31
640.191	58.23
640.381	58.34
640.571	57.67
640.761	57.75
640.951	58.05
641.141	57.37
641.331	57.36
641.521	57.67
641.711	57.58
641.901	57.33
642.091	57.45
642.281	57.25
642.471	57.66
642.661	58.16
642.851	58.19
643.041	57.87
643.231	57.72
643.42	58
643.61	58.14
643.8	58.11
643.99	57.64
644.18	57.93
644.369	58.01
644.559	57.26
644.749	56.93
644.939	57.04
645.128	57.05
645.318	57.93
645.508	57.23
645.697	56.69
645.887	56.24
646.076	56.34
646.266	56.35
646.456	56.36
646.645	57.17
646.835	57.47
647.024	57.36
647.214	58.28
647.403	58.49
647.593	59.11
647.782	59.28
647.972	59.79
648.161	59.79
648.351	59.68
648.54	60.15
648.73	59.89
648.919	59.91
649.108	60.3
649.298	59.87
649.487	59.14
649.677	58.94
649.866	58.69
650.055	58.64
650.244	59.29
650.434	59.23
650.623	59.07
650.812	58.89
651.002	58.68
651.191	57.9
651.38	58.4
651.569	58.36
651.758	58.28
651.947	58.43
652.137	58.62
652.326	58.16
652.515	58.57
652.704	58.36
652.893	58.11
653.082	57.99
653.271	58.94
653.46	58.47
653.649	58.13
653.838	58.07
654.027	58.34
654.216	58.66
654.405	58.31
654.594	58.25
654.783	58.26
654.972	58.53
655.161	58.58
655.35	58.33
655.539	58.08
655.728	58.36
655.916	58.4
656.105	58.13
656.294	57.94
656.483	58.15
656.672	57.59
656.86	57.58
657.049	57.59
657.238	57.48
657.427	57.52
657.615	57.64
657.804	57.27
657.993	57.15
658.181	57.33
658.37	56.7
658.559	57.18
658.747	57.39
658.936	57.18
659.125	57.27
659.313	57.19
659.502	57.23
659.69	57.24
659.879	57.83
660.067	58.29
660.256	58.18
660.444	59.01
660.633	58.73
660.821	59.01
661.01	58.86
661.198	58.63
661.387	59.35
661.575	59.56
661.763	59.33
661.952	59.04
662.14	59.34
662.328	59.75
662.517	59.72
662.705	60.39
662.893	60.21
663.082	60.92
663.27	61.64
663.458	61.2
663.646	60.78
663.834	60.67
664.023	60.35
664.211	60.35
664.399	60.68
664.587	60.09
664.775	59.64
664.963	59.86
665.152	59.68
665.34	59.06
665.528	59.2
665.716	58.78
665.904	59.12
666.092	59.77
666.28	59.39
666.468	58.91
666.656	59.31
666.844	59.58
667.032	59.93
667.22	60.29
667.408	60.45
667.596	60.34
667.784	60.42
667.971	60.95
668.159	60.49
668.347	60.54
668.535	60.81
668.723	59.91
668.911	60.04
669.098	59.47
669.286	59.5
669.474	59.3
669.662	59.68
669.849	60.08
670.037	59.31
670.225	59.71
670.413	59.66
670.6	59.19
670.788	59.75
670.976	59.28
671.163	59.16
671.351	59
671.538	59.46
671.726	59.87
671.913	59.8
672.101	60.49
672.289	60.07
672.476	60.36
672.664	60.62
672.851	61.06
673.039	61.48
673.226	61.6
673.413	61.4
673.601	61.26
673.788	60.78
673.976	60.95
674.163	61.04
674.35	61.83
674.538	60.59
674.725	60.74
674.912	60.14
675.1	59.88
675.287	60.14
675.474	60.28
675.662	60.19
675.849	60.26
676.036	59.55
676.223	58.85
676.411	57.69
676.598	58.75
676.785	59.42
676.972	59.42
677.159	59.15
677.346	58.62
677.533	59.11
677.721	58.32
677.908	57.98
678.095	58.8
678.282	59.32
678.469	60.49
678.656	60.06
678.843	59.66
679.03	59.14
679.217	59.73
679.404	60.23
679.591	60.11
679.778	61.14
679.964	60.96
680.151	60.18
680.338	59.23
680.525	58.82
680.712	59.18
680.899	59.62
681.086	60.38
681.272	60.09
681.459	60.22
681.646	59.92
681.833	59.72
682.02	60.11
682.206	60.93
682.393	61.42
682.58	61.94
682.766	61.8
682.953	60.83
683.14	61.04
683.326	61.29
683.513	61.33
683.7	61.28
683.886	61.25
684.073	61.72
684.259	61.87
684.446	62.56
684.632	61.63
684.819	62.01
685.005	62.99
685.192	62.91
685.378	63.06
685.565	62.63
685.751	63.51
685.938	63.61
686.124	63.64
686.31	63.9
686.497	63.34
686.683	63.11
686.87	62.58
687.056	61.72
687.242	61.59
687.429	61.9
687.615	62.21
687.801	60.78
687.987	60.5
688.174	60.28
688.36	59.79
688.546	60.37
688.732	60.64
688.918	60.92
689.105	61.29
689.291	61.47
689.477	61.06
689.663	60.77
689.849	61.37
690.035	61.56
690.221	61.83
690.407	61.48
690.593	60.43
690.779	61.24
690.965	61.54
691.151	61.51
691.337	61.5
691.523	61.35
691.709	60.88
691.895	61.72
692.081	61.89
692.267	61.2
692.453	61.35
692.639	62.65
692.825	62.73
693.011	62.68
693.196	62.58
693.382	62.83
693.568	62.83
693.754	63.4
693.94	62.71
694.125	63.35
694.311	63.59
694.497	63.83
694.682	63.04
694.868	63.32
695.054	62.68
695.239	62.91
695.425	62.48
695.611	62.3
695.796	63.35
695.982	64.15
696.168	63.3
696.353	63.4
696.539	62.96
696.724	62.98
696.91	62.1
697.095	62.68
697.281	62.67
697.466	62.37
697.652	62.64
697.837	61.6
698.023	61.05
698.208	60.78
698.393	60.84
698.579	60.81
698.764	61.11
698.949	60.84
699.135	60.5
699.32	60.46
699.505	61.08
699.691	60.77
699.876	60.99
700.061	60.12
700.246	60.71
700.432	61.09
700.617	61.46
700.802	60.93
700.987	61.49
701.172	62.67
701.358	63.22
701.543	62.68
701.728	62.04
701.913	62.57
702.098	63.67
702.283	63.87
702.468	63.68
702.653	63.33
702.838	63.56
703.023	64.04
703.208	62.59
703.393	62.13
703.578	62.51
703.763	63.51
703.948	63.25
704.133	63.72
704.318	64.24
704.503	64.52
704.688	66.18
704.873	66.55
705.057	66.56
705.242	67.57
705.427	67.5
705.612	67.57
705.797	67.14
705.981	68
706.166	68.11
706.351	67.14
706.536	67.1
706.72	66.93
706.905	67.81
707.09	68
707.274	67.26
707.459	67.86
707.644	68.19
707.828	69.32
708.013	68.73
708.197	68.8
708.382	69.75
708.567	69.66
708.751	68.55
708.936	67.55
709.12	67.46
709.305	67.71
709.489	67.67
709.673	67.29
709.858	66.71
710.042	66.32
710.227	66.42
710.411	65.75
710.596	65.51
710.78	65.85
710.964	65.57
711.149	65.86
711.333	65.63
711.517	65.85
711.702	65.95
711.886	66.06
712.07	66.07
712.254	65.12
712.438	65.11
712.623	65.44
712.807	64.74
712.991	65.76
713.175	66.41
713.359	66.92
713.544	66.71
713.728	65.8
713.912	66.37
714.096	66.41
714.28	67.09
714.464	66.87
714.648	66.95
714.832	67.45
715.016	67.42
715.2	66.37
715.384	65.79
715.568	65.11
715.752	65.51
715.936	64.51
716.12	65.33
716.304	64.84
716.488	64.9
716.671	64.51
716.855	65.31
717.039	65.23
717.223	64.93
717.407	64.97
717.59	64.34
717.774	65.01
717.958	66.17
718.142	65.38
718.325	66.48
718.509	67.06
718.693	67.2
718.877	67.16
719.06	66.29
719.244	66.43
719.428	67.48
719.611	69.46
719.795	69.64
719.978	69.04
720.162	69.05
720.345	68.44
720.529	68.77
720.713	68.72
720.896	67.07
721.08	68.36
721.263	69.2
721.446	69.87
721.63	69.28
721.813	69.06
721.997	68.85
722.18	68.26
722.364	68.39
722.547	66.71
722.73	66.77
722.914	67.01
723.097	67.74
723.28	67.24
723.464	66.84
723.647	67.02
723.83	65.59
724.013	66.1
724.197	66.68
724.38	66
724.563	67.04
724.746	67.62
724.929	69.35
725.112	68.86
725.296	69.45
725.479	68.57
725.662	67.88
725.845	69.34
726.028	67.53
726.211	67.95
726.394	68.57
726.577	68.03
726.76	66.55
726.943	66.69
727.126	66.15
727.309	66
727.492	65.49
727.675	66.28
727.858	65.19
728.041	65.96
728.224	66.27
728.407	66.71
728.589	67.53
728.772	67.23
728.955	65.9
729.138	65.53
729.321	65.61
729.503	66.41
729.686	66.51
729.869	67.72
730.052	68.1
730.234	68.16
730.417	67.13
730.6	66.12
730.782	67.73
730.965	67.37
731.148	66.56
731.33	66.87
731.513	66.52
731.695	66.47
731.878	66.34
732.061	66.38
732.243	65.27
732.426	65.07
732.608	66.09
732.791	65.85
732.973	67.24
733.156	68.68
733.338	67.76
733.52	68.47
733.703	67.62
733.885	67.31
734.068	66.73
734.25	67.93
734.432	68.07
734.615	66.38
734.797	66.9
734.979	66.06
735.162	66.77
735.344	68.51
735.526	67.7
735.708	69.18
735.891	69.53
736.073	70.33
736.255	70.81
736.437	70.94
736.619	72.92
736.802	72.38
736.984	73.32
737.166	73.36
737.348	71.26
737.53	71.39
737.712	69.21
737.894	70.25
738.076	70.35
738.258	70.4
738.44	71.56
738.622	70.9
738.804	70.83
738.986	69.68
739.168	67.82
739.35	69.01
739.532	69.3
739.714	72.22
739.896	70.94
740.078	72.32
740.259	70.61
740.441	70.88
740.623	70.16
740.805	70.56
740.987	71.76
741.168	71.99
741.35	70.97
741.532	71.39
741.714	69.88
741.895	69.73
742.077	68.38
742.259	68.46
742.44	69.21
742.622	70.21
742.804	69.98
742.985	69.37
743.167	69.78
743.348	71.21
743.53	71.26
743.711	72.21
743.893	75.36
744.075	75.18
744.256	75.75
744.438	73.25
744.619	74.17
744.8	74.76
744.982	75.26
745.163	76.19
745.345	74.51
745.526	74.63
745.707	73.79
745.889	71.81
746.07	72.27
746.252	73.24
746.433	74.27
746.614	73.16
746.795	72.3
746.977	72.98
747.158	72.37
747.339	73.72
747.52	73.42
747.702	73.3
747.883	73.81
748.064	73.79
748.245	73.63
748.426	74.38
748.607	76.42
748.788	77.12
748.97	77.2
749.151	79.01
749.332	79.44
749.513	78.74
749.694	79.17
749.875	77.61
750.056	79.25
750.237	79.9
750.418	80.49
750.599	76.86
750.78	77.22
750.96	75.71
751.141	74.65
751.322	73.48
751.503	75.06
751.684	76.24
751.865	78.75
752.046	78.3
752.226	78.47
752.407	76.94
752.588	78.17
752.769	76.18
752.949	76.99
753.13	76.32
753.311	74.99
753.492	73.64
753.672	73.16
753.853	72.57
754.034	72.34
754.214	71.3
754.395	71.76
754.575	71.84
754.756	73.62
754.937	74.58
755.117	75.74
755.298	77.57
755.478	80.57
755.659	79.54
755.839	79.67
756.02	78.75
756.2	78.95
756.381	78.09
756.561	78.34
756.741	78.52
756.922	77.16
757.102	76.41
757.283	75.93
757.463	75.28
757.643	76.33
757.823	78.15
758.004	78.26
758.184	76.48
758.364	77.24
758.545	77.19
758.725	76.68
758.905	75.55
759.085	76.48
759.265	77.47
759.446	75.15
759.626	73.65
759.806	70.56
759.986	70.86
760.166	73.4
760.346	73.16
760.526	73.73
760.706	74.65
760.886	75.66
761.066	75.05
761.246	74.94
761.426	74.08
761.606	74.7
761.786	76.1
761.966	75.93
762.146	75.26
762.326	75.32
762.506	74.58
762.686	72.31
762.866	71.54
763.046	70
763.225	70.07
763.405	70.22
763.585	69.58
763.765	68.42
763.945	67.02
764.124	67.11
764.304	67.32
764.484	67.47
764.664	67.89
764.843	68.39
765.023	69.87
765.203	69.75
765.382	71.24
765.562	72
765.741	72.63
765.921	74.23
766.101	74.18
766.28	72.95
766.46	73.98
766.639	74.99
766.819	77.36
766.998	77.79
767.178	77.94
767.357	77.11
767.537	79.17
767.716	79.83
767.896	79.66
768.075	79.29
768.254	80.03
768.434	81.25
768.613	81.89
768.792	80.47
768.972	80.25
769.151	80.2
769.33	82.21
769.51	80.43
769.689	81.87
769.868	82.69
770.047	84.78
770.226	85.05
770.406	83.88
770.585	83.37
770.764	83.18
770.943	85.52
771.122	85.77
771.301	84.59
771.48	85.19
771.66	86.19
771.839	84.93
772.018	85.2
772.197	85.44
772.376	83.67
772.555	81.74
772.734	81.99
772.913	76.3
773.092	78.36
773.271	78.28
773.449	76.47
773.628	75.87
773.807	78.49
773.986	77.51
774.165	79.64
774.344	81.26
774.523	86.04
774.701	86.45
774.88	91.3
775.059	87.87
775.238	89.06
775.417	90.68
775.595	87.19
775.774	86.63
775.953	87.02
776.131	85.18
776.31	85.29
776.489	83.83
776.667	84.68
776.846	84.25
777.025	83.82
777.203	82.74
777.382	84.91
777.56	85.93
777.739	82.41
777.917	81.76
778.096	82.37
778.274	81.27
778.453	79.69
778.631	76.79
778.81	75.99
778.988	76.92
779.166	78.7
779.345	75.81
779.523	75.66
779.702	80.13
779.88	80.42
780.058	79.3
780.237	81.04
780.415	81.8
780.593	83.53
780.771	84.04
780.95	84.69
781.128	82.73
781.306	84.57
781.484	86.86
781.662	85.1
781.841	85.47
782.019	87.98
782.197	86.49
782.375	87.91
782.553	87.39
782.731	88.26
782.909	88.33
783.087	88
783.265	87.39
783.443	88.24
783.621	86.78
783.799	88.14
783.977	86.22
784.155	85.4
784.333	83.95
784.511	84.74
784.689	80.7
784.867	81.38
785.045	82.17
785.223	85.46
785.4	82.04
785.578	83.49
785.756	79.59
785.934	78.73
786.112	81.66
786.289	82.34
786.467	84.18
786.645	86.77
786.823	88.68
787	91.1
787.178	86.16
787.356	86.56
787.533	87.56
787.711	87.82
787.889	87.15
788.066	86.16
788.244	85.51
788.421	82.47
788.599	83.39
788.776	80.71
788.954	77.69
789.131	78.84
789.309	79.58
789.486	79.37
789.664	80.12
789.841	82.02
790.019	81.19
790.196	80.27
790.373	80.89
790.551	81.28
790.728	80.57
790.906	80.28
791.083	81.79
791.26	83.69
791.437	79.8
791.615	80.01
791.792	79.32
791.969	79.32
792.146	81.28
792.324	82.39
792.501	80.87
792.678	84.26
792.855	86.4
793.032	85.77
793.209	84.28
793.387	90.65
793.564	89.88
793.741	90.61
793.918	90.55
794.095	90.74
794.272	89.72
794.449	91.41
794.626	92.78
794.803	91.11
794.98	91.03
795.157	92.08
795.334	87.44
795.511	86.92
795.688	85.52
795.864	89.17
796.041	87.45
796.218	88.73
796.395	87.91
796.572	84.09
796.749	85.6
796.925	86.7
797.102	88.82
797.279	88.96
797.456	91.33
797.632	95.2
797.809	95.55
797.986	96.11
798.162	95.11
798.339	95.6
798.516	95.75
798.692	98.61
798.869	95.53
799.046	93.45
799.222	96.43
799.399	97.73
799.575	95.8
799.752	92.21
799.928	91.34
800.105	94.26
800.281	95.21
800.458	99.12
800.634	98.02
800.811	98.17
800.987	95.55
801.163	95.88
801.34	97.46
801.516	97.76
801.692	97.15
801.869	100.14
802.045	97.86
802.221	96.75
802.398	95.52
802.574	92.33
802.75	96.67
802.926	101.53
803.103	101.43
803.279	98.78
803.455	101.6
803.631	106.09
803.807	108.24
803.983	113.02
804.16	115.6
804.336	113.92
804.512	118
804.688	116.66
804.864	116.55
805.04	117.82
805.216	122.35
805.392	126.02
805.568	125.6
805.744	128.04
805.92	122.16
806.096	119.18
806.272	122.68
806.448	117.86
806.623	116.29
806.799	113.37
806.975	111.07
807.151	107.88
807.327	105.2
807.503	99.36
807.678	96.53
807.854	97.87
808.03	100.5
808.206	103.21
808.381	107.88
808.557	110.91
808.733	111.41
808.908	113.97
809.084	111.89
809.26	110.55
809.435	114.86
809.611	112.96
809.787	113.56
809.962	111.76
810.138	107.28
810.313	105.42
810.489	106.03
810.664	105.42
810.84	102.94
811.015	105.62
811.191	107.77
811.366	110.75
811.542	113.39
811.717	108.71
811.892	107.56
812.068	106.26
812.243	108.24
812.419	106.46
812.594	108.9
812.769	109.11
812.944	110.17
813.12	106.45
813.295	107.83
813.47	104.73
813.645	106.57
813.821	104.13
813.996	107.6
814.171	104.06
814.346	105.28
814.521	107.59
814.697	109.01
814.872	105.76
815.047	104.29
815.222	98.87
815.397	103.12
815.572	104.27
815.747	108.52
815.922	109.47
816.097	109.2
816.272	109.99
816.447	107.08
816.622	109.74
816.797	111.98
816.972	113.52
817.147	117.58
817.322	113.44
817.496	114.03
817.671	112.47
817.846	109.1
818.021	113.16
818.196	110.45
818.371	114.3
818.545	109.04
818.72	109.05
818.895	109.28
819.069	106.09
819.244	107.48
819.419	103.88
819.594	99.89
819.768	93.78
819.943	87.54
820.117	85.09
820.292	79.04
820.467	77.09
820.641	73.72
820.816	70.34
820.99	68.08
821.165	66
821.339	64.8
821.514	64.22
821.688	63.41
821.863	62.93
822.037	61.89
822.212	60.84
822.386	60.1
822.56	60.02
822.735	59.87
822.909	59.99
823.084	60.05
823.258	60.3
823.432	60.8
823.606	61.43
823.781	61.76
823.955	62.4
824.129	63.2
824.303	63.16
824.478	63.74
824.652	65.04
824.826	67.18
825	68.1
825.174	67.69
825.348	66.51
825.523	66.65
825.697	67.87
825.871	68.93
826.045	69.32
826.219	70.41
826.393	70.24
826.567	69.71
826.741	68.57
826.915	67.5
827.089	69.28
827.263	70.4
827.437	71.55
827.611	69.95
827.784	71.05
827.958	72.85
828.132	74.15
828.306	74.7
828.48	76.52
828.654	78.53
828.827	81.74
829.001	83.74
829.175	84.5
829.349	85.79
829.522	90.08
829.696	89.8
829.87	89.19
830.044	91.88
830.217	95.27
830.391	95.52
830.565	95.55
830.738	93.91
830.912	93.09
831.085	94.97
831.259	98.61
831.432	96.23
831.606	97.81
831.779	98.24
831.953	95.13
832.126	92.65
832.3	92.23
832.473	88.67
832.647	88.69
832.82	85.34
832.994	81.46
833.167	79.56
833.34	77.75
833.514	76.32
833.687	75.81
833.86	73.58
834.034	73.63
834.207	74.73
834.38	75.86
834.553	78.04
834.727	79.78
834.9	81.6
835.073	81.29
835.246	83
835.419	85.27
835.593	89.32
835.766	92.45
835.939	92.54
836.112	91.83
836.285	94.69
836.458	94.18
836.631	96.37
836.804	100.12
836.977	103.46
837.15	109.91
837.323	111.88
837.496	115.02
837.669	119.69
837.842	117.6
838.015	122.93
838.188	114.25
838.361	115.16
838.533	108.44
838.706	106.19
838.879	116.07
839.052	115.06
839.225	115.9
839.398	105.7
839.57	105.61
839.743	100.55
839.916	99.58
840.088	102.32
840.261	100
840.434	105.31
840.607	108.85
840.779	102.45
840.952	100.24
841.124	96.58
841.297	103.58
841.47	103.56
841.642	117.85
841.815	120.87
841.987	126.68
842.16	133.7
842.332	136.04
842.505	137.62
842.677	134.93
842.85	143.31
843.022	147.25
843.194	152.71
843.367	159.79
843.539	154.21
843.712	150.54
843.884	152.31
844.056	148.94
844.229	156.6
844.401	160.15
844.573	170.03
844.745	164.79
844.918	158.99
845.09	166.28
845.262	170.83
845.434	174.2
845.606	169.93
845.779	177.03
845.951	182.28
846.123	187.91
846.295	181.52
846.467	187.78
846.639	182.83
846.811	188.52
846.983	185.89
847.155	180.16
847.327	193.99
847.499	219.92
847.671	219.92
847.843	184.87
848.015	160.99
848.187	157.77
848.359	166.12
848.531	171.35
848.703	172.94
848.875	160.43
849.047	167.32
849.218	158.17
849.39	158.15
849.562	150.27
849.734	170.59
849.905	180.98
850.077	180.36
850.249	156.2
850.421	161.99
850.592	161.18
850.764	166.13
850.936	157.54
851.107	159.72
851.279	148.7
851.451	148.24
851.622	152.25
851.794	144.99
851.965	153.67
852.137	151.84
852.308	146.31
852.48	151.22
852.651	145.26
852.823	144.36
852.994	147.59
853.166	153.74
853.337	154.21
853.509	150.51
853.68	159.04
853.851	152.75
854.023	159.86
854.194	166.31
854.365	160.34
854.537	176.64
854.708	180.69
854.879	181.51
855.05	178.52
855.222	201.68
855.393	190.7
855.564	183.81
855.735	193.67
855.906	207.41
856.078	194.36
856.249	207.06
856.42	192.84
856.591	189.86
856.762	184.39
856.933	193
857.104	173.07
857.275	178.6
857.446	176.71
857.617	174.19
857.788	166.67
857.959	166.76
858.13	172.69
858.301	184.06
858.472	191.42
858.643	189.68
858.814	180.11
858.985	189.96
859.155	199.88
859.326	209.87
859.497	228.79
859.668	210.91
859.839	206.83
860.009	196.61
860.18	171.75
860.351	174.83
860.522	182.07
860.692	187.51
860.863	182.16
861.034	172.65
861.204	178.98
861.375	165.7
861.546	181.4
861.716	199.77
861.887	219.96
862.057	231.07
862.228	239.85
862.398	244.95
862.569	257.25
862.739	279.56
862.91	323.3
863.08	331.44
863.251	330.14
863.421	306.01
863.592	282.12
863.762	239.61
863.932	253.01
864.103	242.73
864.273	246.1
864.443	231.97
864.614	232.83
864.784	224.36
864.954	205.14
865.125	203.5
865.295	189.17
865.465	188.76
865.635	197.89
865.805	187.19
865.976	178.46
866.146	161.15
866.316	163.59
866.486	154
866.656	155.66
866.826	152.17
866.996	155.05
867.166	154.52
867.336	162.41
867.506	155.63
867.676	164.5
867.846	183.88
868.016	195.34
868.186	195.48
868.356	192.14
868.526	207.85
868.696	225.22
868.866	221.08
869.036	221.04
869.206	213.2
869.376	217.83
869.545	217.19
869.715	200.14
869.885	204.82
870.055	194.73
870.224	193.69
870.394	175.34
870.564	171.74
870.734	173.64
870.903	186.76
871.073	186.13
871.243	187.91
871.412	183.44
871.582	189.63
871.751	187.19
871.921	191.37
872.091	222.46
872.26	221.78
872.43	222.22
872.599	222.94
872.769	218.75
872.938	225.07
873.108	221.83
873.277	209.56
873.446	203.47
873.616	205.5
873.785	201.86
873.955	194.77
874.124	215.79
874.293	226.59
874.463	231.66
874.632	230.05
874.801	215.83
874.971	213.96
875.14	220.41
875.309	216.31
875.478	225.51
875.647	245.28
875.817	257.96
875.986	246.8
876.155	240.19
876.324	221.83
876.493	222.84
876.662	246.85
876.831	260.73
877	278.86
877.17	267.59
877.339	243.14
877.508	222.47
877.677	219.14
877.846	213.31
878.015	203.79
878.184	206.91
878.352	196.26
878.521	178.05
878.69	173.86
878.859	158.82
879.028	162.03
879.197	154.95
879.366	146.35
879.534	134.51
879.703	124.47
879.872	122.64
880.041	111.24
880.21	107.69
880.378	98.85
880.547	94.16
880.716	90.66
880.884	85.68
881.053	84.28
881.222	85.65
881.39	80.76
881.559	78.01
881.727	74.5
881.896	73.64
882.065	73.5
882.233	73.62
882.402	72.02
882.57	71.38
882.739	71.67
882.907	71.2
883.076	69.65
883.244	71.11
883.412	72.35
883.581	73.77
883.749	76.11
883.918	80.46
884.086	85.18
884.254	89.36
884.423	93.27
884.591	98.4
884.759	99.64
884.927	110
885.096	118.56
885.264	127.6
885.432	131.54
885.6	142.24
885.769	144.8
885.937	134.73
886.105	138.64
886.273	150.28
886.441	144.88
886.609	150.94
886.777	144.61
886.945	144.46
887.113	146.1
887.281	148.19
887.449	140.64
887.617	132.65
887.785	141.83
887.953	138.88
888.121	140.58
888.289	148.25
888.457	153.35
888.625	155.54
888.793	143.09
888.961	141.21
889.129	139.21
889.296	145.65
889.464	149.61
889.632	151.13
889.8	154.19
889.967	143.94
890.135	135.94
