Data from JASIL_3280_Reflection_2.txt Node
Date: Tue Nov 17 19:13:32 EST 2015
User: Geneva
Spectrometer: USB4E03002
Autoset integration time: false
Trigger mode: 4
Integration Time (sec): 1.000000E-1
Scans to average: 10
Electric dark correction enabled: false
Nonlinearity correction enabled: false
Boxcar width: 5
Stray light correction enabled: false
XAxis mode: Wavelengths
Stop averaging: false
Number of Pixels in Spectrum: 3648
>>>>>Begin Spectral Data<<<<<
177.575	473.53
177.794	395.96
178.014	542.11
178.233	5425
178.452	-1641.67
178.672	-96.04
178.891	-93.75
179.11	25
179.33	129.32
179.549	108.96
179.768	141.3
179.987	128.8
180.207	88.89
180.426	240.58
180.645	-197.12
180.864	-20.07
181.084	26.81
181.303	16.84
181.522	20.56
181.741	45.37
181.96	49.24
182.179	40.46
182.398	79.84
182.618	15.21
182.837	35.79
183.056	-391.67
183.275	39.41
183.494	43.92
183.713	43.41
183.932	48.47
184.151	39.82
184.37	36.95
184.589	23.38
184.808	24.45
185.027	12.61
185.246	-6.02
185.465	-24.8
185.684	-1645
185.903	256.41
186.122	221.51
186.341	173.24
186.56	126.44
186.779	148.01
186.998	130.97
187.216	94.25
187.435	118.1
187.654	149.88
187.873	235.69
188.092	186.94
188.311	120.8
188.53	82.69
188.748	87.9
188.967	145.3
189.186	88.38
189.405	26.61
189.623	66.53
189.842	33.99
190.061	47.24
190.28	43.56
190.498	7.11
190.717	-800
190.936	-9.71
191.154	142.62
191.373	300
191.592	2463.64
191.81	-91.37
192.029	1173.08
192.248	-3020
192.466	-131.62
192.685	-540.3
192.904	-40.43
193.122	-41.2
193.341	-5.79
193.559	-7.16
193.778	52.47
193.996	63.25
194.215	70.9
194.433	131.66
194.652	97.64
194.87	401.18
195.089	166.1
195.307	295.45
195.526	1155.17
195.744	-216.67
195.963	196.77
196.181	130.23
196.399	136.29
196.618	123.88
196.836	59.66
197.055	130.87
197.273	127.38
197.491	184.25
197.71	320
197.928	215.07
198.146	52.27
198.365	41.81
198.583	23.11
198.801	-0.56
199.019	-70.03
199.238	-8.19
199.456	-10.13
199.674	-1.79
199.892	-11.75
200.111	-23.22
200.329	-17.57
200.547	-39.86
200.765	-27.64
200.983	-71.71
201.202	-15.68
201.42	3.56
201.638	-27.21
201.856	-57.14
202.074	2030.77
202.292	-2152.94
202.51	1618.52
202.728	-91.88
202.946	-141.9
203.165	-48.93
203.383	20.94
203.601	46.67
203.819	41.3
204.037	58.38
204.255	-51.82
204.473	16.03
204.691	36.87
204.909	66.23
205.127	63.11
205.345	92.57
205.562	61.28
205.78	19.13
205.998	29.81
206.216	48.06
206.434	48.66
206.652	82.61
206.87	88.27
207.088	141.96
207.306	134.43
207.523	67.52
207.741	76.27
207.959	95.21
208.177	55.35
208.395	43.13
208.612	29.43
208.83	13.68
209.048	22.03
209.266	19.03
209.483	-25.65
209.701	-16.33
209.919	-26.45
210.136	-30.29
210.354	-58.2
210.572	-60.36
210.79	-40.86
211.007	-45.65
211.225	25
211.442	18.56
211.66	23.34
211.878	50.75
212.095	-52.4
212.313	-56.47
212.53	-49.05
212.748	-40.36
212.966	-48.33
213.183	-65.06
213.401	-83.84
213.618	-96.31
213.836	-148.75
214.053	-221.67
214.271	-191.21
214.488	-17.26
214.705	-33.21
214.923	-19.62
215.14	-29.45
215.358	11.78
215.575	15.74
215.793	65.53
216.01	11.45
216.227	8.7
216.445	6.28
216.662	21.83
216.879	20.14
217.097	44.2
217.314	40.88
217.531	41.39
217.749	3.05
217.966	23.89
218.183	-11.05
218.4	-19.32
218.618	-46.98
218.835	-17.82
219.052	-36.73
219.269	-30.87
219.487	-32.24
219.704	-22.42
219.921	-53.49
220.138	-7.94
220.355	-14.06
220.572	-6.09
220.79	0.61
221.007	27.16
221.224	21.56
221.441	21.96
221.658	29.68
221.875	3.59
222.092	-6.38
222.309	26.68
222.526	32.2
222.743	13.09
222.96	20.11
223.177	34.71
223.394	-9.03
223.611	3.44
223.828	-32.34
224.045	-36.93
224.262	-61.16
224.479	-58.32
224.696	-45.39
224.913	-40.69
225.13	-12.88
225.347	-4.01
225.564	-1.35
225.781	-2.6
225.997	4.3
226.214	17.09
226.431	16.52
226.648	33.96
226.865	38.45
227.082	33.63
227.298	18.98
227.515	21.3
227.732	21.04
227.949	17.25
228.165	19.18
228.382	14.99
228.599	11.36
228.816	7.02
229.032	0.59
229.249	-3.23
229.466	1.1
229.682	10.21
229.899	4.68
230.116	-0.78
230.332	-3.24
230.549	-5.07
230.765	-10.9
230.982	7.58
231.199	4.68
231.415	2.13
231.632	2.39
231.848	-19.58
232.065	-18.77
232.281	-19.5
232.498	-14.9
232.714	-10.51
232.931	-9.78
233.147	-8.16
233.364	-25.1
233.58	-21.82
233.797	-14.54
234.013	-13.17
234.23	-5.67
234.446	-2.72
234.662	7.06
234.879	9.33
235.095	7.81
235.312	2.18
235.528	5.82
235.744	2.2
235.961	12.36
236.177	6.75
236.393	-1.48
236.61	-6.3
236.826	-19.81
237.042	-22.12
237.258	-18.21
237.475	-10.23
237.691	0.71
237.907	-0.71
238.123	0.71
238.339	1.24
238.556	5.3
238.772	9.69
238.988	15.57
239.204	24.88
239.42	21.25
239.636	18.65
239.853	15.96
240.069	9.92
240.285	7.58
240.501	7.69
240.717	7.03
240.933	3.08
241.149	0.86
241.365	-2.42
241.581	-1.52
241.797	-3.67
242.013	-3.02
242.229	-1.7
242.445	-1.07
242.661	-2.98
242.877	-4.26
243.093	-1.76
243.309	-0.63
243.525	2.87
243.741	6.83
243.957	1.13
244.173	3.11
244.388	0.89
244.604	1.56
244.82	0.68
245.036	3.52
245.252	5.38
245.468	2.95
245.683	1.62
245.899	4.38
246.115	1.95
246.331	3.97
246.547	4.59
246.762	4.5
246.978	3.52
247.194	6.75
247.409	6.87
247.625	8.4
247.841	12.79
248.057	17.48
248.272	13.35
248.488	16.14
248.703	15.67
248.919	16.62
249.135	19.24
249.35	20.8
249.566	17.92
249.782	21.24
249.997	20.42
250.213	15.2
250.428	11.61
250.644	10.91
250.859	11.28
251.075	12.98
251.29	13.38
251.506	10.9
251.721	8.35
251.937	7.76
252.152	-2.79
252.368	-7.29
252.583	-4.62
252.798	-4.76
253.014	-6.99
253.229	-7.53
253.445	-9.18
253.66	-14.5
253.875	-15.94
254.091	-13.53
254.306	-10.13
254.521	4.2
254.737	4.04
254.952	0.82
255.167	2.38
255.383	5.9
255.598	6.58
255.813	8.11
256.028	6.05
256.244	7.42
256.459	7.83
256.674	5.34
256.889	1.87
257.104	1.88
257.32	5.77
257.535	5.49
257.75	6.06
257.965	6.06
258.18	3.77
258.395	4.73
258.61	5.68
258.826	5.87
259.041	6.7
259.256	7.2
259.471	7.92
259.686	6.85
259.901	6.94
260.116	6.53
260.331	5.7
260.546	6.19
260.761	7.24
260.976	6.4
261.191	2.73
261.406	2.33
261.621	1.77
261.836	1.4
262.05	0.36
262.265	-2.09
262.48	-2.22
262.695	-2.58
262.91	-2.85
263.125	-4.07
263.34	-2.57
263.555	3.1
263.769	2.03
263.984	4.43
264.199	5.6
264.414	5
264.629	5.24
264.843	5.79
265.058	7.16
265.273	8.53
265.488	7.2
265.702	5.19
265.917	5.35
266.132	4.41
266.346	1.78
266.561	4.51
266.776	6.83
266.99	4.87
267.205	4.21
267.42	5.58
267.634	4.6
267.849	6.76
268.063	6.04
268.278	4.85
268.492	7.3
268.707	8.18
268.922	3.65
269.136	1.08
269.351	5.41
269.565	4
269.78	3.03
269.994	2.04
270.209	2.86
270.423	5.25
270.637	5.51
270.852	2.69
271.066	1.72
271.281	1.17
271.495	1.39
271.709	-0.95
271.924	1.47
272.138	1.25
272.353	2.93
272.567	2.63
272.781	0.64
272.996	1.74
273.21	3.97
273.424	4.97
273.638	5.43
273.853	6.76
274.067	8.68
274.281	7.5
274.495	7.34
274.71	5.57
274.924	6.82
275.138	5.65
275.352	4.84
275.566	4.74
275.781	5.7
275.995	7.28
276.209	6.75
276.423	6.36
276.637	6.47
276.851	3.4
277.065	3.04
277.279	-0.13
277.493	3.07
277.707	3.87
277.921	1.76
278.135	-0.7
278.349	1.29
278.563	0.18
278.777	-0.1
278.991	0.12
279.205	4.38
279.419	3.84
279.633	4.15
279.847	3.45
280.061	3.65
280.275	4.88
280.489	6.92
280.703	4.26
280.917	5.13
281.131	5.59
281.344	6.04
281.558	4.01
281.772	4.8
281.986	4.28
282.2	3
282.414	3.47
282.627	4.32
282.841	4.27
283.055	5.96
283.269	6.46
283.482	5.87
283.696	6.1
283.91	6.72
284.123	6.51
284.337	7.54
284.551	8.28
284.764	5.83
284.978	5.35
285.192	4.79
285.405	3.97
285.619	2.97
285.833	3.79
286.046	2.41
286.26	1.13
286.473	0.63
286.687	-0.01
286.9	0.29
287.114	1.74
287.327	0.79
287.541	-0.85
287.754	0.6
287.968	1.98
288.181	1.68
288.395	2.86
288.608	4.24
288.822	6.94
289.035	7.25
289.248	6.15
289.462	6.57
289.675	5.98
289.889	8.27
290.102	5.74
290.315	5.36
290.529	5.69
290.742	5.12
290.955	5.23
291.169	3.12
291.382	3.18
291.595	4.29
291.808	3.04
292.022	4.4
292.235	3.05
292.448	4.11
292.661	3.11
292.875	2.76
293.088	4.21
293.301	4.08
293.514	4.6
293.727	4.88
293.94	3.79
294.153	2.95
294.367	3.35
294.58	1.51
294.793	2.78
295.006	3.03
295.219	1.82
295.432	2.59
295.645	3.15
295.858	2.66
296.071	2.43
296.284	3.83
296.497	5.86
296.71	4.89
296.923	6.62
297.136	5.07
297.349	6.09
297.562	6.61
297.775	5.38
297.988	4.59
298.201	3.87
298.414	2.19
298.626	1.78
298.839	-0.51
299.052	-0.73
299.265	0.01
299.478	2.14
299.691	-0.24
299.903	1.5
300.116	-0.35
300.329	-0.12
300.542	2.27
300.755	3.65
300.967	4.04
301.18	3.92
301.393	5.21
301.605	3.46
301.818	1.75
302.031	1.68
302.243	0.23
302.456	2.57
302.669	5.05
302.881	4.64
303.094	5.2
303.307	4.22
303.519	4.41
303.732	4.61
303.944	5.87
304.157	5.61
304.37	5.56
304.582	5.88
304.795	5.92
305.007	4.13
305.22	2.88
305.432	2.15
305.645	1.97
305.857	2.7
306.069	1.62
306.282	2.07
306.494	2.55
306.707	3.26
306.919	2.86
307.132	3.77
307.344	4.99
307.556	5.06
307.769	4.94
307.981	5.6
308.193	5.48
308.406	5.42
308.618	4.8
308.83	5.1
309.043	5.34
309.255	4.93
309.467	3.77
309.679	2.11
309.892	2.03
310.104	2.22
310.316	1.55
310.528	2.02
310.74	2.66
310.953	2.36
311.165	3.64
311.377	4.47
311.589	4.96
311.801	6.34
312.013	6.58
312.225	8.03
312.437	9.03
312.649	9.4
312.862	8.09
313.074	8.21
313.286	8.49
313.498	7.81
313.71	7.53
313.922	7.63
314.134	6.35
314.346	8.22
314.558	7.24
314.77	6.27
314.982	7.55
315.193	7.6
315.405	6.97
315.617	8.53
315.829	7.22
316.041	6.91
316.253	6.32
316.465	6.63
316.677	6.1
316.888	5.6
317.1	5.88
317.312	4.14
317.524	5.32
317.736	7.06
317.947	6.01
318.159	6.51
318.371	5.89
318.583	8.32
318.794	8.77
319.006	8.29
319.218	8.08
319.43	8.04
319.641	8.91
319.853	8.62
320.064	7.27
320.276	6.17
320.488	5.73
320.699	5.27
320.911	4.08
321.123	4.1
321.334	3.07
321.546	2.6
321.757	4.65
321.969	2.88
322.18	2.24
322.392	3.63
322.603	4.64
322.815	5.08
323.026	6.6
323.238	5.82
323.449	4.72
323.661	6.28
323.872	7.63
324.083	5.08
324.295	7.44
324.506	7.76
324.718	8.41
324.929	9
325.14	8.56
325.352	8.44
325.563	9.65
325.774	10.01
325.986	8.77
326.197	10.07
326.408	10.18
326.62	9.91
326.831	9.88
327.042	8.78
327.253	9.32
327.464	10.91
327.676	11.21
327.887	10.41
328.098	11.47
328.309	12.72
328.52	11.67
328.732	13.38
328.943	13.06
329.154	13.6
329.365	13.68
329.576	11.99
329.787	10.88
329.998	9.69
330.209	10
330.42	9.89
330.631	9.1
330.842	10.31
331.053	9.78
331.264	11.38
331.475	11.82
331.686	11.59
331.897	13.44
332.108	12.98
332.319	13.88
332.53	12.74
332.741	12.09
332.952	13
333.163	13.51
333.374	13.85
333.585	13.07
333.795	13.67
334.006	12.73
334.217	11.62
334.428	12.19
334.639	12.66
334.849	13.85
335.06	12.03
335.271	11.22
335.482	9.67
335.692	10.53
335.903	9.77
336.114	11.54
336.325	12.47
336.535	12.44
336.746	14.21
336.957	12.73
337.167	12.36
337.378	14.14
337.589	15.14
337.799	14.19
338.01	14.62
338.22	15.11
338.431	13.41
338.642	13.4
338.852	13.03
339.063	11.79
339.273	12.93
339.484	12.51
339.694	12.88
339.905	11.97
340.115	14.86
340.326	13.82
340.536	14.82
340.746	14.31
340.957	14.39
341.167	15.63
341.378	14.56
341.588	13.1
341.799	14.65
342.009	14.12
342.219	14.76
342.43	13.22
342.64	13.59
342.85	13.23
343.061	13.24
343.271	14.19
343.481	14.28
343.691	15.47
343.902	16.38
344.112	15.2
344.322	15.77
344.532	16.11
344.743	15.96
344.953	14.8
345.163	13.95
345.373	13.71
345.583	13.77
345.793	13.8
346.004	13.09
346.214	13.01
346.424	14.16
346.634	13.78
346.844	11.67
347.054	12.61
347.264	13.31
347.474	13.24
347.684	12.85
347.894	11.4
348.104	9.95
348.314	10.44
348.524	11.57
348.734	10.52
348.944	8.96
349.154	9.37
349.364	7.59
349.574	7.45
349.784	7.99
349.994	8.66
350.204	8.94
350.413	9.93
350.623	9.46
350.833	9.49
351.043	9.49
351.253	10.71
351.463	12.24
351.672	13.65
351.882	13.41
352.092	13.09
352.302	13.28
352.511	13.1
352.721	12.65
352.931	12.74
353.141	11.13
353.35	12.7
353.56	13.9
353.77	13.12
353.979	13.72
354.189	14.42
354.399	14.25
354.608	15.12
354.818	15.52
355.027	15.64
355.237	15.96
355.447	16.12
355.656	14.47
355.866	14.24
356.075	14.31
356.285	14.38
356.494	13.42
356.704	14.35
356.913	13.17
357.123	13.28
357.332	13.64
357.542	13.61
357.751	13.66
357.96	14.29
358.17	13.03
358.379	12.74
358.589	11.65
358.798	11.9
359.007	11.69
359.217	11.57
359.426	10.61
359.635	10.23
359.845	9.68
360.054	9.21
360.263	9.37
360.472	9.75
360.682	9.21
360.891	9.38
361.1	9.32
361.309	8.85
361.519	8.91
361.728	9.55
361.937	9.47
362.146	9.96
362.355	10.95
362.564	10.71
362.774	9.94
362.983	10.45
363.192	10.62
363.401	10.44
363.61	10.13
363.819	10.71
364.028	10.64
364.237	10.63
364.446	10.86
364.655	10.37
364.864	10.91
365.073	11.54
365.282	12.12
365.491	11.73
365.7	11.92
365.909	12.35
366.118	11.13
366.327	10.44
366.536	10.66
366.745	10.13
366.954	10.24
367.162	9.44
367.371	10.25
367.58	10.67
367.789	11.01
367.998	11.49
368.207	10.93
368.415	11.62
368.624	11.96
368.833	11.41
369.042	11.27
369.25	11.14
369.459	10.7
369.668	10.02
369.877	9.03
370.085	9.09
370.294	8.55
370.503	8.46
370.711	7.73
370.92	8.85
371.129	8.99
371.337	8.89
371.546	9.47
371.754	10.42
371.963	10.49
372.171	10.61
372.38	10.51
372.589	10.55
372.797	11.23
373.006	11.57
373.214	11.28
373.423	11.45
373.631	10.47
373.84	10.28
374.048	10.55
374.256	10.37
374.465	10.44
374.673	10.69
374.882	10.29
375.09	10.15
375.298	10.36
375.507	9.52
375.715	10.4
375.923	11.26
376.132	11.78
376.34	10.87
376.548	10.91
376.757	12.28
376.965	12.23
377.173	11.74
377.381	11.22
377.59	11.26
377.798	12.53
378.006	11.88
378.214	12
378.423	11.34
378.631	12.4
378.839	13.21
379.047	11.79
379.255	11.24
379.463	12.15
379.671	12.69
379.879	13.18
380.088	12.24
380.296	11.98
380.504	12.06
380.712	12.3
380.92	12.29
381.128	10.7
381.336	10.73
381.544	11.68
381.752	11.9
381.96	11.81
382.168	9.83
382.376	10.1
382.584	9.69
382.791	10.02
382.999	9.64
383.207	8.97
383.415	10.26
383.623	10.99
383.831	9.32
384.039	9.39
384.247	9.29
384.454	10.59
384.662	10.05
384.87	11.59
385.078	10.58
385.285	10.32
385.493	10.83
385.701	10.27
385.909	9.98
386.116	11.01
386.324	11.09
386.532	10.9
386.739	11.24
386.947	11.53
387.155	10.72
387.362	11.23
387.57	12.14
387.778	11.66
387.985	11.72
388.193	12.04
388.4	11.92
388.608	11.54
388.816	11.31
389.023	10.84
389.231	10.65
389.438	10.52
389.646	10.47
389.853	9.67
390.061	8.7
390.268	8.49
390.475	8.12
390.683	7.87
390.89	7.66
391.098	8.49
391.305	9.28
391.512	9.89
391.72	9.94
391.927	9.83
392.135	9.87
392.342	11.13
392.549	11.54
392.756	10.62
392.964	10.53
393.171	10.89
393.378	10.98
393.586	10.29
393.793	10.07
394	9.78
394.207	9.88
394.414	10.29
394.622	10.17
394.829	10.03
395.036	11.18
395.243	11.26
395.45	10.63
395.657	10.88
395.864	10.72
396.072	9.9
396.279	9.44
396.486	9.88
396.693	9.33
396.9	8.74
397.107	8.06
397.314	7.63
397.521	7.41
397.728	7.51
397.935	6.16
398.142	6.5
398.349	7.45
398.556	7.91
398.763	7.56
398.97	7.46
399.177	7.89
399.383	9.1
399.59	8.88
399.797	8.96
400.004	9.47
400.211	9.82
400.418	10.05
400.625	9.67
400.831	9.61
401.038	9.89
401.245	10.37
401.452	10.12
401.658	9.68
401.865	9.87
402.072	10.23
402.279	10.01
402.485	9.99
402.692	9.69
402.899	10.23
403.105	10.6
403.312	9.84
403.519	9.15
403.725	8.56
403.932	8.33
404.138	8.16
404.345	8.1
404.552	8.17
404.758	8.2
404.965	8.86
405.171	7.96
405.378	7.61
405.584	7.47
405.791	8.27
405.997	9.13
406.204	8.93
406.41	9.06
406.617	8.66
406.823	8.99
407.029	9.08
407.236	8.67
407.442	8.9
407.649	8.57
407.855	9
408.061	8.77
408.268	7.97
408.474	7.82
408.68	7.47
408.887	7.63
409.093	6.9
409.299	7.46
409.505	7.21
409.712	7.82
409.918	8.1
410.124	8
410.33	7.8
410.537	8.38
410.743	9.16
410.949	9.44
411.155	9.96
411.361	10.24
411.567	9
411.773	8.83
411.98	7.96
412.186	8.42
412.392	9.12
412.598	9.51
412.804	9.71
413.01	9.13
413.216	8.28
413.422	7.19
413.628	7.69
413.834	8.16
414.04	8.63
414.246	8.32
414.452	7.57
414.658	7.23
414.864	6.99
415.07	7.04
415.275	6.8
415.481	7.36
415.687	7.84
415.893	7.52
416.099	7.76
416.305	7.67
416.511	7.97
416.716	8.58
416.922	8.64
417.128	8.61
417.334	8.41
417.539	8.61
417.745	8.8
417.951	8.9
418.157	8.59
418.362	8.63
418.568	8.04
418.774	8.4
418.979	8.33
419.185	8.17
419.391	8.05
419.596	7.87
419.802	7.96
420.008	7.74
420.213	7.96
420.419	8.1
420.624	7.71
420.83	8.11
421.035	7.81
421.241	7.65
421.446	7.74
421.652	7.76
421.857	7.87
422.063	7.78
422.268	7.9
422.474	7.66
422.679	7.68
422.885	7.73
423.09	7.64
423.295	8.16
423.501	8.13
423.706	8.05
423.911	7.87
424.117	7.93
424.322	7.8
424.527	8.04
424.733	7.79
424.938	7.88
425.143	8.2
425.349	8.5
425.554	8.16
425.759	8.41
425.964	8.25
426.169	8.56
426.375	8.11
426.58	8.23
426.785	7.73
426.99	7.98
427.195	7.96
427.4	8.06
427.605	8.04
427.811	8.14
428.016	7.91
428.221	8.06
428.426	7.99
428.631	8.52
428.836	8.43
429.041	8.74
429.246	8.73
429.451	8.8
429.656	8.66
429.861	8.08
430.066	7.89
430.271	8.07
430.476	7.85
430.681	8.14
430.886	8.27
431.09	8.87
431.295	8.62
431.5	8.55
431.705	8.57
431.91	8.64
432.115	9.09
432.32	8.9
432.524	8.85
432.729	9
432.934	8.75
433.139	8.48
433.343	8.09
433.548	7.91
433.753	8.22
433.958	8.45
434.162	8.36
434.367	8.13
434.572	8.1
434.776	8.12
434.981	8.13
435.186	8.57
435.39	8.37
435.595	8.48
435.799	8.77
436.004	8.43
436.209	7.93
436.413	7.79
436.618	8.15
436.822	8.26
437.027	7.97
437.231	7.85
437.436	7.3
437.64	7.41
437.845	7.24
438.049	7.26
438.253	7.09
438.458	7.05
438.662	7
438.867	6.51
439.071	6.59
439.275	7.04
439.48	7.24
439.684	7.15
439.888	7.6
440.093	7.67
440.297	7.49
440.501	7.68
440.706	7.69
440.91	7.8
441.114	7.88
441.318	7.79
441.523	7.52
441.727	7.35
441.931	7.65
442.135	7.25
442.339	7.27
442.543	7.6
442.748	7.46
442.952	7.87
443.156	7.91
443.36	8.12
443.564	7.84
443.768	7.56
443.972	8
444.176	7.95
444.38	7.91
444.584	8.11
444.788	7.91
444.992	8
445.196	7.56
445.4	7.23
445.604	6.87
445.808	7.08
446.012	6.88
446.216	6.48
446.42	6.56
446.624	6.78
446.828	6.58
447.032	6.67
447.235	6.5
447.439	6.72
447.643	7.07
447.847	7.61
448.051	7.5
448.254	7.78
448.458	7.98
448.662	7.6
448.866	7.23
449.069	7.44
449.273	7.07
449.477	7.34
449.681	7.37
449.884	7.3
450.088	7.07
450.292	7.35
450.495	7.31
450.699	7.22
450.902	7.48
451.106	7.53
451.31	7.52
451.513	7.47
451.717	7.62
451.92	7.45
452.124	7.44
452.327	7.53
452.531	7.07
452.734	7.53
452.938	7.4
453.141	7.27
453.345	7.38
453.548	7.56
453.752	7.81
453.955	7.7
454.158	7.51
454.362	7.49
454.565	7.53
454.769	8.1
454.972	7.85
455.175	7.73
455.379	7.66
455.582	7.75
455.785	7.45
455.988	7.94
456.192	7.64
456.395	7.73
456.598	7.85
456.801	7.6
457.005	7.74
457.208	7.64
457.411	8.35
457.614	8.27
457.817	7.68
458.021	7.57
458.224	7.3
458.427	6.95
458.63	7.05
458.833	7.05
459.036	6.87
459.239	6.57
459.442	6.65
459.645	6.21
459.848	6.59
460.051	6.96
460.254	6.81
460.457	6.74
460.66	7.32
460.863	7.52
461.066	6.97
461.269	7.04
461.472	7.16
461.675	6.64
461.878	6.69
462.081	6.7
462.284	6.72
462.486	6.68
462.689	6.66
462.892	6.71
463.095	6.39
463.298	6.82
463.5	6.95
463.703	6.84
463.906	7.49
464.109	7.53
464.311	7.02
464.514	7.14
464.717	7.3
464.92	7.34
465.122	7.48
465.325	7.37
465.528	7.54
465.73	7.48
465.933	7.49
466.135	7.46
466.338	7.66
466.541	8.02
466.743	8.04
466.946	8.07
467.148	8.25
467.351	8.02
467.553	8.22
467.756	8.13
467.958	8.79
468.161	8.31
468.363	8.34
468.566	8.2
468.768	7.83
468.971	7.83
469.173	7.66
469.375	7.23
469.578	7.35
469.78	7.7
469.983	7.82
470.185	7.46
470.387	7.67
470.59	7.24
470.792	7.09
470.994	7.04
471.196	6.86
471.399	6.88
471.601	7.06
471.803	6.87
472.005	6.49
472.208	6.42
472.41	6.06
472.612	6.32
472.814	6.74
473.016	7.08
473.218	7.41
473.421	7.43
473.623	8.05
473.825	8.28
474.027	8.37
474.229	8.65
474.431	8.69
474.633	8.9
474.835	9.08
475.037	8.87
475.239	8.63
475.441	8.25
475.643	8.04
475.845	7.56
476.047	7.32
476.249	7.2
476.451	6.97
476.653	7.03
476.855	6.96
477.057	7.08
477.258	7.05
477.46	6.93
477.662	7.33
477.864	7.53
478.066	7.85
478.268	7.69
478.469	8.23
478.671	8.28
478.873	8.15
479.075	8.03
479.276	7.62
479.478	7.62
479.68	7.76
479.882	7.63
480.083	7.7
480.285	7.37
480.487	7.56
480.688	7.35
480.89	7.31
481.091	7.29
481.293	7.1
481.495	7.39
481.696	7.45
481.898	7.31
482.099	7.27
482.301	7.23
482.502	7.28
482.704	7.03
482.905	6.89
483.107	6.81
483.308	6.73
483.51	6.7
483.711	6.53
483.913	6.5
484.114	6.57
484.315	6.51
484.517	6.34
484.718	6.21
484.92	6.29
485.121	6.23
485.322	6.34
485.524	6.44
485.725	6.58
485.926	6.76
486.127	6.74
486.329	6.67
486.53	6.81
486.731	6.87
486.932	6.99
487.134	7.13
487.335	7.14
487.536	7.14
487.737	7.12
487.938	7.2
488.139	7
488.341	6.93
488.542	6.84
488.743	6.66
488.944	6.62
489.145	6.53
489.346	6.54
489.547	6.54
489.748	6.52
489.949	6.42
490.15	6.34
490.351	6.52
490.552	6.58
490.753	6.77
490.954	6.67
491.155	6.82
491.356	6.73
491.557	6.74
491.758	6.87
491.959	6.9
492.159	7.06
492.36	7.26
492.561	7.12
492.762	7.2
492.963	7.22
493.164	7.81
493.364	7.77
493.565	8.2
493.766	8.29
493.967	8.4
494.167	8.29
494.368	8.46
494.569	8.46
494.769	8.57
494.97	8.46
495.171	7.98
495.371	7.76
495.572	7.91
495.773	7.58
495.973	7.66
496.174	7.38
496.375	7.68
496.575	7.51
496.776	7.47
496.976	7.6
497.177	7.76
497.377	7.93
497.578	7.9
497.778	7.59
497.979	7.98
498.179	7.97
498.38	8.58
498.58	8.24
498.78	8.37
498.981	8.37
499.181	8.15
499.382	8.26
499.582	8.26
499.782	8.02
499.983	8.36
500.183	8.34
500.383	8.32
500.584	8.1
500.784	8.6
500.984	8.7
501.184	8.71
501.385	8.74
501.585	8.72
501.785	9.06
501.985	9.15
502.185	9.04
502.386	8.76
502.586	9.09
502.786	8.98
502.986	8.72
503.186	8.88
503.386	9.2
503.586	9.16
503.786	8.96
503.987	9.04
504.187	9.11
504.387	9.53
504.587	9.83
504.787	9.66
504.987	9.77
505.187	9.67
505.387	9.58
505.587	9.33
505.786	9.38
505.986	9.57
506.186	9.56
506.386	9.45
506.586	9.51
506.786	8.89
506.986	8.87
507.186	8.5
507.386	8.78
507.585	8.62
507.785	8.84
507.985	8.89
508.185	8.67
508.384	8.44
508.584	8.66
508.784	8.43
508.984	8.86
509.183	8.85
509.383	9.11
509.583	8.98
509.782	9.03
509.982	8.69
510.182	8.79
510.381	8.74
510.581	8.95
510.781	8.84
510.98	8.79
511.18	8.79
511.379	8.77
511.579	8.71
511.778	8.69
511.978	9.12
512.177	9.54
512.377	9.49
512.576	9.62
512.776	9.51
512.975	9.99
513.175	10.17
513.374	10.15
513.573	10.12
513.773	10.41
513.972	10.81
514.172	10.87
514.371	10.17
514.57	10.33
514.77	10.92
514.969	11.09
515.168	10.9
515.367	11.19
515.567	11.18
515.766	11.39
515.965	11.38
516.164	11.03
516.364	10.73
516.563	11.15
516.762	10.96
516.961	10.78
517.16	11.02
517.359	11.06
517.559	10.97
517.758	10.87
517.957	10.73
518.156	10.64
518.355	10.8
518.554	10.92
518.753	10.84
518.952	10.89
519.151	10.87
519.35	10.78
519.549	10.74
519.748	10.54
519.947	10.79
520.146	10.93
520.345	11.37
520.544	11.25
520.743	11.16
520.942	11.67
521.141	11.87
521.339	11.88
521.538	11.96
521.737	12.19
521.936	12.33
522.135	12.55
522.333	12.64
522.532	12.35
522.731	12.3
522.93	12.16
523.129	11.86
523.327	11.94
523.526	12.3
523.725	12.36
523.923	12.43
524.122	12.58
524.321	12.42
524.519	12.49
524.718	12.41
524.917	12.57
525.115	12.74
525.314	12.86
525.512	13.01
525.711	12.82
525.909	12.86
526.108	12.73
526.306	12.66
526.505	12.77
526.703	12.67
526.902	12.81
527.1	12.86
527.299	12.82
527.497	12.8
527.696	12.87
527.894	12.99
528.092	12.96
528.291	12.99
528.489	12.99
528.688	13.02
528.886	13.18
529.084	13.26
529.283	13.39
529.481	13.5
529.679	13.49
529.877	13.42
530.076	13.38
530.274	13.68
530.472	13.84
530.67	14.11
530.869	14.15
531.067	14.18
531.265	14.13
531.463	14.17
531.661	14.55
531.859	14.72
532.057	14.84
532.255	14.95
532.454	14.85
532.652	14.76
532.85	14.79
533.048	14.8
533.246	14.9
533.444	15.12
533.642	15.27
533.84	15.17
534.038	15.27
534.236	15.42
534.434	15.65
534.632	15.77
534.83	16.02
535.027	16.12
535.225	16.38
535.423	16.36
535.621	16.47
535.819	16.39
536.017	16.42
536.215	16.54
536.412	16.52
536.61	16.47
536.808	16.69
537.006	16.72
537.203	17.07
537.401	17.28
537.599	17.64
537.797	17.65
537.994	17.93
538.192	17.95
538.39	18.22
538.587	18.38
538.785	18.41
538.983	18.08
539.18	18.31
539.378	17.93
539.575	17.85
539.773	17.63
539.97	17.83
540.168	17.64
540.366	17.7
540.563	17.45
540.761	17.54
540.958	17.54
541.155	17.78
541.353	17.76
541.55	17.92
541.748	17.99
541.945	18.23
542.143	18.29
542.34	18.68
542.537	18.74
542.735	18.98
542.932	18.94
543.129	19.08
543.327	19.11
543.524	19.27
543.721	19.49
543.919	19.68
544.116	19.73
544.313	19.74
544.51	19.75
544.708	19.69
544.905	19.94
545.102	20.23
545.299	20.27
545.496	20.36
545.693	20.48
545.891	20.51
546.088	20.56
546.285	20.59
546.482	20.65
546.679	20.75
546.876	21.2
547.073	21.2
547.27	21.28
547.467	21.57
547.664	21.7
547.861	21.74
548.058	21.77
548.255	21.81
548.452	22
548.649	22.1
548.846	22.4
549.043	22.54
549.24	22.77
549.437	22.91
549.633	22.87
549.83	23.03
550.027	23.66
550.224	24.02
550.421	24.46
550.618	24.96
550.814	24.86
551.011	24.78
551.208	24.9
551.405	24.97
551.601	25.09
551.798	25.35
551.995	25.54
552.191	25.23
552.388	25.6
552.585	25.33
552.781	25.41
552.978	25.75
553.175	26.28
553.371	26.41
553.568	27.1
553.764	26.97
553.961	27.42
554.157	27.12
554.354	27.06
554.55	26.63
554.747	27.21
554.943	27.06
555.14	27.24
555.336	26.71
555.533	26.69
555.729	26.2
555.926	26.6
556.122	26.69
556.318	27.47
556.515	27.91
556.711	28.21
556.907	28.19
557.104	28.55
557.3	28.99
557.496	29.3
557.693	29.88
557.889	29.96
558.085	30.08
558.281	29.88
558.478	29.84
558.674	30.24
558.87	30.07
559.066	29.96
559.262	30.01
559.459	29.74
559.655	30.07
559.851	30.06
560.047	30.3
560.243	30.57
560.439	31.23
560.635	31.46
560.831	30.85
561.027	31.12
561.223	31.39
561.419	31.34
561.615	31.3
561.811	31.07
562.007	31.07
562.203	31.43
562.399	31.25
562.595	30.87
562.791	31.21
562.987	31.68
563.183	31.83
563.379	32.1
563.575	32.6
563.771	32.52
563.966	32.41
564.162	32
564.358	31.95
564.554	32.19
564.75	32.02
564.945	31.91
565.141	32.18
565.337	32.23
565.533	32.18
565.728	32.06
565.924	32.09
566.12	32.26
566.315	32.9
566.511	33.03
566.707	32.99
566.902	33.67
567.098	33.51
567.293	33.73
567.489	33.6
567.684	33.62
567.88	33.67
568.076	33.98
568.271	34.42
568.467	34.51
568.662	34.58
568.858	34.55
569.053	33.99
569.248	34.43
569.444	34.05
569.639	34.36
569.835	34.41
570.03	34.44
570.225	34.67
570.421	34.42
570.616	34.32
570.812	34.33
571.007	34.46
571.202	34.8
571.397	34.55
571.593	34.74
571.788	34.74
571.983	35.03
572.178	35.11
572.374	35.1
572.569	35.28
572.764	35.59
572.959	35.59
573.154	35.74
573.35	35.77
573.545	35.67
573.74	35.82
573.935	36.18
574.13	35.85
574.325	35.93
574.52	36.35
574.715	36.5
574.91	36.67
575.105	36.5
575.3	36.93
575.495	37.05
575.69	37.2
575.885	37.25
576.08	37.22
576.275	37.33
576.47	37.52
576.665	37.48
576.86	37.6
577.055	37.32
577.25	38.15
577.444	38.17
577.639	38.27
577.834	39
578.029	39.49
578.224	39.61
578.418	40.12
578.613	40.36
578.808	40.24
579.003	40.46
579.197	40.99
579.392	40.34
579.587	40.33
579.781	40.35
579.976	40.24
580.171	40.49
580.365	40.57
580.56	40.73
580.755	40.67
580.949	41.2
581.144	41.12
581.338	40.86
581.533	41.48
581.727	41.49
581.922	41.69
582.116	41.8
582.311	41.26
582.505	41.85
582.7	41.72
582.894	41.71
583.089	41.96
583.283	42.3
583.478	42.4
583.672	42.66
583.866	42.84
584.061	42.51
584.255	42.63
584.449	42.89
584.644	42.61
584.838	42.9
585.032	42.84
585.226	42.32
585.421	42.43
585.615	42.42
585.809	41.93
586.003	41.96
586.198	42.26
586.392	42.1
586.586	41.91
586.78	41.84
586.974	42.2
587.168	42.29
587.363	42.24
587.557	42
587.751	41.9
587.945	41.68
588.139	41.29
588.333	41.03
588.527	41.63
588.721	41.55
588.915	41.33
589.109	41.38
589.303	42.23
589.497	42.23
589.691	41.85
589.885	41.88
590.079	42.53
590.273	42.94
590.466	43.33
590.66	43.04
590.854	43.36
591.048	44.1
591.242	43.46
591.436	42.85
591.629	42.99
591.823	43.34
592.017	43.58
592.211	43.4
592.404	43.2
592.598	43.31
592.792	43.44
592.986	43.49
593.179	42.97
593.373	43.52
593.567	43.23
593.76	43.27
593.954	43.38
594.147	43.73
594.341	43.88
594.535	44.25
594.728	44.21
594.922	43.63
595.115	43.06
595.309	42.95
595.502	42.29
595.696	42.49
595.889	42.69
596.083	42.71
596.276	42.61
596.47	42.3
596.663	42.46
596.856	42.16
597.05	42.53
597.243	43.24
597.437	43.38
597.63	44.47
597.823	44.58
598.017	44.7
598.21	45.08
598.403	45.09
598.596	46.05
598.79	46.53
598.983	47.34
599.176	47.86
599.369	47.84
599.563	48.54
599.756	47.86
599.949	48.25
600.142	47.75
600.335	48.12
600.528	48.19
600.722	47.75
600.915	47.14
601.108	47.23
601.301	46.88
601.494	46.88
601.687	46.48
601.88	46.47
602.073	46.25
602.266	46.04
602.459	44.98
602.652	44.75
602.845	44.73
603.038	44.3
603.231	43.86
603.424	43.66
603.617	43.6
603.809	43.38
604.002	43.38
604.195	43.19
604.388	43.49
604.581	44.03
604.774	44.55
604.966	44.54
605.159	45.14
605.352	45.47
605.545	46.46
605.737	47.08
605.93	47.8
606.123	47.64
606.316	47.75
606.508	48.02
606.701	48.13
606.894	47.56
607.086	47.76
607.279	47.54
607.471	47.78
607.664	47.14
607.857	46.44
608.049	46.64
608.242	47.08
608.434	47.09
608.627	46.92
608.819	47.08
609.012	47.24
609.204	47
609.397	46.9
609.589	46.94
609.782	47.2
609.974	47.98
610.166	47.79
610.359	47.87
610.551	48.22
610.743	48.49
610.936	48.6
611.128	48.42
611.32	49.04
611.513	49.77
611.705	49.88
611.897	49.49
612.09	49.39
612.282	49.39
612.474	49.28
612.666	49.25
612.858	49.42
613.051	49.08
613.243	50.02
613.435	49.69
613.627	49.47
613.819	50.11
614.011	50.65
614.203	50.66
614.395	51.03
614.588	51.61
614.78	52.44
614.972	52.84
615.164	53.74
615.356	53.22
615.548	53.72
615.74	54.11
615.932	53.45
616.124	52.72
616.315	52.54
616.507	52.18
616.699	52
616.891	51.31
617.083	50.92
617.275	50.48
617.467	50.54
617.659	50.74
617.85	50.45
618.042	50.58
618.234	51.52
618.426	52.01
618.618	52
618.809	52.7
619.001	52.94
619.193	53.11
619.384	53.16
619.576	53.45
619.768	53.08
619.959	52.96
620.151	53
620.343	53
620.534	52.2
620.726	52.45
620.917	52.66
621.109	52.84
621.301	53.17
621.492	53.35
621.684	53.63
621.875	53.75
622.067	54.17
622.258	54.29
622.45	54.44
622.641	54.22
622.832	54.47
623.024	53.9
623.215	53.85
623.407	54.31
623.598	53.93
623.789	53.48
623.981	53.21
624.172	52.83
624.363	52.92
624.555	52.66
624.746	52.98
624.937	52.32
625.129	51.36
625.32	51.17
625.511	50.73
625.702	50.87
625.893	50.87
626.085	50.9
626.276	50.77
626.467	50.62
626.658	50.2
626.849	50.74
627.04	51.12
627.231	52.01
627.422	52.52
627.614	53.09
627.805	53.85
627.996	54.85
628.187	55.2
628.378	55.69
628.569	55.04
628.76	55.51
628.951	55.31
629.142	55.48
629.332	55.84
629.523	55.85
629.714	55.29
629.905	54.9
630.096	53.79
630.287	54.89
630.478	54.84
630.669	56.49
630.859	56.37
631.05	55.87
631.241	56.42
631.432	55.78
631.623	55.53
631.813	54.98
632.004	55.25
632.195	55.78
632.385	54.18
632.576	54.45
632.767	53.63
632.957	54.16
633.148	54.73
633.339	54.57
633.529	55.1
633.72	55.17
633.91	56.01
634.101	55.8
634.292	56.42
634.482	56.48
634.673	56.58
634.863	57.01
635.054	56.77
635.244	57.33
635.435	57.59
635.625	57.58
635.815	57.71
636.006	57.54
636.196	57.76
636.387	57.49
636.577	58.38
636.767	57.93
636.958	58.18
637.148	58.74
637.338	58.6
637.529	58.21
637.719	59.05
637.909	59.58
638.099	59.92
638.29	60.22
638.48	60.2
638.67	60.13
638.86	60.97
639.05	61.08
639.241	61.64
639.431	62.81
639.621	63.19
639.811	63
640.001	62.97
640.191	63.25
640.381	63.66
640.571	64.53
640.761	64.95
640.951	64.78
641.141	64.03
641.331	63.31
641.521	62.43
641.711	63.01
641.901	62.68
642.091	62.76
642.281	63.43
642.471	62.76
642.661	62.46
642.851	62.6
643.041	62
643.231	62.6
643.42	62.41
643.61	62.65
643.8	63.06
643.99	63.41
644.18	63.54
644.369	62.65
644.559	62.77
644.749	62.42
644.939	62.9
645.128	63.38
645.318	62.65
645.508	63.19
645.697	62.33
645.887	62.06
646.076	61.84
646.266	60.46
646.456	61.08
646.645	61.16
646.835	60.93
647.024	59.51
647.214	59.8
647.403	60.44
647.593	60.66
647.782	60.52
647.972	60.75
648.161	61.27
648.351	62.26
648.54	61.35
648.73	61.31
648.919	61.79
649.108	62.29
649.298	62.54
649.487	63
649.677	63.06
649.866	63.99
650.055	62.84
650.244	61.84
650.434	61.77
650.623	62.62
650.812	62.33
651.002	61.68
651.191	62.03
651.38	61.81
651.569	61.6
651.758	61.48
651.947	61.13
652.137	61.17
652.326	61.96
652.515	62.11
652.704	62.24
652.893	62.89
653.082	63.56
653.271	63.95
653.46	64.41
653.649	64.49
653.838	64.64
654.027	64.36
654.216	66.08
654.405	66.3
654.594	66.46
654.783	66.09
654.972	65.86
655.161	66.65
655.35	66.02
655.539	65.83
655.728	66.12
655.916	65.82
656.105	65.82
656.294	64.27
656.483	63.7
656.672	63.23
656.86	62.55
657.049	62.15
657.238	60.33
657.427	60.35
657.615	59.56
657.804	58.38
657.993	57.44
658.181	56.91
658.37	56.44
658.559	56.99
658.747	57.21
658.936	57.44
659.125	57.22
659.313	57.92
659.502	57.91
659.69	58.08
659.879	58.31
660.067	59.7
660.256	60.96
660.444	62.09
660.633	61.16
660.821	61.45
661.01	61.89
661.198	62.99
661.387	63.93
661.575	64.14
661.763	64.11
661.952	64.13
662.14	64.19
662.328	64.3
662.517	64.78
662.705	65.98
662.893	66.72
663.082	67.48
663.27	66.96
663.458	65.55
663.646	66.46
663.834	67.68
664.023	69.1
664.211	69.07
664.399	68.97
664.587	68.43
664.775	68.18
664.963	68.03
665.152	67.55
665.34	68.2
665.528	68.96
665.716	69.45
665.904	68.78
666.092	68.44
666.28	68.04
666.468	67.13
666.656	67
666.844	66.79
667.032	66.58
667.22	66.61
667.408	66.13
667.596	66.31
667.784	64.51
667.971	64.72
668.159	65
668.347	65.63
668.535	66.28
668.723	67.06
668.911	67.81
669.098	67.44
669.286	67.89
669.474	68.18
669.662	68.36
669.849	69.59
670.037	69.85
670.225	69.43
670.413	69.34
670.6	70.65
670.788	70.87
670.976	70.43
671.163	70.97
671.351	70.39
671.538	71.96
671.726	71.45
671.913	71.41
672.101	70.32
672.289	70.72
672.476	70.8
672.664	69.94
672.851	69.53
673.039	68.69
673.226	68.84
673.413	69.85
673.601	68.94
673.788	69.04
673.976	68.39
674.163	70.19
674.35	71.31
674.538	70.74
674.725	71.21
674.912	70.55
675.1	71.81
675.287	71.56
675.474	70.63
675.662	69.9
675.849	70.08
676.036	70.03
676.223	68.56
676.411	67.76
676.598	67.53
676.785	66.56
676.972	67.56
677.159	66.83
677.346	65.72
677.533	65.63
677.721	65.13
677.908	65.39
678.095	64.99
678.282	65.39
678.469	65.08
678.656	65.54
678.843	64.77
679.03	62.97
679.217	62.95
679.404	63.66
679.591	63.1
679.778	62.8
679.964	62.61
680.151	62.93
680.338	63.98
680.525	63.98
680.712	63.46
680.899	63.7
681.086	64.7
681.272	64.98
681.459	65.42
681.646	66.81
681.833	67.4
682.02	67.6
682.206	68.29
682.393	67.55
682.58	68.03
682.766	68.77
682.953	69.35
683.14	69.86
683.326	70.82
683.513	69.1
683.7	69.17
683.886	69.35
684.073	70
684.259	69.61
684.446	69.29
684.632	70.12
684.819	69.88
685.005	70.63
685.192	70.02
685.378	69.45
685.565	70.56
685.751	69.97
685.938	70.4
686.124	69.1
686.31	70.09
686.497	70.94
686.683	70.73
686.87	70.89
687.056	71.59
687.242	72.06
687.429	72.22
687.615	72
687.801	72.17
687.987	72.63
688.174	74.07
688.36	73.09
688.546	71.98
688.732	71.18
688.918	71.51
689.105	69.39
689.291	69.18
689.477	67.9
689.663	69.72
689.849	71.4
690.035	72.46
690.221	72.13
690.407	72.19
690.593	73.87
690.779	73.5
690.965	73.22
691.151	75.25
691.337	76
691.523	77.88
691.709	77.3
691.895	75.91
692.081	75.55
692.267	75.98
692.453	76.67
692.639	76.63
692.825	78.37
693.011	78.86
693.196	78.38
693.382	79.21
693.568	79.35
693.754	79.59
693.94	79.93
694.125	78.33
694.311	77.22
694.497	77.08
694.682	75.57
694.868	75.73
695.054	76.2
695.239	75.5
695.425	74.43
695.611	73.13
695.796	71.6
695.982	69.83
696.168	69.89
696.353	70.48
696.539	69.68
696.724	69.74
696.91	67.61
697.095	66.66
697.281	65.75
697.466	64.98
697.652	63.71
697.837	63.79
698.023	64.49
698.208	63.35
698.393	63.31
698.579	62.92
698.764	62.88
698.949	62.87
699.135	63.4
699.32	64.15
699.505	64.86
699.691	67
699.876	67.66
700.061	68.21
700.246	71.05
700.432	71.69
700.617	73.34
700.802	74.72
700.987	76.9
701.172	76.48
701.358	76.44
701.543	76.93
701.728	77.14
701.913	77.75
702.098	77.65
702.283	78.26
702.468	78.48
702.653	77.56
702.838	77.22
703.023	78.02
703.208	78.82
703.393	81.43
703.578	82
703.763	82.53
703.948	81.42
704.133	81.09
704.318	81.56
704.503	81.52
704.688	82.03
704.873	81.98
705.057	79.44
705.242	78.37
705.427	76.25
705.612	76.28
705.797	74.95
705.981	77.43
706.166	78.21
706.351	76.97
706.536	76.3
706.72	78.07
706.905	78.16
707.09	80.41
707.274	81.81
707.459	83.15
707.644	83.29
707.828	84.29
708.013	82.88
708.197	83.52
708.382	82.29
708.567	81.32
708.751	79.81
708.936	79.66
709.12	78.68
709.305	79.73
709.489	79.7
709.673	79.75
709.858	78.99
710.042	79.07
710.227	78.59
710.411	78.47
710.596	76.83
710.78	76.85
710.964	76.86
711.149	76.38
711.333	74.84
711.517	74.47
711.702	75.66
711.886	75.77
712.07	75.16
712.254	75.24
712.438	76.01
712.623	77.74
712.807	77.76
712.991	77.23
713.175	78.6
713.359	78.29
713.544	78.17
713.728	77.76
713.912	78.89
714.096	79.18
714.28	78.5
714.464	78.74
714.648	78.83
714.832	78.58
715.016	79.04
715.2	78.28
715.384	79.72
715.568	80.17
715.752	79.83
715.936	80.16
716.12	80.09
716.304	80.59
716.488	81.07
716.671	81.88
716.855	83.13
717.039	84.39
717.223	84.79
717.407	84.6
717.59	85.17
717.774	86.71
717.958	85.12
718.142	84.55
718.325	86.29
718.509	88.63
718.693	88.68
718.877	89.67
719.06	89.37
719.244	89.35
719.428	89.37
719.611	89.13
719.795	88.33
719.978	88.42
720.162	90.45
720.345	87.93
720.529	86.13
720.713	86.56
720.896	86.05
721.08	87.02
721.263	86.71
721.446	87.92
721.63	87.32
721.813	87.25
721.997	89.9
722.18	90.75
722.364	92.14
722.547	91.27
722.73	92.74
722.914	93.85
723.097	93.01
723.28	93.4
723.464	91.23
723.647	91.22
723.83	91.18
724.013	89.47
724.197	86.49
724.38	88.36
724.563	88
724.746	87.2
724.929	83.53
725.112	83.19
725.296	84.44
725.479	84.75
725.662	84.29
725.845	84.19
726.028	84.61
726.211	87.23
726.394	86.22
726.577	86.1
726.76	85.85
726.943	86.75
727.126	85.05
727.309	83.42
727.492	82.38
727.675	82.75
727.858	82.69
728.041	82.5
728.224	81.67
728.407	81.03
728.589	80.5
728.772	80.98
728.955	81.9
729.138	81.92
729.321	80.9
729.503	83.13
729.686	83.48
729.869	82.74
730.052	82.77
730.234	83.03
730.417	83.2
730.6	83.76
730.782	82.98
730.965	82.2
731.148	86
731.33	86.25
731.513	84.39
731.695	84.6
731.878	84.7
732.061	85.76
732.243	85.37
732.426	84.32
732.608	83.63
732.791	82.9
732.973	84.28
733.156	82.34
733.338	83.64
733.52	85.16
733.703	85.17
733.885	85.01
734.068	84.66
734.25	85.18
734.432	86.84
734.615	88.08
734.797	89.65
734.979	89.55
735.162	89.45
735.344	89.55
735.526	90.67
735.708	91.53
735.891	91.53
736.073	89.88
736.255	89.61
736.437	89.34
736.619	91.75
736.802	91.52
736.984	89.74
737.166	89.38
737.348	88.72
737.53	87.57
737.712	85.98
737.894	87.73
738.076	88.12
738.258	87.93
738.44	88.91
738.622	87.37
738.804	88.09
738.986	88.72
739.168	90.9
739.35	92.59
739.532	93.15
739.714	94.08
739.896	93.56
740.078	93.51
740.259	93.45
740.441	91.92
740.623	94.11
740.805	91.7
740.987	92.07
741.168	88.96
741.35	89.88
741.532	90.68
741.714	89.48
741.895	88.24
742.077	87.48
742.259	89.22
742.44	90.46
742.622	87.44
742.804	88.11
742.985	89.29
743.167	90.6
743.348	87.29
743.53	83.99
743.711	86.37
743.893	87
744.075	88.2
744.256	86.5
744.438	88.38
744.619	91.64
744.8	93.2
744.982	95.21
745.163	95.06
745.345	96.95
745.526	101.1
745.707	99.29
745.889	99.56
746.07	99.29
746.252	103.18
746.433	101.04
746.614	99.21
746.795	99.01
746.977	96.18
747.158	93.49
747.339	93.67
747.52	92.87
747.702	94.58
747.883	92.74
748.064	94.05
748.245	93.07
748.426	92.87
748.607	90.5
748.788	89.31
748.97	91.14
749.151	95.7
749.332	97.56
749.513	96.99
749.694	97.8
749.875	100.05
750.056	100.36
750.237	98.97
750.418	97.35
750.599	99.22
750.78	100.26
750.96	101.2
751.141	99.03
751.322	97.68
751.503	97.63
751.684	97.81
751.865	97.69
752.046	96.56
752.226	95.82
752.407	98.5
752.588	99.66
752.769	99.06
752.949	95.98
753.13	97.8
753.311	92.34
753.492	93.33
753.672	92.6
753.853	94.04
754.034	94.86
754.214	95.65
754.395	93.62
754.575	91.33
754.756	91.62
754.937	92.2
755.117	92.28
755.298	96.79
755.478	94.44
755.659	96.06
755.839	94.31
756.02	94.83
756.2	95.26
756.381	95.58
756.561	97.42
756.741	97.08
756.922	96.85
757.102	96.24
757.283	98.12
757.463	98.44
757.643	94.97
757.823	94.16
758.004	94.65
758.184	93.78
758.364	94.69
758.545	92.01
758.725	93.58
758.905	94.52
759.085	94.92
759.265	93.51
759.446	94.2
759.626	94.36
759.806	95.57
759.986	94.91
760.166	93.75
760.346	91.2
760.526	92.68
760.706	92.63
760.886	91.09
761.066	89.67
761.246	89.25
761.426	87.49
761.606	87.07
761.786	85.2
761.966	84.1
762.146	83.3
762.326	82.16
762.506	80.85
762.686	79.06
762.866	78.72
763.046	78.43
763.225	77.56
763.405	77.89
763.585	78.03
763.765	77.57
763.945	77.24
764.124	78.56
764.304	80.53
764.484	82.13
764.664	82.9
764.843	82.78
765.023	83.32
765.203	84.96
765.382	86.38
765.562	86.53
765.741	91.65
765.921	92.23
766.101	94.16
766.28	94.35
766.46	93.78
766.639	95.58
766.819	98.26
766.998	99.2
767.178	98.87
767.357	99.86
767.537	102.6
767.716	101.67
767.896	103.8
768.075	101.34
768.254	100.87
768.434	101.12
768.613	102.73
768.792	102.02
768.972	104.15
769.151	105.9
769.33	106.34
769.51	105.57
769.689	103.76
769.868	104.11
770.047	103.66
770.226	106.56
770.406	109.22
770.585	108.21
770.764	109.75
770.943	108.49
771.122	110.18
771.301	109.28
771.48	110.2
771.66	109.4
771.839	108.64
772.018	113.05
772.197	112.57
772.376	114.51
772.555	115.11
772.734	112.02
772.913	113.58
773.092	111.1
773.271	111.64
773.449	114.69
773.628	117.82
773.807	116.77
773.986	115.59
774.165	116.67
774.344	117.32
774.523	119.85
774.701	122.38
774.88	118.92
775.059	122.36
775.238	120.77
775.417	119.54
775.595	119.72
775.774	120.34
775.953	121.35
776.131	116.62
776.31	112.43
776.489	108.91
776.667	108.16
776.846	112.66
777.025	109.04
777.203	111.65
777.382	111.36
777.56	106.48
777.739	107.44
777.917	108.71
778.096	113.05
778.274	112.56
778.453	113.62
778.631	115.75
778.81	112.06
778.988	111.76
779.166	108.95
779.345	106.23
779.523	114.22
779.702	115.06
779.88	112.61
780.058	109.38
780.237	111.9
780.415	109.88
780.593	108.34
780.771	109.92
780.95	113.87
781.128	118.31
781.306	121.95
781.484	119.67
781.662	120.27
781.841	121.78
782.019	125.5
782.197	123.81
782.375	127.05
782.553	132.92
782.731	127.16
782.909	127.26
783.087	123.13
783.265	117.54
783.443	113.71
783.621	110.7
783.799	112.4
783.977	110.57
784.155	112.64
784.333	111.87
784.511	104.16
784.689	108.47
784.867	105.26
785.045	106.7
785.223	108.38
785.4	115.09
785.578	117.04
785.756	117.88
785.934	116.01
786.112	115.66
786.289	115.2
786.467	115.63
786.645	114.04
786.823	111.63
787	109.96
787.178	111.82
787.356	109.38
787.533	107.76
787.711	104.39
787.889	107.5
788.066	104.72
788.244	105.4
788.421	108.8
788.599	112
788.776	112.72
788.954	109.87
789.131	113.6
789.309	109.52
789.486	107.9
789.664	110.25
789.841	109.27
790.019	110.46
790.196	107.74
790.373	108.69
790.551	102.71
790.728	103.83
790.906	107.62
791.083	107.76
791.26	114.36
791.437	119.22
791.615	115.02
791.792	116.15
791.969	118.69
792.146	118.7
792.324	117.44
792.501	121.65
792.678	119.59
792.855	122.97
793.032	115.26
793.209	112.27
793.387	110.32
793.564	112.7
793.741	111.96
793.918	113.79
794.095	115.38
794.272	114.41
794.449	113.38
794.626	117.07
794.803	113.26
794.98	113.6
795.157	113.26
795.334	114.43
795.511	116.11
795.688	111.77
795.864	111.14
796.041	110.9
796.218	114.68
796.395	112.57
796.572	111.19
796.749	117.42
796.925	114.99
797.102	112.28
797.279	111.5
797.456	108.68
797.632	111.29
797.809	108.98
797.986	110.54
798.162	102.96
798.339	102.99
798.516	105.19
798.692	100.09
798.869	102.49
799.046	102.76
799.222	104.06
799.399	105.64
799.575	102.7
799.752	105.02
799.928	104.91
800.105	105.37
800.281	104.97
800.458	106.22
800.634	101.93
800.811	100.09
800.987	103.63
801.163	102.61
801.34	102.52
801.516	105.57
801.692	106.41
801.869	102.48
802.045	108.93
802.221	113.5
802.398	110.17
802.574	114.12
802.75	122.03
802.926	122.07
803.103	125.01
803.279	122.21
803.455	121.73
803.631	116.86
803.807	118.56
803.983	114.4
804.16	109.11
804.336	105.35
804.512	105.62
804.688	98.25
804.864	93.32
805.04	96.44
805.216	95.36
805.392	95.6
805.568	92.93
805.744	95.57
805.92	100.07
806.096	101.68
806.272	107.35
806.448	102.51
806.623	105.25
806.799	104.04
806.975	95.83
807.151	96.21
807.327	98.48
807.503	97.22
807.678	96.51
807.854	96.16
808.03	93.89
808.206	92.01
808.381	97.32
808.557	93.68
808.733	96.47
808.908	102.69
809.084	100.51
809.26	101.07
809.435	109.14
809.611	106.6
809.787	105.17
809.962	109.6
810.138	112.19
810.313	108.2
810.489	111.66
810.664	109.99
810.84	105.67
811.015	108.51
811.191	104.12
811.366	96.69
811.542	100.64
811.717	103.65
811.892	104.95
812.068	106.86
812.243	106.59
812.419	109.25
812.594	110.82
812.769	107.07
812.944	108.74
813.12	113.55
813.295	113.99
813.47	110.24
813.645	108.15
813.821	105.52
813.996	102.21
814.171	106.08
814.346	104.76
814.521	105.17
814.697	104.47
814.872	108.6
815.047	105.91
815.222	112.46
815.397	111.77
815.572	106.91
815.747	106.56
815.922	104.26
816.097	107.02
816.272	104.89
816.447	102.6
816.622	106.36
816.797	101.2
816.972	99.92
817.147	99.59
817.322	100.47
817.496	103.44
817.671	104.5
817.846	105.03
818.021	101.71
818.196	97.69
818.371	95.65
818.545	95.72
818.72	97.44
818.895	97.57
819.069	95.01
819.244	92.64
819.419	88.63
819.594	82.74
819.768	80.25
819.943	75.78
820.117	72.4
820.292	69.96
820.467	64.02
820.641	59.11
820.816	55.58
820.99	52.84
821.165	51.4
821.339	49.73
821.514	48.22
821.688	46.82
821.863	45.65
822.037	45.34
822.212	44.45
822.386	45
822.56	45.78
822.735	45.68
822.909	46.24
823.084	46.27
823.258	46.9
823.432	48.01
823.606	48.39
823.781	49.77
823.955	49.99
824.129	51.35
824.303	51.14
824.478	51.2
824.652	51.72
824.826	52.22
825	53.83
825.174	55.1
825.348	54.3
825.523	54.66
825.697	54.55
825.871	55.87
826.045	56.64
826.219	57.31
826.393	57.02
826.567	57.81
826.741	58.55
826.915	58.81
827.089	58.82
827.263	59.98
827.437	59.92
827.611	60.79
827.784	61.31
827.958	60.07
828.132	60.7
828.306	62.57
828.48	63.92
828.654	64.86
828.827	64.29
829.001	64.89
829.175	66.97
829.349	68.22
829.522	68.55
829.696	71.95
829.87	73.13
830.044	75.22
830.217	76.07
830.391	77.38
830.565	72.73
830.738	76.34
830.912	79.47
831.085	81.5
831.259	83.5
831.432	84.09
831.606	78.95
831.779	75.22
831.953	73.14
832.126	73.29
832.3	69.97
832.473	70.21
832.647	65.46
832.82	62.25
832.994	60.51
833.167	58.72
833.34	55.71
833.514	56.37
833.687	58.41
833.86	58.86
834.034	57.91
834.207	59.36
834.38	61.56
834.553	64.38
834.727	65.29
834.9	64.36
835.073	62.74
835.246	62.9
835.419	61.38
835.593	63.23
835.766	66.44
835.939	66.34
836.112	66.17
836.285	63.21
836.458	61.62
836.631	57.49
836.804	60.94
836.977	65.36
837.15	70.88
837.323	78.61
837.496	83.67
837.669	80.16
837.842	84.3
838.015	84.03
838.188	86.14
838.361	85.44
838.533	88.78
838.706	83.68
838.879	80.37
839.052	83.21
839.225	78.43
839.398	74.44
839.57	73.63
839.743	69.23
839.916	72.01
840.088	77.77
840.261	80.81
840.434	80.04
840.607	85.05
840.779	92.89
840.952	90.52
841.124	101.42
841.297	102.11
841.47	106.71
841.642	120.38
841.815	120.62
841.987	117.22
842.16	114.46
842.332	125.53
842.505	120.38
842.677	112.35
842.85	114.98
843.022	110.28
843.194	111.13
843.367	111.74
843.539	106.38
843.712	115.26
843.884	107.86
844.056	110.8
844.229	102.63
844.401	108.01
844.573	113.34
844.745	108.21
844.918	98.89
845.09	100.62
845.262	98.69
845.434	104.48
845.606	106.32
845.779	115.72
845.951	115.43
846.123	117.96
846.295	110.75
846.467	116.83
846.639	117
846.811	122.37
846.983	129.44
847.155	126.38
847.327	104.93
847.499	102.92
847.671	96.06
847.843	92.84
848.015	98.05
848.187	108.25
848.359	111.32
848.531	113.3
848.703	112.91
848.875	108.76
849.047	110.48
849.218	133.27
849.39	138.79
849.562	155.69
849.734	163.25
849.905	159.03
850.077	149.34
850.249	151
850.421	161.76
850.592	154.69
850.764	166.95
850.936	160.12
851.107	158.55
851.279	142.49
851.451	135.74
851.622	129.89
851.794	133.07
851.965	138.6
852.137	135.99
852.308	132.77
852.48	141.99
852.651	127.34
852.823	138.62
852.994	129.38
853.166	125.46
853.337	132.34
853.509	124.39
853.68	137.22
853.851	147
854.023	136.89
854.194	127.81
854.365	117.2
854.537	111.78
854.708	111.82
854.879	111.24
855.05	111.41
855.222	103.24
855.393	102.54
855.564	81.64
855.735	75.88
855.906	86.11
856.078	97.29
856.249	103.95
856.42	123.14
856.591	123.33
856.762	129.3
856.933	147.6
857.104	141.01
857.275	151.76
857.446	167.08
857.617	144.93
857.788	134.77
857.959	117.08
858.13	108.7
858.301	95.38
858.472	81.67
858.643	82.67
858.814	66.52
858.985	80.64
859.155	88.92
859.326	91.39
859.497	93.7
859.668	100.28
859.839	108.2
860.009	107.78
860.18	116.97
860.351	132.9
860.522	127.56
860.692	126.85
860.863	119.73
861.034	117.15
861.204	126.02
861.375	134.87
861.546	136.42
861.716	132.34
861.887	138.1
862.057	132.66
862.228	136.28
862.398	117.24
862.569	115.61
862.739	127.19
862.91	129.99
863.08	112.74
863.251	109.76
863.421	96.57
863.592	111.68
863.762	116.27
863.932	124.21
864.103	119.7
864.273	135.57
864.443	144.71
864.614	127.11
864.784	122.01
864.954	117.28
865.125	114.44
865.295	105.25
865.465	92.93
865.635	84.39
865.805	76.45
865.976	77.45
866.146	79.85
866.316	74.71
866.486	76.04
866.656	76.38
866.826	87.4
866.996	89.23
867.166	103.28
867.336	97.65
867.506	95
867.676	99.66
867.846	101.29
868.016	107.13
868.186	110.81
868.356	113.44
868.526	115.39
868.696	96.8
868.866	92.4
869.036	91.15
869.206	105.02
869.376	100.75
869.545	95.94
869.715	97.73
869.885	94.38
870.055	98.41
870.224	97.32
870.394	82.34
870.564	86.76
870.734	74.01
870.903	72.52
871.073	73.41
871.243	88.14
871.412	82.69
871.582	78.42
871.751	75.94
871.921	70.92
872.091	70
872.26	84.08
872.43	99.53
872.599	120.29
872.769	126.16
872.938	112.78
873.108	107.24
873.277	127.97
873.446	123.16
873.616	148.23
873.785	157.82
873.955	139.76
874.124	135.31
874.293	118.81
874.463	108.99
874.632	91.21
874.801	89.91
874.971	82.37
875.14	78.99
875.309	80.99
875.478	73.65
875.647	71.52
875.817	68.89
875.986	63.61
876.155	77.21
876.324	76.96
876.493	82.45
876.662	85.99
876.831	86.8
877	86.54
877.17	96.57
877.339	96.23
877.508	104.67
877.677	102.73
877.846	110.39
878.015	95.86
878.184	94.7
878.352	97.01
878.521	94.9
878.69	84.74
878.859	80.66
879.028	74.87
879.197	75.05
879.366	65.87
879.534	63.37
879.703	55.17
879.872	53.5
880.041	55.82
880.21	50.93
880.378	45.02
880.547	49.09
880.716	47.08
880.884	46.06
881.053	43.73
881.222	42.85
881.39	42.78
881.559	43.58
881.727	44.83
881.896	42.73
882.065	43.7
882.233	44.62
882.402	42.12
882.57	43.34
882.739	43.6
882.907	43.3
883.076	45.33
883.244	44.33
883.412	45.33
883.581	44.63
883.749	47.12
883.918	44.8
884.086	45.95
884.254	50.5
884.423	50.82
884.591	52.43
884.759	53.95
884.927	53.87
885.096	55.83
885.264	53.49
885.432	53.96
885.6	50.81
885.769	56.5
885.937	57.42
886.105	55.34
886.273	53.59
886.441	50.14
886.609	53.37
886.777	48.67
886.945	49.55
887.113	47.05
887.281	42.66
887.449	47.37
887.617	47.18
887.785	49.54
887.953	41.17
888.121	42.09
888.289	49.54
888.457	57.4
888.625	64.62
888.793	66.84
888.961	76.8
889.129	85.33
889.296	83.65
889.464	82.39
889.632	79.44
889.8	96.49
889.967	101.92
890.135	96.24
