Data from JASIL_3076_Reflection_01.txt Node
Date: Mon Nov 09 11:46:13 EST 2015
User: Geneva
Spectrometer: USB4E03002
Autoset integration time: false
Trigger mode: 4
Integration Time (sec): 1.000000E-1
Scans to average: 10
Electric dark correction enabled: false
Nonlinearity correction enabled: false
Boxcar width: 5
Stray light correction enabled: false
XAxis mode: Wavelengths
Stop averaging: false
Number of Pixels in Spectrum: 3648
>>>>>Begin Spectral Data<<<<<
177.575	-23.39
177.794	3.11
178.014	6.03
178.233	-0
178.452	-30.08
178.672	-29.3
178.891	-77.75
179.11	-43.02
179.33	-37.96
179.549	-38.95
179.768	-16.56
179.987	-72.93
180.207	-51.09
180.426	-227.27
180.645	-10.14
180.864	-34.12
181.084	-4.17
181.303	47.07
181.522	28.57
181.741	17.68
181.96	24.6
182.179	22.31
182.398	35.26
182.618	23.68
182.837	-1.75
183.056	-5.46
183.275	42.64
183.494	86
183.713	-143.96
183.932	3840
184.151	432.61
184.37	349.09
184.589	-142.86
184.808	400
185.027	-12700
185.246	12.99
185.465	81.01
185.684	242.11
185.903	-117.59
186.122	94.51
186.341	127.83
186.56	126.67
186.779	48.33
186.998	-7.84
187.216	21.38
187.435	-63.92
187.654	-446.87
187.873	-155.76
188.092	-124.27
188.311	-538
188.53	-1179.31
188.748	1404.55
188.967	-359
189.186	-242.15
189.405	-332.14
189.623	-184.47
189.842	-0.82
190.061	-0.79
190.28	6.64
190.498	-122.58
190.717	-49.25
190.936	-161.74
191.154	-269.3
191.373	1814.29
191.592	606.67
191.81	208.6
192.029	222.61
192.248	309.76
192.466	124.47
192.685	114.29
192.904	418.18
193.122	296.91
193.341	151.13
193.559	-83.05
193.778	400
193.996	-13.16
194.215	86.21
194.433	233.98
194.652	-361.9
194.87	246.77
195.089	65.26
195.307	175.38
195.526	128.52
195.744	67.36
195.963	75.04
196.181	67.08
196.399	41.67
196.618	47
196.836	19.66
197.055	12.61
197.273	19.3
197.491	30.56
197.71	22.76
197.928	31.06
198.146	51.54
198.365	34.31
198.583	-23.93
198.801	41.63
199.019	-58.65
199.238	-9.59
199.456	-71.58
199.674	19.48
199.892	51.22
200.111	-39.08
200.329	-30.1
200.547	-65.92
200.765	3.42
200.983	29.81
201.202	46.88
201.42	46.13
201.638	56.44
201.856	44.67
202.074	88.41
202.292	97.53
202.51	136
202.728	428.46
202.946	9566.67
203.165	-122.27
203.383	-79.01
203.601	-885.37
203.819	-93
204.037	-17.03
204.255	-14.85
204.473	-42.63
204.691	-41.15
204.909	-50.37
205.127	-24.22
205.345	-34.77
205.562	-102.06
205.78	-97.04
205.998	-69.86
206.216	-158.45
206.434	-202.37
206.652	-260.9
206.87	-232.35
207.088	-340.54
207.306	475
207.523	112.23
207.741	94.35
207.959	150
208.177	128.37
208.395	95.79
208.612	109.77
208.83	127.99
209.048	101.71
209.266	121.6
209.483	121.14
209.701	155.14
209.919	151.15
210.136	109.77
210.354	90.17
210.572	148.13
210.79	157.39
211.007	138.27
211.225	83.99
211.442	232.35
211.66	100
211.878	345.59
212.095	-1071.43
212.313	16985.71
212.53	-2547.5
212.748	1683.33
212.966	330.9
213.183	242.37
213.401	214.64
213.618	312.5
213.836	230.46
214.053	303.49
214.271	264.55
214.488	17.36
214.705	-50.61
214.923	-88.33
215.14	185.19
215.358	126.56
215.575	75.46
215.793	37.64
216.01	77.78
216.227	140.92
216.445	121.79
216.662	80
216.879	101.37
217.097	91.7
217.314	123.93
217.531	-337.5
217.749	106.67
217.966	56
218.183	112.26
218.4	-201.37
218.618	-156.56
218.835	-100.76
219.052	-25.69
219.269	72.34
219.487	16.1
219.704	486.96
219.921	-197.44
220.138	269.23
220.355	182.47
220.572	139.13
220.79	125.65
221.007	166.3
221.224	269.63
221.441	229.97
221.658	410.82
221.875	564.24
222.092	546.28
222.309	307.14
222.526	433.59
222.743	405.04
222.96	210
223.177	130.25
223.394	71.08
223.611	47
223.828	18.05
224.045	37.56
224.262	31.37
224.479	34.3
224.696	30.5
224.913	14.66
225.13	62.22
225.347	38.22
225.564	52.43
225.781	43.89
225.997	50.79
226.214	44.59
226.431	38.64
226.648	27.48
226.865	30.83
227.082	21.82
227.298	25.29
227.515	15.58
227.732	12.33
227.949	6.41
228.165	9.08
228.382	11.06
228.599	8.61
228.816	4.32
229.032	5.26
229.249	12.89
229.466	17.15
229.682	11.96
229.899	11.32
230.116	21.08
230.332	20.22
230.549	22.68
230.765	15.38
230.982	3.07
231.199	9.19
231.415	19.59
231.632	1.04
231.848	5.45
232.065	18.35
232.281	38.09
232.498	20.58
232.714	19.75
232.931	26.81
233.147	31.94
233.364	43.22
233.58	47.17
233.797	38.15
234.013	31.35
234.23	20.91
234.446	19.72
234.662	1.81
234.879	13.27
235.095	26.96
235.312	32.43
235.528	21.81
235.744	13.48
235.961	-3.71
236.177	-11.65
236.393	-5.62
236.61	-9.4
236.826	-18.23
237.042	9.48
237.258	3.03
237.475	-8.74
237.691	-38.95
237.907	1.71
238.123	22.28
238.339	20.43
238.556	21.08
238.772	31.47
238.988	37.91
239.204	31.32
239.42	15.09
239.636	20.69
239.853	14.3
240.069	15.67
240.285	9.33
240.501	8.53
240.717	10.09
240.933	12.02
241.149	10.13
241.365	11.13
241.581	15.46
241.797	17.11
242.013	15.86
242.229	18.82
242.445	17.53
242.661	18.57
242.877	16.06
243.093	17.97
243.309	18.09
243.525	16.4
243.741	23.53
243.957	17.49
244.173	16.78
244.388	14.52
244.604	9.99
244.82	10.82
245.036	9.45
245.252	10.63
245.468	8.74
245.683	4.69
245.899	5.1
246.115	2.76
246.331	2.91
246.547	3.63
246.762	3.65
246.978	5.01
247.194	5.3
247.409	7.12
247.625	5.29
247.841	7.45
248.057	12.32
248.272	14.53
248.488	16.11
248.703	17.95
248.919	17.48
249.135	16.45
249.35	20.33
249.566	16.56
249.782	14.62
249.997	18.8
250.213	20
250.428	17.53
250.644	15.9
250.859	10.01
251.075	2.34
251.29	3.97
251.506	6.42
251.721	-1.28
251.937	8.95
252.152	11
252.368	12.32
252.583	2.72
252.798	0.37
253.014	6.27
253.229	13.15
253.445	25.06
253.66	25.91
253.875	27.17
254.091	40.27
254.306	29.26
254.521	22.13
254.737	18.53
254.952	30.02
255.167	32.47
255.383	32.97
255.598	33.88
255.813	26.07
256.028	29.67
256.244	22.89
256.459	9.1
256.674	12.14
256.889	13.92
257.104	14.83
257.32	9.62
257.535	10.52
257.75	9.19
257.965	8.71
258.18	9.39
258.395	7.61
258.61	9.03
258.826	9.29
259.041	7.67
259.256	8.18
259.471	6.22
259.686	5.67
259.901	5.27
260.116	4.02
260.331	3.65
260.546	3.52
260.761	2.93
260.976	5.42
261.191	5.88
261.406	6.9
261.621	7.17
261.836	9.26
262.05	14.4
262.265	18.31
262.48	14.34
262.695	12.37
262.91	10.06
263.125	8.04
263.34	4.27
263.555	7.64
263.769	6.33
263.984	8.37
264.199	12.08
264.414	4.26
264.629	1.48
264.843	7.49
265.058	5.42
265.273	6.78
265.488	8.98
265.702	6.38
265.917	6.06
266.132	7.33
266.346	6.63
266.561	1.69
266.776	1.19
266.99	0.14
267.205	-2.38
267.42	0.93
267.634	1.6
267.849	-3.56
268.063	0.53
268.278	1.84
268.492	0.93
268.707	-0.66
268.922	0.38
269.136	6.76
269.351	10.06
269.565	11.92
269.78	11.74
269.994	11.3
270.209	14.69
270.423	14.51
270.637	16.86
270.852	18.18
271.066	16.01
271.281	14.14
271.495	14.02
271.709	10.89
271.924	9.29
272.138	7.84
272.353	6.19
272.567	4.54
272.781	3.24
272.996	-1.81
273.21	-5.58
273.424	-2.89
273.638	1.99
273.853	-0.26
274.067	0.05
274.281	5.15
274.495	8.09
274.71	7.84
274.924	11.5
275.138	10.78
275.352	9.71
275.566	10.51
275.781	10.19
275.995	8.9
276.209	10.19
276.423	14.54
276.637	14.94
276.851	8.99
277.065	10.62
277.279	9.89
277.493	9.12
277.707	7.75
277.921	8.09
278.135	8.64
278.349	8.65
278.563	4.09
278.777	2.27
278.991	1.37
279.205	5
279.419	4.98
279.633	3.07
279.847	4.87
280.061	6.03
280.275	5.96
280.489	6.66
280.703	4.32
280.917	2.72
281.131	1.74
281.344	3.73
281.558	1.47
281.772	1.76
281.986	1.88
282.2	-0.23
282.414	-0.16
282.627	0.49
282.841	-1.54
283.055	-0.1
283.269	4.81
283.482	7.06
283.696	3.71
283.91	3.66
284.123	3.55
284.337	1.97
284.551	-0.41
284.764	1.7
284.978	1.28
285.192	0.74
285.405	3.1
285.619	0.4
285.833	-2.18
286.046	-2.36
286.26	-1.61
286.473	-2.59
286.687	0.65
286.9	2.7
287.114	1.93
287.327	0.61
287.541	2.7
287.754	0.05
287.968	2.16
288.181	2.4
288.395	4.63
288.608	5.66
288.822	5.45
289.035	3.76
289.248	5.01
289.462	3.82
289.675	4.55
289.889	4.27
290.102	3.56
290.315	3.16
290.529	3.55
290.742	2.08
290.955	4.3
291.169	4.9
291.382	5.45
291.595	6.52
291.808	6.07
292.022	4.49
292.235	3.91
292.448	6.94
292.661	8.07
292.875	7
293.088	7.21
293.301	4.21
293.514	3.01
293.727	3.37
293.94	2.37
294.153	2.89
294.367	5.01
294.58	4.88
294.793	3.75
295.006	3.68
295.219	4.7
295.432	3.18
295.645	4.27
295.858	5.95
296.071	6.17
296.284	4.97
296.497	7.31
296.71	8.24
296.923	7.41
297.136	8.69
297.349	8.95
297.562	7.96
297.775	9.14
297.988	7.92
298.201	5.19
298.414	5.58
298.626	6.1
298.839	3.92
299.052	2.47
299.265	3.91
299.478	3.46
299.691	2.86
299.903	4.83
300.116	5.89
300.329	9.35
300.542	12.42
300.755	11.68
300.967	12.8
301.18	13.53
301.393	16.26
301.605	13.16
301.818	11.2
302.031	9.92
302.243	7.9
302.456	5.56
302.669	4.21
302.881	1.72
303.094	0.89
303.307	1.91
303.519	1.63
303.732	1.22
303.944	6.46
304.157	4.36
304.37	5
304.582	5.62
304.795	8.45
305.007	8.32
305.22	8.53
305.432	9.19
305.645	9.48
305.857	10.22
306.069	4.59
306.282	4.49
306.494	6.75
306.707	8.63
306.919	7.35
307.132	7.24
307.344	7.18
307.556	8.1
307.769	8.48
307.981	7.86
308.193	5.75
308.406	6.81
308.618	6.37
308.83	5.37
309.043	6
309.255	9.62
309.467	8.63
309.679	7.1
309.892	6.92
310.104	4.98
310.316	3.6
310.528	5.51
310.74	6.49
310.953	6.1
311.165	9.19
311.377	8.83
311.589	5.46
311.801	5.43
312.013	4.25
312.225	6.71
312.437	7.43
312.649	8.57
312.862	7.84
313.074	9.62
313.286	7.98
313.498	2.73
313.71	2.36
313.922	5.26
314.134	6.46
314.346	9.42
314.558	8.46
314.77	10.61
314.982	10.6
315.193	9.59
315.405	5.92
315.617	5.71
315.829	5.11
316.041	4.61
316.253	2.48
316.465	1.15
316.677	0.74
316.888	3
317.1	0.78
317.312	1.76
317.524	4.43
317.736	7.38
317.947	7.78
318.159	9.95
318.371	6.74
318.583	4.14
318.794	1.97
319.006	4.24
319.218	0.37
319.43	2.15
319.641	3.34
319.853	3.06
320.064	6.38
320.276	6.66
320.488	8.56
320.699	13.09
320.911	16.2
321.123	16.73
321.334	16.48
321.546	17.29
321.757	15.61
321.969	15.5
322.18	13.92
322.392	12.9
322.603	11.7
322.815	11.1
323.026	11.09
323.238	10.8
323.449	13.74
323.661	13.32
323.872	9.26
324.083	9.21
324.295	7.8
324.506	9.31
324.718	6.79
324.929	10.42
325.14	10.88
325.352	9.11
325.563	8.78
325.774	6.46
325.986	4.66
326.197	8.7
326.408	10.17
326.62	8.46
326.831	7.6
327.042	7.3
327.253	3.28
327.464	2.74
327.676	3.02
327.887	4.78
328.098	7.8
328.309	8.63
328.52	7.52
328.732	6.74
328.943	8.88
329.154	8.51
329.365	9.88
329.576	12.11
329.787	12.86
329.998	12.25
330.209	8.68
330.42	9.82
330.631	9.17
330.842	8.84
331.053	9.63
331.264	10.2
331.475	12.07
331.686	11.06
331.897	13.02
332.108	12.36
332.319	13.47
332.53	15.01
332.741	12.21
332.952	13.8
333.163	15.26
333.374	15.36
333.585	14.65
333.795	13.77
334.006	15.67
334.217	12.7
334.428	12.75
334.639	12.68
334.849	14.7
335.06	13.16
335.271	14.45
335.482	13.55
335.692	13
335.903	14.68
336.114	14.41
336.325	14.47
336.535	17.43
336.746	17.21
336.957	16.98
337.167	14.97
337.378	17.49
337.589	14.08
337.799	13.57
338.01	15.18
338.22	11.87
338.431	12.91
338.642	11.52
338.852	9.81
339.063	8.21
339.273	8.12
339.484	7.97
339.694	7.75
339.905	10.72
340.115	11.68
340.326	10.98
340.536	11.05
340.746	10.15
340.957	8.51
341.167	8.91
341.378	9.13
341.588	9.24
341.799	12.48
342.009	12.34
342.219	10.56
342.43	10.59
342.64	8.66
342.85	8.95
343.061	9.86
343.271	10.78
343.481	9.86
343.691	10.98
343.902	11.07
344.112	9.09
344.322	8.35
344.532	10.1
344.743	9.43
344.953	10.43
345.163	13.59
345.373	14.81
345.583	13.15
345.793	13.76
346.004	13.29
346.214	15.12
346.424	15.37
346.634	15.47
346.844	15.23
347.054	17.14
347.264	17.67
347.474	15.5
347.684	12.59
347.894	14.65
348.104	15.45
348.314	15.37
348.524	13.77
348.734	14.42
348.944	15.56
349.154	14.04
349.364	11.54
349.574	11.17
349.784	10.21
349.994	11.57
350.204	11.58
350.413	10.82
350.623	11.13
350.833	10.61
351.043	10.37
351.253	10.45
351.463	10.98
351.672	10.11
351.882	11.09
352.092	13.43
352.302	14.3
352.511	12.98
352.721	13.49
352.931	14.48
353.141	14.26
353.35	14.66
353.56	12.81
353.77	14.02
353.979	14.5
354.189	12.48
354.399	11.42
354.608	11.09
354.818	12.69
355.027	12.47
355.237	13.56
355.447	13.69
355.656	11.01
355.866	11.42
356.075	8.71
356.285	9.63
356.494	9.84
356.704	9.04
356.913	7.43
357.123	8.3
357.332	9.2
357.542	6.09
357.751	6.68
357.96	7.95
358.17	8.54
358.379	11.05
358.589	10.33
358.798	10.35
359.007	9.86
359.217	9.53
359.426	8.75
359.635	7.96
359.845	8.34
360.054	8.1
360.263	9.33
360.472	9.75
360.682	7.9
360.891	7.58
361.1	6.82
361.309	8.23
361.519	8.15
361.728	8.24
361.937	7.65
362.146	8.53
362.355	10.33
362.564	9.6
362.774	9.16
362.983	9.81
363.192	11
363.401	12.82
363.61	12.1
363.819	14.42
364.028	13.41
364.237	14.62
364.446	14.41
364.655	11.89
364.864	12.53
365.073	12.35
365.282	11.48
365.491	11.97
365.7	10.73
365.909	12
366.118	9.06
366.327	9.71
366.536	9.49
366.745	8.83
366.954	10.09
367.162	9.14
367.371	9.09
367.58	10.48
367.789	11.3
367.998	12.62
368.207	11.13
368.415	12.85
368.624	13.64
368.833	13.36
369.042	13.41
369.25	12.45
369.459	13.07
369.668	11.66
369.877	12.94
370.085	10.94
370.294	10.49
370.503	10.15
370.711	10.43
370.92	9.09
371.129	9.19
371.337	10.43
371.546	9.83
371.754	8.45
371.963	9.24
372.171	7.66
372.38	7.39
372.589	6.97
372.797	7.13
373.006	6.92
373.214	7.65
373.423	6.28
373.631	5.66
373.84	5.22
374.048	5.83
374.256	5.89
374.465	5.77
374.673	6.42
374.882	7.12
375.09	7.27
375.298	7.33
375.507	8
375.715	8.2
375.923	8.58
376.132	10.34
376.34	10.01
376.548	10.81
376.757	10.33
376.965	10.44
377.173	10.44
377.381	10.54
377.59	9.35
377.798	9.83
378.006	9.64
378.214	9.17
378.423	9.18
378.631	9.87
378.839	9.84
379.047	11.38
379.255	11.31
379.463	10.96
379.671	11.54
379.879	12.12
380.088	12.27
380.296	13.11
380.504	13.16
380.712	12.14
380.92	11.72
381.128	10.6
381.336	10.54
381.544	11.4
381.752	11.06
381.96	9.34
382.168	9.58
382.376	8.53
382.584	8.64
382.791	10.41
382.999	10.33
383.207	9.64
383.415	9.11
383.623	9
383.831	8.54
384.039	8.9
384.247	9.78
384.454	9.69
384.662	8.92
384.87	8.52
385.078	7.17
385.285	7.12
385.493	8.08
385.701	9.24
385.909	9.1
386.116	9.43
386.324	9.29
386.532	10.04
386.739	10.62
386.947	11.45
387.155	11.39
387.362	11.5
387.57	11.22
387.778	11.17
387.985	9.95
388.193	10.27
388.4	10.11
388.608	9.64
388.816	9.8
389.023	7.67
389.231	7.72
389.438	8.77
389.646	8.22
389.853	9.51
390.061	9.09
390.268	10.67
390.475	9.36
390.683	10.06
390.89	10.58
391.098	10.67
391.305	11.83
391.512	11.03
391.72	10.31
391.927	11.02
392.135	9.78
392.342	9.36
392.549	9.94
392.756	10.38
392.964	8.52
393.171	8.41
393.378	8.68
393.586	8.5
393.793	8.98
394	9.89
394.207	8.38
394.414	8.23
394.622	9.67
394.829	7.8
395.036	8.05
395.243	9.89
395.45	10.02
395.657	7.95
395.864	9.09
396.072	9.28
396.279	7.97
396.486	8.79
396.693	10.87
396.9	8.2
397.107	8.66
397.314	8.66
397.521	7.03
397.728	7.15
397.935	8.74
398.142	8.48
398.349	8.48
398.556	8.62
398.763	8.3
398.97	6.62
399.177	7.17
399.383	7.35
399.59	6.7
399.797	9.09
400.004	8.15
400.211	7.44
400.418	6.78
400.625	6.83
400.831	6.86
401.038	7.85
401.245	9.11
401.452	10.8
401.658	10.88
401.865	11.9
402.072	9.56
402.279	11.35
402.485	11.8
402.692	12.69
402.899	11.83
403.105	12.78
403.312	12.33
403.519	11.85
403.725	11.45
403.932	11.23
404.138	10.71
404.345	11.17
404.552	8.64
404.758	7.13
404.965	6.29
405.171	7.7
405.378	7.47
405.584	6.83
405.791	7.5
405.997	8.06
406.204	9.71
406.41	9.52
406.617	9.94
406.823	11.33
407.029	12.13
407.236	12
407.442	12.41
407.649	11.33
407.855	12.08
408.061	11.06
408.268	10.98
408.474	10
408.68	10.49
408.887	10.77
409.093	10.98
409.299	12.1
409.505	12.33
409.712	10.36
409.918	10.94
410.124	12.41
410.33	11.07
410.537	10.47
410.743	10.11
410.949	10.03
411.155	10.31
411.361	10.61
411.567	10.02
411.773	9.66
411.98	10.12
412.186	9.18
412.392	7.31
412.598	9.33
412.804	9.4
413.01	7.5
413.216	7.77
413.422	6.8
413.628	6.83
413.834	7.08
414.04	6.81
414.246	6.9
414.452	7.41
414.658	7.75
414.864	7.14
415.07	7.65
415.275	9.4
415.481	8.74
415.687	9.13
415.893	8.55
416.099	8.82
416.305	9.29
416.511	9.75
416.716	9.61
416.922	9.86
417.128	10.32
417.334	9.89
417.539	9.67
417.745	10.32
417.951	10.38
418.157	10.65
418.362	10.03
418.568	9.63
418.774	9.41
418.979	9.84
419.185	10.03
419.391	9.58
419.596	9.46
419.802	9.36
420.008	9.01
420.213	12.27
420.419	12.02
420.624	12.23
420.83	12.51
421.035	12.49
421.241	12.04
421.446	11.59
421.652	11.51
421.857	11.3
422.063	11.43
422.268	11.25
422.474	7.59
422.679	7.83
422.885	7.85
423.09	8.14
423.295	8.29
423.501	8.45
423.706	8.25
423.911	8.31
424.117	8.76
424.322	8.79
424.527	8.76
424.733	8.71
424.938	8.96
425.143	8.98
425.349	8.55
425.554	8.69
425.759	9.32
425.964	9.79
426.169	9.76
426.375	9.62
426.58	9.22
426.785	9.29
426.99	9.67
427.195	9.83
427.4	9.39
427.605	9.21
427.811	8.63
428.016	8.6
428.221	8.16
428.426	7.84
428.631	7.66
428.836	7.53
429.041	8.14
429.246	8.17
429.451	7.41
429.656	8.56
429.861	8.54
430.066	8.21
430.271	8.18
430.476	8.76
430.681	9.49
430.886	9.22
431.09	10.02
431.295	9.81
431.5	9.84
431.705	10.18
431.91	9.35
432.115	9.57
432.32	9.92
432.524	9.16
432.729	8.96
432.934	8.98
433.139	9.53
433.343	9.25
433.548	9.57
433.753	10.15
433.958	9.99
434.162	9.81
434.367	9.91
434.572	10.28
434.776	10.71
434.981	10.09
435.186	9.59
435.39	9.18
435.595	9.2
435.799	9.15
436.004	8.21
436.209	8.31
436.413	8.81
436.618	9.18
436.822	9.25
437.027	9.67
437.231	9.75
437.436	10.53
437.64	10.93
437.845	10.34
438.049	9.97
438.253	9.7
438.458	9.36
438.662	8.95
438.867	8.81
439.071	8.72
439.275	8.6
439.48	8.48
439.684	8.22
439.888	8.15
440.093	8.81
440.297	8.66
440.501	9.13
440.706	9.44
440.91	9.52
441.114	9.77
441.318	9.35
441.523	9.13
441.727	9.88
441.931	9.7
442.135	9.57
442.339	9.55
442.543	9.64
442.748	9.43
442.952	8.84
443.156	9.18
443.36	8.97
443.564	9.11
443.768	9.05
443.972	8.75
444.176	9.18
444.38	8.96
444.584	9.02
444.788	8.45
444.992	8.23
445.196	8.7
445.4	8.33
445.604	7.99
445.808	8.19
446.012	8.42
446.216	8.53
446.42	8.13
446.624	8.4
446.828	8.42
447.032	9.15
447.235	9.23
447.439	9.07
447.643	9.43
447.847	9.66
448.051	9.97
448.254	9.45
448.458	9.98
448.662	9.72
448.866	9.65
449.069	9.32
449.273	8.44
449.477	8.73
449.681	9.04
449.884	8.88
450.088	8.78
450.292	8.82
450.495	9.05
450.699	8.63
450.902	9.05
451.106	8.79
451.31	8.89
451.513	9.65
451.717	9.37
451.92	9.06
452.124	9.03
452.327	9.16
452.531	7.93
452.734	8.15
452.938	8.23
453.141	8.44
453.345	9.05
453.548	8.49
453.752	8.56
453.955	8.25
454.158	7.78
454.362	8.18
454.565	7.98
454.769	8.58
454.972	8.81
455.175	9.05
455.379	8.9
455.582	8.84
455.785	8.69
455.988	9.28
456.192	9.99
456.395	10.47
456.598	10.1
456.801	10.32
457.005	10.44
457.208	9.68
457.411	9.52
457.614	9.43
457.817	9.08
458.021	9.76
458.224	9.49
458.427	9.38
458.63	8.79
458.833	8.87
459.036	9.04
459.239	9.37
459.442	9.34
459.645	9.45
459.848	9.53
460.051	9.46
460.254	9.23
460.457	9.01
460.66	9.02
460.863	9.55
461.066	9.44
461.269	9.43
461.472	8.83
461.675	8.97
461.878	9.09
462.081	8.31
462.284	8.6
462.486	8.39
462.689	8.2
462.892	8.07
463.095	8
463.298	8.31
463.5	8.1
463.703	8.02
463.906	8.32
464.109	8.08
464.311	8.74
464.514	8.72
464.717	8.98
464.92	9.66
465.122	9.09
465.325	10.32
465.528	10
465.73	10.15
465.933	10.13
466.135	10.32
466.338	9.67
466.541	9.74
466.743	9.59
466.946	9.92
467.148	9.24
467.351	8.87
467.553	8.38
467.756	8.52
467.958	7.69
468.161	7.87
468.363	8.04
468.566	8.76
468.768	9.05
468.971	9.62
469.173	9.21
469.375	9.65
469.578	11.04
469.78	10.05
469.983	10.2
470.185	10.89
470.387	11.03
470.59	11.02
470.792	10.65
470.994	10.53
471.196	9.91
471.399	9.84
471.601	9.63
471.803	8.83
472.005	9.76
472.208	9.55
472.41	9.63
472.612	9.88
472.814	9.31
473.016	9.35
473.218	9.12
473.421	9.25
473.623	9.21
473.825	9.7
474.027	10.15
474.229	9.82
474.431	9.6
474.633	9.06
474.835	8.12
475.037	8.53
475.239	8.18
475.441	7.91
475.643	8.35
475.845	8.21
476.047	8.05
476.249	7.92
476.451	8.07
476.653	8.41
476.855	8.89
477.057	9.32
477.258	8.57
477.46	8.28
477.662	8.53
477.864	8.41
478.066	8.69
478.268	8.49
478.469	9.32
478.671	8.88
478.873	8.94
479.075	9.03
479.276	9.09
479.478	9.42
479.68	9.57
479.882	9.72
480.083	9.36
480.285	9.08
480.487	9.39
480.688	8.64
480.89	8.58
481.091	8.57
481.293	8.61
481.495	8.53
481.696	8.69
481.898	8.51
482.099	8.43
482.301	8.37
482.502	8.46
482.704	8.3
482.905	8.35
483.107	8.29
483.308	8.46
483.51	8.43
483.711	8.46
483.913	8.32
484.114	8.63
484.315	8.6
484.517	8.79
484.718	8.81
484.92	8.71
485.121	8.5
485.322	8.65
485.524	8.45
485.725	8.32
485.926	8.28
486.127	8.4
486.329	8.4
486.53	8.47
486.731	8.2
486.932	8.11
487.134	8.28
487.335	8.34
487.536	8.52
487.737	8.38
487.938	8.42
488.139	8.57
488.341	8.48
488.542	8.23
488.743	7.92
488.944	7.99
489.145	8.19
489.346	7.98
489.547	8.28
489.748	8.34
489.949	8.49
490.15	8.57
490.351	8.51
490.552	8.73
490.753	8.84
490.954	9.05
491.155	9.26
491.356	9.26
491.557	9.53
491.758	9.55
491.959	9.44
492.159	9.23
492.36	9.19
492.561	9
492.762	8.85
492.963	8.82
493.164	8.89
493.364	8.86
493.565	8.9
493.766	8.81
493.967	8.76
494.167	9.13
494.368	9.05
494.569	8.77
494.769	9.19
494.97	9.11
495.171	9.3
495.371	9.56
495.572	9.58
495.773	9.29
495.973	9.58
496.174	9.29
496.375	9.2
496.575	9.3
496.776	9.67
496.976	9.4
497.177	9.38
497.377	9.56
497.578	9.62
497.778	9.41
497.979	9.94
498.179	9.49
498.38	10.04
498.58	10.01
498.78	10.05
498.981	9.69
499.181	9.61
499.382	9.49
499.582	9.08
499.782	8.59
499.983	8.61
500.183	8.26
500.383	8.06
500.584	7.69
500.784	7.26
500.984	7.3
501.184	7.27
501.385	7.7
501.585	7.63
501.785	7.59
501.985	7.73
502.185	8.31
502.386	8.42
502.586	9.09
502.786	9.24
502.986	9.65
503.186	9.45
503.386	9.79
503.586	9.38
503.786	10.12
503.987	10.26
504.187	10.44
504.387	9.89
504.587	10.23
504.787	9.43
504.987	9.12
505.187	9.18
505.387	9.71
505.587	10.15
505.786	10.21
505.986	10.2
506.186	10.1
506.386	9.81
506.586	10.24
506.786	9.81
506.986	10.25
507.186	10.81
507.386	10.99
507.585	11.05
507.785	10.65
507.985	10.47
508.185	10.4
508.384	10.45
508.584	10.6
508.784	10.64
508.984	10.38
509.183	10.51
509.383	10.15
509.583	9.86
509.782	9.48
509.982	9.61
510.182	10.12
510.381	9.78
510.581	9.97
510.781	10.55
510.98	10.47
511.18	10.72
511.379	11.06
511.579	11.11
511.778	11.37
511.978	11.67
512.177	11.82
512.377	11.67
512.576	11.73
512.776	11.86
512.975	11.68
513.175	11.72
513.374	12.17
513.573	11.95
513.773	12.12
513.972	11.93
514.172	11.79
514.371	11.47
514.57	11.49
514.77	11.86
514.969	11.85
515.168	11.64
515.367	11.25
515.567	10.81
515.766	11.04
515.965	11.11
516.164	11.11
516.364	11.53
516.563	11.98
516.762	12.09
516.961	11.61
517.16	11.47
517.359	11.3
517.559	11.6
517.758	11.7
517.957	11.39
518.156	11.89
518.355	12.15
518.554	11.93
518.753	11.99
518.952	12.06
519.151	12.28
519.35	12.43
519.549	12.82
519.748	12.72
519.947	12.86
520.146	13.09
520.345	12.71
520.544	12.68
520.743	12.92
520.942	12.76
521.141	12.76
521.339	12.66
521.538	12.91
521.737	12.61
521.936	12.83
522.135	12.92
522.333	13.28
522.532	12.96
522.731	12.99
522.93	12.75
523.129	12.67
523.327	12.98
523.526	13.43
523.725	13.47
523.923	13.82
524.122	13.45
524.321	13.52
524.519	13.3
524.718	13.15
524.917	12.88
525.115	12.96
525.314	13.34
525.512	12.78
525.711	12.57
525.909	12.47
526.108	12.38
526.306	12.57
526.505	12.46
526.703	12.4
526.902	12.83
527.1	12.96
527.299	13.11
527.497	12.95
527.696	13.12
527.894	13.38
528.092	13.45
528.291	13.36
528.489	13.59
528.688	13.7
528.886	13.67
529.084	13.47
529.283	13.65
529.481	13.42
529.679	13.59
529.877	13.66
530.076	13.59
530.274	13.6
530.472	13.94
530.67	13.82
530.869	14.08
531.067	14.53
531.265	14.7
531.463	14.29
531.661	14.7
531.859	14.8
532.057	15.04
532.255	15.01
532.454	15.17
532.652	14.96
532.85	15.09
533.048	15.02
533.246	14.68
533.444	14.81
533.642	15.05
533.84	15.05
534.038	15.36
534.236	15.34
534.434	15.55
534.632	15.43
534.83	15.83
535.027	16.18
535.225	16.18
535.423	16.7
535.621	16.66
535.819	16.96
536.017	17.39
536.215	16.97
536.412	17.37
536.61	17.61
536.808	17.72
537.006	17.87
537.203	17.67
537.401	17.68
537.599	17.39
537.797	17.43
537.994	17.62
538.192	16.81
538.39	17.15
538.587	17.23
538.785	17.04
538.983	17.58
539.18	17.67
539.378	17.88
539.575	17.92
539.773	18.12
539.97	18.09
540.168	18.12
540.366	18.46
540.563	18.52
540.761	18.41
540.958	18.47
541.155	18.38
541.353	18.28
541.55	18.17
541.748	18.37
541.945	18.37
542.143	18.62
542.34	18.61
542.537	18.35
542.735	18.14
542.932	18.33
543.129	18.31
543.327	18.19
543.524	18.16
543.721	18.26
543.919	18.32
544.116	18.44
544.313	18.67
544.51	18.71
544.708	19.27
544.905	19.51
545.102	19.42
545.299	19.62
545.496	19.43
545.693	19.54
545.891	19.52
546.088	19.66
546.285	19.62
546.482	19.54
546.679	19.44
546.876	19.96
547.073	19.82
547.27	19.65
547.467	19.47
547.664	20.1
547.861	20.2
548.058	20.39
548.255	20.67
548.452	20.98
548.649	20.33
548.846	20.61
549.043	20.32
549.24	20.84
549.437	21.1
549.633	20.93
549.83	21.23
550.027	22.01
550.224	22.54
550.421	22.65
550.618	22.8
550.814	23.47
551.011	23.98
551.208	23.65
551.405	23.86
551.601	24.07
551.798	24.72
551.995	24.55
552.191	24.03
552.388	23.62
552.585	23.58
552.781	23.48
552.978	24.05
553.175	23.47
553.371	23.68
553.568	23.81
553.764	24.23
553.961	24.57
554.157	24.82
554.354	25.25
554.55	25.94
554.747	25.64
554.943	26.17
555.14	25.59
555.336	25.82
555.533	25.61
555.729	24.77
555.926	24
556.122	23.53
556.318	23.45
556.515	23.23
556.711	23.35
556.907	24
557.104	23.94
557.3	23.63
557.496	24.28
557.693	24.91
557.889	25.33
558.085	25.95
558.281	26.1
558.478	26.28
558.674	26.67
558.87	26.2
559.066	26.28
559.262	26.09
559.459	27.02
559.655	26.39
559.851	26.38
560.047	26.05
560.243	25.85
560.439	26.33
560.635	26.15
560.831	26.48
561.027	26.63
561.223	26.23
561.419	26.21
561.615	25.98
561.811	26.03
562.007	26.12
562.203	26.52
562.399	26.7
562.595	26.2
562.791	26.33
562.987	26.36
563.183	26.11
563.379	26.5
563.575	26.94
563.771	26.93
563.966	26.89
564.162	26.69
564.358	27.42
564.554	27.33
564.75	27.6
564.945	27.88
565.141	27.53
565.337	27.7
565.533	27.27
565.728	27.48
565.924	27.35
566.12	27.84
566.315	28.04
566.511	27.85
566.707	27.95
566.902	28.36
567.098	28.61
567.293	28.57
567.489	29.05
567.684	29.14
567.88	28.7
568.076	28.82
568.271	29.04
568.467	28.77
568.662	28.56
568.858	28.59
569.053	28.25
569.248	28.1
569.444	28.49
569.639	28.28
569.835	29.16
570.03	29.74
570.225	29.92
570.421	29.57
570.616	29.93
570.812	30.07
571.007	30.21
571.202	30.1
571.397	29.89
571.593	29.74
571.788	29.85
571.983	29.33
572.178	29.04
572.374	29.06
572.569	29.21
572.764	28.59
572.959	28.47
573.154	28.16
573.35	28.26
573.545	28.73
573.74	28.57
573.935	28.29
574.13	28.62
574.325	28.37
574.52	28.65
574.715	28.72
574.91	29.14
575.105	29.1
575.3	29.33
575.495	29.92
575.69	29.83
575.885	30.4
576.08	30.92
576.275	31.01
576.47	31.78
576.665	31.94
576.86	31.88
577.055	32.12
577.25	32.54
577.444	33.2
577.639	32.84
577.834	32.48
578.029	32.28
578.224	31.85
578.418	31.39
578.613	31.18
578.808	30.39
579.003	31.08
579.197	31.43
579.392	31.12
579.587	30.49
579.781	30.73
579.976	31.47
580.171	31.74
580.365	31.5
580.56	32.04
580.755	31.54
580.949	31.98
581.144	31.29
581.338	30.76
581.533	31.9
581.727	32.39
581.922	32
582.116	31.35
582.311	31.3
582.505	31.13
582.7	30.99
582.894	31.14
583.089	31.78
583.283	32.05
583.478	31.82
583.672	31.69
583.866	31.99
584.061	32.17
584.255	32.51
584.449	32.62
584.644	34.14
584.838	34.44
585.032	34.93
585.226	34.07
585.421	34.85
585.615	35.69
585.809	34.95
586.003	34.72
586.198	34.37
586.392	33.88
586.586	33.67
586.78	32.42
586.974	32.65
587.168	32.31
587.363	32.57
587.557	31.68
587.751	31.41
587.945	31.31
588.139	31.7
588.333	31.69
588.527	31.84
588.721	31.68
588.915	32.71
589.109	32.03
589.303	32.46
589.497	32.52
589.691	32.85
589.885	32.81
590.079	32.91
590.273	33.12
590.466	33.38
590.66	33.8
590.854	33.97
591.048	34.22
591.242	34.35
591.436	33.94
591.629	34.53
591.823	34.9
592.017	36.02
592.211	35.93
592.404	35.67
592.598	35.77
592.792	35.57
592.986	35.52
593.179	35.22
593.373	35.13
593.567	35.23
593.76	35.06
593.954	34.76
594.147	34.13
594.341	34.34
594.535	34.32
594.728	34.08
594.922	34.27
595.115	34.86
595.309	34.63
595.502	35.01
595.696	35.55
595.889	35.42
596.083	35.34
596.276	35.39
596.47	35.43
596.663	35.21
596.856	35.43
597.05	35.96
597.243	36.13
597.437	36.36
597.63	36.59
597.823	36.1
598.017	36.66
598.21	36.73
598.403	36.41
598.596	37.24
598.79	37.68
598.983	37.98
599.176	37.75
599.369	37.61
599.563	37.68
599.756	37.29
599.949	38.02
600.142	38.19
600.335	37.97
600.528	37.88
600.722	37.5
600.915	37.32
601.108	37.5
601.301	37.44
601.494	36.88
601.687	36.95
601.88	37.59
602.073	37.29
602.266	36.74
602.459	36.95
602.652	36.97
602.845	37.36
603.038	37.14
603.231	37.24
603.424	37.25
603.617	38.13
603.809	38.09
604.002	38.04
604.195	38.63
604.388	38.73
604.581	39.3
604.774	39.88
604.966	39.45
605.159	40.08
605.352	40.11
605.545	40.48
605.737	39.91
605.93	40.04
606.123	40.52
606.316	40.44
606.508	41.27
606.701	41.21
606.894	41.45
607.086	41.72
607.279	40.86
607.471	41.06
607.664	40.52
607.857	40.56
608.049	41.29
608.242	41.11
608.434	40.09
608.627	39.2
608.819	39.14
609.012	38.14
609.204	37.8
609.397	38.09
609.589	37.17
609.782	37.45
609.974	37.1
610.166	35.57
610.359	35.57
610.551	36.73
610.743	37.21
610.936	37.12
611.128	37.83
611.32	38.43
611.513	38.82
611.705	39.63
611.897	39.38
612.09	39.36
612.282	40.25
612.474	40.56
612.666	39.45
612.858	40.05
613.051	39.08
613.243	39.06
613.435	38.79
613.627	39.37
613.819	38.87
614.011	39.38
614.203	40.63
614.395	40.48
614.588	39.39
614.78	40.54
614.972	40.17
615.164	42.14
615.356	42.4
615.548	42.58
615.74	42.26
615.932	43.38
616.124	43.5
616.315	42.59
616.507	42.38
616.699	43.32
616.891	43.15
617.083	43.48
617.275	42.43
617.467	42.7
617.659	42.56
617.85	42.72
618.042	42.6
618.234	42.1
618.426	41.9
618.618	42.54
618.809	42.33
619.001	41.62
619.193	42.26
619.384	42.02
619.576	42.15
619.768	42.61
619.959	42.6
620.151	42.02
620.343	42.68
620.534	43.32
620.726	43.19
620.917	43.38
621.109	44.02
621.301	43.09
621.492	43.05
621.684	42.74
621.875	42.04
622.067	41.76
622.258	42.73
622.45	42.86
622.641	42.75
622.832	43.25
623.024	43.6
623.215	43.89
623.407	43.48
623.598	44.15
623.789	43.72
623.981	44.25
624.172	43.86
624.363	42.49
624.555	41.63
624.746	41.91
624.937	42.23
625.129	41.61
625.32	40.96
625.511	41.17
625.702	41.08
625.893	41
626.085	39.98
626.276	40.27
626.467	40.33
626.658	40.79
626.849	39.82
627.04	38.94
627.231	39.05
627.422	39.28
627.614	39.97
627.805	39.63
627.996	39.76
628.187	40.84
628.378	40.37
628.569	40.14
628.76	40.18
628.951	40.5
629.142	40.67
629.332	40.39
629.523	40.6
629.714	40.09
629.905	39.49
630.096	40.53
630.287	40.55
630.478	40.73
630.669	42.32
630.859	41.49
631.05	42.32
631.241	41.98
631.432	42.49
631.623	42.54
631.813	42.3
632.004	43.19
632.195	43.11
632.385	42.96
632.576	43.53
632.767	43.1
632.957	43.63
633.148	43.73
633.339	44.02
633.529	42.42
633.72	41.69
633.91	41.87
634.101	42.1
634.292	41.7
634.482	42.45
634.673	42.01
634.863	41.91
635.054	42.05
635.244	41.93
635.435	42.24
635.625	44.39
635.815	44.72
636.006	44.46
636.196	44.11
636.387	44.01
636.577	43.7
636.767	44.88
636.958	44.14
637.148	45.36
637.338	44.03
637.529	43.77
637.719	43
637.909	43.03
638.099	43.85
638.29	44.16
638.48	44.1
638.67	43.77
638.86	43.79
639.05	44.39
639.241	43.64
639.431	45.13
639.621	45.66
639.811	45.83
640.001	45.57
640.191	44.98
640.381	45.97
640.571	44.9
640.761	44.91
640.951	44.3
641.141	44.47
641.331	44.58
641.521	44.37
641.711	43.92
641.901	44.01
642.091	44.83
642.281	45.11
642.471	44.28
642.661	45.27
642.851	45.48
643.041	44.94
643.231	44.97
643.42	43.82
643.61	44.74
643.8	45.17
643.99	44.83
644.18	45.11
644.369	46.3
644.559	46.22
644.749	46.79
644.939	45.76
645.128	45.51
645.318	44.89
645.508	45.13
645.697	44.31
645.887	43.98
646.076	44.52
646.266	44.02
646.456	43.13
646.645	44.04
646.835	43.05
647.024	43.13
647.214	43.91
647.403	43.05
647.593	43.75
647.782	43.34
647.972	43.43
648.161	43.5
648.351	42.37
648.54	41.43
648.73	39.82
648.919	41.08
649.108	40.65
649.298	40.47
649.487	42.75
649.677	43.07
649.866	43.4
650.055	42.82
650.244	42.94
650.434	43.47
650.623	42.77
650.812	44.16
651.002	42.8
651.191	43.75
651.38	43.87
651.569	43.58
651.758	43.08
651.947	43.3
652.137	43.76
652.326	44.26
652.515	44.11
652.704	45.12
652.893	45.4
653.082	45.1
653.271	45.87
653.46	45.51
653.649	45.82
653.838	45.56
654.027	45.07
654.216	43.65
654.405	42.01
654.594	43.81
654.783	43.61
654.972	43.05
655.161	43.84
655.35	43.02
655.539	43.17
655.728	44.04
655.916	44.95
656.105	45.42
656.294	47.39
656.483	48.34
656.672	47.3
656.86	46.9
657.049	46.79
657.238	45.89
657.427	46.39
657.615	46.89
657.804	45.69
657.993	44.68
658.181	44.54
658.37	43.95
658.559	43.15
658.747	43.01
658.936	44.5
659.125	44.67
659.313	45.92
659.502	45.96
659.69	44.59
659.879	44.51
660.067	44.44
660.256	43.17
660.444	43.24
660.633	42.73
660.821	42.62
661.01	41.39
661.198	41.62
661.387	42.62
661.575	41.6
661.763	43.28
661.952	43.41
662.14	44.66
662.328	46.74
662.517	46.76
662.705	47.66
662.893	48.25
663.082	48.78
663.27	48.37
663.458	48.1
663.646	48.77
663.834	47.79
664.023	46.77
664.211	46.88
664.399	46.38
664.587	46.57
664.775	47.52
664.963	47.6
665.152	47.3
665.34	46.93
665.528	46.26
665.716	46.97
665.904	48.06
666.092	48.83
666.28	48.3
666.468	47.84
666.656	47.94
666.844	46.2
667.032	46.93
667.22	46.84
667.408	46.72
667.596	47.79
667.784	46.48
667.971	46.54
668.159	46.32
668.347	46.55
668.535	46.72
668.723	46.25
668.911	47.6
669.098	47.57
669.286	48.28
669.474	47.84
669.662	46.83
669.849	48.38
670.037	48.06
670.225	48.76
670.413	48.29
670.6	49.08
670.788	49.26
670.976	48.69
671.163	47.66
671.351	46.86
671.538	48.27
671.726	46.23
671.913	46.34
672.101	45.41
672.289	45.42
672.476	44.78
672.664	44.22
672.851	45.18
673.039	46.63
673.226	47.1
673.413	47.64
673.601	47.2
673.788	49.59
673.976	48.73
674.163	49.57
674.35	49.47
674.538	49.54
674.725	49.41
674.912	49.35
675.1	49.43
675.287	47.92
675.474	47.67
675.662	48.06
675.849	48.66
676.036	50.02
676.223	51.06
676.411	51.42
676.598	51.57
676.785	52.96
676.972	51.99
677.159	50.91
677.346	52.34
677.533	51.62
677.721	50.66
677.908	48.92
678.095	47.61
678.282	46.55
678.469	45.95
678.656	46.61
678.843	45.67
679.03	46.23
679.217	46.97
679.404	46.16
679.591	45.96
679.778	46.43
679.964	46.49
680.151	46.64
680.338	47.1
680.525	48.1
680.712	47.61
680.899	47.72
681.086	46.74
681.272	46.37
681.459	46.67
681.646	47.77
681.833	47.11
682.02	47.36
682.206	47.56
682.393	47.26
682.58	46.97
682.766	46.01
682.953	45.71
683.14	46.45
683.326	47.47
683.513	47.84
683.7	46.63
683.886	47.36
684.073	47.05
684.259	47.54
684.446	46.84
684.632	44.86
684.819	46.05
685.005	45.8
685.192	44.99
685.378	44.03
685.565	43.37
685.751	44.29
685.938	44.37
686.124	43.72
686.31	43.46
686.497	44.8
686.683	45.58
686.87	45.75
687.056	46.25
687.242	47.09
687.429	46.57
687.615	48.03
687.801	47.78
687.987	47.52
688.174	49.24
688.36	49.28
688.546	48.96
688.732	51.01
688.918	51.75
689.105	50.51
689.291	51.16
689.477	50.64
689.663	50.5
689.849	50.2
690.035	51.12
690.221	50.53
690.407	50.49
690.593	50.95
690.779	48
690.965	47.1
691.151	49.89
691.337	50.12
691.523	50.89
691.709	49.92
691.895	51.38
692.081	51.07
692.267	51.79
692.453	52.23
692.639	51.19
692.825	50.72
693.011	50.79
693.196	49.3
693.382	47.77
693.568	47.92
693.754	49
693.94	48.68
694.125	47.29
694.311	47.59
694.497	46.02
694.682	46.15
694.868	48.05
695.054	49.25
695.239	49.33
695.425	49.48
695.611	49.01
695.796	48.3
695.982	47.18
696.168	45.47
696.353	46.4
696.539	46.64
696.724	46.55
696.91	45.07
697.095	44.32
697.281	43.28
697.466	42.33
697.652	42.9
697.837	42.9
698.023	42.75
698.208	45.11
698.393	44.65
698.579	45.46
698.764	45.39
698.949	46.08
699.135	46.27
699.32	47.52
699.505	49.2
699.691	48.36
699.876	48.44
700.061	49.87
700.246	49.68
700.432	48.19
700.617	48.57
700.802	49.04
700.987	50.77
701.172	51.6
701.358	50.36
701.543	50.28
701.728	51.92
701.913	51.9
702.098	52.3
702.283	51.92
702.468	52.83
702.653	52.87
702.838	53.66
703.023	54.35
703.208	53.31
703.393	54.93
703.578	56.77
703.763	56.32
703.948	57.83
704.133	57.51
704.318	58.4
704.503	58.1
704.688	59.04
704.873	60.13
705.057	60.11
705.242	60.63
705.427	60.64
705.612	60.39
705.797	58.49
705.981	56.54
706.166	55.33
706.351	55.07
706.536	55.81
706.72	53.85
706.905	52.71
707.09	49.63
707.274	49.3
707.459	48.25
707.644	46.95
707.828	48.4
708.013	48.93
708.197	49.63
708.382	49.52
708.567	47.93
708.751	48.6
708.936	47.99
709.12	49.3
709.305	49.27
709.489	50.61
709.673	49.75
709.858	50.4
710.042	49.93
710.227	50.43
710.411	50.22
710.596	49.85
710.78	50.03
710.964	50.19
711.149	49.98
711.333	52.23
711.517	50.83
711.702	52.14
711.886	53.41
712.07	54.38
712.254	54.49
712.438	54.74
712.623	54.2
712.807	53.85
712.991	52.47
713.175	52.23
713.359	48.73
713.544	51.2
713.728	50.37
713.912	48.55
714.096	47.41
714.28	46.57
714.464	46.05
714.648	47.05
714.832	44.84
715.016	45.15
715.2	45.27
715.384	46.94
715.568	42.62
715.752	41.99
715.936	41.42
716.12	41.01
716.304	40.49
716.488	41.2
716.671	41.3
716.855	44.03
717.039	43.74
717.223	42.43
717.407	41.98
717.59	43.27
717.774	47.18
717.958	48.95
718.142	47.84
718.325	49.04
718.509	49.3
718.693	49.27
718.877	47.71
719.06	48.74
719.244	50.42
719.428	51.64
719.611	52.31
719.795	50.87
719.978	50.58
720.162	53.58
720.345	53.61
720.529	49.52
720.713	49.89
720.896	51.26
721.08	53.06
721.263	51.29
721.446	51.34
721.63	52.06
721.813	49.68
721.997	48.72
722.18	46.07
722.364	43.25
722.547	45.26
722.73	47.36
722.914	44.93
723.097	44.07
723.28	47.62
723.464	46.36
723.647	45.32
723.83	45.44
724.013	47.94
724.197	48.29
724.38	50.36
724.563	52.36
724.746	50.62
724.929	51.08
725.112	51.13
725.296	50.42
725.479	49.93
725.662	50.42
725.845	50.38
726.028	47.51
726.211	47.28
726.394	49.64
726.577	47.56
726.76	47.22
726.943	50.51
727.126	48.63
727.309	45.67
727.492	49.19
727.675	50.96
727.858	49.86
728.041	51.02
728.224	50.29
728.407	47.28
728.589	48.13
728.772	48.24
728.955	46.19
729.138	45.84
729.321	46.6
729.503	42.83
729.686	40.97
729.869	42.52
730.052	40.4
730.234	42.97
730.417	42.84
730.6	46.07
730.782	46.6
730.965	45.94
731.148	50.1
731.33	50.51
731.513	51.52
731.695	51.85
731.878	52.41
732.061	54
732.243	54.39
732.426	55.26
732.608	53.49
732.791	54.9
732.973	57.46
733.156	56.24
733.338	57.12
733.52	57.64
733.703	59.95
733.885	58.73
734.068	58.7
734.25	55.43
734.432	56.61
734.615	57.19
734.797	53.81
734.979	52.62
735.162	50.52
735.344	50.55
735.526	49.55
735.708	46.82
735.891	49.38
736.073	45.34
736.255	47.81
736.437	47.59
736.619	47.08
736.802	46.88
736.984	47.03
737.166	50.51
737.348	49.69
737.53	49.98
737.712	52.04
737.894	51.97
738.076	53.89
738.258	54.49
738.44	55.46
738.622	55.61
738.804	56.33
738.986	55.18
739.168	52.92
739.35	54.44
739.532	53.89
739.714	57.21
739.896	55.19
740.078	56.56
740.259	56.81
740.441	55.93
740.623	55.6
740.805	58.85
740.987	63.37
741.168	63.01
741.35	63.04
741.532	67.24
741.714	64.63
741.895	67.54
742.077	68.18
742.259	70.74
742.44	70.02
742.622	69.41
742.804	66.9
742.985	61.3
743.167	67.48
743.348	68.03
743.53	67.43
743.711	70.97
743.893	72.75
744.075	74.69
744.256	70.71
744.438	70.78
744.619	71.92
744.8	74.6
744.982	77.67
745.163	74.45
745.345	76.35
745.526	72.27
745.707	67.67
745.889	66.32
746.07	64.14
746.252	68.43
746.433	69.84
746.614	67.55
746.795	66.45
746.977	68.15
747.158	65.8
747.339	63.71
747.52	67.98
747.702	70.41
747.883	72.84
748.064	72.95
748.245	71.67
748.426	72.15
748.607	72.53
748.788	68.93
748.97	65.43
749.151	65.57
749.332	65.24
749.513	62.15
749.694	61.38
749.875	60.4
750.056	60.67
750.237	60.57
750.418	58.04
750.599	58.28
750.78	59.42
750.96	60
751.141	60.91
751.322	61.21
751.503	64.17
751.684	60.74
751.865	56.25
752.046	55.79
752.226	57.19
752.407	59.02
752.588	56.41
752.769	59.42
752.949	64.64
753.13	64.03
753.311	65.48
753.492	65.27
753.672	68.32
753.853	73.91
754.034	75.15
754.214	74.59
754.395	75.94
754.575	85.47
754.756	81.19
754.937	75.07
755.117	69.21
755.298	66.36
755.478	65.96
755.659	67.3
755.839	64.02
756.02	63.23
756.2	62.78
756.381	61.06
756.561	57.33
756.741	62.13
756.922	62.63
757.102	67.77
757.283	68.04
757.463	62.7
757.643	60.6
757.823	58.81
758.004	58.12
758.184	54.51
758.364	57.47
758.545	52.61
758.725	49.01
758.905	45.92
759.085	44.39
759.265	45.93
759.446	47.6
759.626	46.85
759.806	49.55
759.986	50.85
760.166	50.21
760.346	47.57
760.526	46.54
760.706	47.09
760.886	47.32
761.066	46.85
761.246	45.65
761.426	44.3
761.606	45.79
761.786	44.05
761.966	42.51
762.146	45.79
762.326	44.05
762.506	45.21
762.686	45.85
762.866	48.53
763.046	50.62
763.225	53.13
763.405	56.55
763.585	57.92
763.765	59.63
763.945	59.91
764.124	58.78
764.304	61.58
764.484	67.4
764.664	67.4
764.843	66.25
765.023	67.96
765.203	69.02
765.382	67.25
765.562	66.29
765.741	63.27
765.921	66.53
766.101	67.82
766.28	70.42
766.46	70.12
766.639	73.94
766.819	73.94
766.998	71.29
767.178	67.33
767.357	69.38
767.537	69.34
767.716	72.01
767.896	72.93
768.075	69.75
768.254	68.95
768.434	64.56
768.613	60.4
768.792	60.96
768.972	63.85
769.151	67.5
769.33	70.74
769.51	65.12
769.689	73.87
769.868	74.27
770.047	79.92
770.226	76.94
770.406	74.37
770.585	79.73
770.764	79.94
770.943	77.7
771.122	77.21
771.301	74.14
771.48	81.46
771.66	84.33
771.839	86.77
772.018	85.57
772.197	88.16
772.376	93.94
772.555	89.58
772.734	92.82
772.913	92.44
773.092	92.34
773.271	92.81
773.449	89.42
773.628	76.73
773.807	72.54
773.986	66.89
774.165	64.7
774.344	68.62
774.523	70.66
774.701	71.11
774.88	69.75
775.059	73.06
775.238	74.95
775.417	70.3
775.595	72.87
775.774	79.2
775.953	93.17
776.131	87.73
776.31	83.29
776.489	78.19
776.667	78.33
776.846	79.02
777.025	82.92
777.203	86.35
777.382	94.37
777.56	102.03
777.739	98.44
777.917	89.86
778.096	97.78
778.274	101.4
778.453	106.89
778.631	102.16
778.81	101.43
778.988	100.76
779.166	100.93
779.345	99.37
779.523	98.36
779.702	97.87
779.88	95.8
780.058	89.88
780.237	87.62
780.415	77.36
780.593	83.64
780.771	85.35
780.95	79.92
781.128	84.19
781.306	83.25
781.484	77.52
781.662	71.59
781.841	79.74
782.019	82.34
782.197	81.48
782.375	87.78
782.553	90.8
782.731	87.05
782.909	89.03
783.087	83.97
783.265	83.8
783.443	83.47
783.621	89.65
783.799	85.95
783.977	91.3
784.155	89.67
784.333	89.86
784.511	82.88
784.689	83.55
784.867	83.43
785.045	83.52
785.223	81.43
785.4	79.72
785.578	81.42
785.756	75.66
785.934	74.07
786.112	74.21
786.289	69.45
786.467	65.65
786.645	66.38
786.823	61.82
787	55.64
787.178	48.2
787.356	47.94
787.533	47.05
787.711	46.85
787.889	45.91
788.066	38.83
788.244	42.43
788.421	48.38
788.599	55.41
788.776	61.38
788.954	68.82
789.131	81.3
789.309	76.68
789.486	75.5
789.664	73.92
789.841	72.12
790.019	78.85
790.196	78.85
790.373	79.34
790.551	71.34
790.728	71.04
790.906	65.67
791.083	73.53
791.26	82.23
791.437	78.05
791.615	83.75
791.792	92.01
791.969	109.31
792.146	114.11
792.324	106.28
792.501	107.8
792.678	107.01
792.855	115.18
793.032	99.68
793.209	101.38
793.387	101.44
793.564	102.94
793.741	92.49
793.918	78.39
794.095	71.53
794.272	73.22
794.449	68.71
794.626	70.07
794.803	69.91
794.98	71.9
795.157	63.22
795.334	62.52
795.511	56.52
795.688	52.41
795.864	57.61
796.041	62.67
796.218	64.77
796.395	69.74
796.572	68.61
796.749	65.32
796.925	64.18
797.102	68.56
797.279	75.5
797.456	76.4
797.632	86.6
797.809	86.92
797.986	80.39
798.162	76.51
798.339	77.53
798.516	75.28
798.692	74.91
798.869	74.58
799.046	72.97
799.222	70.45
799.399	77.45
799.575	75.43
799.752	79.76
799.928	83.25
800.105	86.25
800.281	80.65
800.458	90.89
800.634	88.77
800.811	89.11
800.987	85.6
801.163	78.72
801.34	67.4
801.516	65.45
801.692	56.85
801.869	58.76
802.045	61.83
802.221	73.56
802.398	63.68
802.574	64.53
802.75	68.43
802.926	64.92
803.103	69.25
803.279	80.27
803.455	79.59
803.631	88.1
803.807	86.69
803.983	79.96
804.16	71.74
804.336	80.27
804.512	82.96
804.688	84.25
804.864	92.51
805.04	95.57
805.216	84.9
805.392	87.56
805.568	83.08
805.744	80.46
805.92	86.77
806.096	90.93
806.272	80.84
806.448	82
806.623	81.32
806.799	82.23
806.975	79.74
807.151	77.17
807.327	70.14
807.503	83.32
807.678	84.96
807.854	81.29
808.03	83.64
808.206	99.06
808.381	95.75
808.557	87.01
808.733	87.68
808.908	85.87
809.084	96.61
809.26	103.08
809.435	107.54
809.611	109.06
809.787	107.96
809.962	101.01
810.138	82.26
810.313	82.78
810.489	97.12
810.664	85.85
810.84	95.43
811.015	81.96
811.191	72.59
811.366	68.11
811.542	62.61
811.717	64.06
811.892	64.56
812.068	59.72
812.243	50.65
812.419	41.97
812.594	44.75
812.769	37.51
812.944	38.04
813.12	48.08
813.295	31.44
813.47	30.59
813.645	16.81
813.821	21.51
813.996	29.76
814.171	52.42
814.346	56.07
814.521	65.09
814.697	74.02
814.872	66.86
815.047	66.1
815.222	71.66
815.397	74.79
815.572	73.48
815.747	72.53
815.922	88.46
816.097	79.75
816.272	77.54
816.447	69.45
816.622	59.01
816.797	61.08
816.972	46.81
817.147	51.93
817.322	64.42
817.496	77.97
817.671	86.64
817.846	69.16
818.021	61.03
818.196	57.93
818.371	67.12
818.545	70.21
818.72	70.13
818.895	84.06
819.069	75.1
819.244	67.68
819.419	55.4
819.594	50.46
819.768	49.77
819.943	50
820.117	47.31
820.292	42
820.467	39.94
820.641	41.46
820.816	37.24
820.99	38.52
821.165	38.01
821.339	39.71
821.514	40.02
821.688	41.41
821.863	40.54
822.037	41.61
822.212	42.11
822.386	43.27
822.56	43.28
822.735	46.24
822.909	44.2
823.084	44.25
823.258	44.25
823.432	46.18
823.606	44.84
823.781	48.18
823.955	47.53
824.129	49.33
824.303	50.98
824.478	55.77
824.652	53.9
824.826	54.81
825	53.58
825.174	50.35
825.348	47.05
825.523	43.55
825.697	43.01
825.871	40.21
826.045	40.1
826.219	41.18
826.393	36.74
826.567	34.21
826.741	36
826.915	34.72
827.089	35.78
827.263	35.6
827.437	38.62
827.611	35.99
827.784	41.41
827.958	41.48
828.132	38.43
828.306	42.88
828.48	49.8
828.654	48.99
828.827	59.17
829.001	56.21
829.175	60.25
829.349	61.17
829.522	68.75
829.696	72.22
829.87	73.31
830.044	76.4
830.217	63.93
830.391	54.95
830.565	59.97
830.738	61.23
830.912	52.79
831.085	58.72
831.259	59.13
831.432	54.29
831.606	51.63
831.779	55.14
831.953	49.05
832.126	46.9
832.3	54.28
832.473	51.96
832.647	53.86
832.82	57.67
832.994	52.94
833.167	53.7
833.34	50.88
833.514	49.58
833.687	51.31
833.86	52.34
834.034	58.83
834.207	57.75
834.38	56.7
834.553	56.13
834.727	65.76
834.9	60.73
835.073	57.87
835.246	61.82
835.419	79.03
835.593	83.37
835.766	94.43
835.939	84.2
836.112	71.27
836.285	78.79
836.458	75.78
836.631	58.62
836.804	64.12
836.977	83.64
837.15	85.59
837.323	67.91
837.496	51.55
837.669	59.73
837.842	69.57
838.015	84.34
838.188	80.5
838.361	85.97
838.533	78.8
838.706	86.29
838.879	89.88
839.052	109.08
839.225	108.27
839.398	114.76
839.57	110
839.743	117.39
839.916	121.72
840.088	130.58
840.261	121.04
840.434	126.43
840.607	122.28
840.779	118.92
840.952	99.88
841.124	90.84
841.297	83.57
841.47	75.26
841.642	63.88
841.815	57.37
841.987	48.2
842.16	39.84
842.332	70.3
842.505	82.99
842.677	89.88
842.85	63.59
843.022	79.84
843.194	89.66
843.367	99.17
843.539	129.2
843.712	144.03
843.884	109.43
844.056	120.75
844.229	105.24
844.401	102.23
844.573	95.23
844.745	97.35
844.918	99.44
845.09	101.78
845.262	94.68
845.434	76.99
845.606	77.11
845.779	85.91
845.951	94.49
846.123	109.44
846.295	122.59
846.467	141.22
846.639	207.79
846.811	154.64
846.983	259.47
847.155	609.86
847.327	-6172.73
847.499	579.2
847.671	547.02
847.843	826.44
848.015	463.27
848.187	721.51
848.359	-637.14
848.531	-598.44
848.703	-190.64
848.875	365.99
849.047	270.39
849.218	271.6
849.39	237.76
849.562	205.93
849.734	297.39
849.905	330.74
850.077	429.72
850.249	287.32
850.421	209.06
850.592	187.74
850.764	172.25
850.936	185.3
851.107	144.53
851.279	115.26
851.451	103.66
851.622	70.13
851.794	55.97
851.965	53.89
852.137	54.76
852.308	62.4
852.48	64.91
852.651	63.59
852.823	41.53
852.994	52.21
853.166	59.02
853.337	62
853.509	74.16
853.68	67.77
853.851	58.02
854.023	71.11
854.194	64.36
854.365	69.98
854.537	64.5
854.708	66.63
854.879	58.71
855.05	95.28
855.222	138.46
855.393	168.51
855.564	177.33
855.735	125.52
855.906	105.3
856.078	97.54
856.249	83.93
856.42	151.62
856.591	173
856.762	154.94
856.933	153.29
857.104	114.89
857.275	87.14
857.446	94.11
857.617	137.7
857.788	151.76
857.959	155.38
858.13	162.71
858.301	140.03
858.472	136.96
858.643	126.61
858.814	106.03
858.985	125.07
859.155	231.39
859.326	280.48
859.497	1142.42
859.668	-240.4
859.839	-258.2
860.009	-154.84
860.18	-247.37
860.351	-61.07
860.522	-145.3
860.692	-1316.67
860.863	579.17
861.034	132.76
861.204	95.38
861.375	112.33
861.546	105.42
861.716	110.05
861.887	125.79
862.057	122.24
862.228	119.05
862.398	120.37
862.569	97.05
862.739	111.86
862.91	149.2
863.08	268.13
863.251	207.49
863.421	116.55
863.592	129.79
863.762	162.85
863.932	208.44
864.103	204.63
864.273	187.11
864.443	214.18
864.614	184.15
864.784	168.4
864.954	134.88
865.125	144.49
865.295	154.62
865.465	152.16
865.635	143.1
865.805	136.33
865.976	168.66
866.146	184.7
866.316	155.34
866.486	245.16
866.656	246.46
866.826	322.22
866.996	166.36
867.166	180.09
867.336	141.21
867.506	131.75
867.676	116.27
867.846	155.33
868.016	135.82
868.186	191.13
868.356	113.01
868.526	123.9
868.696	159.86
868.866	183.26
869.036	295.8
869.206	355.45
869.376	334.48
869.545	264.26
869.715	167.56
869.885	188
870.055	138.39
870.224	152.94
870.394	151.43
870.564	450
870.734	-1143.59
870.903	308.38
871.073	346.39
871.243	501.37
871.412	2580.95
871.582	-918.52
871.751	-1022.39
871.921	-232.63
872.091	-288.38
872.26	-147.23
872.43	-260.34
872.599	-374.8
872.769	-815
872.938	-1847.37
873.108	2965.79
873.277	1535.94
873.446	1578.26
873.616	577.22
873.785	226.03
873.955	153.17
874.124	114.83
874.293	95.16
874.463	98.46
874.632	143.54
874.801	185.04
874.971	244.59
875.14	166.49
875.309	135.68
875.478	-292.11
875.647	-80.75
875.817	-73.83
875.986	-50.82
876.155	-61.92
876.324	-67.68
876.493	50.19
876.662	16.67
876.831	1488.89
877	-32.74
877.17	404
877.339	10.45
877.508	-39.39
877.677	65.57
877.846	56.06
878.015	105.59
878.184	111.72
878.352	248.11
878.521	-600
878.69	-7.05
878.859	275
879.028	189.84
879.197	70.64
879.366	0.4
879.534	-5.09
879.703	22.07
879.872	25.19
880.041	25.31
880.21	28.11
880.378	21.5
880.547	26.68
880.716	22.67
880.884	20.74
881.053	30.45
881.222	33.22
881.39	33.23
881.559	28.8
881.727	30.85
881.896	26.49
882.065	26.12
882.233	36.49
882.402	39.73
882.57	44.61
882.739	49.67
882.907	41.2
883.076	50.97
883.244	37.07
883.412	40.75
883.581	50.25
883.749	54.69
883.918	48.44
884.086	37.11
884.254	33.52
884.423	41.82
884.591	36.52
884.759	23.21
884.927	18.38
885.096	29.63
885.264	23.08
885.432	-4.64
885.6	26.87
885.769	42.1
885.937	39.09
886.105	35.35
886.273	-12.54
886.441	51.85
886.609	69.03
886.777	105.2
886.945	95.29
887.113	87.77
887.281	116.03
887.449	69.33
887.617	53.11
887.785	61.02
887.953	57.55
888.121	63.55
888.289	53.64
888.457	107.18
888.625	110.76
888.793	83.88
888.961	120.39
889.129	102.15
889.296	275.56
889.464	-4175
889.632	-46.85
889.8	-88.16
889.967	-17.07
890.135	-0
