Data from JASIL_2963_Reflection_2.txt Node
Date: Sat Nov 07 21:25:33 EST 2015
User: Geneva
Spectrometer: USB4E03002
Autoset integration time: false
Trigger mode: 4
Integration Time (sec): 1.000000E-1
Scans to average: 10
Electric dark correction enabled: true
Nonlinearity correction enabled: false
Boxcar width: 5
Stray light correction enabled: false
XAxis mode: Wavelengths
Stop averaging: false
Number of Pixels in Spectrum: 3648
>>>>>Begin Spectral Data<<<<<
177.575	-10.84
177.794	-5.38
178.014	39.59
178.233	-307.62
178.452	-123.93
178.672	146.83
178.891	127.51
179.11	43.61
179.33	111.81
179.549	20.03
179.768	16.72
179.987	-32.44
180.207	-272.07
180.426	311.68
180.645	210.51
180.864	201.11
181.084	152.14
181.303	179.97
181.522	109.66
181.741	137.67
181.96	139.43
182.179	123.36
182.398	108.09
182.618	81.52
182.837	73.59
183.056	54.73
183.275	6.43
183.494	1.45
183.713	24.12
183.932	18.39
184.151	-57.58
184.37	1.04
184.589	-19.42
184.808	0.91
185.027	34.5
185.246	39.49
185.465	37.62
185.684	49.85
185.903	40.92
186.122	42.57
186.341	49.1
186.56	43.17
186.779	42.74
186.998	51.48
187.216	66.61
187.435	48.79
187.654	60.13
187.873	69.77
188.092	63.38
188.311	72.71
188.53	69.57
188.748	82.17
188.967	71.6
189.186	91.92
189.405	111.11
189.623	138.26
189.842	119.92
190.061	100.32
190.28	121.27
190.498	159.38
190.717	220.95
190.936	248.91
191.154	148.4
191.373	-2403.6
191.592	126.18
191.81	-159.67
192.029	-118.18
192.248	-306.29
192.466	-206.32
192.685	-59.07
192.904	-40.32
193.122	-47.42
193.341	-42.81
193.559	6.14
193.778	10.27
193.996	31.66
194.215	45.7
194.433	64.25
194.652	57.18
194.87	49.9
195.089	53.38
195.307	81.5
195.526	86.67
195.744	71.84
195.963	65.98
196.181	56.42
196.399	37.03
196.618	29.59
196.836	25.02
197.055	31.21
197.273	24.23
197.491	25.45
197.71	14.28
197.928	-2.44
198.146	-5.56
198.365	-8.16
198.583	12.48
198.801	32.55
199.019	28
199.238	29.51
199.456	20.23
199.674	32.98
199.892	15.44
200.111	11.94
200.329	38.03
200.547	17.4
200.765	10.27
200.983	-16.23
201.202	-12.93
201.42	-0.48
201.638	-22.81
201.856	-20.51
202.074	-12.46
202.292	-5.14
202.51	-1.02
202.728	-21.2
202.946	-30.77
203.165	-16.3
203.383	-13.1
203.601	2.48
203.819	-10.09
204.037	20.72
204.255	32.9
204.473	33.95
204.691	39.57
204.909	33.88
205.127	47.92
205.345	56.06
205.562	49.81
205.78	44.92
205.998	34.88
206.216	49.14
206.434	44.65
206.652	30.35
206.87	31.29
207.088	25.55
207.306	30.1
207.523	24.32
207.741	28.94
207.959	27.72
208.177	38.88
208.395	23.74
208.612	0.9
208.83	7.16
209.048	17.85
209.266	-8.41
209.483	-28.02
209.701	-32.01
209.919	-66.93
210.136	-57.75
210.354	-25.14
210.572	-8.79
210.79	8.67
211.007	17.86
211.225	22.14
211.442	20.33
211.66	27.19
211.878	38.67
212.095	37.35
212.313	40.59
212.53	42.12
212.748	41.4
212.966	43.33
213.183	38.93
213.401	35.87
213.618	37.69
213.836	34.02
214.053	37.37
214.271	26.26
214.488	26.77
214.705	20.58
214.923	15.34
215.14	7.36
215.358	7.27
215.575	11.38
215.793	19.98
216.01	7.8
216.227	10.52
216.445	6.26
216.662	10.18
216.879	10.33
217.097	13.31
217.314	11.46
217.531	19.42
217.749	13.47
217.966	13.74
218.183	10.99
218.4	15
218.618	10.53
218.835	18.21
219.052	16.84
219.269	18.85
219.487	21.27
219.704	22.75
219.921	13.56
220.138	23.26
220.355	18.08
220.572	14.8
220.79	15.04
221.007	18.71
221.224	17.65
221.441	17.79
221.658	12.69
221.875	11.21
222.092	8.1
222.309	13.04
222.526	6.42
222.743	7.5
222.96	5.57
223.177	6.32
223.394	3.68
223.611	4.22
223.828	3.96
224.045	7.89
224.262	10.96
224.479	13.84
224.696	14.08
224.913	16.95
225.13	20.1
225.347	21.96
225.564	21.44
225.781	19.67
225.997	19.54
226.214	18.12
226.431	18.7
226.648	17.37
226.865	16.77
227.082	16.16
227.298	14.86
227.515	13.75
227.732	12.66
227.949	12.7
228.165	13.06
228.382	12.5
228.599	12.52
228.816	11.64
229.032	11.3
229.249	11.28
229.466	10.8
229.682	10.3
229.899	10.58
230.116	11.55
230.332	12.21
230.549	13.42
230.765	13.68
230.982	15.13
231.199	16.45
231.415	17.13
231.632	16.2
231.848	16.56
232.065	18.69
232.281	19.21
232.498	18.92
232.714	18.26
232.931	16.14
233.147	16.95
233.364	15.82
233.58	15.49
233.797	16.04
234.013	17.09
234.23	17.76
234.446	17.17
234.662	16.29
234.879	16.84
235.095	16.56
235.312	17.52
235.528	16.74
235.744	16.3
235.961	15.83
236.177	15.26
236.393	15.79
236.61	14.67
236.826	14.65
237.042	14.89
237.258	14.66
237.475	14.56
237.691	13.67
237.907	13.17
238.123	14.01
238.339	14.93
238.556	15.04
238.772	13.47
238.988	13.88
239.204	13.78
239.42	14.01
239.636	13.94
239.853	13.69
240.069	13.56
240.285	13.86
240.501	13.56
240.717	12.83
240.933	12.94
241.149	13.04
241.365	13.09
241.581	12.84
241.797	12.81
242.013	12.85
242.229	13.04
242.445	13.02
242.661	12.86
242.877	12.93
243.093	12.96
243.309	12.57
243.525	12.79
243.741	12.56
243.957	13.08
244.173	12.91
244.388	12.09
244.604	11.54
244.82	11.7
245.036	11.22
245.252	10.85
245.468	10.76
245.683	10.58
245.899	10.55
246.115	10.51
246.331	10.22
246.547	9.92
246.762	9.91
246.978	10.08
247.194	9.73
247.409	9.79
247.625	9.61
247.841	9.48
248.057	9.46
248.272	9.16
248.488	9
248.703	8.63
248.919	9.02
249.135	9
249.35	8.7
249.566	8.96
249.782	8.78
249.997	9.22
250.213	9.42
250.428	9.76
250.644	9.92
250.859	9.71
251.075	10.15
251.29	9.7
251.506	9.33
251.721	9.3
251.937	9.46
252.152	9.64
252.368	9.28
252.583	9.23
252.798	8.78
253.014	8.37
253.229	8.88
253.445	8.34
253.66	8.31
253.875	8.5
254.091	7.87
254.306	6.99
254.521	6.59
254.737	6.69
254.952	6.22
255.167	6.34
255.383	7.16
255.598	6.92
255.813	7.21
256.028	7.14
256.244	7.28
256.459	7.52
256.674	7.96
256.889	8.1
257.104	8.46
257.32	8.51
257.535	8.39
257.75	8.26
257.965	7.99
258.18	7.92
258.395	7.9
258.61	7.81
258.826	7.84
259.041	7.61
259.256	7.65
259.471	7.42
259.686	7.43
259.901	7.4
260.116	7.24
260.331	7.39
260.546	7.42
260.761	7.57
260.976	7.67
261.191	7.61
261.406	8.06
261.621	8.05
261.836	7.97
262.05	7.67
262.265	7.68
262.48	7.91
262.695	7.81
262.91	7.81
263.125	7.4
263.34	7.7
263.555	7.73
263.769	7.24
263.984	7.49
264.199	7.8
264.414	8.05
264.629	7.72
264.843	7.54
265.058	7.34
265.273	7.27
265.488	7.57
265.702	7.34
265.917	7.31
266.132	7.68
266.346	7.41
266.561	7.38
266.776	7.51
266.99	7.86
267.205	7.88
267.42	7.83
267.634	7.81
267.849	7.6
268.063	7.48
268.278	7.28
268.492	6.9
268.707	7.08
268.922	7.11
269.136	7.07
269.351	7.22
269.565	7.31
269.78	7.05
269.994	6.77
270.209	7.02
270.423	7.36
270.637	7.64
270.852	7.92
271.066	7.72
271.281	7.77
271.495	7.91
271.709	7.76
271.924	7.57
272.138	7.73
272.353	7.96
272.567	7.69
272.781	7.44
272.996	7.44
273.21	7.06
273.424	6.96
273.638	7.01
273.853	6.85
274.067	6.62
274.281	6.9
274.495	6.9
274.71	6.88
274.924	6.82
275.138	6.9
275.352	7.06
275.566	7.35
275.781	7.37
275.995	7.28
276.209	7.19
276.423	7.29
276.637	6.97
276.851	6.71
277.065	6.75
277.279	7.01
277.493	6.94
277.707	6.52
277.921	6.65
278.135	7
278.349	6.66
278.563	6.68
278.777	6.41
278.991	6.83
279.205	7.41
279.419	7.49
279.633	7.33
279.847	7.35
280.061	7.49
280.275	7.31
280.489	7.2
280.703	7.31
280.917	7.27
281.131	7.61
281.344	7.33
281.558	7.02
281.772	6.85
281.986	6.91
282.2	6.97
282.414	7.04
282.627	7
282.841	6.81
283.055	6.98
283.269	7.02
283.482	6.83
283.696	6.92
283.91	7.17
284.123	7.33
284.337	7.12
284.551	6.99
284.764	6.76
284.978	6.85
285.192	6.88
285.405	6.94
285.619	7.09
285.833	6.9
286.046	6.89
286.26	6.69
286.473	6.52
286.687	6.68
286.9	6.72
287.114	6.83
287.327	6.98
287.541	7.13
287.754	6.93
287.968	6.68
288.181	7.03
288.395	6.93
288.608	6.94
288.822	7.04
289.035	7.22
289.248	7.18
289.462	7.32
289.675	7.19
289.889	7.01
290.102	7.19
290.315	7.2
290.529	7.09
290.742	7.08
290.955	7.22
291.169	7.21
291.382	6.86
291.595	6.75
291.808	6.63
292.022	6.85
292.235	6.91
292.448	7.06
292.661	7.09
292.875	7.31
293.088	7.16
293.301	7.18
293.514	7.17
293.727	7.3
293.94	7.44
294.153	7.41
294.367	7.22
294.58	7.25
294.793	6.9
295.006	6.97
295.219	6.98
295.432	7.11
295.645	7.28
295.858	7.27
296.071	7.39
296.284	7.3
296.497	7.31
296.71	7.31
296.923	7.32
297.136	7.58
297.349	7.62
297.562	7.6
297.775	7.67
297.988	7.62
298.201	7.58
298.414	7.48
298.626	7.72
298.839	7.75
299.052	7.94
299.265	7.75
299.478	7.63
299.691	7.62
299.903	7.57
300.116	7.47
300.329	7.43
300.542	7.58
300.755	7.69
300.967	7.73
301.18	7.74
301.393	7.62
301.605	7.83
301.818	7.67
302.031	7.68
302.243	7.7
302.456	8.13
302.669	7.96
302.881	8.2
303.094	8.31
303.307	8.33
303.519	8.67
303.732	8.81
303.944	8.96
304.157	8.99
304.37	9.12
304.582	9.4
304.795	8.96
305.007	9.17
305.22	8.86
305.432	8.57
305.645	8.44
305.857	8.2
306.069	7.98
306.282	7.97
306.494	8.2
306.707	8.12
306.919	8.02
307.132	8.04
307.344	7.95
307.556	7.9
307.769	8.23
307.981	8.31
308.193	8.33
308.406	8.25
308.618	8.16
308.83	7.95
309.043	8.07
309.255	7.96
309.467	8.08
309.679	8.19
309.892	8.32
310.104	8.11
310.316	8.04
310.528	8.13
310.74	8.35
310.953	8.45
311.165	8.68
311.377	8.46
311.589	8.52
311.801	8.41
312.013	8.27
312.225	8.11
312.437	8.4
312.649	8.44
312.862	8.18
313.074	8.12
313.286	8.01
313.498	7.88
313.71	8.33
313.922	8.26
314.134	8.44
314.346	8.57
314.558	8.78
314.77	8.51
314.982	8.35
315.193	8.61
315.405	8.31
315.617	8.34
315.829	8.41
316.041	8.19
316.253	8.13
316.465	8.24
316.677	8.16
316.888	8.36
317.1	8.63
317.312	8.89
317.524	8.83
317.736	9.21
317.947	9.4
318.159	9.53
318.371	9.44
318.583	9.53
318.794	9.63
319.006	9.84
319.218	9.6
319.43	9.35
319.641	9.23
319.853	9.29
320.064	9.11
320.276	9.15
320.488	9.11
320.699	9.23
320.911	9.26
321.123	9.35
321.334	9.34
321.546	9.35
321.757	9.4
321.969	9.54
322.18	9.5
322.392	9.38
322.603	9.21
322.815	9.13
323.026	8.98
323.238	8.78
323.449	8.66
323.661	8.65
323.872	8.64
324.083	8.75
324.295	8.7
324.506	8.68
324.718	8.77
324.929	8.76
325.14	8.72
325.352	8.77
325.563	9.03
325.774	8.9
325.986	8.69
326.197	8.62
326.408	8.45
326.62	8.45
326.831	8.51
327.042	8.48
327.253	8.55
327.464	8.67
327.676	8.58
327.887	8.39
328.098	8.25
328.309	8.29
328.52	8.33
328.732	8.57
328.943	8.6
329.154	8.56
329.365	8.38
329.576	8.33
329.787	8.02
329.998	8.08
330.209	8.34
330.42	8.54
330.631	8.56
330.842	8.61
331.053	8.49
331.264	8.42
331.475	8.38
331.686	8.62
331.897	8.61
332.108	8.68
332.319	8.72
332.53	8.51
332.741	8.44
332.952	8.29
333.163	8.55
333.374	8.68
333.585	8.68
333.795	8.72
334.006	8.72
334.217	8.72
334.428	8.87
334.639	8.69
334.849	8.72
335.06	8.89
335.271	8.78
335.482	8.49
335.692	8.28
335.903	8.26
336.114	8.16
336.325	8.17
336.535	8.15
336.746	7.88
336.957	7.98
337.167	8.03
337.378	7.8
337.589	8
337.799	8.14
338.01	8.3
338.22	8.34
338.431	8.35
338.642	8.29
338.852	8
339.063	8.08
339.273	7.97
339.484	7.97
339.694	7.93
339.905	7.89
340.115	7.69
340.326	7.37
340.536	7.23
340.746	7.23
340.957	7.04
341.167	7.22
341.378	7.3
341.588	7.53
341.799	7.39
342.009	7.54
342.219	7.65
342.43	7.73
342.64	7.75
342.85	7.8
343.061	7.79
343.271	7.94
343.481	8.1
343.691	8.01
343.902	7.86
344.112	7.78
344.322	7.72
344.532	7.57
344.743	7.42
344.953	7.41
345.163	7.46
345.373	7.33
345.583	7.35
345.793	7.06
346.004	7.16
346.214	7.2
346.424	7.44
346.634	7.49
346.844	7.59
347.054	7.75
347.264	7.95
347.474	7.87
347.684	7.92
347.894	7.89
348.104	7.97
348.314	7.91
348.524	7.92
348.734	7.78
348.944	7.69
349.154	7.72
349.364	7.66
349.574	7.53
349.784	7.46
349.994	7.51
350.204	7.4
350.413	7.28
350.623	7.27
350.833	7.09
351.043	6.98
351.253	7.14
351.463	7.05
351.672	6.86
351.882	6.83
352.092	6.82
352.302	6.67
352.511	6.73
352.721	6.88
352.931	6.87
353.141	6.83
353.35	6.81
353.56	6.63
353.77	6.71
353.979	6.91
354.189	6.85
354.399	7.06
354.608	7.04
354.818	7.02
355.027	7.06
355.237	6.99
355.447	7.04
355.656	7.09
355.866	7.12
356.075	6.95
356.285	6.92
356.494	6.96
356.704	6.73
356.913	6.83
357.123	6.7
357.332	6.65
357.542	6.75
357.751	6.8
357.96	6.76
358.17	6.66
358.379	6.7
358.589	6.66
358.798	6.67
359.007	6.71
359.217	6.61
359.426	6.63
359.635	6.67
359.845	6.56
360.054	6.5
360.263	6.55
360.472	6.53
360.682	6.53
360.891	6.53
361.1	6.47
361.309	6.49
361.519	6.51
361.728	6.56
361.937	6.5
362.146	6.46
362.355	6.48
362.564	6.44
362.774	6.49
362.983	6.33
363.192	6.23
363.401	6.21
363.61	6.14
363.819	6.2
364.028	6.22
364.237	6.12
364.446	6.22
364.655	6.14
364.864	6.14
365.073	6.17
365.282	6.32
365.491	6.29
365.7	6.32
365.909	6.38
366.118	6.34
366.327	6.28
366.536	6.26
366.745	6.14
366.954	6.24
367.162	6.17
367.371	6.05
367.58	6
367.789	6.01
367.998	5.98
368.207	6.05
368.415	5.98
368.624	5.88
368.833	5.93
369.042	6.05
369.25	6.01
369.459	6.09
369.668	6.09
369.877	6.08
370.085	6.22
370.294	6.15
370.503	6.09
370.711	6.05
370.92	6.04
371.129	6
371.337	5.94
371.546	5.82
371.754	5.75
371.963	5.79
372.171	5.73
372.38	5.52
372.589	5.59
372.797	5.48
373.006	5.55
373.214	5.59
373.423	5.6
373.631	5.6
373.84	5.68
374.048	5.54
374.256	5.42
374.465	5.4
374.673	5.39
374.882	5.24
375.09	5.21
375.298	5.13
375.507	5.13
375.715	5.14
375.923	5.03
376.132	5.02
376.34	5.03
376.548	5.11
376.757	5.13
376.965	5.23
377.173	5.38
377.381	5.44
377.59	5.45
377.798	5.4
378.006	5.36
378.214	5.45
378.423	5.45
378.631	5.58
378.839	5.6
379.047	5.65
379.255	5.59
379.463	5.51
379.671	5.44
379.879	5.46
380.088	5.5
380.296	5.5
380.504	5.45
380.712	5.49
380.92	5.56
381.128	5.47
381.336	5.43
381.544	5.45
381.752	5.43
381.96	5.45
382.168	5.38
382.376	5.43
382.584	5.46
382.791	5.45
382.999	5.31
383.207	5.26
383.415	5.31
383.623	5.32
383.831	5.3
384.039	5.39
384.247	5.39
384.454	5.48
384.662	5.5
384.87	5.56
385.078	5.53
385.285	5.58
385.493	5.46
385.701	5.41
385.909	5.38
386.116	5.4
386.324	5.29
386.532	5.28
386.739	5.15
386.947	4.96
387.155	4.86
387.362	4.82
387.57	4.86
387.778	4.96
387.985	5.02
388.193	4.99
388.4	5.06
388.608	5.03
388.816	4.98
389.023	5.03
389.231	5.05
389.438	5.08
389.646	5.04
389.853	4.98
390.061	4.88
390.268	4.85
390.475	4.86
390.683	4.79
390.89	4.77
391.098	4.78
391.305	4.77
391.512	4.72
391.72	4.7
391.927	4.68
392.135	4.65
392.342	4.69
392.549	4.71
392.756	4.62
392.964	4.68
393.171	4.68
393.378	4.7
393.586	4.69
393.793	4.81
394	4.76
394.207	4.83
394.414	4.85
394.622	4.88
394.829	4.8
395.036	4.83
395.243	4.77
395.45	4.69
395.657	4.76
395.864	4.71
396.072	4.84
396.279	4.94
396.486	4.85
396.693	4.87
396.9	4.79
397.107	4.72
397.314	4.75
397.521	4.74
397.728	4.86
397.935	4.67
398.142	4.74
398.349	4.56
398.556	4.47
398.763	4.54
398.97	4.54
399.177	4.59
399.383	4.7
399.59	4.71
399.797	4.74
400.004	4.67
400.211	4.8
400.418	4.77
400.625	4.73
400.831	4.71
401.038	4.69
401.245	4.59
401.452	4.45
401.658	4.43
401.865	4.47
402.072	4.44
402.279	4.5
402.485	4.45
402.692	4.46
402.899	4.55
403.105	4.65
403.312	4.61
403.519	4.64
403.725	4.79
403.932	4.82
404.138	4.74
404.345	4.73
404.552	4.7
404.758	4.76
404.965	4.69
405.171	4.58
405.378	4.46
405.584	4.53
405.791	4.51
405.997	4.46
406.204	4.4
406.41	4.44
406.617	4.39
406.823	4.39
407.029	4.38
407.236	4.42
407.442	4.48
407.649	4.65
407.855	4.57
408.061	4.64
408.268	4.58
408.474	4.54
408.68	4.53
408.887	4.54
409.093	4.5
409.299	4.47
409.505	4.43
409.712	4.38
409.918	4.21
410.124	4.17
410.33	4.15
410.537	4.11
410.743	4.11
410.949	4.09
411.155	4.15
411.361	4.19
411.567	4.1
411.773	4.05
411.98	4.05
412.186	4.01
412.392	4.1
412.598	4.1
412.804	4.15
413.01	4.18
413.216	4.18
413.422	4.16
413.628	4.18
413.834	4.28
414.04	4.42
414.246	4.38
414.452	4.43
414.658	4.4
414.864	4.38
415.07	4.33
415.275	4.35
415.481	4.29
415.687	4.21
415.893	4.21
416.099	4.11
416.305	4.07
416.511	4.13
416.716	4.09
416.922	4.07
417.128	4.07
417.334	4.09
417.539	4.02
417.745	4.01
417.951	4.05
418.157	4.03
418.362	4.08
418.568	4.06
418.774	4.07
418.979	4.06
419.185	4.08
419.391	4.05
419.596	4.06
419.802	4.08
420.008	4.07
420.213	4.39
420.419	4.36
420.624	4.34
420.83	4.35
421.035	4.34
421.241	4.38
421.446	4.37
421.652	4.37
421.857	4.39
422.063	4.38
422.268	4.4
422.474	4.08
422.679	4.12
422.885	4.15
423.09	4.15
423.295	4.13
423.501	4.07
423.706	4.05
423.911	4.05
424.117	4.03
424.322	4.01
424.527	4.01
424.733	3.98
424.938	3.96
425.143	3.93
425.349	3.89
425.554	3.91
425.759	3.95
425.964	3.95
426.169	4
426.375	3.99
426.58	3.98
426.785	3.98
426.99	4
427.195	3.94
427.4	3.99
427.605	4
427.811	4
428.016	4.03
428.221	4.06
428.426	4
428.631	3.98
428.836	3.97
429.041	3.93
429.246	3.97
429.451	4
429.656	3.96
429.861	3.98
430.066	4.01
430.271	3.98
430.476	3.92
430.681	3.88
430.886	3.87
431.09	3.92
431.295	3.93
431.5	3.9
431.705	3.93
431.91	3.89
432.115	3.87
432.32	3.8
432.524	3.79
432.729	3.82
432.934	3.85
433.139	3.86
433.343	3.88
433.548	3.95
433.753	3.97
433.958	3.95
434.162	3.94
434.367	3.96
434.572	3.93
434.776	3.93
434.981	3.91
435.186	3.86
435.39	3.86
435.595	3.87
435.799	3.81
436.004	3.79
436.209	3.79
436.413	3.81
436.618	3.78
436.822	3.82
437.027	3.78
437.231	3.76
437.436	3.79
437.64	3.79
437.845	3.76
438.049	3.78
438.253	3.71
438.458	3.7
438.662	3.71
438.867	3.7
439.071	3.76
439.275	3.81
439.48	3.82
439.684	3.8
439.888	3.8
440.093	3.78
440.297	3.75
440.501	3.81
440.706	3.84
440.91	3.85
441.114	3.83
441.318	3.79
441.523	3.77
441.727	3.8
441.931	3.89
442.135	3.87
442.339	3.86
442.543	3.86
442.748	3.86
442.952	3.81
443.156	3.82
443.36	3.86
443.564	3.83
443.768	3.85
443.972	3.82
444.176	3.71
444.38	3.73
444.584	3.71
444.788	3.71
444.992	3.68
445.196	3.68
445.4	3.7
445.604	3.64
445.808	3.65
446.012	3.63
446.216	3.62
446.42	3.6
446.624	3.62
446.828	3.62
447.032	3.63
447.235	3.63
447.439	3.63
447.643	3.62
447.847	3.67
448.051	3.64
448.254	3.66
448.458	3.65
448.662	3.73
448.866	3.65
449.069	3.72
449.273	3.74
449.477	3.78
449.681	3.78
449.884	3.78
450.088	3.74
450.292	3.77
450.495	3.78
450.699	3.83
450.902	3.8
451.106	3.84
451.31	3.79
451.513	3.8
451.717	3.74
451.92	3.71
452.124	3.63
452.327	3.64
452.531	3.66
452.734	3.64
452.938	3.58
453.141	3.61
453.345	3.65
453.548	3.65
453.752	3.64
453.955	3.67
454.158	3.7
454.362	3.75
454.565	3.73
454.769	3.73
454.972	3.73
455.175	3.76
455.379	3.74
455.582	3.68
455.785	3.65
455.988	3.61
456.192	3.57
456.395	3.58
456.598	3.59
456.801	3.58
457.005	3.58
457.208	3.55
457.411	3.56
457.614	3.57
457.817	3.59
458.021	3.58
458.224	3.57
458.427	3.57
458.63	3.58
458.833	3.56
459.036	3.58
459.239	3.54
459.442	3.53
459.645	3.53
459.848	3.53
460.051	3.52
460.254	3.54
460.457	3.55
460.66	3.55
460.863	3.53
461.066	3.55
461.269	3.55
461.472	3.57
461.675	3.61
461.878	3.61
462.081	3.57
462.284	3.59
462.486	3.6
462.689	3.61
462.892	3.67
463.095	3.65
463.298	3.63
463.5	3.63
463.703	3.63
463.906	3.63
464.109	3.6
464.311	3.66
464.514	3.7
464.717	3.65
464.92	3.67
465.122	3.68
465.325	3.74
465.528	3.73
465.73	3.71
465.933	3.69
466.135	3.68
466.338	3.71
466.541	3.67
466.743	3.63
466.946	3.66
467.148	3.67
467.351	3.62
467.553	3.6
467.756	3.67
467.958	3.76
468.161	3.82
468.363	3.78
468.566	3.77
468.768	3.76
468.971	3.76
469.173	3.76
469.375	3.7
469.578	3.75
469.78	3.69
469.983	3.66
470.185	3.56
470.387	3.54
470.59	3.58
470.792	3.6
470.994	3.66
471.196	3.61
471.399	3.58
471.601	3.58
471.803	3.53
472.005	3.57
472.208	3.58
472.41	3.6
472.612	3.6
472.814	3.61
473.016	3.59
473.218	3.56
473.421	3.61
473.623	3.63
473.825	3.65
474.027	3.66
474.229	3.65
474.431	3.6
474.633	3.59
474.835	3.56
475.037	3.52
475.239	3.51
475.441	3.54
475.643	3.5
475.845	3.52
476.047	3.57
476.249	3.55
476.451	3.58
476.653	3.6
476.855	3.62
477.057	3.65
477.258	3.66
477.46	3.68
477.662	3.66
477.864	3.69
478.066	3.68
478.268	3.65
478.469	3.68
478.671	3.64
478.873	3.6
479.075	3.55
479.276	3.53
479.478	3.54
479.68	3.5
479.882	3.5
480.083	3.54
480.285	3.54
480.487	3.52
480.688	3.49
480.89	3.52
481.091	3.55
481.293	3.59
481.495	3.6
481.696	3.59
481.898	3.59
482.099	3.6
482.301	3.59
482.502	3.58
482.704	3.58
482.905	3.58
483.107	3.56
483.308	3.56
483.51	3.52
483.711	3.51
483.913	3.51
484.114	3.51
484.315	3.49
484.517	3.48
484.718	3.5
484.92	3.5
485.121	3.49
485.322	3.5
485.524	3.51
485.725	3.55
485.926	3.57
486.127	3.57
486.329	3.57
486.53	3.59
486.731	3.58
486.932	3.56
487.134	3.56
487.335	3.56
487.536	3.57
487.737	3.57
487.938	3.55
488.139	3.53
488.341	3.52
488.542	3.52
488.743	3.51
488.944	3.51
489.145	3.54
489.346	3.56
489.547	3.57
489.748	3.57
489.949	3.56
490.15	3.57
490.351	3.57
490.552	3.59
490.753	3.59
490.954	3.58
491.155	3.57
491.356	3.55
491.557	3.54
491.758	3.54
491.959	3.54
492.159	3.54
492.36	3.54
492.561	3.55
492.762	3.54
492.963	3.55
493.164	3.56
493.364	3.58
493.565	3.58
493.766	3.61
493.967	3.59
494.167	3.59
494.368	3.6
494.569	3.62
494.769	3.61
494.97	3.61
495.171	3.62
495.371	3.59
495.572	3.59
495.773	3.63
495.973	3.61
496.174	3.63
496.375	3.63
496.575	3.67
496.776	3.64
496.976	3.67
497.177	3.69
497.377	3.67
497.578	3.7
497.778	3.68
497.979	3.65
498.179	3.66
498.38	3.64
498.58	3.63
498.78	3.58
498.981	3.62
499.181	3.57
499.382	3.55
499.582	3.59
499.782	3.61
499.983	3.63
500.183	3.65
500.383	3.64
500.584	3.63
500.784	3.63
500.984	3.62
501.184	3.6
501.385	3.62
501.585	3.64
501.785	3.63
501.985	3.63
502.185	3.65
502.386	3.65
502.586	3.66
502.786	3.73
502.986	3.77
503.186	3.77
503.386	3.79
503.586	3.82
503.786	3.8
503.987	3.8
504.187	3.81
504.387	3.84
504.587	3.86
504.787	3.87
504.987	3.84
505.187	3.82
505.387	3.81
505.587	3.8
505.786	3.79
505.986	3.8
506.186	3.77
506.386	3.79
506.586	3.76
506.786	3.74
506.986	3.77
507.186	3.74
507.386	3.79
507.585	3.84
507.785	3.88
507.985	3.89
508.185	3.92
508.384	3.96
508.584	3.95
508.784	3.96
508.984	3.98
509.183	3.96
509.383	4.01
509.583	3.98
509.782	4
509.982	3.99
510.182	3.98
510.381	3.99
510.581	4
510.781	3.97
510.98	3.98
511.18	3.92
511.379	3.93
511.579	3.93
511.778	3.92
511.978	3.9
512.177	3.9
512.377	3.95
512.576	3.95
512.776	3.98
512.975	4
513.175	4
513.374	4.06
513.573	4.05
513.773	4.09
513.972	4.13
514.172	4.16
514.371	4.14
514.57	4.11
514.77	4.14
514.969	4.14
515.168	4.18
515.367	4.23
515.567	4.19
515.766	4.23
515.965	4.22
516.164	4.24
516.364	4.24
516.563	4.26
516.762	4.29
516.961	4.25
517.16	4.27
517.359	4.28
517.559	4.27
517.758	4.3
517.957	4.3
518.156	4.31
518.355	4.32
518.554	4.33
518.753	4.32
518.952	4.35
519.151	4.36
519.35	4.36
519.549	4.34
519.748	4.38
519.947	4.42
520.146	4.42
520.345	4.39
520.544	4.41
520.743	4.45
520.942	4.47
521.141	4.45
521.339	4.48
521.538	4.49
521.737	4.52
521.936	4.47
522.135	4.44
522.333	4.48
522.532	4.55
522.731	4.56
522.93	4.56
523.129	4.57
523.327	4.57
523.526	4.57
523.725	4.58
523.923	4.59
524.122	4.59
524.321	4.63
524.519	4.64
524.718	4.57
524.917	4.56
525.115	4.55
525.314	4.57
525.512	4.6
525.711	4.64
525.909	4.65
526.108	4.64
526.306	4.64
526.505	4.63
526.703	4.65
526.902	4.7
527.1	4.7
527.299	4.71
527.497	4.71
527.696	4.72
527.894	4.71
528.092	4.72
528.291	4.71
528.489	4.74
528.688	4.75
528.886	4.76
529.084	4.75
529.283	4.77
529.481	4.81
529.679	4.8
529.877	4.8
530.076	4.81
530.274	4.82
530.472	4.87
530.67	4.89
530.869	4.89
531.067	4.89
531.265	4.92
531.463	4.94
531.661	4.94
531.859	4.97
532.057	5.02
532.255	5.05
532.454	5.05
532.652	5.05
532.85	5.05
533.048	5.07
533.246	5.07
533.444	5.08
533.642	5.09
533.84	5.12
534.038	5.14
534.236	5.16
534.434	5.17
534.632	5.18
534.83	5.21
535.027	5.24
535.225	5.26
535.423	5.3
535.621	5.29
535.819	5.3
536.017	5.29
536.215	5.3
536.412	5.27
536.61	5.3
536.808	5.3
537.006	5.3
537.203	5.29
537.401	5.29
537.599	5.3
537.797	5.36
537.994	5.38
538.192	5.41
538.39	5.43
538.587	5.43
538.785	5.41
538.983	5.46
539.18	5.51
539.378	5.54
539.575	5.61
539.773	5.61
539.97	5.6
540.168	5.6
540.366	5.61
540.563	5.61
540.761	5.63
540.958	5.66
541.155	5.67
541.353	5.68
541.55	5.7
541.748	5.7
541.945	5.73
542.143	5.72
542.34	5.77
542.537	5.78
542.735	5.82
542.932	5.86
543.129	5.88
543.327	5.93
543.524	5.96
543.721	5.98
543.919	6.02
544.116	6.05
544.313	6.13
544.51	6.11
544.708	6.17
544.905	6.19
545.102	6.2
545.299	6.22
545.496	6.24
545.693	6.24
545.891	6.26
546.088	6.28
546.285	6.29
546.482	6.28
546.679	6.31
546.876	6.29
547.073	6.31
547.27	6.37
547.467	6.37
547.664	6.37
547.861	6.44
548.058	6.47
548.255	6.49
548.452	6.52
548.649	6.56
548.846	6.61
549.043	6.64
549.24	6.67
549.437	6.68
549.633	6.77
549.83	6.81
550.027	6.8
550.224	6.83
550.421	6.84
550.618	6.85
550.814	6.92
551.011	6.97
551.208	7.08
551.405	7.1
551.601	7.1
551.798	7.14
551.995	7.17
552.191	7.18
552.388	7.17
552.585	7.21
552.781	7.27
552.978	7.3
553.175	7.34
553.371	7.34
553.568	7.39
553.764	7.42
553.961	7.48
554.157	7.56
554.354	7.59
554.55	7.69
554.747	7.74
554.943	7.75
555.14	7.78
555.336	7.77
555.533	7.8
555.729	7.86
555.926	7.9
556.122	7.9
556.318	7.9
556.515	7.94
556.711	7.97
556.907	8
557.104	8.06
557.3	8.06
557.496	8.09
557.693	8.15
557.889	8.2
558.085	8.27
558.281	8.3
558.478	8.28
558.674	8.34
558.87	8.34
559.066	8.39
559.262	8.4
559.459	8.44
559.655	8.51
559.851	8.54
560.047	8.55
560.243	8.54
560.439	8.57
560.635	8.66
560.831	8.67
561.027	8.71
561.223	8.77
561.419	8.84
561.615	8.86
561.811	8.88
562.007	8.92
562.203	8.89
562.399	8.96
562.595	8.99
562.791	8.97
562.987	9.05
563.183	9.1
563.379	9.12
563.575	9.13
563.771	9.26
563.966	9.32
564.162	9.35
564.358	9.42
564.554	9.45
564.75	9.52
564.945	9.59
565.141	9.6
565.337	9.67
565.533	9.72
565.728	9.79
565.924	9.8
566.12	9.8
566.315	9.83
566.511	9.86
566.707	9.88
566.902	9.88
567.098	9.89
567.293	9.92
567.489	9.94
567.684	9.95
567.88	9.92
568.076	9.93
568.271	9.96
568.467	9.97
568.662	10.02
568.858	10.08
569.053	10.11
569.248	10.19
569.444	10.25
569.639	10.27
569.835	10.32
570.03	10.39
570.225	10.38
570.421	10.45
570.616	10.52
570.812	10.54
571.007	10.53
571.202	10.57
571.397	10.55
571.593	10.56
571.788	10.6
571.983	10.65
572.178	10.65
572.374	10.72
572.569	10.76
572.764	10.8
572.959	10.85
573.154	10.91
573.35	10.95
573.545	10.98
573.74	11.01
573.935	11
574.13	11.04
574.325	11.02
574.52	11.02
574.715	11
574.91	10.98
575.105	11.01
575.3	11.01
575.495	11.06
575.69	11.11
575.885	11.12
576.08	11.15
576.275	11.13
576.47	11.19
576.665	11.26
576.86	11.28
577.055	11.36
577.25	11.38
577.444	11.43
577.639	11.44
577.834	11.42
578.029	11.46
578.224	11.51
578.418	11.57
578.613	11.6
578.808	11.6
579.003	11.65
579.197	11.7
579.392	11.67
579.587	11.69
579.781	11.67
579.976	11.7
580.171	11.7
580.365	11.75
580.56	11.73
580.755	11.77
580.949	11.83
581.144	11.83
581.338	11.78
581.533	11.82
581.727	11.85
581.922	11.87
582.116	11.94
582.311	11.98
582.505	11.98
582.7	12
582.894	12.05
583.089	12.01
583.283	11.99
583.478	12.03
583.672	12.08
583.866	12.08
584.061	12.11
584.255	12.09
584.449	12.1
584.644	12.09
584.838	12.09
585.032	12.03
585.226	12.07
585.421	12.11
585.615	12.08
585.809	12.03
586.003	12.02
586.198	12.04
586.392	12.04
586.586	12.04
586.78	12.11
586.974	12.14
587.168	12.21
587.363	12.19
587.557	12.23
587.751	12.24
587.945	12.27
588.139	12.28
588.333	12.26
588.527	12.3
588.721	12.37
588.915	12.33
589.109	12.38
589.303	12.35
589.497	12.42
589.691	12.4
589.885	12.45
590.079	12.5
590.273	12.55
590.466	12.63
590.66	12.64
590.854	12.6
591.048	12.6
591.242	12.59
591.436	12.61
591.629	12.57
591.823	12.6
592.017	12.62
592.211	12.65
592.404	12.65
592.598	12.56
592.792	12.59
592.986	12.61
593.179	12.65
593.373	12.64
593.567	12.65
593.76	12.68
593.954	12.63
594.147	12.64
594.341	12.64
594.535	12.71
594.728	12.78
594.922	12.8
595.115	12.81
595.309	12.85
595.502	12.88
595.696	12.87
595.889	12.93
596.083	12.97
596.276	12.94
596.47	12.94
596.663	12.89
596.856	12.88
597.05	12.9
597.243	12.84
597.437	12.84
597.63	12.82
597.823	12.87
598.017	12.84
598.21	12.8
598.403	12.87
598.596	12.88
598.79	12.9
598.983	12.98
599.176	12.94
599.369	13.02
599.563	13.01
599.756	13.01
599.949	13.03
600.142	13
600.335	13.07
600.528	13.05
600.722	13.07
600.915	13.09
601.108	13.07
601.301	13.09
601.494	13.11
601.687	13.07
601.88	13.04
602.073	13.03
602.266	13.02
602.459	13.03
602.652	12.99
602.845	13.01
603.038	13
603.231	12.99
603.424	12.99
603.617	13.02
603.809	13.02
604.002	13.09
604.195	13.08
604.388	13.15
604.581	13.11
604.774	13.13
604.966	13.13
605.159	13.16
605.352	13.13
605.545	13.2
605.737	13.2
605.93	13.23
606.123	13.14
606.316	13.15
606.508	13.13
606.701	13.27
606.894	13.33
607.086	13.36
607.279	13.34
607.471	13.38
607.664	13.31
607.857	13.28
608.049	13.33
608.242	13.35
608.434	13.4
608.627	13.42
608.819	13.35
609.012	13.38
609.204	13.34
609.397	13.39
609.589	13.39
609.782	13.44
609.974	13.52
610.166	13.6
610.359	13.64
610.551	13.63
610.743	13.64
610.936	13.67
611.128	13.67
611.32	13.71
611.513	13.65
611.705	13.75
611.897	13.72
612.09	13.64
612.282	13.53
612.474	13.5
612.666	13.61
612.858	13.55
613.051	13.56
613.243	13.55
613.435	13.52
613.627	13.58
613.819	13.51
614.011	13.49
614.203	13.45
614.395	13.41
614.588	13.4
614.78	13.34
614.972	13.36
615.164	13.31
615.356	13.27
615.548	13.27
615.74	13.22
615.932	13.23
616.124	13.24
616.315	13.32
616.507	13.38
616.699	13.47
616.891	13.51
617.083	13.59
617.275	13.7
617.467	13.67
617.659	13.62
617.85	13.64
618.042	13.65
618.234	13.64
618.426	13.62
618.618	13.7
618.809	13.7
619.001	13.62
619.193	13.59
619.384	13.51
619.576	13.56
619.768	13.64
619.959	13.59
620.151	13.6
620.343	13.64
620.534	13.6
620.726	13.55
620.917	13.53
621.109	13.57
621.301	13.56
621.492	13.54
621.684	13.44
621.875	13.44
622.067	13.5
622.258	13.52
622.45	13.52
622.641	13.63
622.832	13.66
623.024	13.73
623.215	13.71
623.407	13.64
623.598	13.73
623.789	13.86
623.981	13.86
624.172	13.92
624.363	13.94
624.555	13.99
624.746	13.98
624.937	13.99
625.129	13.93
625.32	13.84
625.511	13.9
625.702	13.81
625.893	13.83
626.085	13.9
626.276	13.94
626.467	13.91
626.658	13.83
626.849	13.77
627.04	13.76
627.231	13.75
627.422	13.91
627.614	13.93
627.805	14.02
627.996	13.96
628.187	13.93
628.378	13.81
628.569	13.89
628.76	13.92
628.951	13.92
629.142	13.91
629.332	13.9
629.523	13.84
629.714	13.86
629.905	13.87
630.096	13.88
630.287	13.83
630.478	13.91
630.669	13.89
630.859	13.94
631.05	14.01
631.241	14.1
631.432	14.12
631.623	14.12
631.813	14.08
632.004	14.02
632.195	14.1
632.385	14.12
632.576	14.14
632.767	14.06
632.957	14.05
633.148	14.08
633.339	14
633.529	14.05
633.72	14.07
633.91	14.02
634.101	14.09
634.292	13.99
634.482	13.93
634.673	13.83
634.863	13.84
635.054	13.77
635.244	13.73
635.435	13.75
635.625	13.76
635.815	13.72
636.006	13.77
636.196	13.8
636.387	13.87
636.577	14.02
636.767	14.1
636.958	14.08
637.148	14.1
637.338	14.03
637.529	14.09
637.719	14.05
637.909	14.08
638.099	14.15
638.29	14.13
638.48	14.23
638.67	14.17
638.86	14.23
639.05	14.34
639.241	14.54
639.431	14.61
639.621	14.57
639.811	14.66
640.001	14.62
640.191	14.56
640.381	14.48
640.571	14.34
640.761	14.31
640.951	14.24
641.141	14.24
641.331	14.05
641.521	14.03
641.711	14.05
641.901	13.97
642.091	14.07
642.281	14.08
642.471	14.05
642.661	14.09
642.851	14.16
643.041	14.2
643.231	14.2
643.42	14.19
643.61	14.21
643.8	14.23
643.99	14.25
644.18	14.18
644.369	14.23
644.559	14.4
644.749	14.39
644.939	14.33
645.128	14.31
645.318	14.22
645.508	14.32
645.697	14.3
645.887	14.31
646.076	14.39
646.266	14.41
646.456	14.34
646.645	14.19
646.835	14.22
647.024	14.2
647.214	14.19
647.403	14.19
647.593	14.22
647.782	14.28
647.972	14.18
648.161	14.03
648.351	14.13
648.54	14.14
648.73	14.17
648.919	14.25
649.108	14.26
649.298	14.18
649.487	14.24
649.677	14.15
649.866	14.14
650.055	14.24
650.244	14.28
650.434	14.21
650.623	14.25
650.812	14.3
651.002	14.17
651.191	14.25
651.38	14.38
651.569	14.44
651.758	14.45
651.947	14.44
652.137	14.41
652.326	14.39
652.515	14.38
652.704	14.46
652.893	14.47
653.082	14.48
653.271	14.56
653.46	14.51
653.649	14.46
653.838	14.55
654.027	14.57
654.216	14.6
654.405	14.63
654.594	14.71
654.783	14.56
654.972	14.49
655.161	14.55
655.35	14.5
655.539	14.46
655.728	14.46
655.916	14.41
656.105	14.45
656.294	14.43
656.483	14.45
656.672	14.46
656.86	14.6
657.049	14.68
657.238	14.71
657.427	14.65
657.615	14.73
657.804	14.72
657.993	14.73
658.181	14.7
658.37	14.72
658.559	14.72
658.747	14.71
658.936	14.66
659.125	14.61
659.313	14.56
659.502	14.58
659.69	14.55
659.879	14.55
660.067	14.57
660.256	14.57
660.444	14.67
660.633	14.76
660.821	14.69
661.01	14.63
661.198	14.69
661.387	14.59
661.575	14.65
661.763	14.74
661.952	14.74
662.14	14.68
662.328	14.67
662.517	14.49
662.705	14.38
662.893	14.48
663.082	14.53
663.27	14.45
663.458	14.54
663.646	14.46
663.834	14.37
664.023	14.3
664.211	14.31
664.399	14.28
664.587	14.42
664.775	14.43
664.963	14.41
665.152	14.37
665.34	14.53
665.528	14.51
665.716	14.51
665.904	14.54
666.092	14.7
666.28	14.73
666.468	14.82
666.656	14.71
666.844	14.7
667.032	14.66
667.22	14.74
667.408	14.65
667.596	14.73
667.784	14.84
667.971	14.85
668.159	14.73
668.347	14.77
668.535	14.7
668.723	14.74
668.911	14.77
669.098	14.7
669.286	14.68
669.474	14.8
669.662	14.76
669.849	14.82
670.037	14.72
670.225	14.79
670.413	14.71
670.6	14.81
670.788	14.83
670.976	14.85
671.163	14.92
671.351	14.98
671.538	14.95
671.726	15.02
671.913	14.92
672.101	14.94
672.289	14.91
672.476	15.01
672.664	15.05
672.851	15.07
673.039	15.07
673.226	14.99
673.413	14.94
673.601	14.97
673.788	15.01
673.976	15
674.163	15.1
674.35	15.23
674.538	15.19
674.725	15.07
674.912	15.07
675.1	15.09
675.287	15.12
675.474	15.13
675.662	15.19
675.849	15.04
676.036	15.07
676.223	15.03
676.411	14.93
676.598	14.95
676.785	14.96
676.972	14.98
677.159	15.1
677.346	15.18
677.533	15.08
677.721	15.03
677.908	15.17
678.095	15.17
678.282	15.34
678.469	15.37
678.656	15.31
678.843	15.41
679.03	15.39
679.217	15.29
679.404	15.34
679.591	15.41
679.778	15.37
679.964	15.3
680.151	15.34
680.338	15.3
680.525	15.38
680.712	15.42
680.899	15.41
681.086	15.36
681.272	15.34
681.459	15.34
681.646	15.38
681.833	15.38
682.02	15.38
682.206	15.31
682.393	15.25
682.58	15.12
682.766	15.2
682.953	15.17
683.14	15.22
683.326	15.48
683.513	15.54
683.7	15.5
683.886	15.53
684.073	15.49
684.259	15.51
684.446	15.41
684.632	15.39
684.819	15.29
685.005	15.34
685.192	15.36
685.378	15.25
685.565	15.18
685.751	15.14
685.938	15.14
686.124	15.21
686.31	15.32
686.497	15.48
686.683	15.65
686.87	15.74
687.056	15.62
687.242	15.74
687.429	15.64
687.615	15.53
687.801	15.71
687.987	15.59
688.174	15.55
688.36	15.4
688.546	15.32
688.732	15.29
688.918	15.34
689.105	15.41
689.291	15.28
689.477	15.35
689.663	15.46
689.849	15.24
690.035	15.43
690.221	15.47
690.407	15.48
690.593	15.5
690.779	15.48
690.965	15.4
691.151	15.48
691.337	15.62
691.523	15.57
691.709	15.53
691.895	15.78
692.081	15.76
692.267	15.86
692.453	15.85
692.639	15.79
692.825	15.8
693.011	15.67
693.196	15.53
693.382	15.33
693.568	15.38
693.754	15.41
693.94	15.32
694.125	15.38
694.311	15.36
694.497	15.4
694.682	15.45
694.868	15.48
695.054	15.55
695.239	15.66
695.425	15.67
695.611	15.68
695.796	15.68
695.982	15.74
696.168	15.74
696.353	15.65
696.539	15.71
696.724	15.7
696.91	15.64
697.095	15.71
697.281	15.7
697.466	15.8
697.652	15.67
697.837	15.67
698.023	15.65
698.208	15.67
698.393	15.74
698.579	15.71
698.764	15.7
698.949	15.71
699.135	15.67
699.32	15.7
699.505	15.7
699.691	15.8
699.876	15.88
700.061	15.87
700.246	15.67
700.432	15.68
700.617	15.75
700.802	15.91
700.987	15.89
701.172	15.77
701.358	15.68
701.543	15.73
701.728	15.81
701.913	15.65
702.098	15.7
702.283	15.92
702.468	15.89
702.653	15.71
702.838	15.72
703.023	15.77
703.208	16.03
703.393	16.04
703.578	16.1
703.763	15.96
703.948	16.16
704.133	16.1
704.318	15.99
704.503	16.1
704.688	16.13
704.873	15.98
705.057	15.89
705.242	15.83
705.427	15.94
705.612	15.82
705.797	15.95
705.981	16.12
706.166	16.27
706.351	16.29
706.536	16.22
706.72	16.26
706.905	16.33
707.09	16.38
707.274	16.45
707.459	16.39
707.644	16.51
707.828	16.49
708.013	16.26
708.197	16.21
708.382	16.24
708.567	16.28
708.751	16.37
708.936	16.24
709.12	16.43
709.305	16.34
709.489	16.32
709.673	16.18
709.858	16.1
710.042	16.23
710.227	16.18
710.411	16.16
710.596	16.07
710.78	16.06
710.964	16.15
711.149	16.09
711.333	16.18
711.517	16.21
711.702	16.34
711.886	16.51
712.07	16.25
712.254	16.24
712.438	16.28
712.623	16.32
712.807	16.45
712.991	16.52
713.175	16.51
713.359	16.57
713.544	16.61
713.728	16.5
713.912	16.33
714.096	16.45
714.28	16.41
714.464	16.54
714.648	16.55
714.832	16.48
715.016	16.39
715.2	16.28
715.384	16.33
715.568	16.29
715.752	16.26
715.936	16.32
716.12	16.23
716.304	16.2
716.488	16.09
716.671	16.03
716.855	15.96
717.039	16.07
717.223	16.04
717.407	15.81
717.59	15.79
717.774	15.85
717.958	15.85
718.142	15.85
718.325	15.93
718.509	16
718.693	16.07
718.877	15.92
719.06	15.78
719.244	15.62
719.428	15.78
719.611	15.81
719.795	15.64
719.978	15.71
720.162	15.86
720.345	15.8
720.529	15.55
720.713	15.64
720.896	15.82
721.08	15.85
721.263	16.2
721.446	16.23
721.63	16.1
721.813	16.2
721.997	16.17
722.18	16.2
722.364	16.4
722.547	16.63
722.73	16.32
722.914	16.25
723.097	16.14
723.28	16.14
723.464	16.09
723.647	16.4
723.83	16.56
724.013	16.49
724.197	16.44
724.38	16.57
724.563	16.42
724.746	16.68
724.929	16.83
725.112	16.76
725.296	16.7
725.479	16.49
725.662	16.44
725.845	16.42
726.028	16.31
726.211	16.32
726.394	16.09
726.577	16.21
726.76	16.06
726.943	16
727.126	16.09
727.309	16.27
727.492	16.35
727.675	16.11
727.858	15.93
728.041	16.07
728.224	15.98
728.407	16.03
728.589	16.04
728.772	16.09
728.955	16.19
729.138	16.37
729.321	16.22
729.503	16.33
729.686	16.57
729.869	16.74
730.052	16.73
730.234	16.8
730.417	16.7
730.6	16.55
730.782	16.57
730.965	16.46
731.148	16.29
731.33	16.24
731.513	16.05
731.695	16.01
731.878	15.94
732.061	15.9
732.243	15.96
732.426	16.05
732.608	16.18
732.791	16.14
732.973	16.04
733.156	16.12
733.338	16.3
733.52	16.41
733.703	16.38
733.885	16.43
734.068	16.39
734.25	16.27
734.432	16.26
734.615	16.24
734.797	16.25
734.979	16.35
735.162	16.29
735.344	16.14
735.526	16.22
735.708	16.15
735.891	16.15
736.073	16.27
736.255	16.38
736.437	16.4
736.619	16.36
736.802	16.46
736.984	16.28
737.166	16.48
737.348	16.43
737.53	16.47
737.712	16.45
737.894	16.52
738.076	16.48
738.258	16.26
738.44	16.35
738.622	16.29
738.804	16.21
738.986	16.46
739.168	16.36
739.35	16.54
739.532	16.44
739.714	16.29
739.896	16.33
740.078	16.45
740.259	16.82
740.441	16.88
740.623	16.92
740.805	16.87
740.987	16.98
741.168	17
741.35	16.86
741.532	16.99
741.714	17.05
741.895	17.04
742.077	16.95
742.259	16.83
742.44	16.46
742.622	16.35
742.804	16.34
742.985	16.11
743.167	16.23
743.348	16.17
743.53	16
743.711	16.04
743.893	15.67
744.075	15.63
744.256	15.23
744.438	15.25
744.619	15.49
744.8	15.43
744.982	15.38
745.163	15.32
745.345	15.2
745.526	15.5
745.707	15.46
745.889	15.58
746.07	15.74
746.252	16.18
746.433	16.37
746.614	16.4
746.795	16.73
746.977	16.87
747.158	16.64
747.339	16.71
747.52	16.51
747.702	16.75
747.883	16.82
748.064	16.73
748.245	16.53
748.426	16.62
748.607	16.64
748.788	16.52
748.97	16.36
749.151	16.84
749.332	17.01
749.513	17.18
749.694	16.91
749.875	17.05
750.056	17.16
750.237	17.49
750.418	17.26
750.599	16.88
750.78	16.97
750.96	17.26
751.141	17.03
751.322	17.25
751.503	16.91
751.684	16.97
751.865	17.27
752.046	17.5
752.226	17.26
752.407	17.44
752.588	17.77
752.769	17.79
752.949	17.76
753.13	17.68
753.311	17.25
753.492	17.23
753.672	17.16
753.853	16.74
754.034	16.59
754.214	16.67
754.395	16.6
754.575	16.66
754.756	16.26
754.937	15.96
755.117	15.91
755.298	16.16
755.478	16.56
755.659	17.01
755.839	16.9
756.02	16.64
756.2	16.31
756.381	16.28
756.561	16.01
756.741	16.49
756.922	16.59
757.102	16.74
757.283	16.65
757.463	16.52
757.643	16.38
757.823	16.61
758.004	16.71
758.184	17.17
758.364	17.21
758.545	17.76
758.725	17.65
758.905	17.81
759.085	18
759.265	18.1
759.446	18.04
759.626	18.02
759.806	18.13
759.986	18.17
760.166	18.04
760.346	17.88
760.526	17.63
760.706	17.64
760.886	17.35
761.066	17.05
761.246	17.03
761.426	16.84
761.606	16.73
761.786	16.64
761.966	16.91
762.146	17.07
762.326	17.02
762.506	16.87
762.686	17.08
762.866	17.05
763.046	17.1
763.225	17.19
763.405	17.3
763.585	17.4
763.765	17.35
763.945	17.09
764.124	16.96
764.304	17.27
764.484	17.32
764.664	17.16
764.843	17.48
765.023	17.48
765.203	17.31
765.382	17.38
765.562	17.34
765.741	17.45
765.921	17.48
766.101	17.38
766.28	17.16
766.46	17.03
766.639	17
766.819	16.47
766.998	16.53
767.178	16.58
767.357	16.68
767.537	16.6
767.716	16.7
767.896	16.73
768.075	16.46
768.254	16.59
768.434	16.89
768.613	16.4
768.792	16.77
768.972	16.97
769.151	17.03
769.33	17.04
769.51	17.24
769.689	17.15
769.868	17.47
770.047	17.89
770.226	18.23
770.406	18.33
770.585	18.76
770.764	18.89
770.943	18.77
771.122	18.95
771.301	18.67
771.48	18.72
771.66	18.8
771.839	18.38
772.018	18.49
772.197	18.22
772.376	18.33
772.555	18.32
772.734	18.63
772.913	18.54
773.092	18.22
773.271	18.41
773.449	18.28
773.628	18.15
773.807	18.17
773.986	17.79
774.165	17.73
774.344	17.55
774.523	17.27
774.701	16.86
774.88	16.57
775.059	16.82
775.238	16.66
775.417	16.39
775.595	16.11
775.774	16.55
775.953	16.53
776.131	16.24
776.31	16.16
776.489	16.64
776.667	16.66
776.846	17.1
777.025	16.89
777.203	16.79
777.382	17.25
777.56	17.42
777.739	16.93
777.917	16.97
778.096	17.14
778.274	17.11
778.453	16.97
778.631	16.33
778.81	16.23
778.988	16.35
779.166	16.72
779.345	16.41
779.523	16.5
779.702	16.43
779.88	16.66
780.058	16.78
780.237	16.76
780.415	16.61
780.593	17.28
780.771	17.14
780.95	17.42
781.128	17.35
781.306	18
781.484	18.33
781.662	18.59
781.841	18.37
782.019	18.26
782.197	18.24
782.375	18.39
782.553	18.7
782.731	19.16
782.909	18.96
783.087	18.84
783.265	18.4
783.443	18.56
783.621	18.29
783.799	18.58
783.977	18.8
784.155	18.91
784.333	18.88
784.511	18.51
784.689	18.36
784.867	18.2
785.045	17.9
785.223	17.94
785.4	17.14
785.578	17.76
785.756	18.26
785.934	17.94
786.112	17.75
786.289	17.89
786.467	17.64
786.645	17.73
786.823	17.46
787	18.12
787.178	17.98
787.356	18.43
787.533	17.96
787.711	17.68
787.889	17.97
788.066	18.16
788.244	18.09
788.421	18.64
788.599	18.41
788.776	18.54
788.954	18.5
789.131	18.07
789.309	17.84
789.486	17.87
789.664	18.22
789.841	17.7
790.019	17.38
790.196	17.45
790.373	16.56
790.551	16.32
790.728	16.85
790.906	16.56
791.083	16.46
791.26	16.69
791.437	16.72
791.615	16.3
791.792	16.43
791.969	16.77
792.146	16.49
792.324	17.29
792.501	17.91
792.678	17.41
792.855	17.44
793.032	17.86
793.209	18.45
793.387	18.73
793.564	18.54
793.741	18.99
793.918	18.84
794.095	19.08
794.272	19.07
794.449	18.58
794.626	18.96
794.803	18.86
794.98	19.03
795.157	18.68
795.334	18.76
795.511	18.49
795.688	18.21
795.864	18.07
796.041	18.58
796.218	18.32
796.395	18.65
796.572	18.43
796.749	18.06
796.925	18.51
797.102	18.31
797.279	18
797.456	18.7
797.632	18.7
797.809	18.88
797.986	18.39
798.162	18.63
798.339	18.65
798.516	18.58
798.692	18.94
798.869	18.55
799.046	18.52
799.222	19.01
799.399	18.56
799.575	19.35
799.752	18.86
799.928	18.47
800.105	18.5
800.281	18.05
800.458	18.48
800.634	18.42
800.811	18.04
800.987	17.72
801.163	17.11
801.34	16.91
801.516	16.03
801.692	16.56
801.869	16.71
802.045	17.12
802.221	16.91
802.398	16.27
802.574	16.1
802.75	16.37
802.926	16.71
803.103	16.23
803.279	17.01
803.455	17.39
803.631	17.59
803.807	17.42
803.983	16.63
804.16	16.82
804.336	16.48
804.512	16.19
804.688	16.91
804.864	16.56
805.04	17.95
805.216	17.57
805.392	16.81
805.568	17.18
805.744	18.27
805.92	18.5
806.096	18.64
806.272	19.67
806.448	19.99
806.623	19.41
806.799	19.47
806.975	18.79
807.151	18.69
807.327	19.55
807.503	19.66
807.678	18.85
807.854	19.05
808.03	19.7
808.206	19.21
808.381	19.97
808.557	19.84
808.733	20.76
808.908	21
809.084	20.76
809.26	20.14
809.435	20.05
809.611	20.48
809.787	20.24
809.962	19.49
810.138	20.21
810.313	19.59
810.489	20.08
810.664	19.43
810.84	19.28
811.015	19.93
811.191	20.14
811.366	19.72
811.542	19.48
811.717	19.7
811.892	19.64
812.068	19.17
812.243	19.69
812.419	19.17
812.594	18.53
812.769	18.6
812.944	17.99
813.12	17.54
813.295	18.11
813.47	18.17
813.645	17.69
813.821	17.96
813.996	18.1
814.171	18.07
814.346	18.73
814.521	19.4
814.697	18.88
814.872	19.26
815.047	19.66
815.222	18.79
815.397	18.36
815.572	19.05
815.747	19.49
815.922	19.05
816.097	19.18
816.272	18.8
816.447	18.27
816.622	18.85
816.797	18.75
816.972	19.5
817.147	20.28
817.322	20.34
817.496	19.61
817.671	19.26
817.846	19.86
818.021	19.09
818.196	18.91
818.371	19.12
818.545	19.23
818.72	19.35
818.895	18.81
819.069	18.62
819.244	18.92
819.419	19.1
819.594	19.45
819.768	18.83
819.943	19.01
820.117	19.03
820.292	19.28
820.467	19.37
820.641	19.46
820.816	19.43
820.99	19.41
821.165	19.53
821.339	19.54
821.514	19.3
821.688	19.4
821.863	19.41
822.037	19.39
822.212	19.28
822.386	19.1
822.56	19.03
822.735	18.95
822.909	18.86
823.084	18.61
823.258	18.51
823.432	18.6
823.606	18.51
823.781	18.52
823.955	18.47
824.129	18.45
824.303	18.5
824.478	18.54
824.652	18.74
824.826	18.96
825	19.05
825.174	18.96
825.348	18.77
825.523	18.96
825.697	18.79
825.871	18.86
826.045	19.06
826.219	19.22
826.393	19.16
826.567	19.19
826.741	19.02
826.915	19.27
827.089	19.63
827.263	19.96
827.437	19.82
827.611	20.11
827.784	20.15
827.958	19.85
828.132	19.73
828.306	19.47
828.48	19.28
828.654	19.4
828.827	19.19
829.001	19.13
829.175	18.62
829.349	18.66
829.522	18.57
829.696	18.31
829.87	18.58
830.044	18.67
830.217	18.7
830.391	18.82
830.565	18.7
830.738	18.33
830.912	17.76
831.085	18.05
831.259	18.69
831.432	17.99
831.606	17.94
831.779	18.02
831.953	17.83
832.126	18.33
832.3	18.15
832.473	18.38
832.647	18.34
832.82	18.73
832.994	18.73
833.167	18.35
833.34	18.54
833.514	18.7
833.687	18.65
833.86	18.73
834.034	18.83
834.207	18.87
834.38	18.61
834.553	18.99
834.727	18.72
834.9	18.59
835.073	18.76
835.246	18.91
835.419	19.1
835.593	19.77
835.766	20.03
835.939	19.1
836.112	19.76
836.285	19.92
836.458	20.09
836.631	20.1
836.804	20.13
836.977	20.17
837.15	19.93
837.323	19.86
837.496	19.08
837.669	19.14
837.842	20.21
838.015	19.84
838.188	19.11
838.361	18.51
838.533	18.44
838.706	17.26
838.879	16.83
839.052	16.59
839.225	16.36
839.398	15.85
839.57	15.51
839.743	14.58
839.916	14.4
840.088	14.56
840.261	14.63
840.434	15.42
840.607	15.81
840.779	16.54
840.952	17.11
841.124	17.94
841.297	19.12
841.47	18.93
841.642	19.91
841.815	20.33
841.987	21.09
842.16	20.33
842.332	19.76
842.505	20.42
842.677	19.99
842.85	19.88
843.022	19.59
843.194	18.85
843.367	19.25
843.539	19.84
843.712	18.95
843.884	19.11
844.056	20.1
844.229	19.04
844.401	19.94
844.573	20.04
844.745	19.89
844.918	19.6
845.09	19.71
845.262	18.8
845.434	18.97
845.606	18.45
845.779	19.24
845.951	20.24
846.123	21.91
846.295	21.19
846.467	20.74
846.639	19.66
846.811	18.68
846.983	19.45
847.155	20.64
847.327	19.59
847.499	19.24
847.671	17.56
847.843	16.65
848.015	14.61
848.187	17.47
848.359	16.61
848.531	17.31
848.703	16.54
848.875	16.67
849.047	16.88
849.218	16.61
849.39	17.99
849.562	19.75
849.734	19.12
849.905	20.77
850.077	19.31
850.249	20.17
850.421	22.36
850.592	24.19
850.764	22.72
850.936	22.68
851.107	22.59
851.279	23.71
851.451	22.42
851.622	21.74
851.794	22.32
851.965	21.95
852.137	22.68
852.308	20.55
852.48	21.63
852.651	20.13
852.823	20.03
852.994	22.66
853.166	21.94
853.337	22.87
853.509	23.49
853.68	24.34
853.851	26.47
854.023	25.85
854.194	27
854.365	26.46
854.537	28.01
854.708	28.99
854.879	25.62
855.05	25.83
855.222	24.82
855.393	24.64
855.564	24.3
855.735	21.56
855.906	22.05
856.078	21.3
856.249	21.31
856.42	18.87
856.591	19.64
856.762	23.61
856.933	23.28
857.104	22.72
857.275	22.73
857.446	21.94
857.617	22.12
857.788	20.47
857.959	17.7
858.13	17.84
858.301	19.84
858.472	18.14
858.643	15.72
858.814	15.55
858.985	15.29
859.155	13.8
859.326	14.25
859.497	15.34
859.668	15.01
859.839	21.09
860.009	22.83
860.18	21.37
860.351	20.55
860.522	20.33
860.692	22.01
860.863	22.42
861.034	24.77
861.204	24.31
861.375	22.75
861.546	24.19
861.716	18.61
861.887	14
862.057	15.51
862.228	15.7
862.398	13.17
862.569	12.63
862.739	14.08
862.91	12.95
863.08	13.72
863.251	12.48
863.421	10.62
863.592	13.59
863.762	15.84
863.932	17.2
864.103	16.71
864.273	17.28
864.443	18.25
864.614	17.9
864.784	18.82
864.954	17.35
865.125	20.3
865.295	22.9
865.465	21.91
865.635	21.09
865.805	19.36
865.976	17.57
866.146	19.36
866.316	17.44
866.486	16.42
866.656	17.46
866.826	16.51
866.996	16.66
867.166	15.56
867.336	15.59
867.506	15.79
867.676	16.01
867.846	16.54
868.016	15.74
868.186	14.25
868.356	14.8
868.526	11.91
868.696	12.66
868.866	13.11
869.036	11.08
869.206	12.84
869.376	13.67
869.545	15.5
869.715	15.93
869.885	17.13
870.055	18.24
870.224	20.57
870.394	21.98
870.564	22.62
870.734	21.33
870.903	22.47
871.073	22.22
871.243	21.97
871.412	21.79
871.582	25.76
871.751	26.35
871.921	25.79
872.091	23.38
872.26	23.59
872.43	23.78
872.599	23.07
872.769	23.53
872.938	22.26
873.108	21.33
873.277	21.76
873.446	21.36
873.616	19.24
873.785	20.63
873.955	21.3
874.124	22.94
874.293	21.82
874.463	22.43
874.632	21.4
874.801	20.46
874.971	22.6
875.14	22.65
875.309	17.54
875.478	18.28
875.647	18.09
875.817	18.98
875.986	18.05
876.155	19
876.324	18.48
876.493	19.6
876.662	21.4
876.831	20.2
877	18.48
877.17	22.96
877.339	26.86
877.508	27.31
877.677	27
877.846	26.89
878.015	28.1
878.184	27.88
878.352	29.2
878.521	28.08
878.69	27.16
878.859	27.07
879.028	25.95
879.197	23.81
879.366	23.22
879.534	22.94
879.703	21.57
879.872	22.25
880.041	22.52
880.21	21.96
880.378	21.69
880.547	22.06
880.716	22.34
880.884	21.65
881.053	21.41
881.222	21.05
881.39	21.2
881.559	21.48
881.727	20.9
881.896	20.87
882.065	20.59
882.233	20.81
882.402	20.84
882.57	20.51
882.739	20.78
882.907	21
883.076	21.26
883.244	21.14
883.412	20.92
883.581	21.09
883.749	20.61
883.918	21.02
884.086	21.58
884.254	21.4
884.423	21.54
884.591	21.65
884.759	20.99
884.927	21.65
885.096	20.76
885.264	21.13
885.432	20.97
885.6	21.01
885.769	20.42
885.937	20.12
886.105	19.63
886.273	19.63
886.441	19.4
886.609	19.43
886.777	18.25
886.945	20.07
887.113	19.86
887.281	19.98
887.449	22.15
887.617	22.03
887.785	18.96
887.953	19.54
888.121	17.06
888.289	18.89
888.457	19.78
888.625	20.19
888.793	19.03
888.961	17.01
889.129	15.89
889.296	15.7
889.464	15.99
889.632	18.08
889.8	17.13
889.967	20.69
890.135	17.98
