Data from JASIL_3013_Reflection_01.txt Node
Date: Mon Nov 09 10:36:03 EST 2015
User: Geneva
Spectrometer: USB4E03002
Autoset integration time: false
Trigger mode: 4
Integration Time (sec): 1.000000E-1
Scans to average: 10
Electric dark correction enabled: false
Nonlinearity correction enabled: false
Boxcar width: 5
Stray light correction enabled: false
XAxis mode: Wavelengths
Stop averaging: false
Number of Pixels in Spectrum: 3648
>>>>>Begin Spectral Data<<<<<
177.575	37.67
177.794	53.82
178.014	86.49
178.233	102.66
178.452	95.17
178.672	89.47
178.891	60.87
179.11	275.61
179.33	1663.64
179.549	127.56
179.768	122.89
179.987	245.83
180.207	-470
180.426	-571.64
180.645	-51.56
180.864	-6.47
181.084	17.7
181.303	40.28
181.522	40.61
181.741	27.83
181.96	13.19
182.179	97.61
182.398	89.2
182.618	89.73
182.837	69.9
183.056	-170.53
183.275	216.3
183.494	-245.56
183.713	-1140
183.932	-400
184.151	-866.67
184.37	-60.73
184.589	-1944.44
184.808	196.97
185.027	40.91
185.246	7.77
185.465	-8.33
185.684	-82.66
185.903	-32.61
186.122	-45.4
186.341	-37.36
186.56	-114.83
186.779	-540.82
186.998	426.37
187.216	153.6
187.435	104.69
187.654	68.86
187.873	91.15
188.092	110.13
188.311	90.48
188.53	129.74
188.748	175.64
188.967	247.62
189.186	-268.82
189.405	-155.06
189.623	-335.51
189.842	-787.3
190.061	10740
190.28	617.02
190.498	515.24
190.717	253.33
190.936	250
191.154	183.67
191.373	244.72
191.592	348.95
191.81	204.37
192.029	255.56
192.248	141.99
192.466	165.93
192.685	120.2
192.904	830.43
193.122	-124.64
193.341	2300
193.559	-866.67
193.778	-90.91
193.996	-301.79
194.215	-122.34
194.433	67.89
194.652	75.32
194.87	91.28
195.089	105.2
195.307	182
195.526	152.47
195.744	173.17
195.963	328.68
196.181	-1108.51
196.399	-346.99
196.618	-384.67
196.836	-131.05
197.055	-134.58
197.273	-117.48
197.491	-111
197.71	-79.25
197.928	-52.44
198.146	-42.04
198.365	-79.81
198.583	-3777.78
198.801	116.81
199.019	55.21
199.238	55.34
199.456	35.51
199.674	-21.26
199.892	-163.89
200.111	-303
200.329	-862.5
200.547	5100
200.765	-915.58
200.983	643.71
201.202	489.88
201.42	334.82
201.638	219.89
201.856	578.52
202.074	643.43
202.292	966.67
202.51	800
202.728	11975
202.946	-246.21
203.165	2652.63
203.383	-776.92
203.601	-1668.18
203.819	494.19
204.037	572.5
204.255	187
204.473	409.02
204.691	447.06
204.909	-1076.19
205.127	178.79
205.345	229.41
205.562	-1.85
205.78	190
205.998	307.25
206.216	102.83
206.434	98.88
206.652	1085.71
206.87	361.02
207.088	120
207.306	-28.03
207.523	-144.7
207.741	-234.07
207.959	-84.23
208.177	-48.68
208.395	-50.45
208.612	-52.41
208.83	-29.66
209.048	-31.88
209.266	-219.12
209.483	-465.57
209.701	393.1
209.919	-8500
210.136	-100
210.354	741.67
210.572	-36.17
210.79	13.89
211.007	118.25
211.225	138.6
211.442	402.63
211.66	-1.64
211.878	114.47
212.095	-1533.96
212.313	-30000
212.53	-656.56
212.748	-317.06
212.966	-2141.46
213.183	-46750
213.401	-339.82
213.618	-221.04
213.836	-243.03
214.053	-262.91
214.271	-433.56
214.488	169.69
214.705	159.92
214.923	170.77
215.14	310.24
215.358	356.42
215.575	246.1
215.793	804.55
216.01	2008.33
216.227	727.78
216.445	-37.91
216.662	-124.49
216.879	10.94
217.097	11.74
217.314	-40.32
217.531	-125.86
217.749	4.65
217.966	21.54
218.183	61.18
218.4	74.89
218.618	122.38
218.835	96.76
219.052	99.09
219.269	107.46
219.487	114.19
219.704	136.19
219.921	90
220.138	194.44
220.355	235.03
220.572	11333.33
220.79	-279.63
221.007	-180.88
221.224	-92.71
221.441	19.46
221.658	155.92
221.875	110.45
222.092	83.58
222.309	110.47
222.526	95.66
222.743	75.8
222.96	75.37
223.177	45.88
223.394	42.12
223.611	61.58
223.828	60.7
224.045	54.75
224.262	55.03
224.479	50.45
224.696	47.95
224.913	44.28
225.13	35.74
225.347	45.82
225.564	51.59
225.781	40.81
225.997	39.79
226.214	37.45
226.431	37.42
226.648	36.09
226.865	37.82
227.082	32.73
227.298	28.66
227.515	24.37
227.732	12.98
227.949	11.5
228.165	16.06
228.382	16.82
228.599	16.09
228.816	9.86
229.032	4.44
229.249	2.23
229.466	9.76
229.682	16.05
229.899	18.44
230.116	26.44
230.332	37.02
230.549	24.21
230.765	13.95
230.982	19.2
231.199	31.11
231.415	33.17
231.632	31.41
231.848	22.3
232.065	19.59
232.281	11.44
232.498	11.04
232.714	11.62
232.931	17.26
233.147	20.16
233.364	17.47
233.58	14.26
233.797	10.24
234.013	6.21
234.23	1.49
234.446	3.08
234.662	18.49
234.879	14.48
235.095	11.57
235.312	9.78
235.528	7.42
235.744	12.65
235.961	19.42
236.177	20.64
236.393	17.28
236.61	11.88
236.826	8.95
237.042	9.96
237.258	18.33
237.475	18.74
237.691	21.67
237.907	26.19
238.123	30.71
238.339	23.4
238.556	25.35
238.772	29.5
238.988	33.36
239.204	40.18
239.42	29.75
239.636	22.71
239.853	20.4
240.069	17.99
240.285	14.45
240.501	12.28
240.717	13.49
240.933	13.43
241.149	13.99
241.365	11.8
241.581	9.4
241.797	9.27
242.013	14.67
242.229	15.43
242.445	14.46
242.661	12.8
242.877	9.88
243.093	0.38
243.309	-3.39
243.525	-10.66
243.741	2.07
243.957	3.24
244.173	9.1
244.388	7.51
244.604	9.37
244.82	10.14
245.036	12.83
245.252	13.73
245.468	15.71
245.683	15.91
245.899	15.66
246.115	12.65
246.331	12.38
246.547	12.04
246.762	11.23
246.978	9.94
247.194	10.96
247.409	10.41
247.625	7.79
247.841	6.73
248.057	9.92
248.272	11.33
248.488	13.23
248.703	12.91
248.919	12.54
249.135	11.84
249.35	14.28
249.566	18.66
249.782	12.81
249.997	13.63
250.213	18.98
250.428	13.36
250.644	15.92
250.859	15.5
251.075	17.44
251.29	19.48
251.506	27.49
251.721	25.4
251.937	21.36
252.152	26.53
252.368	31.68
252.583	29.2
252.798	39.48
253.014	40.56
253.229	41.27
253.445	40.05
253.66	35.84
253.875	27.95
254.091	23.26
254.306	29.4
254.521	32.67
254.737	29.51
254.952	32.04
255.167	29.81
255.383	26.04
255.598	21.55
255.813	19.76
256.028	17.59
256.244	16.22
256.459	21.4
256.674	15.84
256.889	12.56
257.104	12.7
257.32	10.56
257.535	4.26
257.75	5.66
257.965	7.48
258.18	8.06
258.395	8.7
258.61	7.51
258.826	6.09
259.041	5.97
259.256	4.59
259.471	3.4
259.686	2.01
259.901	5.7
260.116	3.15
260.331	4.25
260.546	2.25
260.761	1.31
260.976	1.85
261.191	2.81
261.406	0.71
261.621	3.78
261.836	5.99
262.05	9.36
262.265	9.37
262.48	12.24
262.695	9.2
262.91	13.39
263.125	10.53
263.34	10.76
263.555	10.31
263.769	13.41
263.984	15.25
264.199	14.05
264.414	9.97
264.629	5.9
264.843	6.35
265.058	5.88
265.273	3.61
265.488	7.05
265.702	5.54
265.917	4.13
266.132	7.62
266.346	7.04
266.561	9.82
266.776	10.97
266.99	10.52
267.205	11.76
267.42	10.06
267.634	10.32
267.849	10.23
268.063	11.19
268.278	14.17
268.492	13.67
268.707	11.55
268.922	9.24
269.136	9.9
269.351	9.17
269.565	5.48
269.78	3.74
269.994	4.44
270.209	4.3
270.423	3.64
270.637	2.95
270.852	2.86
271.066	4.58
271.281	4.44
271.495	4.84
271.709	5.05
271.924	6.15
272.138	7.36
272.353	4.81
272.567	3.59
272.781	3.96
272.996	1.01
273.21	-1.42
273.424	0.62
273.638	1.23
273.853	-0.35
274.067	2.58
274.281	3.17
274.495	5.57
274.71	6.99
274.924	8.01
275.138	10.58
275.352	12.84
275.566	12.1
275.781	9.43
275.995	10.34
276.209	11.51
276.423	9.39
276.637	8.74
276.851	8.55
277.065	9.65
277.279	7.84
277.493	6.51
277.707	3
277.921	5.26
278.135	4.28
278.349	4.07
278.563	3.62
278.777	2.75
278.991	3.46
279.205	3.17
279.419	1.25
279.633	4.42
279.847	4.58
280.061	5.31
280.275	2.56
280.489	3.49
280.703	-0.55
280.917	0.42
281.131	0.43
281.344	-0.05
281.558	0.87
281.772	1.71
281.986	0.6
282.2	-1.85
282.414	-0.09
282.627	2.04
282.841	0.26
283.055	3.87
283.269	1.42
283.482	1.91
283.696	3.03
283.91	2.69
284.123	2.88
284.337	1.42
284.551	2.86
284.764	3.95
284.978	2.61
285.192	4.65
285.405	3.21
285.619	5.87
285.833	6.7
286.046	5.38
286.26	3.99
286.473	5.69
286.687	6.41
286.9	9.02
287.114	6.05
287.327	8.09
287.541	6.56
287.754	7.56
287.968	8.31
288.181	7.71
288.395	7.53
288.608	8.68
288.822	4.6
289.035	6.66
289.248	2.83
289.462	4.83
289.675	3.61
289.889	4.54
290.102	2.21
290.315	0.91
290.529	0.78
290.742	2.99
290.955	3.55
291.169	5.29
291.382	6.14
291.595	7.94
291.808	7.26
292.022	6.81
292.235	6.16
292.448	8.63
292.661	7.85
292.875	7.73
293.088	5.39
293.301	5.13
293.514	5.36
293.727	3.23
293.94	1.88
294.153	2.06
294.367	2.37
294.58	1.84
294.793	2.94
295.006	2.51
295.219	3.05
295.432	3.95
295.645	3.16
295.858	4.2
296.071	2.76
296.284	2.47
296.497	2.85
296.71	2.31
296.923	2.43
297.136	-0.02
297.349	0.76
297.562	-0.88
297.775	-0.07
297.988	0.99
298.201	-0.56
298.414	-0.17
298.626	2.31
298.839	2.54
299.052	5.69
299.265	4.62
299.478	5.24
299.691	6.33
299.903	6.9
300.116	6.38
300.329	5.41
300.542	8.53
300.755	9.81
300.967	10.14
301.18	8.14
301.393	4.95
301.605	7.34
301.818	9.1
302.031	5.38
302.243	8.03
302.456	5.63
302.669	2.99
302.881	0.86
303.094	0.41
303.307	-0.54
303.519	-0.69
303.732	-1.95
303.944	-2.8
304.157	-1.61
304.37	0.68
304.582	-1.72
304.795	-1.82
305.007	0.33
305.22	-0.51
305.432	1.31
305.645	3.98
305.857	2.85
306.069	4.79
306.282	6.08
306.494	4.83
306.707	4.76
306.919	5.07
307.132	5.9
307.344	5.21
307.556	7.12
307.769	5.14
307.981	3.32
308.193	5.95
308.406	6.61
308.618	4
308.83	3.02
309.043	1.41
309.255	4.49
309.467	5.86
309.679	6.89
309.892	5.92
310.104	8.12
310.316	9.3
310.528	6.87
310.74	6.69
310.953	9.93
311.165	9.75
311.377	12.06
311.589	9.28
311.801	9.84
312.013	9.53
312.225	9.08
312.437	8.36
312.649	6.17
312.862	9.7
313.074	9.25
313.286	8.14
313.498	11.8
313.71	13.48
313.922	14.5
314.134	11.42
314.346	11.98
314.558	11.76
314.77	10.89
314.982	11.36
315.193	12.2
315.405	12.92
315.617	13.27
315.829	12.53
316.041	11.36
316.253	10.84
316.465	11.9
316.677	12.53
316.888	13.37
317.1	14.31
317.312	15.21
317.524	14.13
317.736	13.42
317.947	11.29
318.159	12.36
318.371	12.38
318.583	14.6
318.794	15.85
319.006	16.75
319.218	16.35
319.43	16.14
319.641	17.58
319.853	18.61
320.064	17.66
320.276	21.22
320.488	21.13
320.699	21.76
320.911	20.7
321.123	22.66
321.334	22.52
321.546	23.01
321.757	24.12
321.969	21.88
322.18	19.32
322.392	19.66
322.603	16.54
322.815	12.18
323.026	10.1
323.238	11.29
323.449	8.05
323.661	8.87
323.872	7.52
324.083	5.83
324.295	6.44
324.506	8.02
324.718	10.38
324.929	9.19
325.14	12.49
325.352	12.55
325.563	10.88
325.774	13.43
325.986	14.54
326.197	14.46
326.408	17.01
326.62	16
326.831	14.97
327.042	15.93
327.253	17.6
327.464	17.44
327.676	17.76
327.887	18.97
328.098	18.38
328.309	15.14
328.52	18.3
328.732	18.12
328.943	18.05
329.154	20.1
329.365	18.15
329.576	19.45
329.787	17.58
329.998	17.87
330.209	15.98
330.42	16.16
330.631	17.21
330.842	13.02
331.053	13.79
331.264	13.47
331.475	11.13
331.686	12.39
331.897	13.54
332.108	11.07
332.319	13.4
332.53	13.22
332.741	13.94
332.952	14.07
333.163	14.98
333.374	13.61
333.585	15.85
333.795	17.43
334.006	16.96
334.217	15.79
334.428	18.14
334.639	15.01
334.849	16.66
335.06	14.64
335.271	18
335.482	19.52
335.692	19.08
335.903	18.35
336.114	17.55
336.325	18.09
336.535	20.33
336.746	22.18
336.957	22.21
337.167	22.54
337.378	23.91
337.589	19.84
337.799	19.05
338.01	18.33
338.22	19.34
338.431	19.3
338.642	15.52
338.852	11.23
339.063	9.94
339.273	11.57
339.484	9.11
339.694	6.41
339.905	7.23
340.115	8.79
340.326	9.32
340.536	7.92
340.746	8.42
340.957	11.13
341.167	13.78
341.378	13.85
341.588	14.08
341.799	14.76
342.009	18.87
342.219	19.54
342.43	19.96
342.64	20.69
342.85	20.93
343.061	20.4
343.271	19.57
343.481	17.77
343.691	15.96
343.902	14.24
344.112	14.57
344.322	11.79
344.532	13.42
344.743	11.52
344.953	11.21
345.163	12.86
345.373	12.77
345.583	12.61
345.793	13.49
346.004	14.31
346.214	15.21
346.424	17.14
346.634	17.98
346.844	17.44
347.054	17.87
347.264	16.07
347.474	13.97
347.684	14.23
347.894	13.69
348.104	15.2
348.314	17.15
348.524	16.84
348.734	16.35
348.944	17.7
349.154	17.58
349.364	19.15
349.574	20.99
349.784	21.03
349.994	21.25
350.204	23.35
350.413	21.84
350.623	19.17
350.833	18.51
351.043	16.93
351.253	15.75
351.463	14.52
351.672	13.25
351.882	13.75
352.092	14.13
352.302	16.11
352.511	15.84
352.721	15.25
352.931	16.48
353.141	17.3
353.35	17.37
353.56	18.4
353.77	19.55
353.979	18.05
354.189	18.36
354.399	19.56
354.608	18.84
354.818	17.28
355.027	16.9
355.237	15.23
355.447	16.86
355.656	15.67
355.866	15.72
356.075	15.13
356.285	16.46
356.494	15.86
356.704	14.88
356.913	13.29
357.123	13.25
357.332	14.16
357.542	16.21
357.751	15.08
357.96	17.51
358.17	17.8
358.379	16.31
358.589	16.12
358.798	14.58
359.007	15.66
359.217	17.37
359.426	18.86
359.635	18.28
359.845	16.57
360.054	15.95
360.263	15.06
360.472	14.47
360.682	15.76
360.891	15.68
361.1	16.95
361.309	15.94
361.519	14.3
361.728	14.26
361.937	14.43
362.146	14.62
362.355	15.09
362.564	16.19
362.774	16.62
362.983	15.78
363.192	15.96
363.401	14.88
363.61	15.03
363.819	15.89
364.028	13.45
364.237	12.46
364.446	12.82
364.655	11.94
364.864	10.88
365.073	10.32
365.282	9.49
365.491	10.47
365.7	13.16
365.909	12.49
366.118	13.02
366.327	16.04
366.536	17.7
366.745	18.4
366.954	18.91
367.162	18.38
367.371	18.55
367.58	19.41
367.789	17.63
367.998	15.54
368.207	16.78
368.415	16.29
368.624	13.88
368.833	12.91
369.042	12.21
369.25	11.94
369.459	13.46
369.668	12.29
369.877	11.31
370.085	11.78
370.294	12.47
370.503	11.52
370.711	9.9
370.92	10.41
371.129	9.99
371.337	11.08
371.546	11.72
371.754	10.72
371.963	10.67
372.171	12.16
372.38	11.31
372.589	10.4
372.797	10.12
373.006	11.86
373.214	12.42
373.423	12.47
373.631	13.62
373.84	13.56
374.048	13.5
374.256	13.83
374.465	14.17
374.673	14.66
374.882	15.2
375.09	15.68
375.298	13.76
375.507	13.76
375.715	13.76
375.923	12.31
376.132	12.42
376.34	13.17
376.548	12.79
376.757	12.23
376.965	13.72
377.173	12.44
377.381	13.32
377.59	15.13
377.798	14.63
378.006	15.4
378.214	15.19
378.423	15.02
378.631	13.59
378.839	13.02
379.047	12.5
379.255	12.85
379.463	13.15
379.671	13.11
379.879	13.77
380.088	14.17
380.296	14.62
380.504	15
380.712	14.57
380.92	14.51
381.128	15.37
381.336	14.56
381.544	12.9
381.752	14.46
381.96	13.43
382.168	12.35
382.376	13.18
382.584	12.55
382.791	12.53
382.999	11.96
383.207	13.23
383.415	12.65
383.623	13.23
383.831	12.5
384.039	13.4
384.247	13.56
384.454	12.8
384.662	12.03
384.87	11.77
385.078	12.66
385.285	13.17
385.493	13.8
385.701	13.99
385.909	15.57
386.116	16.04
386.324	13.33
386.532	13.21
386.739	13.92
386.947	14.81
387.155	15.32
387.362	14.16
387.57	13.78
387.778	12.62
387.985	12.79
388.193	11.52
388.4	12.68
388.608	14.33
388.816	14.09
389.023	14.14
389.231	13.5
389.438	12.4
389.646	10.96
389.853	11.45
390.061	10.75
390.268	10.95
390.475	11.05
390.683	9.82
390.89	7.38
391.098	7.45
391.305	8.33
391.512	8.99
391.72	9.56
391.927	10.65
392.135	10.57
392.342	11.25
392.549	11.2
392.756	11.28
392.964	12.25
393.171	14.73
393.378	14.77
393.586	14.02
393.793	12.81
394	13.24
394.207	13.74
394.414	14.1
394.622	13.36
394.829	12.62
395.036	13.66
395.243	13.71
395.45	12.42
395.657	12.36
395.864	11.4
396.072	10.21
396.279	8.42
396.486	8.4
396.693	8.38
396.9	9.31
397.107	11.23
397.314	10.48
397.521	9.62
397.728	10.84
397.935	11.42
398.142	12.63
398.349	12.87
398.556	14.06
398.763	12.26
398.97	11.44
399.177	11.4
399.383	11.3
399.59	11.39
399.797	11.37
400.004	10.58
400.211	10.89
400.418	10
400.625	10.58
400.831	10.31
401.038	12.68
401.245	14.54
401.452	13.73
401.658	11.75
401.865	11.49
402.072	11.88
402.279	12.19
402.485	11.06
402.692	11.59
402.899	11.99
403.105	12.45
403.312	11.5
403.519	11.26
403.725	12.18
403.932	13.07
404.138	13.47
404.345	12.93
404.552	12.12
404.758	12.44
404.965	11
405.171	10.32
405.378	10.17
405.584	10.67
405.791	9.2
405.997	9.14
406.204	9.58
406.41	9.23
406.617	9.73
406.823	11.05
407.029	11.75
407.236	12.83
407.442	13.01
407.649	12.18
407.855	11.37
408.061	11.83
408.268	11.32
408.474	10.53
408.68	10.21
408.887	10.21
409.093	10.33
409.299	9.31
409.505	9.2
409.712	9.97
409.918	11.12
410.124	12.26
410.33	11.8
410.537	11.5
410.743	10.98
410.949	11.46
411.155	11.99
411.361	11.72
411.567	12.44
411.773	12.66
411.98	12.76
412.186	11.95
412.392	11.24
412.598	11.96
412.804	11.95
413.01	13.45
413.216	12.42
413.422	12.46
413.628	11.8
413.834	11.03
414.04	10.97
414.246	10.24
414.452	10.55
414.658	10.79
414.864	10.69
415.07	10.3
415.275	9.15
415.481	9.82
415.687	9.6
415.893	9.44
416.099	10.29
416.305	9.82
416.511	9.86
416.716	9.88
416.922	9.54
417.128	9.09
417.334	9.69
417.539	9.32
417.745	9.3
417.951	8.84
418.157	9.12
418.362	8.75
418.568	9.24
418.774	9.49
418.979	9.18
419.185	9.6
419.391	9.44
419.596	9.26
419.802	9.55
420.008	8.95
420.213	4.9
420.419	4.53
420.624	4.42
420.83	4.19
421.035	3.92
421.241	4.59
421.446	4.17
421.652	4.31
421.857	4.12
422.063	4.1
422.268	4.56
422.474	8.49
422.679	8.51
422.885	9
423.09	9.07
423.295	9.1
423.501	8.99
423.706	9.42
423.911	9.61
424.117	9.54
424.322	9.49
424.527	9.95
424.733	10.39
424.938	10.51
425.143	9.99
425.349	10.09
425.554	9.84
425.759	9.49
425.964	9.32
426.169	9.64
426.375	9.7
426.58	10.36
426.785	10.01
426.99	9.74
427.195	10.09
427.4	10.14
427.605	9.72
427.811	9.94
428.016	9.46
428.221	8.56
428.426	7.84
428.631	8.22
428.836	7.62
429.041	7.29
429.246	7.43
429.451	7.65
429.656	7.46
429.861	7.55
430.066	7.5
430.271	7.66
430.476	8.61
430.681	8.97
430.886	8.53
431.09	8.54
431.295	8.55
431.5	8.43
431.705	8.12
431.91	7.87
432.115	8.08
432.32	8.19
432.524	8.86
432.729	7.94
432.934	7.85
433.139	8.56
433.343	8.23
433.548	8.49
433.753	8.56
433.958	8.57
434.162	8.34
434.367	8.83
434.572	8.43
434.776	8.07
434.981	8.81
435.186	8.83
435.39	8.19
435.595	8.8
435.799	8.51
436.004	8.46
436.209	8.26
436.413	8.26
436.618	7.6
436.822	8.55
437.027	8.3
437.231	8.56
437.436	8.87
437.64	9.18
437.845	9.39
438.049	9.43
438.253	9.02
438.458	9.32
438.662	9.74
438.867	9.5
439.071	9.03
439.275	8.91
439.48	8.39
439.684	7.76
439.888	7.81
440.093	7.42
440.297	7.14
440.501	7.2
440.706	7.21
440.91	7.71
441.114	7.75
441.318	8
441.523	7.68
441.727	7.4
441.931	7.96
442.135	7.77
442.339	8.18
442.543	8.57
442.748	9.27
442.952	9.04
443.156	8.32
443.36	8.74
443.564	8.46
443.768	9.25
443.972	9.69
444.176	9.27
444.38	9.54
444.584	9.88
444.788	9.74
444.992	9.32
445.196	9.13
445.4	9.28
445.604	8.89
445.808	8.92
446.012	8.84
446.216	8.81
446.42	8.79
446.624	8.11
446.828	7.39
447.032	7.46
447.235	7.33
447.439	6.59
447.643	6.83
447.847	6.68
448.051	6.9
448.254	5.7
448.458	5.31
448.662	5.91
448.866	6.38
449.069	6.25
449.273	5.88
449.477	6.1
449.681	7.4
449.884	7.53
450.088	8.26
450.292	8.25
450.495	9.82
450.699	10.07
450.902	10.21
451.106	10.13
451.31	10.49
451.513	10.77
451.717	10.89
451.92	10.54
452.124	10.34
452.327	10.32
452.531	10.22
452.734	9.63
452.938	9.81
453.141	8.78
453.345	8.83
453.548	8.88
453.752	9.09
453.955	9.45
454.158	9.2
454.362	8.66
454.565	8.7
454.769	8.36
454.972	8.66
455.175	8.12
455.379	8.69
455.582	8.79
455.785	9.1
455.988	8.7
456.192	8.29
456.395	8.94
456.598	9.56
456.801	8.58
457.005	9.22
457.208	8.47
457.411	8.94
457.614	8.94
457.817	8.78
458.021	8.4
458.224	8.44
458.427	8.6
458.63	8.28
458.833	7.87
459.036	8.05
459.239	7.54
459.442	7.94
459.645	7.53
459.848	8.12
460.051	8.06
460.254	7.97
460.457	7.77
460.66	7.44
460.863	7.74
461.066	7.57
461.269	7.96
461.472	7.63
461.675	7.78
461.878	8.17
462.081	7.32
462.284	7.26
462.486	7.47
462.689	7.23
462.892	7.11
463.095	7.29
463.298	7.99
463.5	8.07
463.703	8.84
463.906	8.47
464.109	8.2
464.311	8.09
464.514	7.95
464.717	7.62
464.92	8.22
465.122	8.26
465.325	8.02
465.528	8.43
465.73	8.41
465.933	8.51
466.135	8.28
466.338	8.27
466.541	8.17
466.743	8.01
466.946	8.29
467.148	8.33
467.351	8.92
467.553	8.47
467.756	7.65
467.958	7.19
468.161	6.85
468.363	7.75
468.566	8.01
468.768	8.75
468.971	8.96
469.173	8.83
469.375	8.53
469.578	8.21
469.78	8.13
469.983	8.26
470.185	9.62
470.387	9.56
470.59	9.45
470.792	8.89
470.994	8.46
471.196	8.31
471.399	9.4
471.601	9.23
471.803	8.99
472.005	9.4
472.208	9.27
472.41	8.29
472.612	8.73
472.814	8.29
473.016	8.9
473.218	9.08
473.421	9.29
473.623	8.12
473.825	8.62
474.027	9.43
474.229	9.27
474.431	9.11
474.633	8.96
474.835	8.13
475.037	8.1
475.239	8.15
475.441	7.76
475.643	7.25
475.845	7.41
476.047	7.24
476.249	6.85
476.451	6.53
476.653	7.44
476.855	7.62
477.057	8.02
477.258	7.9
477.46	7.93
477.662	7.9
477.864	8.43
478.066	8.64
478.268	8.64
478.469	8.28
478.671	8.34
478.873	7.77
479.075	7.96
479.276	8.37
479.478	8.15
479.68	8.25
479.882	8.31
480.083	8.14
480.285	8.19
480.487	8.06
480.688	8.27
480.89	8.36
481.091	8.02
481.293	7.91
481.495	7.79
481.696	7.81
481.898	7.84
482.099	7.78
482.301	7.82
482.502	7.82
482.704	7.78
482.905	7.82
483.107	7.85
483.308	8.04
483.51	7.99
483.711	7.96
483.913	8.07
484.114	7.81
484.315	7.79
484.517	7.86
484.718	7.65
484.92	8.01
485.121	7.96
485.322	8.12
485.524	8.04
485.725	8.18
485.926	8.12
486.127	8.15
486.329	8.24
486.53	8.17
486.731	8.35
486.932	8.58
487.134	8.35
487.335	8.33
487.536	8.41
487.737	8.45
487.938	8.39
488.139	8.52
488.341	8.47
488.542	8.41
488.743	8.46
488.944	8.28
489.145	7.94
489.346	8.12
489.547	7.98
489.748	7.82
489.949	7.74
490.15	7.7
490.351	7.67
490.552	7.65
490.753	7.6
490.954	7.74
491.155	7.66
491.356	7.76
491.557	7.79
491.758	7.92
491.959	8.05
492.159	8.05
492.36	8.07
492.561	7.95
492.762	8.03
492.963	8.48
493.164	8.38
493.364	8.34
493.565	8.41
493.766	8.08
493.967	8.18
494.167	8.21
494.368	8.24
494.569	8.12
494.769	8.28
494.97	8.06
495.171	8.23
495.371	8.82
495.572	8.83
495.773	9.04
495.973	9.11
496.174	9.38
496.375	8.78
496.575	8.64
496.776	9.16
496.976	8.68
497.177	9.15
497.377	8.58
497.578	7.51
497.778	7.8
497.979	7.61
498.179	7.49
498.38	7.18
498.58	7.42
498.78	7.34
498.981	6.99
499.181	7.47
499.382	7.47
499.582	7.96
499.782	8.68
499.983	8.44
500.183	8.06
500.383	8.23
500.584	8.22
500.784	8.68
500.984	8.91
501.184	8.37
501.385	8.4
501.585	8.58
501.785	8.1
501.985	8.17
502.185	8.33
502.386	9.22
502.586	9.32
502.786	9.09
502.986	8.86
503.186	9.22
503.386	9.48
503.586	9.27
503.786	8.89
503.987	9.13
504.187	8.76
504.387	8.59
504.587	8.23
504.787	8.64
504.987	8.76
505.187	9.24
505.387	8.86
505.587	9.17
505.786	9.39
505.986	9.43
506.186	9.59
506.386	9.84
506.586	10.06
506.786	10.01
506.986	9.29
507.186	9.6
507.386	9.84
507.585	10.45
507.785	10.45
507.985	10.67
508.185	11.07
508.384	10.95
508.584	11.55
508.784	11.53
508.984	11.76
509.183	11.9
509.383	11.57
509.583	11.35
509.782	11.19
509.982	10.98
510.182	10.82
510.381	10.32
510.581	10.25
510.781	9.63
510.98	9.84
511.18	9.97
511.379	9.95
511.579	10.29
511.778	10.03
511.978	10.36
512.177	10.58
512.377	10.35
512.576	11.13
512.776	11.44
512.975	12.12
513.175	12.01
513.374	11.81
513.573	11.85
513.773	11.62
513.972	11.52
514.172	11.21
514.371	11.64
514.57	11.9
514.77	11.64
514.969	11.87
515.168	11.23
515.367	11.27
515.567	11
515.766	11.17
515.965	11.73
516.164	11.92
516.364	11.96
516.563	11.59
516.762	11.77
516.961	11.35
517.16	10.98
517.359	11.12
517.559	11.03
517.758	11.21
517.957	11.29
518.156	11.5
518.355	11.88
518.554	11.7
518.753	11.84
518.952	11.5
519.151	11.69
519.35	11.8
519.549	12.21
519.748	12.67
519.947	12.9
520.146	12.96
520.345	12.83
520.544	12.4
520.743	13
520.942	12.87
521.141	14.02
521.339	14.01
521.538	14.17
521.737	14.56
521.936	14.07
522.135	14.22
522.333	14.47
522.532	13.93
522.731	13.95
522.93	13.22
523.129	13.38
523.327	12.87
523.526	13.45
523.725	13.44
523.923	12.89
524.122	13.46
524.321	13.25
524.519	13.04
524.718	13.29
524.917	13.32
525.115	13.95
525.314	13.9
525.512	13.65
525.711	13.51
525.909	13.46
526.108	13.44
526.306	13.35
526.505	13.53
526.703	13.66
526.902	13.49
527.1	13.63
527.299	13.47
527.497	13.59
527.696	14
527.894	13.94
528.092	14.02
528.291	14.17
528.489	14.21
528.688	14.13
528.886	14.25
529.084	14.49
529.283	14.36
529.481	14.78
529.679	14.93
529.877	14.66
530.076	15.11
530.274	15.32
530.472	15.27
530.67	15.24
530.869	15.27
531.067	15.18
531.265	15.41
531.463	15.68
531.661	15.59
531.859	15.72
532.057	15.83
532.255	15.79
532.454	15.77
532.652	15.82
532.85	16.06
533.048	16.25
533.246	16.42
533.444	16.51
533.642	16.39
533.84	16.41
534.038	16.32
534.236	16.05
534.434	16.05
534.632	16.21
534.83	16.66
535.027	16.63
535.225	16.82
535.423	16.78
535.621	16.7
535.819	16.89
536.017	16.62
536.215	16.8
536.412	17.2
536.61	17.05
536.808	17.36
537.006	16.88
537.203	16.82
537.401	16.58
537.599	16.88
537.797	16.85
537.994	16.82
538.192	17.15
538.39	17.15
538.587	17.32
538.785	17.5
538.983	17.23
539.18	17.48
539.378	17.62
539.575	17.89
539.773	17.38
539.97	17.26
540.168	17.59
540.366	17.51
540.563	17.4
540.761	17.47
540.958	17.39
541.155	17.47
541.353	17.74
541.55	17.57
541.748	17.45
541.945	18.28
542.143	18.36
542.34	18.46
542.537	18.53
542.735	18.73
542.932	18.71
543.129	18.88
543.327	19.15
543.524	19.44
543.721	19.57
543.919	20.04
544.116	19.65
544.313	20.18
544.51	20.17
544.708	20.77
544.905	20.66
545.102	20.73
545.299	20.61
545.496	20.1
545.693	19.38
545.891	19.33
546.088	19.29
546.285	19.11
546.482	18.9
546.679	18.36
546.876	18.19
547.073	18.57
547.27	18.71
547.467	18.45
547.664	18.9
547.861	18.92
548.058	19.36
548.255	19.08
548.452	19.1
548.649	19.5
548.846	19.85
549.043	19.31
549.24	18.79
549.437	19.14
549.633	19.58
549.83	19.46
550.027	19.88
550.224	20.12
550.421	20.45
550.618	20.76
550.814	20.78
551.011	20.78
551.208	20.64
551.405	21.18
551.601	20.24
551.798	21.26
551.995	21.2
552.191	21.37
552.388	21.15
552.585	20.8
552.781	21.2
552.978	20.79
553.175	21.06
553.371	21.43
553.568	21.3
553.764	21.72
553.961	20.9
554.157	20.97
554.354	21.61
554.55	21.81
554.747	22.16
554.943	21.57
555.14	21.66
555.336	22.33
555.533	22.59
555.729	22.63
555.926	22.51
556.122	22.85
556.318	23.1
556.515	22.63
556.711	23.06
556.907	22.91
557.104	22.98
557.3	23.83
557.496	23.24
557.693	23.59
557.889	23.71
558.085	24.38
558.281	23.69
558.478	23.92
558.674	23.99
558.87	23.71
559.066	23.82
559.262	24.01
559.459	23.68
559.655	23.42
559.851	22.44
560.047	22.89
560.243	22.4
560.439	22.88
560.635	22.99
560.831	23.27
561.027	23.01
561.223	22.74
561.419	22.92
561.615	22.96
561.811	22.64
562.007	23.21
562.203	22.42
562.399	22.44
562.595	22.63
562.791	22.98
562.987	21.74
563.183	22.09
563.379	22.09
563.575	21.97
563.771	22.24
563.966	22.45
564.162	22.21
564.358	22.27
564.554	22.45
564.75	22.34
564.945	21.9
565.141	22.68
565.337	22.68
565.533	23.34
565.728	23.53
565.924	22.93
566.12	23.16
566.315	23.43
566.511	24.25
566.707	24.53
566.902	24.77
567.098	24.9
567.293	24.67
567.489	24.15
567.684	24.34
567.88	24.68
568.076	24.56
568.271	24.36
568.467	23.95
568.662	23.01
568.858	22.85
569.053	22.63
569.248	23.02
569.444	23.14
569.639	23.72
569.835	23
570.03	22.09
570.225	22.37
570.421	22.85
570.616	22.94
570.812	23
571.007	22.85
571.202	22.91
571.397	22.75
571.593	23.12
571.788	22.94
571.983	22.55
572.178	23.53
572.374	23.35
572.569	23.41
572.764	24
572.959	23.97
573.154	24.04
573.35	23.91
573.545	23.4
573.74	23.6
573.935	24.09
574.13	24.74
574.325	24.23
574.52	24.53
574.715	24.37
574.91	24.72
575.105	24.93
575.3	25.09
575.495	25.41
575.69	25.66
575.885	25.14
576.08	24.62
576.275	24.61
576.47	24.23
576.665	24.33
576.86	24.49
577.055	23.66
577.25	23.54
577.444	23.88
577.639	23.55
577.834	23.91
578.029	24.53
578.224	24.17
578.418	24.92
578.613	24.84
578.808	24.64
579.003	24.78
579.197	25.77
579.392	26.1
579.587	26.03
579.781	26.44
579.976	26.45
580.171	25.76
580.365	25.65
580.56	25.25
580.755	26.1
580.949	26.68
581.144	26.24
581.338	24.93
581.533	25.32
581.727	25.45
581.922	25.34
582.116	24.82
582.311	25.29
582.505	25.92
582.7	25.87
582.894	25.98
583.089	26.24
583.283	26.08
583.478	26.79
583.672	26.42
583.866	25.6
584.061	26.22
584.255	26.43
584.449	26.2
584.644	26.92
584.838	27.14
585.032	27.15
585.226	27.52
585.421	28.07
585.615	28
585.809	28.62
586.003	29.45
586.198	28.59
586.392	28.42
586.586	27.86
586.78	27.03
586.974	26.81
587.168	27.04
587.363	25.86
587.557	26.03
587.751	25.64
587.945	24.98
588.139	24.63
588.333	24.78
588.527	24.84
588.721	24.81
588.915	25.29
589.109	25.51
589.303	25.37
589.497	25.8
589.691	25.39
589.885	25.05
590.079	25.81
590.273	25.72
590.466	26.14
590.66	26.55
590.854	27.47
591.048	27.63
591.242	28.1
591.436	27.39
591.629	27.16
591.823	27.13
592.017	28.24
592.211	27.48
592.404	27.2
592.598	27.17
592.792	27.08
592.986	26.32
593.179	26.24
593.373	25.11
593.567	25.87
593.76	25.95
593.954	26.16
594.147	25.39
594.341	25.19
594.535	25.24
594.728	24.52
594.922	24.4
595.115	25.46
595.309	25.2
595.502	25.07
595.696	24.97
595.889	25.5
596.083	25.07
596.276	25.13
596.47	25.89
596.663	26.15
596.856	27.01
597.05	27.64
597.243	27.36
597.437	27.9
597.63	28.32
597.823	27.91
598.017	27.82
598.21	29.07
598.403	29.69
598.596	29.58
598.79	30.52
598.983	30.45
599.176	29.77
599.369	29.64
599.563	29.59
599.756	29.93
599.949	29.82
600.142	29.57
600.335	28.22
600.528	27.91
600.722	28.26
600.915	27.32
601.108	26.71
601.301	26.92
601.494	26.44
601.687	26.17
601.88	25.87
602.073	26.38
602.266	25.99
602.459	25.75
602.652	25.97
602.845	25.68
603.038	25.7
603.231	26.16
603.424	25.92
603.617	26.06
603.809	25.77
604.002	25.64
604.195	25.35
604.388	25.78
604.581	26.9
604.774	26.68
604.966	26.22
605.159	26.48
605.352	26.14
605.545	26
605.737	26.36
605.93	26.33
606.123	27.19
606.316	27.96
606.508	27.32
606.701	26.92
606.894	28.27
607.086	28.15
607.279	28.11
607.471	28.58
607.664	28.98
607.857	28.31
608.049	28.63
608.242	27.67
608.434	27.62
608.627	27.83
608.819	27.57
609.012	27.33
609.204	26.78
609.397	26.16
609.589	25.93
609.782	25.88
609.974	26.68
610.166	26.89
610.359	27.57
610.551	27.27
610.743	27.63
610.936	27.54
611.128	26.2
611.32	27.72
611.513	28.06
611.705	28.45
611.897	28.21
612.09	27.76
612.282	27.43
612.474	27.76
612.666	28.23
612.858	28.42
613.051	29.35
613.243	29.61
613.435	29.59
613.627	30.5
613.819	29.78
614.011	29.91
614.203	30.02
614.395	29.65
614.588	29.57
614.78	29.4
614.972	29.3
615.164	29.4
615.356	30.02
615.548	30.12
615.74	29.33
615.932	30.1
616.124	30.54
616.315	30.47
616.507	30.76
616.699	30.51
616.891	30.2
617.083	29.91
617.275	29.57
617.467	28.96
617.659	28.83
617.85	29.47
618.042	29.21
618.234	28.6
618.426	27.84
618.618	28.66
618.809	29.04
619.001	29.71
619.193	29.89
619.384	29.99
619.576	29.72
619.768	30.06
619.959	29.47
620.151	29.54
620.343	30.05
620.534	31.1
620.726	31.28
620.917	30.96
621.109	30.62
621.301	30.03
621.492	29.35
621.684	30.59
621.875	30.82
622.067	30.91
622.258	30.47
622.45	31.23
622.641	31.25
622.832	30.54
623.024	31.1
623.215	30.95
623.407	31.74
623.598	32.34
623.789	31.88
623.981	30.71
624.172	31.37
624.363	31.44
624.555	30.05
624.746	29.61
624.937	29.92
625.129	28.33
625.32	27.67
625.511	26.71
625.702	27.24
625.893	27.37
626.085	27.8
626.276	27.17
626.467	27.36
626.658	28.41
626.849	28.98
627.04	28.74
627.231	29.81
627.422	29.85
627.614	30.59
627.805	30
627.996	29.66
628.187	29.06
628.378	29.17
628.569	28.67
628.76	28.83
628.951	29.22
629.142	29.11
629.332	29.22
629.523	29.37
629.714	30.37
629.905	30.08
630.096	30.4
630.287	31.07
630.478	32.06
630.669	32.97
630.859	32.51
631.05	31.59
631.241	31.91
631.432	32.39
631.623	33.18
631.813	31.52
632.004	31.79
632.195	31.43
632.385	31.16
632.576	30.12
632.767	29.91
632.957	28.9
633.148	29.4
633.339	29.24
633.529	28.85
633.72	28.58
633.91	29.1
634.101	28.3
634.292	27.95
634.482	27.98
634.673	27.89
634.863	27.85
635.054	28.51
635.244	28.4
635.435	28.49
635.625	27.83
635.815	27.35
636.006	27.79
636.196	28.66
636.387	29.73
636.577	29.75
636.767	29.44
636.958	29.92
637.148	29.85
637.338	29.82
637.529	30.27
637.719	30.86
637.909	31.18
638.099	32.1
638.29	31.71
638.48	30.33
638.67	31.09
638.86	31.41
639.05	29.55
639.241	29.93
639.431	30
639.621	29.85
639.811	30.52
640.001	30.14
640.191	30.24
640.381	32.19
640.571	33.57
640.761	32.74
640.951	33.42
641.141	35.41
641.331	35.14
641.521	35.97
641.711	35.43
641.901	33.88
642.091	34.96
642.281	34.46
642.471	31.92
642.661	31.68
642.851	32.03
643.041	31.47
643.231	32.02
643.42	33.14
643.61	32.73
643.8	33.54
643.99	34.56
644.18	32.77
644.369	31.33
644.559	31.88
644.749	31.08
644.939	31.55
645.128	32.12
645.318	31
645.508	29.04
645.697	28
645.887	27.08
646.076	26.8
646.266	28.07
646.456	28.69
646.645	30.26
646.835	31.67
647.024	31.11
647.214	30.56
647.403	30.92
647.593	31.76
647.782	32.1
647.972	32.86
648.161	33.31
648.351	33.26
648.54	33.34
648.73	31.56
648.919	30.29
649.108	29.51
649.298	29.05
649.487	28.37
649.677	28.46
649.866	28.46
650.055	26.72
650.244	26.9
650.434	26.99
650.623	26.44
650.812	25.84
651.002	27.79
651.191	28.73
651.38	29.83
651.569	30.35
651.758	30.85
651.947	31.07
652.137	31.49
652.326	31.41
652.515	31.74
652.704	33.44
652.893	35.65
653.082	34.28
653.271	34.23
653.46	33.67
653.649	34.01
653.838	34.23
654.027	33.89
654.216	34.11
654.405	34.77
654.594	34.53
654.783	33.29
654.972	32.34
655.161	32.45
655.35	32.28
655.539	33.27
655.728	33.66
655.916	32.02
656.105	32.95
656.294	33.52
656.483	32.39
656.672	32.59
656.86	32.49
657.049	32.98
657.238	31.82
657.427	31.66
657.615	31
657.804	29.97
657.993	30.16
658.181	28.75
658.37	28.76
658.559	28.53
658.747	28.03
658.936	28.4
659.125	26.12
659.313	26.66
659.502	26.37
659.69	26.91
659.879	26.77
660.067	27.17
660.256	27.93
660.444	27.24
660.633	27.41
660.821	28
661.01	27.83
661.198	30.27
661.387	30.92
661.575	31.38
661.763	29.83
661.952	29
662.14	30.24
662.328	31.52
662.517	31.3
662.705	32.16
662.893	31.75
663.082	31.89
663.27	30.86
663.458	30.75
663.646	31.66
663.834	33.13
664.023	34.21
664.211	33.03
664.399	31.29
664.587	32.29
664.775	32.13
664.963	31.65
665.152	30.92
665.34	31.93
665.528	30.94
665.716	30.17
665.904	30.11
666.092	31.28
666.28	31.48
666.468	31.37
666.656	30.42
666.844	30.64
667.032	30.61
667.22	31.2
667.408	32.59
667.596	33.33
667.784	33.56
667.971	33.46
668.159	33.2
668.347	33.08
668.535	34.16
668.723	34.82
668.911	34.26
669.098	35.03
669.286	34.99
669.474	34.33
669.662	33.21
669.849	32
670.037	30.29
670.225	29.44
670.413	30.99
670.6	30.4
670.788	28.89
670.976	28.48
671.163	28.27
671.351	27.93
671.538	28.39
671.726	29.53
671.913	29.17
672.101	31.39
672.289	30.3
672.476	28.73
672.664	28.53
672.851	30.7
673.039	31.04
673.226	30.36
673.413	29.83
673.601	29.69
673.788	30.45
673.976	31.75
674.163	33.41
674.35	34.51
674.538	34.75
674.725	35.84
674.912	36.42
675.1	36.27
675.287	37.22
675.474	38.25
675.662	37.54
675.849	37.23
676.036	37.08
676.223	34.89
676.411	35.85
676.598	36
676.785	35.26
676.972	34.66
677.159	35.05
677.346	34.59
677.533	34.45
677.721	33.53
677.908	33.37
678.095	34.51
678.282	33.3
678.469	33.13
678.656	32.26
678.843	32.62
679.03	32.62
679.217	32.46
679.404	33.6
679.591	32.98
679.778	33.14
679.964	33.48
680.151	33.11
680.338	34.56
680.525	34.93
680.712	36.22
680.899	36.21
681.086	36.18
681.272	36.95
681.459	35.08
681.646	35.88
681.833	36.2
682.02	36.67
682.206	34.49
682.393	33.71
682.58	33.32
682.766	33.13
682.953	32.2
683.14	31.7
683.326	30.66
683.513	30.84
683.7	31.14
683.886	31.93
684.073	29.57
684.259	30.32
684.446	29.32
684.632	30.09
684.819	29.59
685.005	28.82
685.192	29.42
685.378	30.79
685.565	30.89
685.751	30.45
685.938	30.95
686.124	31.81
686.31	33.5
686.497	35.91
686.683	35.13
686.87	34.69
687.056	36.21
687.242	35.78
687.429	33.26
687.615	34.33
687.801	34.54
687.987	33.58
688.174	35.03
688.36	34.28
688.546	32.48
688.732	32.56
688.918	31
689.105	29.57
689.291	28.73
689.477	29.7
689.663	28.51
689.849	29.48
690.035	29.64
690.221	29.7
690.407	31.15
690.593	32.12
690.779	31.88
690.965	33.91
691.151	35.07
691.337	34.85
691.523	34.88
691.709	36.74
691.895	37.17
692.081	37.11
692.267	35.2
692.453	32.97
692.639	33.59
692.825	31.45
693.011	32.09
693.196	34.53
693.382	36.03
693.568	36.28
693.754	35.26
693.94	32.51
694.125	32.42
694.311	34.58
694.497	34.82
694.682	33.6
694.868	35.62
695.054	34.7
695.239	31.75
695.425	31.39
695.611	32.47
695.796	30.07
695.982	31.64
696.168	30.51
696.353	30.16
696.539	31.4
696.724	31.61
696.91	30.67
697.095	30.7
697.281	30.41
697.466	29.73
697.652	29.7
697.837	30.92
698.023	30.74
698.208	31.33
698.393	31.97
698.579	31.22
698.764	31.82
698.949	33.04
699.135	34.26
699.32	34.68
699.505	34.98
699.691	33.56
699.876	33.97
700.061	33.11
700.246	34.64
700.432	33.71
700.617	32.95
700.802	31.97
700.987	30.9
701.172	30.63
701.358	31.56
701.543	33.81
701.728	36.38
701.913	36.35
702.098	37.33
702.283	37.37
702.468	37.04
702.653	39.59
702.838	38.71
703.023	38.38
703.208	36.82
703.393	35.99
703.578	33.74
703.763	33.47
703.948	33.93
704.133	34.42
704.318	35.07
704.503	34.39
704.688	34.07
704.873	36.78
705.057	38.31
705.242	38.01
705.427	39.21
705.612	38.42
705.797	36.66
705.981	36.69
706.166	37.23
706.351	36.8
706.536	38.82
706.72	39.17
706.905	37.23
707.09	36.35
707.274	37.22
707.459	36.67
707.644	37.83
707.828	39.47
708.013	41.22
708.197	41.11
708.382	39.96
708.567	41.29
708.751	39.75
708.936	40.73
709.12	41.12
709.305	41.68
709.489	42.39
709.673	43.44
709.858	41.96
710.042	41.31
710.227	40.08
710.411	38.66
710.596	38.4
710.78	38.43
710.964	37.92
711.149	37.64
711.333	36.64
711.517	37.2
711.702	36.47
711.886	37.94
712.07	38.26
712.254	37.86
712.438	40.13
712.623	37.6
712.807	38.43
712.991	38.29
713.175	39.43
713.359	39.92
713.544	38.64
713.728	38.16
713.912	37.95
714.096	36.45
714.28	37.61
714.464	36.64
714.648	37.09
714.832	35.21
715.016	34.2
715.2	33.43
715.384	32.94
715.568	33.77
715.752	34.78
715.936	34.14
716.12	34.87
716.304	34.01
716.488	35.02
716.671	35.46
716.855	38.52
717.039	40.6
717.223	39.28
717.407	39.16
717.59	40.29
717.774	37.5
717.958	38.23
718.142	39.04
718.325	39.36
718.509	38.19
718.693	39
718.877	38.45
719.06	37.14
719.244	37.29
719.428	37.98
719.611	34.95
719.795	40.85
719.978	40.27
720.162	37.62
720.345	38.41
720.529	37.86
720.713	36.32
720.896	33.22
721.08	35.63
721.263	34.9
721.446	34.47
721.63	32.83
721.813	30.53
721.997	29.68
722.18	30.59
722.364	29.11
722.547	29.68
722.73	30.3
722.914	32.58
723.097	30.54
723.28	31.1
723.464	31.54
723.647	34.72
723.83	34.4
724.013	35.59
724.197	34.68
724.38	35.08
724.563	34.48
724.746	34.2
724.929	34.17
725.112	34.43
725.296	35.82
725.479	35.53
725.662	34.07
725.845	34.53
726.028	36.07
726.211	36.57
726.394	38.19
726.577	38.83
726.76	40.73
726.943	38.6
727.126	38.22
727.309	39.63
727.492	39.88
727.675	42.19
727.858	39.34
728.041	38.27
728.224	40.67
728.407	40.25
728.589	40.85
728.772	39.67
728.955	41.48
729.138	39.34
729.321	36.08
729.503	37.16
729.686	36.67
729.869	36.15
730.052	37.25
730.234	37.35
730.417	37.28
730.6	35.3
730.782	34.22
730.965	35.02
731.148	36.03
731.33	36.29
731.513	33.98
731.695	32.97
731.878	37.5
732.061	37.38
732.243	38.33
732.426	39.38
732.608	40.69
732.791	42.47
732.973	41.8
733.156	41.63
733.338	43.26
733.52	44.81
733.703	42.68
733.885	39.69
734.068	39.87
734.25	41.3
734.432	42.22
734.615	42.45
734.797	40.9
734.979	41.47
735.162	45.88
735.344	46.19
735.526	46.03
735.708	47.18
735.891	50.26
736.073	49.56
736.255	43.85
736.437	46.33
736.619	44.84
736.802	45.84
736.984	45.96
737.166	45.65
737.348	46.46
737.53	46.4
737.712	48.54
737.894	46.54
738.076	45.61
738.258	48.15
738.44	46.32
738.622	52.31
738.804	48.73
738.986	51.06
739.168	49.61
739.35	48.65
739.532	49.77
739.714	49.6
739.896	48.96
740.078	48.68
740.259	48.78
740.441	48.19
740.623	46.76
740.805	47.64
740.987	45.36
741.168	47.4
741.35	50.37
741.532	51.16
741.714	52.41
741.895	52.29
742.077	53.87
742.259	53.5
742.44	54.71
742.622	52.71
742.804	57.36
742.985	58.2
743.167	56.67
743.348	54.64
743.53	52.94
743.711	53.68
743.893	53.29
744.075	51.93
744.256	51.63
744.438	48.17
744.619	47.5
744.8	46.62
744.982	47.35
745.163	46.47
745.345	45.1
745.526	48.74
745.707	45.84
745.889	45.68
746.07	46.73
746.252	46.65
746.433	47.41
746.614	48.25
746.795	48.07
746.977	47.04
747.158	47.38
747.339	50.96
747.52	48.87
747.702	53.11
747.883	55.94
748.064	57.46
748.245	58.33
748.426	58.18
748.607	58.94
748.788	62.32
748.97	64.76
749.151	63.63
749.332	63.61
749.513	65.45
749.694	61.58
749.875	58.95
750.056	60.45
750.237	57.88
750.418	56.24
750.599	50.99
750.78	48.05
750.96	48.77
751.141	44.57
751.322	39.93
751.503	40.52
751.684	41.5
751.865	44.53
752.046	41.76
752.226	42.36
752.407	44.45
752.588	45.99
752.769	47.08
752.949	41.69
753.13	49.48
753.311	50.96
753.492	46.34
753.672	48.85
753.853	47.06
754.034	50.71
754.214	48.98
754.395	50.76
754.575	54
754.756	50.79
754.937	53.77
755.117	49.27
755.298	49.27
755.478	52.59
755.659	49.83
755.839	47.93
756.02	46.83
756.2	48.31
756.381	45.39
756.561	41.68
756.741	45.11
756.922	43.6
757.102	45.09
757.283	44.92
757.463	43.85
757.643	45.1
757.823	47.08
758.004	45.19
758.184	46.26
758.364	40.44
758.545	45.16
758.725	41.3
758.905	41.77
759.085	40.77
759.265	43.62
759.446	41.57
759.626	40.3
759.806	36.38
759.986	33.97
760.166	30.99
760.346	41.89
760.526	40.5
760.706	38.41
760.886	38.23
761.066	34.83
761.246	28.9
761.426	26.69
761.606	27.61
761.786	29.04
761.966	30.24
762.146	31.12
762.326	27.85
762.506	27.48
762.686	26.53
762.866	25.11
763.046	27.33
763.225	30.82
763.405	33.03
763.585	32.31
763.765	29.56
763.945	32.35
764.124	32.25
764.304	34.63
764.484	35.08
764.664	37.15
764.843	39.48
765.023	42.63
765.203	42.29
765.382	44.8
765.562	46.6
765.741	57.77
765.921	55.78
766.101	59.53
766.28	58.7
766.46	59.19
766.639	60.35
766.819	59.16
766.998	59.93
767.178	62.18
767.357	60.57
767.537	57.84
767.716	51.35
767.896	50.64
768.075	49.61
768.254	52.39
768.434	50.87
768.613	48.69
768.792	50.06
768.972	47.7
769.151	44.8
769.33	49.24
769.51	51.15
769.689	56.64
769.868	55.44
770.047	47.97
770.226	48.96
770.406	51.14
770.585	55.77
770.764	57.56
770.943	60.77
771.122	63.44
771.301	59.28
771.48	61.79
771.66	52.88
771.839	55.44
772.018	63.74
772.197	58.39
772.376	60.02
772.555	53.9
772.734	50.3
772.913	44.64
773.092	46.45
773.271	51.77
773.449	49.48
773.628	54.64
773.807	54.66
773.986	58.62
774.165	63.81
774.344	59.22
774.523	61.84
774.701	63.11
774.88	61.62
775.059	64.38
775.238	65.55
775.417	62.2
775.595	65.06
775.774	65.5
775.953	61.27
776.131	62.36
776.31	61.92
776.489	64.51
776.667	65.18
776.846	66.11
777.025	60.39
777.203	56.82
777.382	56.2
777.56	57.71
777.739	53.4
777.917	59.39
778.096	53.92
778.274	57.64
778.453	51.56
778.631	48.46
778.81	50.25
778.988	48.21
779.166	47.78
779.345	46.73
779.523	45.23
779.702	50.85
779.88	48.2
780.058	55.11
780.237	53.28
780.415	61.35
780.593	63.54
780.771	61.57
780.95	65.5
781.128	65.8
781.306	70.99
781.484	72.49
781.662	71.46
781.841	70.81
782.019	67.11
782.197	65.28
782.375	65.78
782.553	69.81
782.731	71.72
782.909	71.96
783.087	65.19
783.265	66.25
783.443	72.35
783.621	68.62
783.799	74.91
783.977	72.09
784.155	76.53
784.333	70.86
784.511	66.34
784.689	68.32
784.867	71.39
785.045	73.62
785.223	71.11
785.4	63.29
785.578	67.09
785.756	70.53
785.934	72.43
786.112	76.03
786.289	79.76
786.467	80.03
786.645	73.46
786.823	66.87
787	65.15
787.178	65.68
787.356	65.48
787.533	63.39
787.711	57.25
787.889	57.86
788.066	53.73
788.244	50.09
788.421	49.92
788.599	52.12
788.776	56.01
788.954	62.02
789.131	59.27
789.309	62.1
789.486	61.8
789.664	53.85
789.841	51.23
790.019	46.13
790.196	54.17
790.373	56.42
790.551	60.47
790.728	52.25
790.906	55.61
791.083	82.2
791.26	68.36
791.437	69.7
791.615	82.46
791.792	86.66
791.969	91.09
792.146	88.87
792.324	89.87
792.501	83.63
792.678	86.53
792.855	76.44
793.032	57.33
793.209	68.87
793.387	67.21
793.564	72.76
793.741	65.37
793.918	64.71
794.095	61.98
794.272	58.92
794.449	52.94
794.626	53.28
794.803	52.39
794.98	55.8
795.157	54.99
795.334	51.63
795.511	48.12
795.688	49.55
795.864	53.69
796.041	57.77
796.218	62.73
796.395	68.5
796.572	64.56
796.749	65.05
796.925	66.33
797.102	64.89
797.279	70.29
797.456	68.34
797.632	67.72
797.809	60.92
797.986	57.01
798.162	54.04
798.339	47.78
798.516	46.75
798.692	50.94
798.869	44.19
799.046	47.58
799.222	45.11
799.399	47.17
799.575	54.06
799.752	63.35
799.928	71.92
800.105	74.62
800.281	90.42
800.458	100
800.634	104.58
800.811	105.86
800.987	106.15
801.163	114.42
801.34	121.4
801.516	97.35
801.692	79.12
801.869	75.92
802.045	78.35
802.221	67.45
802.398	63.96
802.574	62.28
802.75	54.76
802.926	50.84
803.103	43.88
803.279	42.24
803.455	41.4
803.631	47.38
803.807	40.89
803.983	44.64
804.16	49.82
804.336	52.8
804.512	44.14
804.688	54.75
804.864	59.04
805.04	54.55
805.216	63.99
805.392	77.39
805.568	68.67
805.744	70.45
805.92	61.35
806.096	66.1
806.272	64.19
806.448	66.92
806.623	66.53
806.799	65.98
806.975	65.3
807.151	63.12
807.327	60.96
807.503	71.44
807.678	74.01
807.854	64.96
808.03	61.64
808.206	56.07
808.381	59.78
808.557	72.83
808.733	61.85
808.908	67.97
809.084	67.64
809.26	72.81
809.435	75.32
809.611	76.07
809.787	96.16
809.962	83.37
810.138	82.42
810.313	63.63
810.489	44.37
810.664	53.5
810.84	55.66
811.015	75.44
811.191	79.71
811.366	71.77
811.542	60.11
811.717	50.57
811.892	58.59
812.068	73.92
812.243	104.25
812.419	134.8
812.594	123.88
812.769	114.56
812.944	91.84
813.12	72.12
813.295	67.68
813.47	57.36
813.645	55.25
813.821	50.86
813.996	46.3
814.171	44.65
814.346	52.24
814.521	45.56
814.697	52.08
814.872	54.89
815.047	54.05
815.222	41.78
815.397	62.89
815.572	75.68
815.747	89.48
815.922	97.62
816.097	98.02
816.272	80.15
816.447	69.36
816.622	54.74
816.797	50.18
816.972	56.08
817.147	63.83
817.322	60.8
817.496	55.48
817.671	47.33
817.846	40.76
818.021	42.33
818.196	48.71
818.371	62.82
818.545	63.8
818.72	59.4
818.895	49.83
819.069	44.71
819.244	39.48
819.419	37.72
819.594	33.71
819.768	35.53
819.943	30.63
820.117	27.46
820.292	22.23
820.467	24.06
820.641	24.07
820.816	24.83
820.99	25.35
821.165	27.07
821.339	26.85
821.514	27.81
821.688	25.64
821.863	26.08
822.037	26.05
822.212	29.09
822.386	29.43
822.56	31.16
822.735	31.78
822.909	31.74
823.084	32.34
823.258	32.15
823.432	32.07
823.606	37.05
823.781	39.13
823.955	43.08
824.129	43.45
824.303	45.18
824.478	44.56
824.652	46.71
824.826	48.87
825	44.98
825.174	44.32
825.348	41.02
825.523	36.63
825.697	36.36
825.871	31.78
826.045	31.66
826.219	31.71
826.393	32.61
826.567	29.24
826.741	29.03
826.915	27.89
827.089	31.67
827.263	35.18
827.437	37.56
827.611	34.71
827.784	41.3
827.958	42.82
828.132	38.94
828.306	36.25
828.48	36.84
828.654	38.74
828.827	43.12
829.001	40.73
829.175	51.83
829.349	51.32
829.522	68.67
829.696	70.92
829.87	65.6
830.044	69.83
830.217	66.59
830.391	72.44
830.565	57.83
830.738	66.46
830.912	67.39
831.085	54.46
831.259	58.63
831.432	41.76
831.606	39.91
831.779	26.34
831.953	37.31
832.126	39.56
832.3	42.21
832.473	45.24
832.647	40.25
832.82	36.62
832.994	37.46
833.167	35.08
833.34	37.84
833.514	33.08
833.687	42.07
833.86	38.04
834.034	36.24
834.207	33.08
834.38	36.02
834.553	36.68
834.727	46.25
834.9	46.39
835.073	54.89
835.246	51.1
835.419	54.03
835.593	44.27
835.766	58.61
835.939	67.6
836.112	68.64
836.285	65.14
836.458	70.15
836.631	24.05
836.804	48.83
836.977	34.91
837.15	37.22
837.323	43.97
837.496	97.06
837.669	87.25
837.842	92.97
838.015	95.74
838.188	88.69
838.361	87.94
838.533	94.42
838.706	87.24
838.879	88.82
839.052	94.18
839.225	87.17
839.398	71.84
839.57	69.57
839.743	65.49
839.916	58.15
840.088	55.51
840.261	51.24
840.434	44.3
840.607	45.14
840.779	43.67
840.952	46.8
841.124	47.43
841.297	61.66
841.47	75.29
841.642	89.94
841.815	122.29
841.987	136.54
842.16	233.13
842.332	232.83
842.505	179.92
842.677	151.09
842.85	131.07
843.022	130.81
843.194	112.47
843.367	65.61
843.539	55.59
843.712	58.98
843.884	45.2
844.056	19.42
844.229	1.62
844.401	-13.8
844.573	70.82
844.745	85.94
844.918	73.66
845.09	74.09
845.262	156.01
845.434	170.21
845.606	303.57
845.779	-750
845.951	7675
846.123	-1041.18
846.295	1067.35
846.467	-702.63
846.639	-869.57
846.811	292.05
846.983	193.85
847.155	131.25
847.327	164.15
847.499	66.54
847.671	53.4
847.843	115.45
848.015	94.2
848.187	99.59
848.359	97.26
848.531	134.26
848.703	127
848.875	129.94
849.047	732.5
849.218	2212.5
849.39	-538.27
849.562	11520
849.734	-1635.71
849.905	6957.14
850.077	-591.89
850.249	-168.57
850.421	776.19
850.592	533.33
850.764	254.62
850.936	178.23
851.107	163.64
851.279	116.47
851.451	98.63
851.622	159.78
851.794	155.65
851.965	120.86
852.137	165.22
852.308	822.22
852.48	87.96
852.651	-34.55
852.823	-87.3
852.994	-500
853.166	387.5
853.337	127.78
853.509	-24.62
853.68	-4500
853.851	-250
854.023	-111.19
854.194	-123.73
854.365	64.15
854.537	62.21
854.708	71.26
854.879	70.36
855.05	109.54
855.222	145.99
855.393	353.85
855.564	200.34
855.735	195.5
855.906	242.58
856.078	237.28
856.249	172.39
856.42	212.39
856.591	266.27
856.762	-1963.16
856.933	-1376.92
857.104	-450.67
857.275	12450
857.446	747.69
857.617	-11216.67
857.788	34450
857.959	498.86
858.13	1428.57
858.301	390.12
858.472	316.67
858.643	247.1
858.814	197.39
858.985	148.24
859.155	126.04
859.326	204.95
859.497	140.77
859.668	178.31
859.839	289.29
860.009	258.93
860.18	219.73
860.351	251.68
860.522	185.74
860.692	257.25
860.863	284.44
861.034	287.72
861.204	259.51
861.375	470.54
861.546	258.3
861.716	234.35
861.887	218.59
862.057	802.94
862.228	854.76
862.398	-36.75
862.569	-523.53
862.739	-1004.55
862.91	520.65
863.08	7342.86
863.251	-3176.19
863.421	-869.33
863.592	-7125
863.762	-716.88
863.932	1521.95
864.103	-1297.78
864.273	717.89
864.443	714.29
864.614	284.48
864.784	301.61
864.954	187.19
865.125	133.4
865.295	105.25
865.465	150.75
865.635	112.02
865.805	108.46
865.976	96.09
866.146	95.34
866.316	87.38
866.486	84.53
866.656	72.01
866.826	78.54
866.996	84.06
867.166	93.35
867.336	85.25
867.506	100.85
867.676	114.26
867.846	124.03
868.016	90.96
868.186	130.77
868.356	528.92
868.526	559.6
868.696	-2423.53
868.866	-474.63
869.036	-1681.48
869.206	1416.22
869.376	-2422.22
869.545	2260
869.715	3090.48
869.885	-1075
870.055	-667.52
870.224	365.52
870.394	406.44
870.564	629.46
870.734	672.32
870.903	376.85
871.073	541.55
871.243	353.76
871.412	379.36
871.582	771.74
871.751	-2659.09
871.921	-277.85
872.091	-55.28
872.26	-86.5
872.43	-82.44
872.599	-229.09
872.769	-171.3
872.938	-251.33
873.108	-214.44
873.277	-528.23
873.446	5653.85
873.616	-776.34
873.785	380.16
873.955	339.74
874.124	414.05
874.293	579.38
874.463	2516.22
874.632	-1173.91
874.801	-668.18
874.971	-144.97
875.14	-87.85
875.309	-52.53
875.478	-209.89
875.647	-44.06
875.817	-59.4
875.986	-77.38
876.155	25100
876.324	230.3
876.493	158.96
876.662	210.2
876.831	188.22
877	214.78
877.17	281.88
877.339	480
877.508	474.59
877.677	0
877.846	-2691.67
878.015	-1153.33
878.184	-602.54
878.352	-12466.67
878.521	1127.94
878.69	340.59
878.859	285.81
879.028	207.16
879.197	154.39
879.366	105.63
879.534	83.52
879.703	90.11
879.872	74.28
880.041	64.89
880.21	62.92
880.378	64.21
880.547	50.76
880.716	51.08
880.884	40.36
881.053	40.38
881.222	41.5
881.39	39.51
881.559	34.8
881.727	37.3
881.896	34.22
882.065	32.43
882.233	28.88
882.402	26.08
882.57	10.22
882.739	20.99
882.907	19.49
883.076	9.39
883.244	18.34
883.412	23.59
883.581	28.34
883.749	23.76
883.918	21.21
884.086	27.78
884.254	51.23
884.423	72.94
884.591	82.17
884.759	107.36
884.927	110.61
885.096	91.62
885.264	109.02
885.432	105.97
885.6	103.94
885.769	90.47
885.937	97.59
886.105	79.02
886.273	71.43
886.441	59.01
886.609	52.01
886.777	68.11
886.945	107.22
887.113	106.61
887.281	102.58
887.449	132.89
887.617	150.19
887.785	186.72
887.953	229.23
888.121	351.32
888.289	547.5
888.457	1117.31
888.625	438.1
888.793	-621.05
888.961	1056.25
889.129	3950
889.296	593.75
889.464	792.31
889.632	552.31
889.8	335.19
889.967	187.26
890.135	154.24
