Data from JASIL_3100_Relative_1.txt Node
Date: Thu Nov 12 19:24:23 EST 2015
User: Geneva
Spectrometer: USB4E03002
Autoset integration time: false
Trigger mode: 4
Integration Time (sec): 1.000000E-1
Scans to average: 10
Electric dark correction enabled: true
Nonlinearity correction enabled: false
Boxcar width: 5
Stray light correction enabled: false
XAxis mode: Wavelengths
Stop averaging: false
Number of Pixels in Spectrum: 3648
>>>>>Begin Spectral Data<<<<<
177.575	83.37
177.794	49.38
178.014	105.49
178.233	73.19
178.452	59.81
178.672	15.67
178.891	-31.99
179.11	37.69
179.33	12.53
179.549	7.46
179.768	68.26
179.987	144.27
180.207	115.06
180.426	91.2
180.645	107.05
180.864	129.33
181.084	109.45
181.303	79.85
181.522	92.95
181.741	97.62
181.96	119.19
182.179	103.52
182.398	142.26
182.618	144.19
182.837	259.7
183.056	263.11
183.275	194.01
183.494	212.72
183.713	308.76
183.932	-1249.13
184.151	2761.67
184.37	4335.71
184.589	7807.63
184.808	409.36
185.027	1034.21
185.246	308.15
185.465	203.23
185.684	184.02
185.903	187.53
186.122	141.58
186.341	113.32
186.56	95.84
186.779	39
186.998	25.25
187.216	-8.97
187.435	-10.24
187.654	-12.7
187.873	-99.03
188.092	-285.55
188.311	-49.36
188.53	-29.56
188.748	114.85
188.967	-251.43
189.186	162.05
189.405	182.22
189.623	175.56
189.842	111.82
190.061	183.36
190.28	160.89
190.498	91.69
190.717	93.57
190.936	91.15
191.154	122.13
191.373	133.97
191.592	215.52
191.81	194.65
192.029	409.28
192.248	378.29
192.466	312
192.685	358.18
192.904	1703.21
193.122	-953.91
193.341	-1164.9
193.559	-224.77
193.778	-400.76
193.996	-397.47
194.215	-1100.83
194.433	-338.4
194.652	-219.61
194.87	-120.28
195.089	-82.46
195.307	-93.8
195.526	-93.76
195.744	6.55
195.963	-54.94
196.181	-170.1
196.399	-8.76
196.618	-92.03
196.836	-197.43
197.055	-56.1
197.273	-83.6
197.491	-95.85
197.71	-71.92
197.928	-69.17
198.146	716.96
198.365	-322.83
198.583	-349.96
198.801	2928.63
199.019	-145.98
199.238	-1045.96
199.456	-354.84
199.674	-734.64
199.892	-1172.37
200.111	-1785.9
200.329	-233.92
200.547	-121.6
200.765	-106.3
200.983	-50.97
201.202	-53.44
201.42	-170.43
201.638	-120.33
201.856	3589.31
202.074	903.02
202.292	-247.9
202.51	329.37
202.728	153.83
202.946	103.49
203.165	104.22
203.383	144.77
203.601	137.43
203.819	122.58
204.037	111.81
204.255	114.3
204.473	100.32
204.691	66.04
204.909	102.06
205.127	125.35
205.345	234.5
205.562	306.42
205.78	125.22
205.998	78.05
206.216	101.98
206.434	78.58
206.652	102.45
206.87	148.02
207.088	126.73
207.306	122.08
207.523	144.54
207.741	155.76
207.959	169.48
208.177	183.47
208.395	323.92
208.612	160.93
208.83	974.84
209.048	311.62
209.266	338.05
209.483	1043.41
209.701	-119.76
209.919	-3210.56
210.136	844.72
210.354	1292.5
210.572	-502.14
210.79	9645.45
211.007	305.92
211.225	258.64
211.442	264.02
211.66	224.51
211.878	490.6
212.095	287.49
212.313	470.47
212.53	503.59
212.748	1602.3
212.966	217.28
213.183	176.55
213.401	341.4
213.618	444.84
213.836	-182.94
214.053	-943.15
214.271	403.61
214.488	1116.99
214.705	287.21
214.923	388.84
215.14	188.3
215.358	141.63
215.575	292.92
215.793	483.15
216.01	-819.12
216.227	209.22
216.445	-1840.43
216.662	-133.2
216.879	-205.22
217.097	6.91
217.314	-162.08
217.531	-248
217.749	-352.83
217.966	-352.4
218.183	-68.83
218.4	219.67
218.618	102.2
218.835	93.47
219.052	125.32
219.269	129.49
219.487	127.54
219.704	110.52
219.921	150.36
220.138	218.87
220.355	376.09
220.572	255.11
220.79	319.19
221.007	-2434.08
221.224	-235.27
221.441	-96.5
221.658	-191.52
221.875	-412.71
222.092	-193.39
222.309	-240.05
222.526	-249.66
222.743	-126.86
222.96	-24.99
223.177	-26.28
223.394	0.86
223.611	-39.21
223.828	-11.34
224.045	4.28
224.262	7.56
224.479	-6.22
224.696	-8.03
224.913	25.95
225.13	18.03
225.347	-21.51
225.564	-0.11
225.781	-62.19
225.997	-56.85
226.214	-77.92
226.431	-79.77
226.648	-87.64
226.865	-99.17
227.082	-97.79
227.298	-119.84
227.515	-133.64
227.732	-75.87
227.949	-108.41
228.165	-67.14
228.382	-45.68
228.599	-63.23
228.816	-57.64
229.032	-23.36
229.249	-11.64
229.466	-8.73
229.682	0.67
229.899	10.3
230.116	-3.87
230.332	6.01
230.549	-1.55
230.765	4.05
230.982	7.98
231.199	-4.78
231.415	-21.21
231.632	-14.44
231.848	-30.11
232.065	-43.14
232.281	-85.35
232.498	-85.97
232.714	-89.73
232.931	-144.28
233.147	-178.46
233.364	-152.81
233.58	-94
233.797	-82.26
234.013	-57.06
234.23	-37.41
234.446	-73.44
234.662	-85.65
234.879	-36.68
235.095	-34.32
235.312	1.88
235.528	5.77
235.744	-2.88
235.961	-1.35
236.177	-7.36
236.393	-31.06
236.61	-10.22
236.826	-0.8
237.042	8.6
237.258	17.96
237.475	9.45
237.691	1.46
237.907	-18.69
238.123	-17.89
238.339	-15.25
238.556	-33.38
238.772	-31.99
238.988	-47.36
239.204	-45.05
239.42	-46.58
239.636	-63.69
239.853	-39.35
240.069	-37.65
240.285	-27.47
240.501	-29.89
240.717	-32.93
240.933	-27.86
241.149	-14.9
241.365	-11.59
241.581	-10.34
241.797	-11.79
242.013	-10.59
242.229	-8.21
242.445	-1.07
242.661	9.44
242.877	16.47
243.093	11.93
243.309	18.99
243.525	16.42
243.741	11.91
243.957	4.24
244.173	2.11
244.388	2
244.604	-5.77
244.82	-2.2
245.036	-7.42
245.252	-10.76
245.468	-3.73
245.683	-6.27
245.899	-6.31
246.115	-3.21
246.331	1.26
246.547	4.34
246.762	4.2
246.978	5.63
247.194	4.01
247.409	1.52
247.625	0.7
247.841	-2.14
248.057	-1.11
248.272	-0.15
248.488	-1.29
248.703	-0.72
248.919	-3.45
249.135	-1.89
249.35	0.73
249.566	-7.06
249.782	4.6
249.997	11.38
250.213	15.76
250.428	8.63
250.644	11.58
250.859	12.5
251.075	9.03
251.29	7.19
251.506	7.61
251.721	5.61
251.937	1.46
252.152	-6.04
252.368	-2.86
252.583	-10.46
252.798	-12.73
253.014	-26.88
253.229	-23.97
253.445	-33.37
253.66	-30.19
253.875	-32.78
254.091	-44.99
254.306	-39.48
254.521	-36.29
254.737	-58.64
254.952	-40.25
255.167	-43.74
255.383	-28.86
255.598	-27.1
255.813	-9.18
256.028	-9.54
256.244	-10.43
256.459	-4.9
256.674	-7.68
256.889	-4.42
257.104	0.68
257.32	-2.17
257.535	1.43
257.75	2.5
257.965	1.79
258.18	-2.36
258.395	-3.92
258.61	-1.4
258.826	-3.33
259.041	-0.8
259.256	-2.06
259.471	-3.89
259.686	-2.25
259.901	-1.68
260.116	-2.89
260.331	-6.32
260.546	-5.77
260.761	-4.42
260.976	-5.17
261.191	-3.83
261.406	-4.87
261.621	-6
261.836	-5.39
262.05	-5.6
262.265	-4.69
262.48	-7.4
262.695	-3.91
262.91	-7.7
263.125	-4.71
263.34	-10.53
263.555	-12.31
263.769	-17.12
263.984	-13.06
264.199	-16.2
264.414	-16.78
264.629	-23.08
264.843	-32.55
265.058	-26.21
265.273	-25.04
265.488	-24.87
265.702	-22.2
265.917	-17.1
266.132	-8.06
266.346	-7.79
266.561	-11.02
266.776	-11.03
266.99	-11.11
267.205	-4.69
267.42	-8.31
267.634	-10.6
267.849	-11.66
268.063	-11.19
268.278	-12.3
268.492	-11.67
268.707	-11.09
268.922	-5.46
269.136	-3.07
269.351	0.08
269.565	5.71
269.78	5.12
269.994	5.74
270.209	5.39
270.423	4.26
270.637	6.21
270.852	2.43
271.066	0.57
271.281	3.3
271.495	2.71
271.709	1.93
271.924	-2.6
272.138	-2.33
272.353	-0.08
272.567	4.46
272.781	4.77
272.996	5.45
273.21	5.95
273.424	5.69
273.638	2.05
273.853	1.18
274.067	2.63
274.281	3.88
274.495	3.42
274.71	2.22
274.924	-3.13
275.138	-4.14
275.352	-7.6
275.566	-8.63
275.781	-8.45
275.995	-8.74
276.209	-13.55
276.423	-12.62
276.637	-12.01
276.851	-11.1
277.065	-16.09
277.279	-14.66
277.493	-11.6
277.707	-16.47
277.921	-15.1
278.135	-12.89
278.349	-10.63
278.563	-2.76
278.777	-7.21
278.991	-7.05
279.205	-3.53
279.419	2.97
279.633	4.98
279.847	5.5
280.061	8.4
280.275	7.5
280.489	5.59
280.703	8.68
280.917	7.27
281.131	7.52
281.344	7.36
281.558	4.34
281.772	0.71
281.986	-4.24
282.2	-6.24
282.414	-6.3
282.627	-2.58
282.841	-2.85
283.055	-5.4
283.269	-8.71
283.482	-8.39
283.696	-8.83
283.91	-6.11
284.123	-1.59
284.337	3.2
284.551	5.73
284.764	6.19
284.978	2.9
285.192	4.13
285.405	4.13
285.619	7.18
285.833	6.93
286.046	5.75
286.26	3.93
286.473	2.29
286.687	-1.54
286.9	-4.61
287.114	-4.33
287.327	-6.11
287.541	-4.16
287.754	-4.41
287.968	-6.06
288.181	-4.21
288.395	-3.41
288.608	-1.25
288.822	-0.46
289.035	1.07
289.248	-2.11
289.462	-1.47
289.675	0.78
289.889	-0.71
290.102	1.92
290.315	-0.56
290.529	-1.09
290.742	-0.5
290.955	-0.82
291.169	-2.37
291.382	-2.9
291.595	1.46
291.808	2.23
292.022	3.91
292.235	2.16
292.448	-0.27
292.661	1.6
292.875	2.03
293.088	0.62
293.301	-0.5
293.514	-0.36
293.727	2.06
293.94	-1.12
294.153	-0.53
294.367	-0.03
294.58	1.03
294.793	3.94
295.006	5.69
295.219	5.9
295.432	7.95
295.645	7
295.858	7.15
296.071	5.81
296.284	6.44
296.497	4.38
296.71	3.18
296.923	2.54
297.136	0.92
297.349	-0.55
297.562	-0.71
297.775	-2.19
297.988	-0.98
298.201	0.6
298.414	0.67
298.626	-0.01
298.839	1.95
299.052	2.82
299.265	5.46
299.478	5.46
299.691	3.57
299.903	4.7
300.116	6.26
300.329	3.26
300.542	1.43
300.755	1.58
300.967	1.52
301.18	-1.41
301.393	-1.91
301.605	-3.98
301.818	-4.13
302.031	-3.18
302.243	-6.98
302.456	-5.19
302.669	-0.38
302.881	0.53
303.094	-0.94
303.307	0.93
303.519	1.03
303.732	-0.08
303.944	-1.87
304.157	-1.48
304.37	0.32
304.582	1.44
304.795	-2.37
305.007	-3.89
305.22	-3.61
305.432	-1.96
305.645	-1.68
305.857	0.93
306.069	0.84
306.282	2.93
306.494	2.52
306.707	1.58
306.919	3.25
307.132	6.06
307.344	4.2
307.556	6.56
307.769	5.3
307.981	3.66
308.193	2.88
308.406	4.14
308.618	4.49
308.83	3.83
309.043	6.35
309.255	5.01
309.467	4.85
309.679	7.09
309.892	4.36
310.104	5.34
310.316	7.03
310.528	7.3
310.74	7.26
310.953	7.01
311.165	6.52
311.377	4.15
311.589	4.1
311.801	3.49
312.013	4.08
312.225	3.79
312.437	3.13
312.649	3.34
312.862	2.33
313.074	0.76
313.286	-0.78
313.498	-0.11
313.71	-1.12
313.922	-0.21
314.134	2.8
314.346	-0.05
314.558	-1.2
314.77	-0.59
314.982	-0.55
315.193	-0.76
315.405	-2.06
315.617	-2.49
315.829	-3.87
316.041	-3.52
316.253	0.24
316.465	-4.79
316.677	-4.52
316.888	-3.71
317.1	-5.62
317.312	-7.15
317.524	-5.78
317.736	-2.05
317.947	0.65
318.159	-0.6
318.371	1.56
318.583	-3.82
318.794	-3.57
319.006	-5.55
319.218	-2.54
319.43	0.56
319.641	-0.87
319.853	0.25
320.064	-0.87
320.276	-2.42
320.488	-0.23
320.699	-0.56
320.911	-0.3
321.123	2.42
321.334	6
321.546	5.45
321.757	4.76
321.969	5.78
322.18	2.33
322.392	2.93
322.603	2.52
322.815	3.04
323.026	0.72
323.238	4.1
323.449	4.22
323.661	3.15
323.872	2.95
324.083	1.95
324.295	2.93
324.506	4.1
324.718	2.53
324.929	4.09
325.14	4.91
325.352	6.45
325.563	5.26
325.774	4.06
325.986	2.41
326.197	2.06
326.408	3.33
326.62	4.14
326.831	5.95
327.042	7.63
327.253	6.92
327.464	8.03
327.676	7.6
327.887	6.65
328.098	6.42
328.309	6.52
328.52	6.12
328.732	6.15
328.943	9.33
329.154	9.84
329.365	7.3
329.576	7.14
329.787	6.16
329.998	5.43
330.209	7.78
330.42	7.71
330.631	9.5
330.842	8.56
331.053	8.7
331.264	4.88
331.475	4.26
331.686	6.95
331.897	6.48
332.108	5.93
332.319	8.36
332.53	4.79
332.741	5.86
332.952	4.14
333.163	4.59
333.374	5.54
333.585	2.89
333.795	1.22
334.006	1.76
334.217	1.09
334.428	1.45
334.639	0.87
334.849	1.72
335.06	3.24
335.271	3.62
335.482	4.81
335.692	4.42
335.903	8.92
336.114	6.79
336.325	6.02
336.535	7.6
336.746	5.14
336.957	5.94
337.167	7.25
337.378	4.48
337.589	7.05
337.799	4.95
338.01	2.7
338.22	-0.01
338.431	-0.03
338.642	-1.02
338.852	-2.35
339.063	0.25
339.273	-0.1
339.484	-0.89
339.694	1.69
339.905	3.02
340.115	5.34
340.326	3.9
340.536	6.25
340.746	7.79
340.957	8.95
341.167	10.81
341.378	10.18
341.588	8.79
341.799	9
342.009	8.13
342.219	5.12
342.43	5.75
342.64	7.27
342.85	6.53
343.061	8.72
343.271	9.54
343.481	8.28
343.691	8.2
343.902	9.81
344.112	9.18
344.322	7.36
344.532	7.87
344.743	7.64
344.953	7.9
345.163	8.3
345.373	7.54
345.583	5.81
345.793	6.98
346.004	7.44
346.214	5.18
346.424	5.16
346.634	6.68
346.844	6.23
347.054	6.12
347.264	7.47
347.474	7.95
347.684	6.33
347.894	6.93
348.104	6.19
348.314	7.22
348.524	9.25
348.734	9.49
348.944	10.3
349.154	10
349.364	9.48
349.574	8.45
349.784	8.25
349.994	7.11
350.204	7.95
350.413	6.04
350.623	7.06
350.833	5.71
351.043	5.86
351.253	6.78
351.463	9.49
351.672	8.14
351.882	7.02
352.092	5.47
352.302	7.32
352.511	6.77
352.721	7.75
352.931	6.46
353.141	6.7
353.35	7.14
353.56	3.38
353.77	2.41
353.979	4.26
354.189	7.09
354.399	8.17
354.608	8.44
354.818	8.36
355.027	8.89
355.237	7.88
355.447	9.31
355.656	8.22
355.866	10.43
356.075	9.49
356.285	9.12
356.494	8.36
356.704	6.86
356.913	7.45
357.123	7.56
357.332	7.17
357.542	8.87
357.751	7.07
357.96	7.7
358.17	6.46
358.379	6.51
358.589	8.37
358.798	6.51
359.007	7.95
359.217	9.91
359.426	9.68
359.635	10.52
359.845	10.41
360.054	11.62
360.263	12.79
360.472	13.84
360.682	13.89
360.891	12.69
361.1	13.65
361.309	12.81
361.519	10.46
361.728	10.39
361.937	10.52
362.146	9.27
362.355	9.3
362.564	8
362.774	7.14
362.983	6.71
363.192	6.72
363.401	6.61
363.61	7.41
363.819	8.44
364.028	9.87
364.237	8.89
364.446	8.17
364.655	7.54
364.864	8.16
365.073	8.63
365.282	8.24
365.491	8.35
365.7	8.5
365.909	7.72
366.118	7.38
366.327	6.12
366.536	7.62
366.745	8.33
366.954	8.03
367.162	7.93
367.371	7.67
367.58	7.68
367.789	6.44
367.998	6.5
368.207	5.86
368.415	5.87
368.624	6.52
368.833	6.82
369.042	8.25
369.25	9.03
369.459	9.89
369.668	10.56
369.877	11.15
370.085	11.72
370.294	11.2
370.503	12.96
370.711	13.18
370.92	12.53
371.129	11.56
371.337	11.41
371.546	10.72
371.754	10.22
371.963	9.25
372.171	8.86
372.38	8.74
372.589	7.83
372.797	7.67
373.006	7.78
373.214	7.81
373.423	5.19
373.631	3.67
373.84	2.85
374.048	2.6
374.256	3.27
374.465	3.05
374.673	4.03
374.882	3.59
375.09	3.45
375.298	3.27
375.507	2.86
375.715	5.33
375.923	5.41
376.132	6.25
376.34	4.81
376.548	4.04
376.757	4.42
376.965	5.74
377.173	7.58
377.381	6.76
377.59	7.1
377.798	7.05
378.006	5.29
378.214	5.46
378.423	5.73
378.631	7.37
378.839	8.14
379.047	8.93
379.255	5.93
379.463	5.66
379.671	5.62
379.879	5.67
380.088	6
380.296	5.94
380.504	6.84
380.712	5.68
380.92	5.21
381.128	4.93
381.336	4.86
381.544	5.83
381.752	5.96
381.96	8.06
382.168	6.89
382.376	6.86
382.584	7.71
382.791	6.28
382.999	4.87
383.207	4
383.415	4.44
383.623	3.5
383.831	3.11
384.039	2.11
384.247	0.68
384.454	0.78
384.662	0.8
384.87	1.12
385.078	2.12
385.285	3.44
385.493	5.35
385.701	4.96
385.909	4.75
386.116	5.73
386.324	5.51
386.532	4.2
386.739	3.87
386.947	3.39
387.155	3.25
387.362	4.29
387.57	4.45
387.778	2.76
387.985	1.72
388.193	2.09
388.4	-0.12
388.608	0.68
388.816	2.17
389.023	3.16
389.231	4.18
389.438	4.93
389.646	3.36
389.853	3.22
390.061	3.97
390.268	4.21
390.475	3.2
390.683	3.76
390.89	3.53
391.098	3.24
391.305	3.15
391.512	2.03
391.72	1.34
391.927	1.21
392.135	1.87
392.342	1.9
392.549	2.27
392.756	2.44
392.964	2.84
393.171	3.2
393.378	2.99
393.586	2.25
393.793	2.5
394	2.87
394.207	2.67
394.414	2
394.622	0.98
394.829	1.04
395.036	1.59
395.243	1.28
395.45	1.52
395.657	1.43
395.864	1.35
396.072	2.34
396.279	1.75
396.486	2.18
396.693	2.82
396.9	2.83
397.107	2.2
397.314	1.88
397.521	2.94
397.728	2.75
397.935	2.58
398.142	2.51
398.349	1
398.556	1.19
398.763	2.04
398.97	1.53
399.177	2.53
399.383	2.76
399.59	2.51
399.797	1.46
400.004	1.02
400.211	0.45
400.418	0.74
400.625	1.31
400.831	1.72
401.038	1.35
401.245	1.49
401.452	0.8
401.658	1.07
401.865	0.8
402.072	1.76
402.279	1.55
402.485	2.75
402.692	3.34
402.899	2.45
403.105	2.03
403.312	2.2
403.519	2.86
403.725	3.17
403.932	3.42
404.138	4.14
404.345	2.65
404.552	2.71
404.758	2.77
404.965	2.71
405.171	2.89
405.378	2.69
405.584	2.41
405.791	2.04
405.997	1.81
406.204	2.63
406.41	3.03
406.617	5.21
406.823	5.75
407.029	5.03
407.236	4.75
407.442	5.45
407.649	6.38
407.855	7.07
408.061	6.83
408.268	7.05
408.474	6.66
408.68	5.92
408.887	5.63
409.093	5.25
409.299	5.77
409.505	5.89
409.712	6.51
409.918	5.31
410.124	4.95
410.33	4.92
410.537	4.61
410.743	3.27
410.949	3.51
411.155	2.19
411.361	1.86
411.567	0.75
411.773	0.47
411.98	-1.53
412.186	-2.34
412.392	-2.48
412.598	-2.38
412.804	-1.19
413.01	-1.25
413.216	-1.26
413.422	-1.33
413.628	-1.45
413.834	-2.31
414.04	-2.34
414.246	-0.66
414.452	0.68
414.658	0.08
414.864	0.62
415.07	0.31
415.275	0.83
415.481	1.07
415.687	0.83
415.893	1.7
416.099	2.64
416.305	2.39
416.511	2.22
416.716	2.75
416.922	2.64
417.128	1.91
417.334	1.49
417.539	1.4
417.745	0.82
417.951	1.73
418.157	1.33
418.362	1.7
418.568	2.01
418.774	2.01
418.979	1.6
419.185	2.38
419.391	3.08
419.596	3.32
419.802	3.64
420.008	4.1
420.213	3.89
420.419	3.81
420.624	3.83
420.83	3.93
421.035	4.14
421.241	4.23
421.446	3.54
421.652	3.34
421.857	3.67
422.063	3.56
422.268	3.43
422.474	3.52
422.679	3.78
422.885	4.2
423.09	3.37
423.295	3.59
423.501	3.87
423.706	4.4
423.911	4.45
424.117	4.19
424.322	4.49
424.527	4.68
424.733	4.58
424.938	4.53
425.143	4.16
425.349	4.9
425.554	4.67
425.759	4.28
425.964	3.65
426.169	3.82
426.375	3.57
426.58	3.13
426.785	2.97
426.99	2.61
427.195	2.48
427.4	2.44
427.605	2.48
427.811	2.16
428.016	2.31
428.221	3.16
428.426	2.55
428.631	2.71
428.836	3.25
429.041	3.06
429.246	3.59
429.451	3.46
429.656	3.25
429.861	3.7
430.066	3.51
430.271	3.59
430.476	3.47
430.681	4.15
430.886	4.29
431.09	3.48
431.295	3.85
431.5	4.34
431.705	4.31
431.91	4.47
432.115	4.88
432.32	4.97
432.524	5.29
432.729	5
432.934	5.13
433.139	4.77
433.343	5.3
433.548	5.11
433.753	4.16
433.958	4.68
434.162	4.81
434.367	4.6
434.572	4.9
434.776	4.49
434.981	4.77
435.186	4.2
435.39	4.47
435.595	4.42
435.799	4.43
436.004	5.08
436.209	5.24
436.413	4.19
436.618	4.02
436.822	4.1
437.027	4.95
437.231	4.68
437.436	4.43
437.64	4.37
437.845	4.68
438.049	4.89
438.253	4.94
438.458	4.49
438.662	5.89
438.867	5.63
439.071	5.89
439.275	5.29
439.48	5.27
439.684	5.5
439.888	5.65
440.093	5.74
440.297	5.56
440.501	5.55
440.706	5.4
440.91	4.36
441.114	4.52
441.318	4.2
441.523	4.12
441.727	4.03
441.931	3.56
442.135	3.44
442.339	2.52
442.543	2.64
442.748	2.01
442.952	2.42
443.156	2.84
443.36	2.73
443.564	2.89
443.768	2.47
443.972	2.74
444.176	3.32
444.38	3.08
444.584	3.7
444.788	3.81
444.992	4.36
445.196	4.64
445.4	4.45
445.604	4.1
445.808	3.92
446.012	3.84
446.216	3.8
446.42	4.57
446.624	5.2
446.828	4.97
447.032	4.69
447.235	4.76
447.439	4.49
447.643	4.91
447.847	5.27
448.051	5.13
448.254	5.29
448.458	5.32
448.662	4.5
448.866	3.62
449.069	3.8
449.273	4.07
449.477	4.1
449.681	3.68
449.884	3.1
450.088	3.45
450.292	2.95
450.495	3.83
450.699	3.36
450.902	2.47
451.106	2.95
451.31	2.3
451.513	2.66
451.717	2.08
451.92	2.45
452.124	2.54
452.327	1.35
452.531	2.05
452.734	1.64
452.938	1.53
453.141	2.35
453.345	2.02
453.548	2.13
453.752	1.59
453.955	1.78
454.158	1.64
454.362	2.1
454.565	3.05
454.769	2.85
454.972	2.58
455.175	3.14
455.379	2.56
455.582	2.66
455.785	2.77
455.988	3.21
456.192	3.54
456.395	3.46
456.598	3.19
456.801	3.36
457.005	3.55
457.208	3.64
457.411	3.04
457.614	3.59
457.817	3.59
458.021	3.93
458.224	4.45
458.427	4.2
458.63	4.39
458.833	4.43
459.036	3.97
459.239	3.79
459.442	4.33
459.645	4.57
459.848	4.53
460.051	4.86
460.254	5
460.457	4.31
460.66	4.4
460.863	3.87
461.066	4.5
461.269	5.1
461.472	5.32
461.675	4.8
461.878	5.72
462.081	5.71
462.284	5.87
462.486	5.23
462.689	5.3
462.892	5.1
463.095	5.58
463.298	4.61
463.5	4.53
463.703	4.72
463.906	4.59
464.109	4.14
464.311	3.88
464.514	2.94
464.717	3.51
464.92	3.71
465.122	3.7
465.325	3.26
465.528	3.95
465.73	3.42
465.933	3.08
466.135	3.54
466.338	3.43
466.541	3.32
466.743	4.04
466.946	3.74
467.148	3.52
467.351	3.62
467.553	4.22
467.756	3.73
467.958	3.78
468.161	3.74
468.363	3.24
468.566	3.16
468.768	3.28
468.971	3.06
469.173	3.33
469.375	3.6
469.578	3.38
469.78	3.54
469.983	3.28
470.185	3.64
470.387	4.01
470.59	4.1
470.792	4
470.994	3.99
471.196	3.81
471.399	4.29
471.601	4.19
471.803	4.8
472.005	4.34
472.208	4.8
472.41	4.73
472.612	4.53
472.814	4.16
473.016	4.11
473.218	4.39
473.421	4.66
473.623	4.35
473.825	4.51
474.027	4.13
474.229	4.05
474.431	4.05
474.633	4.55
474.835	4.6
475.037	5.02
475.239	5.6
475.441	5.89
475.643	5.73
475.845	5.35
476.047	5
476.249	5.2
476.451	5.45
476.653	5.76
476.855	5.25
477.057	4.94
477.258	4.83
477.46	4.25
477.662	3.42
477.864	3.4
478.066	3.65
478.268	4.03
478.469	3.83
478.671	4.17
478.873	3.49
479.075	3.29
479.276	3.81
479.478	3.82
479.68	3.65
479.882	4.12
480.083	4.06
480.285	4.33
480.487	4.11
480.688	4.66
480.89	4.74
481.091	4.92
481.293	5.28
481.495	5.06
481.696	5.1
481.898	5.49
482.099	5.3
482.301	5.21
482.502	5.05
482.704	5.07
482.905	4.73
483.107	4.4
483.308	4.38
483.51	4.2
483.711	4.19
483.913	4.17
484.114	4.11
484.315	4.21
484.517	4.17
484.718	4.23
484.92	4.23
485.121	4.37
485.322	4.59
485.524	4.51
485.725	4.77
485.926	4.71
486.127	4.69
486.329	4.42
486.53	4.26
486.731	4.3
486.932	4.01
487.134	4.06
487.335	4.05
487.536	4.04
487.737	4.13
487.938	3.93
488.139	4.12
488.341	4.16
488.542	4.24
488.743	4.28
488.944	4.29
489.145	4.55
489.346	4.58
489.547	4.41
489.748	4.39
489.949	4.43
490.15	4.47
490.351	4.49
490.552	4.42
490.753	4.44
490.954	4.44
491.155	4.51
491.356	4.44
491.557	4.25
491.758	4.35
491.959	4.18
492.159	4.16
492.36	4.13
492.561	4.04
492.762	4.02
492.963	3.97
493.164	3.86
493.364	3.49
493.565	3.95
493.766	4
493.967	3.91
494.167	4.32
494.368	3.99
494.569	4.03
494.769	3.82
494.97	3.87
495.171	4.11
495.371	3.92
495.572	4
495.773	3.43
495.973	3.57
496.174	3.85
496.375	3.53
496.575	3.45
496.776	3.72
496.976	4.06
497.177	4.26
497.377	4.22
497.578	4.21
497.778	4.41
497.979	4.71
498.179	4.24
498.38	4.06
498.58	4.51
498.78	5.05
498.981	5.11
499.181	5.08
499.382	4.65
499.582	4.22
499.782	4.79
499.983	5.01
500.183	5.17
500.383	5.61
500.584	5.75
500.784	5.96
500.984	5.58
501.184	5.11
501.385	5.14
501.585	5.35
501.785	5.47
501.985	5.45
502.185	5.3
502.386	5.21
502.586	5.2
502.786	5.06
502.986	4.71
503.186	5.07
503.386	5.57
503.586	5.51
503.786	5.52
503.987	5.82
504.187	5.77
504.387	5.75
504.587	5.47
504.787	5.36
504.987	5.17
505.187	5.41
505.387	5.54
505.587	5.14
505.786	5.32
505.986	5.5
506.186	5.53
506.386	5.6
506.586	5.53
506.786	5.49
506.986	5.71
507.186	5.96
507.386	5.93
507.585	5.99
507.785	5.73
507.985	5.22
508.185	5.2
508.384	5.01
508.584	5.11
508.784	5.43
508.984	4.95
509.183	4.76
509.383	5.07
509.583	4.99
509.782	4.98
509.982	5.27
510.182	5.83
510.381	5.79
510.581	5.95
510.781	5.94
510.98	5.86
511.18	6.79
511.379	6.91
511.579	6.82
511.778	6.51
511.978	6.41
512.177	6.83
512.377	6.16
512.576	6.15
512.776	6.49
512.975	6.3
513.175	5.84
513.374	5.82
513.573	5.89
513.773	6.25
513.972	6.45
514.172	6.86
514.371	6.82
514.57	6.86
514.77	7.19
514.969	6.79
515.168	6.84
515.367	7.56
515.567	7.78
515.766	7.8
515.965	7.25
516.164	7.64
516.364	7.62
516.563	7.79
516.762	8.71
516.961	8.49
517.16	8.61
517.359	8.73
517.559	8.77
517.758	8.49
517.957	8.61
518.156	9.11
518.355	9.13
518.554	8.95
518.753	8.91
518.952	8.59
519.151	9.02
519.35	9.46
519.549	9.85
519.748	10.23
519.947	10.66
520.146	10.62
520.345	10.64
520.544	10.76
520.743	10.8
520.942	10.91
521.141	11.1
521.339	10.82
521.538	10.86
521.737	10.42
521.936	10.25
522.135	9.74
522.333	10.23
522.532	10.46
522.731	10.22
522.93	10.35
523.129	10.57
523.327	10.92
523.526	11.22
523.725	10.92
523.923	11.24
524.122	11.49
524.321	11.7
524.519	11.59
524.718	11.53
524.917	11.94
525.115	12.12
525.314	12.02
525.512	12.03
525.711	12
525.909	12.5
526.108	12.72
526.306	12.79
526.505	12.91
526.703	12.95
526.902	12.97
527.1	13.06
527.299	13.19
527.497	13.18
527.696	13.11
527.894	13.26
528.092	13.1
528.291	13.12
528.489	13.04
528.688	13.32
528.886	13.52
529.084	13.77
529.283	13.72
529.481	13.84
529.679	14
529.877	14.25
530.076	14.41
530.274	14.47
530.472	14.66
530.67	14.95
530.869	14.89
531.067	14.69
531.265	14.64
531.463	14.87
531.661	14.66
531.859	14.76
532.057	14.63
532.255	14.7
532.454	14.85
532.652	14.86
532.85	14.72
533.048	14.84
533.246	14.89
533.444	14.77
533.642	14.84
533.84	14.79
534.038	15.04
534.236	15.07
534.434	14.99
534.632	15.13
534.83	15.29
535.027	15.52
535.225	15.55
535.423	15.98
535.621	16.35
535.819	16.19
536.017	16.4
536.215	16.18
536.412	16.33
536.61	16.52
536.808	16.43
537.006	16.28
537.203	16.34
537.401	16.19
537.599	16.17
537.797	15.92
537.994	16.04
538.192	16.43
538.39	16.94
538.587	17.41
538.785	17.64
538.983	17.66
539.18	17.55
539.378	17.37
539.575	17.21
539.773	17.43
539.97	17.37
540.168	17.58
540.366	17.5
540.563	17.4
540.761	17.24
540.958	17.36
541.155	17.5
541.353	17.65
541.55	17.81
541.748	18.01
541.945	17.9
542.143	18.16
542.34	17.98
542.537	17.95
542.735	17.98
542.932	18.23
543.129	18.03
543.327	18.15
543.524	18.22
543.721	18.09
543.919	18.39
544.116	18.22
544.313	18.18
544.51	18.15
544.708	18.17
544.905	18.05
545.102	17.73
545.299	17.6
545.496	17.2
545.693	17.23
545.891	17.3
546.088	17.08
546.285	17
546.482	16.87
546.679	17.37
546.876	17.62
547.073	17.58
547.27	17.43
547.467	17.38
547.664	17.76
547.861	17.98
548.058	18.15
548.255	17.47
548.452	18.01
548.649	18.24
548.846	17.52
549.043	17.32
549.24	17.44
549.437	18
549.633	18.26
549.83	18.45
550.027	18.11
550.224	18.26
550.421	19.33
550.618	19.08
550.814	18.79
551.011	19.6
551.208	19.74
551.405	20.21
551.601	20.18
551.798	20.46
551.995	20.15
552.191	20.42
552.388	20.04
552.585	20.1
552.781	20.32
552.978	20.75
553.175	20.8
553.371	20.95
553.568	20.54
553.764	20.23
553.961	19.98
554.157	20.03
554.354	19.96
554.55	20.36
554.747	20.15
554.943	20.06
555.14	19.81
555.336	19.04
555.533	18.99
555.729	18.95
555.926	19.04
556.122	19.35
556.318	19.94
556.515	19.87
556.711	20.11
556.907	19.78
557.104	19.53
557.3	20
557.496	20.78
557.693	20.68
557.889	20.36
558.085	20.8
558.281	20.78
558.478	20.59
558.674	20.53
558.87	20.16
559.066	19.93
559.262	20.1
559.459	20.01
559.655	19.97
559.851	20.2
560.047	20.67
560.243	20.86
560.439	20.95
560.635	20.91
560.831	21.09
561.027	21.37
561.223	21.79
561.419	22
561.615	22.45
561.811	22.68
562.007	22.71
562.203	22.41
562.399	21.95
562.595	21.66
562.791	21.62
562.987	20.72
563.183	20.57
563.379	20.53
563.575	20.15
563.771	19.46
563.966	19.47
564.162	19.45
564.358	19.81
564.554	19.93
564.75	19.85
564.945	20.23
565.141	21.29
565.337	21.79
565.533	22.01
565.728	22.49
565.924	23.13
566.12	22.16
566.315	22.72
566.511	23.06
566.707	23.37
566.902	23.75
567.098	23.56
567.293	23.67
567.489	23.27
567.684	23.65
567.88	23.02
568.076	22.2
568.271	23.17
568.467	22.37
568.662	22.19
568.858	22
569.053	22.21
569.248	22.73
569.444	22.17
569.639	22.53
569.835	22.13
570.03	22.61
570.225	23.09
570.421	23.22
570.616	23.39
570.812	23.64
571.007	24.05
571.202	23.86
571.397	23.47
571.593	24.31
571.788	23.93
571.983	23.94
572.178	24.29
572.374	24.26
572.569	23.94
572.764	23.73
572.959	23.38
573.154	22.68
573.35	22.91
573.545	22.68
573.74	21.71
573.935	21.92
574.13	22.44
574.325	22.44
574.52	22.59
574.715	22.67
574.91	23.3
575.105	23.05
575.3	23.39
575.495	22.83
575.69	22.72
575.885	23.16
576.08	23.82
576.275	23.39
576.47	23.27
576.665	23.76
576.86	24.39
577.055	23.83
577.25	24.56
577.444	24.55
577.639	25.27
577.834	25.28
578.029	25.76
578.224	25.03
578.418	25.96
578.613	26.25
578.808	25.74
579.003	25.64
579.197	25.88
579.392	25.69
579.587	26.17
579.781	26.08
579.976	26.7
580.171	26.66
580.365	27.17
580.56	25.8
580.755	25.6
580.949	25.26
581.144	25.37
581.338	25.7
581.533	26.3
581.727	25.86
581.922	25.98
582.116	25.65
582.311	25.17
582.505	24.69
582.7	25.53
582.894	26.29
583.089	26.48
583.283	26.69
583.478	26.9
583.672	26.52
583.866	26.5
584.061	26.52
584.255	26.86
584.449	26.97
584.644	26.96
584.838	26.94
585.032	25.8
585.226	25.58
585.421	25.37
585.615	25.29
585.809	24.75
586.003	25.19
586.198	25
586.392	24.84
586.586	25.14
586.78	25.72
586.974	25.14
587.168	25.35
587.363	25.67
587.557	26.04
587.751	26.12
587.945	26.14
588.139	26.1
588.333	26.65
588.527	27.46
588.721	27.58
588.915	27.35
589.109	28
589.303	27.99
589.497	28.01
589.691	27.22
589.885	26.86
590.079	27.61
590.273	28.1
590.466	27.31
590.66	26.75
590.854	26.83
591.048	26.92
591.242	26.84
591.436	26.6
591.629	26.35
591.823	26.27
592.017	27.25
592.211	27.03
592.404	26.81
592.598	26.6
592.792	26.71
592.986	26.91
593.179	26.58
593.373	26.43
593.567	26.85
593.76	27.37
593.954	27.76
594.147	26.89
594.341	27.2
594.535	27.04
594.728	27.57
594.922	27.49
595.115	27.37
595.309	27.66
595.502	27.07
595.696	26.71
595.889	26.37
596.083	26.56
596.276	27.08
596.47	26.67
596.663	26.85
596.856	26.56
597.05	26.91
597.243	26.67
597.437	27.03
597.63	27.74
597.823	28.11
598.017	27.8
598.21	27.71
598.403	27
598.596	27.1
598.79	26.76
598.983	27.25
599.176	26.63
599.369	26.21
599.563	26.28
599.756	26.17
599.949	25.99
600.142	26.43
600.335	25.8
600.528	25.72
600.722	25.78
600.915	25.86
601.108	26.65
601.301	27.4
601.494	27.88
601.687	26.81
601.88	26.88
602.073	27.43
602.266	28.27
602.459	28.32
602.652	28.91
602.845	28.81
603.038	29.03
603.231	28.25
603.424	27.84
603.617	28.16
603.809	28.31
604.002	28.26
604.195	28.78
604.388	28.5
604.581	28.08
604.774	27.94
604.966	27.99
605.159	27.55
605.352	27.84
605.545	28.06
605.737	27.86
605.93	28.7
606.123	28.85
606.316	27.81
606.508	27.62
606.701	28.75
606.894	28.89
607.086	28.14
607.279	28.44
607.471	28.16
607.664	27.76
607.857	27.43
608.049	27.32
608.242	27.68
608.434	27.71
608.627	27.51
608.819	26.83
609.012	26.9
609.204	27.33
609.397	26.59
609.589	27.16
609.782	27.42
609.974	27.96
610.166	27.4
610.359	27.39
610.551	27.18
610.743	27.25
610.936	28.39
611.128	27.82
611.32	27.46
611.513	28.27
611.705	27.88
611.897	28.35
612.09	27.7
612.282	28.77
612.474	27.7
612.666	27.95
612.858	28.33
613.051	27.13
613.243	27.45
613.435	27.65
613.627	28.7
613.819	28.46
614.011	28.43
614.203	27.96
614.395	27.17
614.588	27.84
614.78	28.18
614.972	28.26
615.164	28.85
615.356	28.73
615.548	29.7
615.74	28.72
615.932	28.03
616.124	27.59
616.315	28.19
616.507	28.4
616.699	28.66
616.891	28.37
617.083	27.85
617.275	27.37
617.467	27.31
617.659	28.18
617.85	28.59
618.042	28.94
618.234	28.74
618.426	28.99
618.618	28.96
618.809	28.88
619.001	27.6
619.193	27.21
619.384	27.61
619.576	27.76
619.768	25.77
619.959	25.78
620.151	26.11
620.343	26.67
620.534	26.24
620.726	25.8
620.917	25.33
621.109	26.62
621.301	26.75
621.492	26.34
621.684	26.67
621.875	27.92
622.067	27.44
622.258	27.28
622.45	26.83
622.641	27.68
622.832	29.84
623.024	29.73
623.215	30.21
623.407	30.82
623.598	30.6
623.789	30.51
623.981	30.18
624.172	30.02
624.363	30.65
624.555	30.26
624.746	29.2
624.937	27.35
625.129	27.8
625.32	27.68
625.511	26.86
625.702	27.33
625.893	26.54
626.085	26.67
626.276	26.76
626.467	26.34
626.658	26.16
626.849	27.48
627.04	27.4
627.231	27.53
627.422	26.78
627.614	26.43
627.805	27.13
627.996	28.25
628.187	28
628.378	28.23
628.569	27.69
628.76	28.43
628.951	27.61
629.142	27.45
629.332	26.85
629.523	27.48
629.714	28.78
629.905	27.92
630.096	27.83
630.287	27.78
630.478	27.89
630.669	28.36
630.859	28.08
631.05	28.71
631.241	29.83
631.432	29.79
631.623	29.62
631.813	29.06
632.004	29.35
632.195	28.56
632.385	28.16
632.576	27.75
632.767	27.06
632.957	27.04
633.148	26.08
633.339	25.14
633.529	25.43
633.72	25.75
633.91	25.53
634.101	25.07
634.292	24.55
634.482	24.99
634.673	25.04
634.863	25.84
635.054	26.07
635.244	26.46
635.435	26.35
635.625	26.84
635.815	26.12
636.006	26.5
636.196	26.6
636.387	27.84
636.577	27.06
636.767	27.83
636.958	28.02
637.148	27.74
637.338	28.16
637.529	28.14
637.719	27.7
637.909	27.32
638.099	27.33
638.29	26.57
638.48	26.68
638.67	28.06
638.86	27.02
639.05	25.97
639.241	25.54
639.431	25.04
639.621	25.46
639.811	25.77
640.001	26.13
640.191	26.11
640.381	26.58
640.571	26.53
640.761	25.33
640.951	25.89
641.141	25.68
641.331	27.05
641.521	26.17
641.711	25.7
641.901	26.06
642.091	26.82
642.281	26.98
642.471	28.14
642.661	27.87
642.851	28.54
643.041	30.14
643.231	30.88
643.42	30.73
643.61	31.86
643.8	31.83
643.99	30.76
644.18	30.08
644.369	29.96
644.559	29.4
644.749	29.37
644.939	28.59
645.128	27.33
645.318	28.1
645.508	27.21
645.697	27.43
645.887	27.9
646.076	29.05
646.266	29
646.456	28.86
646.645	28.7
646.835	29.18
647.024	28.95
647.214	28.73
647.403	28.44
647.593	28.67
647.782	27.85
647.972	27.69
648.161	26.44
648.351	26.13
648.54	25.82
648.73	26.27
648.919	25.78
649.108	27.36
649.298	26.51
649.487	26.86
649.677	26.08
649.866	26.42
650.055	27.49
650.244	28.14
650.434	29.3
650.623	29.33
650.812	29.53
651.002	30.61
651.191	29.39
651.38	29.87
651.569	29.96
651.758	29.9
651.947	29.01
652.137	27.03
652.326	26.68
652.515	24.76
652.704	25.3
652.893	26.27
653.082	25.75
653.271	27.4
653.46	27.77
653.649	26.72
653.838	28.41
654.027	29.21
654.216	29.49
654.405	30.39
654.594	31.72
654.783	31.53
654.972	30.26
655.161	29.39
655.35	28.47
655.539	28.35
655.728	28.96
655.916	27.8
656.105	27.38
656.294	29.21
656.483	28.31
656.672	28.62
656.86	27.9
657.049	28.73
657.238	29.3
657.427	29.76
657.615	29.62
657.804	29.15
657.993	29.03
658.181	29.93
658.37	29.75
658.559	29.1
658.747	28.8
658.936	28.9
659.125	28.34
659.313	27.99
659.502	27.34
659.69	27.4
659.879	28.16
660.067	29.21
660.256	29.03
660.444	28.63
660.633	29.65
660.821	30.51
661.01	31.16
661.198	31.3
661.387	31.32
661.575	30.76
661.763	30.59
661.952	30.39
662.14	29.06
662.328	29.07
662.517	28.79
662.705	28.56
662.893	28.1
663.082	29.01
663.27	28.32
663.458	27.73
663.646	28.92
663.834	28.9
664.023	28.28
664.211	28.43
664.399	27.84
664.587	27.74
664.775	27.94
664.963	27.17
665.152	26.49
665.34	25.89
665.528	25.81
665.716	25.43
665.904	25.18
666.092	25.67
666.28	26.42
666.468	26.34
666.656	26.59
666.844	26.58
667.032	26.73
667.22	26.62
667.408	27.95
667.596	28.72
667.784	28.76
667.971	28.33
668.159	28
668.347	28.28
668.535	28.15
668.723	28.55
668.911	28.94
669.098	30.07
669.286	30.52
669.474	30.03
669.662	29.75
669.849	29.99
670.037	31.28
670.225	31.82
670.413	31.04
670.6	32.74
670.788	32.33
670.976	31.93
671.163	31
671.351	31.63
671.538	31.81
671.726	31.68
671.913	30.95
672.101	30.47
672.289	30.55
672.476	31.97
672.664	31.08
672.851	30.22
673.039	30.13
673.226	29.42
673.413	28.28
673.601	28.78
673.788	28.75
673.976	31.44
674.163	32.07
674.35	30.98
674.538	29.73
674.725	30.17
674.912	31.3
675.1	32.33
675.287	33.04
675.474	33.51
675.662	33.24
675.849	33.82
676.036	31.46
676.223	30.74
676.411	30.9
676.598	30.05
676.785	29.91
676.972	29.22
677.159	28.44
677.346	27.83
677.533	25.67
677.721	24.37
677.908	24.84
678.095	25.16
678.282	26.45
678.469	26.96
678.656	27.23
678.843	27.24
679.03	27.46
679.217	26.98
679.404	27.77
679.591	28.29
679.778	28.65
679.964	29
680.151	28.33
680.338	27.33
680.525	27.74
680.712	27.99
680.899	26.93
681.086	27.67
681.272	28.89
681.459	28.07
681.646	28.45
681.833	28.56
682.02	27.54
682.206	28.68
682.393	26.88
682.58	26.11
682.766	27.34
682.953	26.9
683.14	26.02
683.326	23.97
683.513	25.08
683.7	24.62
683.886	26.59
684.073	25.3
684.259	24.67
684.446	27.08
684.632	27.53
684.819	26.01
685.005	28.35
685.192	29.2
685.378	30.78
685.565	31.03
685.751	32.29
685.938	31.67
686.124	33.28
686.31	31.85
686.497	31.32
686.683	30.76
686.87	31.9
687.056	30.99
687.242	30.8
687.429	29.12
687.615	27.62
687.801	27.39
687.987	27.93
688.174	27.71
688.36	29.21
688.546	30.24
688.732	30.17
688.918	29.01
689.105	29.88
689.291	30.09
689.477	32.85
689.663	32.58
689.849	33.13
690.035	31.13
690.221	31.7
690.407	29.92
690.593	29.32
690.779	30.2
690.965	31.44
691.151	28.94
691.337	29.1
691.523	27.4
691.709	28.07
691.895	28
692.081	29.93
692.267	29.52
692.453	30.34
692.639	30.46
692.825	30.07
693.011	30.88
693.196	32.64
693.382	31.98
693.568	31.16
693.754	32.12
693.94	30.96
694.125	29.11
694.311	29.17
694.497	30.03
694.682	30.69
694.868	29.95
695.054	27.35
695.239	27.07
695.425	25.92
695.611	26.6
695.796	27.18
695.982	25.8
696.168	26.34
696.353	25.77
696.539	25.68
696.724	24.94
696.91	25.46
697.095	26.58
697.281	26.53
697.466	27.21
697.652	28.01
697.837	27.13
698.023	27.4
698.208	28.06
698.393	29.54
698.579	29.82
698.764	30.01
698.949	29.84
699.135	30.54
699.32	29.99
699.505	31.59
699.691	31.13
699.876	31.71
700.061	32.92
700.246	31.92
700.432	30.72
700.617	31.66
700.802	31.02
700.987	33.04
701.172	30.84
701.358	31.2
701.543	29.11
701.728	27.56
701.913	30.91
702.098	31.61
702.283	32.27
702.468	30.99
702.653	29.87
702.838	31.08
703.023	29.1
703.208	30.11
703.393	30.34
703.578	30.24
703.763	30.98
703.948	27.9
704.133	28.6
704.318	28.94
704.503	29.69
704.688	31.54
704.873	29.88
705.057	30.26
705.242	30.64
705.427	31.09
705.612	30.23
705.797	30.76
705.981	30.24
706.166	28.7
706.351	27.89
706.536	29.48
706.72	26.77
706.905	25.72
707.09	26.34
707.274	27.19
707.459	26.43
707.644	26.82
707.828	28.21
708.013	27.82
708.197	26.04
708.382	25.83
708.567	23.7
708.751	24.51
708.936	27.94
709.12	28.48
709.305	27.93
709.489	28.7
709.673	29.47
709.858	27.73
710.042	27.36
710.227	30.36
710.411	32.31
710.596	33.21
710.78	33.78
710.964	34.57
711.149	33.28
711.333	32.17
711.517	32.12
711.702	30.49
711.886	31.28
712.07	31.15
712.254	28.42
712.438	25.97
712.623	25.48
712.807	25.02
712.991	23.65
713.175	25.02
713.359	26.28
713.544	26.03
713.728	27.98
713.912	28.27
714.096	29.7
714.28	30.79
714.464	31.19
714.648	31.71
714.832	30.77
715.016	28.59
715.2	27.38
715.384	28.29
715.568	27.24
715.752	27.73
715.936	27.88
716.12	27.95
716.304	28.46
716.488	29.74
716.671	31.02
716.855	32.55
717.039	33.55
717.223	33.38
717.407	33.06
717.59	35.05
717.774	34.02
717.958	34.13
718.142	34.85
718.325	34.39
718.509	32.5
718.693	29.77
718.877	28.37
719.06	28.49
719.244	29.14
719.428	28.57
719.611	29.11
719.795	28.62
719.978	28.67
720.162	25.69
720.345	25.37
720.529	25.94
720.713	27.19
720.896	29.44
721.08	31.27
721.263	32.16
721.446	28.94
721.63	29.03
721.813	30.79
721.997	30.56
722.18	31.62
722.364	32.2
722.547	34.66
722.73	35.74
722.914	37.28
723.097	36.88
723.28	35.25
723.464	34.63
723.647	32.68
723.83	30.66
724.013	30.42
724.197	31.12
724.38	31.01
724.563	27.01
724.746	23.71
724.929	21.54
725.112	19.78
725.296	21.63
725.479	23.54
725.662	24.44
725.845	25.78
726.028	25.22
726.211	24.96
726.394	23.9
726.577	26.6
726.76	27.66
726.943	25.58
727.126	27.19
727.309	28.34
727.492	28.9
727.675	27.97
727.858	30.06
728.041	31.47
728.224	31.29
728.407	34.17
728.589	34.39
728.772	35.38
728.955	38.95
729.138	38.42
729.321	36.87
729.503	36.96
729.686	38.44
729.869	36.7
730.052	34.48
730.234	33.83
730.417	32.54
730.6	31.39
730.782	30.67
730.965	27.56
731.148	27.15
731.33	26.64
731.513	26.15
731.695	23.53
731.878	22.26
732.061	22.71
732.243	21.25
732.426	21.16
732.608	21.64
732.791	21.46
732.973	23.98
733.156	24.49
733.338	25.23
733.52	25.54
733.703	28.46
733.885	32.1
734.068	34.26
734.25	36.48
734.432	35.81
734.615	35.43
734.797	35.33
734.979	34.36
735.162	32.67
735.344	31.4
735.526	31.05
735.708	32.03
735.891	29.09
736.073	24.42
736.255	25.47
736.437	26.69
736.619	26.07
736.802	27.73
736.984	26.45
737.166	27.71
737.348	28.75
737.53	29.18
737.712	27.81
737.894	27.87
738.076	28.49
738.258	28.14
738.44	29.04
738.622	28.59
738.804	25.28
738.986	26.74
739.168	27.46
739.35	27.31
739.532	26.51
739.714	27.18
739.896	26.27
740.078	28.92
740.259	30.05
740.441	29.06
740.623	31.23
740.805	32.62
740.987	31.29
741.168	31.92
741.35	29.7
741.532	29.59
741.714	29.01
741.895	29.27
742.077	30.27
742.259	28.8
742.44	26.33
742.622	27.51
742.804	28.36
742.985	29.11
743.167	26.78
743.348	29.39
743.53	30.7
743.711	27.8
743.893	25.66
744.075	24.88
744.256	27.2
744.438	28.77
744.619	29.56
744.8	31.13
744.982	30.08
745.163	31.02
745.345	29.46
745.526	32.44
745.707	32.61
745.889	33.98
746.07	34.86
746.252	33.42
746.433	33.98
746.614	31.19
746.795	32.07
746.977	32.49
747.158	32.1
747.339	31.75
747.52	29.72
747.702	26.8
747.883	27.06
748.064	23.57
748.245	19.3
748.426	19.29
748.607	18.29
748.788	13.97
748.97	13.27
749.151	16.87
749.332	15.92
749.513	15.76
749.694	20.28
749.875	21.5
750.056	21.27
750.237	25.68
750.418	24.82
750.599	25.24
750.78	28.91
750.96	27.38
751.141	25.36
751.322	27.46
751.503	23.98
751.684	22.08
751.865	24.16
752.046	25.91
752.226	25.53
752.407	27.17
752.588	27.02
752.769	26.53
752.949	28.78
753.13	27.81
753.311	28.34
753.492	29.21
753.672	30.46
753.853	27.64
754.034	30.42
754.214	31.42
754.395	28.71
754.575	28.46
754.756	24.59
754.937	25.86
755.117	28.4
755.298	25.44
755.478	27.59
755.659	30.73
755.839	31.91
756.02	31.06
756.2	29.36
756.381	31.36
756.561	29.09
756.741	33.09
756.922	31.35
757.102	27.51
757.283	28.16
757.463	28.51
757.643	28.26
757.823	24.81
758.004	22.35
758.184	21.02
758.364	19.67
758.545	19.21
758.725	16.78
758.905	16.15
759.085	16.26
759.265	16.92
759.446	12.44
759.626	13.65
759.806	15.78
759.986	19.66
760.166	18.63
760.346	19.89
760.526	24.57
760.706	24.69
760.886	27.71
761.066	30.71
761.246	31.78
761.426	36.89
761.606	35.86
761.786	36.18
761.966	35.25
762.146	36.98
762.326	36.22
762.506	34.46
762.686	35.23
762.866	33.92
763.046	33.22
763.225	33.03
763.405	32.34
763.585	29.49
763.765	30.26
763.945	28.54
764.124	27.19
764.304	27.56
764.484	29.08
764.664	27.35
764.843	24.52
765.023	24.11
765.203	25.06
765.382	22.94
765.562	26.49
765.741	23.21
765.921	23.75
766.101	26.02
766.28	25.66
766.46	25.17
766.639	24.96
766.819	28.71
766.998	27.85
767.178	29.27
767.357	32.25
767.537	27.93
767.716	29.16
767.896	28.97
768.075	29.11
768.254	27.5
768.434	24.36
768.613	25.59
768.792	26.18
768.972	28.82
769.151	24.75
769.33	24.09
769.51	27.78
769.689	30.09
769.868	30.5
770.047	26.1
770.226	28.85
770.406	33.83
770.585	37.16
770.764	38.22
770.943	36.43
771.122	39.18
771.301	37.19
771.48	35.79
771.66	34.05
771.839	36.33
772.018	43.91
772.197	40.76
772.376	39.18
772.555	36.41
772.734	32.9
772.913	29.87
773.092	27.61
773.271	27.05
773.449	27.68
773.628	24.38
773.807	21.7
773.986	15.03
774.165	18.34
774.344	15.34
774.523	17.79
774.701	20.2
774.88	20.51
775.059	25.15
775.238	19.6
775.417	16.25
775.595	19.62
775.774	19.62
775.953	19.03
776.131	16.98
776.31	23.54
776.489	18.95
776.667	19.45
776.846	27.26
777.025	21.98
777.203	31.11
777.382	32.55
777.56	31.66
777.739	32.23
777.917	33.64
778.096	31.26
778.274	26.4
778.453	29.75
778.631	29.28
778.81	23.99
778.988	28.55
779.166	25.88
779.345	30.56
779.523	27.19
779.702	26.59
779.88	29.39
780.058	30.66
780.237	28.08
780.415	31.46
780.593	29.09
780.771	28.41
780.95	26.16
781.128	21.96
781.306	18.75
781.484	21.25
781.662	22.7
781.841	18.74
782.019	18.1
782.197	24.05
782.375	17.86
782.553	22.93
782.731	25.39
782.909	23.14
783.087	31.87
783.265	32.27
783.443	35.78
783.621	38.63
783.799	41.67
783.977	47.17
784.155	40.34
784.333	45.99
784.511	43.12
784.689	41.54
784.867	43.47
785.045	37.45
785.223	35.53
785.4	36.89
785.578	30.33
785.756	33.37
785.934	30.93
786.112	32.12
786.289	25.96
786.467	22.73
786.645	22.39
786.823	21.28
787	21.8
787.178	24.56
787.356	24.12
787.533	24.91
787.711	22.33
787.889	19.2
788.066	23.06
788.244	24.65
788.421	27.06
788.599	35.22
788.776	34.64
788.954	34.67
789.131	37.71
789.309	36.55
789.486	39.16
789.664	38.98
789.841	39.69
790.019	36.07
790.196	37.46
790.373	37.92
790.551	29.42
790.728	31.36
790.906	28.65
791.083	32.71
791.26	36.92
791.437	35.99
791.615	36.95
791.792	39.11
791.969	44.64
792.146	45.82
792.324	51.72
792.501	52.86
792.678	53.31
792.855	56.52
793.032	44.11
793.209	38.76
793.387	39.66
793.564	40.6
793.741	33.11
793.918	28.77
794.095	23.73
794.272	14.72
794.449	16.95
794.626	14.43
794.803	11.73
794.98	15.92
795.157	19.52
795.334	15.17
795.511	14.45
795.688	18.28
795.864	20.45
796.041	17.11
796.218	18.27
796.395	18.18
796.572	22.98
796.749	26.69
796.925	24.87
797.102	23.46
797.279	25.2
797.456	26.01
797.632	24.61
797.809	20.45
797.986	18.81
798.162	22.86
798.339	25
798.516	27.25
798.692	24
798.869	23.85
799.046	24.65
799.222	28.64
799.399	31.21
799.575	33.54
799.752	36.26
799.928	41.05
800.105	40.85
800.281	40.24
800.458	38.8
800.634	41.04
800.811	40.63
800.987	39.98
801.163	39.55
801.34	37.99
801.516	38.93
801.692	38.24
801.869	36.54
802.045	34.32
802.221	31.44
802.398	30.26
802.574	29.7
802.75	30.07
802.926	30.65
803.103	30.37
803.279	33.32
803.455	28.95
803.631	32.39
803.807	32.02
803.983	26.47
804.16	24.27
804.336	19.42
804.512	12.4
804.688	8.25
804.864	-6.27
805.04	-3.65
805.216	-12.56
805.392	-0.13
805.568	8.38
805.744	14.05
805.92	22.65
806.096	21.7
806.272	21.9
806.448	29.77
806.623	23.63
806.799	35.83
806.975	26.21
807.151	26.24
807.327	23.45
807.503	13.05
807.678	13.4
807.854	9.45
808.03	20.34
808.206	23.93
808.381	17.91
808.557	28.21
808.733	23.11
808.908	28.35
809.084	24.7
809.26	18.55
809.435	22.52
809.611	19.23
809.787	19.61
809.962	17.56
810.138	17.19
810.313	27.69
810.489	23.81
810.664	19.87
810.84	15.7
811.015	26.16
811.191	26.71
811.366	21.96
811.542	17.23
811.717	19.72
811.892	10.47
812.068	10.91
812.243	0.37
812.419	-8.36
812.594	-6.1
812.769	-5.24
812.944	-7.55
813.12	-5.04
813.295	8.26
813.47	20.37
813.645	20.05
813.821	27.88
813.996	27.17
814.171	32.88
814.346	40.85
814.521	40.44
814.697	43.61
814.872	39.82
815.047	44.27
815.222	35.67
815.397	38.3
815.572	35.17
815.747	25.4
815.922	21.02
816.097	13.24
816.272	11.47
816.447	18.36
816.622	17.85
816.797	17.43
816.972	23.68
817.147	21.3
817.322	14.79
817.496	23.11
817.671	30.79
817.846	32.98
818.021	33.85
818.196	31.91
818.371	25.88
818.545	23.09
818.72	23.19
818.895	21.9
819.069	26.75
819.244	27.06
819.419	25.18
819.594	26.25
819.768	27.47
819.943	28.29
820.117	29.36
820.292	28.8
820.467	27.44
820.641	27.59
820.816	25.85
820.99	25.49
821.165	25.24
821.339	26.17
821.514	25.93
821.688	25.45
821.863	24.79
822.037	25.51
822.212	26.47
822.386	28.45
822.56	28.23
822.735	28.09
822.909	29.39
823.084	30.18
823.258	28.42
823.432	28.32
823.606	29.08
823.781	30.2
823.955	28.43
824.129	28.65
824.303	27.39
824.478	27.56
824.652	28.79
824.826	27.11
825	26.47
825.174	27.81
825.348	28.41
825.523	28.48
825.697	27.43
825.871	28.76
826.045	27.99
826.219	27.84
826.393	28.07
826.567	28.36
826.741	28.53
826.915	29.13
827.089	30.23
827.263	31.79
827.437	32.01
827.611	35.37
827.784	34.39
827.958	34.85
828.132	33.79
828.306	33.6
828.48	31.63
828.654	29.78
828.827	31.17
829.001	25.79
829.175	22.63
829.349	19.91
829.522	13.64
829.696	15.46
829.87	15.69
830.044	18.75
830.217	19.76
830.391	19.98
830.565	25.29
830.738	27.72
830.912	31.11
831.085	33.29
831.259	32.02
831.432	28.6
831.606	26.79
831.779	23.57
831.953	26.62
832.126	26.86
832.3	29.84
832.473	27.31
832.647	24.18
832.82	27.85
832.994	25.16
833.167	28.04
833.34	30.49
833.514	28.47
833.687	29.9
833.86	27.37
834.034	24.31
834.207	21.71
834.38	20.97
834.553	20.49
834.727	21.26
834.9	23.53
835.073	20.65
835.246	18.38
835.419	16.96
835.593	11.94
835.766	11.14
835.939	15
836.112	15.6
836.285	13.3
836.458	12.44
836.631	7.62
836.804	2.95
836.977	2.35
837.15	1.69
837.323	3.6
837.496	5.46
837.669	6.99
837.842	5.28
838.015	5.3
838.188	13.9
838.361	12.77
838.533	9.27
838.706	8.39
838.879	9.65
839.052	17.85
839.225	5.59
839.398	-1.33
839.57	1.47
839.743	7.36
839.916	16.83
840.088	13.54
840.261	10.87
840.434	11.73
840.607	9.27
840.779	6.12
840.952	2.33
841.124	11.91
841.297	14.6
841.47	15.73
841.642	12.22
841.815	3.84
841.987	7.14
842.16	11.48
842.332	11.17
842.505	20.48
842.677	11.13
842.85	3.89
843.022	4.52
843.194	10.84
843.367	6.1
843.539	-0.88
843.712	-22.23
843.884	-36.73
844.056	-32.79
844.229	-68.62
844.401	-80.26
844.573	-54.16
844.745	-54.4
844.918	-121.22
845.09	-48.17
845.262	-69.71
845.434	-86.92
845.606	-37.16
845.779	-44.53
845.951	-87.03
846.123	-55.44
846.295	-47.47
846.467	-37.74
846.639	0.79
846.811	6.79
846.983	16.14
847.155	23.52
847.327	20.36
847.499	14.35
847.671	-5.23
847.843	2.03
848.015	8.02
848.187	-3.16
848.359	-3.87
848.531	-11.14
848.703	-16.01
848.875	-27.22
849.047	-4.82
849.218	5.87
849.39	17.3
849.562	26.01
849.734	19.97
849.905	22.72
850.077	20.56
850.249	10.46
850.421	-2.02
850.592	2.02
850.764	11.79
850.936	-40.9
851.107	-41.42
851.279	-31.41
851.451	-36.81
851.622	-12.23
851.794	-5.7
851.965	5.08
852.137	7.8
852.308	24.18
852.48	35.52
852.651	26.25
852.823	55.63
852.994	53.39
853.166	56.48
853.337	75.49
853.509	93.09
853.68	89.71
853.851	96.12
854.023	89.65
854.194	42.76
854.365	-206.31
854.537	17.63
854.708	-1.23
854.879	29.56
855.05	47.94
855.222	19.75
855.393	-10.05
855.564	-17.61
855.735	-26.86
855.906	-11.8
856.078	4.76
856.249	28.4
856.42	32.33
856.591	43.09
856.762	40.7
856.933	33.42
857.104	46.39
857.275	52.22
857.446	59.64
857.617	56.27
857.788	64.73
857.959	63.36
858.13	49.31
858.301	30.17
858.472	13.49
858.643	13.86
858.814	7.26
858.985	-26.3
859.155	-36.5
859.326	-76.14
859.497	-49.88
859.668	-57.78
859.839	-42.35
860.009	-24.31
860.18	-0.53
860.351	16.32
860.522	10.97
860.692	-1.79
860.863	8.61
861.034	0.84
861.204	17.6
861.375	34.02
861.546	34.52
861.716	41.76
861.887	31.51
862.057	12.24
862.228	-18.26
862.398	-9.92
862.569	13.79
862.739	19.73
862.91	25.79
863.08	4.4
863.251	-2.12
863.421	13.5
863.592	-2.21
863.762	3.24
863.932	26.72
864.103	49.98
864.273	47.76
864.443	25.52
864.614	26.34
864.784	36.34
864.954	58.19
865.125	56.96
865.295	43.62
865.465	48.42
865.635	29.15
865.805	9.27
865.976	-34.32
866.146	-20.77
866.316	-137.95
866.486	-89.67
866.656	-43.68
866.826	-107.53
866.996	-159.83
867.166	-121.16
867.336	-1201.93
867.506	-1107.07
867.676	-49.12
867.846	-13.58
868.016	3.35
868.186	23.98
868.356	18.85
868.526	26.67
868.696	8.37
868.866	18.22
869.036	-31.1
869.206	-29.28
869.376	-13.13
869.545	-85.09
869.715	-153.31
869.885	-357.51
870.055	3705.61
870.224	767.2
870.394	485.44
870.564	421.95
870.734	562.66
870.903	-487.71
871.073	317.43
871.243	132.96
871.412	-59.71
871.582	-24.51
871.751	-43.76
871.921	1.63
872.091	35.07
872.26	15.02
872.43	22.31
872.599	22.67
872.769	1.98
872.938	-9.94
873.108	-3.61
873.277	4.53
873.446	8.26
873.616	24.36
873.785	15.37
873.955	-2.55
874.124	13.67
874.293	9.67
874.463	5.64
874.632	14.24
874.801	16.84
874.971	22.52
875.14	22.91
875.309	22.69
875.478	11.4
875.647	24.4
875.817	29.18
875.986	46.86
876.155	63.62
876.324	53.32
876.493	58.53
876.662	62.29
876.831	44.02
877	42.15
877.17	49.36
877.339	56.16
877.508	65.54
877.677	59.68
877.846	23.51
878.015	6.34
878.184	14.81
878.352	27.01
878.521	28.31
878.69	34.61
878.859	15.92
879.028	12.66
879.197	13.65
879.366	6.86
879.534	5.9
879.703	-1.73
879.872	0.19
880.041	11.46
880.21	8.21
880.378	18.89
880.547	20.61
880.716	18.58
880.884	16.86
881.053	19.85
881.222	16.59
881.39	18.73
881.559	24.1
881.727	21.79
881.896	20.32
882.065	20.42
882.233	19.23
882.402	17.96
882.57	19.31
882.739	19.57
882.907	16.69
883.076	19.56
883.244	19.29
883.412	21.45
883.581	22.78
883.749	25.98
883.918	27.19
884.086	25.4
884.254	28.17
884.423	30.87
884.591	22.52
884.759	23.83
884.927	24.28
885.096	27.09
885.264	18.39
885.432	24
885.6	19.63
885.769	14.59
885.937	27.54
886.105	23.94
886.273	11.75
886.441	34.33
886.609	26.25
886.777	9.51
886.945	-11.57
887.113	-22.21
887.281	-32.04
887.449	-43.22
887.617	-26.51
887.785	-43.69
887.953	-49.42
888.121	-30.86
888.289	-38.2
888.457	-32
888.625	-39.7
888.793	-34.03
888.961	-24.52
889.129	-22.94
889.296	-9.6
889.464	-25.12
889.632	-27.54
889.8	-30.34
889.967	-32.77
890.135	-64.09
