Data from JASIL_3236_Reflection_1.txt Node
Date: Mon Nov 16 20:06:25 EST 2015
User: Geneva
Spectrometer: USB4E03002
Autoset integration time: false
Trigger mode: 4
Integration Time (sec): 1.000000E-1
Scans to average: 10
Electric dark correction enabled: false
Nonlinearity correction enabled: false
Boxcar width: 5
Stray light correction enabled: false
XAxis mode: Wavelengths
Stop averaging: false
Number of Pixels in Spectrum: 3648
>>>>>Begin Spectral Data<<<<<
177.575	1004.9
177.794	1693.94
178.014	1086.36
178.233	903.51
178.452	662.14
178.672	1175.62
178.891	1567.69
179.11	1380.25
179.33	1545.71
179.549	949.11
179.768	1048.05
179.987	673.86
180.207	556.53
180.426	758.04
180.645	888.22
180.864	1008.33
181.084	654.09
181.303	760.49
181.522	871.94
181.741	689.89
181.96	616.19
182.179	765.47
182.398	1023.08
182.618	3848.53
182.837	3188.89
183.056	2952.81
183.275	1659.37
183.494	3453.33
183.713	1423.66
183.932	847.24
184.151	1212.26
184.37	1337.63
184.589	1126.94
184.808	1144.29
185.027	733.81
185.246	626.48
185.465	633.91
185.684	1190.78
185.903	859.44
186.122	965.11
186.341	3671.87
186.56	1580.67
186.779	-2638.96
186.998	-2080.81
187.216	-1170.35
187.435	-4868.29
187.654	-2569.33
187.873	-3448.21
188.092	-4866.67
188.311	-17870
188.53	-1789.8
188.748	2672.97
188.967	-3206.56
189.186	2765.79
189.405	1284.12
189.623	1069.38
189.842	2068.57
190.061	3011.59
190.28	1318.67
190.498	1820.31
190.717	3094.12
190.936	2147.52
191.154	5134.88
191.373	2883.54
191.592	2395.56
191.81	2817.57
192.029	2339.13
192.248	-4928.21
192.466	-5567.65
192.685	-775.98
192.904	-1074.51
193.122	-800
193.341	-2020
193.559	-1183.77
193.778	-1565.79
193.996	3920.75
194.215	-4339.13
194.433	-954.69
194.652	-980.68
194.87	-1067.82
195.089	-1947.75
195.307	-1224.21
195.526	-1654.42
195.744	-1068.49
195.963	-762.41
196.181	-581.18
196.399	-344.16
196.618	-288.5
196.836	-702.28
197.055	-688
197.273	-36166.67
197.491	-6530.3
197.71	1537.68
197.928	5112.5
198.146	3395.24
198.365	1517.53
198.583	810.55
198.801	603.48
199.019	399.83
199.238	518.07
199.456	472.75
199.674	645.03
199.892	588.86
200.111	688.71
200.329	523.02
200.547	687
200.765	1019
200.983	7600
201.202	-2122.12
201.42	-1734.13
201.638	-3681.97
201.856	9315.38
202.074	2437.38
202.292	5626.09
202.51	-4034.48
202.728	4252.73
202.946	2080.37
203.165	1209.09
203.383	1107.69
203.601	868.73
203.819	1576.35
204.037	2993.15
204.255	6505.88
204.473	-3461.29
204.691	-9509.09
204.909	-12852.94
205.127	-1864.17
205.345	5604.65
205.562	1634.46
205.78	994.09
205.998	763.32
206.216	608.94
206.434	745.48
206.652	674.14
206.87	797.19
207.088	600
207.306	851.7
207.523	1351.91
207.741	4242.11
207.959	14243.75
208.177	-6283.33
208.395	-1326.67
208.612	-1747.54
208.83	1999.13
209.048	2063.48
209.266	229100
209.483	-2248.54
209.701	12240
209.919	1955.56
210.136	826.32
210.354	621
210.572	481.15
210.79	376.87
211.007	369.56
211.225	421.76
211.442	418.83
211.66	323.44
211.878	365.83
212.095	296.12
212.313	291.61
212.53	387.65
212.748	440.68
212.966	539.77
213.183	698.47
213.401	656.98
213.618	733.01
213.836	619.35
214.053	689.81
214.271	398.55
214.488	446.85
214.705	507.26
214.923	399.25
215.14	650.55
215.358	509.27
215.575	712.07
215.793	661.01
216.01	415.01
216.227	502.99
216.445	491.97
216.662	615.41
216.879	719.03
217.097	433.07
217.314	412.64
217.531	346.43
217.749	381.66
217.966	337.72
218.183	360.4
218.4	800.38
218.618	576.22
218.835	555.84
219.052	535.8
219.269	565.58
219.487	1551.35
219.704	2144.66
219.921	1170
220.138	1017.65
220.355	620.93
220.572	1081.94
220.79	693.97
221.007	791.23
221.224	769
221.441	1235.14
221.658	1017.12
221.875	945.27
222.092	1479.35
222.309	39366.67
222.526	2360.61
222.743	5178.57
222.96	1175.54
223.177	426.34
223.394	420
223.611	393.98
223.828	381.02
224.045	323.15
224.262	238.77
224.479	229.63
224.696	190.02
224.913	185.91
225.13	194.96
225.347	171.85
225.564	199.17
225.781	166.87
225.997	159.77
226.214	141.75
226.431	129.36
226.648	124.93
226.865	119.65
227.082	113.68
227.298	107.09
227.515	92.31
227.732	84.76
227.949	74.4
228.165	69.31
228.382	65.21
228.599	60.84
228.816	60.81
229.032	58.51
229.249	55.98
229.466	53.7
229.682	50.09
229.899	53.53
230.116	55.36
230.332	57.19
230.549	60.11
230.765	64.75
230.982	63.19
231.199	65.24
231.415	69.96
231.632	79.76
231.848	88.02
232.065	103.77
232.281	99.14
232.498	99.44
232.714	115.54
232.931	119.2
233.147	113.35
233.364	115.87
233.58	111.34
233.797	108.54
234.013	98.25
234.23	95.05
234.446	84.87
234.662	91.07
234.879	95.81
235.095	87.2
235.312	88.15
235.528	92.75
235.744	95.92
235.961	99.39
236.177	101.65
236.393	105.28
236.61	102.25
236.826	106.87
237.042	111.19
237.258	105.95
237.475	113.05
237.691	114.17
237.907	109.04
238.123	106.9
238.339	102.5
238.556	102.69
238.772	100.69
238.988	98.85
239.204	88.21
239.42	80.73
239.636	75.35
239.853	67.83
240.069	62.61
240.285	59.35
240.501	55.47
240.717	54.07
240.933	49.14
241.149	44.85
241.365	43.21
241.581	40.95
241.797	37.57
242.013	36.88
242.229	38.69
242.445	37.6
242.661	36.89
242.877	38.4
243.093	37.37
243.309	39.19
243.525	43.79
243.741	42.95
243.957	45.43
244.173	46.4
244.388	48.83
244.604	46.24
244.82	43.57
245.036	38.88
245.252	35.52
245.468	34.74
245.683	31.53
245.899	27.67
246.115	26.76
246.331	25
246.547	23.81
246.762	22.3
246.978	21.13
247.194	20.63
247.409	22.8
247.625	22.96
247.841	22.02
248.057	23.59
248.272	24.94
248.488	27.54
248.703	28.76
248.919	32.01
249.135	35.49
249.35	40.75
249.566	43.82
249.782	46.42
249.997	49.97
250.213	51.7
250.428	49.09
250.644	50.31
250.859	48.84
251.075	52.49
251.29	50.89
251.506	48.46
251.721	45.9
251.937	49.5
252.152	48.16
252.368	45.97
252.583	48.45
252.798	50.91
253.014	51.66
253.229	53.2
253.445	53.13
253.66	56.95
253.875	61.91
254.091	62.79
254.306	61.19
254.521	63.16
254.737	68.08
254.952	66.16
255.167	67.61
255.383	63.68
255.598	60.93
255.813	57.37
256.028	56.58
256.244	51.28
256.459	47.59
256.674	42.75
256.889	42.8
257.104	39.64
257.32	38.07
257.535	33.72
257.75	32.4
257.965	30.91
258.18	28.26
258.395	26.19
258.61	25.4
258.826	25.06
259.041	24.6
259.256	22.51
259.471	21.53
259.686	20.29
259.901	21.36
260.116	21.64
260.331	21.81
260.546	23.41
260.761	23.89
260.976	24.83
261.191	25.92
261.406	27.56
261.621	28.71
261.836	29.75
262.05	31.94
262.265	32.07
262.48	32.11
262.695	34.51
262.91	33.47
263.125	34.11
263.34	33.59
263.555	33.97
263.769	32.47
263.984	34.52
264.199	37.91
264.414	35.55
264.629	35.81
264.843	36.34
265.058	36.22
265.273	35.78
265.488	33.46
265.702	32.12
265.917	33.33
266.132	32
266.346	32.08
266.561	30.36
266.776	32.06
266.99	31.65
267.205	32.14
267.42	29.62
267.634	28.42
267.849	26.57
268.063	25.79
268.278	25.27
268.492	27.11
268.707	25.26
268.922	24.8
269.136	22.65
269.351	24.32
269.565	23.45
269.78	23.03
269.994	26.18
270.209	26.55
270.423	27.22
270.637	25.16
270.852	24.92
271.066	24.26
271.281	24.88
271.495	25.79
271.709	24.46
271.924	24.68
272.138	26.03
272.353	23.28
272.567	24.33
272.781	23.85
272.996	25.4
273.21	26.42
273.424	28.3
273.638	28.52
273.853	30.39
274.067	30.99
274.281	31.43
274.495	31.69
274.71	32.25
274.924	34.08
275.138	33.84
275.352	34.62
275.566	32.21
275.781	31.62
275.995	30.07
276.209	27.71
276.423	28.37
276.637	28.03
276.851	27.19
277.065	27.77
277.279	27.3
277.493	29.47
277.707	28.41
277.921	30.14
278.135	29.3
278.349	30.9
278.563	30.91
278.777	30.39
278.991	32.73
279.205	33.15
279.419	34.69
279.633	34.54
279.847	33.92
280.061	32.45
280.275	31.12
280.489	32.11
280.703	30.48
280.917	31.94
281.131	30.79
281.344	28.89
281.558	29.54
281.772	28.23
281.986	28.19
282.2	27.47
282.414	28.33
282.627	27.65
282.841	27.86
283.055	27.31
283.269	25.91
283.482	25.6
283.696	24.05
283.91	23.14
284.123	21.99
284.337	21.13
284.551	20.12
284.764	20.23
284.978	20.72
285.192	18.95
285.405	20.37
285.619	20.5
285.833	21.87
286.046	22.99
286.26	23.33
286.473	23.54
286.687	22.34
286.9	23.62
287.114	23.67
287.327	23.49
287.541	23.13
287.754	23.22
287.968	22.76
288.181	20.92
288.395	21.34
288.608	20.79
288.822	20.92
289.035	22.64
289.248	21.86
289.462	21.54
289.675	21.63
289.889	22.83
290.102	22.06
290.315	22.1
290.529	23.85
290.742	23.68
290.955	24.02
291.169	25.02
291.382	24.55
291.595	26.69
291.808	27.31
292.022	26.54
292.235	27.21
292.448	27.66
292.661	28.01
292.875	26.92
293.088	26.42
293.301	25.3
293.514	24.2
293.727	25.73
293.94	24.05
294.153	22.99
294.367	23.61
294.58	23.18
294.793	21.78
295.006	21.27
295.219	20.73
295.432	20.23
295.645	20.09
295.858	20.28
296.071	18.49
296.284	17.4
296.497	17.27
296.71	16.69
296.923	16.67
297.136	16.77
297.349	17.79
297.562	18.02
297.775	18.96
297.988	19.72
298.201	20.14
298.414	20.73
298.626	21.26
298.839	21.1
299.052	22.12
299.265	23.4
299.478	23.5
299.691	23.89
299.903	23.92
300.116	24.04
300.329	24.52
300.542	23.57
300.755	24.18
300.967	25.61
301.18	26.62
301.393	26.35
301.605	25.48
301.818	25.48
302.031	25.23
302.243	24.05
302.456	22.42
302.669	22.13
302.881	23.32
303.094	22.74
303.307	22.16
303.519	22.67
303.732	23.9
303.944	23.32
304.157	24.79
304.37	24.67
304.582	27.4
304.795	27.38
305.007	27.13
305.22	26.84
305.432	27.37
305.645	26.98
305.857	27.28
306.069	26.11
306.282	25.16
306.494	24.57
306.707	23.84
306.919	22.5
307.132	23.67
307.344	24.13
307.556	23.86
307.769	23.2
307.981	23.9
308.193	22.63
308.406	22.26
308.618	22.41
308.83	21.82
309.043	20.99
309.255	20.66
309.467	21.03
309.679	20.99
309.892	20.23
310.104	20.2
310.316	19.59
310.528	19.99
310.74	20.62
310.953	21.29
311.165	21.77
311.377	22.57
311.589	23.01
311.801	22.35
312.013	22.09
312.225	23
312.437	23.83
312.649	25.29
312.862	25.02
313.074	25.65
313.286	25.83
313.498	26.05
313.71	26.19
313.922	26.43
314.134	27.41
314.346	27.66
314.558	27.66
314.77	27.73
314.982	27.14
315.193	29.48
315.405	28.4
315.617	27.97
315.829	28.22
316.041	27.42
316.253	28.27
316.465	28.41
316.677	28.53
316.888	28.32
317.1	28.25
317.312	28.32
317.524	27.28
317.736	28.85
317.947	29.96
318.159	30.27
318.371	31.23
318.583	31.24
318.794	30.05
319.006	30.61
319.218	31.37
319.43	32.92
319.641	33.24
319.853	31.38
320.064	32.2
320.276	32.45
320.488	32.81
320.699	34.35
320.911	35.11
321.123	35.87
321.334	35.46
321.546	36.1
321.757	35.1
321.969	35.91
322.18	35.44
322.392	35.09
322.603	34.41
322.815	34.14
323.026	33.57
323.238	31.08
323.449	31.04
323.661	31
323.872	30.29
324.083	29.67
324.295	28.11
324.506	29.05
324.718	27.22
324.929	27.04
325.14	27.07
325.352	26.4
325.563	26.7
325.774	26.87
325.986	26.62
326.197	26.6
326.408	27.43
326.62	26.92
326.831	27.17
327.042	28.41
327.253	29.03
327.464	29.23
327.676	29.18
327.887	29.99
328.098	29.24
328.309	28.54
328.52	26.94
328.732	24.72
328.943	25.93
329.154	24.6
329.365	24.83
329.576	24.93
329.787	23.97
329.998	23.74
330.209	22.66
330.42	23.09
330.631	24.87
330.842	26.81
331.053	28.61
331.264	28.35
331.475	30.45
331.686	29.1
331.897	28.64
332.108	29.81
332.319	30.52
332.53	31.27
332.741	32.26
332.952	31.39
333.163	30.72
333.374	30.44
333.585	30.33
333.795	29.44
334.006	30.32
334.217	30.77
334.428	30.71
334.639	30.95
334.849	31.99
335.06	30.66
335.271	31.27
335.482	32.26
335.692	32.65
335.903	32.32
336.114	31.82
336.325	31.79
336.535	32.12
336.746	31.29
336.957	30.6
337.167	30
337.378	30.66
337.589	30.12
337.799	30.38
338.01	29.39
338.22	29.52
338.431	29.5
338.642	29.45
338.852	29.87
339.063	29.47
339.273	29.58
339.484	29.9
339.694	29.07
339.905	30
340.115	30.21
340.326	30.78
340.536	30.63
340.746	30.82
340.957	29.27
341.167	29.02
341.378	29.64
341.588	30.51
341.799	30.97
342.009	31.91
342.219	30.55
342.43	29.57
342.64	30.65
342.85	31.11
343.061	30.91
343.271	32.24
343.481	31.75
343.691	31.74
343.902	31.29
344.112	30
344.322	29.68
344.532	30.27
344.743	30.06
344.953	28.69
345.163	28.8
345.373	29.02
345.583	29.39
345.793	28.43
346.004	28.17
346.214	27.38
346.424	26.91
346.634	27.42
346.844	27.63
347.054	27.85
347.264	28.06
347.474	27.92
347.684	28.52
347.894	28.26
348.104	28.43
348.314	28.54
348.524	28.98
348.734	28.59
348.944	27.96
349.154	27.76
349.364	27.46
349.574	27.29
349.784	27.68
349.994	27.48
350.204	26.06
350.413	26.25
350.623	26.34
350.833	26.18
351.043	26.98
351.253	26.08
351.463	24.98
351.672	25.54
351.882	25.09
352.092	24.75
352.302	25.02
352.511	25.75
352.721	25.44
352.931	25.82
353.141	25.88
353.35	26.69
353.56	27.57
353.77	28.06
353.979	27.7
354.189	28.5
354.399	28.45
354.608	27.09
354.818	27.6
355.027	28.38
355.237	28.03
355.447	28.44
355.656	27.91
355.866	27.83
356.075	27.58
356.285	26.77
356.494	26.38
356.704	26.28
356.913	27
357.123	26.04
357.332	25.22
357.542	24.76
357.751	24.58
357.96	24.28
358.17	24.51
358.379	25.83
358.589	26.11
358.798	25.22
359.007	24.03
359.217	23.61
359.426	24.52
359.635	24.69
359.845	23.76
360.054	23.44
360.263	23.41
360.472	22.51
360.682	21.74
360.891	21.95
361.1	22.33
361.309	22.87
361.519	22.01
361.728	21.16
361.937	20.96
362.146	21.81
362.355	21.54
362.564	20.99
362.774	20.53
362.983	20.53
363.192	19.98
363.401	19.87
363.61	19.9
363.819	20.96
364.028	20.89
364.237	21.28
364.446	21.58
364.655	21.73
364.864	22.9
365.073	23.63
365.282	23.13
365.491	23.13
365.7	23.19
365.909	23.85
366.118	24.18
366.327	24.41
366.536	23.62
366.745	23.37
366.954	23.28
367.162	22.76
367.371	22.57
367.58	23.79
367.789	24.45
367.998	24.84
368.207	24.19
368.415	23.91
368.624	23.72
368.833	24.02
369.042	24.35
369.25	24.56
369.459	23.69
369.668	24.81
369.877	23.16
370.085	23.25
370.294	22.63
370.503	22.85
370.711	23.02
370.92	23.2
371.129	22.92
371.337	22.4
371.546	20.99
371.754	21.57
371.963	20.58
372.171	21.16
372.38	20.82
372.589	20.78
372.797	20.36
373.006	19.92
373.214	21.46
373.423	23.08
373.631	23.18
373.84	25.15
374.048	24.99
374.256	24.85
374.465	24.4
374.673	24.17
374.882	24.64
375.09	24.86
375.298	23.99
375.507	23.01
375.715	22.28
375.923	21.23
376.132	20.97
376.34	21.46
376.548	20.93
376.757	21.74
376.965	22.12
377.173	22.01
377.381	22.2
377.59	23.74
377.798	23.04
378.006	22.98
378.214	24.46
378.423	24.07
378.631	23.57
378.839	24.88
379.047	24.83
379.255	24.55
379.463	24.39
379.671	24.47
379.879	23.3
380.088	24.22
380.296	23.79
380.504	23.88
380.712	24.29
380.92	24.19
381.128	23.24
381.336	23.18
381.544	23.09
381.752	23.44
381.96	23.39
382.168	23.84
382.376	23.93
382.584	24.63
382.791	23.59
382.999	23.48
383.207	23.12
383.415	23.67
383.623	23.91
383.831	24
384.039	23.79
384.247	23.23
384.454	23.03
384.662	22.05
384.87	21.2
385.078	21.3
385.285	20.89
385.493	20.68
385.701	20.16
385.909	19.58
386.116	19.68
386.324	19.63
386.532	19.89
386.739	19.96
386.947	20.33
387.155	20.88
387.362	21.33
387.57	22.17
387.778	23.03
387.985	23.68
388.193	23.95
388.4	23.28
388.608	23.9
388.816	23.87
389.023	24.5
389.231	24.72
389.438	24.3
389.646	24.07
389.853	23.06
390.061	22.53
390.268	21.6
390.475	20.74
390.683	21.84
390.89	21.2
391.098	21.49
391.305	20.71
391.512	20.73
391.72	21.28
391.927	20.82
392.135	21.08
392.342	20.97
392.549	21.59
392.756	22.2
392.964	21.73
393.171	22.02
393.378	21.65
393.586	21.99
393.793	21.37
394	20.82
394.207	21.09
394.414	21.04
394.622	21.85
394.829	21.62
395.036	21.58
395.243	21.99
395.45	21.62
395.657	21.52
395.864	21.22
396.072	20.78
396.279	21.14
396.486	20.62
396.693	20.65
396.9	20.07
397.107	20.1
397.314	19.77
397.521	19.85
397.728	19.56
397.935	19.84
398.142	19.86
398.349	20.7
398.556	20.91
398.763	21.82
398.97	21.43
399.177	21.81
399.383	22.31
399.59	22.6
399.797	21.99
400.004	22.12
400.211	21.76
400.418	22.06
400.625	22.48
400.831	22.04
401.038	21.77
401.245	21.67
401.452	21.59
401.658	21.12
401.865	21.6
402.072	21.68
402.279	21.52
402.485	22.05
402.692	21.33
402.899	20.84
403.105	20.65
403.312	20.69
403.519	20.57
403.725	20.36
403.932	20.32
404.138	19.47
404.345	19.37
404.552	19.94
404.758	19.79
404.965	20.71
405.171	20.96
405.378	21.05
405.584	20.85
405.791	21.33
405.997	21.23
406.204	21.75
406.41	22.38
406.617	22.52
406.823	22.47
407.029	22.45
407.236	22.42
407.442	22.5
407.649	22.91
407.855	22.6
408.061	22.93
408.268	22.44
408.474	21.58
408.68	21.7
408.887	21.84
409.093	21.96
409.299	21.94
409.505	21
409.712	20.64
409.918	19.55
410.124	19.66
410.33	18.99
410.537	19.86
410.743	20.78
410.949	20.78
411.155	20.46
411.361	19.83
411.567	19.81
411.773	20.45
411.98	20.94
412.186	22.07
412.392	22.37
412.598	22.95
412.804	21.95
413.01	20.95
413.216	21.26
413.422	21.6
413.628	21.8
413.834	21.58
414.04	21.42
414.246	21.29
414.452	20.8
414.658	20.36
414.864	20.25
415.07	20.65
415.275	21.06
415.481	20.42
415.687	20.35
415.893	20.57
416.099	20.1
416.305	19.98
416.511	19.18
416.716	19.29
416.922	19.37
417.128	19.3
417.334	19.38
417.539	18.89
417.745	18.55
417.951	18.55
418.157	18.04
418.362	18.46
418.568	18.75
418.774	19
418.979	18.75
419.185	18.69
419.391	18.59
419.596	18.53
419.802	18.56
420.008	18.69
420.213	18.21
420.419	18.29
420.624	18.23
420.83	17.88
421.035	17.76
421.241	17.65
421.446	17.65
421.652	17.62
421.857	17.6
422.063	17.86
422.268	17.66
422.474	17.87
422.679	17.86
422.885	17.68
423.09	17.69
423.295	17.76
423.501	17.66
423.706	17.78
423.911	17.9
424.117	17.89
424.322	17.72
424.527	17.77
424.733	17.79
424.938	18.09
425.143	18.03
425.349	18.06
425.554	18.01
425.759	18.39
425.964	18.38
426.169	18.14
426.375	18.32
426.58	18.36
426.785	18.6
426.99	18.58
427.195	18.52
427.4	19.28
427.605	19.43
427.811	19.75
428.016	19.72
428.221	20.1
428.426	20.22
428.631	20.21
428.836	20.55
429.041	20.68
429.246	20.82
429.451	20.99
429.656	20.57
429.861	20.35
430.066	20.56
430.271	20.74
430.476	20.51
430.681	20.4
430.886	20.45
431.09	20.16
431.295	19.97
431.5	20.09
431.705	19.67
431.91	19.68
432.115	19.94
432.32	20.01
432.524	19.66
432.729	19.52
432.934	19.85
433.139	19.64
433.343	19.54
433.548	19.44
433.753	19.34
433.958	19.38
434.162	19.15
434.367	19.15
434.572	18.92
434.776	19.43
434.981	19.44
435.186	19.25
435.39	19.42
435.595	19.62
435.799	19.92
436.004	19.94
436.209	19.99
436.413	20.13
436.618	19.84
436.822	19.57
437.027	19.26
437.231	19.33
437.436	19.36
437.64	19.36
437.845	19.25
438.049	19.01
438.253	19.02
438.458	18.98
438.662	18.72
438.867	18.91
439.071	19.15
439.275	18.91
439.48	18.8
439.684	18.51
439.888	18.3
440.093	18.28
440.297	18.32
440.501	18.55
440.706	18.46
440.91	18.72
441.114	18.69
441.318	18.8
441.523	19.14
441.727	19.25
441.931	19.93
442.135	20.09
442.339	20.33
442.543	20.43
442.748	20.17
442.952	20.29
443.156	20.28
443.36	20.4
443.564	20.27
443.768	20.14
443.972	20.06
444.176	19.32
444.38	19.22
444.584	19.1
444.788	19.33
444.992	19.25
445.196	19.19
445.4	19.05
445.604	18.71
445.808	18.93
446.012	18.77
446.216	18.54
446.42	18.91
446.624	18.79
446.828	18.64
447.032	18.53
447.235	18.87
447.439	18.87
447.643	18.98
447.847	19.29
448.051	19.01
448.254	19.31
448.458	19.5
448.662	19.56
448.866	19.57
449.069	19.69
449.273	19.55
449.477	19.16
449.681	19.12
449.884	19.24
450.088	18.93
450.292	19.12
450.495	19.1
450.699	19.31
450.902	18.98
451.106	19.14
451.31	19.54
451.513	19.77
451.717	19.81
451.92	20.19
452.124	20.23
452.327	20.64
452.531	20.19
452.734	20.09
452.938	20.38
453.141	20.64
453.345	21
453.548	20.99
453.752	20.83
453.955	20.94
454.158	20.77
454.362	20.4
454.565	19.77
454.769	19.96
454.972	19.92
455.175	19.3
455.379	19.12
455.582	18.79
455.785	18.44
455.988	18.68
456.192	18.45
456.395	18.32
456.598	18.3
456.801	18.73
457.005	18.86
457.208	18.67
457.411	19.22
457.614	19.47
457.817	19.4
458.021	19.23
458.224	18.79
458.427	18.73
458.63	18.55
458.833	18.62
459.036	18.56
459.239	18.35
459.442	18.4
459.645	18.02
459.848	17.6
460.051	17.76
460.254	17.79
460.457	18.16
460.66	18.41
460.863	18.6
461.066	18.85
461.269	18.83
461.472	19.05
461.675	18.97
461.878	19.37
462.081	19.64
462.284	19.53
462.486	19.57
462.689	19.42
462.892	19.6
463.095	19.78
463.298	19.53
463.5	19.83
463.703	20.03
463.906	20.01
464.109	19.91
464.311	20.38
464.514	20.57
464.717	20.58
464.92	20.59
465.122	20.41
465.325	20.1
465.528	20.17
465.73	20.41
465.933	20.08
466.135	20.48
466.338	20.26
466.541	20.26
466.743	20.23
466.946	20.38
467.148	20.51
467.351	20.18
467.553	20.67
467.756	20.93
467.958	20.75
468.161	20.85
468.363	20.93
468.566	21.05
468.768	20.85
468.971	20.89
469.173	20.97
469.375	20.75
469.578	21.02
469.78	20.76
469.983	20.62
470.185	20.44
470.387	20.36
470.59	20.26
470.792	20.33
470.994	20.03
471.196	20.31
471.399	20.06
471.601	20.12
471.803	19.83
472.005	19.63
472.208	19.69
472.41	19.56
472.612	19.5
472.814	19.5
473.016	19.71
473.218	20.11
473.421	19.7
473.623	19.79
473.825	19.7
474.027	20.22
474.229	20.39
474.431	20.14
474.633	20.34
474.835	20.4
475.037	20.16
475.239	19.95
475.441	19.75
475.643	19.78
475.845	19.93
476.047	19.68
476.249	19.5
476.451	19.65
476.653	19.76
476.855	19.74
477.057	19.93
477.258	19.75
477.46	19.67
477.662	19.54
477.864	19.33
478.066	19.3
478.268	19.56
478.469	19.69
478.671	19.29
478.873	18.85
479.075	18.98
479.276	18.77
479.478	18.94
479.68	18.76
479.882	18.78
480.083	19.09
480.285	18.93
480.487	18.77
480.688	18.48
480.89	18.71
481.091	18.81
481.293	18.55
481.495	18.41
481.696	18.29
481.898	18.03
482.099	17.81
482.301	17.51
482.502	17.25
482.704	17.01
482.905	16.74
483.107	16.29
483.308	16.11
483.51	15.97
483.711	15.99
483.913	15.86
484.114	15.87
484.315	15.89
484.517	15.83
484.718	15.76
484.92	15.82
485.121	15.93
485.322	16.05
485.524	16.19
485.725	16.27
485.926	16.16
486.127	16.15
486.329	16.15
486.53	16.13
486.731	16.07
486.932	16.03
487.134	16.19
487.335	16.21
487.536	16.25
487.737	16.34
487.938	16.38
488.139	16.35
488.341	16.41
488.542	16.38
488.743	16.43
488.944	16.58
489.145	16.82
489.346	16.7
489.547	16.69
489.748	16.91
489.949	16.88
490.15	16.85
490.351	17
490.552	17.05
490.753	17.06
490.954	16.93
491.155	16.86
491.356	16.89
491.557	16.93
491.758	16.98
491.959	16.91
492.159	17.07
492.36	17.12
492.561	17.2
492.762	17.32
492.963	17.56
493.164	17.91
493.364	18.15
493.565	18.26
493.766	18.36
493.967	18.53
494.167	18.53
494.368	18.42
494.569	18.64
494.769	18.69
494.97	18.91
495.171	18.91
495.371	18.68
495.572	18.79
495.773	18.84
495.973	19.03
496.174	18.83
496.375	18.99
496.575	18.83
496.776	18.66
496.976	18.83
497.177	18.5
497.377	18.47
497.578	18.7
497.778	18.6
497.979	18.45
498.179	18.26
498.38	18.52
498.58	18.69
498.78	18.82
498.981	19.13
499.181	19.2
499.382	19.55
499.582	19.57
499.782	19.63
499.983	19.78
500.183	20.32
500.383	20.73
500.584	20.68
500.784	20.76
500.984	20.88
501.184	20.74
501.385	20.74
501.585	21.03
501.785	21.07
501.985	20.93
502.185	20.85
502.386	20.64
502.586	20.43
502.786	20.37
502.986	20.44
503.186	20.4
503.386	20.3
503.586	20.24
503.786	19.96
503.987	20.08
504.187	20.08
504.387	20.46
504.587	20.35
504.787	20.28
504.987	20.3
505.187	20.35
505.387	20.57
505.587	20.83
505.786	20.76
505.986	20.64
506.186	20.74
506.386	20.96
506.586	20.75
506.786	20.94
506.986	21.16
507.186	21.25
507.386	20.98
507.585	20.82
507.785	20.55
507.985	20.72
508.185	20.84
508.384	20.75
508.584	20.8
508.784	20.6
508.984	20.7
509.183	20.65
509.383	20.74
509.583	21.25
509.782	21.39
509.982	21.69
510.182	21.61
510.381	21.62
510.581	21.75
510.781	21.66
510.98	21.94
511.18	22.02
511.379	22.12
511.579	22.33
511.778	22.09
511.978	22.21
512.177	22.14
512.377	22.07
512.576	22.36
512.776	22.62
512.975	22.74
513.175	22.54
513.374	22.5
513.573	22.62
513.773	22.62
513.972	22.83
514.172	22.73
514.371	22.98
514.57	23.03
514.77	23.21
514.969	23.04
515.168	22.96
515.367	23.23
515.567	23.42
515.766	23.01
515.965	23.24
516.164	23.17
516.364	23.37
516.563	23.49
516.762	23.51
516.961	23.07
517.16	22.88
517.359	22.96
517.559	22.92
517.758	22.59
517.957	22.92
518.156	22.53
518.355	22.45
518.554	22.21
518.753	21.91
518.952	21.92
519.151	22.2
519.35	22.39
519.549	22.42
519.748	22.49
519.947	22.71
520.146	22.62
520.345	22.94
520.544	22.98
520.743	23.26
520.942	23.19
521.141	23.45
521.339	23.37
521.538	23.43
521.737	23.56
521.936	23.58
522.135	23.43
522.333	23.7
522.532	23.66
522.731	23.74
522.93	23.93
523.129	24.29
523.327	24.35
523.526	24.56
523.725	24.77
523.923	24.74
524.122	24.84
524.321	24.99
524.519	24.76
524.718	24.87
524.917	24.87
525.115	24.7
525.314	24.31
525.512	24.14
525.711	23.97
525.909	23.98
526.108	23.97
526.306	24.11
526.505	24.19
526.703	24.2
526.902	24.06
527.1	24.06
527.299	24.1
527.497	24.24
527.696	24.2
527.894	24.16
528.092	23.96
528.291	23.95
528.489	23.83
528.688	23.75
528.886	23.71
529.084	23.72
529.283	23.73
529.481	23.8
529.679	23.99
529.877	24.19
530.076	24.22
530.274	24.34
530.472	24.47
530.67	24.52
530.869	24.76
531.067	25.08
531.265	25.32
531.463	25.37
531.661	25.37
531.859	25.35
532.057	25.43
532.255	25.55
532.454	25.66
532.652	25.59
532.85	25.61
533.048	25.6
533.246	25.55
533.444	25.6
533.642	25.69
533.84	25.78
534.038	25.81
534.236	25.81
534.434	26.04
534.632	26.15
534.83	26.31
535.027	26.53
535.225	26.78
535.423	27.11
535.621	27.09
535.819	27.31
536.017	27.42
536.215	27.32
536.412	27.41
536.61	27.27
536.808	27.26
537.006	27.56
537.203	27.81
537.401	27.79
537.599	27.79
537.797	27.89
537.994	28.09
538.192	28.11
538.39	28.51
538.587	28.6
538.785	28.88
538.983	29.16
539.18	29.04
539.378	29.16
539.575	29.11
539.773	28.91
539.97	29.09
540.168	28.85
540.366	28.82
540.563	28.82
540.761	28.89
540.958	28.76
541.155	28.68
541.353	28.64
541.55	28.65
541.748	28.55
541.945	28.63
542.143	28.44
542.34	28.55
542.537	28.7
542.735	28.53
542.932	28.57
543.129	28.77
543.327	28.81
543.524	28.95
543.721	28.86
543.919	29.24
544.116	29.5
544.313	29.92
544.51	30.02
544.708	30.25
544.905	30.77
545.102	31.07
545.299	31.21
545.496	31.75
545.693	31.93
545.891	31.91
546.088	31.97
546.285	31.95
546.482	31.9
546.679	32.03
546.876	32.21
547.073	32.25
547.27	32.25
547.467	32.55
547.664	32.3
547.861	32.41
548.058	32.76
548.255	32.93
548.452	33.29
548.649	33.56
548.846	33.91
549.043	33.92
549.24	34.15
549.437	34.31
549.633	34.41
549.83	34.65
550.027	34.91
550.224	35.12
550.421	35.04
550.618	34.99
550.814	35.09
551.011	35.16
551.208	35.36
551.405	35.22
551.601	35.24
551.798	35.16
551.995	35.32
552.191	35.53
552.388	35.47
552.585	35.87
552.781	35.95
552.978	36.12
553.175	36.07
553.371	36.03
553.568	36.19
553.764	36.31
553.961	36.44
554.157	36.5
554.354	36.38
554.55	36.63
554.747	36.64
554.943	36.59
555.14	36.96
555.336	37.18
555.533	37.71
555.729	37.94
555.926	38.06
556.122	38.29
556.318	38.33
556.515	38.87
556.711	39.4
556.907	39.83
557.104	40.19
557.3	40.25
557.496	40.13
557.693	39.92
557.889	39.8
558.085	39.72
558.281	40.38
558.478	40.8
558.674	40.55
558.87	39.92
559.066	40.15
559.262	40.39
559.459	40
559.655	40.19
559.851	40.53
560.047	41.11
560.243	41.31
560.439	41.01
560.635	40.88
560.831	40.73
561.027	40.89
561.223	40.56
561.419	40.31
561.615	40.68
561.811	41.52
562.007	41.2
562.203	40.61
562.399	40.87
562.595	40.96
562.791	41.03
562.987	41.6
563.183	41.55
563.379	41.67
563.575	41.96
563.771	42.21
563.966	41.7
564.162	41.82
564.358	42.03
564.554	41.98
564.75	41.79
564.945	41.71
565.141	41.38
565.337	41.72
565.533	41.62
565.728	41.61
565.924	41.31
566.12	41.26
566.315	41.3
566.511	41.72
566.707	41.82
566.902	41.88
567.098	42.15
567.293	42.3
567.489	42.09
567.684	42.15
567.88	42.38
568.076	42.66
568.271	42.85
568.467	42.99
568.662	42.9
568.858	43.28
569.053	43.17
569.248	43.01
569.444	43.01
569.639	43.15
569.835	43.46
570.03	43.33
570.225	43.39
570.421	43.27
570.616	42.89
570.812	42.91
571.007	42.69
571.202	42.93
571.397	42.96
571.593	42.98
571.788	43.2
571.983	43.08
572.178	43.03
572.374	42.95
572.569	43.05
572.764	43.46
572.959	43.4
573.154	43.35
573.35	43.18
573.545	43.47
573.74	43.66
573.935	43.72
574.13	43.54
574.325	43.47
574.52	43.86
574.715	44.16
574.91	44.23
575.105	44.36
575.3	44.55
575.495	45.28
575.69	45.27
575.885	45.37
576.08	45.32
576.275	45.57
576.47	46.07
576.665	46.1
576.86	45.92
577.055	45.83
577.25	46.07
577.444	46.17
577.639	45.74
577.834	45.71
578.029	45.42
578.224	45.36
578.418	45.25
578.613	45.56
578.808	45.5
579.003	45.92
579.197	46.23
579.392	46.36
579.587	46.35
579.781	46.71
579.976	46.91
580.171	47.43
580.365	47.82
580.56	48.31
580.755	48.05
580.949	47.95
581.144	47.97
581.338	47.98
581.533	47.81
581.727	48.13
581.922	47.65
582.116	47.83
582.311	47.57
582.505	47.53
582.7	47.81
582.894	48.05
583.089	48.36
583.283	48.52
583.478	48.64
583.672	48.92
583.866	48.36
584.061	48.74
584.255	48.51
584.449	48.54
584.644	48.46
584.838	47.94
585.032	48.44
585.226	48.13
585.421	48.01
585.615	48.35
585.809	48.18
586.003	48.69
586.198	48.41
586.392	48.64
586.586	49.11
586.78	49.33
586.974	49.34
587.168	48.59
587.363	48.43
587.557	48.16
587.751	48.23
587.945	48.5
588.139	48.5
588.333	48.87
588.527	48.73
588.721	48.76
588.915	48.96
589.109	49.47
589.303	49.56
589.497	49.99
589.691	50.49
589.885	50.46
590.079	50.27
590.273	50.41
590.466	51.19
590.66	51.31
590.854	51.11
591.048	51.14
591.242	50.6
591.436	50.93
591.629	50.94
591.823	50.58
592.017	50.22
592.211	50.27
592.404	50.5
592.598	49.49
592.792	49.47
592.986	49.68
593.179	49.7
593.373	50.25
593.567	49.95
593.76	49.94
593.954	49.89
594.147	50.25
594.341	50.35
594.535	50.13
594.728	50.28
594.922	50.29
595.115	50.24
595.309	50.26
595.502	50.34
595.696	50.13
595.889	50.13
596.083	50.41
596.276	50.71
596.47	50.55
596.663	50.51
596.856	50.94
597.05	50.72
597.243	50.74
597.437	50.44
597.63	50.14
597.823	50.4
598.017	50.51
598.21	50.24
598.403	49.45
598.596	49.9
598.79	49.67
598.983	49.18
599.176	49.69
599.369	49.84
599.563	50.23
599.756	50.63
599.949	50.74
600.142	50.89
600.335	51.14
600.528	51.92
600.722	51.5
600.915	52.33
601.108	52.49
601.301	51.88
601.494	51.48
601.687	51.48
601.88	51.34
602.073	51.25
602.266	50.98
602.459	50.91
602.652	50.31
602.845	50.73
603.038	50.23
603.231	50.3
603.424	50.13
603.617	50.45
603.809	50.6
604.002	50.58
604.195	50.56
604.388	50.43
604.581	50.59
604.774	50.96
604.966	50.9
605.159	50.9
605.352	50.94
605.545	51.78
605.737	51.91
605.93	51.74
606.123	52.03
606.316	52.4
606.508	53.08
606.701	53.24
606.894	53.24
607.086	53.27
607.279	53.13
607.471	53.29
607.664	52.97
607.857	52.97
608.049	53.01
608.242	52.36
608.434	51.97
608.627	51.7
608.819	51.57
609.012	51.51
609.204	51.57
609.397	51.76
609.589	51.78
609.782	51.9
609.974	51.83
610.166	51.89
610.359	52.24
610.551	52.4
610.743	52.87
610.936	53.19
611.128	53.39
611.32	53.69
611.513	53.79
611.705	53.98
611.897	53.82
612.09	54.53
612.282	54.89
612.474	55.56
612.666	56.25
612.858	56.01
613.051	56.22
613.243	56.32
613.435	56.25
613.627	56.74
613.819	56.36
614.011	57.58
614.203	57.1
614.395	56.18
614.588	55.74
614.78	55.5
614.972	55.53
615.164	54.94
615.356	54.8
615.548	54.39
615.74	54.39
615.932	54.56
616.124	54.19
616.315	54.06
616.507	55.01
616.699	55.17
616.891	54.7
617.083	54.94
617.275	55.4
617.467	55.49
617.659	56.02
617.85	56.06
618.042	56.61
618.234	56.4
618.426	56.99
618.618	56.74
618.809	57.04
619.001	58.09
619.193	58.05
619.384	58.12
619.576	58.09
619.768	57.76
619.959	57.34
620.151	57.43
620.343	57.56
620.534	57.22
620.726	57.71
620.917	57.83
621.109	57.62
621.301	57.33
621.492	57.33
621.684	57.88
621.875	57.79
622.067	58.22
622.258	58.43
622.45	58.54
622.641	58.19
622.832	57.63
623.024	57.02
623.215	56.98
623.407	57.18
623.598	57.7
623.789	57.49
623.981	57.95
624.172	57.83
624.363	57.19
624.555	56.83
624.746	56.84
624.937	57.25
625.129	57.57
625.32	57.34
625.511	57.53
625.702	56.74
625.893	56.76
626.085	56.89
626.276	56.47
626.467	56.44
626.658	56.38
626.849	56.1
627.04	55.88
627.231	56.05
627.422	56
627.614	55.79
627.805	56.14
627.996	56.15
628.187	55.57
628.378	56.11
628.569	56.13
628.76	56.24
628.951	56.86
629.142	57.01
629.332	56.48
629.523	56.26
629.714	56.1
629.905	56.25
630.096	56.06
630.287	56.41
630.478	56.22
630.669	55.99
630.859	56.06
631.05	55.79
631.241	55.65
631.432	55.99
631.623	56.37
631.813	56.84
632.004	56.25
632.195	56.18
632.385	56.27
632.576	55.97
632.767	56.26
632.957	56.45
633.148	56.99
633.339	57.46
633.529	57.12
633.72	56.41
633.91	56.2
634.101	56.48
634.292	56.77
634.482	56.81
634.673	57.09
634.863	56.64
635.054	56.37
635.244	55.91
635.435	55.09
635.625	55.2
635.815	55.9
636.006	55.72
636.196	55.98
636.387	55.89
636.577	56.05
636.767	56.11
636.958	56.8
637.148	57.32
637.338	57.74
637.529	58.26
637.719	58.45
637.909	58.34
638.099	57.82
638.29	57.4
638.48	57.56
638.67	57.95
638.86	58.57
639.05	59.3
639.241	59.4
639.431	59.83
639.621	59.73
639.811	59.44
640.001	59.54
640.191	60.12
640.381	60.47
640.571	60.58
640.761	60.29
640.951	60.17
641.141	59.29
641.331	59.02
641.521	58.53
641.711	59.34
641.901	59.89
642.091	59.42
642.281	59.9
642.471	60.11
642.661	60.47
642.851	60.6
643.041	60.31
643.231	60.71
643.42	60.51
643.61	60.53
643.8	59.92
643.99	59.95
644.18	60.91
644.369	61.06
644.559	60.74
644.749	60.4
644.939	60.13
645.128	59.64
645.318	58.72
645.508	58.56
645.697	58.98
645.887	58.89
646.076	58.97
646.266	59.23
646.456	59.46
646.645	59.48
646.835	59.75
647.024	60.38
647.214	61.06
647.403	61.78
647.593	61.7
647.782	61.25
647.972	61.29
648.161	61.28
648.351	60.91
648.54	60.38
648.73	60.3
648.919	59.67
649.108	58.67
649.298	58.4
649.487	58.18
649.677	58.62
649.866	58.79
650.055	58.66
650.244	58.88
650.434	59.21
650.623	59.51
650.812	59.53
651.002	60.01
651.191	60.18
651.38	60.28
651.569	60.63
651.758	60.76
651.947	60.58
652.137	60.86
652.326	60.75
652.515	60.72
652.704	60.47
652.893	60.51
653.082	59.66
653.271	59.92
653.46	59.06
653.649	58.87
653.838	58.74
654.027	58.59
654.216	59.2
654.405	58.23
654.594	57.11
654.783	57.56
654.972	58.61
655.161	58.83
655.35	58.46
655.539	58.96
655.728	58.87
655.916	58.66
656.105	58.61
656.294	58.13
656.483	58.54
656.672	59.37
656.86	58.63
657.049	57.46
657.238	57.57
657.427	57.63
657.615	57.3
657.804	56.66
657.993	56.38
658.181	56.61
658.37	55.91
658.559	55.5
658.747	54.91
658.936	55.53
659.125	55.61
659.313	55.87
659.502	55.77
659.69	56.39
659.879	56.68
660.067	57.3
660.256	57.16
660.444	57.45
660.633	58.03
660.821	58.5
661.01	59.06
661.198	59.59
661.387	59.79
661.575	60.33
661.763	60.63
661.952	60.71
662.14	61.26
662.328	61.81
662.517	62.6
662.705	62.78
662.893	63.04
663.082	62.17
663.27	62.39
663.458	62.35
663.646	62.45
663.834	62.93
664.023	63.98
664.211	63.35
664.399	63.42
664.587	63.22
664.775	63.15
664.963	63.36
665.152	63.6
665.34	63.24
665.528	63.36
665.716	62.3
665.904	61.75
666.092	61.52
666.28	61.61
666.468	60.9
666.656	61.1
666.844	61.99
667.032	60.95
667.22	60.48
667.408	60.18
667.596	60.72
667.784	61.14
667.971	60.84
668.159	60.88
668.347	61.28
668.535	62.16
668.723	61.69
668.911	60.66
669.098	61.77
669.286	61.96
669.474	61.94
669.662	61.32
669.849	62.27
670.037	62.74
670.225	62.62
670.413	62.4
670.6	61.89
670.788	62.16
670.976	63.33
671.163	63.88
671.351	63.77
671.538	63.8
671.726	63.54
671.913	64.12
672.101	63.78
672.289	64.43
672.476	64.55
672.664	65.03
672.851	64.99
673.039	64.4
673.226	63.73
673.413	64.1
673.601	63.79
673.788	64.37
673.976	63.64
674.163	63.28
674.35	62.65
674.538	62.56
674.725	62.45
674.912	62.81
675.1	63.2
675.287	63.27
675.474	62.33
675.662	63.68
675.849	63.03
676.036	63.09
676.223	63.78
676.411	64.06
676.598	63.11
676.785	63.19
676.972	63.29
677.159	63.46
677.346	63.13
677.533	63.31
677.721	62.32
677.908	63.79
678.095	64.2
678.282	63.92
678.469	62.67
678.656	62.57
678.843	62.07
679.03	62.6
679.217	62.67
679.404	63.29
679.591	63.91
679.778	64.32
679.964	63.11
680.151	61.6
680.338	61.58
680.525	62.81
680.712	63.36
680.899	63.59
681.086	62.65
681.272	62.57
681.459	62.61
681.646	62.06
681.833	61.56
682.02	61.4
682.206	62.85
682.393	62.64
682.58	62.17
682.766	62.32
682.953	62.44
683.14	62.83
683.326	62.78
683.513	62.75
683.7	63.23
683.886	64.32
684.073	65.4
684.259	64.79
684.446	65.74
684.632	66.51
684.819	67.22
685.005	66.44
685.192	66.56
685.378	66.08
685.565	65.98
685.751	65.87
685.938	65.04
686.124	64.24
686.31	63.25
686.497	62.84
686.683	61.92
686.87	61.62
687.056	63.13
687.242	63.02
687.429	63.03
687.615	62.99
687.801	63.53
687.987	63.17
688.174	63.14
688.36	64.72
688.546	64.61
688.732	65.18
688.918	65.58
689.105	65.24
689.291	64.71
689.477	64.33
689.663	64.65
689.849	64
690.035	65.46
690.221	66.05
690.407	66.48
690.593	66.66
690.779	66.07
690.965	66.29
691.151	66.18
691.337	67.28
691.523	68.65
691.709	68.33
691.895	68.7
692.081	66.87
692.267	67.63
692.453	66.91
692.639	67.2
692.825	67.45
693.011	66.04
693.196	66.3
693.382	65.97
693.568	66.15
693.754	65.51
693.94	65.55
694.125	66.91
694.311	67.79
694.497	68.16
694.682	68.21
694.868	68.64
695.054	68.8
695.239	68.95
695.425	68.57
695.611	67.71
695.796	66.89
695.982	66.39
696.168	65.61
696.353	63.06
696.539	63.24
696.724	62.96
696.91	62.77
697.095	62.83
697.281	61.72
697.466	60.5
697.652	60.27
697.837	60.89
698.023	60.9
698.208	61.72
698.393	62.56
698.579	62.49
698.764	62.42
698.949	61.24
699.135	61.26
699.32	62.02
699.505	62.34
699.691	62.94
699.876	62.76
700.061	63.17
700.246	62.55
700.432	61.66
700.617	61.48
700.802	61.29
700.987	62.98
701.172	62.5
701.358	62.77
701.543	64.79
701.728	64.53
701.913	66.06
702.098	66.1
702.283	66.69
702.468	68.11
702.653	67.46
702.838	68.87
703.023	68.77
703.208	69.09
703.393	69.03
703.578	68.47
703.763	69.6
703.948	69.93
704.133	69.7
704.318	70.52
704.503	69.96
704.688	71.14
704.873	69.45
705.057	70.41
705.242	71.26
705.427	70.67
705.612	71.53
705.797	70.52
705.981	69.91
706.166	70.44
706.351	69.83
706.536	68.94
706.72	68.2
706.905	69.62
707.09	68.91
707.274	69.39
707.459	69.93
707.644	70.2
707.828	70.14
708.013	69.02
708.197	68.95
708.382	68.3
708.567	69.42
708.751	69.25
708.936	67.62
709.12	67.81
709.305	68.34
709.489	68.65
709.673	66.85
709.858	68.33
710.042	67.94
710.227	67.98
710.411	67.79
710.596	67.79
710.78	68.45
710.964	69.19
711.149	68.49
711.333	66.94
711.517	66.43
711.702	67.34
711.886	65.74
712.07	67.36
712.254	67.21
712.438	66.91
712.623	65.54
712.807	64.93
712.991	64.61
713.175	65.82
713.359	67.3
713.544	67.02
713.728	67.38
713.912	68.1
714.096	67.3
714.28	67.73
714.464	68.51
714.648	69.85
714.832	70.14
715.016	69.73
715.2	69.59
715.384	68.86
715.568	69.93
715.752	69.44
715.936	69.24
716.12	69.96
716.304	70.95
716.488	71.32
716.671	72.14
716.855	72.89
717.039	74.31
717.223	73.97
717.407	75.03
717.59	74.05
717.774	73.46
717.958	73.53
718.142	72.67
718.325	73.12
718.509	73.11
718.693	72.8
718.877	71.74
719.06	72.75
719.244	73.21
719.428	72.31
719.611	72.91
719.795	74.88
719.978	75.16
720.162	76.79
720.345	76.32
720.529	75.95
720.713	77.02
720.896	77.75
721.08	76.23
721.263	76.2
721.446	75.66
721.63	75.77
721.813	76.54
721.997	75.3
722.18	75.07
722.364	74.57
722.547	75.36
722.73	74.9
722.914	75.66
723.097	76.56
723.28	75.98
723.464	77.04
723.647	77.91
723.83	78.1
724.013	79.38
724.197	81.16
724.38	81.4
724.563	80.38
724.746	80.65
724.929	79.84
725.112	81.77
725.296	81.87
725.479	81.05
725.662	81.23
725.845	80.15
726.028	80.74
726.211	78.47
726.394	77.45
726.577	78.74
726.76	78.31
726.943	78.02
727.126	73.96
727.309	75.71
727.492	74.97
727.675	74.04
727.858	72.66
728.041	72.49
728.224	72.73
728.407	72.91
728.589	72.97
728.772	72.05
728.955	72.87
729.138	73.57
729.321	71.66
729.503	73.06
729.686	73.73
729.869	74.52
730.052	73.33
730.234	73.55
730.417	74.15
730.6	72.69
730.782	74.22
730.965	73.26
731.148	74.92
731.33	75.2
731.513	74.7
731.695	72.67
731.878	72.91
732.061	73.93
732.243	73.11
732.426	73.55
732.608	74.28
732.791	73.2
732.973	74.19
733.156	73.36
733.338	73.77
733.52	74.07
733.703	74.85
733.885	76.32
734.068	76.49
734.25	78.66
734.432	77.76
734.615	78.95
734.797	80.59
734.979	79.22
735.162	79.32
735.344	79.66
735.526	79.29
735.708	80.72
735.891	79.42
736.073	79.2
736.255	78.32
736.437	78.26
736.619	76.24
736.802	73.86
736.984	75.56
737.166	76.3
737.348	76.69
737.53	78.3
737.712	76.74
737.894	77.12
738.076	77.72
738.258	75.19
738.44	74.96
738.622	75.41
738.804	76.9
738.986	75.74
739.168	74.66
739.35	73.71
739.532	74.33
739.714	78.28
739.896	77.91
740.078	77.9
740.259	80.23
740.441	80.89
740.623	82.17
740.805	82.06
740.987	82.56
741.168	83.05
741.35	84.05
741.532	81.82
741.714	78.98
741.895	80.03
742.077	79.21
742.259	80.6
742.44	82.34
742.622	80.44
742.804	81.13
742.985	80.53
743.167	80.77
743.348	81.68
743.53	82.49
743.711	81.2
743.893	82.91
744.075	82.64
744.256	82.5
744.438	81.93
744.619	84.46
744.8	82.81
744.982	84.73
745.163	84.37
745.345	82.46
745.526	81.75
745.707	83.94
745.889	81.06
746.07	82.41
746.252	81.35
746.433	80.01
746.614	80
746.795	82.57
746.977	82.81
747.158	81.89
747.339	82.83
747.52	83.89
747.702	82.49
747.883	81.17
748.064	81.03
748.245	80.07
748.426	82.33
748.607	80.65
748.788	79.69
748.97	78.96
749.151	83.51
749.332	85.29
749.513	85.79
749.694	85.12
749.875	86.15
750.056	86.06
750.237	89.23
750.418	88.77
750.599	91.04
750.78	91.19
750.96	91.32
751.141	91.62
751.322	88.33
751.503	88
751.684	88.45
751.865	87.47
752.046	89.21
752.226	83.92
752.407	82.62
752.588	83.83
752.769	83.29
752.949	82.72
753.13	80.47
753.311	80.61
753.492	80.5
753.672	82.28
753.853	85.32
754.034	85.76
754.214	91.19
754.395	90.96
754.575	94.57
754.756	97.21
754.937	98.79
755.117	97.05
755.298	99.34
755.478	99.23
755.659	98.06
755.839	96.06
756.02	95.27
756.2	92.97
756.381	90.82
756.561	84.24
756.741	82.96
756.922	82.13
757.102	84.46
757.283	83.85
757.463	83.99
757.643	85.82
757.823	86.16
758.004	83.79
758.184	81.63
758.364	86.25
758.545	89.98
758.725	88.18
758.905	86.92
759.085	86.82
759.265	88.48
759.446	88.25
759.626	85.23
759.806	87.78
759.986	90.37
760.166	93.49
760.346	89.25
760.526	86.59
760.706	86.51
760.886	87.64
761.066	83.94
761.246	80.89
761.426	79.64
761.606	80.29
761.786	77.58
761.966	76.85
762.146	75.44
762.326	75.59
762.506	75.72
762.686	75.15
762.866	72.94
763.046	73.01
763.225	73.58
763.405	74.2
763.585	74.48
763.765	73.43
763.945	72.72
764.124	72.32
764.304	73.96
764.484	72.98
764.664	73.34
764.843	74
765.023	76.87
765.203	77.89
765.382	79.22
765.562	79.51
765.741	81.29
765.921	82.4
766.101	82.2
766.28	81.56
766.46	85.11
766.639	85.52
766.819	86.92
766.998	88.1
767.178	85.46
767.357	84.71
767.537	83.49
767.716	85
767.896	83.1
768.075	84.46
768.254	83.08
768.434	80.75
768.613	80.47
768.792	82.35
768.972	81.97
769.151	85.89
769.33	86.38
769.51	90.03
769.689	89.19
769.868	94.56
770.047	96.44
770.226	100.13
770.406	101.17
770.585	105.05
770.764	105.5
770.943	104.21
771.122	104.37
771.301	104.89
771.48	103.23
771.66	104.62
771.839	102.31
772.018	102.69
772.197	99.1
772.376	97.25
772.555	98.19
772.734	98.26
772.913	100.06
773.092	98.95
773.271	95.69
773.449	96.82
773.628	94.67
773.807	93.74
773.986	93.78
774.165	95.95
774.344	98.31
774.523	95.24
774.701	96.76
774.88	95.68
775.059	97.69
775.238	99.66
775.417	98.22
775.595	105.13
775.774	109.44
775.953	107.65
776.131	107.25
776.31	107.08
776.489	111.97
776.667	106.74
776.846	108.02
777.025	110.65
777.203	109.87
777.382	107.36
777.56	101.75
777.739	99.29
777.917	101.13
778.096	100.82
778.274	101.46
778.453	97.14
778.631	98.97
778.81	98
778.988	94.06
779.166	96.72
779.345	99.93
779.523	100.02
779.702	98.94
779.88	101.57
780.058	100.37
780.237	100.58
780.415	102.4
780.593	102.82
780.771	104.48
780.95	106.95
781.128	109.5
781.306	109.62
781.484	114.44
781.662	121.65
781.841	114.13
782.019	117.36
782.197	116.73
782.375	113.8
782.553	112.73
782.731	112.28
782.909	108.06
783.087	106
783.265	108.14
783.443	101.48
783.621	97.37
783.799	103.46
783.977	104.75
784.155	108.37
784.333	107.57
784.511	107.64
784.689	108.09
784.867	106.7
785.045	106.65
785.223	104.7
785.4	105.79
785.578	106.27
785.756	104.62
785.934	102.13
786.112	99.84
786.289	102.63
786.467	98.96
786.645	95.47
786.823	96.85
787	97.03
787.178	99.12
787.356	99.79
787.533	99.65
787.711	96.43
787.889	98.53
788.066	99.98
788.244	100.57
788.421	104.57
788.599	105.18
788.776	104.51
788.954	103.49
789.131	99.55
789.309	103.14
789.486	102.2
789.664	107.87
789.841	103.57
790.019	98.15
790.196	100.98
790.373	101.14
790.551	104.93
790.728	104.73
790.906	106.99
791.083	106.14
791.26	103.3
791.437	104.54
791.615	101.63
791.792	102.41
791.969	103.2
792.146	96.54
792.324	98.14
792.501	94.89
792.678	102.18
792.855	97.35
793.032	100.63
793.209	103.7
793.387	103.37
793.564	102.13
793.741	106.2
793.918	103.59
794.095	105.41
794.272	104.64
794.449	104.03
794.626	99.31
794.803	100.89
794.98	101.04
795.157	96.53
795.334	99.24
795.511	99.28
795.688	97.66
795.864	103.26
796.041	102.49
796.218	105.41
796.395	104.86
796.572	108.57
796.749	112.65
796.925	111.87
797.102	115.76
797.279	114.51
797.456	115.11
797.632	116.8
797.809	120.49
797.986	126.53
798.162	125.55
798.339	127.04
798.516	127.39
798.692	127.32
798.869	125.16
799.046	124.8
799.222	119.31
799.399	119.47
799.575	122.87
799.752	118.25
799.928	119.04
800.105	118.27
800.281	121.1
800.458	115.68
800.634	114.76
800.811	118.51
800.987	131.4
801.163	145.48
801.34	149.3
801.516	141.96
801.692	153.73
801.869	143.17
802.045	154.01
802.221	146.95
802.398	153.46
802.574	145.1
802.75	142.97
802.926	129.9
803.103	122.93
803.279	120.83
803.455	123.78
803.631	120.98
803.807	124.84
803.983	118.63
804.16	124.08
804.336	121.17
804.512	124.94
804.688	121.64
804.864	119.93
805.04	123.84
805.216	129.6
805.392	131.42
805.568	135.52
805.744	134.92
805.92	142.32
806.096	141.27
806.272	147.95
806.448	153.97
806.623	165.72
806.799	166.28
806.975	163.6
807.151	157.86
807.327	164.34
807.503	156.38
807.678	157.91
807.854	151.97
808.03	153.37
808.206	145.9
808.381	137.32
808.557	127.18
808.733	119.64
808.908	118.66
809.084	122.58
809.26	111.02
809.435	113.64
809.611	114.05
809.787	109.37
809.962	108.17
810.138	112.72
810.313	112.54
810.489	117.97
810.664	126.13
810.84	132.24
811.015	131.05
811.191	143.25
811.366	140.82
811.542	136.79
811.717	135.77
811.892	129.68
812.068	129.08
812.243	134.01
812.419	134.57
812.594	133.93
812.769	130.08
812.944	126.19
813.12	122.81
813.295	122.45
813.47	124.29
813.645	135.09
813.821	141.47
813.996	142.62
814.171	144.99
814.346	141.44
814.521	143.46
814.697	147.61
814.872	147.74
815.047	148.54
815.222	151.59
815.397	149.3
815.572	143.59
815.747	137.71
815.922	142.27
816.097	137.87
816.272	139.11
816.447	133.47
816.622	127.4
816.797	128.18
816.972	127.4
817.147	128.05
817.322	132.53
817.496	135.34
817.671	139.96
817.846	135.67
818.021	138.58
818.196	127.59
818.371	120.04
818.545	120.24
818.72	122.2
818.895	114.65
819.069	110.48
819.244	106.24
819.419	98.67
819.594	98.65
819.768	95.59
819.943	88.58
820.117	86.8
820.292	85.15
820.467	80.8
820.641	76.51
820.816	75.47
820.99	72.61
821.165	69.11
821.339	67.65
821.514	65.8
821.688	63.21
821.863	63.54
822.037	62.88
822.212	62.38
822.386	61.78
822.56	60.6
822.735	60.71
822.909	60.64
823.084	61.5
823.258	60.76
823.432	60.83
823.606	61.52
823.781	61.48
823.955	61.78
824.129	63.99
824.303	66.06
824.478	68.56
824.652	67.5
824.826	66.63
825	67.28
825.174	72.87
825.348	73.41
825.523	78.9
825.697	80.32
825.871	82.77
826.045	80.45
826.219	79.43
826.393	78.94
826.567	80.78
826.741	84.84
826.915	83.73
827.089	82.75
827.263	81.42
827.437	78.99
827.611	77.84
827.784	77.59
827.958	79.94
828.132	82.59
828.306	84.76
828.48	87.64
828.654	87.48
828.827	89.62
829.001	87.79
829.175	93.04
829.349	94.55
829.522	101.19
829.696	105.55
829.87	109.58
830.044	108.62
830.217	112.15
830.391	111.76
830.565	115.03
830.738	116.95
830.912	121.31
831.085	122.97
831.259	127.83
831.432	124.3
831.606	123.06
831.779	118.1
831.953	117.71
832.126	110.83
832.3	106.46
832.473	99.27
832.647	96.51
832.82	95.88
832.994	90.62
833.167	88.13
833.34	84.79
833.514	80.24
833.687	80.68
833.86	85.3
834.034	83.83
834.207	87.01
834.38	89.61
834.553	89.22
834.727	86.72
834.9	90.55
835.073	91.63
835.246	92.92
835.419	97.04
835.593	100.44
835.766	94.71
835.939	96.27
836.112	100.69
836.285	105.96
836.458	115.69
836.631	124.47
836.804	127.48
836.977	130.75
837.15	141.38
837.323	149.36
837.496	146.2
837.669	144.22
837.842	150.73
838.015	155.45
838.188	152.36
838.361	156.58
838.533	149.98
838.706	155.37
838.879	156.9
839.052	152.82
839.225	152.91
839.398	155.8
839.57	159.27
839.743	164.08
839.916	156.83
840.088	160.56
840.261	157.29
840.434	154.62
840.607	159.41
840.779	159.38
840.952	153.26
841.124	167.7
841.297	189.31
841.47	199.53
841.642	194.1
841.815	204.13
841.987	209.36
842.16	193.97
842.332	234.34
842.505	228.2
842.677	209.45
842.85	190.65
843.022	178.43
843.194	167.84
843.367	195.15
843.539	192.63
843.712	183.48
843.884	185.59
844.056	202.32
844.229	192.54
844.401	184.14
844.573	213.42
844.745	275.51
844.918	292.14
845.09	271.98
845.262	246.51
845.434	265.02
845.606	295.95
845.779	356.45
845.951	381.12
846.123	484.97
846.295	457.2
846.467	361.81
846.639	365.99
846.811	346.9
846.983	354.78
847.155	319.21
847.327	347.78
847.499	349.39
847.671	348.01
847.843	309.3
848.015	269.27
848.187	328.63
848.359	335.32
848.531	290.36
848.703	249.8
848.875	304.51
849.047	272.1
849.218	262.28
849.39	253.35
849.562	217.44
849.734	226.71
849.905	264.28
850.077	252.82
850.249	260.52
850.421	282.47
850.592	279.64
850.764	260.73
850.936	277.89
851.107	293.17
851.279	267.25
851.451	337.28
851.622	313.1
851.794	275.29
851.965	295.17
852.137	294.25
852.308	281.08
852.48	329.37
852.651	276.1
852.823	313.04
852.994	308.05
853.166	323.33
853.337	302.75
853.509	331.39
853.68	374.93
853.851	318.12
854.023	287.84
854.194	260.91
854.365	253.87
854.537	277.52
854.708	258.97
854.879	257.94
855.05	265.73
855.222	227.4
855.393	215.61
855.564	188.42
855.735	193.78
855.906	224.38
856.078	298.84
856.249	298.39
856.42	287.64
856.591	273.27
856.762	303.49
856.933	273.95
857.104	336.31
857.275	334.44
857.446	389.34
857.617	357.93
857.788	337.58
857.959	260.3
858.13	272.58
858.301	271.42
858.472	260.45
858.643	229.37
858.814	242.29
858.985	259.17
859.155	288.97
859.326	296.99
859.497	448.1
859.668	761.19
859.839	875.9
860.009	873.51
860.18	4472.22
860.351	-5240.63
860.522	5302.86
860.692	-9710.53
860.863	2879.03
861.034	1256.21
861.204	867.6
861.375	463.38
861.546	366.84
861.716	376.09
861.887	340.99
862.057	329.23
862.228	325.71
862.398	352.77
862.569	309.08
862.739	320.26
862.91	289.2
863.08	297.46
863.251	330.74
863.421	348.4
863.592	430.65
863.762	929.9
863.932	667.72
864.103	560.16
864.273	514.39
864.443	578.36
864.614	753.5
864.784	465.44
864.954	375.19
865.125	313.64
865.295	330.49
865.465	272.96
865.635	239.98
865.805	216.88
865.976	231.14
866.146	238.69
866.316	246.05
866.486	219.49
866.656	243.23
866.826	281.13
866.996	284.14
867.166	236.46
867.336	261.87
867.506	235.09
867.676	251.49
867.846	256.56
868.016	254.03
868.186	244.35
868.356	244.08
868.526	237.58
868.696	240.67
868.866	244.13
869.036	299.66
869.206	285.01
869.376	316.33
869.545	278.94
869.715	295.59
869.885	291.22
870.055	275.24
870.224	286.06
870.394	303.75
870.564	279.66
870.734	315.85
870.903	315.27
871.073	309.9
871.243	276.41
871.412	316.21
871.582	294.4
871.751	310.8
871.921	366.01
872.091	363.93
872.26	362.12
872.43	385.85
872.599	345.88
872.769	289.06
872.938	351.85
873.108	414.04
873.277	403.25
873.446	362.44
873.616	339.17
873.785	332.45
873.955	350.49
874.124	251.72
874.293	253.83
874.463	246.5
874.632	219.26
874.801	204.29
874.971	251.1
875.14	245.3
875.309	229.59
875.478	235.06
875.647	219.9
875.817	196.95
875.986	251.86
876.155	238.43
876.324	268.76
876.493	320.53
876.662	243.34
876.831	190.17
877	191.25
877.17	227.49
877.339	253.44
877.508	285.66
877.677	292.72
877.846	253.9
878.015	296.79
878.184	298.74
878.352	285.24
878.521	305.08
878.69	313.53
878.859	300.34
879.028	262.34
879.197	249.52
879.366	259.98
879.534	261.96
879.703	242.63
879.872	207.11
880.041	174.34
880.21	170.79
880.378	169.04
880.547	159.02
880.716	141.98
880.884	133.11
881.053	124.86
881.222	114.95
881.39	106.78
881.559	105.66
881.727	101.67
881.896	98.32
882.065	95.45
882.233	95.49
882.402	91.61
882.57	87.6
882.739	89.01
882.907	87.49
883.076	89.56
883.244	93.45
883.412	94.39
883.581	96.86
883.749	97.76
883.918	101.79
884.086	109.35
884.254	117.85
884.423	126.57
884.591	132.24
884.759	133.83
884.927	139.06
885.096	137.82
885.264	150.57
885.432	158.34
885.6	173.44
885.769	190.9
885.937	186.29
886.105	190.83
886.273	195.22
886.441	216.05
886.609	245.55
886.777	255.49
886.945	287.04
887.113	300.67
887.281	337.57
887.449	325.22
887.617	288.57
887.785	300.9
887.953	327.74
888.121	401.4
888.289	352.24
888.457	310.71
888.625	309.72
888.793	345.9
888.961	323.62
889.129	337.62
889.296	316.88
889.464	313.19
889.632	321.59
889.8	293.24
889.967	277.11
890.135	278.67
