Data from JASIL_3309_Reflection_1.txt Node
Date: Tue Nov 17 19:55:43 EST 2015
User: Geneva
Spectrometer: USB4E03002
Autoset integration time: false
Trigger mode: 4
Integration Time (sec): 1.000000E-1
Scans to average: 10
Electric dark correction enabled: false
Nonlinearity correction enabled: false
Boxcar width: 5
Stray light correction enabled: false
XAxis mode: Wavelengths
Stop averaging: false
Number of Pixels in Spectrum: 3648
>>>>>Begin Spectral Data<<<<<
177.575	-454.46
177.794	-534.78
178.014	-541.57
178.233	-960.38
178.452	-958.33
178.672	-496.85
178.891	-1184.48
179.11	7210
179.33	1778.26
179.549	1670.59
179.768	-7936.36
179.987	681.06
180.207	359.43
180.426	647.95
180.645	762.4
180.864	5558.82
181.084	686.75
181.303	480.8
181.522	597.7
181.741	546.63
181.96	913.13
182.179	5017.65
182.398	-981.82
182.618	-404.98
182.837	-354.29
183.056	-401.09
183.275	-464.44
183.494	-146.02
183.713	-135.34
183.932	-106.8
184.151	-71.7
184.37	-75.32
184.589	-123.52
184.808	-122.2
185.027	-119.74
185.246	-188.33
185.465	-183.77
185.684	-205.6
185.903	-326.86
186.122	-465
186.341	-1082.3
186.56	-823.21
186.779	-4237.04
186.998	-531.75
187.216	-555.56
187.435	-551.52
187.654	-601.21
187.873	-453.12
188.092	-678.85
188.311	-864.29
188.53	-628.8
188.748	-315.09
188.967	-392.59
189.186	-278.77
189.405	-520.23
189.623	-405.94
189.842	-402.51
190.061	-322.6
190.28	-192.69
190.498	-237.14
190.717	-181.7
190.936	-227.99
191.154	-592.31
191.373	-1077.01
191.592	2686.05
191.81	1027.18
192.029	1207.37
192.248	616.18
192.466	691.16
192.685	328.42
192.904	700.5
193.122	568.86
193.341	641.6
193.559	835.59
193.778	920.44
193.996	760.19
194.215	2427.54
194.433	1272.14
194.652	1164.34
194.87	1038.75
195.089	1251.54
195.307	2871.93
195.526	-1679.59
195.744	-1230.22
195.963	-1278
196.181	-1705.79
196.399	-2409.2
196.618	2546.05
196.836	1314.18
197.055	1281.76
197.273	1485.82
197.491	1631.53
197.71	748.41
197.928	615.89
198.146	593.49
198.365	3242.86
198.583	2031.75
198.801	-873.39
199.019	-293.02
199.238	-239.74
199.456	-243.15
199.674	-263.02
199.892	-220.24
200.111	-190.85
200.329	-207.26
200.547	-282.05
200.765	2123.53
200.983	-880.34
201.202	1572.37
201.42	468.21
201.638	344.17
201.856	484.62
202.074	755.33
202.292	458.93
202.51	382.58
202.728	432.26
202.946	3314.29
203.165	1778.85
203.383	373.65
203.601	525.89
203.819	976.36
204.037	-2960.61
204.255	-4200
204.473	-740.56
204.691	-674.71
204.909	-574.34
205.127	-3100
205.345	986.06
205.562	-1224.03
205.78	-307.8
205.998	-285.59
206.216	-271.22
206.434	-353.4
206.652	-399.08
206.87	-874.85
207.088	-680
207.306	-843.35
207.523	-671.04
207.741	-476.38
207.959	-701.8
208.177	-798.45
208.395	-736.76
208.612	-768.98
208.83	-480.19
209.048	-499.13
209.266	-421.27
209.483	-259.14
209.701	-320.67
209.919	-282.59
210.136	-297.59
210.354	-283.58
210.572	-363.98
210.79	-436
211.007	-786.62
211.225	-7813.33
211.442	1864.41
211.66	4380
211.878	404.65
212.095	507.85
212.313	685.59
212.53	372.99
212.748	368.13
212.966	245.22
213.183	252.53
213.401	-3355.56
213.618	-240.08
213.836	-199.66
214.053	-344.5
214.271	-262.82
214.488	-412.05
214.705	-376.57
214.923	-283.68
215.14	-176.72
215.358	-163.73
215.575	-141.74
215.793	-219.84
216.01	-603.32
216.227	-1052.59
216.445	-888.19
216.662	-484.91
216.879	-520.87
217.097	-307.85
217.314	-376.65
217.531	15862.5
217.749	1283.17
217.966	771.98
218.183	502.77
218.4	815.48
218.618	824.34
218.835	452.61
219.052	440.07
219.269	416.5
219.487	252.23
219.704	284.81
219.921	303.7
220.138	390.34
220.355	332.38
220.572	294.51
220.79	268.31
221.007	362.09
221.224	566.54
221.441	517.05
221.658	577.78
221.875	-2651.43
222.092	-1051.14
222.309	2857.58
222.526	547.27
222.743	550.72
222.96	797.84
223.177	2588.37
223.394	1543.42
223.611	846.15
223.828	595.2
224.045	479.15
224.262	353.21
224.479	352.74
224.696	649.04
224.913	1101.65
225.13	1108.49
225.347	752.41
225.564	345.22
225.781	226.51
225.997	173.57
226.214	141.61
226.431	114.17
226.648	98.8
226.865	77.13
227.082	62.9
227.298	65
227.515	62.15
227.732	62.12
227.949	58.65
228.165	53.58
228.382	49.9
228.599	45.29
228.816	40.77
229.032	47.07
229.249	56.09
229.466	62.65
229.682	59.74
229.899	57.24
230.116	67.72
230.332	80.9
230.549	86.78
230.765	87.67
230.982	92.5
231.199	104.8
231.415	108.27
231.632	100.84
231.848	97.54
232.065	102.77
232.281	92.94
232.498	90.98
232.714	82.59
232.931	84.75
233.147	92.49
233.364	96.28
233.58	89.56
233.797	91.23
234.013	108.63
234.23	129.07
234.446	127.91
234.662	163.94
234.879	253.06
235.095	227.36
235.312	188.21
235.528	185.25
235.744	231.08
235.961	325.25
236.177	290.21
236.393	381.82
236.61	312.66
236.826	250.09
237.042	171.7
237.258	159.43
237.475	156.66
237.691	220.58
237.907	164.44
238.123	123.77
238.339	108.07
238.556	98.26
238.772	75.07
238.988	57.02
239.204	49.74
239.42	65.9
239.636	57.9
239.853	56.02
240.069	48.72
240.285	48.39
240.501	49.53
240.717	48.3
240.933	49.15
241.149	50.11
241.365	50.22
241.581	53.94
241.797	49.2
242.013	48.44
242.229	48.03
242.445	51.16
242.661	53.02
242.877	56.99
243.093	52.73
243.309	52.14
243.525	48.72
243.741	50.47
243.957	46.61
244.173	43.93
244.388	43.67
244.604	38.9
244.82	35.67
245.036	31.61
245.252	24.93
245.468	26.03
245.683	24.17
245.899	23.46
246.115	21.61
246.331	22.13
246.547	23.52
246.762	22.23
246.978	22.16
247.194	21.1
247.409	22.17
247.625	22.9
247.841	22.24
248.057	24.84
248.272	24.1
248.488	24.15
248.703	22.55
248.919	26.2
249.135	29.67
249.35	35.57
249.566	36.39
249.782	37.82
249.997	35.52
250.213	34.83
250.428	33.65
250.644	34.12
250.859	30.98
251.075	32.79
251.29	29.48
251.506	28.39
251.721	26.48
251.937	28.65
252.152	27.11
252.368	33.19
252.583	30.19
252.798	29.53
253.014	31.73
253.229	36.79
253.445	41.53
253.66	43.93
253.875	46.43
254.091	44.74
254.306	48.34
254.521	43.07
254.737	39.95
254.952	44.81
255.167	40.37
255.383	41.53
255.598	40.82
255.813	33.16
256.028	25.57
256.244	23.94
256.459	28.72
256.674	29.04
256.889	29.09
257.104	27.57
257.32	26.25
257.535	26.73
257.75	25.99
257.965	24.86
258.18	22.21
258.395	20.74
258.61	20.01
258.826	16.46
259.041	14.81
259.256	14.27
259.471	13.99
259.686	14.86
259.901	14.05
260.116	13.43
260.331	13.45
260.546	16.19
260.761	19.18
260.976	18.38
261.191	21.35
261.406	23.12
261.621	25.19
261.836	28.76
262.05	28.33
262.265	32.35
262.48	37.83
262.695	38.29
262.91	38.99
263.125	37.51
263.34	43.72
263.555	41.3
263.769	40.19
263.984	38.07
264.199	35.62
264.414	35.82
264.629	35.23
264.843	34.18
265.058	32.69
265.273	25.3
265.488	28
265.702	27.79
265.917	30.83
266.132	31.17
266.346	32.61
266.561	32.67
266.776	33.84
266.99	31.69
267.205	29.3
267.42	29.48
267.634	29.95
267.849	27.11
268.063	25.61
268.278	24.68
268.492	22.7
268.707	21.93
268.922	22.39
269.136	20.43
269.351	18.63
269.565	20.12
269.78	19.18
269.994	23.33
270.209	24.01
270.423	23.19
270.637	21.27
270.852	22.38
271.066	22.07
271.281	23.42
271.495	24.08
271.709	25.03
271.924	24.14
272.138	25.99
272.353	24.91
272.567	25.88
272.781	24.51
272.996	25.65
273.21	26.73
273.424	27.03
273.638	25.34
273.853	25.5
274.067	25.89
274.281	24.75
274.495	21.06
274.71	23.99
274.924	21.83
275.138	25.62
275.352	24.35
275.566	25.22
275.781	23.9
275.995	22.88
276.209	19.95
276.423	20.07
276.637	20.37
276.851	23.42
277.065	19.9
277.279	19.75
277.493	20.04
277.707	19.38
277.921	16.48
278.135	20.44
278.349	18.05
278.563	20.38
278.777	17.13
278.991	18.3
279.205	17.5
279.419	16.78
279.633	18.65
279.847	17.06
280.061	15.81
280.275	14.6
280.489	9.55
280.703	11.86
280.917	11.88
281.131	13.12
281.344	12.8
281.558	12.16
281.772	13.3
281.986	12.84
282.2	11.33
282.414	12.86
282.627	13.41
282.841	16
283.055	12.86
283.269	13.93
283.482	13.76
283.696	14.11
283.91	15.75
284.123	14.92
284.337	15.58
284.551	16.88
284.764	16.23
284.978	16.73
285.192	16.91
285.405	18.83
285.619	18.03
285.833	18.61
286.046	17.98
286.26	17.52
286.473	19.55
286.687	19.85
286.9	19.96
287.114	19.89
287.327	18.63
287.541	17.75
287.754	17.39
287.968	17.75
288.181	18.25
288.395	18.93
288.608	19.09
288.822	18.44
289.035	17.51
289.248	17.02
289.462	17.33
289.675	18
289.889	18.05
290.102	18.94
290.315	18.09
290.529	18.47
290.742	17.96
290.955	17.7
291.169	18.22
291.382	17.8
291.595	18.58
291.808	18.56
292.022	18.57
292.235	19.67
292.448	19.83
292.661	21.19
292.875	20.37
293.088	20.14
293.301	17.09
293.514	15.59
293.727	15.45
293.94	13.76
294.153	13.4
294.367	14.69
294.58	11.86
294.793	9.37
295.006	8.49
295.219	8.49
295.432	7.09
295.645	9.7
295.858	11.12
296.071	10.82
296.284	11.48
296.497	12.37
296.71	13.1
296.923	14.15
297.136	15
297.349	16.7
297.562	16.58
297.775	17.27
297.988	16.4
298.201	15.66
298.414	16.89
298.626	15.63
298.839	15.35
299.052	15.78
299.265	16.63
299.478	18.33
299.691	17.13
299.903	16.49
300.116	16.83
300.329	17.31
300.542	17.42
300.755	17.21
300.967	18.56
301.18	18.57
301.393	17.09
301.605	16.45
301.818	15.56
302.031	15.39
302.243	16.64
302.456	16.56
302.669	16.66
302.881	17.78
303.094	18.51
303.307	18.36
303.519	18.25
303.732	17.78
303.944	17.84
304.157	19.69
304.37	19.85
304.582	20.83
304.795	20.74
305.007	21
305.22	20.26
305.432	19.53
305.645	20.04
305.857	20.72
306.069	19.47
306.282	18.71
306.494	16.26
306.707	16.97
306.919	15.82
307.132	16.66
307.344	17.04
307.556	16.35
307.769	15.41
307.981	15.46
308.193	14.21
308.406	15.11
308.618	14.17
308.83	15.44
309.043	14.98
309.255	15.63
309.467	15.84
309.679	13.72
309.892	14.07
310.104	15.62
310.316	15.93
310.528	16.79
310.74	15.21
310.953	16.39
311.165	16.28
311.377	16.65
311.589	16.05
311.801	14.63
312.013	16.12
312.225	15.85
312.437	15.28
312.649	14.09
312.862	14.68
313.074	17.32
313.286	17.24
313.498	15.49
313.71	14.16
313.922	13.91
314.134	14.15
314.346	15.12
314.558	16.15
314.77	16.72
314.982	17.87
315.193	15.58
315.405	14.5
315.617	15.32
315.829	18.14
316.041	18.37
316.253	18.11
316.465	19.93
316.677	18.99
316.888	19.56
317.1	18.58
317.312	17.78
317.524	21.35
317.736	23.55
317.947	23.8
318.159	22.79
318.371	25.19
318.583	26.41
318.794	27.56
319.006	28.03
319.218	27.62
319.43	28.13
319.641	30.26
319.853	28.92
320.064	28.18
320.276	29.34
320.488	29.53
320.699	28.78
320.911	28.97
321.123	27.28
321.334	28.01
321.546	27.92
321.757	28.02
321.969	28.71
322.18	27.26
322.392	25.93
322.603	24.26
322.815	22.09
323.026	21.93
323.238	21.46
323.449	21.21
323.661	21.64
323.872	19.98
324.083	18.71
324.295	16.41
324.506	16.96
324.718	17.5
324.929	18.48
325.14	21.52
325.352	21.78
325.563	22.38
325.774	22.72
325.986	21.87
326.197	24.14
326.408	26.22
326.62	27.17
326.831	28.88
327.042	30.41
327.253	29.75
327.464	28.45
327.676	27.6
327.887	27.59
328.098	28.49
328.309	28.85
328.52	28.37
328.732	26.79
328.943	27.28
329.154	24.62
329.365	23.48
329.576	24.71
329.787	24.87
329.998	24.6
330.209	24.84
330.42	25.25
330.631	24.51
330.842	23.74
331.053	24.84
331.264	25.09
331.475	26.93
331.686	27.8
331.897	26.86
332.108	29.43
332.319	29.21
332.53	27.78
332.741	27.19
332.952	26.76
333.163	28.66
333.374	29.53
333.585	29.78
333.795	29.88
334.006	28.68
334.217	29.64
334.428	28.47
334.639	29.89
334.849	32.75
335.06	32.83
335.271	34.05
335.482	32.82
335.692	32.47
335.903	30.79
336.114	31.95
336.325	32.45
336.535	31.32
336.746	31.06
336.957	29.88
337.167	27.6
337.378	27.89
337.589	27.6
337.799	27.19
338.01	26.82
338.22	28.52
338.431	27.96
338.642	27.79
338.852	28.01
339.063	26.76
339.273	27.92
339.484	29.12
339.694	29.2
339.905	28.67
340.115	29.66
340.326	28.91
340.536	28.36
340.746	27.41
340.957	27.69
341.167	28.28
341.378	29.08
341.588	29.76
341.799	28.02
342.009	28.25
342.219	29
342.43	28.86
342.64	29.83
342.85	29.02
343.061	29.68
343.271	29.26
343.481	28.36
343.691	28.36
343.902	27.51
344.112	28.49
344.322	26.67
344.532	27.02
344.743	27.14
344.953	27.01
345.163	27.4
345.373	27.69
345.583	27.02
345.793	29.06
346.004	29.19
346.214	30.35
346.424	31.48
346.634	32.6
346.844	32.98
347.054	32.89
347.264	32.67
347.474	31.52
347.684	30.64
347.894	30.91
348.104	28.74
348.314	28.01
348.524	25.78
348.734	24.68
348.944	24.13
349.154	23.04
349.364	21.62
349.574	20.84
349.784	21.15
349.994	21.78
350.204	21.33
350.413	21.43
350.623	20.74
350.833	21.71
351.043	21.46
351.253	22.62
351.463	21.83
351.672	23.63
351.882	23.63
352.092	24.6
352.302	24.05
352.511	24.94
352.721	25.11
352.931	26.31
353.141	25.78
353.35	27.17
353.56	25.25
353.77	24.31
353.979	23.56
354.189	23.41
354.399	22.46
354.608	22.03
354.818	22.27
355.027	22.25
355.237	21.65
355.447	22.42
355.656	21.87
355.866	22.24
356.075	23.81
356.285	24.01
356.494	23.73
356.704	24.56
356.913	25.41
357.123	25.46
357.332	25.92
357.542	25.61
357.751	25.43
357.96	24.1
358.17	23.99
358.379	22.9
358.589	22.51
358.798	23.44
359.007	24.21
359.217	24.17
359.426	23.01
359.635	22.99
359.845	23.34
360.054	22.45
360.263	23
360.472	23.6
360.682	24.72
360.891	24.79
361.1	24.85
361.309	24.58
361.519	23.56
361.728	23.62
361.937	23.9
362.146	24.24
362.355	24.63
362.564	24.3
362.774	24.7
362.983	24.29
363.192	24.33
363.401	24.77
363.61	23.51
363.819	24.57
364.028	25.34
364.237	24.63
364.446	24.7
364.655	24.06
364.864	24.53
365.073	24.13
365.282	23.41
365.491	23.61
365.7	24.1
365.909	24.26
366.118	25.12
366.327	24.86
366.536	24.46
366.745	24.33
366.954	25.34
367.162	24.77
367.371	24.43
367.58	25.39
367.789	25.47
367.998	24.69
368.207	25.57
368.415	25.07
368.624	25.16
368.833	25.81
369.042	25.67
369.25	25.36
369.459	26.05
369.668	25.7
369.877	24.99
370.085	24.87
370.294	24.06
370.503	23.75
370.711	22.72
370.92	22.47
371.129	22.42
371.337	21.64
371.546	21.43
371.754	20.65
371.963	21.08
372.171	21.14
372.38	20.49
372.589	21.15
372.797	21.21
373.006	22.14
373.214	21.9
373.423	21.29
373.631	21.98
373.84	21.18
374.048	21.4
374.256	20.48
374.465	21.2
374.673	22.51
374.882	21.21
375.09	19.97
375.298	19.92
375.507	19.88
375.715	19.52
375.923	18.76
376.132	19.85
376.34	19.42
376.548	20.03
376.757	19.73
376.965	18.09
377.173	19.26
377.381	20.32
377.59	20.09
377.798	20.92
378.006	21.23
378.214	21.97
378.423	21.78
378.631	21.64
378.839	22
379.047	22.19
379.255	23.21
379.463	22.83
379.671	22.86
379.879	22.85
380.088	22.03
380.296	22.9
380.504	23.39
380.712	23.39
380.92	23.46
381.128	23.48
381.336	22.43
381.544	22.12
381.752	21.43
381.96	20.95
382.168	19.92
382.376	20.35
382.584	19.62
382.791	18.71
382.999	17.82
383.207	17.2
383.415	17.24
383.623	17.33
383.831	17.55
384.039	17.77
384.247	18.24
384.454	18.88
384.662	18.74
384.87	19.43
385.078	18.79
385.285	19.36
385.493	20.44
385.701	20.04
385.909	20.33
386.116	20.1
386.324	20.24
386.532	19.45
386.739	19.32
386.947	18.41
387.155	17.62
387.362	18.67
387.57	17.74
387.778	17.28
387.985	16.44
388.193	16.42
388.4	15.91
388.608	15.71
388.816	16.45
389.023	16.87
389.231	17.97
389.438	17.94
389.646	17.51
389.853	18.55
390.061	18.92
390.268	19.46
390.475	19.23
390.683	19.41
390.89	19.68
391.098	19.31
391.305	19.08
391.512	18.48
391.72	18.31
391.927	18.41
392.135	17.86
392.342	17.59
392.549	16.79
392.756	16.45
392.964	16.29
393.171	17.02
393.378	17.14
393.586	17.37
393.793	17.63
394	18.07
394.207	18.32
394.414	18.64
394.622	18.68
394.829	19.61
395.036	19.94
395.243	20.25
395.45	19.25
395.657	18.68
395.864	18.2
396.072	18.76
396.279	18.48
396.486	17.55
396.693	17.1
396.9	17.07
397.107	17.04
397.314	16.91
397.521	16.92
397.728	16.66
397.935	16.46
398.142	16.46
398.349	15.81
398.556	16.05
398.763	16.47
398.97	17.41
399.177	17.52
399.383	17.85
399.59	18.14
399.797	18.04
400.004	19.11
400.211	19.59
400.418	19.64
400.625	18.85
400.831	18.72
401.038	17.91
401.245	17.18
401.452	17.26
401.658	16.85
401.865	16.71
402.072	16.15
402.279	15.41
402.485	15.72
402.692	15.42
402.899	15.36
403.105	14.69
403.312	15.59
403.519	16.1
403.725	15.24
403.932	15.07
404.138	15.26
404.345	15.42
404.552	15.57
404.758	15.33
404.965	15.54
405.171	16.08
405.378	16.25
405.584	16.73
405.791	16.77
405.997	17.74
406.204	18.64
406.41	18.59
406.617	18.52
406.823	18.15
407.029	18.27
407.236	18.56
407.442	18.5
407.649	18.82
407.855	17.81
408.061	17.25
408.268	16.72
408.474	15.82
408.68	15.37
408.887	15.93
409.093	16.91
409.299	16.91
409.505	16.51
409.712	17.1
409.918	16.58
410.124	16.66
410.33	17.22
410.537	16.81
410.743	16.2
410.949	16.66
411.155	16.27
411.361	15.34
411.567	14.58
411.773	15.14
411.98	14.76
412.186	15.82
412.392	16.35
412.598	15.76
412.804	15.85
413.01	16.59
413.216	16.74
413.422	16.77
413.628	17.11
413.834	17.38
414.04	16.99
414.246	16.5
414.452	15.79
414.658	14.81
414.864	15.06
415.07	14.83
415.275	14.63
415.481	14.5
415.687	14.66
415.893	14.45
416.099	14.82
416.305	14.79
416.511	14.73
416.716	14.71
416.922	14.78
417.128	14.52
417.334	15.19
417.539	15.04
417.745	15.1
417.951	14.87
418.157	15.13
418.362	15
418.568	14.71
418.774	14.41
418.979	14.38
419.185	14.5
419.391	14.73
419.596	14.48
419.802	14.66
420.008	14.22
420.213	14.46
420.419	14.31
420.624	14.24
420.83	14.35
421.035	14.65
421.241	14.51
421.446	14.62
421.652	14.65
421.857	14.89
422.063	14.97
422.268	14.94
422.474	14.45
422.679	14.17
422.885	14.1
423.09	14.14
423.295	14.28
423.501	14.38
423.706	14.4
423.911	14.26
424.117	14.04
424.322	14.11
424.527	14.21
424.733	14.49
424.938	14.4
425.143	14.55
425.349	14.42
425.554	14.26
425.759	14.25
425.964	13.99
426.169	14.02
426.375	14.37
426.58	14.04
426.785	14.25
426.99	14.47
427.195	14.59
427.4	14.74
427.605	15.18
427.811	15.32
428.016	15.2
428.221	15.7
428.426	15.98
428.631	15.2
428.836	15.11
429.041	14.84
429.246	14.51
429.451	14.76
429.656	14.63
429.861	14.35
430.066	14.1
430.271	14.66
430.476	14.4
430.681	13.72
430.886	14.19
431.09	14.01
431.295	13.78
431.5	14.08
431.705	14.17
431.91	14
432.115	13.76
432.32	13.59
432.524	13.32
432.729	13.48
432.934	13.5
433.139	13.28
433.343	13.42
433.548	13.96
433.753	13.66
433.958	13.24
434.162	13.58
434.367	13.96
434.572	14.09
434.776	13.98
434.981	13.95
435.186	14.22
435.39	14.46
435.595	14.55
435.799	14.5
436.004	14.73
436.209	15.16
436.413	15.11
436.618	14.97
436.822	15.43
437.027	15.78
437.231	15.63
437.436	15.46
437.64	15.59
437.845	15.43
438.049	15.13
438.253	14.8
438.458	14.85
438.662	14.76
438.867	14.6
439.071	14.58
439.275	14.52
439.48	14.77
439.684	15.29
439.888	15.12
440.093	14.91
440.297	15.01
440.501	15.23
440.706	15.35
440.91	15.3
441.114	15.3
441.318	15.11
441.523	15.02
441.727	14.53
441.931	14.4
442.135	14.21
442.339	14.61
442.543	14.58
442.748	14.82
442.952	14.3
443.156	14.11
443.36	14.53
443.564	14.52
443.768	14.66
443.972	15.14
444.176	14.87
444.38	15.19
444.584	14.95
444.788	14.91
444.992	14.57
445.196	14.79
445.4	14.7
445.604	14.34
445.808	14.28
446.012	14.07
446.216	13.87
446.42	13.64
446.624	13.41
446.828	13.43
447.032	13.37
447.235	13.33
447.439	13.17
447.643	13.44
447.847	13.73
448.051	13.84
448.254	13.75
448.458	13.73
448.662	13.89
448.866	13.96
449.069	14.04
449.273	14.05
449.477	14.14
449.681	14.36
449.884	14.21
450.088	13.82
450.292	13.66
450.495	13.57
450.699	13.9
450.902	13.97
451.106	13.37
451.31	13.85
451.513	13.77
451.717	14
451.92	14.03
452.124	14.16
452.327	14.41
452.531	14.77
452.734	14.76
452.938	14.26
453.141	14.56
453.345	15.26
453.548	14.86
453.752	15.02
453.955	14.74
454.158	14.44
454.362	14.41
454.565	14.29
454.769	14.08
454.972	14.59
455.175	14.75
455.379	15
455.582	15.25
455.785	15.14
455.988	14.85
456.192	14.62
456.395	14.65
456.598	15.08
456.801	15.24
457.005	15.26
457.208	14.77
457.411	14.5
457.614	13.83
457.817	13.17
458.021	13.23
458.224	13.63
458.427	14.03
458.63	13.99
458.833	13.96
459.036	13.69
459.239	13.56
459.442	13.72
459.645	13.79
459.848	13.87
460.051	14.23
460.254	14.41
460.457	14.36
460.66	14.52
460.863	14.6
461.066	14.21
461.269	14.26
461.472	14.46
461.675	14.39
461.878	14.5
462.081	14.59
462.284	14.69
462.486	14.47
462.689	14.06
462.892	14.17
463.095	14.05
463.298	14.13
463.5	14.68
463.703	14.34
463.906	14.35
464.109	14.57
464.311	14.73
464.514	14.33
464.717	14.27
464.92	14.33
465.122	13.88
465.325	14.29
465.528	14.35
465.73	14.14
465.933	14.18
466.135	14.34
466.338	14.29
466.541	14.3
466.743	14.51
466.946	14.55
467.148	14.75
467.351	14.67
467.553	14.42
467.756	14.16
467.958	13.86
468.161	13.8
468.363	13.94
468.566	13.75
468.768	13.71
468.971	13.75
469.173	14.12
469.375	14.42
469.578	14.3
469.78	14.28
469.983	14.86
470.185	15.15
470.387	15.53
470.59	14.99
470.792	14.97
470.994	14.94
471.196	14.94
471.399	14.62
471.601	14.55
471.803	14.71
472.005	14.76
472.208	14.65
472.41	14.63
472.612	14.48
472.814	15.03
473.016	15.24
473.218	15.23
473.421	14.54
473.623	14.43
473.825	14.08
474.027	14.05
474.229	14.5
474.431	13.86
474.633	13.8
474.835	13.36
475.037	13.16
475.239	13.18
475.441	13.37
475.643	14.26
475.845	14.39
476.047	14.52
476.249	14.58
476.451	14.07
476.653	14.1
476.855	14.06
477.057	14.63
477.258	14.51
477.46	14.51
477.662	14.33
477.864	14.13
478.066	14.11
478.268	14.14
478.469	14.31
478.671	14.2
478.873	14.32
479.075	14.29
479.276	14.09
479.478	14.19
479.68	14.23
479.882	14.05
480.083	14.01
480.285	13.84
480.487	14.04
480.688	13.87
480.89	14.03
481.091	13.97
481.293	13.7
481.495	13.6
481.696	13.31
481.898	13.03
482.099	13.06
482.301	12.94
482.502	12.99
482.704	12.73
482.905	12.67
483.107	12.55
483.308	12.45
483.51	12.47
483.711	12.32
483.913	12.43
484.114	12.46
484.315	12.35
484.517	12.43
484.718	12.38
484.92	12.63
485.121	12.53
485.322	12.59
485.524	12.69
485.725	12.78
485.926	12.92
486.127	12.84
486.329	12.94
486.53	12.9
486.731	12.78
486.932	12.71
487.134	12.62
487.335	12.65
487.536	12.66
487.737	12.87
487.938	12.98
488.139	13
488.341	12.9
488.542	12.85
488.743	13.08
488.944	13.26
489.145	13.3
489.346	13.31
489.547	13.4
489.748	13.39
489.949	13.13
490.15	12.88
490.351	12.89
490.552	12.92
490.753	12.99
490.954	12.88
491.155	12.8
491.356	12.83
491.557	12.74
491.758	12.87
491.959	12.92
492.159	13
492.36	13.19
492.561	13.23
492.762	13.32
492.963	13.27
493.164	13.43
493.364	13.44
493.565	13.61
493.766	13.53
493.967	13.34
494.167	13.27
494.368	12.9
494.569	12.84
494.769	12.64
494.97	12.71
495.171	12.98
495.371	12.59
495.572	12.59
495.773	12.49
495.973	12.68
496.174	12.76
496.375	13.01
496.575	13.2
496.776	13.28
496.976	13.56
497.177	13.5
497.377	13.25
497.578	13.28
497.778	13.35
497.979	13.55
498.179	13.31
498.38	13.32
498.58	13.07
498.78	13.45
498.981	13.75
499.181	13.86
499.382	14.01
499.582	14.03
499.782	14.7
499.983	14.82
500.183	14.75
500.383	15.12
500.584	15.12
500.784	15.41
500.984	15.41
501.184	14.84
501.385	14.85
501.585	15.24
501.785	15.19
501.985	14.82
502.185	14.92
502.386	14.89
502.586	15.02
502.786	14.99
502.986	14.65
503.186	14.54
503.386	14.9
503.586	15.09
503.786	14.85
503.987	14.96
504.187	14.92
504.387	15.04
504.587	15.04
504.787	14.84
504.987	14.93
505.187	15.2
505.387	15.56
505.587	15.37
505.786	15.1
505.986	15.31
506.186	15.23
506.386	15.8
506.586	15.74
506.786	15.62
506.986	15.48
507.186	15.48
507.386	15.65
507.585	15.72
507.785	15.74
507.985	15.73
508.185	15.72
508.384	15.99
508.584	15.81
508.784	15.82
508.984	16.12
509.183	16.16
509.383	16.35
509.583	16.39
509.782	15.9
509.982	16.38
510.182	16.68
510.381	16.71
510.581	16.27
510.781	16.34
510.98	16.07
511.18	15.92
511.379	16.02
511.579	15.8
511.778	15.98
511.978	16.43
512.177	15.92
512.377	15.62
512.576	15.23
512.776	15.42
512.975	15.33
513.175	15.53
513.374	15.66
513.573	15.93
513.773	15.95
513.972	15.79
514.172	15.85
514.371	16.03
514.57	16.34
514.77	16.95
514.969	17.08
515.168	17.21
515.367	17.38
515.567	17.35
515.766	17.46
515.965	17.78
516.164	17.59
516.364	17.36
516.563	17.42
516.762	17.48
516.961	17.38
517.16	17.52
517.359	17.17
517.559	17.11
517.758	17.27
517.957	17.29
518.156	17.1
518.355	17.18
518.554	17.24
518.753	17.19
518.952	16.97
519.151	16.83
519.35	16.83
519.549	17.07
519.748	17.3
519.947	17.17
520.146	17.35
520.345	17.64
520.544	17.56
520.743	17.69
520.942	17.77
521.141	18.04
521.339	18.3
521.538	18.45
521.737	18.48
521.936	18.77
522.135	18.88
522.333	18.88
522.532	19.01
522.731	19.4
522.93	19.49
523.129	19.63
523.327	19.66
523.526	19.74
523.725	19.46
523.923	19.81
524.122	19.45
524.321	19.79
524.519	19.78
524.718	19.74
524.917	19.79
525.115	19.83
525.314	19.85
525.512	20.09
525.711	20.13
525.909	20.33
526.108	20.35
526.306	20.41
526.505	20.18
526.703	20.11
526.902	20.16
527.1	20.09
527.299	20.09
527.497	20.2
527.696	20.17
527.894	20.12
528.092	20.21
528.291	20.21
528.489	20.27
528.688	20.33
528.886	20.51
529.084	20.64
529.283	20.88
529.481	20.97
529.679	21.19
529.877	21.38
530.076	21.64
530.274	22.03
530.472	22.18
530.67	22.5
530.869	22.82
531.067	22.87
531.265	22.89
531.463	22.98
531.661	22.99
531.859	22.93
532.057	22.94
532.255	23.04
532.454	22.96
532.652	23.01
532.85	22.95
533.048	22.99
533.246	23.22
533.444	23.31
533.642	23.35
533.84	23.75
534.038	23.78
534.236	23.9
534.434	23.97
534.632	23.91
534.83	23.92
535.027	24.29
535.225	24.45
535.423	24.39
535.621	24.5
535.819	24.61
536.017	24.49
536.215	24.67
536.412	24.67
536.61	24.93
536.808	25.32
537.006	25.53
537.203	25.45
537.401	25.61
537.599	25.71
537.797	25.94
537.994	26.19
538.192	26.37
538.39	26.31
538.587	26.37
538.785	26.33
538.983	26.12
539.18	26.45
539.378	26.35
539.575	26.32
539.773	26.32
539.97	26.39
540.168	26.46
540.366	26.42
540.563	26.63
540.761	26.68
540.958	26.63
541.155	26.77
541.353	26.78
541.55	27.02
541.748	27.07
541.945	27.34
542.143	27.32
542.34	27.49
542.537	27.59
542.735	27.78
542.932	27.9
543.129	28.24
543.327	28.39
543.524	28.22
543.721	28.35
543.919	28.51
544.116	28.41
544.313	28.73
544.51	28.65
544.708	29.05
544.905	28.86
545.102	28.76
545.299	29.02
545.496	28.99
545.693	29.2
545.891	29.1
546.088	29.21
546.285	29.3
546.482	29.34
546.679	29.27
546.876	29.15
547.073	29.41
547.27	29.93
547.467	29.9
547.664	30.13
547.861	30.45
548.058	30.87
548.255	31.07
548.452	31.44
548.649	31.49
548.846	31.94
549.043	31.96
549.24	32.06
549.437	31.79
549.633	31.38
549.83	31.34
550.027	30.96
550.224	30.81
550.421	30.49
550.618	30.34
550.814	30.28
551.011	30.16
551.208	30.05
551.405	30.02
551.601	29.93
551.798	29.99
551.995	30.14
552.191	30.47
552.388	30.67
552.585	30.89
552.781	30.86
552.978	30.78
553.175	30.85
553.371	30.99
553.568	31.11
553.764	31.44
553.961	31.42
554.157	31.47
554.354	31.46
554.55	31.23
554.747	31.12
554.943	31.6
555.14	32.06
555.336	31.97
555.533	32.11
555.729	32.17
555.926	31.97
556.122	32.12
556.318	31.98
556.515	31.98
556.711	32.36
556.907	32.65
557.104	32.28
557.3	32.35
557.496	32.26
557.693	32.22
557.889	31.78
558.085	31.98
558.281	32.37
558.478	32.62
558.674	32.93
558.87	32.65
559.066	32.51
559.262	32.02
559.459	31.97
559.655	32.41
559.851	32.25
560.047	32.94
560.243	32.94
560.439	32.58
560.635	32.63
560.831	32.44
561.027	32.41
561.223	32.64
561.419	33.21
561.615	33.1
561.811	32.86
562.007	33.32
562.203	33.09
562.399	33.14
562.595	33.37
562.791	33.36
562.987	33.43
563.183	33.39
563.379	33.45
563.575	33.67
563.771	33.77
563.966	33.76
564.162	33.56
564.358	33.65
564.554	33.4
564.75	33.8
564.945	34.15
565.141	34.38
565.337	34.37
565.533	34.37
565.728	34.19
565.924	34.13
566.12	34.34
566.315	34.23
566.511	34.14
566.707	34.58
566.902	34.76
567.098	34.57
567.293	34.36
567.489	34.72
567.684	34.81
567.88	34.54
568.076	34.58
568.271	34.58
568.467	34.82
568.662	34.89
568.858	34.89
569.053	33.96
569.248	34.09
569.444	34.01
569.639	33.55
569.835	33.46
570.03	33.56
570.225	33.48
570.421	33.24
570.616	33.44
570.812	33.19
571.007	33.07
571.202	33.7
571.397	33.33
571.593	33.57
571.788	33.82
571.983	33.84
572.178	34.09
572.374	33.81
572.569	33.76
572.764	33.51
572.959	33.29
573.154	33.56
573.35	33.73
573.545	33.48
573.74	33.28
573.935	32.97
574.13	33.03
574.325	32.99
574.52	33.28
574.715	33.54
574.91	33.74
575.105	34.37
575.3	34.43
575.495	34.24
575.69	34.96
575.885	35.26
576.08	35.53
576.275	35.89
576.47	36.38
576.665	36.36
576.86	36.18
577.055	36.33
577.25	36.04
577.444	35.83
577.639	35.21
577.834	34.97
578.029	35.09
578.224	34.9
578.418	34.44
578.613	33.96
578.808	34.06
579.003	34.54
579.197	34.41
579.392	34.43
579.587	34.74
579.781	34.88
579.976	34.87
580.171	34.85
580.365	35.32
580.56	35.22
580.755	35.11
580.949	34.84
581.144	34.13
581.338	34.2
581.533	34.35
581.727	34.47
581.922	34.4
582.116	34.25
582.311	34.29
582.505	34.75
582.7	34.86
582.894	35.11
583.089	35.59
583.283	35.96
583.478	35.91
583.672	36.43
583.866	36.17
584.061	36.73
584.255	36.75
584.449	36.84
584.644	36.51
584.838	36.72
585.032	36.87
585.226	36.47
585.421	36.55
585.615	37
585.809	36.19
586.003	36.93
586.198	37.29
586.392	37.36
586.586	37.2
586.78	36.88
586.974	36.47
587.168	35.97
587.363	36.42
587.557	36.53
587.751	36.01
587.945	36.41
588.139	35.89
588.333	35.11
588.527	35.26
588.721	34.98
588.915	35.02
589.109	35.26
589.303	35.67
589.497	35.52
589.691	35.24
589.885	34.98
590.079	34.92
590.273	34.92
590.466	35.97
590.66	36.21
590.854	36.49
591.048	36.99
591.242	37.21
591.436	37.3
591.629	37.59
591.823	38.17
592.017	38.63
592.211	39.17
592.404	38.74
592.598	37.86
592.792	37.77
592.986	37.92
593.179	37.75
593.373	37.88
593.567	37.58
593.76	37.31
593.954	36.62
594.147	36.58
594.341	36.48
594.535	36.89
594.728	37.15
594.922	37.05
595.115	36.36
595.309	36.14
595.502	35.77
595.696	35.68
595.889	35.49
596.083	35.79
596.276	36.12
596.47	35.85
596.663	35.82
596.856	35.85
597.05	35.97
597.243	36.57
597.437	36.54
597.63	37.06
597.823	36.99
598.017	37.12
598.21	37.11
598.403	36.54
598.596	36.47
598.79	36.77
598.983	36.73
599.176	35.98
599.369	35.87
599.563	36.17
599.756	36
599.949	36.48
600.142	36.78
600.335	36.76
600.528	36.97
600.722	36.8
600.915	36.41
601.108	36.17
601.301	36.5
601.494	36.36
601.687	36.08
601.88	36.09
602.073	35.79
602.266	36.16
602.459	36.56
602.652	35.96
602.845	36.07
603.038	35.81
603.231	35.89
603.424	36.13
603.617	35.94
603.809	35.77
604.002	35.75
604.195	35.91
604.388	35.65
604.581	35.38
604.774	36.1
604.966	36.41
605.159	36.57
605.352	36.68
605.545	36.63
605.737	37.11
605.93	38.32
606.123	37.75
606.316	37.82
606.508	37.28
606.701	36.94
606.894	36.71
607.086	36.81
607.279	37.18
607.471	37.46
607.664	37.7
607.857	37.92
608.049	37.38
608.242	37.79
608.434	38.14
608.627	38.86
608.819	39.46
609.012	39.98
609.204	39.48
609.397	40.06
609.589	39.82
609.782	39.86
609.974	39.42
610.166	39.5
610.359	39.48
610.551	39.29
610.743	39.14
610.936	39.26
611.128	39.13
611.32	39.64
611.513	38.93
611.705	39.93
611.897	40.41
612.09	40.79
612.282	40.7
612.474	41.75
612.666	42.02
612.858	41.88
613.051	41.51
613.243	40.4
613.435	40.54
613.627	40.74
613.819	39.76
614.011	39.02
614.203	39.32
614.395	39.62
614.588	39.03
614.78	39.27
614.972	40.19
615.164	40.69
615.356	41.69
615.548	41.28
615.74	41.27
615.932	41.54
616.124	42.05
616.315	42.66
616.507	42.55
616.699	42.16
616.891	41.89
617.083	41.48
617.275	41.2
617.467	40.98
617.659	41.85
617.85	41.74
618.042	42.1
618.234	41.98
618.426	41.72
618.618	41.29
618.809	41.88
619.001	41.6
619.193	41.45
619.384	41.04
619.576	41.05
619.768	40.27
619.959	40.31
620.151	39.97
620.343	39.66
620.534	38.84
620.726	39.15
620.917	38.86
621.109	38.69
621.301	38.56
621.492	39.2
621.684	39.73
621.875	40.25
622.067	39.68
622.258	39.75
622.45	39.55
622.641	39.74
622.832	40.16
623.024	39.67
623.215	39.73
623.407	39.83
623.598	39.46
623.789	39.08
623.981	39.28
624.172	40.11
624.363	40.1
624.555	40.05
624.746	39.52
624.937	39.21
625.129	40.14
625.32	40.46
625.511	40.26
625.702	40.57
625.893	40.96
626.085	40.27
626.276	39.81
626.467	39.61
626.658	39.75
626.849	40.28
627.04	40.95
627.231	40.52
627.422	40.36
627.614	40.17
627.805	39.67
627.996	39.06
628.187	39.77
628.378	40.34
628.569	40.58
628.76	40.4
628.951	40.12
629.142	39.54
629.332	39.3
629.523	39.26
629.714	40.07
629.905	40.53
630.096	40.72
630.287	40.17
630.478	39.66
630.669	39.82
630.859	40.44
631.05	40.73
631.241	40.51
631.432	40.43
631.623	40.51
631.813	39.81
632.004	39.95
632.195	40.05
632.385	40.45
632.576	40.31
632.767	40.12
632.957	40.05
633.148	40.17
633.339	40.19
633.529	40.56
633.72	40.59
633.91	41.02
634.101	41.06
634.292	41.32
634.482	41.35
634.673	41.81
634.863	41.63
635.054	41.28
635.244	41.8
635.435	42.44
635.625	42.34
635.815	42.52
636.006	42.17
636.196	41.61
636.387	41.37
636.577	41.13
636.767	41.41
636.958	41.54
637.148	42.4
637.338	41.84
637.529	41.51
637.719	41.5
637.909	41.61
638.099	42.08
638.29	42.39
638.48	42.67
638.67	42.78
638.86	42.71
639.05	42.99
639.241	42.58
639.431	41.86
639.621	42.7
639.811	42.09
640.001	42.5
640.191	42.31
640.381	42.49
640.571	42.75
640.761	42.81
640.951	43.13
641.141	43.05
641.331	43.05
641.521	44.36
641.711	43.3
641.901	43.75
642.091	43.59
642.281	43.61
642.471	44.03
642.661	43.99
642.851	43.81
643.041	43.33
643.231	43.38
643.42	43.73
643.61	44.06
643.8	44.48
643.99	44.84
644.18	44.64
644.369	45.05
644.559	44.75
644.749	44.41
644.939	44.16
645.128	44.48
645.318	44.92
645.508	44.56
645.697	43.75
645.887	43.14
646.076	43.23
646.266	43.7
646.456	43.27
646.645	43.5
646.835	44.23
647.024	44.55
647.214	44.29
647.403	43.58
647.593	43.28
647.782	43.32
647.972	43.7
648.161	44.27
648.351	44.29
648.54	44.33
648.73	44.48
648.919	43.5
649.108	43.43
649.298	43.21
649.487	44.01
649.677	44.7
649.866	44.73
650.055	44.14
650.244	44.08
650.434	44.02
650.623	43.85
650.812	43.1
651.002	43.54
651.191	44.31
651.38	44.19
651.569	44.01
651.758	44.4
651.947	44.61
652.137	45.2
652.326	43.6
652.515	42.79
652.704	43.13
652.893	42.91
653.082	43.07
653.271	42.67
653.46	42.26
653.649	42.06
653.838	41.07
654.027	40.84
654.216	40.67
654.405	42.12
654.594	42.83
654.783	42.52
654.972	43.46
655.161	42.77
655.35	42.58
655.539	43.59
655.728	43.31
655.916	43.22
656.105	43.66
656.294	43.8
656.483	43.36
656.672	43.23
656.86	43.27
657.049	42.97
657.238	43.21
657.427	43.42
657.615	43.34
657.804	43.49
657.993	43.49
658.181	43.61
658.37	44.19
658.559	43.93
658.747	44.65
658.936	44.45
659.125	44.84
659.313	44.74
659.502	45.04
659.69	44.93
659.879	45.23
660.067	45.45
660.256	45.41
660.444	45.09
660.633	45.44
660.821	44.7
661.01	45.6
661.198	44.49
661.387	44.42
661.575	43.99
661.763	44.27
661.952	44.01
662.14	44.46
662.328	44.33
662.517	44.53
662.705	45.45
662.893	45.16
663.082	44.14
663.27	45.25
663.458	46.21
663.646	46
663.834	45.63
664.023	46.47
664.211	45.86
664.399	46.17
664.587	46.36
664.775	45.51
664.963	45.55
665.152	46.18
665.34	44.94
665.528	44.77
665.716	45.57
665.904	46.21
666.092	44.98
666.28	45.94
666.468	44.91
666.656	44.28
666.844	44.37
667.032	44.3
667.22	45.7
667.408	46.67
667.596	46.6
667.784	46.77
667.971	46.82
668.159	48.04
668.347	46.87
668.535	47.84
668.723	47.19
668.911	46.66
669.098	46.05
669.286	45.32
669.474	45.73
669.662	44.61
669.849	43.3
670.037	42.75
670.225	42.46
670.413	43.15
670.6	42.42
670.788	43.1
670.976	43.25
671.163	44.37
671.351	44.13
671.538	44.22
671.726	45.32
671.913	46.69
672.101	46.59
672.289	46.53
672.476	47.04
672.664	47.32
672.851	47.35
673.039	47.21
673.226	47.54
673.413	46.81
673.601	46.27
673.788	46.88
673.976	46.5
674.163	46.96
674.35	46.89
674.538	46.55
674.725	45.99
674.912	45.96
675.1	46.82
675.287	46.39
675.474	46.36
675.662	46.52
675.849	45.46
676.036	45.36
676.223	44.95
676.411	44.65
676.598	43.89
676.785	45.58
676.972	46.12
677.159	46.15
677.346	45.03
677.533	46.45
677.721	45.53
677.908	45.65
678.095	45.58
678.282	45.63
678.469	44.58
678.656	44.35
678.843	43.03
679.03	42.75
679.217	42.62
679.404	43.72
679.591	42.64
679.778	43.34
679.964	43.65
680.151	43.43
680.338	43.49
680.525	44.51
680.712	44.85
680.899	45.36
681.086	45.46
681.272	45.82
681.459	46.08
681.646	45.22
681.833	45.16
682.02	45.65
682.206	46.58
682.393	46.44
682.58	47.03
682.766	50.6
682.953	51.12
683.14	51.88
683.326	52.26
683.513	52.18
683.7	54.39
683.886	55.1
684.073	55.5
684.259	55.09
684.446	55.82
684.632	54.92
684.819	51.26
685.005	51.8
685.192	51.14
685.378	52.15
685.565	51.85
685.751	50.84
685.938	50.91
686.124	50.17
686.31	49.71
686.497	49.33
686.683	50.78
686.87	50.32
687.056	48.95
687.242	47.13
687.429	46.48
687.615	45.6
687.801	46.41
687.987	45.96
688.174	45.88
688.36	46.45
688.546	46.47
688.732	45.91
688.918	46.45
689.105	46.84
689.291	49.31
689.477	48.79
689.663	49.63
689.849	50.97
690.035	51.01
690.221	51.64
690.407	52.21
690.593	52.82
690.779	53.21
690.965	54.5
691.151	55.06
691.337	55.68
691.523	55.5
691.709	55.99
691.895	54.59
692.081	54.98
692.267	54.77
692.453	53.89
692.639	54.07
692.825	52.79
693.011	51.47
693.196	51.99
693.382	51.57
693.568	52.63
693.754	53.1
693.94	52.26
694.125	52.65
694.311	51.86
694.497	51.51
694.682	50.41
694.868	51.73
695.054	52.48
695.239	51.52
695.425	50.16
695.611	48.85
695.796	48.39
695.982	49.56
696.168	49.32
696.353	49.09
696.539	49.21
696.724	48.38
696.91	47.71
697.095	47.07
697.281	46.98
697.466	47.61
697.652	47.24
697.837	47.39
698.023	46.99
698.208	47.06
698.393	47.22
698.579	48
698.764	48.51
698.949	48.15
699.135	48.54
699.32	48.82
699.505	48.92
699.691	49.9
699.876	49.02
700.061	49.07
700.246	48.61
700.432	49.64
700.617	48.61
700.802	48.14
700.987	48.75
701.172	50.74
701.358	49.79
701.543	50.45
701.728	50.65
701.913	52.23
702.098	52.08
702.283	52.66
702.468	52.49
702.653	53.52
702.838	54.36
703.023	55.07
703.208	53.62
703.393	55.85
703.578	54.2
703.763	54.68
703.948	53.6
704.133	53.44
704.318	54.02
704.503	53.98
704.688	53.34
704.873	53.66
705.057	53.94
705.242	54.04
705.427	52.43
705.612	52.17
705.797	51.52
705.981	52.75
706.166	54.3
706.351	53.73
706.536	54.44
706.72	54.42
706.905	52.69
707.09	53.26
707.274	52.54
707.459	53.29
707.644	53.52
707.828	52.82
708.013	52.19
708.197	50.87
708.382	49.14
708.567	47.37
708.751	47.82
708.936	49.23
709.12	48.6
709.305	49.09
709.489	48.42
709.673	48.56
709.858	49.47
710.042	50.07
710.227	49.95
710.411	51.69
710.596	52.47
710.78	51.11
710.964	51.18
711.149	50.1
711.333	50.07
711.517	50.18
711.702	50.43
711.886	50.1
712.07	50.12
712.254	50.65
712.438	50.68
712.623	50.67
712.807	52.19
712.991	52.1
713.175	52.59
713.359	52.61
713.544	53.43
713.728	54.95
713.912	54.69
714.096	56.22
714.28	54.6
714.464	53.94
714.648	54.69
714.832	54.76
715.016	56.14
715.2	56.58
715.384	56.79
715.568	56.51
715.752	55.98
715.936	55.63
716.12	53.49
716.304	53.9
716.488	53.81
716.671	53.18
716.855	54.89
717.039	54.08
717.223	54.51
717.407	55.17
717.59	54.73
717.774	55.13
717.958	57.07
718.142	59.21
718.325	61.33
718.509	63.01
718.693	65.9
718.877	63.86
719.06	65.16
719.244	64.87
719.428	64.89
719.611	65.3
719.795	63.4
719.978	63.3
720.162	62.09
720.345	60.99
720.529	60.57
720.713	56.17
720.896	56.51
721.08	56.72
721.263	55.87
721.446	55.03
721.63	56.39
721.813	57.91
721.997	56.91
722.18	56.7
722.364	58.52
722.547	59.52
722.73	63.06
722.914	62.84
723.097	60.81
723.28	63.07
723.464	63.26
723.647	62.09
723.83	61.8
724.013	63.67
724.197	64.08
724.38	64.04
724.563	61.67
724.746	61.79
724.929	60.73
725.112	62.49
725.296	60.83
725.479	59.71
725.662	59.41
725.845	58.57
726.028	57.06
726.211	56.03
726.394	55.95
726.577	55.67
726.76	52.56
726.943	52.41
727.126	50.98
727.309	49.99
727.492	51.26
727.675	51.85
727.858	51.74
728.041	52.5
728.224	53.2
728.407	51.81
728.589	52.24
728.772	53.74
728.955	54.38
729.138	54.8
729.321	54.52
729.503	53.4
729.686	53
729.869	53.31
730.052	53.69
730.234	53.54
730.417	53.67
730.6	55.82
730.782	55.98
730.965	54.99
731.148	55.37
731.33	57.36
731.513	57.44
731.695	58.18
731.878	59.71
732.061	58.81
732.243	57.25
732.426	56.19
732.608	54.56
732.791	54.61
732.973	56.22
733.156	57.35
733.338	57.62
733.52	57.69
733.703	56.63
733.885	56.21
734.068	56.72
734.25	59.08
734.432	60.82
734.615	60.92
734.797	61.6
734.979	62.27
735.162	61.72
735.344	59.71
735.526	61.32
735.708	62.13
735.891	61.95
736.073	61.27
736.255	61.01
736.437	60.85
736.619	60.22
736.802	58.7
736.984	57.53
737.166	56.32
737.348	57.85
737.53	56.14
737.712	54.87
737.894	52.43
738.076	53.81
738.258	54.36
738.44	55.68
738.622	55.29
738.804	56.97
738.986	55.81
739.168	57.7
739.35	58.29
739.532	59.88
739.714	61.28
739.896	64.78
740.078	61.83
740.259	61.15
740.441	59.2
740.623	61.81
740.805	60.51
740.987	63.36
741.168	61.48
741.35	62.34
741.532	62.44
741.714	62.51
741.895	58.06
742.077	60.38
742.259	61.27
742.44	62.9
742.622	61.5
742.804	62.41
742.985	60.72
743.167	62.7
743.348	58.06
743.53	58.14
743.711	58.35
743.893	62.12
744.075	64.65
744.256	64.18
744.438	63.3
744.619	62.45
744.8	61.31
744.982	63.56
745.163	62.89
745.345	65.43
745.526	65.02
745.707	64.95
745.889	66.49
746.07	66.12
746.252	66.91
746.433	66.23
746.614	68.33
746.795	71.33
746.977	71.03
747.158	68.97
747.339	69.65
747.52	69.71
747.702	71.42
747.883	70.74
748.064	70.48
748.245	70.32
748.426	74.09
748.607	73.23
748.788	69.68
748.97	70.17
749.151	71.03
749.332	72.08
749.513	71.69
749.694	70.43
749.875	70.97
750.056	67.67
750.237	68.28
750.418	65.94
750.599	66.51
750.78	67.26
750.96	64.09
751.141	64.16
751.322	62.38
751.503	63.44
751.684	63.45
751.865	59.65
752.046	61.3
752.226	60.15
752.407	58.52
752.588	60.63
752.769	61
752.949	64.73
753.13	62.42
753.311	61.51
753.492	60.69
753.672	60.81
753.853	65.25
754.034	63.8
754.214	64.06
754.395	64.82
754.575	63.14
754.756	62.52
754.937	60.02
755.117	62.75
755.298	66.62
755.478	68.84
755.659	68.65
755.839	68.66
756.02	70.77
756.2	71.88
756.381	73.21
756.561	72.46
756.741	75.23
756.922	76.84
757.102	76.69
757.283	73.33
757.463	71.04
757.643	70.78
757.823	68.09
758.004	65.34
758.184	64.29
758.364	62.68
758.545	62.53
758.725	62.17
758.905	60.2
759.085	61.78
759.265	62.59
759.446	62.54
759.626	65
759.806	66.84
759.986	67.36
760.166	66.26
760.346	67.71
760.526	64.37
760.706	62.7
760.886	64.35
761.066	61.71
761.246	60.78
761.426	59.89
761.606	54.61
761.786	52.85
761.966	54.02
762.146	53.49
762.326	53.14
762.506	54.7
762.686	54.23
762.866	53.13
763.046	52.33
763.225	52.85
763.405	53.49
763.585	56.17
763.765	57.55
763.945	57.36
764.124	56.6
764.304	54.86
764.484	56.02
764.664	55.54
764.843	57.57
765.023	59.73
765.203	59.25
765.382	59.15
765.562	59.54
765.741	61.39
765.921	62.8
766.101	65.47
766.28	68.17
766.46	68.59
766.639	68.87
766.819	68.02
766.998	68.22
767.178	68.79
767.357	68.85
767.537	67.53
767.716	66
767.896	62.94
768.075	63.22
768.254	62.22
768.434	62.22
768.613	64.03
768.792	66.01
768.972	64.13
769.151	65.61
769.33	65.18
769.51	66.53
769.689	67.22
769.868	68.33
770.047	69.15
770.226	70.9
770.406	70.52
770.585	72.62
770.764	70.62
770.943	72.11
771.122	72.75
771.301	73.48
771.48	74.44
771.66	72.64
771.839	73.5
772.018	73.86
772.197	75.85
772.376	76.7
772.555	72.95
772.734	73.63
772.913	77.38
773.092	76.18
773.271	75.9
773.449	78.17
773.628	78.53
773.807	81.09
773.986	78.6
774.165	74.56
774.344	78.77
774.523	79.41
774.701	79.44
774.88	77.6
775.059	79.71
775.238	83.8
775.417	83.09
775.595	85.29
775.774	85.94
775.953	82.78
776.131	88.4
776.31	82.21
776.489	82.12
776.667	80.79
776.846	80.42
777.025	80.01
777.203	79.59
777.382	75.52
777.56	71.85
777.739	69.1
777.917	74.31
778.096	70.92
778.274	72.75
778.453	72.49
778.631	74.84
778.81	78.35
778.988	78.15
779.166	76.8
779.345	80.67
779.523	83.27
779.702	83.5
779.88	80.56
780.058	77.62
780.237	77.03
780.415	79.12
780.593	76.36
780.771	71.26
780.95	69.19
781.128	69.58
781.306	72.61
781.484	75.03
781.662	75.54
781.841	74.72
782.019	77.49
782.197	77.08
782.375	77.11
782.553	77.67
782.731	79.52
782.909	82.81
783.087	85.03
783.265	82.96
783.443	82.97
783.621	83.63
783.799	89.55
783.977	92.28
784.155	92.16
784.333	92.18
784.511	90.49
784.689	91.58
784.867	86.74
785.045	85.02
785.223	80.41
785.4	79.54
785.578	83.43
785.756	79.44
785.934	77.23
786.112	80.83
786.289	84.41
786.467	82.64
786.645	81.99
786.823	84.4
787	80.58
787.178	82.48
787.356	79.77
787.533	73.54
787.711	72.99
787.889	71.57
788.066	66.6
788.244	63.24
788.421	67.43
788.599	65.62
788.776	63.01
788.954	63.7
789.131	64.43
789.309	67.44
789.486	69.93
789.664	71.93
789.841	73.46
790.019	79.42
790.196	82.01
790.373	79.64
790.551	83.3
790.728	89.32
790.906	89.57
791.083	85.99
791.26	84.75
791.437	87.78
791.615	89.53
791.792	87.27
791.969	81.94
792.146	81.52
792.324	80.58
792.501	82.8
792.678	85.47
792.855	84.45
793.032	89.35
793.209	87.46
793.387	83.49
793.564	81.52
793.741	82.53
793.918	84.04
794.095	84.28
794.272	88.18
794.449	80.61
794.626	75.61
794.803	77.49
794.98	74.96
795.157	75.4
795.334	78.08
795.511	78.81
795.688	77.19
795.864	76.96
796.041	77.41
796.218	74.21
796.395	76.91
796.572	75.43
796.749	78.1
796.925	77.09
797.102	79.52
797.279	79.26
797.456	77.36
797.632	79.31
797.809	78.77
797.986	75.19
798.162	78.03
798.339	80.02
798.516	83.83
798.692	79.07
798.869	80.9
799.046	77.94
799.222	80.91
799.399	78.27
799.575	77.01
799.752	76.22
799.928	81.26
800.105	79.42
800.281	76.49
800.458	75.96
800.634	76.75
800.811	77.27
800.987	79.25
801.163	74.75
801.34	80.19
801.516	80.71
801.692	84.95
801.869	86.81
802.045	92.1
802.221	94.55
802.398	95.81
802.574	97.07
802.75	95.01
802.926	91.24
803.103	92.69
803.279	94.77
803.455	99.08
803.631	96.71
803.807	91.29
803.983	88.69
804.16	86.97
804.336	83.36
804.512	84.34
804.688	86.31
804.864	90.52
805.04	90.13
805.216	88.44
805.392	88.57
805.568	90.78
805.744	93.03
805.92	91.58
806.096	92.13
806.272	103.09
806.448	105.56
806.623	107.02
806.799	103.5
806.975	103.8
807.151	108.5
807.327	99.62
807.503	96.79
807.678	88.89
807.854	93.05
808.03	96.74
808.206	93.2
808.381	94
808.557	88.27
808.733	88.98
808.908	91.66
809.084	85.64
809.26	94.9
809.435	100.9
809.611	110.22
809.787	102.99
809.962	102.77
810.138	99.67
810.313	96.8
810.489	103.73
810.664	105.76
810.84	107.33
811.015	101.98
811.191	99.41
811.366	95.5
811.542	95.64
811.717	96.29
811.892	95.18
812.068	93.32
812.243	97.35
812.419	94.54
812.594	93.67
812.769	98.52
812.944	109.7
813.12	107.56
813.295	102.88
813.47	102.67
813.645	107.83
813.821	102.99
813.996	100.21
814.171	96.26
814.346	99.24
814.521	102.56
814.697	101.46
814.872	99.63
815.047	98.28
815.222	97.16
815.397	95.38
815.572	91.7
815.747	95.6
815.922	98.52
816.097	97.96
816.272	94.77
816.447	97.96
816.622	89.1
816.797	89.71
816.972	86.41
817.147	86.59
817.322	89.7
817.496	86.77
817.671	88.66
817.846	94.37
818.021	90.74
818.196	94.11
818.371	85.66
818.545	84.13
818.72	82.56
818.895	86.64
819.069	84.51
819.244	76.99
819.419	70.28
819.594	64.94
819.768	56.05
819.943	55.02
820.117	51.15
820.292	50.81
820.467	51.08
820.641	48.5
820.816	46.51
820.99	46.82
821.165	45.09
821.339	46.2
821.514	45.82
821.688	46.64
821.863	45.89
822.037	45.48
822.212	44.82
822.386	44.18
822.56	43.15
822.735	43.84
822.909	43.51
823.084	44.42
823.258	44.43
823.432	44.45
823.606	44.4
823.781	44.71
823.955	45.29
824.129	46.07
824.303	46.46
824.478	48.17
824.652	49.07
824.826	49.11
825	49.71
825.174	49.15
825.348	50.58
825.523	50.05
825.697	51.4
825.871	50.84
826.045	50.5
826.219	50.29
826.393	52.58
826.567	49.25
826.741	49.71
826.915	50.68
827.089	51.41
827.263	50.45
827.437	51.49
827.611	51.62
827.784	51.84
827.958	52.34
828.132	52.29
828.306	51.3
828.48	55.3
828.654	55.99
828.827	56.15
829.001	60.5
829.175	61.81
829.349	64.32
829.522	64.2
829.696	66.43
829.87	69.69
830.044	73.12
830.217	74.25
830.391	78.58
830.565	81.82
830.738	81.09
830.912	75.93
831.085	77.02
831.259	75.91
831.432	75.96
831.606	76.52
831.779	73.82
831.953	71.95
832.126	72.9
832.3	69.56
832.473	66.48
832.647	65.49
832.82	63.45
832.994	61.42
833.167	59.5
833.34	59.5
833.514	58.09
833.687	57.04
833.86	57.6
834.034	56.97
834.207	57.2
834.38	58.32
834.553	57.36
834.727	62.13
834.9	62.91
835.073	64.29
835.246	63.26
835.419	61.86
835.593	64.36
835.766	65.09
835.939	67.39
836.112	66.85
836.285	69.24
836.458	74.7
836.631	77.13
836.804	81.62
836.977	85.21
837.15	94.08
837.323	107.45
837.496	104.51
837.669	102.85
837.842	94.5
838.015	100.23
838.188	98.35
838.361	89.38
838.533	85.53
838.706	85.04
838.879	80.53
839.052	80.03
839.225	75.75
839.398	76.89
839.57	79.97
839.743	85.02
839.916	84.9
840.088	84.42
840.261	98.29
840.434	98.24
840.607	98.94
840.779	106.7
840.952	105.58
841.124	115.81
841.297	121.76
841.47	131.46
841.642	132.83
841.815	125.07
841.987	138.93
842.16	132.64
842.332	133.35
842.505	130.04
842.677	125.69
842.85	139.2
843.022	131.54
843.194	125.74
843.367	119.94
843.539	122.34
843.712	122.31
843.884	122.63
844.056	109.75
844.229	121.53
844.401	133.16
844.573	151.49
844.745	141.06
844.918	166.99
845.09	161.31
845.262	178.42
845.434	185.83
845.606	203.75
845.779	183.75
845.951	189.14
846.123	181.59
846.295	178.36
846.467	189.1
846.639	173.65
846.811	165.04
846.983	182.49
847.155	185.1
847.327	175.49
847.499	181.32
847.671	182.51
847.843	167.94
848.015	167.18
848.187	164.83
848.359	155.41
848.531	171.53
848.703	157.12
848.875	178.92
849.047	168.44
849.218	155.96
849.39	147.32
849.562	182.87
849.734	235.79
849.905	226.09
850.077	231.78
850.249	236.52
850.421	206.16
850.592	214.95
850.764	189.72
850.936	172.51
851.107	173.08
851.279	190.12
851.451	155.06
851.622	144.27
851.794	152.84
851.965	155.17
852.137	149.46
852.308	165.32
852.48	168.79
852.651	163.67
852.823	179.09
852.994	189.12
853.166	183.77
853.337	204.75
853.509	206.05
853.68	185.12
853.851	191.75
854.023	186.44
854.194	170.55
854.365	178.88
854.537	170.53
854.708	172.76
854.879	157.18
855.05	169.64
855.222	150.98
855.393	146.98
855.564	155.92
855.735	158.89
855.906	159.47
856.078	154.11
856.249	137.08
856.42	138.61
856.591	139.05
856.762	142.93
856.933	137.34
857.104	128.04
857.275	135.43
857.446	143.61
857.617	127.54
857.788	131.73
857.959	134.84
858.13	155.94
858.301	161.99
858.472	154.38
858.643	159.38
858.814	158.7
858.985	198.68
859.155	263.34
859.326	248.11
859.497	317.3
859.668	521.08
859.839	511.88
860.009	314.96
860.18	352.7
860.351	329.18
860.522	282.4
860.692	237.91
860.863	207.5
861.034	184.26
861.204	162.74
861.375	135.06
861.546	122.03
861.716	117.87
861.887	138.63
862.057	159.41
862.228	168.11
862.398	169.34
862.569	200.69
862.739	230.86
862.91	201.24
863.08	213.16
863.251	236.23
863.421	225.22
863.592	256.55
863.762	227.81
863.932	185.38
864.103	191.3
864.273	205.85
864.443	179.4
864.614	155.63
864.784	168.39
864.954	191.77
865.125	212.13
865.295	218.07
865.465	256.58
865.635	275.63
865.805	264.92
865.976	271.7
866.146	219.31
866.316	247.1
866.486	330.5
866.656	305.1
866.826	311.54
866.996	285.98
867.166	345.93
867.336	247.25
867.506	180.88
867.676	177.35
867.846	156.72
868.016	165.59
868.186	151.65
868.356	131.51
868.526	137.55
868.696	127.82
868.866	116.09
869.036	115.83
869.206	115.77
869.376	120.51
869.545	119.3
869.715	139.3
869.885	148.44
870.055	156.31
870.224	140.31
870.394	150.83
870.564	187.67
870.734	189.73
870.903	202.93
871.073	220.08
871.243	236.45
871.412	240.41
871.582	221.44
871.751	227.36
871.921	232.42
872.091	308.82
872.26	230.66
872.43	187.84
872.599	188.26
872.769	184.69
872.938	194.97
873.108	183.08
873.277	165.39
873.446	172.06
873.616	172.79
873.785	182.13
873.955	183.06
874.124	185.77
874.293	192.11
874.463	184.68
874.632	182.47
874.801	168.21
874.971	172.95
875.14	218.25
875.309	186.21
875.478	160.41
875.647	139.01
875.817	128.88
875.986	137.08
876.155	146.08
876.324	155.89
876.493	138.83
876.662	140.24
876.831	146.68
877	138.7
877.17	138.24
877.339	138.77
877.508	150.83
877.677	161.5
877.846	152.74
878.015	142.06
878.184	116.96
878.352	127.08
878.521	127.8
878.69	119.2
878.859	110.15
879.028	108.47
879.197	109.73
879.366	101.52
879.534	90.46
879.703	84.48
879.872	79.84
880.041	80.35
880.21	74.61
880.378	61.14
880.547	57.22
880.716	54.26
880.884	50.39
881.053	50.07
881.222	50.42
881.39	49.5
881.559	47.28
881.727	48.55
881.896	48.06
882.065	48.21
882.233	50.59
882.402	48.74
882.57	51.84
882.739	51.68
882.907	51.11
883.076	50.73
883.244	50.64
883.412	53.56
883.581	51.61
883.749	51.22
883.918	51.77
884.086	53.57
884.254	57.89
884.423	60.78
884.591	63.82
884.759	63.16
884.927	65.89
885.096	70.68
885.264	74.93
885.432	83.81
885.6	92.29
885.769	100.35
885.937	110.93
886.105	119.81
886.273	113.86
886.441	119.95
886.609	129.32
886.777	118.22
886.945	125.82
887.113	128.92
887.281	119.91
887.449	125.59
887.617	122.08
887.785	114.03
887.953	115.22
888.121	126.38
888.289	129.67
888.457	132.99
888.625	146.14
888.793	136.83
888.961	145.07
889.129	155.15
889.296	147.61
889.464	152.96
889.632	170.48
889.8	174.25
889.967	153.5
890.135	159.69
