Data from JASIL_3052_Reflection_02.txt Node
Date: Mon Nov 09 11:21:16 EST 2015
User: Geneva
Spectrometer: USB4E03002
Autoset integration time: false
Trigger mode: 4
Integration Time (sec): 1.000000E-1
Scans to average: 10
Electric dark correction enabled: false
Nonlinearity correction enabled: false
Boxcar width: 5
Stray light correction enabled: false
XAxis mode: Wavelengths
Stop averaging: false
Number of Pixels in Spectrum: 3648
>>>>>Begin Spectral Data<<<<<
177.575	383.33
177.794	4066.67
178.014	-48300
178.233	-922.64
178.452	-572.73
178.672	-2882.35
178.891	1069.44
179.11	460.27
179.33	498.44
179.549	-1192.31
179.768	-1140.62
179.987	-207.93
180.207	-5800
180.426	1205.88
180.645	298.85
180.864	467.59
181.084	494.85
181.303	-70800
181.522	-655.77
181.741	-727.63
181.96	-304.94
182.179	-100.33
182.398	-144.31
182.618	-124.5
182.837	-124.68
183.056	-84.82
183.275	-73.44
183.494	-38.04
183.713	-38.32
183.932	-17.53
184.151	1.38
184.37	-30.3
184.589	342.37
184.808	176.36
185.027	213.48
185.246	235.96
185.465	227.1
185.684	-64.71
185.903	-295.45
186.122	-13.93
186.341	-56.85
186.56	-78.42
186.779	-53.83
186.998	-12.91
187.216	-5.95
187.435	-6.14
187.654	9.28
187.873	25.9
188.092	22
188.311	7.28
188.53	-28.16
188.748	-8.78
188.967	-8.06
189.186	-41.27
189.405	-70.99
189.623	-274.59
189.842	-121.04
190.061	-122.39
190.28	-256
190.498	-223.36
190.717	-214.05
190.936	-186.33
191.154	-311.36
191.373	-13833.33
191.592	23400
191.81	-250
192.029	30.77
192.248	-34.07
192.466	-51.22
192.685	450
192.904	21.05
193.122	-43.64
193.341	-15.25
193.559	952.63
193.778	121.05
193.996	-2460
194.215	155.86
194.433	1009.52
194.652	1314.29
194.87	481.93
195.089	505.75
195.307	787.1
195.526	6885.71
195.744	659.09
195.963	-20300
196.181	-943.04
196.399	-343.59
196.618	-445.45
196.836	-232.2
197.055	-89.94
197.273	-129.7
197.491	-83.03
197.71	-22.7
197.928	-6.25
198.146	63.13
198.365	63.44
198.583	6.57
198.801	-446.55
199.019	-61.76
199.238	-102.53
199.456	-110.08
199.674	-168.23
199.892	-247.64
200.111	-1103.57
200.329	-314.89
200.547	-1544.68
200.765	-1106.67
200.983	861.04
201.202	-841.67
201.42	1018.87
201.638	308.85
201.856	194.17
202.074	105.88
202.292	114.86
202.51	184.62
202.728	125
202.946	175.76
203.165	131.75
203.383	305.83
203.601	468.75
203.819	405.71
204.037	305.94
204.255	273.21
204.473	801.2
204.691	1873.17
204.909	-2828.13
205.127	1641.38
205.345	1058.82
205.562	610.45
205.78	3237.04
205.998	-3757.89
206.216	-1482.93
206.434	-425.4
206.652	-500.84
206.87	-388.75
207.088	-472.92
207.306	-2733.33
207.523	-164.79
207.741	-108.3
207.959	-173.49
208.177	-180.9
208.395	-5846.15
208.612	580
208.83	747.89
209.048	412.93
209.266	342.06
209.483	268.85
209.701	-54.41
209.919	152.35
210.136	123.74
210.354	191.14
210.572	108.57
210.79	-32.46
211.007	71.54
211.225	154.95
211.442	101.24
211.66	85.99
211.878	111.62
212.095	535.59
212.313	1475.34
212.53	719.23
212.748	867.65
212.966	1126.42
213.183	-888.98
213.401	3470.27
213.618	-963.24
213.836	-377.46
214.053	-249.34
214.271	-308.49
214.488	-147.17
214.705	-421.9
214.923	-360.76
215.14	-124.22
215.358	-56.8
215.575	-49.81
215.793	-52.32
216.01	-39.54
216.227	-17.63
216.445	-69.78
216.662	-143.84
216.879	-203.23
217.097	-183.53
217.314	-148.28
217.531	766
217.749	592.59
217.966	223.31
218.183	349.47
218.4	888.73
218.618	-26366.67
218.835	-954.43
219.052	-1718.75
219.269	-1395.08
219.487	-339.49
219.704	-675.73
219.921	-594.64
220.138	748.19
220.355	-8187.5
220.572	-8883.33
220.79	-508.43
221.007	465.67
221.224	223.36
221.441	306.67
221.658	608.7
221.875	164.29
222.092	312.03
222.309	263.36
222.526	5744.44
222.743	1160.61
222.96	-394.57
223.177	2075
223.394	1303.85
223.611	-324.42
223.828	-287.64
224.045	5.26
224.262	-236.25
224.479	245.28
224.696	-5.26
224.913	59.88
225.13	68.51
225.347	38.95
225.564	61.79
225.781	73.27
225.997	71.1
226.214	71.57
226.431	72.33
226.648	44.16
226.865	24.2
227.082	14.76
227.298	15.27
227.515	16.54
227.732	17.03
227.949	18.45
228.165	21.53
228.382	19.12
228.599	14.96
228.816	10.85
229.032	16.89
229.249	27.86
229.466	34.2
229.682	31.51
229.899	30.29
230.116	20.79
230.332	24.14
230.549	-1.33
230.765	-13.11
230.982	-22.37
231.199	-26.9
231.415	-44.73
231.632	-84.39
231.848	-29.53
232.065	-11.68
232.281	-14.17
232.498	0.47
232.714	-9.68
232.931	3.21
233.147	6.97
233.364	26.18
233.58	22.05
233.797	37.07
234.013	31.76
234.23	24.17
234.446	20.23
234.662	29.68
234.879	35.61
235.095	37.94
235.312	40.36
235.528	36.2
235.744	23.44
235.961	27.52
236.177	5.56
236.393	18.43
236.61	18.8
236.826	26.93
237.042	22.66
237.258	20.43
237.475	17.63
237.691	22.94
237.907	41.09
238.123	50.44
238.339	49.3
238.556	38.39
238.772	38.88
238.988	33.42
239.204	20.45
239.42	20.09
239.636	13.3
239.853	17.9
240.069	13.84
240.285	11.25
240.501	8.62
240.717	4.42
240.933	5.25
241.149	4.01
241.365	5.42
241.581	7.25
241.797	7.92
242.013	8.13
242.229	9.97
242.445	15.92
242.661	16.42
242.877	21.16
243.093	23.76
243.309	23.9
243.525	27.36
243.741	25.06
243.957	27.02
244.173	24.92
244.388	26.98
244.604	21.15
244.82	15.47
245.036	13.6
245.252	12.01
245.468	10.93
245.683	8.9
245.899	7.59
246.115	5.24
246.331	3.89
246.547	4.63
246.762	2.41
246.978	2.32
247.194	2.62
247.409	4.4
247.625	2.07
247.841	3.8
248.057	6.35
248.272	3.77
248.488	4.12
248.703	4.16
248.919	-3.07
249.135	-6.95
249.35	-9.6
249.566	-0.33
249.782	-14.71
249.997	-9.56
250.213	-13.58
250.428	-14.32
250.644	-7.49
250.859	-1.9
251.075	-1.28
251.29	4.27
251.506	8.71
251.721	9.71
251.937	1.29
252.152	7.31
252.368	7.84
252.583	7.81
252.798	13.01
253.014	16.43
253.229	17.36
253.445	13.92
253.66	9.58
253.875	14.34
254.091	12.41
254.306	9.88
254.521	7.45
254.737	7.92
254.952	1.01
255.167	-1.36
255.383	-9.61
255.598	-2.8
255.813	-1.47
256.028	3.57
256.244	3.8
256.459	3.86
256.674	9.28
256.889	12.51
257.104	10.41
257.32	14.6
257.535	12.25
257.75	9.82
257.965	8.17
258.18	8.15
258.395	6.92
258.61	6.72
258.826	8.32
259.041	9.37
259.256	8.4
259.471	9.28
259.686	9.47
259.901	11.89
260.116	12.86
260.331	10.18
260.546	10.36
260.761	12.04
260.976	7.83
261.191	5.77
261.406	2.98
261.621	4.76
261.836	4.3
262.05	2.8
262.265	-2.19
262.48	1.98
262.695	7.51
262.91	11.39
263.125	10.58
263.34	14.39
263.555	15.54
263.769	12.42
263.984	8.57
264.199	6.81
264.414	6.22
264.629	4.82
264.843	3.42
265.058	4.35
265.273	6.65
265.488	9.7
265.702	11.74
265.917	10.72
266.132	16.01
266.346	17.79
266.561	17.55
266.776	18.45
266.99	22.48
267.205	20.83
267.42	18.62
267.634	13.73
267.849	8.74
268.063	9.51
268.278	7.5
268.492	1.37
268.707	2.34
268.922	3.73
269.136	3.67
269.351	0.68
269.565	4.35
269.78	7.15
269.994	6.91
270.209	9.5
270.423	7.81
270.637	9.88
270.852	12.48
271.066	10.89
271.281	13.18
271.495	12.56
271.709	12.84
271.924	11.84
272.138	11.77
272.353	12.8
272.567	12.43
272.781	15.81
272.996	16.11
273.21	12.94
273.424	15.02
273.638	10.97
273.853	8.71
274.067	9.99
274.281	14.54
274.495	16.36
274.71	15.1
274.924	16.95
275.138	11.37
275.352	10.89
275.566	13.18
275.781	6.12
275.995	7.29
276.209	10.14
276.423	7.03
276.637	2.76
276.851	-0.88
277.065	1.62
277.279	-3.03
277.493	-0.55
277.707	-1.23
277.921	-1.9
278.135	3.98
278.349	6.46
278.563	4.22
278.777	8.14
278.991	9.45
279.205	9.02
279.419	6.27
279.633	6.61
279.847	5.02
280.061	8.38
280.275	8.62
280.489	7.06
280.703	6.26
280.917	9.13
281.131	8.38
281.344	4.69
281.558	5.34
281.772	7.01
281.986	6.25
282.2	10.32
282.414	7.96
282.627	6.32
282.841	7.64
283.055	7.88
283.269	3.72
283.482	1.99
283.696	3.32
283.91	3.51
284.123	1.74
284.337	0.82
284.551	-1.07
284.764	-2.81
284.978	-1.09
285.192	0.87
285.405	0.12
285.619	2.48
285.833	1.86
286.046	3.11
286.26	3.2
286.473	4.42
286.687	5.92
286.9	5.12
287.114	6.06
287.327	5.55
287.541	5.06
287.754	2.98
287.968	3.68
288.181	5.4
288.395	2.31
288.608	1.65
288.822	3.1
289.035	6.89
289.248	6.98
289.462	7.57
289.675	6.24
289.889	5.87
290.102	6.26
290.315	4.71
290.529	6.91
290.742	5.85
290.955	6.11
291.169	3.28
291.382	2.62
291.595	4.4
291.808	6.31
292.022	7.25
292.235	6.09
292.448	7.82
292.661	9.86
292.875	6.61
293.088	10.7
293.301	10.04
293.514	14.33
293.727	14.44
293.94	11.45
294.153	8.72
294.367	10.66
294.58	9.13
294.793	6.77
295.006	5.76
295.219	6.99
295.432	6.95
295.645	5.53
295.858	4.34
296.071	2.88
296.284	4.26
296.497	3.99
296.71	2.72
296.923	3.41
297.136	3.88
297.349	4.6
297.562	0.36
297.775	-1.93
297.988	1.05
298.201	0.05
298.414	-0.9
298.626	-2.89
298.839	-2.04
299.052	1.36
299.265	3.68
299.478	5.79
299.691	3.82
299.903	6.46
300.116	10.4
300.329	11.48
300.542	12.89
300.755	10.95
300.967	11.58
301.18	14.35
301.393	10.36
301.605	10
301.818	11.34
302.031	11.18
302.243	12.9
302.456	12.09
302.669	11.59
302.881	11.39
303.094	14.79
303.307	17.75
303.519	16.27
303.732	16.21
303.944	15.32
304.157	13.7
304.37	13.6
304.582	14.22
304.795	11.29
305.007	12.05
305.22	10.29
305.432	9.82
305.645	6.13
305.857	2.84
306.069	3.52
306.282	3.16
306.494	3.87
306.707	4.61
306.919	4.8
307.132	4.92
307.344	7.41
307.556	7.68
307.769	6.66
307.981	7.49
308.193	9.84
308.406	9.33
308.618	9.41
308.83	7.59
309.043	7.79
309.255	9.18
309.467	10.22
309.679	6.6
309.892	8.07
310.104	8.97
310.316	8.56
310.528	7.9
310.74	11.1
310.953	10.19
311.165	11.63
311.377	14.85
311.589	13.52
311.801	15.02
312.013	13.51
312.225	9.35
312.437	10.88
312.649	11.51
312.862	11.19
313.074	9.76
313.286	10.51
313.498	12.83
313.71	13.29
313.922	10.98
314.134	10.38
314.346	11.45
314.558	11.29
314.77	7.99
314.982	6.78
315.193	7.92
315.405	6.86
315.617	7.88
315.829	7.09
316.041	4.44
316.253	7.65
316.465	6.72
316.677	6.28
316.888	10.17
317.1	7.26
317.312	8.75
317.524	9.72
317.736	8.84
317.947	7.74
318.159	7.35
318.371	6.67
318.583	4.71
318.794	4.31
319.006	4.99
319.218	5.42
319.43	8.22
319.641	6.71
319.853	4.9
320.064	6.67
320.276	7.01
320.488	4.73
320.699	5.09
320.911	7.52
321.123	9.87
321.334	8.91
321.546	8.43
321.757	11.42
321.969	10.99
322.18	11.09
322.392	8.85
322.603	8.6
322.815	10.11
323.026	9.98
323.238	6.52
323.449	4.92
323.661	8.29
323.872	7.92
324.083	9.53
324.295	9.82
324.506	10.12
324.718	10.39
324.929	10.02
325.14	9.71
325.352	8.85
325.563	9.53
325.774	11.62
325.986	9.57
326.197	9.41
326.408	7.06
326.62	5
326.831	5.86
327.042	6.32
327.253	3.49
327.464	5
327.676	6.05
327.887	6.63
328.098	4.09
328.309	1.61
328.52	0.16
328.732	-0.12
328.943	3.42
329.154	2.12
329.365	0.96
329.576	2.93
329.787	1.91
329.998	4.21
330.209	7.82
330.42	4.54
330.631	6.94
330.842	10.33
331.053	6.25
331.264	7.54
331.475	6.96
331.686	9.28
331.897	13.62
332.108	12.23
332.319	10.04
332.53	8.07
332.741	13.13
332.952	13.8
333.163	12.81
333.374	17.8
333.585	16.97
333.795	15.1
334.006	11.51
334.217	7.1
334.428	9.3
334.639	8.39
334.849	10.77
335.06	9.39
335.271	7.27
335.482	6.51
335.692	4.22
335.903	3.59
336.114	5.29
336.325	10.11
336.535	9.96
336.746	10.11
336.957	12.55
337.167	9.46
337.378	9.64
337.589	11.5
337.799	13.23
338.01	14.02
338.22	13.39
338.431	12.93
338.642	10.06
338.852	12.35
339.063	13.2
339.273	11.54
339.484	13.01
339.694	13.85
339.905	14.62
340.115	12.46
340.326	12.28
340.536	14.99
340.746	14.76
340.957	14.45
341.167	15.19
341.378	10.07
341.588	10.39
341.799	8.94
342.009	5.22
342.219	4.11
342.43	4.5
342.64	4.6
342.85	1.4
343.061	0.95
343.271	2.73
343.481	2.43
343.691	3.99
343.902	2.63
344.112	5.48
344.322	7.4
344.532	5.45
344.743	6.49
344.953	7.54
345.163	7.23
345.373	9.12
345.583	8.84
345.793	7.74
346.004	6.97
346.214	7.8
346.424	3.31
346.634	3.17
346.844	7.68
347.054	6.88
347.264	6.07
347.474	8.27
347.684	7.87
347.894	8.19
348.104	8.11
348.314	7.49
348.524	7.66
348.734	9.93
348.944	9.23
349.154	6.86
349.364	4.71
349.574	5.11
349.784	4.98
349.994	4.7
350.204	0.59
350.413	-0.03
350.623	4.26
350.833	5.03
351.043	3.49
351.253	7.17
351.463	5.75
351.672	8.21
351.882	6
352.092	5.17
352.302	4.44
352.511	6.9
352.721	5.37
352.931	2.24
353.141	2.78
353.35	2.06
353.56	0.35
353.77	-0.41
353.979	0
354.189	0.97
354.399	1.07
354.608	2.27
354.818	0.85
355.027	2.47
355.237	4.75
355.447	4.98
355.656	5.35
355.866	5.13
356.075	7.42
356.285	7.55
356.494	8.22
356.704	7.9
356.913	5.5
357.123	6.93
357.332	6.84
357.542	7.14
357.751	6.9
357.96	6.58
358.17	6.17
358.379	6.38
358.589	4.64
358.798	3.62
359.007	4.82
359.217	7
359.426	7.39
359.635	9.32
359.845	7.72
360.054	8.64
360.263	10.6
360.472	11.2
360.682	12.14
360.891	11.51
361.1	13.18
361.309	13.86
361.519	13.39
361.728	12.65
361.937	10.99
362.146	12.58
362.355	8.66
362.564	7.95
362.774	7.81
362.983	8.36
363.192	9.41
363.401	8.4
363.61	5.6
363.819	5.62
364.028	6.71
364.237	5.84
364.446	4.58
364.655	7.6
364.864	7.56
365.073	6.45
365.282	4.6
365.491	3.87
365.7	3.93
365.909	5.7
366.118	5.77
366.327	4.45
366.536	4.73
366.745	5.66
366.954	4.87
367.162	5.75
367.371	6.05
367.58	5.69
367.789	6.85
367.998	6.98
368.207	7.12
368.415	5.95
368.624	7.59
368.833	9.13
369.042	8.91
369.25	10.21
369.459	7.96
369.668	9.9
369.877	9.62
370.085	9.13
370.294	8.73
370.503	7.69
370.711	9.64
370.92	8.29
371.129	9.36
371.337	8.76
371.546	8.56
371.754	10.25
371.963	9.28
372.171	8.9
372.38	9.75
372.589	9.7
372.797	9.53
373.006	11.72
373.214	13.01
373.423	12.3
373.631	12.59
373.84	10.94
374.048	10.15
374.256	9.78
374.465	10.47
374.673	9.64
374.882	9.99
375.09	12.11
375.298	9.25
375.507	8.89
375.715	9.43
375.923	9.58
376.132	10.2
376.34	10.36
376.548	10.26
376.757	11.18
376.965	11.09
377.173	9.51
377.381	7.32
377.59	8.92
377.798	9.41
378.006	5.81
378.214	5.1
378.423	4.6
378.631	2.4
378.839	2.14
379.047	0
379.255	1.91
379.463	4.62
379.671	5.44
379.879	5.2
380.088	5.57
380.296	7.8
380.504	8.29
380.712	9.71
380.92	12.06
381.128	13.23
381.336	13.76
381.544	11.99
381.752	11.03
381.96	12.19
382.168	11.35
382.376	10.85
382.584	10.24
382.791	9.55
382.999	7.79
383.207	7.34
383.415	5.13
383.623	6.05
383.831	6.25
384.039	6.53
384.247	5.76
384.454	5.71
384.662	5.4
384.87	6.34
385.078	7.12
385.285	8.1
385.493	9.16
385.701	10.35
385.909	8.79
386.116	9.48
386.324	8.11
386.532	6.74
386.739	5.48
386.947	5.36
387.155	4.51
387.362	4.6
387.57	4.93
387.778	4.5
387.985	4.6
388.193	5.6
388.4	5.03
388.608	6.17
388.816	6.32
389.023	8.41
389.231	9.04
389.438	9.24
389.646	8.24
389.853	7.76
390.061	7.25
390.268	7.3
390.475	7.61
390.683	6.93
390.89	6.18
391.098	6.09
391.305	4.76
391.512	4.14
391.72	5.94
391.927	5.58
392.135	5.33
392.342	4.94
392.549	5.38
392.756	5.33
392.964	5.88
393.171	5.87
393.378	5.4
393.586	5.48
393.793	5.85
394	4.38
394.207	4.74
394.414	4.55
394.622	4.56
394.829	3.68
395.036	3.21
395.243	3.87
395.45	3.48
395.657	4.82
395.864	3.64
396.072	2.98
396.279	1.7
396.486	1.96
396.693	2.46
396.9	2.64
397.107	3.23
397.314	3.11
397.521	3.16
397.728	4.82
397.935	5.09
398.142	6.6
398.349	7.65
398.556	8.67
398.763	8.96
398.97	9.75
399.177	9.65
399.383	8.03
399.59	8.19
399.797	8.48
400.004	7.71
400.211	8.01
400.418	7.61
400.625	7.59
400.831	7.84
401.038	8.55
401.245	8.6
401.452	9.02
401.658	10.44
401.865	11.69
402.072	11.54
402.279	11.22
402.485	10.85
402.692	11.31
402.899	10.18
403.105	10.13
403.312	9.24
403.519	9.92
403.725	9.85
403.932	9.52
404.138	8.63
404.345	8.1
404.552	7.39
404.758	7.16
404.965	7.7
405.171	8.65
405.378	8.11
405.584	8.76
405.791	7.78
405.997	8.48
406.204	7.91
406.41	8.81
406.617	8.19
406.823	9.65
407.029	9.13
407.236	8.61
407.442	8.59
407.649	9.33
407.855	9.51
408.061	9.05
408.268	7.83
408.474	8.88
408.68	8.45
408.887	8.34
409.093	8.2
409.299	8.64
409.505	8.33
409.712	7.86
409.918	7.61
410.124	7.13
410.33	7.09
410.537	6.2
410.743	5.92
410.949	6.64
411.155	6.37
411.361	4.62
411.567	4.77
411.773	4.46
411.98	4.77
412.186	4.15
412.392	4.84
412.598	5.26
412.804	6.46
413.01	6.51
413.216	4.64
413.422	5.65
413.628	7.39
413.834	7.3
414.04	7.61
414.246	7.2
414.452	8
414.658	7.35
414.864	7.31
415.07	7.06
415.275	6.42
415.481	7.05
415.687	7.04
415.893	5.71
416.099	5.47
416.305	5.52
416.511	5.35
416.716	4.6
416.922	4.73
417.128	3.74
417.334	3.92
417.539	4.64
417.745	4.33
417.951	4.49
418.157	5.28
418.362	5.25
418.568	5.46
418.774	5.34
418.979	5.73
419.185	5.27
419.391	5.89
419.596	5.72
419.802	5.69
420.008	6.22
420.213	1.77
420.419	2.04
420.624	2.36
420.83	2.11
421.035	2.62
421.241	2.34
421.446	2.86
421.652	3.13
421.857	3.14
422.063	2.58
422.268	2.42
422.474	6.28
422.679	5.74
422.885	5.31
423.09	5.15
423.295	4.79
423.501	4.76
423.706	4.74
423.911	4.29
424.117	4.39
424.322	4.83
424.527	4.68
424.733	5.25
424.938	5.37
425.143	6.08
425.349	6.34
425.554	6.43
425.759	6.12
425.964	5.97
426.169	6.51
426.375	6.88
426.58	7.39
426.785	7.08
426.99	6.72
427.195	6.75
427.4	6
427.605	5.75
427.811	5.49
428.016	5.75
428.221	5.87
428.426	6.23
428.631	5.98
428.836	5.19
429.041	5.63
429.246	6.2
429.451	6.22
429.656	6.62
429.861	7.19
430.066	7.88
430.271	8.4
430.476	8.38
430.681	7.11
430.886	5.93
431.09	6.58
431.295	6.71
431.5	6.53
431.705	6.69
431.91	6.58
432.115	5.88
432.32	5.66
432.524	4.86
432.729	4.64
432.934	4.58
433.139	5.55
433.343	4.86
433.548	4.57
433.753	4.56
433.958	4.17
434.162	4.13
434.367	5.24
434.572	5.49
434.776	6.22
434.981	6.69
435.186	7.44
435.39	7.46
435.595	7.04
435.799	7.11
436.004	6.84
436.209	6.99
436.413	6.61
436.618	6.31
436.822	6.3
437.027	6.46
437.231	5.54
437.436	5.46
437.64	5.63
437.845	6.18
438.049	5.8
438.253	5.58
438.458	5.54
438.662	5.27
438.867	4.55
439.071	4.45
439.275	4.31
439.48	4.42
439.684	3.89
439.888	3.77
440.093	3.95
440.297	4.17
440.501	4.89
440.706	4.58
440.91	4.45
441.114	4.54
441.318	4.06
441.523	3.96
441.727	4.16
441.931	4.15
442.135	3.55
442.339	3.06
442.543	2.92
442.748	2.19
442.952	2.68
443.156	3.29
443.36	3.28
443.564	3.54
443.768	3.48
443.972	3.64
444.176	4.04
444.38	4.47
444.584	4.72
444.788	4.41
444.992	4.8
445.196	5.03
445.4	4.7
445.604	5.06
445.808	4.64
446.012	5
446.216	5.03
446.42	5.34
446.624	5.65
446.828	5.51
447.032	6.13
447.235	6.05
447.439	5.26
447.643	6.03
447.847	6.13
448.051	6.27
448.254	6.27
448.458	6.79
448.662	6.5
448.866	5.89
449.069	6.52
449.273	6.37
449.477	6.41
449.681	7.08
449.884	6.48
450.088	6.09
450.292	6.76
450.495	5.95
450.699	5.15
450.902	5.29
451.106	6.26
451.31	5.42
451.513	6
451.717	5.87
451.92	5
452.124	4.76
452.327	5.25
452.531	5.56
452.734	5.79
452.938	6.76
453.141	6.64
453.345	5.74
453.548	5.71
453.752	5.21
453.955	5.62
454.158	6.31
454.362	7
454.565	7.19
454.769	6.79
454.972	7.29
455.175	6.24
455.379	6.22
455.582	6.86
455.785	7.02
455.988	6.49
456.192	6.71
456.395	6.39
456.598	5.97
456.801	5.03
457.005	5.8
457.208	5.79
457.411	6.36
457.614	5.79
457.817	5.55
458.021	5.82
458.224	6.23
458.427	5.63
458.63	6
458.833	5.99
459.036	6.24
459.239	5.77
459.442	5.57
459.645	5.45
459.848	5.81
460.051	5.38
460.254	5.14
460.457	5.35
460.66	5.66
460.863	5.44
461.066	6.08
461.269	6.55
461.472	6.51
461.675	6.43
461.878	6.61
462.081	6.31
462.284	7.28
462.486	7.17
462.689	7
462.892	6.56
463.095	6.44
463.298	6.17
463.5	5.96
463.703	6.07
463.906	6.72
464.109	6.47
464.311	6.79
464.514	6.6
464.717	6.54
464.92	6.29
465.122	6.72
465.325	6.55
465.528	5.82
465.73	5.66
465.933	5.47
466.135	5.11
466.338	4.9
466.541	4.76
466.743	4.48
466.946	4.68
467.148	4.38
467.351	4.76
467.553	4.79
467.756	5.25
467.958	5.1
468.161	5.27
468.363	4.98
468.566	5.02
468.768	5.88
468.971	5.38
469.173	5.15
469.375	5.03
469.578	4.54
469.78	4.96
469.983	5.35
470.185	4.79
470.387	4.6
470.59	5.45
470.792	5.45
470.994	4.86
471.196	5.86
471.399	6.22
471.601	6.29
471.803	6.09
472.005	6.38
472.208	6.27
472.41	7.02
472.612	7.28
472.814	6.6
473.016	6.8
473.218	6.82
473.421	5.85
473.623	5.27
473.825	6.05
474.027	5.98
474.229	5.35
474.431	5.04
474.633	5.63
474.835	5.38
475.037	6.1
475.239	6.23
475.441	5.77
475.643	5.83
475.845	6.32
476.047	5.58
476.249	5.56
476.451	6.2
476.653	6.31
476.855	5.45
477.057	5.54
477.258	5.04
477.46	5.32
477.662	6.18
477.864	6.46
478.066	6.34
478.268	7.05
478.469	7.39
478.671	7.41
478.873	6.83
479.075	7.08
479.276	7.01
479.478	7.05
479.68	6.5
479.882	6.04
480.083	5.79
480.285	5.95
480.487	5.5
480.688	5.66
480.89	5.22
481.091	5.57
481.293	5.59
481.495	5.33
481.696	5.14
481.898	5.1
482.099	4.96
482.301	4.85
482.502	4.99
482.704	4.95
482.905	4.76
483.107	4.84
483.308	4.79
483.51	4.78
483.711	4.82
483.913	5.08
484.114	5.09
484.315	5.19
484.517	5.3
484.718	5.1
484.92	5.11
485.121	5.03
485.322	4.95
485.524	4.86
485.725	4.69
485.926	4.71
486.127	4.41
486.329	4.44
486.53	4.61
486.731	4.66
486.932	4.62
487.134	4.71
487.335	4.71
487.536	4.93
487.737	5.03
487.938	5.09
488.139	5.26
488.341	5.44
488.542	5.66
488.743	5.72
488.944	5.82
489.145	5.7
489.346	5.66
489.547	5.87
489.748	5.56
489.949	5.43
490.15	5.56
490.351	5.31
490.552	5.03
490.753	4.97
490.954	4.81
491.155	4.6
491.356	4.5
491.557	4.48
491.758	4.4
491.959	4.65
492.159	4.6
492.36	4.41
492.561	4.41
492.762	4.51
492.963	4.19
493.164	4.44
493.364	4.46
493.565	4.94
493.766	5.25
493.967	5.14
494.167	4.26
494.368	4.56
494.569	4.87
494.769	5.38
494.97	5.38
495.171	5.48
495.371	5.77
495.572	5.8
495.773	5.81
495.973	5.44
496.174	5.98
496.375	6.4
496.575	5.83
496.776	5.68
496.976	5.77
497.177	5.44
497.377	6.01
497.578	5.62
497.778	5.74
497.979	5.9
498.179	6.06
498.38	5.69
498.58	5.71
498.78	6.02
498.981	5.73
499.181	5.29
499.382	6.29
499.582	5.68
499.782	5.11
499.983	5.46
500.183	5.13
500.383	4.96
500.584	4.64
500.784	4.76
500.984	4.96
501.184	5.87
501.385	5.64
501.585	6.06
501.785	6.37
501.985	6.79
502.185	7.1
502.386	7.09
502.586	6.99
502.786	7.2
502.986	7.31
503.186	7.38
503.386	6.72
503.586	6.6
503.786	5.58
503.987	5.33
504.187	4.98
504.387	4.65
504.587	5.19
504.787	5.41
504.987	5.48
505.187	5.36
505.387	5.58
505.587	5.87
505.786	6.62
505.986	6.77
506.186	6.64
506.386	6.9
506.586	6.88
506.786	6.36
506.986	6.4
507.186	6.58
507.386	6.96
507.585	6.41
507.785	6.17
507.985	6.11
508.185	6.37
508.384	6.17
508.584	6.52
508.784	6.33
508.984	6.18
509.183	6.2
509.383	5.87
509.583	5.58
509.782	6.02
509.982	5.93
510.182	5.72
510.381	5.17
510.581	5.94
510.781	5.87
510.98	5.96
511.18	6.25
511.379	6.25
511.579	6.24
511.778	6.42
511.978	6.78
512.177	7.17
512.377	7.25
512.576	7.57
512.776	6.94
512.975	7.08
513.175	7.11
513.374	7.63
513.573	8
513.773	8.4
513.972	8.38
514.172	7.76
514.371	7.31
514.57	7.09
514.77	7.18
514.969	7.95
515.168	7.95
515.367	7.88
515.567	7.68
515.766	7.2
515.965	7.08
516.164	7.04
516.364	6.98
516.563	7.12
516.762	7.23
516.961	7.27
517.16	6.64
517.359	6.6
517.559	6.61
517.758	6.67
517.957	6.85
518.156	7.15
518.355	7.01
518.554	7.32
518.753	7.65
518.952	8.06
519.151	8.14
519.35	8.44
519.549	8.12
519.748	8.29
519.947	8.01
520.146	7.91
520.345	7.45
520.544	7.8
520.743	7.68
520.942	7.41
521.141	7.14
521.339	7.22
521.538	7.07
521.737	7.03
521.936	6.8
522.135	6.96
522.333	7
522.532	7.07
522.731	7.29
522.93	7.32
523.129	7.13
523.327	7.13
523.526	7.23
523.725	7.41
523.923	7.92
524.122	7.98
524.321	7.63
524.519	7.89
524.718	7.82
524.917	7.5
525.115	7.74
525.314	8.1
525.512	8.32
525.711	8.2
525.909	8.29
526.108	7.88
526.306	8.03
526.505	8.18
526.703	8.45
526.902	8.7
527.1	8.67
527.299	8.59
527.497	8.58
527.696	8.56
527.894	8.75
528.092	8.73
528.291	8.77
528.489	9.02
528.688	9.24
528.886	8.99
529.084	8.95
529.283	8.95
529.481	9.14
529.679	9.24
529.877	9.01
530.076	9.09
530.274	9.02
530.472	9.66
530.67	9.38
530.869	9.19
531.067	9.09
531.265	9.15
531.463	9.34
531.661	9.41
531.859	9.35
532.057	9.47
532.255	9.25
532.454	9.37
532.652	9.1
532.85	9.17
533.048	9.11
533.246	9.33
533.444	9.57
533.642	9.51
533.84	9.4
534.038	9.41
534.236	9.42
534.434	9.54
534.632	9.51
534.83	9.82
535.027	9.98
535.225	10.06
535.423	10.04
535.621	10.01
535.819	9.74
536.017	9.89
536.215	9.61
536.412	9.75
536.61	9.44
536.808	9.1
537.006	8.82
537.203	8.33
537.401	8.58
537.599	8.94
537.797	8.72
537.994	9.34
538.192	9.2
538.39	9.87
538.587	10.09
538.785	10.01
538.983	10.26
539.18	10.4
539.378	10.64
539.575	10.62
539.773	10.51
539.97	10.6
540.168	10.19
540.366	10.07
540.563	9.89
540.761	9.96
540.958	10.33
541.155	10.54
541.353	10.5
541.55	10.79
541.748	10.63
541.945	10.2
542.143	10.29
542.34	10.66
542.537	11.1
542.735	11.62
542.932	11.63
543.129	11.67
543.327	11.84
543.524	12.25
543.721	12.26
543.919	12.48
544.116	12.93
544.313	12.74
544.51	13.26
544.708	12.79
544.905	12.65
545.102	12.26
545.299	12.23
545.496	12.33
545.693	12.2
545.891	12.09
546.088	12.3
546.285	12.44
546.482	12.7
546.679	12.49
546.876	13.28
547.073	13.71
547.27	13.85
547.467	14.28
547.664	14.06
547.861	13.83
548.058	13.85
548.255	13.69
548.452	14.17
548.649	14.22
548.846	14.2
549.043	14.14
549.24	13.72
549.437	14.26
549.633	13.53
549.83	14.05
550.027	13.82
550.224	13.67
550.421	14.23
550.618	13.87
550.814	13.49
551.011	13.43
551.208	13.69
551.405	13.7
551.601	13.89
551.798	14.31
551.995	14.35
552.191	15.03
552.388	15.5
552.585	15.73
552.781	15.51
552.978	16.36
553.175	16.61
553.371	16.29
553.568	16.29
553.764	15.81
553.961	16.21
554.157	16.2
554.354	16.07
554.55	16.16
554.747	15.92
554.943	16.66
555.14	15.76
555.336	15.82
555.533	15.89
555.729	16.25
555.926	17.6
556.122	17.03
556.318	17.41
556.515	17.72
556.711	17.95
556.907	17.94
557.104	17.5
557.3	18.49
557.496	18.97
557.693	18.48
557.889	17.83
558.085	16.66
558.281	17.27
558.478	16.88
558.674	17.02
558.87	17.05
559.066	17.14
559.262	17.28
559.459	17.27
559.655	17.86
559.851	18.25
560.047	19.03
560.243	19.9
560.439	19.73
560.635	19.5
560.831	18.8
561.027	19.52
561.223	19.17
561.419	18.7
561.615	18.48
561.811	18.06
562.007	18.36
562.203	18.04
562.399	18.17
562.595	18.31
562.791	18.99
562.987	19.99
563.183	19
563.379	19.37
563.575	20.17
563.771	20.01
563.966	20.05
564.162	19.96
564.358	20.26
564.554	20.08
564.75	19.77
564.945	19.38
565.141	18.86
565.337	18.69
565.533	18.84
565.728	18.04
565.924	17.92
566.12	18.15
566.315	18.19
566.511	17.76
566.707	17.65
566.902	17.91
567.098	18.41
567.293	18.6
567.489	18.81
567.684	18.88
567.88	19.87
568.076	20.16
568.271	19.13
568.467	18.78
568.662	19.06
568.858	19.06
569.053	19.08
569.248	19.16
569.444	19.12
569.639	19.15
569.835	18.38
570.03	18.54
570.225	18.31
570.421	18.85
570.616	19.33
570.812	19.61
571.007	19.8
571.202	19.45
571.397	18.65
571.593	18.99
571.788	19.12
571.983	19.72
572.178	19.57
572.374	19.97
572.569	19.54
572.764	19.13
572.959	18.52
573.154	18.56
573.35	18.75
573.545	19.06
573.74	19.05
573.935	18.93
574.13	18.93
574.325	18.94
574.52	19.06
574.715	19.13
574.91	19.84
575.105	19.77
575.3	19.85
575.495	20.07
575.69	20.77
575.885	20.72
576.08	20.39
576.275	20.2
576.47	19.14
576.665	19.23
576.86	20.04
577.055	19.83
577.25	20.45
577.444	20.74
577.639	21.06
577.834	21.02
578.029	20.49
578.224	20.98
578.418	21.08
578.613	22.35
578.808	22.48
579.003	22.19
579.197	22.19
579.392	22.72
579.587	22.26
579.781	21.97
579.976	21.56
580.171	22.02
580.365	22.8
580.56	23.01
580.755	23.16
580.949	23.1
581.144	23.21
581.338	23.17
581.533	23.15
581.727	22.84
581.922	23.36
582.116	23.24
582.311	23.36
582.505	22.35
582.7	22.1
582.894	22.97
583.089	22.92
583.283	23.28
583.478	23.85
583.672	22.59
583.866	22.84
584.061	23.09
584.255	22.81
584.449	23.17
584.644	23.51
584.838	23.83
585.032	22.82
585.226	22.57
585.421	23.1
585.615	22.09
585.809	22.64
586.003	22.22
586.198	21.47
586.392	21.7
586.586	22.21
586.78	22.29
586.974	23.12
587.168	23.88
587.363	24.1
587.557	23.13
587.751	23.49
587.945	22.92
588.139	23.81
588.333	24.58
588.527	24.52
588.721	24.17
588.915	23.29
589.109	22.29
589.303	21.88
589.497	22.02
589.691	22.42
589.885	22.28
590.079	23.08
590.273	23.27
590.466	23.18
590.66	23.88
590.854	23.41
591.048	23.84
591.242	24.87
591.436	24.96
591.629	24.91
591.823	23.74
592.017	24.35
592.211	24.35
592.404	23.71
592.598	23.41
592.792	22.91
592.986	22.89
593.179	24.08
593.373	23.7
593.567	23.57
593.76	23.89
593.954	25.33
594.147	25.57
594.341	25.78
594.535	25.62
594.728	25.95
594.922	25.77
595.115	26.44
595.309	26.15
595.502	25.73
595.696	25.72
595.889	25.3
596.083	24.88
596.276	24.54
596.47	25.23
596.663	25.6
596.856	25.14
597.05	25.99
597.243	25.87
597.437	25.31
597.63	25.9
597.823	26.46
598.017	26.28
598.21	26
598.403	25.41
598.596	25.33
598.79	25.23
598.983	25.56
599.176	24.99
599.369	24.42
599.563	25.07
599.756	24.86
599.949	24.31
600.142	24.78
600.335	25.54
600.528	25.36
600.722	25.5
600.915	25.07
601.108	25.75
601.301	26.23
601.494	25.9
601.687	24.99
601.88	25.35
602.073	24.55
602.266	24.36
602.459	24.06
602.652	24.3
602.845	23.53
603.038	23.55
603.231	23.12
603.424	23
603.617	22.75
603.809	23.04
604.002	22.76
604.195	23.62
604.388	24.09
604.581	24.06
604.774	24.94
604.966	25.57
605.159	25.34
605.352	25.12
605.545	24.78
605.737	25.31
605.93	25.58
606.123	26.13
606.316	26.14
606.508	25.81
606.701	26.06
606.894	26.09
607.086	25.47
607.279	26
607.471	25.85
607.664	25.84
607.857	26.02
608.049	26.06
608.242	25.32
608.434	25.06
608.627	24.96
608.819	25.33
609.012	24.6
609.204	24.65
609.397	24.96
609.589	25.68
609.782	26.35
609.974	26.47
610.166	27.5
610.359	27.76
610.551	27.27
610.743	27.39
610.936	27.4
611.128	27.51
611.32	27.79
611.513	27.31
611.705	26.99
611.897	26.16
612.09	27.13
612.282	26.22
612.474	25.75
612.666	26.48
612.858	26.24
613.051	25.13
613.243	26.24
613.435	25.12
613.627	25.68
613.819	26.79
614.011	27.06
614.203	25.94
614.395	25.26
614.588	27.41
614.78	27.51
614.972	28.49
615.164	28.65
615.356	28.24
615.548	29.35
615.74	29.85
615.932	29.46
616.124	29.75
616.315	30.53
616.507	31.62
616.699	29.75
616.891	29.87
617.083	30.08
617.275	30.52
617.467	29.37
617.659	29.67
617.85	29.86
618.042	29.78
618.234	29.97
618.426	28.55
618.618	27.88
618.809	28.82
619.001	29.28
619.193	28.14
619.384	28.62
619.576	30.75
619.768	30.42
619.959	29.13
620.151	28.9
620.343	28.27
620.534	29.29
620.726	29.4
620.917	29.4
621.109	29.25
621.301	29.43
621.492	28.89
621.684	27.95
621.875	27.7
622.067	28.33
622.258	28.43
622.45	28.45
622.641	28.5
622.832	28.08
623.024	27.98
623.215	28.88
623.407	29.02
623.598	28.73
623.789	28.02
623.981	27.75
624.172	28.6
624.363	28.18
624.555	27.65
624.746	27.32
624.937	27.48
625.129	27.11
625.32	25.21
625.511	25.64
625.702	26.08
625.893	25.92
626.085	26.81
626.276	25.11
626.467	25.18
626.658	25.8
626.849	25.21
627.04	25.69
627.231	26.04
627.422	28
627.614	27.61
627.805	27.17
627.996	28.14
628.187	27.35
628.378	28.45
628.569	29.25
628.76	29.94
628.951	31.01
629.142	31.4
629.332	31.41
629.523	29.59
629.714	28.94
629.905	29.64
630.096	28.64
630.287	29.08
630.478	28.63
630.669	28.04
630.859	27.8
631.05	26.97
631.241	27.1
631.432	26.65
631.623	26.54
631.813	27.11
632.004	27.6
632.195	26.88
632.385	27.11
632.576	27.78
632.767	27.66
632.957	28.55
633.148	29.24
633.339	28.49
633.529	29.41
633.72	29.89
633.91	30.48
634.101	30.58
634.292	31.51
634.482	31.58
634.673	31.71
634.863	31.33
635.054	31
635.244	30.45
635.435	29.9
635.625	29.7
635.815	29.91
636.006	29.39
636.196	28.78
636.387	29.13
636.577	28.66
636.767	28.23
636.958	28.34
637.148	27.77
637.338	28.49
637.529	30.11
637.719	28.93
637.909	29.31
638.099	29.69
638.29	28.73
638.48	28.79
638.67	29.2
638.86	28.75
639.05	28.72
639.241	29.07
639.431	29.48
639.621	29.23
639.811	31.04
640.001	31.59
640.191	31.79
640.381	33.26
640.571	32.63
640.761	33.04
640.951	33.09
641.141	33.08
641.331	33.04
641.521	32.81
641.711	33.63
641.901	32.7
642.091	31.98
642.281	30.43
642.471	29.77
642.661	31.05
642.851	30.69
643.041	31.86
643.231	31.98
643.42	31.75
643.61	31.32
643.8	30.92
643.99	31.39
644.18	30.49
644.369	30.13
644.559	30.38
644.749	29.29
644.939	28.72
645.128	28.41
645.318	29.5
645.508	28.97
645.697	28.16
645.887	28.2
646.076	26.59
646.266	26.48
646.456	27.32
646.645	26.8
646.835	27.37
647.024	26.15
647.214	25.45
647.403	24.48
647.593	24.98
647.782	26.02
647.972	24.16
648.161	25.45
648.351	26.73
648.54	28.19
648.73	28.75
648.919	28.87
649.108	31.34
649.298	30.43
649.487	31.92
649.677	32.05
649.866	32.53
650.055	32.85
650.244	32.34
650.434	32.34
650.623	31.21
650.812	29.56
651.002	28.58
651.191	26.89
651.38	29.25
651.569	27.57
651.758	26.63
651.947	25.05
652.137	25.9
652.326	26.79
652.515	25.79
652.704	25.95
652.893	28.15
653.082	29.97
653.271	31.04
653.46	30.65
653.649	30.72
653.838	30.87
654.027	31.2
654.216	30.85
654.405	30.5
654.594	30.88
654.783	30.66
654.972	30.27
655.161	29.35
655.35	29.21
655.539	29.24
655.728	30.34
655.916	31.58
656.105	31.37
656.294	31.5
656.483	31.55
656.672	31.39
656.86	31.7
657.049	30.79
657.238	30.62
657.427	30.29
657.615	30.08
657.804	28.89
657.993	28.41
658.181	29.94
658.37	29.71
658.559	29.01
658.747	29.52
658.936	31.57
659.125	32.16
659.313	33
659.502	32.9
659.69	32.73
659.879	32.9
660.067	33.14
660.256	31.97
660.444	32.35
660.633	33.61
660.821	33.05
661.01	31.7
661.198	33.3
661.387	32.9
661.575	32.03
661.763	32.77
661.952	33.21
662.14	31.65
662.328	32.85
662.517	34.39
662.705	32.96
662.893	35.2
663.082	35.44
663.27	35.46
663.458	36.17
663.646	38.66
663.834	38.63
664.023	38.56
664.211	40.26
664.399	40.28
664.587	37.01
664.775	40.24
664.963	37.6
665.152	37.29
665.34	33.98
665.528	33.15
665.716	32.74
665.904	32.43
666.092	32.43
666.28	30.37
666.468	29.86
666.656	30.82
666.844	29.74
667.032	30.77
667.22	30.06
667.408	31.03
667.596	30.34
667.784	29.59
667.971	29.11
668.159	29.62
668.347	31.84
668.535	30.8
668.723	30.56
668.911	29.55
669.098	30.12
669.286	29.72
669.474	29.26
669.662	29.64
669.849	31.74
670.037	33.08
670.225	32.5
670.413	32.56
670.6	33.22
670.788	35.78
670.976	37.12
671.163	35.62
671.351	35.51
671.538	35.78
671.726	35.81
671.913	32.4
672.101	30.27
672.289	31.21
672.476	29.99
672.664	31.44
672.851	28.86
673.039	28.68
673.226	29.68
673.413	31.13
673.601	30.57
673.788	31.69
673.976	32.1
674.163	33.72
674.35	33.13
674.538	33.15
674.725	32.95
674.912	33.36
675.1	32.72
675.287	32.71
675.474	32.61
675.662	34.7
675.849	33.52
676.036	33.26
676.223	33.46
676.411	35.23
676.598	36.27
676.785	34.99
676.972	34.77
677.159	34.73
677.346	33.9
677.533	32.72
677.721	30.94
677.908	31.12
678.095	33.35
678.282	31.87
678.469	31.4
678.656	29.84
678.843	30.61
679.03	31.11
679.217	31.49
679.404	31.53
679.591	31.04
679.778	31.98
679.964	32.26
680.151	29.91
680.338	31.04
680.525	30.18
680.712	30.67
680.899	30.49
681.086	30.41
681.272	29.93
681.459	30.38
681.646	32.29
681.833	30.7
682.02	29.79
682.206	32.2
682.393	32.26
682.58	33.15
682.766	33.67
682.953	33.74
683.14	34.77
683.326	34.99
683.513	34.84
683.7	33.54
683.886	34.2
684.073	33.13
684.259	32.63
684.446	31.75
684.632	31.05
684.819	31.06
685.005	30.24
685.192	30.56
685.378	31.12
685.565	30.66
685.751	30.95
685.938	30.56
686.124	32.08
686.31	31.12
686.497	30.09
686.683	29.99
686.87	30.85
687.056	31.26
687.242	29.08
687.429	29.67
687.615	30.64
687.801	30.76
687.987	31.59
688.174	32.66
688.36	32.87
688.546	33.83
688.732	33.71
688.918	35.57
689.105	36.15
689.291	36.32
689.477	32.64
689.663	32.48
689.849	31.25
690.035	31.77
690.221	31.93
690.407	31.25
690.593	32.5
690.779	32.27
690.965	28.65
691.151	28.69
691.337	29.52
691.523	31.5
691.709	31.08
691.895	31.22
692.081	30.72
692.267	29.35
692.453	30.67
692.639	31.41
692.825	31.4
693.011	30.52
693.196	30.57
693.382	29.6
693.568	31.42
693.754	30.89
693.94	33.06
694.125	32.47
694.311	32.5
694.497	33.71
694.682	32.1
694.868	32.64
695.054	34.26
695.239	33.31
695.425	34.59
695.611	32.42
695.796	33.08
695.982	32.64
696.168	32.99
696.353	32.35
696.539	32.41
696.724	31.98
696.91	30.66
697.095	29.7
697.281	29.82
697.466	29.51
697.652	30.18
697.837	29.15
698.023	27.78
698.208	28
698.393	27.23
698.579	25.98
698.764	25.41
698.949	26.28
699.135	26.57
699.32	25.36
699.505	23.21
699.691	22.61
699.876	23.51
700.061	25.76
700.246	24.63
700.432	25.82
700.617	25.86
700.802	27.61
700.987	28.42
701.172	27.03
701.358	28.6
701.543	32.23
701.728	32
701.913	29.59
702.098	30.5
702.283	32.02
702.468	29.97
702.653	31.73
702.838	30.79
703.023	30.6
703.208	32.59
703.393	33.43
703.578	33.7
703.763	36.15
703.948	39.05
704.133	35.12
704.318	35.28
704.503	39.77
704.688	37.62
704.873	36.6
705.057	35.68
705.242	36.28
705.427	36.59
705.612	36.25
705.797	34.88
705.981	35.44
706.166	36.05
706.351	36.04
706.536	35.21
706.72	34.54
706.905	38.67
707.09	37.89
707.274	37.16
707.459	35.71
707.644	34.9
707.828	35.47
708.013	34.42
708.197	34.48
708.382	32.28
708.567	32.56
708.751	34.09
708.936	30.01
709.12	29.95
709.305	29.19
709.489	30.55
709.673	34.21
709.858	33.57
710.042	32.95
710.227	35.63
710.411	37.82
710.596	36.64
710.78	38.03
710.964	39.7
711.149	41.44
711.333	41.82
711.517	41.97
711.702	38.63
711.886	40.78
712.07	41.67
712.254	40.12
712.438	41.3
712.623	41.67
712.807	38.8
712.991	35.7
713.175	35
713.359	35.11
713.544	34.25
713.728	35.09
713.912	31.71
714.096	30.71
714.28	28.26
714.464	26.27
714.648	26.23
714.832	28.24
715.016	32.21
715.2	32.13
715.384	31.09
715.568	31.4
715.752	29.72
715.936	29.88
716.12	32.68
716.304	36.48
716.488	37.11
716.671	37.54
716.855	36.34
717.039	33.78
717.223	35.09
717.407	35.95
717.59	33.85
717.774	32.82
717.958	32.04
718.142	29.4
718.325	26.57
718.509	24.13
718.693	23.22
718.877	25.22
719.06	28.76
719.244	22.97
719.428	25.57
719.611	27.57
719.795	28.95
719.978	28.96
720.162	29.75
720.345	28.82
720.529	31.44
720.713	28.57
720.896	27.9
721.08	27.62
721.263	28.97
721.446	27.69
721.63	26.69
721.813	29.45
721.997	29.84
722.18	30.44
722.364	31.03
722.547	28.88
722.73	29.39
722.914	24.9
723.097	25.57
723.28	28.15
723.464	30.71
723.647	30.88
723.83	27.38
724.013	27.86
724.197	28.39
724.38	25.55
724.563	27.25
724.746	31.02
724.929	35.06
725.112	36.51
725.296	35.4
725.479	34.21
725.662	32.76
725.845	34.44
726.028	34.68
726.211	34.68
726.394	39.06
726.577	39.36
726.76	37.91
726.943	36
727.126	32.17
727.309	31.56
727.492	30.85
727.675	28.82
727.858	28.76
728.041	30.31
728.224	30.45
728.407	29.85
728.589	31.89
728.772	29.82
728.955	33.12
729.138	33.14
729.321	34.21
729.503	33.17
729.686	37.08
729.869	37.8
730.052	38.59
730.234	34.79
730.417	35.32
730.6	34.26
730.782	35.72
730.965	37.32
731.148	37.46
731.33	38.93
731.513	39.76
731.695	40.86
731.878	40.63
732.061	40.76
732.243	43.11
732.426	41.67
732.608	42.19
732.791	41.58
732.973	40.67
733.156	44.01
733.338	43.58
733.52	42.72
733.703	40.17
733.885	40.38
734.068	38.89
734.25	39.31
734.432	37.96
734.615	36.65
734.797	39.24
734.979	39.36
735.162	38.16
735.344	39.14
735.526	40.88
735.708	45.45
735.891	45.59
736.073	42.72
736.255	42.29
736.437	47.68
736.619	49.08
736.802	45.91
736.984	42.02
737.166	39.82
737.348	40.75
737.53	43.83
737.712	43.74
737.894	41.7
738.076	44.01
738.258	46.03
738.44	44.52
738.622	44.94
738.804	48.41
738.986	52.01
739.168	52.04
739.35	48.85
739.532	48.81
739.714	47.73
739.896	48.12
740.078	54.35
740.259	55.06
740.441	57.06
740.623	54.48
740.805	55.83
740.987	53.96
741.168	57.85
741.35	63.58
741.532	63.93
741.714	60.82
741.895	63.29
742.077	56.12
742.259	54.15
742.44	52.72
742.622	58.05
742.804	54.93
742.985	58.14
743.167	55.56
743.348	49.75
743.53	48.21
743.711	51.91
743.893	56.32
744.075	61.35
744.256	62.75
744.438	63.28
744.619	60.72
744.8	62.64
744.982	57
745.163	57.03
745.345	58.53
745.526	57.37
745.707	58.1
745.889	54.32
746.07	50.01
746.252	51.03
746.433	51.88
746.614	53.58
746.795	47.38
746.977	50.89
747.158	49.93
747.339	48.95
747.52	50.62
747.702	49.92
747.883	47.33
748.064	45.18
748.245	42.52
748.426	37.81
748.607	32.59
748.788	36.41
748.97	33.99
749.151	32.24
749.332	29.42
749.513	27.86
749.694	32.22
749.875	35.1
750.056	38.34
750.237	40.05
750.418	47.24
750.599	47.16
750.78	52.96
750.96	56.65
751.141	56.29
751.322	58.13
751.503	60.63
751.684	53.4
751.865	57.95
752.046	53.56
752.226	53.35
752.407	51.11
752.588	55.7
752.769	51.02
752.949	47.82
753.13	48.78
753.311	51.16
753.492	48.14
753.672	49.02
753.853	44.23
754.034	51.14
754.214	52.95
754.395	49.09
754.575	46.16
754.756	46.63
754.937	49.59
755.117	52.78
755.298	50.92
755.478	52.17
755.659	51.22
755.839	52.75
756.02	47.47
756.2	43.47
756.381	43.47
756.561	46.35
756.741	41.58
756.922	37.38
757.102	32.5
757.283	29.93
757.463	29.54
757.643	31.76
757.823	27.44
758.004	28.11
758.184	23.51
758.364	24.29
758.545	20.34
758.725	25.1
758.905	26.01
759.085	25.87
759.265	27.24
759.446	28.58
759.626	27.2
759.806	30.64
759.986	29.22
760.166	33.98
760.346	30.2
760.526	29.04
760.706	24.89
760.886	28.39
761.066	27.46
761.246	25.02
761.426	27.26
761.606	26.48
761.786	23.53
761.966	25.2
762.146	23.99
762.326	28.12
762.506	30.36
762.686	30.92
762.866	29.38
763.046	28.85
763.225	31.14
763.405	27.74
763.585	29.78
763.765	34.97
763.945	37.19
764.124	39.63
764.304	40.02
764.484	38.43
764.664	42.32
764.843	45.15
765.023	49.82
765.203	50.65
765.382	53.56
765.562	51.42
765.741	49.41
765.921	52.96
766.101	51.76
766.28	52.9
766.46	60.35
766.639	61.29
766.819	63.77
766.998	68.11
767.178	70.23
767.357	67
767.537	68.32
767.716	67.7
767.896	60.47
768.075	61.82
768.254	62.64
768.434	68.17
768.613	69.32
768.792	72.7
768.972	64.64
769.151	63.76
769.33	66.98
769.51	73.02
769.689	75.67
769.868	78.45
770.047	76.21
770.226	76.55
770.406	69.54
770.585	68.54
770.764	69.35
770.943	75.22
771.122	74.72
771.301	78.82
771.48	78.35
771.66	81.79
771.839	87.99
772.018	93.25
772.197	94.52
772.376	100.76
772.555	101.67
772.734	102.78
772.913	101.14
773.092	100.73
773.271	93.73
773.449	84.1
773.628	82.1
773.807	76.62
773.986	77.45
774.165	74.82
774.344	77.01
774.523	75.34
774.701	71.59
774.88	68.08
775.059	71.18
775.238	87.7
775.417	86.63
775.595	81.83
775.774	74.82
775.953	72.96
776.131	72.13
776.31	64.12
776.489	63.03
776.667	66.02
776.846	67.34
777.025	63.12
777.203	56.23
777.382	65.72
777.56	72.46
777.739	80.49
777.917	80.86
778.096	81.27
778.274	90.32
778.453	93.64
778.631	83.21
778.81	85.01
778.988	92.02
779.166	91.11
779.345	86.35
779.523	80.4
779.702	80.52
779.88	88.01
780.058	101.47
780.237	93.39
780.415	85.5
780.593	91.04
780.771	90.02
780.95	92.45
781.128	97.78
781.306	105.1
781.484	104.96
781.662	97.32
781.841	86.59
782.019	73.25
782.197	76.23
782.375	82.14
782.553	88.86
782.731	86.25
782.909	84.36
783.087	77.52
783.265	63.33
783.443	63.7
783.621	69.16
783.799	78.65
783.977	79.86
784.155	77.79
784.333	81.8
784.511	70.85
784.689	74.72
784.867	79.08
785.045	70.29
785.223	72.33
785.4	82.05
785.578	82.28
785.756	79.34
785.934	67.98
786.112	62.03
786.289	50.36
786.467	49.35
786.645	46.41
786.823	33.68
787	35.98
787.178	42.42
787.356	34.96
787.533	32.93
787.711	23.94
787.889	28.57
788.066	28.72
788.244	28.24
788.421	31.31
788.599	35.34
788.776	37.81
788.954	43.2
789.131	41.78
789.309	40.59
789.486	44.27
789.664	41.11
789.841	43.5
790.019	49.95
790.196	56.5
790.373	56.98
790.551	61.1
790.728	63.92
790.906	66.34
791.083	57.41
791.26	61.26
791.437	53.01
791.615	65.32
791.792	70.04
791.969	66.81
792.146	64.28
792.324	64.79
792.501	62.55
792.678	63.4
792.855	69.24
793.032	80.38
793.209	94.71
793.387	110.27
793.564	109.79
793.741	110.46
793.918	114.64
794.095	105.31
794.272	99.38
794.449	96.25
794.626	101.97
794.803	92.48
794.98	96.67
795.157	79.38
795.334	70.22
795.511	69.11
795.688	61.83
795.864	57.19
796.041	59.53
796.218	64.91
796.395	61.39
796.572	51.23
796.749	50.21
796.925	52.25
797.102	56.09
797.279	57.47
797.456	51.33
797.632	55.42
797.809	58.43
797.986	60.01
798.162	52.3
798.339	56.86
798.516	61.33
798.692	65
798.869	60.21
799.046	57.15
799.222	56.14
799.399	67.45
799.575	63.59
799.752	59.7
799.928	60.07
800.105	64.51
800.281	66.47
800.458	70.84
800.634	71.84
800.811	71.44
800.987	70.12
801.163	67.84
801.34	55.66
801.516	52.01
801.692	56.37
801.869	64.05
802.045	71.04
802.221	93.8
802.398	86.56
802.574	84.89
802.75	115.94
802.926	104.92
803.103	99.47
803.279	110.5
803.455	125.1
803.631	123.84
803.807	145.27
803.983	143.06
804.16	135.34
804.336	149.94
804.512	148.85
804.688	135.91
804.864	180.51
805.04	191.6
805.216	165.69
805.392	162.86
805.568	160.16
805.744	127.68
805.92	129.13
806.096	105.12
806.272	74.92
806.448	76.2
806.623	33.62
806.799	28.73
806.975	42.23
807.151	46.65
807.327	50.33
807.503	36.83
807.678	42.17
807.854	49.87
808.03	58.12
808.206	66.87
808.381	55.24
808.557	54.6
808.733	50.04
808.908	43.26
809.084	37.95
809.26	30.98
809.435	40.14
809.611	25.29
809.787	28.51
809.962	10.66
810.138	-3.21
810.313	14.44
810.489	20.18
810.664	15.58
810.84	25.34
811.015	28.5
811.191	27.09
811.366	28.09
811.542	32.58
811.717	29.19
811.892	28.08
812.068	37.97
812.243	21.48
812.419	30.17
812.594	32.66
812.769	27.26
812.944	39.36
813.12	52.13
813.295	70.9
813.47	66.43
813.645	85.97
813.821	97.19
813.996	140.94
814.171	116.11
814.346	104.51
814.521	145.69
814.697	142.25
814.872	138.89
815.047	135.02
815.222	101.84
815.397	74.44
815.572	44.37
815.747	62.43
815.922	39.75
816.097	46.04
816.272	51.9
816.447	37.43
816.622	43.16
816.797	38.25
816.972	41.77
817.147	46.48
817.322	70.97
817.496	80.47
817.671	64.81
817.846	71.46
818.021	62.78
818.196	70.71
818.371	77.41
818.545	62.58
818.72	60.22
818.895	55.17
819.069	64.91
819.244	48.98
819.419	44.86
819.594	42.78
819.768	37.75
819.943	35.24
820.117	29.28
820.292	27.33
820.467	24.96
820.641	24.62
820.816	21.2
820.99	19.72
821.165	20.83
821.339	20.39
821.514	19.48
821.688	20.36
821.863	19.33
822.037	19.28
822.212	19.76
822.386	20.2
822.56	19.21
822.735	22.73
822.909	24
823.084	24.83
823.258	27.11
823.432	31.15
823.606	32.2
823.781	35.66
823.955	36.97
824.129	35.42
824.303	31.43
824.478	30.71
824.652	29.3
824.826	30.29
825	29.18
825.174	26.34
825.348	20.49
825.523	19.15
825.697	15.16
825.871	13.96
826.045	15.18
826.219	23.3
826.393	26.6
826.567	26.54
826.741	25.49
826.915	29.45
827.089	31.5
827.263	38.7
827.437	42.72
827.611	48.92
827.784	56.5
827.958	57.73
828.132	55.86
828.306	56.46
828.48	54.78
828.654	52.48
828.827	54.65
829.001	64.57
829.175	62.5
829.349	48.24
829.522	49.45
829.696	33.43
829.87	33.75
830.044	30.94
830.217	29.75
830.391	33.65
830.565	39.26
830.738	32.5
830.912	23.62
831.085	16.58
831.259	25.7
831.432	33.5
831.606	41.37
831.779	41.87
831.953	37.96
832.126	34.87
832.3	37.22
832.473	35.94
832.647	36.51
832.82	37.8
832.994	39.83
833.167	44.51
833.34	36.99
833.514	36.81
833.687	33.43
833.86	38.44
834.034	39.71
834.207	27.38
834.38	34.98
834.553	32.96
834.727	37.84
834.9	45.28
835.073	43.16
835.246	46.09
835.419	51.27
835.593	67.51
835.766	75.39
835.939	83.26
836.112	95.29
836.285	107.83
836.458	140.31
836.631	122.41
836.804	109.07
836.977	98.85
837.15	105.15
837.323	105.75
837.496	77.71
837.669	66.11
837.842	59.51
838.015	59.7
838.188	51.27
838.361	36.81
838.533	49.18
838.706	59.33
838.879	69.86
839.052	62.56
839.225	59.84
839.398	66.81
839.57	68.54
839.743	84.9
839.916	87.37
840.088	88.43
840.261	100.54
840.434	93.48
840.607	80.06
840.779	75.13
840.952	101.08
841.124	100.14
841.297	129.18
841.47	155.77
841.642	149.61
841.815	149.9
841.987	150.56
842.16	166.67
842.332	369.94
842.505	344.6
842.677	442.94
842.85	-8950
843.022	-3412.5
843.194	2136.36
843.367	-1316.13
843.539	-348.24
843.712	-572.37
843.884	-500
844.056	-594.55
844.229	197.08
844.401	189.13
844.573	246.39
844.745	133.1
844.918	116.67
845.09	128.65
845.262	124.05
845.434	135.75
845.606	155.1
845.779	161.83
845.951	216.97
846.123	191.19
846.295	283.59
846.467	254.39
846.639	216.15
846.811	228.13
846.983	341.43
847.155	-132.58
847.327	-50
847.499	2073.33
847.671	-410.67
847.843	-2154.55
848.015	-436.73
848.187	-157.25
848.359	-344.29
848.531	-124.67
848.703	-66.42
848.875	-115.08
849.047	-177.09
849.218	-132.35
849.39	-87.95
849.562	-127.16
849.734	-169.08
849.905	-130.18
850.077	-308.04
850.249	-1396
850.421	1259.68
850.592	491.33
850.764	402.16
850.936	275.49
851.107	224.94
851.279	243.14
851.451	205.8
851.622	155.83
851.794	91.38
851.965	90.19
852.137	73.8
852.308	69.86
852.48	36.36
852.651	25.19
852.823	36.72
852.994	49.22
853.166	26.82
853.337	39.85
853.509	67.25
853.68	213.21
853.851	-45.95
854.023	-83.65
854.194	262.89
854.365	220.36
854.537	171.62
854.708	207.95
854.879	262.33
855.05	258.12
855.222	1561.54
855.393	130.19
855.564	169.9
855.735	417.39
855.906	153.73
856.078	8.29
856.249	76.6
856.42	-39.53
856.591	-187.8
856.762	-37.66
856.933	-54.92
857.104	-110.7
857.275	-250.82
857.446	-82.77
857.617	-153.52
857.788	-71.43
857.959	418.85
858.13	334.26
858.301	1837.5
858.472	552.63
858.643	880.25
858.814	335.38
858.985	344.02
859.155	772
859.326	257.38
859.497	208.54
859.668	127.84
859.839	297.08
860.009	291.84
860.18	354.87
860.351	-498.33
860.522	-3050
860.692	-340
860.863	12500
861.034	460.26
861.204	1777.27
861.375	345.36
861.546	-411.9
861.716	-4841.67
861.887	-1216.67
862.057	9700
862.228	-1250
862.398	-1587.5
862.569	258.23
862.739	204.8
862.91	857.58
863.08	185.6
863.251	-797.14
863.421	-178
863.592	545.16
863.762	1000
863.932	402.91
864.103	282.62
864.273	379.91
864.443	978.48
864.614	300
864.784	212.83
864.954	1450
865.125	281.82
865.295	139.69
865.465	208.33
865.635	204.55
865.805	256.25
865.976	-221.43
866.146	-24.55
866.316	23.37
866.486	-29.37
866.656	137.37
866.826	150.74
866.996	131.89
867.166	158.84
867.336	168.24
867.506	183.82
867.676	227.35
867.846	196.07
868.016	873.17
868.186	108
868.356	400
868.526	173.75
868.696	-16.67
868.866	94.83
869.036	88.31
869.206	92.69
869.376	75.81
869.545	108.65
869.715	189.19
869.885	269.44
870.055	-1814.29
870.224	13250
870.394	-138.35
870.564	-220.37
870.734	-21.68
870.903	18.3
871.073	3.42
871.243	-7.61
871.412	-104.76
871.582	-93.49
871.751	-285.71
871.921	169.9
872.091	150.74
872.26	109.77
872.43	126.8
872.599	91.86
872.769	97.68
872.938	85.91
873.108	99.53
873.277	42.54
873.446	40
873.616	64.18
873.785	85.27
873.955	55.78
874.124	37.06
874.293	47.01
874.463	62.38
874.632	53.97
874.801	61.81
874.971	65.36
875.14	100
875.309	128.68
875.478	124.06
875.647	114.75
875.817	138.18
875.986	136.08
876.155	152.22
876.324	133.22
876.493	118.04
876.662	116.21
876.831	101.3
877	100.3
877.17	72.86
877.339	72.66
877.508	104.98
877.677	138.15
877.846	131.9
878.015	118.36
878.184	106.16
878.352	156.04
878.521	-37.5
878.69	26.51
878.859	45.66
879.028	-44.71
879.197	74.85
879.366	4.28
879.534	-21.85
879.703	-5.02
879.872	20.28
880.041	27.11
880.21	37.58
880.378	50.4
880.547	40.17
880.716	40.35
880.884	40.02
881.053	30.8
881.222	25.56
881.39	33.98
881.559	34.31
881.727	30.49
881.896	36.51
882.065	40.2
882.233	36.07
882.402	48.12
882.57	41.93
882.739	46.53
882.907	56.67
883.076	65.22
883.244	65.72
883.412	71.32
883.581	70.92
883.749	82.11
883.918	65.76
884.086	61.38
884.254	55.8
884.423	75.09
884.591	119.03
884.759	97.39
884.927	123.47
885.096	110.71
885.264	98.55
885.432	134.03
885.6	143.29
885.769	187.13
885.937	188.33
886.105	264.73
886.273	188.89
886.441	101.96
886.609	172.95
886.777	124.37
886.945	94.22
887.113	137.24
887.281	233.33
887.449	-2050
887.617	2346.15
887.785	455.13
887.953	-528.57
888.121	-127.39
888.289	-114.86
888.457	-568.85
888.625	-145.16
888.793	-53.46
888.961	-86
889.129	-78.52
889.296	-325.51
889.464	-167.13
889.632	-95.65
889.8	-160.61
889.967	-254.46
890.135	-498.04
