Data from JASIL_3240_Reflection_2.txt Node
Date: Mon Nov 16 20:26:51 EST 2015
User: Geneva
Spectrometer: USB4E03002
Autoset integration time: false
Trigger mode: 4
Integration Time (sec): 1.000000E-1
Scans to average: 10
Electric dark correction enabled: false
Nonlinearity correction enabled: false
Boxcar width: 5
Stray light correction enabled: false
XAxis mode: Wavelengths
Stop averaging: false
Number of Pixels in Spectrum: 3648
>>>>>Begin Spectral Data<<<<<
177.575	-141.03
177.794	-180.71
178.014	-216.87
178.233	-305.61
178.452	-520.48
178.672	-315.91
178.891	-455.66
179.11	1662.16
179.33	589.29
179.549	-2359.09
179.768	531.36
179.987	641.94
180.207	394.19
180.426	220.56
180.645	246.71
180.864	332.47
181.084	174.55
181.303	150.69
181.522	230.91
181.741	742.25
181.96	199.72
182.179	208.18
182.398	225.78
182.618	225
182.837	193.28
183.056	149.6
183.275	112.3
183.494	132.33
183.713	154.32
183.932	143.74
184.151	120.57
184.37	90.3
184.589	84.59
184.808	91.19
185.027	72.05
185.246	95.62
185.465	128.61
185.684	149.48
185.903	327.59
186.122	137.67
186.341	151.12
186.56	108.16
186.779	118.65
186.998	250
187.216	203.15
187.435	258.68
187.654	231.89
187.873	151.91
188.092	115.19
188.311	125.83
188.53	193.47
188.748	185.4
188.967	306.4
189.186	181.61
189.405	122.94
189.623	169.44
189.842	125.1
190.061	101.44
190.28	243.59
190.498	-141.25
190.717	150.79
190.936	-135.59
191.154	16.96
191.373	-5033.33
191.592	-3845.45
191.81	-311.49
192.029	-407.63
192.248	-85.56
192.466	-69.57
192.685	-101.57
192.904	-197.07
193.122	-127.47
193.341	-278.38
193.559	-301.52
193.778	-244.85
193.996	-243.51
194.215	9375
194.433	-457.14
194.652	164.53
194.87	131.17
195.089	30.13
195.307	80.53
195.526	-91.53
195.744	-22.81
195.963	-23.63
196.181	-562.5
196.399	-19.66
196.618	220
196.836	450
197.055	-22.13
197.273	-182.76
197.491	-77.78
197.71	68.63
197.928	132.5
198.146	202.38
198.365	-810
198.583	125.11
198.801	112.87
199.019	203.9
199.238	-171.43
199.456	165.09
199.674	27.12
199.892	52.4
200.111	60
200.329	77.36
200.547	107.32
200.765	78.8
200.983	62.65
201.202	60.95
201.42	70.47
201.638	91.04
201.856	92.9
202.074	372.73
202.292	426.26
202.51	279.59
202.728	481.44
202.946	-935
203.165	2033.33
203.383	-492.78
203.601	-562.79
203.819	1054
204.037	4940
204.255	409.28
204.473	170.09
204.691	241.33
204.909	197.14
205.127	158.6
205.345	72.16
205.562	8.42
205.78	47.65
205.998	68.16
206.216	45
206.434	83.11
206.652	114.24
206.87	99.35
207.088	92.77
207.306	60.09
207.523	76.49
207.741	70.03
207.959	62.44
208.177	59.27
208.395	38.32
208.612	42.67
208.83	29.89
209.048	35.93
209.266	32.45
209.483	66.35
209.701	84.39
209.919	80.17
210.136	97.99
210.354	157.5
210.572	169.68
210.79	214.07
211.007	118.78
211.225	89.15
211.442	261.9
211.66	-1.39
211.878	205.56
212.095	101.22
212.313	125.82
212.53	189.97
212.748	127.56
212.966	133.1
213.183	141.25
213.401	139.38
213.618	127.97
213.836	148.1
214.053	123.56
214.271	124.27
214.488	319.33
214.705	129.36
214.923	105.48
215.14	73.31
215.358	13.54
215.575	19.81
215.793	66.67
216.01	82.21
216.227	44.26
216.445	82.25
216.662	86.96
216.879	36.35
217.097	42.6
217.314	26.64
217.531	51.88
217.749	94.29
217.966	97.33
218.183	112.4
218.4	157.98
218.618	233.07
218.835	244.21
219.052	187.23
219.269	201.33
219.487	265.28
219.704	180.28
219.921	133.72
220.138	93.61
220.355	75.58
220.572	53.43
220.79	16.86
221.007	6.8
221.224	-78.72
221.441	-50.72
221.658	-129.19
221.875	-23.08
222.092	0.9
222.309	-25
222.526	-19.35
222.743	23.81
222.96	-39.15
223.177	31.21
223.394	4.69
223.611	20.79
223.828	6.3
224.045	30.93
224.262	-16.1
224.479	-26.86
224.696	-31.7
224.913	-36.88
225.13	-24.43
225.347	-3.95
225.564	0
225.781	9.56
225.997	19.13
226.214	14.36
226.431	10.8
226.648	8.04
226.865	9.14
227.082	9.37
227.298	4.69
227.515	3.75
227.732	1.3
227.949	1.66
228.165	-0.88
228.382	-6.89
228.599	-7.67
228.816	-4.67
229.032	-1.06
229.249	-3.01
229.466	2.48
229.682	2.99
229.899	-3.16
230.116	1.52
230.332	4.16
230.549	11.5
230.765	17.93
230.982	19.1
231.199	21.69
231.415	24.86
231.632	28.68
231.848	31.01
232.065	37.58
232.281	44.07
232.498	50.04
232.714	51.75
232.931	45.71
233.147	43.19
233.364	50.09
233.58	40.77
233.797	37.45
234.013	32.29
234.23	33.22
234.446	28.43
234.662	22.02
234.879	17.42
235.095	13.19
235.312	19
235.528	9.55
235.744	7.2
235.961	7.46
236.177	5.92
236.393	18.15
236.61	15.26
236.826	16.85
237.042	23.62
237.258	18.43
237.475	11.58
237.691	5.54
237.907	17.54
238.123	12.93
238.339	19.19
238.556	19.37
238.772	16.47
238.988	12.75
239.204	10.67
239.42	14.44
239.636	16.7
239.853	20.54
240.069	17.77
240.285	17.15
240.501	16.17
240.717	16.59
240.933	15.1
241.149	12.24
241.365	11.34
241.581	11.62
241.797	10.28
242.013	10.07
242.229	8.42
242.445	9.35
242.661	9.6
242.877	9.95
243.093	8.9
243.309	11.57
243.525	12
243.741	14.15
243.957	13.99
244.173	13.55
244.388	13.27
244.604	14.41
244.82	12.93
245.036	11.03
245.252	10.43
245.468	9.03
245.683	7.04
245.899	8.41
246.115	8.3
246.331	8.29
246.547	9.23
246.762	9.8
246.978	9.92
247.194	10.88
247.409	11.99
247.625	11.49
247.841	11.64
248.057	11.92
248.272	10.73
248.488	11.84
248.703	11.79
248.919	11.39
249.135	10.06
249.35	8.84
249.566	8.2
249.782	5.51
249.997	7.73
250.213	8.76
250.428	7
250.644	10.5
250.859	7.25
251.075	7.64
251.29	9.66
251.506	10.86
251.721	9.31
251.937	10.12
252.152	10.94
252.368	10.52
252.583	11.21
252.798	11.09
253.014	9.13
253.229	11.5
253.445	13.35
253.66	10.94
253.875	14.2
254.091	20.55
254.306	18.54
254.521	18.6
254.737	19
254.952	18.26
255.167	20.07
255.383	20.24
255.598	16.69
255.813	14.62
256.028	13.31
256.244	11.78
256.459	7.23
256.674	8.61
256.889	8.93
257.104	7.97
257.32	6.6
257.535	6.41
257.75	4.07
257.965	4.75
258.18	6.04
258.395	5.75
258.61	4.56
258.826	5.15
259.041	4.87
259.256	5.08
259.471	5.05
259.686	5.54
259.901	5.08
260.116	5.71
260.331	6.37
260.546	5.93
260.761	6.1
260.976	6.35
261.191	7.1
261.406	7.55
261.621	7.53
261.836	8.95
262.05	9.14
262.265	11.19
262.48	10.75
262.695	8.31
262.91	4.45
263.125	6.04
263.34	7.69
263.555	6.35
263.769	5.95
263.984	6.7
264.199	5.25
264.414	5.07
264.629	3.6
264.843	4.69
265.058	6.35
265.273	9.41
265.488	7.63
265.702	6.71
265.917	8.11
266.132	7.46
266.346	6.98
266.561	5.88
266.776	5.73
266.99	6.46
267.205	7.62
267.42	7.67
267.634	8.4
267.849	8.47
268.063	9.05
268.278	9.08
268.492	10.7
268.707	11.06
268.922	12.75
269.136	12.11
269.351	10.45
269.565	9.35
269.78	9.14
269.994	7.73
270.209	8.41
270.423	7.47
270.637	6.74
270.852	5.72
271.066	5.45
271.281	6.33
271.495	5.24
271.709	6.01
271.924	7.74
272.138	8.26
272.353	9.21
272.567	7.39
272.781	7.47
272.996	6.97
273.21	6.3
273.424	5.63
273.638	4.9
273.853	6.71
274.067	6.31
274.281	4.51
274.495	2.94
274.71	2.06
274.924	3.3
275.138	2.97
275.352	2.38
275.566	3.4
275.781	2.72
275.995	0.35
276.209	0.64
276.423	2.22
276.637	0.25
276.851	0.87
277.065	1.12
277.279	2.29
277.493	2.6
277.707	1.64
277.921	1.26
278.135	3.56
278.349	5.26
278.563	3.94
278.777	2.31
278.991	5.13
279.205	5
279.419	6.33
279.633	5.18
279.847	5.39
280.061	7.13
280.275	7.39
280.489	4.67
280.703	2.86
280.917	4.35
281.131	5.7
281.344	4.45
281.558	5.47
281.772	4
281.986	5.64
282.2	6.17
282.414	5.36
282.627	5.27
282.841	6.97
283.055	9.66
283.269	9.67
283.482	8.52
283.696	9.08
283.91	8.1
284.123	8.62
284.337	7.96
284.551	7.13
284.764	7.04
284.978	5.96
285.192	5.96
285.405	5.33
285.619	4.45
285.833	4.45
286.046	4.25
286.26	5.22
286.473	5.11
286.687	4.79
286.9	6.07
287.114	6.48
287.327	7.54
287.541	7.53
287.754	7.66
287.968	8.11
288.181	8.76
288.395	7.27
288.608	7.81
288.822	8.26
289.035	9.23
289.248	7.04
289.462	6.81
289.675	6.86
289.889	6.76
290.102	6.15
290.315	6.77
290.529	5.79
290.742	7.26
290.955	6.97
291.169	7.29
291.382	5.86
291.595	8.07
291.808	9.02
292.022	9.34
292.235	9.22
292.448	9.15
292.661	8.07
292.875	10.56
293.088	9.66
293.301	7.73
293.514	6.17
293.727	6.02
293.94	4.95
294.153	6.2
294.367	5.67
294.58	4.88
294.793	5.15
295.006	5.67
295.219	4.22
295.432	4.97
295.645	5.63
295.858	6.66
296.071	6.88
296.284	6.95
296.497	5.22
296.71	5.86
296.923	6.87
297.136	6.44
297.349	6.27
297.562	6.73
297.775	7.57
297.988	6.64
298.201	7.23
298.414	6.69
298.626	7.24
298.839	6.92
299.052	5.99
299.265	5.35
299.478	5.46
299.691	5.17
299.903	5.18
300.116	3.88
300.329	4.84
300.542	3.34
300.755	4.45
300.967	3.48
301.18	4.11
301.393	5.85
301.605	6.6
301.818	6.27
302.031	7.23
302.243	6.51
302.456	6.64
302.669	7.74
302.881	9.11
303.094	8.76
303.307	8.97
303.519	9.86
303.732	9.18
303.944	7.85
304.157	9.1
304.37	9.63
304.582	11.03
304.795	10.11
305.007	9.46
305.22	8.2
305.432	8.68
305.645	9.09
305.857	9.72
306.069	8.99
306.282	9.95
306.494	8.76
306.707	6.76
306.919	6.34
307.132	7.21
307.344	7.59
307.556	8.69
307.769	9.25
307.981	9.04
308.193	7.19
308.406	7.88
308.618	7.54
308.83	7.44
309.043	8.37
309.255	8.42
309.467	8.42
309.679	7.42
309.892	6.89
310.104	6.29
310.316	5.98
310.528	6.14
310.74	5.11
310.953	5.92
311.165	6.44
311.377	6.4
311.589	6.39
311.801	6.61
312.013	7.18
312.225	8.98
312.437	9.02
312.649	9.04
312.862	11.05
313.074	10.23
313.286	8.94
313.498	9.57
313.71	8.44
313.922	8.33
314.134	7.75
314.346	6.85
314.558	4.27
314.77	3.06
314.982	4.23
315.193	2.85
315.405	5.03
315.617	4.97
315.829	5.28
316.041	5.81
316.253	5.81
316.465	6.29
316.677	7.27
316.888	8.13
317.1	9.56
317.312	8.19
317.524	7.39
317.736	7.61
317.947	7.96
318.159	6.88
318.371	6.21
318.583	6.28
318.794	5.9
319.006	5.47
319.218	3.88
319.43	4.19
319.641	4.39
319.853	5.62
320.064	4.76
320.276	6.72
320.488	6.93
320.699	7.52
320.911	6.96
321.123	6.5
321.334	8.65
321.546	10.67
321.757	9.95
321.969	12.05
322.18	11.56
322.392	12.21
322.603	10.87
322.815	9.71
323.026	10.44
323.238	10.91
323.449	10.87
323.661	10.31
323.872	9.82
324.083	10.88
324.295	10.15
324.506	10.35
324.718	8.55
324.929	9.34
325.14	10.26
325.352	11.31
325.563	11.98
325.774	11.69
325.986	11.18
326.197	11.07
326.408	11.07
326.62	10.06
326.831	9.84
327.042	11.23
327.253	10.45
327.464	12.5
327.676	11.5
327.887	11.58
328.098	13.14
328.309	14.08
328.52	15.67
328.732	14.72
328.943	16.3
329.154	17.12
329.365	17.65
329.576	19.24
329.787	17.08
329.998	18.23
330.209	15.57
330.42	16.03
330.631	15.92
330.842	14.38
331.053	15.38
331.264	15.3
331.475	13.72
331.686	13.61
331.897	12
332.108	13.99
332.319	12.55
332.53	15.03
332.741	15.06
332.952	14.63
333.163	14.27
333.374	13.33
333.585	12.49
333.795	13.11
334.006	12.66
334.217	12.46
334.428	10.46
334.639	10.33
334.849	8.44
335.06	7.43
335.271	8.75
335.482	9.28
335.692	9.37
335.903	9.94
336.114	11
336.325	11.24
336.535	11.74
336.746	12.64
336.957	13.8
337.167	14.5
337.378	15.33
337.589	13.51
337.799	12.23
338.01	12.91
338.22	12.74
338.431	12.18
338.642	11.43
338.852	11.73
339.063	10.94
339.273	10.83
339.484	11.85
339.694	11.36
339.905	11.65
340.115	13.26
340.326	12.8
340.536	12.49
340.746	12.48
340.957	12.18
341.167	11.99
341.378	13.48
341.588	12.38
341.799	11.06
342.009	10.34
342.219	11.06
342.43	9.91
342.64	10.15
342.85	10.11
343.061	9.83
343.271	10.4
343.481	9.22
343.691	7.45
343.902	8.47
344.112	8.5
344.322	8.22
344.532	8.48
344.743	9.54
344.953	9.53
345.163	10.83
345.373	10.79
345.583	12.11
345.793	12.95
346.004	13.27
346.214	12.68
346.424	13
346.634	12.44
346.844	11.86
347.054	11.67
347.264	11.54
347.474	11.24
347.684	10.6
347.894	9.13
348.104	9.16
348.314	8.92
348.524	9.14
348.734	8.87
348.944	9.7
349.154	9.58
349.364	9.35
349.574	9
349.784	8.99
349.994	8.98
350.204	9.26
350.413	9.18
350.623	9.17
350.833	8.37
351.043	7.2
351.253	7.24
351.463	6.8
351.672	6.47
351.882	7.14
352.092	6.47
352.302	6.89
352.511	7.7
352.721	8.14
352.931	9.01
353.141	10.68
353.35	11.59
353.56	12.44
353.77	13.7
353.979	15.32
354.189	14.92
354.399	14.84
354.608	15.31
354.818	14.67
355.027	13.99
355.237	12.75
355.447	11.48
355.656	11.52
355.866	11.25
356.075	10.27
356.285	8.87
356.494	7.86
356.704	7.5
356.913	6.71
357.123	7.12
357.332	7.08
357.542	7.61
357.751	7.65
357.96	8.62
358.17	8.66
358.379	8.81
358.589	8.75
358.798	9.5
359.007	9.42
359.217	8.91
359.426	8.31
359.635	8.91
359.845	8.18
360.054	7.81
360.263	7.38
360.472	6.68
360.682	6.61
360.891	7.01
361.1	7.54
361.309	7.59
361.519	8.14
361.728	8.36
361.937	7.98
362.146	9.13
362.355	9.55
362.564	9.59
362.774	10
362.983	10.63
363.192	10.78
363.401	10.79
363.61	11.02
363.819	11.5
364.028	11.07
364.237	10.84
364.446	9.66
364.655	9.18
364.864	8.97
365.073	9.56
365.282	8.35
365.491	7.47
365.7	7.07
365.909	7.09
366.118	6.93
366.327	7.51
366.536	7.95
366.745	8.19
366.954	9.22
367.162	9.81
367.371	9.16
367.58	9.8
367.789	10
367.998	10
368.207	9.89
368.415	9.53
368.624	8.64
368.833	8.7
369.042	9.13
369.25	9.41
369.459	8.4
369.668	8.36
369.877	8.53
370.085	8.65
370.294	8.29
370.503	8.46
370.711	8.89
370.92	9.32
371.129	9.91
371.337	9.47
371.546	8.45
371.754	8.67
371.963	8.9
372.171	9.29
372.38	9.57
372.589	10.19
372.797	10.02
373.006	9.29
373.214	9.43
373.423	8.86
373.631	9.24
373.84	9.47
374.048	9.03
374.256	8.73
374.465	8.55
374.673	8.02
374.882	7.1
375.09	6.52
375.298	7.64
375.507	7.37
375.715	6.63
375.923	6.23
376.132	5.67
376.34	6.52
376.548	6.95
376.757	6.77
376.965	7.19
377.173	7.68
377.381	8.25
377.59	8.25
377.798	7.86
378.006	8.42
378.214	8.66
378.423	9.37
378.631	9.14
378.839	8.33
379.047	8.85
379.255	8.43
379.463	8.36
379.671	8.43
379.879	7.66
380.088	8.92
380.296	9.2
380.504	9.74
380.712	9.5
380.92	9.28
381.128	9.95
381.336	9.66
381.544	10.05
381.752	9.37
381.96	9.5
382.168	10.09
382.376	9.03
382.584	8.25
382.791	8.27
382.999	8.66
383.207	7.91
383.415	8.45
383.623	7.73
383.831	6.64
384.039	7.85
384.247	7.96
384.454	8.04
384.662	8.3
384.87	8.23
385.078	7.79
385.285	7.42
385.493	7.95
385.701	7.06
385.909	7.63
386.116	8.48
386.324	8.06
386.532	7.42
386.739	6.81
386.947	6.39
387.155	7.23
387.362	7.09
387.57	7
387.778	7.79
387.985	7.39
388.193	7.04
388.4	7.07
388.608	7.94
388.816	8.31
389.023	8.28
389.231	8.71
389.438	8.36
389.646	8.28
389.853	8.77
390.061	8.27
390.268	8.47
390.475	7.75
390.683	6.91
390.89	6.65
391.098	6.63
391.305	7.46
391.512	7
391.72	6.25
391.927	6.55
392.135	6.14
392.342	6.03
392.549	6.06
392.756	6.61
392.964	7.71
393.171	7.19
393.378	7.8
393.586	6.5
393.793	6.57
394	7.46
394.207	7.34
394.414	7.46
394.622	7.48
394.829	7.07
395.036	7.09
395.243	6.53
395.45	6.94
395.657	6.1
395.864	6.63
396.072	7.29
396.279	6.74
396.486	6.69
396.693	7.17
396.9	7.24
397.107	8.4
397.314	8.31
397.521	8.7
397.728	8.14
397.935	8.32
398.142	8.02
398.349	7.66
398.556	7.49
398.763	6.98
398.97	6.35
399.177	6.27
399.383	5.8
399.59	6.03
399.797	5.68
400.004	6.17
400.211	6.23
400.418	6.99
400.625	7.08
400.831	7.7
401.038	8.08
401.245	8.15
401.452	7.93
401.658	7.98
401.865	7.84
402.072	7.39
402.279	6.74
402.485	6.52
402.692	5.78
402.899	5.87
403.105	5.38
403.312	6.03
403.519	6.24
403.725	6.13
403.932	5.91
404.138	5.66
404.345	5.89
404.552	6.14
404.758	6.54
404.965	6.21
405.171	6.49
405.378	6.43
405.584	5.81
405.791	5.48
405.997	5.63
406.204	6.12
406.41	5.98
406.617	6.07
406.823	6.51
407.029	5.8
407.236	6.5
407.442	5.59
407.649	5.92
407.855	5.8
408.061	6.21
408.268	6.23
408.474	6.34
408.68	6.34
408.887	6.22
409.093	5.67
409.299	6.23
409.505	5.78
409.712	6.33
409.918	6.03
410.124	5.81
410.33	5.51
410.537	5.59
410.743	5.22
410.949	5.72
411.155	5.6
411.361	5.56
411.567	5.26
411.773	5.65
411.98	5.19
412.186	5.17
412.392	5.77
412.598	5.57
412.804	5.76
413.01	5.15
413.216	5.28
413.422	5.53
413.628	5.65
413.834	5.16
414.04	5.32
414.246	5.74
414.452	5.98
414.658	5.81
414.864	6.03
415.07	5.91
415.275	6.22
415.481	6.49
415.687	6.84
415.893	6.81
416.099	7.36
416.305	7.48
416.511	7.4
416.716	7
416.922	7.2
417.128	7.12
417.334	7.3
417.539	7.05
417.745	6.85
417.951	6.21
418.157	6.37
418.362	6.44
418.568	5.96
418.774	5.69
418.979	6.04
419.185	5.7
419.391	5.85
419.596	5.54
419.802	5.9
420.008	5.49
420.213	7.95
420.419	7.85
420.624	7.53
420.83	7.53
421.035	7.56
421.241	7.15
421.446	7.45
421.652	6.99
421.857	6.89
422.063	6.58
422.268	6.81
422.474	4.76
422.679	4.43
422.885	4.6
423.09	4.54
423.295	4.44
423.501	4.62
423.706	4.39
423.911	4.51
424.117	4.58
424.322	4.47
424.527	4.4
424.733	4.21
424.938	4.27
425.143	4.26
425.349	4.23
425.554	4.54
425.759	4.46
425.964	4.42
426.169	4.33
426.375	4.09
426.58	4.36
426.785	4
426.99	4.27
427.195	4.48
427.4	4.11
427.605	4.81
427.811	4.48
428.016	4.63
428.221	4.95
428.426	4.94
428.631	5.5
428.836	5.21
429.041	5.62
429.246	5.74
429.451	5.85
429.656	6.27
429.861	5.93
430.066	5.87
430.271	6.1
430.476	5.76
430.681	5.97
430.886	6.14
431.09	6.07
431.295	6.15
431.5	5.58
431.705	5.08
431.91	4.76
432.115	4.38
432.32	4.79
432.524	4.67
432.729	4.69
432.934	4.74
433.139	4.38
433.343	4.51
433.548	4.22
433.753	4.48
433.958	4.87
434.162	4.53
434.367	4.61
434.572	4.41
434.776	4.25
434.981	4.11
435.186	4.07
435.39	3.81
435.595	4.32
435.799	4.27
436.004	3.94
436.209	4.11
436.413	4.46
436.618	4.85
436.822	4.96
437.027	4.75
437.231	4.77
437.436	4.89
437.64	4.89
437.845	4.51
438.049	4.59
438.253	4.9
438.458	4.44
438.662	4.38
438.867	4.13
439.071	4.12
439.275	4.43
439.48	4.66
439.684	4.57
439.888	4.69
440.093	4.84
440.297	4.85
440.501	4.74
440.706	4.79
440.91	4.99
441.114	4.93
441.318	5.09
441.523	4.94
441.727	4.63
441.931	4.64
442.135	4.31
442.339	3.98
442.543	3.92
442.748	4.26
442.952	4.41
443.156	4.35
443.36	4.5
443.564	4.48
443.768	4.3
443.972	4.61
444.176	4.14
444.38	4.56
444.584	4.8
444.788	4.81
444.992	4.43
445.196	4.41
445.4	4.5
445.604	4.44
445.808	4.16
446.012	4.66
446.216	4.47
446.42	4.87
446.624	5
446.828	4.72
447.032	5.01
447.235	5.29
447.439	5.28
447.643	5.25
447.847	5.37
448.051	5.46
448.254	5.05
448.458	4.9
448.662	4.69
448.866	4.68
449.069	4.77
449.273	4.46
449.477	4.21
449.681	4.17
449.884	3.82
450.088	3.53
450.292	3.53
450.495	3.67
450.699	3.77
450.902	3.68
451.106	3.96
451.31	4.49
451.513	4.86
451.717	4.71
451.92	4.8
452.124	4.82
452.327	4.89
452.531	4.73
452.734	4.75
452.938	4.71
453.141	5.08
453.345	4.68
453.548	4.33
453.752	4.21
453.955	4.68
454.158	4.59
454.362	4.79
454.565	5.04
454.769	5.41
454.972	5.48
455.175	5.63
455.379	5.54
455.582	5.18
455.785	5.19
455.988	4.98
456.192	4.45
456.395	4.55
456.598	4.5
456.801	4.55
457.005	4.4
457.208	4.33
457.411	4.62
457.614	4.47
457.817	4.83
458.021	4.76
458.224	4.82
458.427	4.88
458.63	4.91
458.833	5.03
459.036	4.92
459.239	5.04
459.442	5.12
459.645	5.03
459.848	5.06
460.051	4.86
460.254	4.94
460.457	4.88
460.66	4.91
460.863	4.61
461.066	4.3
461.269	4.42
461.472	3.95
461.675	3.81
461.878	3.8
462.081	4.04
462.284	3.94
462.486	3.75
462.689	3.78
462.892	3.73
463.095	3.87
463.298	4.47
463.5	4.12
463.703	4.58
463.906	4.43
464.109	4.22
464.311	4.21
464.514	4.72
464.717	4.93
464.92	4.58
465.122	4.62
465.325	4.83
465.528	4.31
465.73	4.3
465.933	4.35
466.135	4.79
466.338	4.81
466.541	4.36
466.743	4.17
466.946	3.84
467.148	4.15
467.351	4.16
467.553	4.18
467.756	4.56
467.958	4.67
468.161	4.71
468.363	4.65
468.566	4.45
468.768	4.77
468.971	4.81
469.173	5.01
469.375	4.96
469.578	5.01
469.78	4.83
469.983	4.28
470.185	4.56
470.387	4.53
470.59	4.44
470.792	4.69
470.994	4.47
471.196	4.47
471.399	4.59
471.601	4.78
471.803	5.04
472.005	5.09
472.208	5.52
472.41	5.1
472.612	5.11
472.814	4.87
473.016	4.85
473.218	4.78
473.421	4.56
473.623	4.49
473.825	4.2
474.027	4.24
474.229	4.44
474.431	4.44
474.633	4.62
474.835	4.75
475.037	4.86
475.239	4.83
475.441	5.1
475.643	5.54
475.845	5.4
476.047	5.6
476.249	5.52
476.451	5.11
476.653	4.94
476.855	5.13
477.057	4.7
477.258	4.68
477.46	4.75
477.662	4.66
477.864	4.36
478.066	4.52
478.268	4.43
478.469	4.08
478.671	4.11
478.873	4.42
479.075	4.33
479.276	4.55
479.478	4.39
479.68	4.11
479.882	4.14
480.083	4.11
480.285	4.16
480.487	4.28
480.688	4.67
480.89	4.7
481.091	4.55
481.293	4.31
481.495	4.17
481.696	4.41
481.898	4.77
482.099	4.7
482.301	4.78
482.502	4.64
482.704	4.56
482.905	4.4
483.107	4.44
483.308	4.42
483.51	4.36
483.711	4.36
483.913	4.28
484.114	4.17
484.315	4.18
484.517	4.15
484.718	4.17
484.92	4.17
485.121	4.12
485.322	4.08
485.524	3.95
485.725	4.13
485.926	4.14
486.127	4.11
486.329	4.16
486.53	4.18
486.731	4.14
486.932	4.05
487.134	4.01
487.335	4.08
487.536	4.04
487.737	4.07
487.938	4.02
488.139	4.04
488.341	4.01
488.542	3.94
488.743	4.02
488.944	4.05
489.145	4.16
489.346	4.37
489.547	4.41
489.748	4.55
489.949	4.62
490.15	4.64
490.351	4.55
490.552	4.68
490.753	4.64
490.954	4.43
491.155	4.46
491.356	4.49
491.557	4.38
491.758	4.38
491.959	4.22
492.159	4.34
492.36	4.38
492.561	4.59
492.762	4.54
492.963	4.58
493.164	4.59
493.364	4.54
493.565	4.62
493.766	4.53
493.967	4.74
494.167	4.76
494.368	4.51
494.569	4.37
494.769	4.12
494.97	4.16
495.171	4.12
495.371	4.39
495.572	4.29
495.773	4.23
495.973	4.43
496.174	4.03
496.375	4.48
496.575	4.5
496.776	4.47
496.976	4.23
497.177	4.23
497.377	4.49
497.578	4.37
497.778	4.64
497.979	4.83
498.179	4.56
498.38	4.72
498.58	4.64
498.78	4.58
498.981	4.6
499.181	4.93
499.382	5
499.582	4.74
499.782	4.72
499.983	4.7
500.183	4.63
500.383	4.58
500.584	4.55
500.784	4.45
500.984	4.79
501.184	4.8
501.385	4.68
501.585	4.67
501.785	5.07
501.985	5.26
502.185	5.19
502.386	5.01
502.586	4.9
502.786	4.83
502.986	4.89
503.186	4.59
503.386	4.58
503.586	4.54
503.786	4.6
503.987	4.3
504.187	4.25
504.387	4.23
504.587	4.3
504.787	4.61
504.987	4.9
505.187	4.86
505.387	4.9
505.587	5.03
505.786	5.31
505.986	5.27
506.186	5.46
506.386	5.41
506.586	5.28
506.786	5.22
506.986	5.22
507.186	5.16
507.386	5.08
507.585	5.29
507.785	5.33
507.985	5.2
508.185	5.19
508.384	4.99
508.584	5.04
508.784	5.23
508.984	5.13
509.183	5.19
509.383	5.08
509.583	5.14
509.782	5.34
509.982	5.41
510.182	5.54
510.381	5.58
510.581	5.71
510.781	5.49
510.98	5.41
511.18	5.62
511.379	5.53
511.579	5.49
511.778	5.55
511.978	5.35
512.177	5.21
512.377	4.98
512.576	4.9
512.776	4.87
512.975	4.99
513.175	5.07
513.374	5.13
513.573	5.29
513.773	5.45
513.972	5.31
514.172	5.32
514.371	5.45
514.57	5.76
514.77	5.7
514.969	5.68
515.168	5.76
515.367	5.97
515.567	6.06
515.766	5.85
515.965	5.98
516.164	6.02
516.364	6.21
516.563	6.29
516.762	6.13
516.961	6.19
517.16	6.14
517.359	6.17
517.559	6
517.758	5.96
517.957	6.04
518.156	5.95
518.355	5.91
518.554	5.77
518.753	5.68
518.952	5.85
519.151	5.83
519.35	5.98
519.549	5.98
519.748	6
519.947	5.9
520.146	6.06
520.345	5.96
520.544	6.01
520.743	5.99
520.942	6
521.141	6.09
521.339	6.22
521.538	6.18
521.737	6.1
521.936	5.86
522.135	5.92
522.333	5.98
522.532	6.18
522.731	6.18
522.93	6.22
523.129	5.95
523.327	6.18
523.526	6.33
523.725	6.31
523.923	6.53
524.122	6.54
524.321	6.45
524.519	6.31
524.718	6.35
524.917	6.41
525.115	6.46
525.314	6.85
525.512	6.56
525.711	6.47
525.909	6.49
526.108	6.21
526.306	6.33
526.505	6.48
526.703	6.45
526.902	6.4
527.1	6.44
527.299	6.42
527.497	6.31
527.696	6.42
527.894	6.51
528.092	6.59
528.291	6.75
528.489	6.77
528.688	6.68
528.886	6.71
529.084	6.74
529.283	6.79
529.481	6.77
529.679	6.86
529.877	6.77
530.076	6.81
530.274	6.85
530.472	7
530.67	7.07
530.869	7.22
531.067	7.19
531.265	7.35
531.463	7.35
531.661	7.56
531.859	7.45
532.057	7.4
532.255	7.34
532.454	7.21
532.652	7.14
532.85	7.05
533.048	7.06
533.246	7.19
533.444	7.18
533.642	7.2
533.84	7.1
534.038	7.24
534.236	7.44
534.434	7.47
534.632	7.57
534.83	7.6
535.027	7.78
535.225	7.79
535.423	7.91
535.621	7.82
535.819	7.66
536.017	7.5
536.215	7.52
536.412	7.32
536.61	7.38
536.808	7.36
537.006	7.31
537.203	7.52
537.401	7.46
537.599	7.44
537.797	7.41
537.994	7.48
538.192	7.64
538.39	7.62
538.587	7.75
538.785	7.87
538.983	7.88
539.18	8.04
539.378	7.79
539.575	7.79
539.773	7.62
539.97	7.7
540.168	7.73
540.366	7.78
540.563	8.03
540.761	8.17
540.958	8.08
541.155	8.24
541.353	8.2
541.55	8.14
541.748	8.19
541.945	8.46
542.143	8.44
542.34	8.59
542.537	8.58
542.735	8.25
542.932	8.3
543.129	8.29
543.327	8.14
543.524	8.11
543.721	8.18
543.919	8.41
544.116	8.4
544.313	8.48
544.51	8.4
544.708	8.62
544.905	8.89
545.102	8.96
545.299	9.14
545.496	8.96
545.693	9.15
545.891	9.31
546.088	9.44
546.285	9.36
546.482	9.54
546.679	9.46
546.876	9.45
547.073	9.61
547.27	9.35
547.467	9.26
547.664	9.42
547.861	9.41
548.058	9.33
548.255	8.91
548.452	8.91
548.649	8.93
548.846	9.16
549.043	9.26
549.24	9.39
549.437	9.66
549.633	9.66
549.83	9.97
550.027	9.92
550.224	10.25
550.421	10.41
550.618	10.66
550.814	10.47
551.011	10.68
551.208	10.52
551.405	10.23
551.601	10.28
551.798	10.56
551.995	10.39
552.191	10.13
552.388	10.11
552.585	10.17
552.781	10.03
552.978	10.17
553.175	9.97
553.371	10.06
553.568	10.12
553.764	10.34
553.961	10.05
554.157	10.02
554.354	10.37
554.55	10.43
554.747	10.5
554.943	10.33
555.14	10.21
555.336	10.35
555.533	10.63
555.729	10.56
555.926	10.73
556.122	10.76
556.318	11.16
556.515	11.51
556.711	11.69
556.907	11.87
557.104	11.91
557.3	12.26
557.496	12.21
557.693	12.15
557.889	12.8
558.085	12.65
558.281	13.13
558.478	12.96
558.674	12.93
558.87	12.71
559.066	12.63
559.262	12.9
559.459	12.86
559.655	13.12
559.851	13.11
560.047	12.45
560.243	12.2
560.439	12.35
560.635	12.22
560.831	12.05
561.027	12.39
561.223	12.29
561.419	12.38
561.615	12.35
561.811	12.21
562.007	12.28
562.203	12.53
562.399	12.4
562.595	12.09
562.791	12.16
562.987	12.41
563.183	12.29
563.379	12.69
563.575	12.71
563.771	12.95
563.966	13.28
564.162	13.29
564.358	13.75
564.554	14.34
564.75	14.26
564.945	14.44
565.141	14.02
565.337	14.15
565.533	14.1
565.728	14.05
565.924	14.05
566.12	13.93
566.315	13.59
566.511	13.22
566.707	13.07
566.902	13.3
567.098	13.4
567.293	13.83
567.489	13.44
567.684	13.67
567.88	13.78
568.076	14.05
568.271	14.09
568.467	14.55
568.662	14.91
568.858	15.2
569.053	15.03
569.248	15.31
569.444	15.21
569.639	15.81
569.835	15.47
570.03	15.62
570.225	15.32
570.421	15.51
570.616	15.6
570.812	15.64
571.007	15.31
571.202	15.31
571.397	15.36
571.593	15.68
571.788	15.45
571.983	15.68
572.178	15.66
572.374	15.87
572.569	15.92
572.764	16.18
572.959	16.04
573.154	16.25
573.35	16.72
573.545	16.63
573.74	16.21
573.935	16.65
574.13	16.58
574.325	16.62
574.52	16.54
574.715	16.69
574.91	16.31
575.105	16.6
575.3	17
575.495	16.79
575.69	16.86
575.885	17.38
576.08	17.28
576.275	17.53
576.47	17.85
576.665	18.34
576.86	18.29
577.055	18.57
577.25	18.28
577.444	17.9
577.639	18.02
577.834	18.19
578.029	18.21
578.224	18.32
578.418	18.45
578.613	18.15
578.808	18.23
579.003	18.5
579.197	18.81
579.392	19.42
579.587	19.27
579.781	19.56
579.976	19.45
580.171	18.98
580.365	18.51
580.56	18.61
580.755	18.92
580.949	18.62
581.144	18.54
581.338	18.22
581.533	17.88
581.727	18.16
581.922	17.95
582.116	18.08
582.311	18.36
582.505	18.9
582.7	18.72
582.894	18.71
583.089	18.72
583.283	18.95
583.478	19.3
583.672	19.25
583.866	19.32
584.061	19.14
584.255	19.22
584.449	19.1
584.644	18.47
584.838	18.63
585.032	18.96
585.226	19.04
585.421	19.11
585.615	19.23
585.809	19.44
586.003	19.26
586.198	19.66
586.392	19.84
586.586	20.22
586.78	21.05
586.974	20.89
587.168	20.11
587.363	19.96
587.557	20.04
587.751	19.95
587.945	20.18
588.139	20.44
588.333	20.66
588.527	20.52
588.721	20.31
588.915	20.27
589.109	20.12
589.303	20.74
589.497	21
589.691	20.82
589.885	20.19
590.079	19.78
590.273	19.43
590.466	19.27
590.66	19.39
590.854	19.6
591.048	19.4
591.242	19.6
591.436	19.62
591.629	19.38
591.823	19.08
592.017	19.7
592.211	20.43
592.404	20.86
592.598	20.63
592.792	20.35
592.986	20.88
593.179	20.9
593.373	20.92
593.567	20.67
593.76	20.88
593.954	21
594.147	20.81
594.341	20.33
594.535	20.74
594.728	20.89
594.922	21.08
595.115	20.42
595.309	20.34
595.502	20.49
595.696	20.63
595.889	20.99
596.083	21.07
596.276	21.15
596.47	21.37
596.663	21.04
596.856	20.94
597.05	21.11
597.243	21.45
597.437	22.06
597.63	22.01
597.823	22.08
598.017	21.56
598.21	21.29
598.403	21.72
598.596	21.56
598.79	21.29
598.983	21.12
599.176	20.81
599.369	20.64
599.563	19.85
599.756	20.3
599.949	20.19
600.142	20.29
600.335	20.4
600.528	20.44
600.722	20.56
600.915	20.81
601.108	20.93
601.301	20.96
601.494	21.16
601.687	21.62
601.88	21.2
602.073	21.51
602.266	21.47
602.459	21.61
602.652	21.49
602.845	21.38
603.038	21.61
603.231	21.92
603.424	22.08
603.617	22.1
603.809	21.95
604.002	22.18
604.195	22.14
604.388	22.21
604.581	22.62
604.774	22.7
604.966	22.63
605.159	22.59
605.352	22.54
605.545	22.79
605.737	22.17
605.93	22.38
606.123	22.4
606.316	22.23
606.508	22.52
606.701	22.3
606.894	22.22
607.086	22.43
607.279	22.6
607.471	22.89
607.664	22.87
607.857	23.34
608.049	23.24
608.242	23.22
608.434	23.49
608.627	23.22
608.819	23.25
609.012	23.1
609.204	22.7
609.397	22.41
609.589	22.27
609.782	22.04
609.974	21.93
610.166	21.67
610.359	21.09
610.551	20.87
610.743	21.12
610.936	20.88
611.128	20.79
611.32	21.18
611.513	21.2
611.705	21.28
611.897	21.32
612.09	21.72
612.282	21.85
612.474	22.21
612.666	22.05
612.858	21.9
613.051	21.96
613.243	22.17
613.435	22.45
613.627	22.74
613.819	22.52
614.011	23.12
614.203	23.34
614.395	23.86
614.588	23.86
614.78	24.81
614.972	24.87
615.164	24.89
615.356	25.14
615.548	25.15
615.74	25.16
615.932	25.46
616.124	25.09
616.315	24.85
616.507	25.12
616.699	25.39
616.891	24.77
617.083	24.68
617.275	24.83
617.467	24.37
617.659	24.42
617.85	24.44
618.042	23.98
618.234	24.25
618.426	24.03
618.618	23.02
618.809	22.72
619.001	22.42
619.193	22.53
619.384	22.8
619.576	23
619.768	22.93
619.959	22.76
620.151	22.79
620.343	23.01
620.534	23.49
620.726	23.54
620.917	23.23
621.109	23.66
621.301	24.34
621.492	23.85
621.684	24.29
621.875	24.23
622.067	24.4
622.258	24.41
622.45	23.86
622.641	23.62
622.832	23.38
623.024	23.98
623.215	23.39
623.407	22.65
623.598	23.62
623.789	22.95
623.981	23.31
624.172	22.6
624.363	22.7
624.555	22.74
624.746	22.61
624.937	23.18
625.129	23.16
625.32	23.55
625.511	23.64
625.702	22.94
625.893	23.38
626.085	23.14
626.276	23.91
626.467	24.22
626.658	24.55
626.849	24.59
627.04	24.81
627.231	24.61
627.422	24.75
627.614	24.95
627.805	24.76
627.996	24.77
628.187	24.68
628.378	24.81
628.569	25.11
628.76	25.26
628.951	25.62
629.142	25.49
629.332	25.71
629.523	25.49
629.714	25.64
629.905	25.87
630.096	25.65
630.287	26.22
630.478	25.97
630.669	25.99
630.859	25.78
631.05	25.64
631.241	25.82
631.432	26.03
631.623	26.74
631.813	26.41
632.004	26.7
632.195	26.32
632.385	25.7
632.576	25.38
632.767	24.97
632.957	24.8
633.148	25.02
633.339	24.33
633.529	24.37
633.72	23.57
633.91	23.96
634.101	23.63
634.292	24.04
634.482	24.11
634.673	24.53
634.863	24.53
635.054	25.09
635.244	24.97
635.435	25.81
635.625	25.83
635.815	26.11
636.006	26.37
636.196	26.1
636.387	25.88
636.577	26.21
636.767	26.06
636.958	25.92
637.148	25.34
637.338	25.06
637.529	24.73
637.719	25.16
637.909	24.97
638.099	24.88
638.29	25.32
638.48	25.93
638.67	26.04
638.86	26.28
639.05	26.37
639.241	26.81
639.431	26.95
639.621	27.06
639.811	26.33
640.001	26.35
640.191	25.75
640.381	26.56
640.571	26.69
640.761	26.3
640.951	26.17
641.141	26.64
641.331	26.35
641.521	26.49
641.711	26.72
641.901	26.3
642.091	26.43
642.281	26.71
642.471	26.01
642.661	25.85
642.851	26.06
643.041	26.82
643.231	26.73
643.42	26.82
643.61	27.66
643.8	27.89
643.99	28.14
644.18	28.81
644.369	28.79
644.559	28.72
644.749	28.23
644.939	28.16
645.128	27.59
645.318	26.66
645.508	26.94
645.697	26.85
645.887	26.1
646.076	26.44
646.266	25.77
646.456	25.72
646.645	25.99
646.835	25.57
647.024	25.62
647.214	25.96
647.403	26.52
647.593	26.19
647.782	26.03
647.972	26.5
648.161	26.77
648.351	26.82
648.54	26.87
648.73	27.1
648.919	27.26
649.108	27.33
649.298	27.08
649.487	27.37
649.677	28.29
649.866	27.44
650.055	27.92
650.244	28.14
650.434	28.18
650.623	28.12
650.812	28.07
651.002	28.65
651.191	28.85
651.38	28.52
651.569	28.5
651.758	28.26
651.947	28.42
652.137	28.37
652.326	27.65
652.515	27.2
652.704	27.84
652.893	27.6
653.082	27.72
653.271	27.31
653.46	27.4
653.649	27.6
653.838	26.62
654.027	26.76
654.216	26.21
654.405	26.96
654.594	28.04
654.783	27.64
654.972	27.29
655.161	27.89
655.35	27.95
655.539	28.11
655.728	27.87
655.916	27.79
656.105	28.55
656.294	27.85
656.483	27.37
656.672	26.64
656.86	26.39
657.049	26.77
657.238	26.26
657.427	26.28
657.615	26.37
657.804	26.58
657.993	26.45
658.181	25.59
658.37	26.74
658.559	26.96
658.747	27.24
658.936	27.44
659.125	27.56
659.313	28.1
659.502	28.51
659.69	28.59
659.879	28.37
660.067	28.98
660.256	29.05
660.444	28.92
660.633	28.79
660.821	28.64
661.01	28.48
661.198	28.27
661.387	27.45
661.575	26.48
661.763	26.5
661.952	26.72
662.14	27.24
662.328	27.94
662.517	27.46
662.705	27.39
662.893	27.58
663.082	27.93
663.27	27.92
663.458	28.45
663.646	29.48
663.834	29.77
664.023	29.71
664.211	28.97
664.399	28.14
664.587	27.85
664.775	27.85
664.963	28.58
665.152	27.82
665.34	27.59
665.528	27.23
665.716	26.91
665.904	26.51
666.092	26.15
666.28	26.64
666.468	27.54
666.656	28.21
666.844	28.3
667.032	27.51
667.22	27.91
667.408	27.66
667.596	27.03
667.784	28.39
667.971	28.44
668.159	29
668.347	27.95
668.535	27.4
668.723	26.94
668.911	27
669.098	27.64
669.286	27.85
669.474	28.67
669.662	29.31
669.849	28.57
670.037	28.44
670.225	28.35
670.413	28.63
670.6	28.83
670.788	28.78
670.976	29.57
671.163	29.02
671.351	29.19
671.538	29.59
671.726	29.81
671.913	28.84
672.101	28.04
672.289	28.72
672.476	28.86
672.664	29.18
672.851	29.46
673.039	28.77
673.226	28.26
673.413	28.6
673.601	27.72
673.788	27.88
673.976	29
674.163	29.62
674.35	28.58
674.538	29.66
674.725	30.28
674.912	30.63
675.1	30.45
675.287	31.08
675.474	30.84
675.662	30.73
675.849	30.82
676.036	29.32
676.223	30.28
676.411	30.85
676.598	29.95
676.785	29.97
676.972	29.61
677.159	29.92
677.346	30.4
677.533	30.22
677.721	30.52
677.908	30.45
678.095	31.59
678.282	30.64
678.469	29.82
678.656	29.56
678.843	29.46
679.03	29.13
679.217	28.57
679.404	28.32
679.591	27.84
679.778	28.2
679.964	27.89
680.151	27.79
680.338	27.94
680.525	28.26
680.712	29.08
680.899	28.37
681.086	28.34
681.272	28.68
681.459	28.41
681.646	28.79
681.833	28.33
682.02	28.58
682.206	28.95
682.393	29.54
682.58	29.66
682.766	28.2
682.953	28.7
683.14	29.49
683.326	30.1
683.513	30.78
683.7	30.54
683.886	30.87
684.073	31.06
684.259	30.5
684.446	30.22
684.632	30.3
684.819	30.83
685.005	30.39
685.192	29.85
685.378	30.08
685.565	29.36
685.751	29.65
685.938	29.54
686.124	28.57
686.31	28.14
686.497	28.58
686.683	29.08
686.87	30.19
687.056	30.15
687.242	30.8
687.429	29.59
687.615	29.07
687.801	28.72
687.987	29.53
688.174	30.3
688.36	30.87
688.546	30.24
688.732	30.08
688.918	29.79
689.105	29.54
689.291	28.52
689.477	29.39
689.663	30.27
689.849	31.88
690.035	31.97
690.221	31.27
690.407	32.07
690.593	32.25
690.779	31.67
690.965	30.86
691.151	31.44
691.337	32.77
691.523	32.09
691.709	31.75
691.895	30.41
692.081	30.77
692.267	31.89
692.453	31.82
692.639	31.7
692.825	32.39
693.011	33.33
693.196	34.01
693.382	33.38
693.568	33.53
693.754	33.36
693.94	33.7
694.125	32.07
694.311	31
694.497	30.46
694.682	30.85
694.868	30.65
695.054	30.88
695.239	29.87
695.425	29.77
695.611	29.43
695.796	30.47
695.982	30.53
696.168	30.42
696.353	31.32
696.539	31.16
696.724	31.11
696.91	30.97
697.095	30.24
697.281	30.45
697.466	31.14
697.652	31.24
697.837	30.62
698.023	30.58
698.208	30.31
698.393	29.95
698.579	29.71
698.764	29.87
698.949	29.37
699.135	29.31
699.32	29.26
699.505	28.66
699.691	28.68
699.876	28.24
700.061	27.75
700.246	28.52
700.432	28.2
700.617	28.92
700.802	27.46
700.987	29.01
701.172	30.46
701.358	31.72
701.543	31.61
701.728	32.36
701.913	33.51
702.098	33.58
702.283	32.54
702.468	32.67
702.653	31.32
702.838	33.62
703.023	33.01
703.208	30.73
703.393	30.55
703.578	31.71
703.763	31.3
703.948	32.76
704.133	33.47
704.318	35.53
704.503	35.43
704.688	36.22
704.873	34.68
705.057	35.22
705.242	36.44
705.427	35.44
705.612	34.46
705.797	35.11
705.981	32.76
706.166	32.81
706.351	30.75
706.536	32.24
706.72	32.5
706.905	32.93
707.09	32.51
707.274	32.31
707.459	32.43
707.644	31.74
707.828	32.37
708.013	32.57
708.197	32.51
708.382	33.53
708.567	33.52
708.751	32.56
708.936	33.41
709.12	32.92
709.305	32
709.489	32.39
709.673	33.19
709.858	32.05
710.042	32.83
710.227	32.7
710.411	33.38
710.596	32.89
710.78	33.77
710.964	32.84
711.149	32.39
711.333	33.67
711.517	33.48
711.702	33.75
711.886	33.97
712.07	33.74
712.254	34.2
712.438	32.76
712.623	33.26
712.807	33.19
712.991	33.48
713.175	34.34
713.359	34.63
713.544	34.34
713.728	33.44
713.912	34.09
714.096	34.21
714.28	33.63
714.464	33.83
714.648	32.46
714.832	32.93
715.016	32.16
715.2	32.08
715.384	31.44
715.568	30.15
715.752	31.21
715.936	30.03
716.12	29.54
716.304	28.77
716.488	28.15
716.671	28.89
716.855	28.24
717.039	29.08
717.223	28.54
717.407	29.19
717.59	30.44
717.774	30.5
717.958	30.95
718.142	32.48
718.325	34.22
718.509	35.37
718.693	35.71
718.877	35.77
719.06	36.79
719.244	36.33
719.428	36.21
719.611	37.41
719.795	37.94
719.978	38.98
720.162	37.66
720.345	38.17
720.529	38.68
720.713	39.25
720.896	39.82
721.08	38.65
721.263	40.11
721.446	40.22
721.63	39.38
721.813	36.69
721.997	36.56
722.18	37.82
722.364	38.5
722.547	39.2
722.73	39.06
722.914	38.65
723.097	39.36
723.28	40.55
723.464	41.61
723.647	42.27
723.83	44.96
724.013	44.39
724.197	43.94
724.38	42.02
724.563	40.74
724.746	41.2
724.929	41.69
725.112	41.41
725.296	40.05
725.479	38.18
725.662	36.77
725.845	35.06
726.028	35.74
726.211	35.18
726.394	35.31
726.577	36.56
726.76	35.58
726.943	35.28
727.126	34.05
727.309	34.3
727.492	35.72
727.675	36.92
727.858	38.89
728.041	37.82
728.224	37.22
728.407	37.27
728.589	36.86
728.772	36.21
728.955	35.63
729.138	36.63
729.321	35.98
729.503	35.55
729.686	34.01
729.869	34.01
730.052	33.91
730.234	34.11
730.417	33.65
730.6	33.48
730.782	34.1
730.965	34.95
731.148	35.02
731.33	35.66
731.513	35.54
731.695	36.51
731.878	35.38
732.061	35.2
732.243	34.08
732.426	34.35
732.608	34.63
732.791	34.5
732.973	33.78
733.156	34.11
733.338	34.32
733.52	34.07
733.703	35.5
733.885	34.61
734.068	34.71
734.25	35.98
734.432	37.49
734.615	36.82
734.797	37.15
734.979	37.4
735.162	37.79
735.344	38.09
735.526	39.66
735.708	38.32
735.891	37.98
736.073	41.19
736.255	42.54
736.437	40.26
736.619	40.62
736.802	41.61
736.984	41.31
737.166	38.94
737.348	37.93
737.53	37.35
737.712	37.43
737.894	36.19
738.076	32.85
738.258	32.14
738.44	33.45
738.622	32.51
738.804	32.47
738.986	32.81
739.168	34.36
739.35	33
739.532	32.26
739.714	32.91
739.896	34.58
740.078	35.91
740.259	36.1
740.441	35.55
740.623	36.47
740.805	35.87
740.987	35.72
741.168	35.77
741.35	37.12
741.532	37.09
741.714	36.32
741.895	38.97
742.077	36.56
742.259	35.71
742.44	35.22
742.622	37.2
742.804	37.69
742.985	36.64
743.167	37.07
743.348	38.73
743.53	39.18
743.711	39.94
743.893	37.5
744.075	40.23
744.256	40.22
744.438	40.2
744.619	38.95
744.8	37.86
744.982	41.71
745.163	43.93
745.345	41.6
745.526	42.65
745.707	42.64
745.889	43.86
746.07	44.85
746.252	44.77
746.433	44.66
746.614	44.66
746.795	43.44
746.977	41.66
747.158	40.37
747.339	40.16
747.52	38.54
747.702	38.45
747.883	37.98
748.064	37.5
748.245	38.53
748.426	39.12
748.607	38.01
748.788	41.23
748.97	40.71
749.151	40.94
749.332	42.27
749.513	43.12
749.694	42.35
749.875	43.62
750.056	42.41
750.237	43.5
750.418	43.99
750.599	46
750.78	44.72
750.96	45.62
751.141	43.25
751.322	43.61
751.503	42.95
751.684	44.32
751.865	42.2
752.046	42.74
752.226	41.89
752.407	42.2
752.588	40.17
752.769	39.1
752.949	38.48
753.13	39.74
753.311	39.73
753.492	39.44
753.672	39.59
753.853	40.45
754.034	38.95
754.214	35.84
754.395	35.54
754.575	36.69
754.756	38.82
754.937	39.03
755.117	38.7
755.298	38.14
755.478	38.91
755.659	38.59
755.839	37.29
756.02	38.65
756.2	43.09
756.381	42.6
756.561	41.93
756.741	40.74
756.922	40.96
757.102	44.41
757.283	45.8
757.463	43.07
757.643	42.73
757.823	44.5
758.004	43.93
758.184	42.11
758.364	40.45
758.545	39.79
758.725	40.17
758.905	40.31
759.085	36.44
759.265	34.3
759.446	35
759.626	34.11
759.806	32.44
759.986	32.43
760.166	32.27
760.346	33.72
760.526	32.4
760.706	32.23
760.886	30.54
761.066	30.94
761.246	30.87
761.426	31.57
761.606	30.09
761.786	28.73
761.966	30.14
762.146	30.69
762.326	30.88
762.506	32.09
762.686	32.41
762.866	33.52
763.046	33.87
763.225	32.51
763.405	31.67
763.585	33.25
763.765	34.58
763.945	33.79
764.124	34.41
764.304	35.66
764.484	35.26
764.664	34.93
764.843	35.54
765.023	36.03
765.203	36.47
765.382	37.77
765.562	39.04
765.741	39.07
765.921	40.46
766.101	40.22
766.28	37.84
766.46	37.84
766.639	36.66
766.819	37.43
766.998	36.37
767.178	36.99
767.357	36.28
767.537	36.44
767.716	34.61
767.896	33.3
768.075	32.71
768.254	33.33
768.434	34.71
768.613	38.64
768.792	37.47
768.972	37.78
769.151	41.02
769.33	40.99
769.51	40.47
769.689	45.8
769.868	44.42
770.047	43.83
770.226	42.4
770.406	43.49
770.585	41.27
770.764	39.11
770.943	38.7
771.122	37.66
771.301	40.9
771.48	41
771.66	39.25
771.839	43.54
772.018	44.77
772.197	48.88
772.376	49.56
772.555	54.26
772.734	56.09
772.913	58.47
773.092	57.62
773.271	57.15
773.449	55.29
773.628	54.41
773.807	52.68
773.986	51.59
774.165	51.62
774.344	49.11
774.523	43.97
774.701	40.93
774.88	39.51
775.059	39.69
775.238	40.84
775.417	40.99
775.595	40.59
775.774	41.33
775.953	39.3
776.131	38.23
776.31	41.04
776.489	40.25
776.667	41.57
776.846	41
777.025	41.46
777.203	38.24
777.382	40.6
777.56	37.29
777.739	36.67
777.917	39.17
778.096	40.29
778.274	38.21
778.453	39.2
778.631	39.02
778.81	39.17
778.988	38.59
779.166	37.07
779.345	38.75
779.523	43.4
779.702	43.72
779.88	46.76
780.058	46.04
780.237	47.21
780.415	48.17
780.593	49.71
780.771	51.75
780.95	52.22
781.128	55.17
781.306	49.6
781.484	48.54
781.662	48.88
781.841	48.88
782.019	48.06
782.197	46.7
782.375	41.16
782.553	40.52
782.731	40.89
782.909	42.9
783.087	41.87
783.265	43.63
783.443	43.74
783.621	43.6
783.799	40.04
783.977	39.25
784.155	43.13
784.333	47.26
784.511	43.63
784.689	42.91
784.867	42.1
785.045	45.64
785.223	45.44
785.4	47.24
785.578	43.3
785.756	44.49
785.934	48.48
786.112	48.25
786.289	48.94
786.467	51.65
786.645	52.06
786.823	48.57
787	48.42
787.178	49.83
787.356	44.26
787.533	45.11
787.711	44.48
787.889	41.79
788.066	37.02
788.244	36.34
788.421	40.61
788.599	39.48
788.776	44.13
788.954	44.6
789.131	42.61
789.309	44.56
789.486	49.7
789.664	48.53
789.841	49.42
790.019	53.01
790.196	54.83
790.373	51.46
790.551	46.87
790.728	45.68
790.906	46.02
791.083	51.63
791.26	53.03
791.437	49.54
791.615	54.87
791.792	52.9
791.969	50.39
792.146	52.56
792.324	50.87
792.501	54.29
792.678	49.55
792.855	43
793.032	43.33
793.209	43.39
793.387	39.52
793.564	36.75
793.741	37.33
793.918	40.58
794.095	36.49
794.272	40.96
794.449	41.55
794.626	48.75
794.803	51.09
794.98	44.44
795.157	44.46
795.334	46.93
795.511	43.36
795.688	42.8
795.864	43.42
796.041	42.23
796.218	40.53
796.395	36.69
796.572	34.31
796.749	35.34
796.925	38.66
797.102	38.9
797.279	39.17
797.456	44.07
797.632	45.4
797.809	45.28
797.986	49.52
798.162	45.47
798.339	50.22
798.516	52.89
798.692	50.48
798.869	51.41
799.046	54.58
799.222	53.58
799.399	50.26
799.575	47.32
799.752	45.03
799.928	45.16
800.105	50.96
800.281	52.01
800.458	49.03
800.634	50.61
800.811	50.6
800.987	50.15
801.163	49.54
801.34	49.68
801.516	51.64
801.692	49.99
801.869	50.38
802.045	45.69
802.221	40.84
802.398	43.87
802.574	44.08
802.75	41.1
802.926	40.18
803.103	45.15
803.279	44.02
803.455	40.87
803.631	48.83
803.807	47.03
803.983	49.66
804.16	53.96
804.336	51.28
804.512	47.55
804.688	52.34
804.864	50.68
805.04	49.98
805.216	52.13
805.392	58.38
805.568	55.29
805.744	51.73
805.92	45.04
806.096	45.52
806.272	50.43
806.448	56.6
806.623	58.89
806.799	62.1
806.975	54.43
807.151	55.84
807.327	55.3
807.503	52.63
807.678	58.31
807.854	65.46
808.03	65.87
808.206	61.96
808.381	64.01
808.557	57.72
808.733	59.28
808.908	65.27
809.084	62.44
809.26	61.22
809.435	65.18
809.611	63.3
809.787	58.85
809.962	65.69
810.138	68.03
810.313	62.87
810.489	63.09
810.664	58.14
810.84	53.78
811.015	51.79
811.191	55.43
811.366	54.49
811.542	56.63
811.717	55.61
811.892	45.69
812.068	43.71
812.243	45.29
812.419	48.63
812.594	45.38
812.769	47.24
812.944	48.85
813.12	44.34
813.295	40.23
813.47	36.45
813.645	41.14
813.821	49.96
813.996	50.9
814.171	55.28
814.346	58.29
814.521	63.17
814.697	61.85
814.872	57.76
815.047	60.67
815.222	64
815.397	69.07
815.572	68.39
815.747	67.37
815.922	62.5
816.097	54.15
816.272	48.17
816.447	46.88
816.622	44.99
816.797	47.97
816.972	45.87
817.147	41.5
817.322	33.88
817.496	37.23
817.671	31.28
817.846	36.71
818.021	38.4
818.196	37.66
818.371	35.18
818.545	35.71
818.72	35.4
818.895	34.99
819.069	37.59
819.244	41.08
819.419	36.83
819.594	32.84
819.768	29.54
819.943	29.8
820.117	29.67
820.292	29.94
820.467	30.7
820.641	32.49
820.816	31.63
820.99	31.51
821.165	31.01
821.339	30.68
821.514	31.56
821.688	30.62
821.863	29.68
822.037	29.99
822.212	29.91
822.386	29.9
822.56	29.09
822.735	28.84
822.909	28.17
823.084	26.8
823.258	26.97
823.432	27.07
823.606	27.39
823.781	28.05
823.955	28.59
824.129	28.35
824.303	28.34
824.478	28.75
824.652	29.29
824.826	30.42
825	32.2
825.174	31.38
825.348	29.91
825.523	30.13
825.697	29.87
825.871	27.91
826.045	29.55
826.219	27.94
826.393	27.06
826.567	28.27
826.741	28.35
826.915	28.3
827.089	28.13
827.263	30.53
827.437	29.99
827.611	32.87
827.784	35.1
827.958	35.55
828.132	37.56
828.306	37.58
828.48	38.3
828.654	37.53
828.827	37.37
829.001	38.65
829.175	39.67
829.349	40.43
829.522	39.8
829.696	36.03
829.87	33.4
830.044	34.52
830.217	37.48
830.391	38.05
830.565	39.46
830.738	44.17
830.912	45.45
831.085	40.39
831.259	44.42
831.432	43.26
831.606	49.57
831.779	51.72
831.953	50.45
832.126	48.7
832.3	47.46
832.473	43.94
832.647	39.88
832.82	39.49
832.994	40.14
833.167	36.11
833.34	35.99
833.514	33.99
833.687	31.43
833.86	29.36
834.034	31.63
834.207	30.3
834.38	32.19
834.553	33.7
834.727	32.15
834.9	33.25
835.073	33.81
835.246	31.67
835.419	31.3
835.593	35.15
835.766	37.64
835.939	34.22
836.112	36.96
836.285	34.24
836.458	35.48
836.631	37.24
836.804	38.94
836.977	40.83
837.15	43.07
837.323	47.2
837.496	51.99
837.669	50
837.842	53.54
838.015	50.18
838.188	47.8
838.361	47.96
838.533	50.07
838.706	44.5
838.879	46.42
839.052	49.42
839.225	50.5
839.398	41.79
839.57	47.91
839.743	44.02
839.916	43.79
840.088	47.1
840.261	51.85
840.434	52.74
840.607	56.78
840.779	57.45
840.952	54.86
841.124	45.04
841.297	53.85
841.47	53.39
841.642	49.77
841.815	53.99
841.987	54.12
842.16	39.57
842.332	52.62
842.505	58.3
842.677	57.71
842.85	67.15
843.022	77.54
843.194	73.79
843.367	74.58
843.539	70.7
843.712	51.17
843.884	59.63
844.056	76.5
844.229	68.32
844.401	69.54
844.573	70.64
844.745	60.58
844.918	75.45
845.09	65.26
845.262	62.39
845.434	71.47
845.606	86.75
845.779	77.9
845.951	79.94
846.123	66.26
846.295	61.53
846.467	62.46
846.639	65.09
846.811	52.53
846.983	55.92
847.155	57.54
847.327	64.42
847.499	65.95
847.671	83.99
847.843	66.93
848.015	93.82
848.187	95.42
848.359	116.51
848.531	140.08
848.703	128.57
848.875	171.86
849.047	152.97
849.218	183.1
849.39	165.67
849.562	128.81
849.734	135.52
849.905	120.66
850.077	126.57
850.249	140.38
850.421	118.2
850.592	117.54
850.764	97.78
850.936	125.56
851.107	136.93
851.279	144.83
851.451	129.62
851.622	97.05
851.794	74.69
851.965	65.25
852.137	53.67
852.308	58.02
852.48	61.84
852.651	59.32
852.823	69.61
852.994	66.64
853.166	66.26
853.337	72.5
853.509	100.26
853.68	124.56
853.851	129.35
854.023	162.5
854.194	140.92
854.365	150.86
854.537	144.85
854.708	195.45
854.879	283.59
855.05	273.27
855.222	238.34
855.393	103.24
855.564	128.42
855.735	139.03
855.906	115.26
856.078	126.07
856.249	141
856.42	143.41
856.591	128
856.762	124.22
856.933	147.67
857.104	157.26
857.275	160.2
857.446	94.71
857.617	102.83
857.788	109.45
857.959	103.09
858.13	78.8
858.301	80.93
858.472	77.65
858.643	81.67
858.814	82.09
858.985	92.55
859.155	108.32
859.326	146.95
859.497	145.35
859.668	100.66
859.839	148.89
860.009	146.45
860.18	109.79
860.351	78.02
860.522	72.26
860.692	55.18
860.863	31.84
861.034	30.11
861.204	23.87
861.375	3.18
861.546	10.98
861.716	0.85
861.887	-9.52
862.057	-25.45
862.228	-16.71
862.398	-3.34
862.569	24.61
862.739	37.26
862.91	45.86
863.08	48.57
863.251	41.5
863.421	36.69
863.592	66.61
863.762	80.63
863.932	74.46
864.103	78.89
864.273	57.41
864.443	52.04
864.614	40.81
864.784	45.33
864.954	63.64
865.125	81
865.295	87.09
865.465	90.25
865.635	91.98
865.805	104.65
865.976	110.94
866.146	133.82
866.316	157.48
866.486	251.72
866.656	154.64
866.826	174.18
866.996	155.89
867.166	152.11
867.336	120.61
867.506	100.7
867.676	90.49
867.846	86.98
868.016	86.96
868.186	79.42
868.356	78.11
868.526	88.85
868.696	80
868.866	86.62
869.036	95.38
869.206	116.48
869.376	123.61
869.545	129.34
869.715	147.85
869.885	157.58
870.055	162.91
870.224	142.41
870.394	205.29
870.564	162.95
870.734	164.73
870.903	119.43
871.073	103.23
871.243	113.78
871.412	109.57
871.582	70.7
871.751	58.7
871.921	54.04
872.091	76.09
872.26	65.82
872.43	55.21
872.599	66.86
872.769	86.24
872.938	92.75
873.108	95.21
873.277	83.79
873.446	129.92
873.616	134.41
873.785	137.29
873.955	151.26
874.124	124.55
874.293	290.77
874.463	296.41
874.632	268.94
874.801	189.08
874.971	92.09
875.14	114.11
875.309	79.8
875.478	68.15
875.647	60.08
875.817	65.26
875.986	80
876.155	64.44
876.324	63.28
876.493	73.68
876.662	85.82
876.831	81.88
877	77.13
877.17	66.9
877.339	68.15
877.508	81.64
877.677	96.64
877.846	86.07
878.015	89.19
878.184	79.15
878.352	77.91
878.521	70.45
878.69	71.62
878.859	72.69
879.028	81.73
879.197	80.94
879.366	75.77
879.534	65.68
879.703	59.3
879.872	48.98
880.041	46.84
880.21	39.26
880.378	37.8
880.547	39.67
880.716	42.08
880.884	36.58
881.053	27.6
881.222	29.29
881.39	23.71
881.559	26.73
881.727	27.83
881.896	25.78
882.065	28.23
882.233	25.95
882.402	27
882.57	23.82
882.739	26.84
882.907	29.68
883.076	30.43
883.244	35.02
883.412	36.17
883.581	35.68
883.749	38.52
883.918	36.08
884.086	38.19
884.254	37.51
884.423	36.23
884.591	37.14
884.759	36.61
884.927	35.42
885.096	31.53
885.264	28.15
885.432	32.46
885.6	29.33
885.769	31.13
885.937	35.23
886.105	41.6
886.273	47.69
886.441	44.93
886.609	50.09
886.777	56.06
886.945	67.26
887.113	70.87
887.281	75.04
887.449	83.07
887.617	70.53
887.785	61.16
887.953	51.19
888.121	49.38
888.289	48.73
888.457	53.28
888.625	45.69
888.793	27.9
888.961	8.37
889.129	5.12
889.296	13.87
889.464	23.8
889.632	38.6
889.8	42.58
889.967	41.39
890.135	49.67
