Data from JASIL_3048_Reflection_02.txt Node
Date: Mon Nov 09 11:16:27 EST 2015
User: Geneva
Spectrometer: USB4E03002
Autoset integration time: false
Trigger mode: 4
Integration Time (sec): 1.000000E-1
Scans to average: 10
Electric dark correction enabled: false
Nonlinearity correction enabled: false
Boxcar width: 5
Stray light correction enabled: false
XAxis mode: Wavelengths
Stop averaging: false
Number of Pixels in Spectrum: 3648
>>>>>Begin Spectral Data<<<<<
177.575	171.97
177.794	1244.44
178.014	-8700
178.233	-130.19
178.452	3.9
178.672	-329.41
178.891	52.78
179.11	-27.4
179.33	-234.38
179.549	1800
179.768	246.87
179.987	70.73
180.207	1200
180.426	-305.88
180.645	28.74
180.864	157.24
181.084	148.53
181.303	-20800
181.522	-159.62
181.741	-300
181.96	-127.78
182.179	-1
182.398	-1.22
182.618	-19.06
182.837	-28.75
183.056	-22.99
183.275	35.04
183.494	48.47
183.713	49.75
183.932	83.29
184.151	120.66
184.37	223.74
184.589	-276.27
184.808	-169.09
185.027	-207.87
185.246	-189.89
185.465	-404.67
185.684	614.71
185.903	551.52
186.122	223.57
186.341	310.15
186.56	217.27
186.779	213.66
186.998	186.89
187.216	151.13
187.435	216.36
187.654	187.94
187.873	153.52
188.092	188.67
188.311	192.31
188.53	283.03
188.748	192.82
188.967	148.11
189.186	131.63
189.405	84.48
189.623	22.1
189.842	-1.82
190.061	3.37
190.28	-38.67
190.498	-31.15
190.717	-54.96
190.936	-34.33
191.154	-44.89
191.373	1033.33
191.592	1200
191.81	475
192.029	532.69
192.248	-485.71
192.466	-834.15
192.685	1079.55
192.904	-1031.58
193.122	-547.27
193.341	-381.36
193.559	878.95
193.778	161.84
193.996	4020
194.215	-77.24
194.433	-633.33
194.652	-157.14
194.87	-115.66
195.089	-51.72
195.307	-143.55
195.526	271.43
195.744	68.18
195.963	-3050
196.181	-265.82
196.399	-92.95
196.618	-149.24
196.836	-12.43
197.055	19.81
197.273	0.99
197.491	39.91
197.71	64.32
197.928	101.79
198.146	76.54
198.365	157.71
198.583	278.1
198.801	277.59
199.019	143.63
199.238	92.83
199.456	30.67
199.674	-34.66
199.892	-88.84
200.111	-326.79
200.329	-7.98
200.547	-117.02
200.765	-85
200.983	190.91
201.202	27.08
201.42	262.26
201.638	34.38
201.856	-10.03
202.074	-28.68
202.292	-38.38
202.51	-127.18
202.728	-56.82
202.946	-85.86
203.165	-20.44
203.383	-123.33
203.601	-152.68
203.819	-142.14
204.037	5.94
204.255	14.64
204.473	-175.9
204.691	-65.85
204.909	-31.25
205.127	346.55
205.345	122.06
205.562	153.73
205.78	700
205.998	-1426.32
206.216	-724.39
206.434	-130.16
206.652	-167.23
206.87	-131.25
207.088	-83.33
207.306	-1091.67
207.523	-44.72
207.741	-11.43
207.959	-25.5
208.177	-46.82
208.395	-930.77
208.612	-9.6
208.83	142.25
209.048	62.93
209.266	102.38
209.483	-49.18
209.701	342.65
209.919	-114.09
210.136	-79.29
210.354	-270.89
210.572	-325.71
210.79	-264.04
211.007	150.41
211.225	-226.37
211.442	-92.55
211.66	6.51
211.878	26.06
212.095	24.77
212.313	13.7
212.53	53.21
212.748	91.18
212.966	140.57
213.183	-157.48
213.401	402.7
213.618	-74.26
213.836	-23.41
214.053	36.62
214.271	63.01
214.488	149.06
214.705	285.71
214.923	95.57
215.14	77.78
215.358	68.24
215.575	78.38
215.793	75.68
216.01	81.38
216.227	148.84
216.445	112.23
216.662	95.07
216.879	14.52
217.097	-12.35
217.314	59.2
217.531	-318
217.749	-240.74
217.966	-51.5
218.183	11.58
218.4	14.08
218.618	-7766.67
218.835	-0
219.052	-139.58
219.269	40.98
219.487	78.46
219.704	171.84
219.921	-76.79
220.138	319.28
220.355	-2637.5
220.572	-3033.33
220.79	-4.82
221.007	-2.99
221.224	59.12
221.441	120
221.658	262.32
221.875	63.93
222.092	108.23
222.309	31.47
222.526	-2088.89
222.743	-793.94
222.96	456.52
223.177	-2637.5
223.394	-2046.15
223.611	529.07
223.828	542.7
224.045	508.42
224.262	480
224.479	-652.83
224.696	2600
224.913	-70.06
225.13	-85.06
225.347	-31.4
225.564	0
225.781	-16.82
225.997	-5.35
226.214	-13.73
226.431	-4.15
226.648	-2.15
226.865	1.49
227.082	-5.73
227.298	0.77
227.515	2.52
227.732	1.36
227.949	2.73
228.165	6
228.382	4.79
228.599	1.68
228.816	1.31
229.032	-2.06
229.249	-2.77
229.466	9.47
229.682	-0.89
229.899	1.14
230.116	-4.61
230.332	-17.4
230.549	-44.44
230.765	-45.78
230.982	-19.67
231.199	-21.99
231.415	-20.13
231.632	-68.54
231.848	-59.42
232.065	-56.87
232.281	-79.74
232.498	-102.85
232.714	-84.9
232.931	-58.21
233.147	-57.82
233.364	-53.13
233.58	-62.21
233.797	-52.84
234.013	-55.47
234.23	-64.19
234.446	-55.2
234.662	-37.65
234.879	-25.52
235.095	-25.61
235.312	-9.42
235.528	-11.04
235.744	-16.62
235.961	-19.06
236.177	-23.37
236.393	-7.47
236.61	-8.23
236.826	4.75
237.042	1.92
237.258	19.31
237.475	26.77
237.691	9.72
237.907	-2.07
238.123	-4.21
238.339	2.62
238.556	7.9
238.772	6.45
238.988	12.74
239.204	2.29
239.42	4.45
239.636	-8.18
239.853	-12.01
240.069	-13.15
240.285	-2.7
240.501	-5.99
240.717	-9.8
240.933	-15.02
241.149	-18.82
241.365	-17.03
241.581	-17.56
241.797	-15.7
242.013	-16.83
242.229	-15.35
242.445	-2.71
242.661	-4.55
242.877	1.65
243.093	4.78
243.309	3.48
243.525	9.78
243.741	6.69
243.957	5.85
244.173	4.34
244.388	8.3
244.604	3.18
244.82	-1.07
245.036	-3.96
245.252	-5.23
245.468	-3.6
245.683	-1.85
245.899	-0.3
246.115	-0.7
246.331	1.66
246.547	0.8
246.762	1.29
246.978	2.91
247.194	1.78
247.409	-0.25
247.625	0.23
247.841	-3.05
248.057	-6.02
248.272	-13.33
248.488	-16.39
248.703	-21.4
248.919	-31.18
249.135	-43
249.35	-47.59
249.566	-48.31
249.782	-52.85
249.997	-41.84
250.213	-37.22
250.428	-28.42
250.644	-18.61
250.859	-18.01
251.075	-20.29
251.29	-17.94
251.506	-14.28
251.721	-12.75
251.937	-16.96
252.152	-11.39
252.368	-24.22
252.583	-27.02
252.798	-36.1
253.014	-31.25
253.229	-24.09
253.445	-23.11
253.66	-21.32
253.875	-15.33
254.091	-25.15
254.306	-27.93
254.521	-33.99
254.737	-21.28
254.952	-16.71
255.167	-13.32
255.383	-21.18
255.598	-25.7
255.813	-28.55
256.028	-26.83
256.244	-31.12
256.459	-20.95
256.674	-7.3
256.889	-1.78
257.104	-4.25
257.32	-5.15
257.535	-5.2
257.75	-5.74
257.965	-5.23
258.18	-0.78
258.395	0.47
258.61	3.96
258.826	3.3
259.041	3.01
259.256	1.24
259.471	1.84
259.686	2.53
259.901	5.22
260.116	4.65
260.331	4.24
260.546	-0.06
260.761	-1.39
260.976	-8.27
261.191	-9.8
261.406	-13.12
261.621	-9.96
261.836	-10.06
262.05	-9.37
262.265	-14.45
262.48	-10.65
262.695	-6.27
262.91	-7.6
263.125	-11.33
263.34	-9.34
263.555	-8.27
263.769	-9.04
263.984	-15.18
264.199	-19.52
264.414	-21.16
264.629	-24.25
264.843	-24.84
265.058	-23.99
265.273	-16.37
265.488	-11.69
265.702	-12.41
265.917	-11.25
266.132	-6.07
266.346	-3.04
266.561	1.1
266.776	1.74
266.99	5.26
267.205	3.6
267.42	3.13
267.634	-1.58
267.849	-6.65
268.063	-4.93
268.278	-6.62
268.492	-11.01
268.707	-11.26
268.922	-10
269.136	-11.39
269.351	-15.59
269.565	-11.29
269.78	-10.78
269.994	-9.49
270.209	-4.9
270.423	-4.3
270.637	-4.62
270.852	-7.28
271.066	-8.68
271.281	-7.51
271.495	-5.65
271.709	-2.14
271.924	-2.21
272.138	-1.79
272.353	-1.44
272.567	-3.38
272.781	-2.74
272.996	-2.46
273.21	1.04
273.424	4.1
273.638	0.97
273.853	-1.16
274.067	-3.57
274.281	-1.44
274.495	-1.12
274.71	-0.48
274.924	5.63
275.138	-0.73
275.352	1.59
275.566	2.01
275.781	-0.02
275.995	1.37
276.209	3.82
276.423	3.63
276.637	3.93
276.851	2.58
277.065	5.09
277.279	-2.66
277.493	6.56
277.707	5.21
277.921	-1.2
278.135	-1.64
278.349	-4.22
278.563	-3.76
278.777	-0.71
278.991	-5.21
279.205	-9.95
279.419	-14.95
279.633	-12.56
279.847	-20.55
280.061	-14.54
280.275	-10.28
280.489	-9.36
280.703	-6.23
280.917	-5.99
281.131	-5.59
281.344	-5.28
281.558	-3.37
281.772	-2.07
281.986	-0.26
282.2	5.72
282.414	0.73
282.627	0.77
282.841	-0.21
283.055	1.17
283.269	0.17
283.482	-1.21
283.696	-2.54
283.91	-0.34
284.123	-1.13
284.337	-2.1
284.551	-3.15
284.764	-1.77
284.978	-1.66
285.192	-1.6
285.405	-5.73
285.619	-4.26
285.833	-7.09
286.046	-5.84
286.26	-5.47
286.473	-5.4
286.687	-4.71
286.9	-7.48
287.114	-7.8
287.327	-7.58
287.541	-6.22
287.754	-4.21
287.968	-3.65
288.181	1.45
288.395	3.19
288.608	2.94
288.822	5.63
289.035	7.95
289.248	7.49
289.462	8.84
289.675	9.35
289.889	8.21
290.102	7.23
290.315	5.69
290.529	3.87
290.742	2.71
290.955	-0.16
291.169	-4.11
291.382	-7.32
291.595	-4.46
291.808	-2.96
292.022	-3.35
292.235	-4.25
292.448	-1.81
292.661	-0.8
292.875	-2.41
293.088	-2.94
293.301	-2.39
293.514	0.24
293.727	1.85
293.94	2.29
294.153	-3.53
294.367	-2.62
294.58	-1.26
294.793	-3.68
295.006	-3.63
295.219	-2.81
295.432	-2.44
295.645	-0.5
295.858	-0.94
296.071	-2.23
296.284	-1.7
296.497	-0.64
296.71	-3.51
296.923	-3.33
297.136	-2.47
297.349	-3.23
297.562	-4.98
297.775	-4.9
297.988	-4.95
298.201	-5.2
298.414	-4.74
298.626	-9.84
298.839	-9.12
299.052	-5.49
299.265	-5.79
299.478	-4.93
299.691	-6.03
299.903	-3.72
300.116	-1.8
300.329	-2.79
300.542	-2.83
300.755	-5.56
300.967	-2.9
301.18	-0.73
301.393	-3.35
301.605	-4.61
301.818	-3.17
302.031	-5.17
302.243	-2.5
302.456	-4.6
302.669	-3.17
302.881	-1.41
303.094	2.59
303.307	4.63
303.519	3.08
303.732	3.64
303.944	5.67
304.157	4.33
304.37	7.24
304.582	3.94
304.795	2.78
305.007	2.39
305.22	0.6
305.432	-1.86
305.645	-3.87
305.857	-7.5
306.069	-5.13
306.282	-7.37
306.494	-9.35
306.707	-10.32
306.919	-7.31
307.132	-7.61
307.344	-4.18
307.556	-4.42
307.769	-3.81
307.981	-2.38
308.193	1.57
308.406	-0.01
308.618	1.17
308.83	3.47
309.043	4.4
309.255	4.35
309.467	6.57
309.679	1.87
309.892	3.93
310.104	3.22
310.316	2.01
310.528	1.41
310.74	3.93
310.953	4.92
311.165	4.85
311.377	4.67
311.589	3.19
311.801	1.13
312.013	-0.02
312.225	-3.21
312.437	-2.94
312.649	-1.03
312.862	-4.13
313.074	-6.98
313.286	-6.07
313.498	-4.36
313.71	-3.28
313.922	-4.77
314.134	-5.88
314.346	-4.5
314.558	-6.1
314.77	-7.15
314.982	-10.2
315.193	-5.36
315.405	-6.37
315.617	-6.71
315.829	-6.75
316.041	-6.72
316.253	-3.15
316.465	-0.09
316.677	3.44
316.888	6.21
317.1	4.96
317.312	7.14
317.524	8.3
317.736	11.16
317.947	8.25
318.159	8.46
318.371	6.72
318.583	5.13
318.794	3.77
319.006	0.33
319.218	1.64
319.43	1.41
319.641	-2.83
319.853	-8.95
320.064	-11.7
320.276	-9.6
320.488	-13.87
320.699	-13.54
320.911	-13.56
321.123	-9.58
321.334	-9.33
321.546	-9.9
321.757	-8.09
321.969	-5.02
322.18	-5.14
322.392	-4.19
322.603	-4.6
322.815	-2.14
323.026	-1.01
323.238	-1.4
323.449	-1.72
323.661	1.41
323.872	2.84
324.083	6.38
324.295	4.87
324.506	7.66
324.718	8.27
324.929	6.69
325.14	5.03
325.352	8.51
325.563	7.52
325.774	5.78
325.986	3
326.197	1.71
326.408	-2.13
326.62	-2.1
326.831	-1.18
327.042	-0.96
327.253	-0.26
327.464	0.69
327.676	-2.46
327.887	0.66
328.098	-2.09
328.309	-2.04
328.52	-5.34
328.732	-2.53
328.943	0.14
329.154	0.06
329.365	0.88
329.576	1.66
329.787	2.04
329.998	2.88
330.209	3.87
330.42	3.55
330.631	3.4
330.842	7.92
331.053	5.23
331.264	3.84
331.475	0.76
331.686	1.45
331.897	4.82
332.108	4.14
332.319	2.33
332.53	-1.32
332.741	2.41
332.952	4.16
333.163	4.42
333.374	4.28
333.585	5.79
333.795	6.78
334.006	4.81
334.217	1.71
334.428	4.13
334.639	2.58
334.849	5.31
335.06	6.45
335.271	3.27
335.482	-0.34
335.692	1.32
335.903	0.97
336.114	3.1
336.325	4.06
336.535	6.1
336.746	5.97
336.957	8.49
337.167	6.43
337.378	6.41
337.589	7.95
337.799	10.37
338.01	10.45
338.22	8.94
338.431	1.83
338.642	1.8
338.852	1.33
339.063	1.77
339.273	0.93
339.484	0.78
339.694	-2.31
339.905	-0.21
340.115	-0.46
340.326	-0.98
340.536	0.97
340.746	5.98
340.957	5.31
341.167	7.99
341.378	5.11
341.588	4.6
341.799	3.76
342.009	3.87
342.219	2.62
342.43	1.64
342.64	1.14
342.85	-0.18
343.061	-1.58
343.271	1.02
343.481	-1.23
343.691	0.16
343.902	0.83
344.112	3.51
344.322	5.93
344.532	4.2
344.743	4.23
344.953	2.83
345.163	2.16
345.373	3.8
345.583	0.96
345.793	-1.02
346.004	-2.34
346.214	-2.57
346.424	-5.91
346.634	-9.19
346.844	-4.82
347.054	-3.56
347.264	-0.28
347.474	2.72
347.684	0.65
347.894	3.62
348.104	4.43
348.314	2.38
348.524	2.93
348.734	6.03
348.944	8.72
349.154	7.25
349.364	4.13
349.574	2.6
349.784	2.93
349.994	4.54
350.204	0.88
350.413	-0.72
350.623	2.6
350.833	0.5
351.043	-2.11
351.253	-0.9
351.463	-1.59
351.672	2.39
351.882	3.55
352.092	0.56
352.302	-0.39
352.511	1.07
352.721	0.95
352.931	0.14
353.141	2.2
353.35	1.34
353.56	-0.98
353.77	0.07
353.979	-0.08
354.189	-1.15
354.399	-0.56
354.608	1.26
354.818	1.18
355.027	2.84
355.237	3.79
355.447	1.81
355.656	1.81
355.866	2.05
356.075	3.93
356.285	4.36
356.494	6.12
356.704	5.95
356.913	4.03
357.123	4.36
357.332	4.95
357.542	6.01
357.751	8.25
357.96	10.24
358.17	9.1
358.379	7.08
358.589	3.84
358.798	2.27
359.007	2.28
359.217	4.01
359.426	4.68
359.635	4.34
359.845	3.04
360.054	3.51
360.263	3.3
360.472	5.65
360.682	7.32
360.891	9.15
361.1	10.25
361.309	11.92
361.519	11.87
361.728	10.71
361.937	10.13
362.146	11.69
362.355	8.83
362.564	9.92
362.774	9.34
362.983	8.19
363.192	7.31
363.401	6.74
363.61	5.08
363.819	4.27
364.028	5.16
364.237	5.32
364.446	3.27
364.655	5.54
364.864	4.71
365.073	3.2
365.282	1.68
365.491	-0.06
365.7	-0.36
365.909	-0.84
366.118	-0.28
366.327	-2.39
366.536	-2.64
366.745	-1.2
366.954	-0.47
367.162	0.19
367.371	0.73
367.58	-0.19
367.789	1.8
367.998	0.84
368.207	1.42
368.415	1.61
368.624	4
368.833	4.92
369.042	4.68
369.25	4.81
369.459	2.73
369.668	3.76
369.877	5.04
370.085	5.25
370.294	5.67
370.503	6.38
370.711	6.46
370.92	4.98
371.129	7.03
371.337	6.28
371.546	5.12
371.754	6.86
371.963	5.22
372.171	4.63
372.38	6.62
372.589	6.76
372.797	6.42
373.006	6.72
373.214	7.62
373.423	6.08
373.631	7.48
373.84	7.28
374.048	6.32
374.256	7.75
374.465	8.82
374.673	6.83
374.882	8.02
375.09	7.3
375.298	7.01
375.507	7.61
375.715	9.16
375.923	7.49
376.132	7.31
376.34	8.36
376.548	6.94
376.757	7.99
376.965	7.91
377.173	6.47
377.381	6.86
377.59	6.87
377.798	7.04
378.006	3.04
378.214	3.79
378.423	4.95
378.631	3.05
378.839	2.74
379.047	-0.19
379.255	1.29
379.463	2.48
379.671	3.03
379.879	2.17
380.088	2.9
380.296	3.81
380.504	5
380.712	5.6
380.92	6.88
381.128	8.65
381.336	9.6
381.544	8
381.752	8.6
381.96	9.66
382.168	10.42
382.376	9.85
382.584	10.64
382.791	9.98
382.999	8.28
383.207	7.41
383.415	5.65
383.623	5.36
383.831	6.19
384.039	6.04
384.247	4.16
384.454	3.8
384.662	2.6
384.87	2.13
385.078	1.65
385.285	2.58
385.493	3.5
385.701	5.28
385.909	5.73
386.116	4.45
386.324	2.89
386.532	1.46
386.739	0.77
386.947	1.7
387.155	1.43
387.362	1.24
387.57	1.91
387.778	2.64
387.985	2.49
388.193	2.44
388.4	3.58
388.608	4.7
388.816	6.05
389.023	5.6
389.231	5.58
389.438	6.86
389.646	6.74
389.853	5.65
390.061	3.63
390.268	3
390.475	3.38
390.683	3.26
390.89	2.33
391.098	2.65
391.305	2.75
391.512	1.21
391.72	1.29
391.927	0.7
392.135	-0.15
392.342	0.93
392.549	1.55
392.756	1.19
392.964	0.71
393.171	1.35
393.378	-0.3
393.586	-0.4
393.793	2.31
394	1.45
394.207	0.97
394.414	1.83
394.622	1.99
394.829	1.56
395.036	0.91
395.243	1.42
395.45	1.09
395.657	2.4
395.864	1.96
396.072	1.64
396.279	0.67
396.486	1.2
396.693	2
396.9	1.22
397.107	1.43
397.314	0.83
397.521	1.01
397.728	1.7
397.935	1.38
398.142	2.72
398.349	2.1
398.556	3.13
398.763	4.06
398.97	4.48
399.177	4.39
399.383	2.3
399.59	3.19
399.797	2.05
400.004	0.73
400.211	1.82
400.418	1.38
400.625	2.51
400.831	3.54
401.038	3.74
401.245	3.22
401.452	3.12
401.658	4.53
401.865	4.88
402.072	6.02
402.279	7.46
402.485	7.25
402.692	7.32
402.899	5.21
403.105	3.99
403.312	3.3
403.519	3.32
403.725	4.33
403.932	4.78
404.138	5.3
404.345	5.68
404.552	4.7
404.758	4.41
404.965	5.1
405.171	5.78
405.378	5.11
405.584	5.53
405.791	5.08
405.997	5.18
406.204	4.6
406.41	4.82
406.617	3.74
406.823	4.38
407.029	5.06
407.236	5.08
407.442	5.63
407.649	6.69
407.855	6.56
408.061	6.93
408.268	6.33
408.474	6.82
408.68	6.84
408.887	6.17
409.093	6.4
409.299	6.23
409.505	5.81
409.712	5.84
409.918	4.75
410.124	4.63
410.33	4.65
410.537	4.66
410.743	4.85
410.949	4.14
411.155	5.32
411.361	4.62
411.567	4.42
411.773	4.16
411.98	2.81
412.186	4.16
412.392	4.86
412.598	4.4
412.804	4.3
413.01	3.72
413.216	3.45
413.422	2.58
413.628	3.28
413.834	4.03
414.04	3.79
414.246	3.7
414.452	3.94
414.658	2.92
414.864	2.81
415.07	3.46
415.275	3.33
415.481	3.33
415.687	3.25
415.893	2.41
416.099	1.93
416.305	2.71
416.511	3.02
416.716	2.69
416.922	3.46
417.128	3.45
417.334	3.58
417.539	4.21
417.745	3.88
417.951	4.15
418.157	4.4
418.362	4.37
418.568	4.57
418.774	4.56
418.979	4.81
419.185	3.84
419.391	3.68
419.596	3.25
419.802	3.23
420.008	4.09
420.213	0.39
420.419	0.8
420.624	0.96
420.83	0.41
421.035	1.13
421.241	0.86
421.446	1.68
421.652	1.81
421.857	2.02
422.063	1.42
422.268	1.39
422.474	5.13
422.679	4.51
422.885	4.1
423.09	3.87
423.295	3.49
423.501	3.48
423.706	3.45
423.911	3.78
424.117	3.71
424.322	4.23
424.527	4.32
424.733	4.47
424.938	4.49
425.143	5.41
425.349	5.7
425.554	5.29
425.759	4.86
425.964	5.11
426.169	5.16
426.375	6.1
426.58	6.1
426.785	5.36
426.99	5.2
427.195	5.39
427.4	3.94
427.605	3.44
427.811	3.38
428.016	3.5
428.221	3.31
428.426	3.72
428.631	2.63
428.836	2.74
429.041	3.18
429.246	2.92
429.451	3.15
429.656	3.24
429.861	4.79
430.066	5.49
430.271	6.41
430.476	6.43
430.681	5.76
430.886	5.4
431.09	5.26
431.295	5.48
431.5	5.93
431.705	5.74
431.91	5.84
432.115	4.91
432.32	4.84
432.524	3.75
432.729	3.12
432.934	2.46
433.139	2.8
433.343	2.53
433.548	1.56
433.753	1.67
433.958	1.55
434.162	2.55
434.367	3.06
434.572	3.19
434.776	3.77
434.981	3.86
435.186	5.27
435.39	5.8
435.595	6.32
435.799	7
436.004	6.86
436.209	6.91
436.413	6.61
436.618	6.66
436.822	6.79
437.027	6.56
437.231	6.33
437.436	5.31
437.64	4.75
437.845	4.5
438.049	4.16
438.253	3.71
438.458	3.81
438.662	2.94
438.867	2.04
439.071	1.42
439.275	1.59
439.48	2.16
439.684	1.98
439.888	1.75
440.093	1.93
440.297	2.4
440.501	2.95
440.706	2.54
440.91	2.95
441.114	3.24
441.318	3.68
441.523	3.18
441.727	2.56
441.931	2.96
442.135	3.37
442.339	2.99
442.543	2.59
442.748	2.35
442.952	2.88
443.156	3.25
443.36	3.31
443.564	3.15
443.768	3.73
443.972	4.14
444.176	4.36
444.38	4.31
444.584	4.68
444.788	4.22
444.992	4.48
445.196	4.89
445.4	4.57
445.604	4.9
445.808	4.67
446.012	4.47
446.216	4.37
446.42	4.52
446.624	4.42
446.828	3.99
447.032	4.78
447.235	4.49
447.439	3.68
447.643	3.99
447.847	3.92
448.051	3.65
448.254	4.03
448.458	4.04
448.662	3.56
448.866	3.73
449.069	4.3
449.273	3.85
449.477	3.93
449.681	4.56
449.884	4.27
450.088	3.4
450.292	3.97
450.495	3.41
450.699	3.13
450.902	3.22
451.106	3.31
451.31	3.07
451.513	3.68
451.717	3.54
451.92	2.27
452.124	2.12
452.327	2.91
452.531	2.77
452.734	3.53
452.938	4.28
453.141	3.89
453.345	3.74
453.548	3.42
453.752	2.99
453.955	3.12
454.158	4.07
454.362	4.39
454.565	4.94
454.769	5.68
454.972	5.62
455.175	5.64
455.379	6.39
455.582	6.84
455.785	7.26
455.988	7.1
456.192	7.69
456.395	8.03
456.598	7.84
456.801	7.1
457.005	7.15
457.208	7.05
457.411	6.4
457.614	6.05
457.817	5.35
458.021	5.23
458.224	5.61
458.427	5.11
458.63	4.86
458.833	4.89
459.036	4.91
459.239	4.62
459.442	4.71
459.645	5.03
459.848	4.98
460.051	5.04
460.254	4.74
460.457	4.15
460.66	4.54
460.863	4.83
461.066	5.34
461.269	6.07
461.472	5.65
461.675	5.21
461.878	5.21
462.081	5.24
462.284	5.95
462.486	6.23
462.689	7.16
462.892	6.94
463.095	5.95
463.298	5.02
463.5	4.53
463.703	5.75
463.906	6.13
464.109	5.84
464.311	5.54
464.514	5.26
464.717	5.67
464.92	5.23
465.122	5.19
465.325	5.94
465.528	6.29
465.73	5.66
465.933	4.81
466.135	4.44
466.338	3.88
466.541	3.69
466.743	3.93
466.946	3.6
467.148	3.86
467.351	4.12
467.553	3.88
467.756	3.47
467.958	3.66
468.161	4.13
468.363	3.61
468.566	4.36
468.768	5.1
468.971	4.23
469.173	3.5
469.375	3.02
469.578	2.48
469.78	2.37
469.983	3.14
470.185	2.35
470.387	2.71
470.59	3.56
470.792	2.86
470.994	2.19
471.196	2.97
471.399	3.56
471.601	3.75
471.803	4.19
472.005	4.44
472.208	3.9
472.41	4.51
472.612	4.07
472.814	3.43
473.016	4.72
473.218	5.13
473.421	4.12
473.623	4.01
473.825	3.73
474.027	3.12
474.229	3.73
474.431	3.13
474.633	4.05
474.835	3.67
475.037	4.47
475.239	3.95
475.441	3.52
475.643	4.01
475.845	4.07
476.047	4.28
476.249	4.64
476.451	4.53
476.653	5.33
476.855	4.63
477.057	4.88
477.258	4.45
477.46	4.79
477.662	5.59
477.864	6.21
478.066	6.49
478.268	6.55
478.469	6.96
478.671	6.67
478.873	6.52
479.075	7
479.276	6.73
479.478	6.73
479.68	6.62
479.882	5.91
480.083	5.09
480.285	5.19
480.487	4.65
480.688	4.3
480.89	4.11
481.091	3.94
481.293	3.89
481.495	3.99
481.696	4.13
481.898	4.08
482.099	4.35
482.301	4.5
482.502	4.51
482.704	4.7
482.905	4.6
483.107	4.66
483.308	4.95
483.51	5.03
483.711	5.03
483.913	5.12
484.114	5.06
484.315	5.01
484.517	5.06
484.718	5.05
484.92	4.95
485.121	5.11
485.322	5.26
485.524	4.66
485.725	4.28
485.926	4.43
486.127	4.29
486.329	4.39
486.53	4.55
486.731	4.72
486.932	4.71
487.134	4.84
487.335	4.77
487.536	4.69
487.737	5.04
487.938	5.21
488.139	5.27
488.341	5.51
488.542	5.72
488.743	5.7
488.944	5.55
489.145	5.61
489.346	5.38
489.547	5.46
489.748	5.26
489.949	5.35
490.15	5.34
490.351	5.19
490.552	4.95
490.753	4.82
490.954	4.56
491.155	4.6
491.356	4.34
491.557	4.78
491.758	4.96
491.959	5.34
492.159	5.27
492.36	5.43
492.561	5.38
492.762	5.67
492.963	5.18
493.164	5.78
493.364	5.33
493.565	5.6
493.766	5.2
493.967	5.15
494.167	5.03
494.368	5.44
494.569	5.89
494.769	6.15
494.97	5.66
495.171	6.12
495.371	6.23
495.572	6.38
495.773	6.37
495.973	6.28
496.174	6.5
496.375	6.13
496.575	5.51
496.776	5.23
496.976	5.25
497.177	5.15
497.377	5.67
497.578	5.49
497.778	5.36
497.979	5.83
498.179	5.9
498.38	5.58
498.58	6
498.78	6.26
498.981	6.1
499.181	5.88
499.382	6.75
499.582	6.35
499.782	6.26
499.983	6.41
500.183	5.63
500.383	5.26
500.584	4.54
500.784	4.25
500.984	4.67
501.184	4.68
501.385	4.58
501.585	4.63
501.785	4.52
501.985	4.15
502.185	4.49
502.386	5.1
502.586	5.2
502.786	5.87
502.986	5.95
503.186	5.43
503.386	5.32
503.586	5.5
503.786	5.21
503.987	5.25
504.187	5.11
504.387	5.3
504.587	5.09
504.787	5.17
504.987	5.52
505.187	5.9
505.387	6.39
505.587	6.79
505.786	6.99
505.986	6.67
506.186	6.24
506.386	6.27
506.586	6.39
506.786	6.39
506.986	6.2
507.186	5.52
507.386	5.17
507.585	4.87
507.785	4.76
507.985	4.52
508.185	4.63
508.384	4.73
508.584	4.99
508.784	4.76
508.984	4.84
509.183	5.35
509.383	5.7
509.583	5.59
509.782	5.63
509.982	5.63
510.182	5.62
510.381	5.32
510.581	6.05
510.781	6.03
510.98	6.04
511.18	6.06
511.379	5.97
511.579	5.98
511.778	6.5
511.978	6.96
512.177	6.89
512.377	7.11
512.576	7.71
512.776	7.56
512.975	8.2
513.175	8.31
513.374	8.6
513.573	8.97
513.773	8.62
513.972	8.69
514.172	8.3
514.371	8.1
514.57	7.84
514.77	8.03
514.969	8.04
515.168	7.73
515.367	7.87
515.567	7.88
515.766	7.6
515.965	7.97
516.164	7.77
516.364	8.01
516.563	8.38
516.762	8.84
516.961	8.87
517.16	8.65
517.359	8.82
517.559	9.09
517.758	9.4
517.957	9.53
518.156	9.59
518.355	9.85
518.554	9.64
518.753	9.81
518.952	10.08
519.151	9.99
519.35	10.43
519.549	10.21
519.748	10.28
519.947	9.89
520.146	9.98
520.345	9.91
520.544	9.91
520.743	10.25
520.942	10.37
521.141	10.16
521.339	10.5
521.538	10.08
521.737	9.99
521.936	9.39
522.135	9.32
522.333	9.08
522.532	9.34
522.731	9.55
522.93	9.34
523.129	9.05
523.327	9.2
523.526	8.89
523.725	8.9
523.923	9.32
524.122	9.85
524.321	9.83
524.519	10.36
524.718	10.6
524.917	10.4
525.115	10.85
525.314	11.13
525.512	11.21
525.711	11.63
525.909	11.81
526.108	11.65
526.306	11.52
526.505	11.72
526.703	11.82
526.902	11.65
527.1	11.76
527.299	11.54
527.497	11.45
527.696	11.39
527.894	11.44
528.092	11.49
528.291	11.5
528.489	11.77
528.688	11.69
528.886	11.56
529.084	11.47
529.283	11.28
529.481	11.51
529.679	11.86
529.877	11.84
530.076	11.71
530.274	11.88
530.472	12.31
530.67	12.11
530.869	12.33
531.067	12.06
531.265	12.29
531.463	12.37
531.661	12.43
531.859	12.16
532.057	12.15
532.255	12.13
532.454	12.07
532.652	11.97
532.85	11.89
533.048	11.79
533.246	12.27
533.444	12.56
533.642	12.82
533.84	12.91
534.038	12.95
534.236	13.14
534.434	13.14
534.632	13.28
534.83	13.37
535.027	13.69
535.225	13.78
535.423	13.72
535.621	13.58
535.819	13.34
536.017	13.25
536.215	12.98
536.412	13.19
536.61	13.09
536.808	13.13
537.006	13.14
537.203	12.77
537.401	12.9
537.599	13.33
537.797	13.35
537.994	13.53
538.192	13.51
538.39	13.98
538.587	13.79
538.785	14.21
538.983	14.16
539.18	14.12
539.378	14.3
539.575	14.41
539.773	14.14
539.97	14.28
540.168	14.47
540.366	14.61
540.563	14.45
540.761	14.27
540.958	14.09
541.155	14.34
541.353	14.37
541.55	14.79
541.748	14.79
541.945	14.85
542.143	14.66
542.34	14.75
542.537	14.96
542.735	15.54
542.932	15.84
543.129	16.23
543.327	16.05
543.524	16.26
543.721	16.05
543.919	15.89
544.116	15.64
544.313	15.87
544.51	16.13
544.708	15.93
544.905	15.81
545.102	16.01
545.299	15.67
545.496	15.9
545.693	15.95
545.891	15.9
546.088	16.14
546.285	16.58
546.482	16.94
546.679	16.85
546.876	17.27
547.073	17.75
547.27	17.7
547.467	17.99
547.664	17.89
547.861	17.83
548.058	17.93
548.255	17.97
548.452	17.9
548.649	17.97
548.846	17.71
549.043	18.22
549.24	18.39
549.437	18.73
549.633	18.82
549.83	18.67
550.027	18.89
550.224	19.05
550.421	19.23
550.618	19.19
550.814	19.05
551.011	18.66
551.208	17.55
551.405	16.95
551.601	16.94
551.798	17.17
551.995	17.71
552.191	17.94
552.388	17.76
552.585	17.99
552.781	17.84
552.978	17.64
553.175	18.48
553.371	19.19
553.568	19.7
553.764	19.43
553.961	19.19
554.157	19.89
554.354	20.44
554.55	20.71
554.747	19.99
554.943	19.72
555.14	19.18
555.336	19.18
555.533	18.76
555.729	18.38
555.926	19.43
556.122	19.48
556.318	18.73
556.515	18.11
556.711	17.72
556.907	18.24
557.104	18.74
557.3	20.36
557.496	20.45
557.693	20.34
557.889	20.09
558.085	19.37
558.281	20.06
558.478	19.04
558.674	18.62
558.87	18.8
559.066	19.3
559.262	19.2
559.459	18.71
559.655	18.75
559.851	19.16
560.047	19.81
560.243	20.46
560.439	20.04
560.635	21.02
560.831	21.03
561.027	21.3
561.223	20.64
561.419	21.08
561.615	20.6
561.811	20.35
562.007	20.57
562.203	19.75
562.399	20.09
562.595	20.63
562.791	20.98
562.987	21.89
563.183	21.85
563.379	21.98
563.575	21.63
563.771	21.58
563.966	21.8
564.162	21.84
564.358	22.13
564.554	21.42
564.75	21.1
564.945	20.9
565.141	19.8
565.337	19.9
565.533	19.92
565.728	19.54
565.924	19.63
566.12	19.09
566.315	19.29
566.511	19.29
566.707	19.04
566.902	18.38
567.098	18.23
567.293	19.4
567.489	18.44
567.684	18.71
567.88	19.72
568.076	19.71
568.271	19.95
568.467	19.16
568.662	19.57
568.858	19.51
569.053	19.63
569.248	19.87
569.444	19.44
569.639	20.57
569.835	20.4
570.03	20.28
570.225	20.66
570.421	20.5
570.616	20.65
570.812	20.58
571.007	20.93
571.202	20.93
571.397	20.34
571.593	20.13
571.788	19.57
571.983	19.43
572.178	19.13
572.374	19.08
572.569	19.2
572.764	19.55
572.959	19.35
573.154	20.1
573.35	20.66
573.545	21.05
573.74	21.38
573.935	21.25
574.13	21.32
574.325	21.03
574.52	21.23
574.715	21.19
574.91	21
575.105	20.59
575.3	19.83
575.495	19.56
575.69	19.09
575.885	18.69
576.08	19.33
576.275	19.82
576.47	19.89
576.665	19.3
576.86	19.93
577.055	20.22
577.25	20.94
577.444	21.36
577.639	21.76
577.834	22.17
578.029	22.42
578.224	22.26
578.418	21.81
578.613	21.9
578.808	22.09
579.003	21.67
579.197	21.14
579.392	21.08
579.587	20.98
579.781	20.18
579.976	20.85
580.171	20.77
580.365	20.81
580.56	20.75
580.755	21.44
580.949	21.59
581.144	21.27
581.338	21.88
581.533	22.5
581.727	22.26
581.922	22.45
582.116	21.65
582.311	21.29
582.505	20.63
582.7	20.94
582.894	21.17
583.089	20.66
583.283	21.34
583.478	21.34
583.672	19.71
583.866	19.25
584.061	20.5
584.255	20.21
584.449	21.52
584.644	22.36
584.838	22.83
585.032	22.5
585.226	22.77
585.421	22.85
585.615	21.58
585.809	22.21
586.003	21.79
586.198	21.27
586.392	22.44
586.586	21.66
586.78	20.23
586.974	19.87
587.168	20.05
587.363	20.51
587.557	20.28
587.751	20.9
587.945	19.94
588.139	20.66
588.333	20.69
588.527	19.74
588.721	19.91
588.915	20.56
589.109	19.54
589.303	19.47
589.497	19.37
589.691	19.73
589.885	20.15
590.079	21.77
590.273	21.86
590.466	21.3
590.66	21.73
590.854	21.74
591.048	21.97
591.242	22.93
591.436	22.88
591.629	21.95
591.823	21.23
592.017	21.12
592.211	20.79
592.404	20.69
592.598	21.06
592.792	20.26
592.986	20.38
593.179	20.98
593.373	20.59
593.567	20.43
593.76	21.69
593.954	22
594.147	21.52
594.341	21.1
594.535	21.11
594.728	21.31
594.922	21.54
595.115	21.47
595.309	21
595.502	21.11
595.696	20.9
595.889	20.17
596.083	19.6
596.276	20
596.47	20.82
596.663	20.97
596.856	20.76
597.05	21.66
597.243	22.52
597.437	22.22
597.63	22.65
597.823	23.3
598.017	23.21
598.21	23.75
598.403	23.22
598.596	23.06
598.79	22.69
598.983	23.09
599.176	23.33
599.369	21.89
599.563	21.8
599.756	21.91
599.949	21.44
600.142	22.07
600.335	22.24
600.528	22.68
600.722	22.57
600.915	22.72
601.108	21.99
601.301	21.11
601.494	20.86
601.687	21.41
601.88	20.99
602.073	21.34
602.266	21.36
602.459	21.6
602.652	21.31
602.845	21.18
603.038	21.02
603.231	21.58
603.424	21.88
603.617	22.23
603.809	22.17
604.002	22.04
604.195	22
604.388	22.1
604.581	21.78
604.774	22.45
604.966	22.57
605.159	22.95
605.352	23.07
605.545	23.42
605.737	23.16
605.93	22.99
606.123	23.64
606.316	23.94
606.508	23.37
606.701	23.32
606.894	22.89
607.086	23.02
607.279	22.52
607.471	22.18
607.664	21.85
607.857	22.05
608.049	22.57
608.242	22.68
608.434	22.67
608.627	22.69
608.819	23.3
609.012	22.71
609.204	22.23
609.397	23.08
609.589	23.42
609.782	23.77
609.974	23.64
610.166	24.57
610.359	24.53
610.551	24.09
610.743	24.49
610.936	23.98
611.128	24.67
611.32	25.29
611.513	25.25
611.705	24.66
611.897	23.82
612.09	25.03
612.282	23.78
612.474	23.28
612.666	23.8
612.858	24.62
613.051	24.08
613.243	24.53
613.435	24.4
613.627	23.86
613.819	25.03
614.011	24.69
614.203	23.73
614.395	23.67
614.588	24.58
614.78	24.62
614.972	24
615.164	24.73
615.356	24.83
615.548	24.82
615.74	24.22
615.932	22.89
616.124	23.56
616.315	23.81
616.507	24.12
616.699	22.18
616.891	21.57
617.083	22.51
617.275	22.7
617.467	22.97
617.659	23.58
617.85	25.14
618.042	26.25
618.234	26.94
618.426	26.95
618.618	26.33
618.809	27.22
619.001	27.18
619.193	25.7
619.384	25.28
619.576	24.65
619.768	24.21
619.959	23.22
620.151	23.29
620.343	22.27
620.534	23.04
620.726	22.77
620.917	23.59
621.109	24.16
621.301	23.46
621.492	24.17
621.684	24.77
621.875	24.96
622.067	24.54
622.258	24.09
622.45	24.68
622.641	23.83
622.832	24.47
623.024	23.79
623.215	23.44
623.407	24.39
623.598	23.67
623.789	23.68
623.981	22.24
624.172	22.96
624.363	23.4
624.555	22.65
624.746	22.99
624.937	23.22
625.129	22.92
625.32	22.67
625.511	23.45
625.702	24.16
625.893	23.12
626.085	24.33
626.276	23.89
626.467	23.41
626.658	24.07
626.849	23.72
627.04	24.2
627.231	24
627.422	24.9
627.614	24.31
627.805	22.92
627.996	23.72
628.187	23.46
628.378	23.23
628.569	23.29
628.76	23.39
628.951	23.19
629.142	23.22
629.332	23.98
629.523	23.85
629.714	24.39
629.905	26.18
630.096	26.29
630.287	25.78
630.478	26.12
630.669	26.35
630.859	26.38
631.05	26.34
631.241	25.6
631.432	26.4
631.623	26.07
631.813	26.11
632.004	24.93
632.195	23.34
632.385	24.06
632.576	24.56
632.767	25.3
632.957	25.06
633.148	25.58
633.339	26.22
633.529	25.94
633.72	25.71
633.91	26.06
634.101	25.86
634.292	27.05
634.482	27.11
634.673	26.48
634.863	25.6
635.054	26.2
635.244	26.57
635.435	25.58
635.625	25.26
635.815	25.84
636.006	24.93
636.196	25.88
636.387	25.43
636.577	25.32
636.767	25.87
636.958	25.02
637.148	23.88
637.338	22.72
637.529	23.54
637.719	22.59
637.909	22.02
638.099	22.24
638.29	21
638.48	21.93
638.67	21.58
638.86	21
639.05	22.76
639.241	24.65
639.431	24.91
639.621	24.91
639.811	26.43
640.001	26.85
640.191	27.3
640.381	28.49
640.571	27.77
640.761	28.11
640.951	28.22
641.141	26.18
641.331	24.71
641.521	25.5
641.711	25.94
641.901	26.82
642.091	26.41
642.281	24.03
642.471	23.7
642.661	24.99
642.851	25.03
643.041	25.37
643.231	25.93
643.42	25.67
643.61	25.32
643.8	25.08
643.99	24.44
644.18	23.1
644.369	24.38
644.559	24.46
644.749	22.58
644.939	22.64
645.128	22.6
645.318	23.19
645.508	23.22
645.697	23.68
645.887	22.48
646.076	20.9
646.266	22.26
646.456	22.5
646.645	21.96
646.835	22.77
647.024	21.39
647.214	21.53
647.403	21.16
647.593	22.15
647.782	21.68
647.972	21.93
648.161	23.57
648.351	23.26
648.54	24.68
648.73	24.57
648.919	25.27
649.108	26.44
649.298	25.28
649.487	25.97
649.677	24.75
649.866	25.2
650.055	25.52
650.244	24.3
650.434	23.02
650.623	21.57
650.812	22.51
651.002	22.49
651.191	21.15
651.38	22.67
651.569	22.54
651.758	21.9
651.947	21.72
652.137	21.82
652.326	22.15
652.515	22.86
652.704	22.12
652.893	22.22
653.082	22.63
653.271	23.6
653.46	23.63
653.649	22.3
653.838	22.98
654.027	21
654.216	21.13
654.405	20.93
654.594	21.3
654.783	22.34
654.972	23.21
655.161	21.78
655.35	21.74
655.539	21.48
655.728	22.83
655.916	23.64
656.105	23.61
656.294	23.7
656.483	23.81
656.672	23.52
656.86	23.89
657.049	22.41
657.238	23.72
657.427	24.61
657.615	24.61
657.804	23.85
657.993	23.81
658.181	26.08
658.37	26.46
658.559	26.34
658.747	27.71
658.936	27.57
659.125	30.09
659.313	29.43
659.502	27.61
659.69	26.56
659.879	27.4
660.067	27.74
660.256	26.91
660.444	26.49
660.633	26.33
660.821	25.11
661.01	25.36
661.198	24.29
661.387	24
661.575	24.97
661.763	27.37
661.952	28.13
662.14	26.79
662.328	26.77
662.517	29.89
662.705	31.41
662.893	33
663.082	34.15
663.27	33.36
663.458	33.39
663.646	33.14
663.834	32.02
664.023	31.86
664.211	33.79
664.399	33.77
664.587	29.66
664.775	29.58
664.963	26.63
665.152	25.46
665.34	25.31
665.528	26.3
665.716	28.01
665.904	27.46
666.092	25.02
666.28	23.75
666.468	23.06
666.656	24.67
666.844	24.49
667.032	26.38
667.22	25.45
667.408	25.64
667.596	26.04
667.784	24.96
667.971	24.36
668.159	27.06
668.347	28.16
668.535	28.38
668.723	26.41
668.911	26.25
669.098	26.35
669.286	25.42
669.474	23.76
669.662	24.16
669.849	24.59
670.037	24.9
670.225	22.88
670.413	22.46
670.6	23.25
670.788	23.33
670.976	23.51
671.163	22.97
671.351	23.81
671.538	24.28
671.726	22.24
671.913	21.57
672.101	21.74
672.289	23.14
672.476	22.53
672.664	22.76
672.851	22.48
673.039	21.93
673.226	21.66
673.413	22.25
673.601	23.27
673.788	24.66
673.976	25.02
674.163	24.8
674.35	23.73
674.538	23.87
674.725	22.63
674.912	24.23
675.1	24.27
675.287	24.49
675.474	25.08
675.662	23.92
675.849	23.52
676.036	23.24
676.223	24.51
676.411	25.63
676.598	26.25
676.785	26.56
676.972	26.06
677.159	25.37
677.346	25.92
677.533	26.08
677.721	27.54
677.908	27.74
678.095	28.18
678.282	27.73
678.469	28.23
678.656	27.26
678.843	26.6
679.03	27.33
679.217	28.93
679.404	27.95
679.591	25.96
679.778	24.98
679.964	24.23
680.151	24.03
680.338	23.76
680.525	21.95
680.712	21.61
680.899	22.77
681.086	20.62
681.272	20.15
681.459	20.86
681.646	23.76
681.833	24.01
682.02	24.36
682.206	24.96
682.393	24.58
682.58	25.14
682.766	25.45
682.953	26.24
683.14	27.61
683.326	28
683.513	27.59
683.7	26.32
683.886	27.07
684.073	27.22
684.259	26.74
684.446	26.48
684.632	27.58
684.819	27.49
685.005	24.88
685.192	24.39
685.378	22.98
685.565	22.94
685.751	23.83
685.938	22.79
686.124	22.12
686.31	22.97
686.497	22.26
686.683	22.01
686.87	22.11
687.056	23.81
687.242	24.44
687.429	24.82
687.615	26.02
687.801	25.54
687.987	25.17
688.174	26.82
688.36	26.8
688.546	27.09
688.732	27.18
688.918	28.08
689.105	28.46
689.291	28.08
689.477	26.92
689.663	25.52
689.849	25.03
690.035	27.21
690.221	27.18
690.407	25.76
690.593	27.1
690.779	25.53
690.965	25.08
691.151	24.6
691.337	25.94
691.523	26.5
691.709	25.68
691.895	24.78
692.081	24.25
692.267	24.28
692.453	25.82
692.639	25.63
692.825	27.63
693.011	27.41
693.196	26.59
693.382	23.72
693.568	26.58
693.754	26.62
693.94	28.1
694.125	27.58
694.311	25.84
694.497	25.45
694.682	25.74
694.868	26.1
695.054	25.34
695.239	25.42
695.425	27.54
695.611	24.37
695.796	24.56
695.982	23.66
696.168	23.38
696.353	24.23
696.539	23.86
696.724	23.17
696.91	23.21
697.095	22.62
697.281	23.23
697.466	22.72
697.652	25.05
697.837	25.38
698.023	26.13
698.208	25.75
698.393	24.35
698.579	24.43
698.764	24.33
698.949	24.39
699.135	23.76
699.32	22.3
699.505	22.11
699.691	19.17
699.876	18.83
700.061	18.98
700.246	18.88
700.432	21.32
700.617	21.36
700.802	22.27
700.987	20.15
701.172	23.09
701.358	24.07
701.543	24.51
701.728	27.48
701.913	27.42
702.098	25.38
702.283	23.54
702.468	20.3
702.653	20.22
702.838	21.25
703.023	22.74
703.208	21.03
703.393	22.55
703.578	23.86
703.763	22.99
703.948	25.62
704.133	25.64
704.318	27.88
704.503	30.32
704.688	29.82
704.873	29.81
705.057	29.17
705.242	30.3
705.427	28.37
705.612	30.23
705.797	29.47
705.981	28.3
706.166	31.88
706.351	31.22
706.536	32.72
706.72	33.03
706.905	35
707.09	34.61
707.274	34.37
707.459	36.97
707.644	34.07
707.828	34.31
708.013	33.43
708.197	30.54
708.382	31.65
708.567	29.39
708.751	28.86
708.936	25.01
709.12	24.7
709.305	23.25
709.489	21.46
709.673	22.62
709.858	20.97
710.042	19.35
710.227	21.08
710.411	20.83
710.596	21.73
710.78	22.25
710.964	23.3
711.149	24.82
711.333	26.16
711.517	25.92
711.702	25.29
711.886	27.31
712.07	28.12
712.254	28.48
712.438	29.21
712.623	26.93
712.807	23.29
712.991	19.9
713.175	18.74
713.359	17.25
713.544	17.35
713.728	16.43
713.912	13.68
714.096	16.8
714.28	13.21
714.464	12.24
714.648	13.4
714.832	17.13
715.016	20.23
715.2	19.01
715.384	21.09
715.568	22.35
715.752	21.09
715.936	22.98
716.12	19.11
716.304	21.4
716.488	22.69
716.671	23.25
716.855	24.22
717.039	24.43
717.223	25.46
717.407	24.55
717.59	22.64
717.774	23.28
717.958	22.02
718.142	22.22
718.325	19.5
718.509	13.49
718.693	13.87
718.877	11.02
719.06	8.76
719.244	5.66
719.428	6.74
719.611	7.41
719.795	9.72
719.978	11.27
720.162	13.14
720.345	15.42
720.529	19.53
720.713	18.82
720.896	21.48
721.08	22.53
721.263	26.48
721.446	24.01
721.63	23.38
721.813	25.27
721.997	24.76
722.18	27.27
722.364	26.9
722.547	26.88
722.73	26.67
722.914	23.02
723.097	23
723.28	20.12
723.464	24.84
723.647	27.45
723.83	23.6
724.013	23.87
724.197	24.64
724.38	22.8
724.563	22.77
724.746	23.23
724.929	26.24
725.112	27.08
725.296	27.75
725.479	24.72
725.662	20.36
725.845	23.03
726.028	22.39
726.211	20.73
726.394	22.09
726.577	21.44
726.76	22.25
726.943	20.1
727.126	18.42
727.309	19.33
727.492	19.99
727.675	20.44
727.858	19.75
728.041	21.29
728.224	18.72
728.407	20.03
728.589	22.84
728.772	22.99
728.955	25.03
729.138	26.02
729.321	26.14
729.503	24.46
729.686	26.51
729.869	26.86
730.052	25.58
730.234	26.54
730.417	26.53
730.6	24.32
730.782	25.16
730.965	25.19
731.148	26.58
731.33	28.03
731.513	31.41
731.695	31.68
731.878	31.26
732.061	32.57
732.243	33.41
732.426	35.46
732.608	37.02
732.791	35.48
732.973	34.95
733.156	34.21
733.338	31.82
733.52	30.17
733.703	28.91
733.885	28.27
734.068	27.62
734.25	27.33
734.432	26.73
734.615	25.12
734.797	30.18
734.979	32.48
735.162	30.38
735.344	32.38
735.526	34.84
735.708	37.4
735.891	38.38
736.073	36.02
736.255	34.15
736.437	33.58
736.619	37.13
736.802	32.55
736.984	28.89
737.166	30.41
737.348	30.14
737.53	29.79
737.712	26.9
737.894	28.42
738.076	30.08
738.258	34
738.44	32.29
738.622	31.62
738.804	32.76
738.986	34.12
739.168	31.82
739.35	30.42
739.532	27.45
739.714	29.24
739.896	28.43
740.078	29.91
740.259	27.91
740.441	30.14
740.623	29.8
740.805	28.56
740.987	28.11
741.168	33.3
741.35	36.85
741.532	38.76
741.714	34.54
741.895	34.2
742.077	33.89
742.259	32.72
742.44	32.9
742.622	31.7
742.804	31.79
742.985	30.41
743.167	27.71
743.348	23.65
743.53	20.3
743.711	24.68
743.893	25.49
744.075	25.1
744.256	27.84
744.438	24.98
744.619	19.51
744.8	24.65
744.982	28.19
745.163	28.14
745.345	29.68
745.526	32.62
745.707	34.77
745.889	34.41
746.07	32.24
746.252	30.71
746.433	33.83
746.614	38.08
746.795	33.84
746.977	33.24
747.158	34.31
747.339	36.6
747.52	36.42
747.702	33.33
747.883	31.72
748.064	34.86
748.245	35.07
748.426	32.92
748.607	28.89
748.788	26.04
748.97	25.39
749.151	20.77
749.332	16.65
749.513	20.39
749.694	22.21
749.875	24.14
750.056	23.19
750.237	24.02
750.418	26.01
750.599	28
750.78	36.64
750.96	39.75
751.141	41.36
751.322	40.81
751.503	39.29
751.684	35.63
751.865	38.94
752.046	43.16
752.226	40.21
752.407	34.43
752.588	40.44
752.769	38.16
752.949	40.66
753.13	42.18
753.311	44.15
753.492	41.09
753.672	39.86
753.853	35.23
754.034	32.01
754.214	33.21
754.395	37.3
754.575	34.65
754.756	31.26
754.937	26.05
755.117	27.25
755.298	27.05
755.478	27.81
755.659	31.52
755.839	33.42
756.02	35.1
756.2	35.53
756.381	31.3
756.561	31.51
756.741	33.28
756.922	28.97
757.102	29.52
757.283	31.88
757.463	32.91
757.643	31.04
757.823	24.19
758.004	20.1
758.184	17.05
758.364	19.93
758.545	16
758.725	17.23
758.905	19.14
759.085	11.83
759.265	5.18
759.446	4.15
759.626	10.02
759.806	17.32
759.986	18.12
760.166	19.82
760.346	18.72
760.526	20.6
760.706	11.56
760.886	16.11
761.066	21.31
761.246	23.24
761.426	22.46
761.606	19.73
761.786	17.98
761.966	20.07
762.146	20.19
762.326	19.86
762.506	21.29
762.686	24.49
762.866	22.54
763.046	21.08
763.225	21.04
763.405	22.33
763.585	22.27
763.765	21.89
763.945	22.28
764.124	22.41
764.304	25.41
764.484	26.85
764.664	28.56
764.843	31.12
765.023	29.56
765.203	29.6
765.382	29.03
765.562	27.36
765.741	32.52
765.921	36.35
766.101	39.01
766.28	34.23
766.46	34.29
766.639	33.77
766.819	36.87
766.998	45.15
767.178	46.95
767.357	46.57
767.537	47.88
767.716	48.55
767.896	41.37
768.075	38.09
768.254	45.27
768.434	47.47
768.613	44.19
768.792	43.61
768.972	41.21
769.151	38.71
769.33	40.29
769.51	39.17
769.689	34.24
769.868	35.79
770.047	39.78
770.226	35.34
770.406	33.31
770.585	38.94
770.764	38.14
770.943	36.7
771.122	39.69
771.301	36.88
771.48	46.27
771.66	49.46
771.839	49.39
772.018	48.66
772.197	58.84
772.376	52.09
772.555	52.66
772.734	57.43
772.913	56.17
773.092	57.62
773.271	62.64
773.449	55.61
773.628	56.75
773.807	53.62
773.986	59.55
774.165	50.13
774.344	52.47
774.523	50.95
774.701	41.01
774.88	42.1
775.059	34.76
775.238	40.52
775.417	41.37
775.595	43.05
775.774	49.85
775.953	50.17
776.131	54.52
776.31	56.05
776.489	55.48
776.667	67.01
776.846	66.24
777.025	68.8
777.203	65.36
777.382	64.06
777.56	62.64
777.739	62.79
777.917	57.26
778.096	52.44
778.274	56.19
778.453	54.98
778.631	41.39
778.81	45.71
778.988	47.42
779.166	48.11
779.345	45.69
779.523	45.51
779.702	44.93
779.88	44.15
780.058	51.81
780.237	48.08
780.415	43.39
780.593	55.79
780.771	49.92
780.95	53.37
781.128	55.32
781.306	62.09
781.484	61.35
781.662	54.57
781.841	51.8
782.019	42.58
782.197	40.54
782.375	51.53
782.553	47.63
782.731	47.39
782.909	41.44
783.087	35.89
783.265	25.4
783.443	19.42
783.621	23.03
783.799	28.89
783.977	35.19
784.155	38.77
784.333	29.67
784.511	22.03
784.689	21.44
784.867	26.23
785.045	33.05
785.223	33.36
785.4	42.56
785.578	41.24
785.756	43.1
785.934	27.93
786.112	25.29
786.289	26.9
786.467	32.86
786.645	28.62
786.823	22.76
787	18.91
787.178	17.15
787.356	12.66
787.533	13.01
787.711	4.2
787.889	9.93
788.066	13.83
788.244	5.2
788.421	3.56
788.599	4.61
788.776	3.57
788.954	2.73
789.131	11.66
789.309	14.46
789.486	12.11
789.664	16.14
789.841	15.18
790.019	13.54
790.196	24.44
790.373	27.08
790.551	35.86
790.728	33.57
790.906	43.95
791.083	32.55
791.26	27.31
791.437	30.7
791.615	22.9
791.792	24.93
791.969	23.21
792.146	20.54
792.324	15.6
792.501	13.78
792.678	24.48
792.855	19.04
793.032	31.02
793.209	42.18
793.387	41.39
793.564	56.62
793.741	60.56
793.918	56.77
794.095	52.06
794.272	47.35
794.449	40.05
794.626	43.63
794.803	37.61
794.98	34.27
795.157	31.54
795.334	36.05
795.511	34.8
795.688	32.72
795.864	35
796.041	36.15
796.218	44.26
796.395	47.16
796.572	41.6
796.749	43.92
796.925	46.37
797.102	47.69
797.279	39.41
797.456	33.19
797.632	34.78
797.809	42.49
797.986	42.7
798.162	35.11
798.339	35.55
798.516	39.91
798.692	38.94
798.869	37.55
799.046	39.76
799.222	44.28
799.399	46.86
799.575	48.05
799.752	35.7
799.928	36.69
800.105	41.96
800.281	45.71
800.458	39.03
800.634	40.96
800.811	45.74
800.987	38.95
801.163	29.73
801.34	27.06
801.516	23.22
801.692	28.77
801.869	37.57
802.045	31.11
802.221	26.77
802.398	28.08
802.574	19.11
802.75	2.24
802.926	14.29
803.103	28.29
803.279	34.88
803.455	33.6
803.631	32.68
803.807	20.65
803.983	12.49
804.16	6.77
804.336	23.34
804.512	35.53
804.688	33.27
804.864	27.07
805.04	11.29
805.216	16
805.392	9.97
805.568	15.32
805.744	15.96
805.92	33.82
806.096	31.68
806.272	0.33
806.448	-20.88
806.623	19.34
806.799	23.33
806.975	49.37
807.151	56.2
807.327	52.12
807.503	44.17
807.678	45.85
807.854	45.79
808.03	57.07
808.206	55.12
808.381	54.13
808.557	38.54
808.733	30.6
808.908	16.68
809.084	-8.59
809.26	-5.34
809.435	-0.87
809.611	-5.72
809.787	-11.37
809.962	-27.8
810.138	-20.78
810.313	-5.79
810.489	-3.83
810.664	4.28
810.84	12.33
811.015	19.68
811.191	24.24
811.366	17.3
811.542	23.23
811.717	28.04
811.892	32.68
812.068	36.46
812.243	32.21
812.419	30.38
812.594	36.94
812.769	31.78
812.944	28.31
813.12	26.38
813.295	34.89
813.47	4.15
813.645	-36.97
813.821	-63.17
813.996	-118.5
814.171	-48.1
814.346	-51.63
814.521	-51.44
814.697	-26.76
814.872	2.6
815.047	3.91
815.222	8.64
815.397	18.76
815.572	12
815.747	31.04
815.922	28.79
816.097	16.21
816.272	18.69
816.447	23.22
816.622	25.02
816.797	15.28
816.972	31.78
817.147	39.01
817.322	40.37
817.496	53.25
817.671	35.73
817.846	37.75
818.021	37.36
818.196	30.88
818.371	31.46
818.545	25.09
818.72	40.33
818.895	28.8
819.069	22.52
819.244	11.74
819.419	5.63
819.594	11.8
819.768	9.37
819.943	13.73
820.117	18.2
820.292	19.78
820.467	19
820.641	15.34
820.816	14.31
820.99	14.54
821.165	17.58
821.339	17.96
821.514	16.85
821.688	17.91
821.863	16.04
822.037	16.87
822.212	15.23
822.386	15.39
822.56	14.88
822.735	15.69
822.909	15.86
823.084	14.98
823.258	18.79
823.432	21.43
823.606	20.17
823.781	23.68
823.955	20.68
824.129	21.92
824.303	19.9
824.478	23.22
824.652	23.43
824.826	20.88
825	23.18
825.174	19.46
825.348	15.17
825.523	18.5
825.697	15.65
825.871	17.02
826.045	15.02
826.219	19.31
826.393	19.49
826.567	21.89
826.741	24.9
826.915	25.4
827.089	28.48
827.263	34.52
827.437	32.99
827.611	38.67
827.784	36.69
827.958	34
828.132	30.59
828.306	27.85
828.48	25.35
828.654	26.67
828.827	23.86
829.001	20.92
829.175	10.92
829.349	1.37
829.522	-6.96
829.696	-9.59
829.87	0
830.044	11.27
830.217	19.67
830.391	16.54
830.565	18.03
830.738	26.03
830.912	15.44
831.085	22.02
831.259	22.04
831.432	24.83
831.606	28.56
831.779	31.22
831.953	23.79
832.126	29.85
832.3	32.82
832.473	30.99
832.647	19.33
832.82	30.89
832.994	26.7
833.167	29.49
833.34	29.23
833.514	30.01
833.687	30.23
833.86	32.64
834.034	18.98
834.207	9.53
834.38	6
834.553	10.78
834.727	3.17
834.9	10.26
835.073	10.96
835.246	18.2
835.419	23.31
835.593	14.1
835.766	20.67
835.939	30.6
836.112	35.74
836.285	38.65
836.458	46.57
836.631	37.71
836.804	28.54
836.977	22.58
837.15	0.64
837.323	-1.71
837.496	10.42
837.669	16.74
837.842	9.42
838.015	7.52
838.188	12.05
838.361	9.63
838.533	17.58
838.706	7.33
838.879	5.54
839.052	3.55
839.225	13.34
839.398	19.63
839.57	3.15
839.743	14.47
839.916	38.48
840.088	42.14
840.261	37.09
840.434	24.88
840.607	18.15
840.779	25.91
840.952	49.04
841.124	41.54
841.297	34.19
841.47	29.04
841.642	33.85
841.815	58.25
841.987	64.55
842.16	91.26
842.332	140.46
842.505	216.9
842.677	289.41
842.85	-4016.67
843.022	-1237.5
843.194	590.91
843.367	-512.9
843.539	-209.41
843.712	68.42
843.884	303.7
844.056	669.09
844.229	-27.37
844.401	-83.91
844.573	-250
844.745	-52.31
844.918	-62.67
845.09	-72.18
845.262	-33.97
845.434	-35.12
845.606	-44.66
845.779	16.54
845.951	54.61
846.123	59.47
846.295	88.21
846.467	136.84
846.639	147.77
846.811	128.82
846.983	119.29
847.155	58.33
847.327	22.41
847.499	286.67
847.671	129.33
847.843	640.91
848.015	153.06
848.187	123.19
848.359	-1.43
848.531	69.33
848.703	8.39
848.875	-73.37
849.047	-124.02
849.218	-45.29
849.39	-42.17
849.562	-130.17
849.734	-210.53
849.905	-79.64
850.077	-119.1
850.249	-486
850.421	433.87
850.592	154.34
850.764	134.2
850.936	117.18
851.107	123.94
851.279	118.21
851.451	64.91
851.622	68.51
851.794	42.6
851.965	52.51
852.137	25.7
852.308	-35.39
852.48	-37.74
852.651	-54.36
852.823	-37.47
852.994	-35.1
853.166	-61.33
853.337	-37.43
853.509	-98.24
853.68	-675.47
853.851	1216.22
854.023	150
854.194	-8.81
854.365	5
854.537	41.11
854.708	1.52
854.879	34.25
855.05	71.25
855.222	100
855.393	-53.77
855.564	14.56
855.735	-639.13
855.906	-240.3
856.078	288.95
856.249	289.89
856.42	381.4
856.591	1158.54
856.762	703.9
856.933	450
857.104	279.14
857.275	319.67
857.446	129.85
857.617	120.7
857.788	37.54
857.959	98.36
858.13	134.72
858.301	518.75
858.472	86.84
858.643	74.07
858.814	88.46
858.985	97.44
859.155	27
859.326	17.7
859.497	2.85
859.668	-14.85
859.839	-161.31
860.009	-324.49
860.18	-301.77
860.351	788.33
860.522	3633.33
860.692	751.43
860.863	-15666.67
861.034	-615.38
861.204	-2431.82
861.375	-564.95
861.546	441.27
861.716	3683.33
861.887	1039.58
862.057	-13175
862.228	1366.67
862.398	3875
862.569	-310.13
862.739	-117.6
862.91	-157.58
863.08	34.98
863.251	82.86
863.421	68
863.592	153.23
863.762	352
863.932	262.14
864.103	132.27
864.273	222.22
864.443	484.81
864.614	107.14
864.784	100
864.954	712.5
865.125	14.94
865.295	-16.73
865.465	-644.44
865.635	-422.73
865.805	-2612.5
865.976	-2178.57
866.146	-227.44
866.316	-377.72
866.486	-508.73
866.656	-238.89
866.826	-67.95
866.996	-4.32
867.166	19.29
867.336	21.47
867.506	40.45
867.676	29.6
867.846	53.57
868.016	-146.34
868.186	67
868.356	345
868.526	186.25
868.696	27.78
868.866	90.69
869.036	88.96
869.206	70.32
869.376	92.09
869.545	137.84
869.715	240.54
869.885	271.3
870.055	-885.71
870.224	350
870.394	-13.53
870.564	-40.74
870.734	87.24
870.903	83.01
871.073	60.64
871.243	58.31
871.412	94.71
871.582	108.28
871.751	246.94
871.921	94.39
872.091	108.46
872.26	49.32
872.43	45.3
872.599	76.98
872.769	92.84
872.938	66.27
873.108	53.38
873.277	71.15
873.446	74.48
873.616	55.01
873.785	41.86
873.955	34.42
874.124	32.63
874.293	60.47
874.463	36.63
874.632	32.62
874.801	40.1
874.971	42.92
875.14	41.25
875.309	59.89
875.478	68.43
875.647	34.43
875.817	32.73
875.986	22.73
876.155	-72.91
876.324	-21.58
876.493	5
876.662	23.52
876.831	24.13
877	0.6
877.17	-17.75
877.339	1.23
877.508	6.32
877.677	9.91
877.846	13.38
878.015	9.98
878.184	38.38
878.352	-198.9
878.521	-229.81
878.69	-386.75
878.859	-52.41
879.028	-264.71
879.197	-58.28
879.366	-24.77
879.534	-43.07
879.703	-36.43
879.872	-0.47
880.041	1.75
880.21	19
880.378	19.5
880.547	26.76
880.716	33.8
880.884	39.5
881.053	31.22
881.222	37.08
881.39	37.69
881.559	39.13
881.727	32.83
881.896	34.78
882.065	38.22
882.233	37.76
882.402	41.28
882.57	33.4
882.739	23.69
882.907	37.3
883.076	33.88
883.244	51.23
883.412	56.51
883.581	62.53
883.749	70.71
883.918	60.98
884.086	73.21
884.254	57.68
884.423	53.51
884.591	59.97
884.759	39.13
884.927	55.69
885.096	54.39
885.264	34.85
885.432	-7.16
885.6	-44.3
885.769	-37.95
885.937	-86.38
886.105	-15.46
886.273	-32.37
886.441	-26.96
886.609	-75.41
886.777	-96.95
886.945	-79.64
887.113	-118.88
887.281	-18.39
887.449	1285.71
887.617	-1415.38
887.785	-21.79
887.953	620
888.121	151.59
888.289	159.46
888.457	280.33
888.625	83.87
888.793	26.5
888.961	41.71
889.129	44.14
889.296	16.33
889.464	4.9
889.632	61.66
889.8	81.21
889.967	71.29
890.135	45.1
