Data from JASIL_3238_Reflection_2.txt Node
Date: Mon Nov 16 20:22:31 EST 2015
User: Geneva
Spectrometer: USB4E03002
Autoset integration time: false
Trigger mode: 4
Integration Time (sec): 1.000000E-1
Scans to average: 10
Electric dark correction enabled: false
Nonlinearity correction enabled: false
Boxcar width: 5
Stray light correction enabled: false
XAxis mode: Wavelengths
Stop averaging: false
Number of Pixels in Spectrum: 3648
>>>>>Begin Spectral Data<<<<<
177.575	2341.18
177.794	4039.39
178.014	2430.3
178.233	2126.9
178.452	1462.14
178.672	2728.12
178.891	3416.92
179.11	2982.17
179.33	3310.71
179.549	2104.02
179.768	2141.56
179.987	1355.4
180.207	1081.8
180.426	1502.68
180.645	1753.2
180.864	2058.33
181.084	1312.9
181.303	1645.68
181.522	1866.19
181.741	1442.29
181.96	1204.81
182.179	1500
182.398	2043.96
182.618	7977.94
182.837	6469.14
183.056	5621.35
183.275	3214.37
183.494	6836
183.713	2757.53
183.932	1553.07
184.151	2330.19
184.37	2566.49
184.589	2294.98
184.808	2302.86
185.027	1424.36
185.246	1186.76
185.465	1248.16
185.684	2316.59
185.903	1606.5
186.122	1850
186.341	7904.69
186.56	3411.33
186.779	-6316.88
186.998	-4984.85
187.216	-2873.26
187.435	-12126.83
187.654	-6610.67
187.873	-8987.5
188.092	-13741.67
188.311	-49380
188.53	-4958.16
188.748	6929.73
188.967	-8301.64
189.186	6732.89
189.405	3014.12
189.623	2525.84
189.842	5028.57
190.061	7517.39
190.28	3096.99
190.498	3984.37
190.717	7355.88
190.936	4907.92
191.154	11162.79
191.373	6112.66
191.592	5452.22
191.81	6562.16
192.029	5207.61
192.248	-11787.18
192.466	-13876.47
192.685	-2007.42
192.904	-2958.82
193.122	-2097.21
193.341	-5134.44
193.559	-3009.74
193.778	-4098.25
193.996	9132.08
194.215	-10395.65
194.433	-2521.88
194.652	-2343
194.87	-2373.76
195.089	-4319.82
195.307	-2633.16
195.526	-3539.46
195.744	-2431.51
195.963	-1948.54
196.181	-1485.39
196.399	-928.47
196.618	-763.5
196.836	-1613.36
197.055	-1632.67
197.273	-84516.67
197.491	-15672.73
197.71	3671.74
197.928	11960
198.146	7509.52
198.365	3135.06
198.583	1685.45
198.801	1259.63
199.019	819.48
199.238	1136.87
199.456	1036.48
199.674	1575.5
199.892	1406
200.111	1591.85
200.329	1230.47
200.547	1580.5
200.765	2434.5
200.983	17086.21
201.202	-4700
201.42	-3965.08
201.638	-8072.13
201.856	19488.46
202.074	4705.61
202.292	10726.09
202.51	-8150
202.728	8438.18
202.946	4371.03
203.165	2419.7
203.383	2277.4
203.601	1801.09
203.819	3282.43
204.037	6763.01
204.255	14308.82
204.473	-7841.94
204.691	-21709.09
204.909	-27911.76
205.127	-3978.33
205.345	11793.02
205.562	3437.84
205.78	2062.6
205.998	1613.17
206.216	1249.03
206.434	1478.81
206.652	1379.42
206.87	1617.81
207.088	1254.76
207.306	1822.79
207.523	2944.26
207.741	9108.77
207.959	32906.25
208.177	-14341.67
208.395	-3033.94
208.612	-4113.93
208.83	4394.78
209.048	4545.22
209.266	512600
209.483	-4913.59
209.701	24870
209.919	3811.9
210.136	1630.59
210.354	1112.33
210.572	883.07
210.79	679.01
211.007	650.06
211.225	780.86
211.442	802.6
211.66	626.75
211.878	660.26
212.095	664.01
212.313	658.93
212.53	855.8
212.748	992.65
212.966	1282.07
213.183	1725.99
213.401	1596.58
213.618	1796.47
213.836	1500
214.053	1672.84
214.271	1033.45
214.488	994.54
214.705	1118.5
214.923	926.79
215.14	1697.42
215.358	1199.5
215.575	1607.93
215.793	1482.39
216.01	871.86
216.227	1004.27
216.445	1017.76
216.662	1330.23
216.879	1509.03
217.097	941.43
217.314	872.22
217.531	740.68
217.749	815.96
217.966	721.15
218.183	807.89
218.4	1847.73
218.618	1434.67
218.835	1214.21
219.052	1130.95
219.269	1223.37
219.487	3325.68
219.704	4978.64
219.921	2535.5
220.138	2266.06
220.355	1301.81
220.572	2329.17
220.79	1470.98
221.007	1653.57
221.224	1735.67
221.441	2850.81
221.658	2344.59
221.875	2107
222.092	3127.74
222.309	81166.67
222.526	4987.88
222.743	11714.29
222.96	2617.93
223.177	907.25
223.394	876.98
223.611	802.41
223.828	782.43
224.045	654.12
224.262	533.41
224.479	541.98
224.696	477.23
224.913	469.44
225.13	471.87
225.347	397.35
225.564	468.02
225.781	392.12
225.997	394.97
226.214	309.19
226.431	280.65
226.648	252.08
226.865	223.73
227.082	205.15
227.298	185
227.515	164.32
227.732	153.7
227.949	142.26
228.165	130.85
228.382	118.44
228.599	117.42
228.816	112.17
229.032	114.26
229.249	114.13
229.466	113.47
229.682	119.93
229.899	128.49
230.116	135.98
230.332	143.04
230.549	152.37
230.765	165.3
230.982	174.86
231.199	198.82
231.415	211.54
231.632	215.28
231.848	213.49
232.065	225.32
232.281	220.96
232.498	219.21
232.714	244.32
232.931	245.77
233.147	233.68
233.364	239.08
233.58	225.42
233.797	201.5
234.013	193.57
234.23	199.42
234.446	186.02
234.662	193.38
234.879	195.39
235.095	173.99
235.312	174.54
235.528	180.73
235.744	182.02
235.961	191.25
236.177	204.63
236.393	211.9
236.61	207.91
236.826	210.91
237.042	216.35
237.258	209.57
237.475	231.77
237.691	233.24
237.907	226.99
238.123	216.17
238.339	203.9
238.556	197.07
238.772	193.12
238.988	186.47
239.204	173.14
239.42	158.48
239.636	154.41
239.853	136.15
240.069	126.79
240.285	119.17
240.501	113.6
240.717	106.36
240.933	97.83
241.149	91.68
241.365	87.99
241.581	85.49
241.797	81.56
242.013	78.18
242.229	78.8
242.445	77.56
242.661	76.56
242.877	77.28
243.093	78.82
243.309	83.22
243.525	85.12
243.741	88.95
243.957	91.74
244.173	89.8
244.388	90.59
244.604	88.02
244.82	84.71
245.036	80.5
245.252	74.56
245.468	69.32
245.683	63.24
245.899	58.34
246.115	53.35
246.331	49.48
246.547	47.75
246.762	45.07
246.978	44.01
247.194	43.03
247.409	44.07
247.625	44.65
247.841	45.46
248.057	46.9
248.272	49.61
248.488	54.42
248.703	56.97
248.919	62.33
249.135	68.46
249.35	71.75
249.566	78.54
249.782	83.92
249.997	87.61
250.213	88.32
250.428	91.03
250.644	90.77
250.859	86.66
251.075	87.15
251.29	84.48
251.506	84.1
251.721	86.11
251.937	83.65
252.152	81.35
252.368	80.22
252.583	86.23
252.798	89.72
253.014	93.93
253.229	99.71
253.445	106.61
253.66	112.3
253.875	114.24
254.091	117.21
254.306	122.83
254.521	131
254.737	139.43
254.952	137.16
255.167	138.77
255.383	135.68
255.598	136.78
255.813	130.92
256.028	128.58
256.244	125.33
256.459	119.52
256.674	110.29
256.889	99.31
257.104	91.53
257.32	85.38
257.535	76.45
257.75	71.7
257.965	67.03
258.18	60.4
258.395	56.08
258.61	51.86
258.826	49
259.041	46.08
259.256	43.11
259.471	40.08
259.686	38.77
259.901	38.77
260.116	38.15
260.331	37.29
260.546	38.82
260.761	39.53
260.976	41.98
261.191	44.33
261.406	47.84
261.621	52.11
261.836	55.97
262.05	60.07
262.265	62.52
262.48	64.17
262.695	68.18
262.91	70.22
263.125	72.83
263.34	74.11
263.555	74.1
263.769	74.85
263.984	73.67
264.199	77.78
264.414	76.16
264.629	77.58
264.843	79.1
265.058	79.44
265.273	76.52
265.488	73.38
265.702	70.46
265.917	71.01
266.132	68.87
266.346	70.42
266.561	69.42
266.776	67.6
266.99	65.97
267.205	65.23
267.42	63.05
267.634	61.5
267.849	60.18
268.063	59.68
268.278	59.04
268.492	60.14
268.707	57.63
268.922	55.76
269.136	56.31
269.351	56.11
269.565	54.74
269.78	52.12
269.994	53.3
270.209	55.1
270.423	55.02
270.637	54.09
270.852	52.58
271.066	52.07
271.281	52.11
271.495	52.51
271.709	50.4
271.924	50.43
272.138	52.35
272.353	52.21
272.567	51.67
272.781	52.43
272.996	53.39
273.21	55.72
273.424	57.36
273.638	60.02
273.853	60.31
274.067	62.88
274.281	63.84
274.495	63.64
274.71	64.59
274.924	64.77
275.138	62.72
275.352	64.23
275.566	62.34
275.781	64.88
275.995	61.48
276.209	63.33
276.423	61.89
276.637	63.11
276.851	61.76
277.065	61.66
277.279	60.87
277.493	62.9
277.707	60.88
277.921	62
278.135	58.77
278.349	59.32
278.563	58.24
278.777	58.08
278.991	57.51
279.205	57.87
279.419	57.12
279.633	58.45
279.847	57.16
280.061	55.03
280.275	53.19
280.489	52.51
280.703	51.3
280.917	50
281.131	49.17
281.344	48.19
281.558	48.11
281.772	48.67
281.986	47.36
282.2	46.41
282.414	47.13
282.627	46.45
282.841	47.3
283.055	46.65
283.269	46.01
283.482	46.77
283.696	45.36
283.91	45.51
284.123	44.4
284.337	43.47
284.551	42.22
284.764	42.05
284.978	42.55
285.192	40.83
285.405	41
285.619	40.98
285.833	39.89
286.046	41
286.26	41.7
286.473	41.85
286.687	42.93
286.9	44.5
287.114	43.99
287.327	43.9
287.541	44.22
287.754	44.83
287.968	45.68
288.181	46.68
288.395	46.39
288.608	45.27
288.822	45.09
289.035	44.11
289.248	44.16
289.462	44.05
289.675	43.4
289.889	43.41
290.102	42.73
290.315	42.35
290.529	41.22
290.742	41.09
290.955	41.2
291.169	41.86
291.382	42.6
291.595	44.12
291.808	45.56
292.022	45.36
292.235	45.43
292.448	45.79
292.661	44.64
292.875	46.85
293.088	46.5
293.301	46.71
293.514	45.31
293.727	45.57
293.94	44.03
294.153	44.33
294.367	44.75
294.58	44.93
294.793	44.02
295.006	43.91
295.219	42.11
295.432	41.86
295.645	39.92
295.858	39.63
296.071	38.04
296.284	37.08
296.497	35.1
296.71	34.27
296.923	33.67
297.136	33.84
297.349	34.28
297.562	33.92
297.775	34.44
297.988	34.56
298.201	34.6
298.414	35.14
298.626	35.22
298.839	36
299.052	37.2
299.265	39.11
299.478	39.77
299.691	41
299.903	40.89
300.116	41.13
300.329	42.95
300.542	44.07
300.755	45.65
300.967	46.82
301.18	47.03
301.393	47.08
301.605	46.51
301.818	45.62
302.031	44.54
302.243	45.17
302.456	45.22
302.669	44.63
302.881	45.16
303.094	44.59
303.307	44.1
303.519	43.9
303.732	44.6
303.944	45.29
304.157	46.33
304.37	46.48
304.582	47.67
304.795	47.64
305.007	47.5
305.22	46.97
305.432	47.42
305.645	46.81
305.857	48.14
306.069	48.08
306.282	47.23
306.494	46.7
306.707	45.82
306.919	45.44
307.132	44.61
307.344	44.81
307.556	43.56
307.769	42.89
307.981	44.53
308.193	43.01
308.406	40.16
308.618	39.72
308.83	39.08
309.043	38.05
309.255	37.96
309.467	38.06
309.679	37.85
309.892	38.05
310.104	37.3
310.316	35.52
310.528	35.11
310.74	36.44
310.953	37.13
311.165	37.77
311.377	38.31
311.589	37.79
311.801	37.58
312.013	38.91
312.225	39.42
312.437	40.22
312.649	41.7
312.862	42.36
313.074	43.8
313.286	42.96
313.498	43.61
313.71	46.05
313.922	48.57
314.134	49.83
314.346	47.95
314.558	49.06
314.77	49.26
314.982	48.89
315.193	51.46
315.405	50.8
315.617	50.75
315.829	51.68
316.041	50.05
316.253	48.95
316.465	50.06
316.677	51.52
316.888	50.7
317.1	50.81
317.312	52.23
317.524	51.05
317.736	52.23
317.947	53.1
318.159	52.95
318.371	54.11
318.583	54.85
318.794	54.29
319.006	54.39
319.218	55.02
319.43	55.88
319.641	55.54
319.853	55.23
320.064	55.1
320.276	55.64
320.488	55.6
320.699	57.3
320.911	58.09
321.123	59.43
321.334	58.85
321.546	60.14
321.757	59.17
321.969	61.11
322.18	60.79
322.392	59.93
322.603	59.86
322.815	59.54
323.026	57.08
323.238	55.28
323.449	53.63
323.661	54.19
323.872	52.36
324.083	53.4
324.295	50.71
324.506	49.95
324.718	47.74
324.929	46.32
325.14	44.97
325.352	46.05
325.563	45.98
325.774	44.95
325.986	44.83
326.197	44.65
326.408	44.47
326.62	44.79
326.831	45.27
327.042	46.35
327.253	47.85
327.464	49.63
327.676	48.87
327.887	49.6
328.098	50.16
328.309	49.87
328.52	49.77
328.732	47.97
328.943	48.3
329.154	48.97
329.365	50.12
329.576	48.72
329.787	48.6
329.998	48.35
330.209	49.52
330.42	50.32
330.631	50.53
330.842	51.79
331.053	53.13
331.264	53.36
331.475	53.68
331.686	53.24
331.897	54.7
332.108	53.76
332.319	55.48
332.53	53.77
332.741	52.38
332.952	52.13
333.163	50.99
333.374	50.23
333.585	49.56
333.795	49.66
334.006	50.43
334.217	49.63
334.428	49.69
334.639	48.76
334.849	49.16
335.06	49.31
335.271	49.55
335.482	50.67
335.692	51.56
335.903	52.13
336.114	50.58
336.325	50.25
336.535	50.56
336.746	51.06
336.957	50.4
337.167	49.71
337.378	50.59
337.589	50.93
337.799	50.95
338.01	51.1
338.22	50.64
338.431	50.7
338.642	51.46
338.852	52.39
339.063	52.07
339.273	51.81
339.484	52.96
339.694	52.83
339.905	53.04
340.115	52.52
340.326	51.97
340.536	52.49
340.746	51.6
340.957	50.08
341.167	49.12
341.378	48.42
341.588	49.46
341.799	47.36
342.009	45.87
342.219	44.96
342.43	44.81
342.64	44.81
342.85	43.84
343.061	43.76
343.271	44.26
343.481	44.15
343.691	43.83
343.902	42.89
344.112	42.85
344.322	43.03
344.532	42.5
344.743	42.04
344.953	41.11
345.163	41.69
345.373	43.06
345.583	42.46
345.793	42.29
346.004	42.82
346.214	42.3
346.424	42.94
346.634	43.06
346.844	43.52
347.054	43.03
347.264	43.25
347.474	43.36
347.684	43.66
347.894	44.2
348.104	43.65
348.314	44.04
348.524	44.67
348.734	44.09
348.944	45.11
349.154	44.22
349.364	44.19
349.574	44.06
349.784	45.01
349.994	44.31
350.204	43.62
350.413	43.82
350.623	44.09
350.833	43.89
351.043	44.83
351.253	44.2
351.463	44.76
351.672	45.58
351.882	45.13
352.092	44.05
352.302	44.08
352.511	43.43
352.721	42.51
352.931	42.08
353.141	42.36
353.35	42.22
353.56	41.33
353.77	41.55
353.979	42.45
354.189	43.09
354.399	42.09
354.608	41.74
354.818	42.85
355.027	43.45
355.237	43.13
355.447	42.71
355.656	41.52
355.866	41.3
356.075	40.64
356.285	38.23
356.494	37.6
356.704	38.05
356.913	38.21
357.123	37.56
357.332	37.47
357.542	37.2
357.751	36.45
357.96	36.69
358.17	36.33
358.379	36.67
358.589	37.22
358.798	36.45
359.007	35.3
359.217	34.51
359.426	33.84
359.635	33.59
359.845	32.58
360.054	32.03
360.263	31.56
360.472	32.03
360.682	31.51
360.891	31.53
361.1	31.75
361.309	31.99
361.519	31.24
361.728	31.2
361.937	31.22
362.146	31.78
362.355	32.54
362.564	33.26
362.774	32.94
362.983	33.23
363.192	33.48
363.401	33.87
363.61	33.9
363.819	34.7
364.028	34.13
364.237	34.19
364.446	34.19
364.655	33.82
364.864	33.1
365.073	33.36
365.282	32.63
365.491	31.96
365.7	32.18
365.909	32.74
366.118	33.43
366.327	34.49
366.536	34.08
366.745	34.93
366.954	34.76
367.162	35.29
367.371	35.77
367.58	37.49
367.789	37.59
367.998	37.93
368.207	38.03
368.415	38.49
368.624	38.05
368.833	37.92
369.042	36.88
369.25	37.81
369.459	38.27
369.668	37.78
369.877	35.87
370.085	36.62
370.294	36.15
370.503	35.35
370.711	34.99
370.92	35.9
371.129	36.11
371.337	35.62
371.546	34.68
371.754	34.5
371.963	34.01
372.171	34.57
372.38	33.82
372.589	33.53
372.797	33.85
373.006	33.6
373.214	33.23
373.423	33.64
373.631	34.09
373.84	34.99
374.048	34.2
374.256	34.28
374.465	33.91
374.673	34.35
374.882	34.14
375.09	34.28
375.298	33.89
375.507	33.95
375.715	32.88
375.923	32.21
376.132	31.83
376.34	32.12
376.548	32.1
376.757	32.65
376.965	31.97
377.173	32.15
377.381	32.26
377.59	32.71
377.798	32.36
378.006	32.29
378.214	33.32
378.423	33.1
378.631	33.23
378.839	33.48
379.047	33.93
379.255	34.04
379.463	34.25
379.671	34.22
379.879	33.63
380.088	33.49
380.296	33.69
380.504	33.55
380.712	33.74
380.92	33.05
381.128	32.99
381.336	32.34
381.544	32.34
381.752	32.17
381.96	32.2
382.168	32.06
382.376	32.45
382.584	32.67
382.791	32.21
382.999	32.26
383.207	32.14
383.415	32.16
383.623	31.49
383.831	31.08
384.039	31.18
384.247	31.18
384.454	31.89
384.662	31.22
384.87	31.43
385.078	31.42
385.285	30.84
385.493	30.06
385.701	29.2
385.909	29.45
386.116	29.78
386.324	29.7
386.532	28.9
386.739	27.24
386.947	27.17
387.155	27.82
387.362	27.4
387.57	27.46
387.778	28.48
387.985	29.48
388.193	29.78
388.4	29.47
388.608	29.71
388.816	29.72
389.023	31.06
389.231	31.11
389.438	30.01
389.646	29.66
389.853	29.4
390.061	28.24
390.268	26.9
390.475	26
390.683	26.23
390.89	25.39
391.098	25.34
391.305	25.04
391.512	24.83
391.72	24.78
391.927	24.86
392.135	24.5
392.342	24.78
392.549	25.19
392.756	24.97
392.964	24.95
393.171	25.18
393.378	25.08
393.586	24.24
393.793	24.52
394	24.3
394.207	24.15
394.414	24.65
394.622	24.81
394.829	24.45
395.036	24.67
395.243	24.85
395.45	24.46
395.657	24.24
395.864	24.67
396.072	24.67
396.279	24.66
396.486	24.62
396.693	24.77
396.9	24.52
397.107	25.06
397.314	25.3
397.521	25.15
397.728	25.54
397.935	25.64
398.142	25.01
398.349	24.78
398.556	25.13
398.763	26.09
398.97	25.35
399.177	25.89
399.383	26.09
399.59	25.85
399.797	25.63
400.004	25.18
400.211	25.43
400.418	26.16
400.625	26.1
400.831	26.07
401.038	25.42
401.245	25.58
401.452	25.62
401.658	25.03
401.865	25.17
402.072	25.83
402.279	25.05
402.485	24.7
402.692	24.66
402.899	24.51
403.105	24.34
403.312	23.81
403.519	23.71
403.725	22.91
403.932	23.09
404.138	22.77
404.345	21.91
404.552	22.58
404.758	22.36
404.965	22.17
405.171	21.56
405.378	21.04
405.584	21.21
405.791	21.28
405.997	21.61
406.204	22.34
406.41	22.25
406.617	22.64
406.823	22.3
407.029	22.72
407.236	22.94
407.442	23.42
407.649	24.08
407.855	24.13
408.061	24.55
408.268	24.59
408.474	23.23
408.68	23.35
408.887	22.79
409.093	23.02
409.299	22.92
409.505	22.1
409.712	22.3
409.918	21.86
410.124	21.47
410.33	20.78
410.537	20.42
410.743	20.84
410.949	21.07
411.155	21.33
411.361	20.66
411.567	20.66
411.773	21.63
411.98	21.24
412.186	21.35
412.392	21.5
412.598	21.66
412.804	21.65
413.01	21.69
413.216	21.6
413.422	21.36
413.628	21.9
413.834	21.54
414.04	21.15
414.246	21.06
414.452	20.85
414.658	20.79
414.864	20.79
415.07	20.45
415.275	20.2
415.481	19.39
415.687	19.56
415.893	19.29
416.099	18.84
416.305	17.79
416.511	17.3
416.716	16.92
416.922	16.5
417.128	15.9
417.334	16
417.539	15.7
417.745	15.6
417.951	15.08
418.157	14.97
418.362	14.92
418.568	15.04
418.774	14.87
418.979	14.47
419.185	14.36
419.391	14.25
419.596	14.07
419.802	13.62
420.008	13.27
420.213	15.34
420.419	15.16
420.624	14.98
420.83	14.81
421.035	14.72
421.241	14.8
421.446	14.57
421.652	14.35
421.857	13.96
422.063	14.18
422.268	14.37
422.474	12.15
422.679	12.08
422.885	12.04
423.09	12.07
423.295	12.09
423.501	12.05
423.706	12.36
423.911	12.56
424.117	12.88
424.322	12.81
424.527	12.86
424.733	12.91
424.938	13
425.143	12.85
425.349	12.85
425.554	12.75
425.759	13.02
425.964	12.87
426.169	13.08
426.375	13.26
426.58	13.64
426.785	13.92
426.99	14.4
427.195	14.66
427.4	15.49
427.605	16.14
427.811	16.51
428.016	16.52
428.221	17
428.426	17
428.631	17.23
428.836	17.16
429.041	17.18
429.246	16.93
429.451	17.01
429.656	16.64
429.861	16.11
430.066	16.41
430.271	16.48
430.476	16.22
430.681	16.17
430.886	15.61
431.09	15.67
431.295	15.6
431.5	15.71
431.705	15.3
431.91	15.53
432.115	15.52
432.32	15.77
432.524	15.13
432.729	14.9
432.934	14.99
433.139	15.2
433.343	14.65
433.548	14.57
433.753	14.5
433.958	14.82
434.162	14.72
434.367	14.89
434.572	14.61
434.776	15.12
434.981	15.23
435.186	14.95
435.39	15.1
435.595	15.58
435.799	14.98
436.004	14.88
436.209	14.71
436.413	14.62
436.618	14.65
436.822	14.21
437.027	14.03
437.231	14.04
437.436	13.86
437.64	13.51
437.845	13.3
438.049	13.75
438.253	13.6
438.458	13.25
438.662	13
438.867	12.55
439.071	12.55
439.275	12.44
439.48	12.44
439.684	12.46
439.888	12.62
440.093	12.63
440.297	12.48
440.501	12.49
440.706	12.55
440.91	12.71
441.114	12.69
441.318	12.69
441.523	12.94
441.727	12.99
441.931	13.22
442.135	13.11
442.339	13.23
442.543	13.43
442.748	13.43
442.952	13.29
443.156	13.12
443.36	13.29
443.564	13.41
443.768	13.07
443.972	13.11
444.176	13.05
444.38	13.05
444.584	12.7
444.788	12.63
444.992	12.42
445.196	12.39
445.4	12.3
445.604	12.02
445.808	12.07
446.012	12.13
446.216	11.78
446.42	11.75
446.624	11.49
446.828	11.34
447.032	11.33
447.235	11.26
447.439	11.15
447.643	11.09
447.847	11.68
448.051	11.8
448.254	11.97
448.458	12.57
448.662	12.59
448.866	12.86
449.069	13.19
449.273	13.46
449.477	13.86
449.681	14.26
449.884	14.55
450.088	14.4
450.292	14.32
450.495	14.61
450.699	14.26
450.902	14.3
451.106	14.17
451.31	14.49
451.513	14.25
451.717	13.99
451.92	14.23
452.124	14.46
452.327	14.47
452.531	14.22
452.734	13.83
452.938	14.08
453.141	14.1
453.345	14.34
453.548	14.24
453.752	14.72
453.955	15.08
454.158	14.87
454.362	14.41
454.565	14.38
454.769	14.81
454.972	15.1
455.175	14.98
455.379	14.93
455.582	15.09
455.785	14.92
455.988	14.81
456.192	14.38
456.395	14.32
456.598	14.55
456.801	14.64
457.005	14.5
457.208	14.02
457.411	13.87
457.614	13.92
457.817	13.41
458.021	13.01
458.224	12.48
458.427	12.37
458.63	12.1
458.833	11.67
459.036	11.23
459.239	10.95
459.442	10.9
459.645	10.82
459.848	10.58
460.051	10.81
460.254	10.87
460.457	11
460.66	11.12
460.863	11.58
461.066	12.02
461.269	12.31
461.472	12.64
461.675	12.89
461.878	13.14
462.081	13.63
462.284	13.75
462.486	14.16
462.689	14.32
462.892	14.71
463.095	14.39
463.298	14.43
463.5	15.12
463.703	14.81
463.906	15.09
464.109	15.23
464.311	15.41
464.514	15.32
464.717	15.55
464.92	15.41
465.122	15.08
465.325	15.02
465.528	15.22
465.73	15.03
465.933	15.29
466.135	15.18
466.338	15
466.541	14.68
466.743	14.6
466.946	14.34
467.148	14.65
467.351	14.3
467.553	14.58
467.756	14.38
467.958	13.95
468.161	13.94
468.363	13.88
468.566	13.77
468.768	13.93
468.971	13.93
469.173	13.87
469.375	13.5
469.578	13.91
469.78	13.58
469.983	13.78
470.185	13.91
470.387	14
470.59	13.95
470.792	14.29
470.994	14.4
471.196	14.67
471.399	14.67
471.601	14.69
471.803	14.5
472.005	14.43
472.208	14.18
472.41	14.1
472.612	14.01
472.814	13.96
473.016	14.13
473.218	13.92
473.421	13.86
473.623	13.91
473.825	14.05
474.027	14.64
474.229	14.82
474.431	14.9
474.633	14.88
474.835	14.61
475.037	14.42
475.239	14.12
475.441	13.94
475.643	13.65
475.845	13.7
476.047	13.28
476.249	12.83
476.451	12.82
476.653	12.47
476.855	12.23
477.057	12.45
477.258	12.31
477.46	12.32
477.662	12.23
477.864	11.97
478.066	11.9
478.268	12.13
478.469	12.47
478.671	12.29
478.873	12.45
479.075	12.72
479.276	12.36
479.478	12.53
479.68	12.18
479.882	12.17
480.083	12.32
480.285	12.23
480.487	12.05
480.688	11.52
480.89	11.67
481.091	11.21
481.293	10.85
481.495	10.57
481.696	10.28
481.898	9.92
482.099	9.35
482.301	8.92
482.502	8.39
482.704	7.88
482.905	7.59
483.107	7.03
483.308	6.88
483.51	6.63
483.711	6.49
483.913	6.26
484.114	6.14
484.315	6.25
484.517	6.26
484.718	6.25
484.92	6.31
485.121	6.31
485.322	6.6
485.524	6.68
485.725	6.83
485.926	6.92
486.127	6.93
486.329	6.94
486.53	6.83
486.731	6.76
486.932	6.86
487.134	7.1
487.335	7.15
487.536	6.97
487.737	7.01
487.938	7.08
488.139	7.06
488.341	7.24
488.542	7.41
488.743	7.51
488.944	7.63
489.145	7.81
489.346	7.73
489.547	7.91
489.748	8.14
489.949	8.28
490.15	8.15
490.351	8.28
490.552	8.13
490.753	8.02
490.954	7.8
491.155	7.72
491.356	7.58
491.557	7.63
491.758	7.69
491.959	7.69
492.159	7.56
492.36	7.65
492.561	7.73
492.762	8.1
492.963	8.37
493.164	8.8
493.364	9.27
493.565	9.69
493.766	9.91
493.967	10.16
494.167	10.41
494.368	10.68
494.569	11.05
494.769	10.91
494.97	10.94
495.171	11.03
495.371	11.09
495.572	11.09
495.773	10.94
495.973	10.91
496.174	10.88
496.375	10.76
496.575	10.67
496.776	10.41
496.976	10.78
497.177	10.6
497.377	10.68
497.578	10.68
497.778	10.7
497.979	10.59
498.179	10.53
498.38	10.68
498.58	10.85
498.78	11.28
498.981	11.6
499.181	11.77
499.382	11.95
499.582	11.89
499.782	11.97
499.983	12.15
500.183	12.67
500.383	13.25
500.584	12.9
500.784	12.88
500.984	12.85
501.184	12.88
501.385	12.72
501.585	13.18
501.785	13.14
501.985	13.08
502.185	12.98
502.386	12.91
502.586	12.61
502.786	12.69
502.986	12.8
503.186	12.77
503.386	12.61
503.586	12.61
503.786	12.43
503.987	12.7
504.187	12.86
504.387	12.83
504.587	12.98
504.787	12.82
504.987	12.89
505.187	12.82
505.387	13.02
505.587	12.99
505.786	12.95
505.986	12.93
506.186	12.83
506.386	13.06
506.586	13.13
506.786	12.84
506.986	13.06
507.186	13.15
507.386	13.26
507.585	12.84
507.785	12.98
507.985	13.05
508.185	13.1
508.384	12.91
508.584	12.56
508.784	12.33
508.984	12.38
509.183	12.13
509.383	12.26
509.583	12.37
509.782	12.58
509.982	12.7
510.182	12.53
510.381	12.21
510.581	12.36
510.781	12.76
510.98	12.98
511.18	13.25
511.379	13.55
511.579	13.42
511.778	13.11
511.978	13.04
512.177	12.95
512.377	13.39
512.576	13.46
512.776	13.57
512.975	13.44
513.175	13.27
513.374	13.13
513.573	13.05
513.773	13.16
513.972	13.34
514.172	13.44
514.371	13.6
514.57	13.15
514.77	13.43
514.969	13.29
515.168	12.91
515.367	13.44
515.567	13.66
515.766	13.53
515.965	13.61
516.164	13.59
516.364	13.37
516.563	13.49
516.762	13.59
516.961	13.35
517.16	13.28
517.359	13.45
517.559	13.06
517.758	12.89
517.957	12.82
518.156	12.75
518.355	12.67
518.554	12.94
518.753	12.71
518.952	12.64
519.151	12.8
519.35	12.96
519.549	13.16
519.748	13.07
519.947	13.16
520.146	13.33
520.345	13.5
520.544	13.8
520.743	13.83
520.942	14.27
521.141	14.59
521.339	14.37
521.538	14.35
521.737	14.41
521.936	14.67
522.135	14.59
522.333	14.94
522.532	14.76
522.731	14.85
522.93	15.19
523.129	15.18
523.327	15.27
523.526	15.57
523.725	15.62
523.923	15.47
524.122	15.42
524.321	15.46
524.519	15.06
524.718	15.14
524.917	15.16
525.115	14.78
525.314	14.47
525.512	14.38
525.711	14.18
525.909	14.27
526.108	14
526.306	14.02
526.505	13.92
526.703	13.86
526.902	13.6
527.1	13.43
527.299	13.34
527.497	13.16
527.696	12.99
527.894	12.91
528.092	12.73
528.291	12.82
528.489	12.8
528.688	12.82
528.886	12.7
529.084	12.75
529.283	12.75
529.481	12.76
529.679	12.99
529.877	13.27
530.076	13.52
530.274	13.71
530.472	13.9
530.67	14.15
530.869	14.36
531.067	14.88
531.265	15.25
531.463	15.45
531.661	15.56
531.859	15.73
532.057	15.84
532.255	15.77
532.454	15.67
532.652	15.62
532.85	15.44
533.048	15.38
533.246	15.35
533.444	15.31
533.642	15.56
533.84	15.69
534.038	15.74
534.236	15.88
534.434	16.19
534.632	16.53
534.83	16.75
535.027	17.22
535.225	17.51
535.423	17.84
535.621	17.8
535.819	17.71
536.017	17.95
536.215	17.93
536.412	17.63
536.61	17.62
536.808	17.62
537.006	17.77
537.203	17.82
537.401	17.93
537.599	17.87
537.797	18.27
537.994	18.49
538.192	18.51
538.39	18.94
538.587	19.33
538.785	19.36
538.983	19.39
539.18	19.39
539.378	19.13
539.575	19.05
539.773	18.98
539.97	18.78
540.168	18.37
540.366	18.34
540.563	18.01
540.761	17.88
540.958	17.64
541.155	17.55
541.353	17.57
541.55	17.59
541.748	17.45
541.945	17.4
542.143	17.44
542.34	17.76
542.537	17.94
542.735	17.98
542.932	17.99
543.129	18.38
543.327	18.63
543.524	18.81
543.721	18.98
543.919	19.33
544.116	19.69
544.313	19.97
544.51	19.92
544.708	20.07
544.905	20.35
545.102	20.7
545.299	20.99
545.496	21.36
545.693	21.36
545.891	21.47
546.088	21.66
546.285	21.86
546.482	21.81
546.679	22.03
546.876	22.19
547.073	22.5
547.27	22.65
547.467	22.6
547.664	22.61
547.861	22.96
548.058	23.09
548.255	23.42
548.452	23.41
548.649	24.1
548.846	24.49
549.043	24.63
549.24	24.61
549.437	24.81
549.633	24.91
549.83	25.57
550.027	25.52
550.224	26.05
550.421	25.95
550.618	26.2
550.814	26.12
551.011	25.86
551.208	25.83
551.405	26.15
551.601	26.53
551.798	26.57
551.995	26.28
552.191	26.42
552.388	26.19
552.585	26.46
552.781	26.46
552.978	26.43
553.175	26.91
553.371	26.91
553.568	26.87
553.764	27.3
553.961	27.54
554.157	28
554.354	28.25
554.55	28.95
554.747	29.02
554.943	29.12
555.14	29.27
555.336	29.63
555.533	30.36
555.729	30.87
555.926	30.28
556.122	30.64
556.318	30.54
556.515	30.86
556.711	30.73
556.907	31.21
557.104	31.44
557.3	31.62
557.496	30.95
557.693	30.84
557.889	30.3
558.085	30.69
558.281	30.98
558.478	31.06
558.674	30.52
558.87	30.51
559.066	30.17
559.262	29.72
559.459	29.49
559.655	30.26
559.851	30.38
560.047	30.84
560.243	30.91
560.439	30.81
560.635	30.62
560.831	30.87
561.027	31.23
561.223	31.45
561.419	32.05
561.615	32.27
561.811	32.1
562.007	32
562.203	31.73
562.399	32
562.595	32.03
562.791	32.66
562.987	33.04
563.183	32.55
563.379	32.47
563.575	32.26
563.771	32.32
563.966	32.33
564.162	32.53
564.358	32.85
564.554	32.25
564.75	31.7
564.945	31.13
565.141	30.88
565.337	31.27
565.533	31.11
565.728	31.05
565.924	31.07
566.12	31.02
566.315	30.82
566.511	30.67
566.707	31.02
566.902	31.16
567.098	31.08
567.293	31.28
567.489	31.11
567.684	31.32
567.88	31.98
568.076	31.99
568.271	31.89
568.467	31.91
568.662	32.26
568.858	32.2
569.053	32.61
569.248	32.73
569.444	32.68
569.639	32.92
569.835	32.79
570.03	32.36
570.225	32.39
570.421	32.47
570.616	32.26
570.812	32
571.007	31.74
571.202	31.84
571.397	31.96
571.593	31.75
571.788	31.62
571.983	31.73
572.178	31.75
572.374	31.96
572.569	31.94
572.764	32.05
572.959	31.66
573.154	31.82
573.35	31.69
573.545	31.92
573.74	32.03
573.935	31.99
574.13	31.64
574.325	31.62
574.52	31.51
574.715	31.85
574.91	32
575.105	32.76
575.3	33.04
575.495	33.25
575.69	33.12
575.885	33.41
576.08	33.34
576.275	33.71
576.47	34.07
576.665	34.48
576.86	34.43
577.055	34.7
577.25	34.67
577.444	34.57
577.639	34.64
577.834	34.58
578.029	34.78
578.224	35
578.418	35.4
578.613	35.88
578.808	36.14
579.003	36.59
579.197	36.61
579.392	36.79
579.587	36.63
579.781	36.57
579.976	37.2
580.171	37.03
580.365	37.3
580.56	37.39
580.755	37.23
580.949	36.83
581.144	36.46
581.338	36.88
581.533	37.03
581.727	37.63
581.922	38.07
582.116	37.83
582.311	37.72
582.505	37.72
582.7	37.68
582.894	37.43
583.089	37.63
583.283	37.88
583.478	37.51
583.672	37.23
583.866	37.31
584.061	37.02
584.255	37.39
584.449	37.77
584.644	37.98
584.838	38.07
585.032	38.08
585.226	38.27
585.421	38.01
585.615	38.02
585.809	38.13
586.003	38.09
586.198	38.34
586.392	38.35
586.586	38.46
586.78	38.84
586.974	38.57
587.168	38.73
587.363	38.39
587.557	38.04
587.751	38.42
587.945	38.46
588.139	38.78
588.333	38.41
588.527	38.16
588.721	37.98
588.915	37.7
589.109	38.16
589.303	38.61
589.497	38.71
589.691	39.02
589.885	38.95
590.079	39.07
590.273	39.01
590.466	39.62
590.66	39.53
590.854	39.87
591.048	39.64
591.242	39.42
591.436	38.64
591.629	38.39
591.823	38.88
592.017	38.34
592.211	37.91
592.404	37.54
592.598	37.02
592.792	37.44
592.986	37.07
593.179	36.92
593.373	36.75
593.567	37.24
593.76	37.23
593.954	37.08
594.147	37.81
594.341	38.07
594.535	38.41
594.728	38.19
594.922	37.58
595.115	37.61
595.309	37.88
595.502	37.86
595.696	37.43
595.889	37.72
596.083	37.37
596.276	37.1
596.47	37.07
596.663	36.77
596.856	36.82
597.05	37.23
597.243	37.27
597.437	36.89
597.63	36.96
597.823	37.39
598.017	37.5
598.21	37.95
598.403	38.26
598.596	38.73
598.79	39.11
598.983	39.94
599.176	40.16
599.369	40.53
599.563	41.25
599.756	41.68
599.949	41.46
600.142	41.66
600.335	41.8
600.528	41.51
600.722	41.52
600.915	41.66
601.108	41.81
601.301	41.51
601.494	40.87
601.687	40.79
601.88	40.52
602.073	40.42
602.266	39.85
602.459	39.2
602.652	38.73
602.845	38.43
603.038	37.94
603.231	37.43
603.424	37.23
603.617	36.92
603.809	36.72
604.002	36.13
604.195	35.96
604.388	36
604.581	36.62
604.774	37.01
604.966	37.07
605.159	37.56
605.352	37.26
605.545	37.65
605.737	38.45
605.93	38.77
606.123	39.83
606.316	40.36
606.508	40.85
606.701	40.75
606.894	40.84
607.086	41.35
607.279	41.05
607.471	41.25
607.664	40.64
607.857	40.47
608.049	40.24
608.242	39.38
608.434	39.19
608.627	39.05
608.819	38.73
609.012	38.51
609.204	38.18
609.397	38.14
609.589	38.39
609.782	38.89
609.974	39.01
610.166	39.47
610.359	40.24
610.551	40.33
610.743	40.41
610.936	40.93
611.128	41.54
611.32	42.04
611.513	42.03
611.705	42.67
611.897	42.95
612.09	43.26
612.282	42.9
612.474	43.26
612.666	44.09
612.858	44.15
613.051	44.81
613.243	44.84
613.435	44.9
613.627	45.26
613.819	45.19
614.011	46.3
614.203	46.56
614.395	46.72
614.588	46.6
614.78	46.02
614.972	46.52
615.164	46.17
615.356	46.73
615.548	46.51
615.74	46.76
615.932	46.7
616.124	45.8
616.315	45.99
616.507	46.63
616.699	46.84
616.891	46.82
617.083	46.96
617.275	46.71
617.467	46.54
617.659	46.11
617.85	46.38
618.042	46.56
618.234	47.08
618.426	46.72
618.618	46.17
618.809	46.41
619.001	46.7
619.193	46.74
619.384	47.05
619.576	46.58
619.768	46.95
619.959	46.55
620.151	46.34
620.343	46
620.534	46.14
620.726	46.1
620.917	45.79
621.109	46.18
621.301	46.14
621.492	45.88
621.684	46.57
621.875	46.64
622.067	46.68
622.258	46.88
622.45	46.9
622.641	46.84
622.832	46.8
623.024	46.61
623.215	46.69
623.407	46.42
623.598	47.61
623.789	47.46
623.981	47.35
624.172	47.43
624.363	46.64
624.555	46.29
624.746	46.28
624.937	46.14
625.129	45.89
625.32	44.87
625.511	44.39
625.702	43.04
625.893	42.96
626.085	42.89
626.276	42.37
626.467	42.5
626.658	41.83
626.849	41.54
627.04	41.97
627.231	42.3
627.422	42.87
627.614	42.9
627.805	43.43
627.996	42.86
628.187	43.55
628.378	43.88
628.569	44.65
628.76	45.13
628.951	45.09
629.142	44.57
629.332	44.37
629.523	44.45
629.714	44.85
629.905	45.11
630.096	45.37
630.287	45.4
630.478	45.59
630.669	45.42
630.859	45.54
631.05	45.65
631.241	46.13
631.432	46.22
631.623	46.23
631.813	46.31
632.004	45.31
632.195	45.47
632.385	45.06
632.576	44.74
632.767	44.87
632.957	45.44
633.148	46.09
633.339	45.83
633.529	45.86
633.72	44.94
633.91	44.76
634.101	44.94
634.292	44.9
634.482	44.42
634.673	45.12
634.863	44.79
635.054	44.62
635.244	44.07
635.435	44.18
635.625	44.24
635.815	44.99
636.006	44.68
636.196	45.77
636.387	45.87
636.577	46.58
636.767	46.32
636.958	46.02
637.148	46.12
637.338	46.72
637.529	46.71
637.719	46.96
637.909	46.96
638.099	47.31
638.29	46.17
638.48	46.42
638.67	47.12
638.86	47.49
639.05	48.2
639.241	48.56
639.431	48.54
639.621	49.3
639.811	49.3
640.001	49.58
640.191	49.82
640.381	50.88
640.571	51.51
640.761	50.79
640.951	50.95
641.141	51.04
641.331	50.45
641.521	50.33
641.711	50.55
641.901	50.89
642.091	51.33
642.281	51.65
642.471	52.02
642.661	51.65
642.851	51.89
643.041	51.63
643.231	51.8
643.42	52.72
643.61	51.94
643.8	51.6
643.99	51.33
644.18	51.64
644.369	51.64
644.559	51.37
644.749	51.46
644.939	51.45
645.128	51.13
645.318	49.84
645.508	48.72
645.697	49.57
645.887	49.42
646.076	49
646.266	49.18
646.456	49.25
646.645	49.57
646.835	50.02
647.024	50.32
647.214	50.64
647.403	50.88
647.593	51.58
647.782	51.45
647.972	51.55
648.161	51.86
648.351	51.46
648.54	51.74
648.73	50.78
648.919	49.83
649.108	49.28
649.298	48.85
649.487	50.01
649.677	49.6
649.866	49.85
650.055	49.51
650.244	49.69
650.434	49.24
650.623	48.98
650.812	49.25
651.002	49.11
651.191	49.09
651.38	49.18
651.569	49.15
651.758	48.69
651.947	47.76
652.137	48.27
652.326	48.75
652.515	49.28
652.704	49.26
652.893	49.48
653.082	49.8
653.271	50.25
653.46	49.98
653.649	49.73
653.838	50.56
654.027	51.53
654.216	51.67
654.405	50.42
654.594	50.25
654.783	50.65
654.972	50.99
655.161	51.9
655.35	51.85
655.539	52.32
655.728	52.7
655.916	52.3
656.105	52.13
656.294	52.21
656.483	52.4
656.672	51.96
656.86	51.2
657.049	49.95
657.238	49.31
657.427	48.75
657.615	48.73
657.804	48.08
657.993	47.51
658.181	47.52
658.37	46.5
658.559	45.98
658.747	45.89
658.936	45.89
659.125	45.96
659.313	45.8
659.502	46.09
659.69	45.74
659.879	45.71
660.067	46.58
660.256	46.43
660.444	46.99
660.633	48.08
660.821	48.77
661.01	49.54
661.198	50.84
661.387	51.27
661.575	51.86
661.763	52.46
661.952	52.93
662.14	54.17
662.328	55.26
662.517	55.78
662.705	55.64
662.893	55.48
663.082	55.03
663.27	55.62
663.458	55.61
663.646	55.24
663.834	56.28
664.023	55.95
664.211	55.61
664.399	55.23
664.587	55.28
664.775	55.62
664.963	56.16
665.152	56.64
665.34	55.13
665.528	55.24
665.716	54.91
665.904	53.68
666.092	53.77
666.28	53.12
666.468	52.6
666.656	53.07
666.844	53.44
667.032	52.53
667.22	52.5
667.408	53.16
667.596	53.45
667.784	53.53
667.971	53.9
668.159	54.72
668.347	54.6
668.535	55.05
668.723	54.21
668.911	53.71
669.098	53.77
669.286	53.6
669.474	53.63
669.662	53.78
669.849	53.94
670.037	54.22
670.225	53.68
670.413	54.45
670.6	54.56
670.788	54.25
670.976	54.09
671.163	54.93
671.351	55
671.538	54.48
671.726	54.33
671.913	54.87
672.101	54.9
672.289	55.38
672.476	54.41
672.664	54.67
672.851	55.58
673.039	56.54
673.226	57.16
673.413	57.6
673.601	57.87
673.788	58.56
673.976	57.99
674.163	57.92
674.35	57.53
674.538	57.54
674.725	57.26
674.912	57.24
675.1	57.85
675.287	57.66
675.474	56.78
675.662	57.19
675.849	56.27
676.036	57.02
676.223	57.13
676.411	57.22
676.598	57.57
676.785	57.92
676.972	57.51
677.159	56.05
677.346	54.77
677.533	55.26
677.721	54.71
677.908	55.17
678.095	54.45
678.282	54.16
678.469	53.47
678.656	53.43
678.843	52.59
679.03	53.08
679.217	53.57
679.404	54.27
679.591	54.07
679.778	54.07
679.964	53.46
680.151	52.94
680.338	53.2
680.525	53.85
680.712	53.57
680.899	53.54
681.086	53.28
681.272	53.03
681.459	53.97
681.646	54.19
681.833	54.14
682.02	54.64
682.206	55.98
682.393	55.76
682.58	56.27
682.766	57.07
682.953	58.4
683.14	58.98
683.326	61.24
683.513	60.03
683.7	60.79
683.886	61.59
684.073	62.09
684.259	62.08
684.446	63.31
684.632	63.1
684.819	63.33
685.005	62.44
685.192	62.62
685.378	60.58
685.565	61.25
685.751	60.7
685.938	60.28
686.124	59.76
686.31	58.83
686.497	57.83
686.683	57.53
686.87	57.37
687.056	57.51
687.242	57.18
687.429	57.51
687.615	57.17
687.801	57.7
687.987	57.68
688.174	57.63
688.36	58.5
688.546	58.65
688.732	59.08
688.918	59.24
689.105	59.36
689.291	59.94
689.477	60.15
689.663	61
689.849	60.83
690.035	61.62
690.221	62.73
690.407	63.72
690.593	64.52
690.779	64.25
690.965	64.43
691.151	64.94
691.337	65.03
691.523	65.14
691.709	65.57
691.895	66.1
692.081	66.05
692.267	65.36
692.453	64.95
692.639	64.1
692.825	65.02
693.011	64.94
693.196	65.41
693.382	64.3
693.568	64.59
693.754	63.78
693.94	63.67
694.125	63.68
694.311	64.89
694.497	64.86
694.682	65.69
694.868	65
695.054	65.19
695.239	65.01
695.425	64.67
695.611	63.21
695.796	62.85
695.982	62.27
696.168	60.95
696.353	58.99
696.539	58.71
696.724	57.79
696.91	56.77
697.095	56.17
697.281	55.07
697.466	54.79
697.652	54.33
697.837	54.02
698.023	52.82
698.208	52.77
698.393	52.36
698.579	51.32
698.764	51.05
698.949	51.02
699.135	50.52
699.32	51.12
699.505	51.53
699.691	52.47
699.876	52.33
700.061	53.74
700.246	54.98
700.432	55.99
700.617	57.22
700.802	58.08
700.987	59.55
701.172	59.75
701.358	59.63
701.543	60.21
701.728	59.48
701.913	61.21
702.098	61.55
702.283	62.02
702.468	63.24
702.653	64.61
702.838	66.85
703.023	67.47
703.208	69.68
703.393	70.75
703.578	72.87
703.763	74.65
703.948	75.47
704.133	76.37
704.318	76.24
704.503	75.35
704.688	75.58
704.873	73.36
705.057	74.92
705.242	75.32
705.427	74.97
705.612	73.44
705.797	73.62
705.981	73.38
706.166	73.87
706.351	75.01
706.536	75.5
706.72	73.38
706.905	74.37
707.09	73.15
707.274	72.54
707.459	72.82
707.644	73.07
707.828	73.79
708.013	72.39
708.197	71.96
708.382	70.38
708.567	70.18
708.751	71.25
708.936	71
709.12	70.52
709.305	69.79
709.489	69.14
709.673	68.84
709.858	68
710.042	67.87
710.227	66.51
710.411	66.41
710.596	66.26
710.78	67.1
710.964	66.94
711.149	66.98
711.333	66.63
711.517	68.4
711.702	68.92
711.886	68.2
712.07	68.52
712.254	68.49
712.438	67.9
712.623	68.36
712.807	66.51
712.991	65.91
713.175	67.14
713.359	68.73
713.544	67.64
713.728	67.25
713.912	66.58
714.096	67.49
714.28	68.35
714.464	69.27
714.648	68.83
714.832	69.82
715.016	69.6
715.2	69.24
715.384	67.8
715.568	67.77
715.752	67.59
715.936	69.72
716.12	69.37
716.304	71.19
716.488	71.05
716.671	72.58
716.855	73.08
717.039	75.38
717.223	74.99
717.407	76.6
717.59	75.88
717.774	75.68
717.958	75.1
718.142	74.7
718.325	73.03
718.509	73.62
718.693	72.4
718.877	71.36
719.06	71.12
719.244	71.14
719.428	71.84
719.611	74.12
719.795	74.17
719.978	74.65
720.162	76.17
720.345	77.55
720.529	79.1
720.713	81.59
720.896	83.3
721.08	82.14
721.263	83.91
721.446	82.11
721.63	83
721.813	84.35
721.997	84.75
722.18	82.6
722.364	83.38
722.547	82.77
722.73	81.81
722.914	83.58
723.097	83.36
723.28	82.61
723.464	83.71
723.647	82.95
723.83	82.74
724.013	83.23
724.197	85.82
724.38	84.04
724.563	83.76
724.746	82.75
724.929	81.38
725.112	82.93
725.296	81.97
725.479	82.66
725.662	81.39
725.845	82.29
726.028	81.27
726.211	80.76
726.394	81.57
726.577	82.64
726.76	82.73
726.943	81.55
727.126	79.24
727.309	80.33
727.492	80.59
727.675	80.47
727.858	78.5
728.041	79.59
728.224	78.52
728.407	76.93
728.589	75.1
728.772	73.18
728.955	74.21
729.138	74.44
729.321	72.17
729.503	70.65
729.686	70.61
729.869	72.56
730.052	71.29
730.234	73.43
730.417	74.42
730.6	75.34
730.782	76.72
730.965	76.46
731.148	78.92
731.33	79.49
731.513	79.61
731.695	77.74
731.878	77.41
732.061	77.06
732.243	76.86
732.426	76.46
732.608	77.01
732.791	78.04
732.973	77.76
733.156	76.41
733.338	77.27
733.52	78.14
733.703	79.22
733.885	79.22
734.068	79.38
734.25	79.3
734.432	79.57
734.615	80.65
734.797	82.2
734.979	81.62
735.162	81.85
735.344	82.17
735.526	83.22
735.708	84.82
735.891	86.01
736.073	87.08
736.255	85.8
736.437	86.08
736.619	84.08
736.802	81.38
736.984	82.38
737.166	84.59
737.348	85.13
737.53	85.08
737.712	84.05
737.894	83.11
738.076	83.39
738.258	83.39
738.44	81.6
738.622	82.88
738.804	85.83
738.986	86.42
739.168	84.03
739.35	83.65
739.532	84.34
739.714	87.07
739.896	87
740.078	88.9
740.259	89.9
740.441	94.5
740.623	94.37
740.805	93.84
740.987	92.95
741.168	94.34
741.35	95.84
741.532	95.55
741.714	94.98
741.895	96.23
742.077	96.38
742.259	99.24
742.44	97.84
742.622	97.99
742.804	98.63
742.985	100.89
743.167	101.58
743.348	101.88
743.53	103.25
743.711	103.23
743.893	106.1
744.075	105.96
744.256	104.01
744.438	105.92
744.619	106.41
744.8	103.83
744.982	105.23
745.163	106.4
745.345	104.79
745.526	102.07
745.707	102.82
745.889	99.67
746.07	99.19
746.252	99.78
746.433	98.63
746.614	100.61
746.795	102.74
746.977	104.2
747.158	102.42
747.339	102.32
747.52	103.95
747.702	103.62
747.883	103.88
748.064	103.97
748.245	103.86
748.426	103.47
748.607	101.01
748.788	100.77
748.97	97.96
749.151	100.72
749.332	101.57
749.513	101.59
749.694	101.07
749.875	102.44
750.056	102.09
750.237	103.02
750.418	105.03
750.599	107.03
750.78	106.17
750.96	106.93
751.141	106.54
751.322	108.76
751.503	109.54
751.684	112.09
751.865	111.42
752.046	110.37
752.226	109.65
752.407	107.11
752.588	106.07
752.769	107.64
752.949	107.83
753.13	108.77
753.311	106.9
753.492	106.47
753.672	107.41
753.853	107.43
754.034	108.54
754.214	111.29
754.395	112.74
754.575	117.64
754.756	120.15
754.937	119.66
755.117	115.12
755.298	116.76
755.478	118.19
755.659	115.14
755.839	117.07
756.02	117.8
756.2	116.02
756.381	114.76
756.561	112.58
756.741	109.25
756.922	106.48
757.102	109.56
757.283	110.17
757.463	107.64
757.643	108.98
757.823	108.41
758.004	106.01
758.184	104.58
758.364	105.6
758.545	105.25
758.725	105.69
758.905	107.76
759.085	107.12
759.265	106.28
759.446	107.76
759.626	104.6
759.806	104.46
759.986	105.01
760.166	106.26
760.346	105.7
760.526	102.69
760.706	101.33
760.886	99.89
761.066	99.55
761.246	96.04
761.426	93.29
761.606	91.11
761.786	89.71
761.966	89.94
762.146	85.92
762.326	83.65
762.506	83.35
762.686	81.74
762.866	79.7
763.046	78.1
763.225	79.04
763.405	78.44
763.585	79.66
763.765	78.01
763.945	78.09
764.124	79.71
764.304	81.98
764.484	81.94
764.664	83.5
764.843	87.31
765.023	90.67
765.203	91.9
765.382	94.56
765.562	97.31
765.741	98.75
765.921	101.14
766.101	103.19
766.28	102.39
766.46	106.3
766.639	105.04
766.819	105.15
766.998	106.2
767.178	107.53
767.357	107.99
767.537	107.95
767.716	111.61
767.896	112.32
768.075	113.05
768.254	114.58
768.434	114.66
768.613	118.94
768.792	119.77
768.972	118.87
769.151	119.65
769.33	118.44
769.51	123.86
769.689	124.58
769.868	127.51
770.047	127.42
770.226	127.87
770.406	127.31
770.585	130.48
770.764	129.54
770.943	128.12
771.122	130.99
771.301	135.07
771.48	133.24
771.66	132.88
771.839	128.91
772.018	130.18
772.197	127.06
772.376	126.17
772.555	125.68
772.734	129.72
772.913	131.66
773.092	127.53
773.271	124.61
773.449	122.8
773.628	120.26
773.807	119.92
773.986	122.93
774.165	129.95
774.344	129.58
774.523	128.01
774.701	128.21
774.88	133.37
775.059	139.38
775.238	143.38
775.417	142.26
775.595	150.46
775.774	156.21
775.953	152.48
776.131	149.52
776.31	153.67
776.489	159.18
776.667	154.4
776.846	147.12
777.025	148.35
777.203	147.97
777.382	147.02
777.56	140.13
777.739	138.06
777.917	139.77
778.096	140.57
778.274	141.85
778.453	138.78
778.631	141.52
778.81	142.91
778.988	137.95
779.166	137.84
779.345	139.79
779.523	141.18
779.702	139.05
779.88	142.52
780.058	142.07
780.237	138.92
780.415	138.3
780.593	140.6
780.771	143.46
780.95	146.51
781.128	152.76
781.306	152.25
781.484	159.48
781.662	176.04
781.841	167.09
782.019	167.73
782.197	166.73
782.375	165.87
782.553	165.49
782.731	165.85
782.909	160.37
783.087	160.27
783.265	166.05
783.443	162.68
783.621	150.44
783.799	158.02
783.977	162.8
784.155	167.71
784.333	173.83
784.511	169.96
784.689	170.55
784.867	176.62
785.045	171.45
785.223	173.69
785.4	169.13
785.578	168.51
785.756	167.27
785.934	157.48
786.112	156.71
786.289	152.52
786.467	145.94
786.645	141.45
786.823	138.23
787	137.15
787.178	134.41
787.356	128.9
787.533	133.16
787.711	129.04
787.889	131.97
788.066	128.55
788.244	128.97
788.421	133.51
788.599	131.22
788.776	132.7
788.954	130.71
789.131	124.84
789.309	133.67
789.486	127.61
789.664	130.51
789.841	129.41
790.019	132.2
790.196	139.04
790.373	143.71
790.551	154.98
790.728	155.53
790.906	160.55
791.083	169.62
791.26	168.42
791.437	171.71
791.615	178.74
791.792	186.85
791.969	188.44
792.146	179.44
792.324	176.04
792.501	170.59
792.678	173.1
792.855	165.14
793.032	165.52
793.209	165.19
793.387	163.26
793.564	155.26
793.741	153.23
793.918	150.23
794.095	148.73
794.272	151.08
794.449	147.95
794.626	145.27
794.803	146.09
794.98	144.47
795.157	139.58
795.334	141.22
795.511	141.19
795.688	141.02
795.864	139.46
796.041	143.25
796.218	143.79
796.395	143.68
796.572	145.18
796.749	153.35
796.925	157.14
797.102	162.49
797.279	163.46
797.456	169.83
797.632	168.5
797.809	174.96
797.986	178.96
798.162	184.26
798.339	187.86
798.516	191.72
798.692	191.12
798.869	182.83
799.046	181.52
799.222	179.27
799.399	181
799.575	190.02
799.752	189.51
799.928	185.62
800.105	180.14
800.281	187.69
800.458	181.39
800.634	176.97
800.811	187.44
800.987	202.01
801.163	214.03
801.34	211.22
801.516	205.61
801.692	227.22
801.869	221.99
802.045	248.1
802.221	234.8
802.398	235.57
802.574	239.79
802.75	223.91
802.926	212.61
803.103	207.6
803.279	205.76
803.455	205.22
803.631	192.32
803.807	189.22
803.983	178.75
804.16	188.84
804.336	190.9
804.512	190.19
804.688	197.7
804.864	200.47
805.04	201.14
805.216	211.37
805.392	216.35
805.568	227.28
805.744	236.68
805.92	243.89
806.096	233.15
806.272	246.86
806.448	253.08
806.623	256.74
806.799	254.76
806.975	257.28
807.151	247.94
807.327	254.46
807.503	241.52
807.678	254.89
807.854	245.64
808.03	258.15
808.206	240.02
808.381	234.22
808.557	221.36
808.733	211.79
808.908	213.18
809.084	217.63
809.26	203.82
809.435	204.57
809.611	198.01
809.787	195.51
809.962	193.1
810.138	194.89
810.313	187.39
810.489	194.44
810.664	204.19
810.84	209.14
811.015	216.08
811.191	230.48
811.366	232.92
811.542	224.77
811.717	221.01
811.892	215.76
812.068	224.28
812.243	230.87
812.419	228.64
812.594	231.88
812.769	226.85
812.944	219.19
813.12	211.65
813.295	219.33
813.47	215.33
813.645	231.96
813.821	232.12
813.996	229.43
814.171	245.28
814.346	241.83
814.521	234.1
814.697	239.26
814.872	230.97
815.047	242.11
815.222	234.92
815.397	238.05
815.572	229.54
815.747	222.35
815.922	226.54
816.097	214.84
816.272	217.33
816.447	210.17
816.622	204.2
816.797	212.28
816.972	202.8
817.147	199
817.322	197.1
817.496	198.34
817.671	200
817.846	201.17
818.021	200.3
818.196	192.59
818.371	188.08
818.545	181.56
818.72	178.92
818.895	173.58
819.069	169.86
819.244	162.82
819.419	155.01
819.594	152.88
819.768	141.56
819.943	128.37
820.117	120.52
820.292	112.65
820.467	103.12
820.641	93.96
820.816	87.35
820.99	80.58
821.165	75.32
821.339	69.82
821.514	66.98
821.688	63.47
821.863	62.24
822.037	59.86
822.212	57.39
822.386	56.81
822.56	55.17
822.735	55.44
822.909	55.83
823.084	56.43
823.258	57.1
823.432	57.29
823.606	59.79
823.781	61.26
823.955	63.87
824.129	67.68
824.303	71.16
824.478	76.2
824.652	78.32
824.826	80.63
825	83.8
825.174	86.97
825.348	86.78
825.523	88.79
825.697	90.45
825.871	91.73
826.045	91.59
826.219	89.8
826.393	88.61
826.567	88.06
826.741	89.88
826.915	87.83
827.089	89.32
827.263	88.85
827.437	87.57
827.611	88.72
827.784	90.36
827.958	93
828.132	97.64
828.306	100.99
828.48	105.32
828.654	108.57
828.827	113.34
829.001	118.01
829.175	125.07
829.349	131.61
829.522	141.18
829.696	147.48
829.87	154.89
830.044	163.98
830.217	170.83
830.391	173.44
830.565	176.65
830.738	182.2
830.912	178.27
831.085	190.51
831.259	201.68
831.432	190.69
831.606	187.48
831.779	184.34
831.953	174.57
832.126	162.43
832.3	160.17
832.473	153.96
832.647	149.08
832.82	149.35
832.994	138.69
833.167	133.52
833.34	129.7
833.514	122.75
833.687	120.08
833.86	121.18
834.034	122.44
834.207	124.44
834.38	124.32
834.553	126.12
834.727	125.83
834.9	132.89
835.073	139.3
835.246	148.75
835.419	158.42
835.593	164.54
835.766	164.3
835.939	170.94
836.112	169.38
836.285	183.41
836.458	205.94
836.631	218.43
836.804	222.78
836.977	219.03
837.15	225.72
837.323	236.59
837.496	240.9
837.669	243.77
837.842	243.14
838.015	270.2
838.188	265.06
838.361	258.46
838.533	250.84
838.706	255.93
838.879	259.74
839.052	252.87
839.225	251.41
839.398	254.73
839.57	258.2
839.743	262.09
839.916	243.97
840.088	252.27
840.261	257.97
840.434	245.89
840.607	255.43
840.779	256.35
840.952	255.67
841.124	285.34
841.297	330.96
841.47	355.26
841.642	378.09
841.815	403.68
841.987	403.17
842.16	368.19
842.332	464.6
842.505	468.33
842.677	434.35
842.85	394.14
843.022	372.57
843.194	345.03
843.367	394.76
843.539	375.96
843.712	369.98
843.884	369.13
844.056	407.28
844.229	383.5
844.401	361.82
844.573	415.68
844.745	537.49
844.918	565.78
845.09	517.82
845.262	487.42
845.434	510.73
845.606	534.72
845.779	702.64
845.951	727.58
846.123	965.93
846.295	933.73
846.467	746.17
846.639	778.32
846.811	748.56
846.983	760.49
847.155	671.12
847.327	736.34
847.499	779.94
847.671	741.68
847.843	697.95
848.015	560.04
848.187	709.54
848.359	711.49
848.531	612.26
848.703	523.45
848.875	625.24
849.047	544.09
849.218	544.78
849.39	523.92
849.562	425.25
849.734	440.48
849.905	539.46
850.077	487.82
850.249	532.74
850.421	559.94
850.592	560.48
850.764	534.96
850.936	588.53
851.107	587.39
851.279	577.07
851.451	761.9
851.622	671.35
851.794	586.55
851.965	617.89
852.137	596.53
852.308	570.42
852.48	667.42
852.651	554.1
852.823	574.52
852.994	589.91
853.166	586.21
853.337	583.49
853.509	658.98
853.68	764.66
853.851	631.48
854.023	571.44
854.194	508.45
854.365	489.51
854.537	555.95
854.708	537.88
854.879	562.08
855.05	574.33
855.222	481.45
855.393	445.78
855.564	390.98
855.735	424.64
855.906	492.11
856.078	691.61
856.249	667.99
856.42	635.05
856.591	648.51
856.762	673.23
856.933	606.84
857.104	725.88
857.275	741.99
857.446	838.69
857.617	734.27
857.788	682.25
857.959	503.8
858.13	526.38
858.301	523
858.472	509.05
858.643	460.97
858.814	508.17
858.985	546.75
859.155	652.29
859.326	717.78
859.497	1250.48
859.668	2313.24
859.839	2605.13
860.009	2722.16
860.18	13811.11
860.351	-15268.75
860.522	13728.57
860.692	-24584.21
860.863	7417.74
861.034	2827.22
861.204	1883.2
861.375	905.69
861.546	665.65
861.716	683.74
861.887	611.3
862.057	599.19
862.228	611.67
862.398	719.53
862.569	629.83
862.739	649.28
862.91	627.93
863.08	620.32
863.251	725.5
863.421	865.38
863.592	1192.17
863.762	2525.98
863.932	1630.06
864.103	1329.95
864.273	1183.06
864.443	1344.38
864.614	1767.13
864.784	951.1
864.954	784.53
865.125	635.57
865.295	624.44
865.465	489.39
865.635	450.97
865.805	440.69
865.976	475.42
866.146	492.69
866.316	518.02
866.486	438.46
866.656	551.6
866.826	578.24
866.996	598.94
867.166	500.89
867.336	570
867.506	475.92
867.676	481.28
867.846	509.21
868.016	504.99
868.186	464.7
868.356	480.98
868.526	430.5
868.696	486.09
868.866	492.6
869.036	619.1
869.206	582.76
869.376	683.42
869.545	603.69
869.715	595.81
869.885	546.48
870.055	509.05
870.224	517.98
870.394	573.98
870.564	511.62
870.734	567.23
870.903	542.05
871.073	544.9
871.243	467.67
871.412	576.03
871.582	547.98
871.751	612.78
871.921	772.38
872.091	765.6
872.26	749.64
872.43	785.69
872.599	692.99
872.769	622.36
872.938	722.3
873.108	887.18
873.277	827.15
873.446	747.86
873.616	703.42
873.785	632.7
873.955	689.37
874.124	506.58
874.293	505.89
874.463	515.1
874.632	438.69
874.801	420.61
874.971	495.3
875.14	512.27
875.309	491.26
875.478	515.72
875.647	522.23
875.817	457.19
875.986	587.24
876.155	554.25
876.324	615.44
876.493	809.36
876.662	607.68
876.831	473.9
877	488.17
877.17	554.97
877.339	581.68
877.508	623.57
877.677	650.57
877.846	545.45
878.015	613.6
878.184	622.35
878.352	547.8
878.521	591.97
878.69	637.55
878.859	574.72
879.028	496.13
879.197	477.52
879.366	528.78
879.534	493.71
879.703	476.92
879.872	422.83
880.041	337.88
880.21	318.72
880.378	302.42
880.547	273.66
880.716	231.28
880.884	223.37
881.053	203.84
881.222	178.16
881.39	163.87
881.559	152.23
881.727	145.6
881.896	138.14
882.065	129.77
882.233	128.09
882.402	124.82
882.57	124.03
882.739	123.95
882.907	121.1
883.076	122.65
883.244	126.17
883.412	128.56
883.581	130.2
883.749	139.34
883.918	144.66
884.086	154.17
884.254	164.03
884.423	173.83
884.591	182.91
884.759	194.78
884.927	209.65
885.096	225.81
885.264	243.36
885.432	264.12
885.6	284.87
885.769	332.24
885.937	344.6
886.105	369.5
886.273	386.83
886.441	418.71
886.609	466.28
886.777	475.26
886.945	505.49
887.113	577.39
887.281	662.83
887.449	629.46
887.617	562.26
887.785	573.54
887.953	596.04
888.121	765.05
888.289	704.18
888.457	633.38
888.625	637.63
888.793	770.5
888.961	675.98
889.129	670.82
889.296	626.65
889.464	620.19
889.632	656.17
889.8	619.24
889.967	543.37
890.135	530.14
