Data from JASIL_3124_Reflection_1.txt Node
Date: Thu Nov 12 20:20:48 EST 2015
User: Geneva
Spectrometer: USB4E03002
Autoset integration time: false
Trigger mode: 4
Integration Time (sec): 1.000000E-1
Scans to average: 10
Electric dark correction enabled: true
Nonlinearity correction enabled: false
Boxcar width: 5
Stray light correction enabled: false
XAxis mode: Wavelengths
Stop averaging: false
Number of Pixels in Spectrum: 3648
>>>>>Begin Spectral Data<<<<<
177.575	86.69
177.794	89.11
178.014	43.6
178.233	123.22
178.452	121.86
178.672	16.55
178.891	689.54
179.11	177.02
179.33	324.64
179.549	678.81
179.768	-320.34
179.987	16.23
180.207	-87.15
180.426	-17.9
180.645	6.72
180.864	4.65
181.084	-15.82
181.303	-62.91
181.522	-50.46
181.741	-44.7
181.96	-128.14
182.179	-242.45
182.398	-397.13
182.618	-142.22
182.837	-94.38
183.056	-174.21
183.275	-515.81
183.494	-145.8
183.713	-103.91
183.932	-72.44
184.151	-17.23
184.37	267.55
184.589	38.62
184.808	-15.99
185.027	-29.02
185.246	-38.26
185.465	-29.91
185.684	-10.96
185.903	-96.57
186.122	-105.38
186.341	-34.77
186.56	-46.98
186.779	-48.61
186.998	-291.86
187.216	61.1
187.435	29.02
187.654	38.15
187.873	42.89
188.092	16.32
188.311	19.62
188.53	70.17
188.748	74.4
188.967	111.21
189.186	103.48
189.405	120.4
189.623	206.14
189.842	138.93
190.061	164.1
190.28	161.99
190.498	179.86
190.717	160.47
190.936	168.38
191.154	315.39
191.373	474.6
191.592	425.78
191.81	474.93
192.029	-436.73
192.248	-76.59
192.466	-20.28
192.685	-39.15
192.904	-40.05
193.122	8.09
193.341	19.02
193.559	88.2
193.778	116.13
193.996	54.11
194.215	37.88
194.433	78.06
194.652	69.49
194.87	93.81
195.089	160.61
195.307	116.2
195.526	99.64
195.744	435.63
195.963	-1123.85
196.181	157.13
196.399	164.53
196.618	298.44
196.836	261.42
197.055	-186.14
197.273	243.96
197.491	297.68
197.71	239.21
197.928	119.92
198.146	70.72
198.365	52.83
198.583	-50.95
198.801	180.19
199.019	495.9
199.238	-95.63
199.456	235.1
199.674	253.63
199.892	72.89
200.111	101.68
200.329	114.04
200.547	88.83
200.765	63.74
200.983	71.79
201.202	112.95
201.42	48.99
201.638	6.51
201.856	-25.23
202.074	-203.62
202.292	1958.2
202.51	107.43
202.728	77.31
202.946	83.61
203.165	80.8
203.383	93.08
203.601	103.25
203.819	85.45
204.037	85.28
204.255	107.57
204.473	101.13
204.691	130.75
204.909	955.76
205.127	-3975.76
205.345	-2476.85
205.562	445.62
205.78	1293.11
205.998	-346.3
206.216	-197.68
206.434	-457.8
206.652	437.29
206.87	864.41
207.088	1580.22
207.306	746.99
207.523	-272.33
207.741	-212.85
207.959	-328.48
208.177	-919.75
208.395	314.44
208.612	87.52
208.83	64.45
209.048	-26.02
209.266	105.12
209.483	87.2
209.701	106.96
209.919	112.67
210.136	148.57
210.354	138.98
210.572	172.99
210.79	266.89
211.007	363.16
211.225	277.89
211.442	159.88
211.66	185.87
211.878	155.62
212.095	133.16
212.313	87.11
212.53	82.07
212.748	241.2
212.966	108.02
213.183	112.6
213.401	116.49
213.618	127.35
213.836	94.34
214.053	64.33
214.271	70.43
214.488	75.06
214.705	115.17
214.923	54.02
215.14	29.13
215.358	10.06
215.575	-116.5
215.793	-63.01
216.01	13.55
216.227	36.71
216.445	80.88
216.662	1229.6
216.879	194.79
217.097	-34.27
217.314	-151.3
217.531	-36.52
217.749	55
217.966	72.02
218.183	86.86
218.4	68.29
218.618	-12.03
218.835	-201.14
219.052	196.6
219.269	27.33
219.487	17.54
219.704	170.02
219.921	-1468.33
220.138	592.91
220.355	55.19
220.572	-15.85
220.79	-32.33
221.007	-184.42
221.224	-25.07
221.441	-40.95
221.658	-294.09
221.875	719.22
222.092	-226.74
222.309	-112.44
222.526	32.52
222.743	-383.77
222.96	35.1
223.177	-21.06
223.394	-16.83
223.611	22.62
223.828	-81.27
224.045	23.16
224.262	-15.74
224.479	34.56
224.696	118.21
224.913	-95.41
225.13	-50.06
225.347	-60.62
225.564	-222.67
225.781	-128.58
225.997	-88.89
226.214	-290.49
226.431	-2.47
226.648	-39.65
226.865	-14.39
227.082	-1.31
227.298	-14.24
227.515	-22.9
227.732	-9.23
227.949	4.02
228.165	6.59
228.382	9.18
228.599	15.48
228.816	23.76
229.032	34.02
229.249	31.74
229.466	33.04
229.682	33.15
229.899	24.74
230.116	32.73
230.332	41.25
230.549	46.4
230.765	42.97
230.982	43.24
231.199	33.54
231.415	36.53
231.632	42.75
231.848	45.05
232.065	42.83
232.281	63.57
232.498	83.5
232.714	132.39
232.931	87.78
233.147	90.72
233.364	76.45
233.58	67.54
233.797	36.78
234.013	35.29
234.23	27.72
234.446	36.02
234.662	25.02
234.879	2.95
235.095	-18.87
235.312	-4.09
235.528	-43.01
235.744	-24.04
235.961	-8.18
236.177	-16.38
236.393	-51.5
236.61	-17.32
236.826	-56.57
237.042	-6.61
237.258	16.45
237.475	40.27
237.691	30.73
237.907	45.5
238.123	46.94
238.339	44.02
238.556	57.57
238.772	51.1
238.988	50.16
239.204	63.27
239.42	55.31
239.636	58.14
239.853	57.63
240.069	55.21
240.285	56.91
240.501	50.91
240.717	43.32
240.933	39.88
241.149	34.1
241.365	37.58
241.581	31.2
241.797	30.97
242.013	28.54
242.229	23.01
242.445	25.22
242.661	21.51
242.877	24.68
243.093	28.33
243.309	27.81
243.525	34.82
243.741	30.74
243.957	33.97
244.173	34.98
244.388	39.92
244.604	40.99
244.82	40.25
245.036	38.84
245.252	31.3
245.468	30.07
245.683	28.98
245.899	26.83
246.115	22.47
246.331	20.97
246.547	18.92
246.762	14.05
246.978	12.65
247.194	9.69
247.409	10.16
247.625	13.7
247.841	14.66
248.057	15.61
248.272	14.35
248.488	17.39
248.703	20.09
248.919	19.46
249.135	19.77
249.35	26.65
249.566	25.83
249.782	24.33
249.997	27.84
250.213	28.02
250.428	21.59
250.644	25.85
250.859	26.38
251.075	23.76
251.29	21.32
251.506	22.03
251.721	18.55
251.937	18.79
252.152	20.44
252.368	14.29
252.583	6.91
252.798	11.87
253.014	5.32
253.229	-0.6
253.445	5.55
253.66	9.87
253.875	9.07
254.091	1.72
254.306	4.85
254.521	3.38
254.737	2.23
254.952	5.55
255.167	13.31
255.383	11.14
255.598	11.53
255.813	6.27
256.028	5.54
256.244	6.36
256.459	10.04
256.674	5.14
256.889	2.82
257.104	1.7
257.32	3.28
257.535	0.75
257.75	7.59
257.965	11.31
258.18	12.49
258.395	13.57
258.61	13.7
258.826	11.25
259.041	14.26
259.256	12.55
259.471	12.83
259.686	16.31
259.901	14.47
260.116	14
260.331	14.71
260.546	10.53
260.761	9.69
260.976	9.13
261.191	11.21
261.406	10.54
261.621	13.54
261.836	18.88
262.05	10.1
262.265	10.82
262.48	10.43
262.695	4.29
262.91	14.2
263.125	15.13
263.34	14.48
263.555	22.13
263.769	19.15
263.984	18.53
264.199	8.72
264.414	9.89
264.629	8.51
264.843	6.49
265.058	10.86
265.273	7.26
265.488	7.38
265.702	14.26
265.917	9.7
266.132	11.85
266.346	13.07
266.561	18.66
266.776	20.4
266.99	27.27
267.205	25.82
267.42	21.78
267.634	23.93
267.849	27.62
268.063	20.65
268.278	22.12
268.492	19.41
268.707	18.24
268.922	18.46
269.136	18.73
269.351	13.77
269.565	16.63
269.78	17.4
269.994	14.77
270.209	11.77
270.423	13.17
270.637	14.13
270.852	12.36
271.066	14.78
271.281	17.55
271.495	16.33
271.709	16.43
271.924	15.88
272.138	17.5
272.353	17.45
272.567	16.72
272.781	15.99
272.996	14.14
273.21	17.08
273.424	13.13
273.638	11.46
273.853	13.79
274.067	13.06
274.281	10.38
274.495	9.56
274.71	8.31
274.924	9.62
275.138	9.48
275.352	7.06
275.566	9.28
275.781	8.26
275.995	7.55
276.209	3.74
276.423	4.77
276.637	8.6
276.851	8.82
277.065	11.6
277.279	12.59
277.493	17.52
277.707	23.02
277.921	18.07
278.135	21.4
278.349	20.26
278.563	19.84
278.777	20.02
278.991	15.11
279.205	10.9
279.419	11.64
279.633	11.47
279.847	5.83
280.061	0.44
280.275	1.17
280.489	-0.65
280.703	-0.1
280.917	-0.27
281.131	1.69
281.344	5.06
281.558	6.16
281.772	3.58
281.986	3.03
282.2	1.91
282.414	3.63
282.627	4.65
282.841	6
283.055	3.68
283.269	4.73
283.482	1.27
283.696	2.08
283.91	0.17
284.123	1.19
284.337	1.27
284.551	3.34
284.764	4.07
284.978	5.27
285.192	4.19
285.405	4.25
285.619	2.52
285.833	3.95
286.046	2.15
286.26	7.61
286.473	8.48
286.687	8.8
286.9	8.64
287.114	9.33
287.327	8.85
287.541	7.87
287.754	9.39
287.968	9.48
288.181	11.56
288.395	11.74
288.608	9.1
288.822	7.04
289.035	8.35
289.248	8.31
289.462	7.18
289.675	6.54
289.889	7.06
290.102	7.79
290.315	10.74
290.529	8.79
290.742	10.99
290.955	11.88
291.169	13.79
291.382	11.23
291.595	9.9
291.808	10.18
292.022	11.26
292.235	14.95
292.448	13.89
292.661	12.19
292.875	11.34
293.088	6.7
293.301	4.14
293.514	2.46
293.727	3.86
293.94	7.41
294.153	8.79
294.367	6.54
294.58	5.18
294.793	4.05
295.006	4.9
295.219	4.2
295.432	6.72
295.645	6.8
295.858	8.21
296.071	9.61
296.284	7.33
296.497	5.94
296.71	6.77
296.923	7.78
297.136	8.85
297.349	5.96
297.562	6.96
297.775	5.44
297.988	6.38
298.201	6.65
298.414	2.79
298.626	4.98
298.839	5.92
299.052	5.41
299.265	4.94
299.478	3.83
299.691	5.39
299.903	5.72
300.116	6.89
300.329	7.32
300.542	8.25
300.755	10.4
300.967	10.08
301.18	9.07
301.393	6.73
301.605	4.35
301.818	4.09
302.031	6.18
302.243	7.27
302.456	6.4
302.669	8.41
302.881	6.94
303.094	6.58
303.307	7.54
303.519	10.26
303.732	12.24
303.944	12.29
304.157	14.29
304.37	14
304.582	14.82
304.795	17.63
305.007	15.54
305.22	14.39
305.432	15.56
305.645	12.24
305.857	10.12
306.069	11.23
306.282	10.41
306.494	10.97
306.707	10.46
306.919	6.82
307.132	6.64
307.344	5.21
307.556	6.78
307.769	6.17
307.981	7.74
308.193	7.54
308.406	8.01
308.618	10.45
308.83	10.01
309.043	10.51
309.255	12.07
309.467	9.96
309.679	12.14
309.892	10.65
310.104	10.87
310.316	11.55
310.528	11.37
310.74	10.35
310.953	9.7
311.165	8.8
311.377	7.6
311.589	8.42
311.801	9.96
312.013	9.58
312.225	11.51
312.437	10.4
312.649	11.04
312.862	12.64
313.074	14.13
313.286	16.14
313.498	15.7
313.71	16.95
313.922	15.99
314.134	12.61
314.346	14.51
314.558	11.91
314.77	14.02
314.982	12.9
315.193	11.89
315.405	11.37
315.617	7.41
315.829	8.09
316.041	6.99
316.253	5.85
316.465	6.14
316.677	3.55
316.888	8.8
317.1	8.79
317.312	10.25
317.524	9.51
317.736	11.7
317.947	18.76
318.159	21.84
318.371	22.27
318.583	23.8
318.794	26.04
319.006	23.99
319.218	18.05
319.43	17.05
319.641	16.82
319.853	16.58
320.064	11.24
320.276	4.71
320.488	5.01
320.699	4.59
320.911	4.33
321.123	6.11
321.334	4.76
321.546	8.16
321.757	8.12
321.969	6.83
322.18	8.62
322.392	12.18
322.603	14.79
322.815	13.63
323.026	15.14
323.238	15.91
323.449	15.12
323.661	19.78
323.872	18.85
324.083	20.46
324.295	21.1
324.506	19.36
324.718	21.44
324.929	18.89
325.14	18.25
325.352	18.13
325.563	17.79
325.774	17.68
325.986	18.92
326.197	17.85
326.408	15.8
326.62	14.4
326.831	16.22
327.042	16.29
327.253	16.93
327.464	17.71
327.676	15.66
327.887	15.55
328.098	16.4
328.309	12.67
328.52	13.85
328.732	12.95
328.943	16.66
329.154	15.82
329.365	14.43
329.576	18.17
329.787	20.24
329.998	24.05
330.209	23.3
330.42	22.81
330.631	22.96
330.842	26.68
331.053	28.22
331.264	25.35
331.475	26.26
331.686	24.45
331.897	22.86
332.108	19.37
332.319	16.07
332.53	19.39
332.741	19.83
332.952	21.15
333.163	18.16
333.374	17.3
333.585	17.78
333.795	16.01
334.006	16.66
334.217	15.98
334.428	17.49
334.639	18.4
334.849	15.48
335.06	15.08
335.271	14
335.482	16
335.692	17.4
335.903	19.59
336.114	18.43
336.325	18.18
336.535	22.07
336.746	22.11
336.957	25.16
337.167	23.69
337.378	25.15
337.589	25.47
337.799	23.16
338.01	22.32
338.22	20.55
338.431	24.8
338.642	24.71
338.852	21.36
339.063	22.43
339.273	19.93
339.484	25.18
339.694	23.63
339.905	23.66
340.115	26.07
340.326	25.39
340.536	26.06
340.746	25.18
340.957	25.31
341.167	25.33
341.378	25.94
341.588	25.24
341.799	22.49
342.009	21.59
342.219	23.35
342.43	22.64
342.64	23.21
342.85	22.16
343.061	20.32
343.271	21.06
343.481	20.65
343.691	18.79
343.902	21.14
344.112	20.38
344.322	21.69
344.532	21.68
344.743	20.89
344.953	21.04
345.163	23.2
345.373	23.96
345.583	23.2
345.793	24.39
346.004	24.97
346.214	24.5
346.424	24.63
346.634	23.2
346.844	22.51
347.054	23.32
347.264	23.96
347.474	21.7
347.684	22.36
347.894	21.69
348.104	20.08
348.314	21.97
348.524	20.57
348.734	20.63
348.944	22.92
349.154	22.84
349.364	21.95
349.574	22.73
349.784	22.2
349.994	23.11
350.204	22.8
350.413	22.64
350.623	23.75
350.833	23.96
351.043	23.11
351.253	21.77
351.463	20.82
351.672	20.05
351.882	17.55
352.092	18.77
352.302	18.57
352.511	20.12
352.721	23.28
352.931	18.5
353.141	19.73
353.35	21.18
353.56	21.76
353.77	22.64
353.979	23.34
354.189	23.67
354.399	22.57
354.608	20.7
354.818	20.73
355.027	18.03
355.237	19.36
355.447	19.32
355.656	18.29
355.866	18.91
356.075	20.1
356.285	19.05
356.494	19.3
356.704	20.78
356.913	21.18
357.123	21.53
357.332	21.73
357.542	22.43
357.751	21.96
357.96	22.79
358.17	21.75
358.379	19.2
358.589	20.38
358.798	21.51
359.007	21.15
359.217	21.05
359.426	20.9
359.635	20.56
359.845	19.71
360.054	20.03
360.263	20.42
360.472	20.77
360.682	21.74
360.891	21.26
361.1	20.29
361.309	19.18
361.519	20.36
361.728	20.79
361.937	20.9
362.146	21.93
362.355	20.36
362.564	19.91
362.774	19.49
362.983	19.96
363.192	19.68
363.401	21.11
363.61	21.45
363.819	21.16
364.028	20.08
364.237	21.05
364.446	20.59
364.655	22.5
364.864	22.3
365.073	21.74
365.282	20.82
365.491	21.25
365.7	20.92
365.909	21.84
366.118	21.49
366.327	21.91
366.536	20.46
366.745	18.6
366.954	18.8
367.162	17.24
367.371	19.36
367.58	19.74
367.789	19.11
367.998	16.67
368.207	17.41
368.415	17.58
368.624	17.76
368.833	19.32
369.042	21.53
369.25	21.07
369.459	22.33
369.668	21.25
369.877	20.5
370.085	21.19
370.294	22.37
370.503	21
370.711	20.79
370.92	19.3
371.129	19.21
371.337	18.6
371.546	18.08
371.754	18.3
371.963	17.88
372.171	18.87
372.38	17.98
372.589	20.59
372.797	21.32
373.006	21.73
373.214	22
373.423	20.47
373.631	20.28
373.84	21.27
374.048	20.38
374.256	19.51
374.465	20.2
374.673	21.71
374.882	19
375.09	19.02
375.298	18.17
375.507	19.16
375.715	21.14
375.923	20.51
376.132	21.21
376.34	22.58
376.548	24.15
376.757	22.47
376.965	21.24
377.173	21.49
377.381	21.58
377.59	21.81
377.798	21.22
378.006	20.29
378.214	21.39
378.423	19.86
378.631	19.08
378.839	18.86
379.047	19.9
379.255	19.8
379.463	19.5
379.671	16.73
379.879	16.4
380.088	15.65
380.296	16.54
380.504	15.04
380.712	15.19
380.92	15.88
381.128	16.21
381.336	15.25
381.544	15.46
381.752	16.71
381.96	18.6
382.168	18.78
382.376	20.96
382.584	19.83
382.791	21.08
382.999	20.66
383.207	21.51
383.415	21.48
383.623	21.12
383.831	21.7
384.039	20.66
384.247	19.28
384.454	19.22
384.662	19.26
384.87	18.98
385.078	17.71
385.285	17.57
385.493	16.12
385.701	15.21
385.909	15.93
386.116	16.78
386.324	17.58
386.532	18.33
386.739	18.75
386.947	16.48
387.155	17.57
387.362	18.64
387.57	19.07
387.778	19.62
387.985	18.68
388.193	19.59
388.4	17.54
388.608	16.46
388.816	17.36
389.023	15.78
389.231	16.1
389.438	15.01
389.646	16.02
389.853	15.59
390.061	14.06
390.268	15.42
390.475	15.92
390.683	18.09
390.89	17.5
391.098	17.9
391.305	18.06
391.512	18.32
391.72	18.25
391.927	17.82
392.135	18.3
392.342	18.87
392.549	19.03
392.756	18.48
392.964	17.75
393.171	19.11
393.378	19.01
393.586	19.81
393.793	20.88
394	20.57
394.207	20
394.414	20.03
394.622	20.21
394.829	19.75
395.036	19.45
395.243	19.33
395.45	19.83
395.657	19.33
395.864	19.54
396.072	17.56
396.279	18.84
396.486	19.21
396.693	18.76
396.9	18.34
397.107	18.72
397.314	19.21
397.521	19.71
397.728	20.02
397.935	19.67
398.142	19.12
398.349	20.81
398.556	20.95
398.763	20.38
398.97	20.69
399.177	21.32
399.383	20.55
399.59	18.82
399.797	18.65
400.004	17.97
400.211	18.57
400.418	19.64
400.625	19.63
400.831	18.95
401.038	20.02
401.245	20
401.452	21.05
401.658	22.13
401.865	23.83
402.072	23.8
402.279	23.84
402.485	23.19
402.692	22.29
402.899	22.67
403.105	22.75
403.312	22.32
403.519	22.14
403.725	20.24
403.932	19.45
404.138	20.58
404.345	19.99
404.552	19.59
404.758	20.67
404.965	20.93
405.171	19.82
405.378	18.67
405.584	18.86
405.791	18.58
405.997	19.25
406.204	19.52
406.41	17.5
406.617	18.72
406.823	18.33
407.029	17.48
407.236	17.19
407.442	17.48
407.649	18.76
407.855	18.67
408.061	18.65
408.268	19.39
408.474	19.72
408.68	20.44
408.887	19.75
409.093	21.04
409.299	20.65
409.505	20.03
409.712	20.56
409.918	20.66
410.124	20.05
410.33	20.91
410.537	21.23
410.743	20.93
410.949	21.18
411.155	20.85
411.361	18.76
411.567	19.1
411.773	19.63
411.98	19.15
412.186	19.01
412.392	19.74
412.598	20.22
412.804	18.73
413.01	18.71
413.216	17.73
413.422	17.34
413.628	18.31
413.834	17.32
414.04	18.08
414.246	18.51
414.452	18.7
414.658	18.8
414.864	19.14
415.07	20.07
415.275	19.66
415.481	20.36
415.687	20.6
415.893	20.88
416.099	21.63
416.305	21.36
416.511	20.59
416.716	20.34
416.922	20.42
417.128	20.08
417.334	20.22
417.539	20.24
417.745	20.08
417.951	20.22
418.157	20.54
418.362	20.92
418.568	20.95
418.774	20.98
418.979	21.04
419.185	20.98
419.391	20.93
419.596	20.95
419.802	21.03
420.008	20.7
420.213	22.05
420.419	21.98
420.624	21.98
420.83	21.58
421.035	21.93
421.241	21.71
421.446	21.37
421.652	21.11
421.857	20.72
422.063	20.58
422.268	20.63
422.474	19.4
422.679	19.27
422.885	18.74
423.09	18.89
423.295	18.66
423.501	19.36
423.706	19.86
423.911	20.02
424.117	20.65
424.322	20.78
424.527	20.8
424.733	20.66
424.938	20.66
425.143	21.13
425.349	20.8
425.554	20.96
425.759	20.01
425.964	19.96
426.169	19.58
426.375	19.18
426.58	19.44
426.785	20.2
426.99	20.24
427.195	19.75
427.4	19.23
427.605	20.56
427.811	20.31
428.016	20.9
428.221	21.44
428.426	22.6
428.631	22.52
428.836	23.11
429.041	22.41
429.246	22.59
429.451	22.46
429.656	22.87
429.861	22.18
430.066	22.49
430.271	22.56
430.476	21.09
430.681	20.53
430.886	19.97
431.09	19.41
431.295	19.6
431.5	20.15
431.705	21.03
431.91	20.95
432.115	20.94
432.32	21.21
432.524	20.53
432.729	21.16
432.934	20.68
433.139	21.31
433.343	21.39
433.548	21.37
433.753	20.79
433.958	20.46
434.162	20.8
434.367	21.13
434.572	20.89
434.776	21.67
434.981	21.71
435.186	22.08
435.39	21.34
435.595	21.02
435.799	20.97
436.004	21.24
436.209	21.7
436.413	21.15
436.618	20.71
436.822	21.21
437.027	21.36
437.231	20.61
437.436	20.27
437.64	20.94
437.845	21.03
438.049	21.15
438.253	21.23
438.458	21.4
438.662	21.45
438.867	21.46
439.071	21.12
439.275	21.11
439.48	21.55
439.684	21.85
439.888	21.55
440.093	21.09
440.297	21.21
440.501	21.12
440.706	20.58
440.91	20.88
441.114	20.96
441.318	21.08
441.523	21.36
441.727	21.41
441.931	20.8
442.135	20.95
442.339	20.86
442.543	20.99
442.748	20.81
442.952	20.46
443.156	20.37
443.36	20.31
443.564	20.28
443.768	19.41
443.972	19.68
444.176	20.55
444.38	20.49
444.584	20.94
444.788	20.15
444.992	20.01
445.196	20.44
445.4	20.62
445.604	21.07
445.808	21.05
446.012	21.29
446.216	21.38
446.42	21.1
446.624	21.37
446.828	21
447.032	21.47
447.235	21.85
447.439	21.92
447.643	21.72
447.847	21.08
448.051	20.68
448.254	20.77
448.458	20.05
448.662	20.28
448.866	19.98
449.069	21.36
449.273	20.93
449.477	20.71
449.681	20.18
449.884	19.9
450.088	20.82
450.292	21.16
450.495	21.39
450.699	21.56
450.902	22.11
451.106	21.73
451.31	21.15
451.513	21.5
451.717	21.25
451.92	21.73
452.124	22.03
452.327	21.56
452.531	21.55
452.734	21.47
452.938	21.7
453.141	21.01
453.345	21.58
453.548	21.29
453.752	21.35
453.955	21.59
454.158	21.76
454.362	21.53
454.565	22.31
454.769	21.91
454.972	21.21
455.175	20.75
455.379	20.58
455.582	20.38
455.785	20.16
455.988	19.97
456.192	20.06
456.395	19.41
456.598	19.28
456.801	18.27
457.005	18.42
457.208	19.32
457.411	19.52
457.614	19.19
457.817	18.88
458.021	19.16
458.224	19.4
458.427	19.32
458.63	19.66
458.833	19.67
459.036	19.5
459.239	19.7
459.442	19.23
459.645	19.53
459.848	19.83
460.051	20.11
460.254	19.96
460.457	20.2
460.66	20.44
460.863	20.58
461.066	20.94
461.269	21.37
461.472	21.35
461.675	21.49
461.878	21.78
462.081	22.13
462.284	22.5
462.486	22.58
462.689	21.75
462.892	21.69
463.095	21.59
463.298	21.7
463.5	21.38
463.703	21.42
463.906	21.54
464.109	20.55
464.311	20.68
464.514	20.55
464.717	20.9
464.92	21.14
465.122	21.56
465.325	21.2
465.528	21.17
465.73	21.92
465.933	21.84
466.135	21.81
466.338	22.28
466.541	21.89
466.743	21.12
466.946	20.76
467.148	20.97
467.351	20.09
467.553	20.63
467.756	20.83
467.958	19.47
468.161	19.76
468.363	20.93
468.566	20.58
468.768	20.34
468.971	20.8
469.173	20.61
469.375	20.89
469.578	21.24
469.78	20.82
469.983	20.96
470.185	21.56
470.387	21.83
470.59	20.69
470.792	21.5
470.994	21.43
471.196	21.38
471.399	21.88
471.601	21.79
471.803	21.4
472.005	20.94
472.208	20.54
472.41	20.92
472.612	20.3
472.814	20.8
473.016	20.61
473.218	20.94
473.421	20.88
473.623	20.72
473.825	20.26
474.027	20.55
474.229	20.71
474.431	20.54
474.633	19.94
474.835	19.85
475.037	18.86
475.239	18.34
475.441	18.21
475.643	18.86
475.845	18.75
476.047	18.82
476.249	18.98
476.451	19.17
476.653	19.42
476.855	19.88
477.057	20.75
477.258	20.76
477.46	21.43
477.662	21.32
477.864	20.73
478.066	21.23
478.268	21.68
478.469	21.36
478.671	21.79
478.873	21.98
479.075	21.6
479.276	20.85
479.478	21.58
479.68	21.04
479.882	20.89
480.083	21.29
480.285	21.01
480.487	20.91
480.688	21.06
480.89	20.85
481.091	20.43
481.293	20.68
481.495	20.88
481.696	20.51
481.898	20.72
482.099	20.92
482.301	20.6
482.502	20.7
482.704	20.52
482.905	20.49
483.107	20.3
483.308	20.31
483.51	20.38
483.711	20.26
483.913	20.27
484.114	20.01
484.315	19.97
484.517	20.17
484.718	20.07
484.92	20.17
485.121	20.1
485.322	20.29
485.524	20.47
485.725	20.49
485.926	20.6
486.127	20.52
486.329	20.83
486.53	20.86
486.731	20.68
486.932	20.63
487.134	20.62
487.335	20.58
487.536	20.55
487.737	20.34
487.938	20.03
488.139	19.9
488.341	20.06
488.542	19.91
488.743	19.89
488.944	19.89
489.145	19.84
489.346	19.7
489.547	20.08
489.748	20.07
489.949	20.13
490.15	20.39
490.351	20.62
490.552	20.75
490.753	20.64
490.954	20.51
491.155	20.52
491.356	20.28
491.557	20.24
491.758	20.07
491.959	19.99
492.159	20.05
492.36	19.9
492.561	19.98
492.762	19.94
492.963	20.02
493.164	20.09
493.364	20.16
493.565	20.94
493.766	21.62
493.967	21.88
494.167	22.19
494.368	22.12
494.569	22.1
494.769	21.87
494.97	21.68
495.171	22
495.371	21.78
495.572	21.65
495.773	21.24
495.973	20.91
496.174	20.78
496.375	20.57
496.575	20.83
496.776	21.2
496.976	21.13
497.177	21.06
497.377	21.15
497.578	21.25
497.778	21.51
497.979	21.65
498.179	21.53
498.38	21.52
498.58	21.41
498.78	21.51
498.981	21.19
499.181	21.06
499.382	21.05
499.582	20.67
499.782	20.87
499.983	20.54
500.183	20.37
500.383	20.42
500.584	19.72
500.784	20.26
500.984	19.99
501.184	20.74
501.385	21.12
501.585	21.08
501.785	21.44
501.985	21.38
502.185	21.23
502.386	21.37
502.586	21.65
502.786	22.66
502.986	22.44
503.186	22.56
503.386	22.3
503.586	22.14
503.786	22.26
503.987	22.06
504.187	21.82
504.387	22.41
504.587	22.52
504.787	22.83
504.987	22.56
505.187	22.43
505.387	22.13
505.587	21.88
505.786	22.01
505.986	21.71
506.186	21.46
506.386	21.62
506.586	21.37
506.786	21.11
506.986	20.32
507.186	20.64
507.386	20.7
507.585	21.11
507.785	21.13
507.985	20.97
508.185	21.11
508.384	21.56
508.584	21.7
508.784	21.71
508.984	21.97
509.183	22.13
509.383	21.61
509.583	21.76
509.782	21.65
509.982	22.01
510.182	21.93
510.381	22.4
510.581	22.55
510.781	22.58
510.98	22.54
511.18	22.53
511.379	22.62
511.579	22.87
511.778	22.76
511.978	22.45
512.177	22.18
512.377	22.48
512.576	22.12
512.776	22.25
512.975	22.49
513.175	22.56
513.374	22.74
513.573	22.89
513.773	23.11
513.972	23.52
514.172	23.44
514.371	23.6
514.57	23.66
514.77	23.7
514.969	23.14
515.168	23.01
515.367	22.89
515.567	22.6
515.766	22.23
515.965	22.1
516.164	21.35
516.364	21.55
516.563	21.55
516.762	21.7
516.961	21.91
517.16	22.18
517.359	22.22
517.559	22.21
517.758	22.37
517.957	22.79
518.156	22.75
518.355	23.35
518.554	23.5
518.753	23.18
518.952	23.1
519.151	23.03
519.35	22.77
519.549	22.6
519.748	23.05
519.947	22.86
520.146	22.31
520.345	22.14
520.544	22.1
520.743	22.07
520.942	22.46
521.141	22.2
521.339	22.13
521.538	22.09
521.737	22.26
521.936	21.96
522.135	22.51
522.333	22.84
522.532	23.13
522.731	22.77
522.93	22.84
523.129	22.56
523.327	22.78
523.526	22.77
523.725	23.2
523.923	23.42
524.122	23.57
524.321	23.35
524.519	23.85
524.718	24
524.917	24.34
525.115	24.43
525.314	24.77
525.512	24.67
525.711	25.21
525.909	25.17
526.108	24.83
526.306	24.7
526.505	24.78
526.703	24.29
526.902	24.11
527.1	24.01
527.299	23.88
527.497	23.93
527.696	24.18
527.894	23.93
528.092	23.77
528.291	23.86
528.489	23.74
528.688	23.7
528.886	23.82
529.084	23.91
529.283	23.96
529.481	23.86
529.679	23.59
529.877	23.45
530.076	23.46
530.274	23.86
530.472	23.95
530.67	24.27
530.869	24.13
531.067	24.4
531.265	24.5
531.463	24.55
531.661	25.08
531.859	25.55
532.057	25.63
532.255	25.55
532.454	25.25
532.652	25.43
532.85	25.5
533.048	25.68
533.246	25.59
533.444	25.51
533.642	25.58
533.84	25.31
534.038	25.3
534.236	25.11
534.434	25.29
534.632	25.6
534.83	25.71
535.027	25.59
535.225	25.49
535.423	25.46
535.621	25.46
535.819	25.25
536.017	25.36
536.215	25.3
536.412	25.62
536.61	25.87
536.808	25.47
537.006	25.07
537.203	25.18
537.401	25.47
537.599	25.72
537.797	25.89
537.994	25.72
538.192	25.74
538.39	25.63
538.587	25.29
538.785	24.95
538.983	25.29
539.18	25.41
539.378	25.45
539.575	25.57
539.773	25.79
539.97	25.9
540.168	26.43
540.366	26.34
540.563	26.33
540.761	26.51
540.958	26.47
541.155	26.72
541.353	26.94
541.55	27.26
541.748	27.11
541.945	26.87
542.143	27.03
542.34	26.96
542.537	27.24
542.735	27.46
542.932	27.57
543.129	27.92
543.327	27.93
543.524	27.84
543.721	27.33
543.919	27.52
544.116	27.9
544.313	27.84
544.51	27.89
544.708	28.01
544.905	27.88
545.102	27.92
545.299	27.73
545.496	27.43
545.693	27.6
545.891	28.09
546.088	28.06
546.285	27.81
546.482	28.26
546.679	28.3
546.876	28.28
547.073	28.21
547.27	28.16
547.467	28.58
547.664	29.22
547.861	29.03
548.058	29
548.255	29.41
548.452	29.99
548.649	29.94
548.846	29.79
549.043	29.79
549.24	30.04
549.437	30.33
549.633	29.82
549.83	29.27
550.027	29.2
550.224	29.49
550.421	29.23
550.618	29.23
550.814	28.81
551.011	29.55
551.208	30.06
551.405	30.53
551.601	30.4
551.798	30.38
551.995	30.12
552.191	31.06
552.388	31.14
552.585	31.3
552.781	31.23
552.978	31.14
553.175	31.23
553.371	31.06
553.568	30.28
553.764	30.19
553.961	30.59
554.157	31
554.354	30.46
554.55	30.57
554.747	30.57
554.943	30.62
555.14	30.72
555.336	30.15
555.533	30.1
555.729	31.13
555.926	31.1
556.122	31.4
556.318	31.11
556.515	30.76
556.711	30.61
556.907	31.03
557.104	30.77
557.3	31.52
557.496	32.5
557.693	32.27
557.889	32.83
558.085	33.52
558.281	33.44
558.478	33.99
558.674	35.02
558.87	35.25
559.066	35.29
559.262	35.14
559.459	34.85
559.655	34.07
559.851	35.1
560.047	34.16
560.243	33.73
560.439	33.57
560.635	34.18
560.831	33.54
561.027	33.75
561.223	33.71
561.419	34.35
561.615	34.53
561.811	34.83
562.007	34.61
562.203	34.98
562.399	35.19
562.595	35.08
562.791	34.48
562.987	34.71
563.183	34.91
563.379	35.23
563.575	35.39
563.771	35.62
563.966	35.45
564.162	34.84
564.358	34.64
564.554	34.75
564.75	34.95
564.945	35.26
565.141	35.25
565.337	34.8
565.533	34.64
565.728	34.77
565.924	34.62
566.12	34.84
566.315	35.21
566.511	35.15
566.707	35.99
566.902	36.07
567.098	35.87
567.293	36.02
567.489	36.52
567.684	36.84
567.88	36.55
568.076	36.32
568.271	36.56
568.467	37.35
568.662	37.2
568.858	36.42
569.053	36.5
569.248	36.19
569.444	36.18
569.639	35.57
569.835	35.17
570.03	35.62
570.225	35.51
570.421	35.08
570.616	34.92
570.812	35.54
571.007	35.69
571.202	36.2
571.397	36.53
571.593	36.99
571.788	37.19
571.983	37.39
572.178	37.14
572.374	37.2
572.569	37.28
572.764	36.97
572.959	37.02
573.154	37.25
573.35	36.66
573.545	36.56
573.74	36
573.935	36.27
574.13	36
574.325	35.94
574.52	37.02
574.715	37.5
574.91	37.53
575.105	37.81
575.3	37.87
575.495	38.04
575.69	38.37
575.885	38.65
576.08	38.5
576.275	39.65
576.47	39.62
576.665	38.73
576.86	38.76
577.055	38.08
577.25	38.04
577.444	37.71
577.639	38.13
577.834	37.86
578.029	37.78
578.224	37.56
578.418	37.29
578.613	37.5
578.808	37.9
579.003	38.21
579.197	39.08
579.392	39.22
579.587	39.06
579.781	39.11
579.976	40.08
580.171	40.68
580.365	41.53
580.56	41.11
580.755	41.19
580.949	40.61
581.144	40.15
581.338	40.61
581.533	40.64
581.727	41.51
581.922	41.84
582.116	42.06
582.311	42.13
582.505	41.38
582.7	41.2
582.894	41.26
583.089	41.5
583.283	41.92
583.478	41.11
583.672	41.27
583.866	40.91
584.061	41.33
584.255	39.96
584.449	39.85
584.644	40.53
584.838	41.42
585.032	41.93
585.226	42.68
585.421	42.53
585.615	43.59
585.809	43.74
586.003	43.85
586.198	43.72
586.392	44.14
586.586	44.46
586.78	44.39
586.974	44.38
587.168	43.73
587.363	43.07
587.557	43.45
587.751	43.09
587.945	43.02
588.139	42.5
588.333	41.96
588.527	42.2
588.721	42.31
588.915	42.07
589.109	41.01
589.303	41.12
589.497	41.79
589.691	41.32
589.885	41.87
590.079	41.2
590.273	42
590.466	42.1
590.66	42.58
590.854	42.38
591.048	43
591.242	44.03
591.436	44.8
591.629	44.75
591.823	45.06
592.017	45.31
592.211	46.1
592.404	45.34
592.598	45.26
592.792	45.22
592.986	45.51
593.179	45.13
593.373	45.16
593.567	44.47
593.76	44.41
593.954	44.45
594.147	44.06
594.341	44.05
594.535	45.25
594.728	45.4
594.922	45.08
595.115	44.62
595.309	44.61
595.502	44.5
595.696	44.63
595.889	44.75
596.083	44.53
596.276	44.39
596.47	44.16
596.663	43.92
596.856	43.3
597.05	43.4
597.243	43.37
597.437	43.78
597.63	43.83
597.823	44.27
598.017	44.72
598.21	45.5
598.403	45.82
598.596	46.13
598.79	46.51
598.983	47.46
599.176	48.19
599.369	48.03
599.563	48.02
599.756	47.81
599.949	47.28
600.142	46.8
600.335	46.71
600.528	46.39
600.722	45.94
600.915	45.33
601.108	45.29
601.301	45.42
601.494	45.65
601.687	45.71
601.88	46.07
602.073	46.45
602.266	46.19
602.459	45.1
602.652	45.49
602.845	45.49
603.038	45.68
603.231	45.86
603.424	45.11
603.617	45.79
603.809	45.5
604.002	45.08
604.195	45.49
604.388	45.34
604.581	46.18
604.774	45.91
604.966	45.96
605.159	45.99
605.352	46.15
605.545	47.06
605.737	46.96
605.93	47.48
606.123	47.47
606.316	47.04
606.508	47.86
606.701	47.26
606.894	46.86
607.086	46.63
607.279	46.39
607.471	45.63
607.664	45.28
607.857	45.45
608.049	44.9
608.242	45.62
608.434	45.69
608.627	45.26
608.819	45.73
609.012	45.64
609.204	46.71
609.397	46.83
609.589	47.11
609.782	47.44
609.974	47.31
610.166	47.62
610.359	47.41
610.551	47.93
610.743	48.77
610.936	48.89
611.128	49.02
611.32	48.59
611.513	48.81
611.705	49.75
611.897	49.49
612.09	49.62
612.282	50.23
612.474	50.16
612.666	49.7
612.858	49.81
613.051	51.01
613.243	52.41
613.435	52.7
613.627	52.63
613.819	52.05
614.011	52.33
614.203	52.43
614.395	51.86
614.588	52.44
614.78	51.87
614.972	51.38
615.164	49.5
615.356	48.31
615.548	47.63
615.74	48.1
615.932	48.6
616.124	48.98
616.315	48.45
616.507	48.97
616.699	49.3
616.891	50.1
617.083	50.44
617.275	51.51
617.467	52.14
617.659	52.88
617.85	52.85
618.042	53.03
618.234	53.05
618.426	52.94
618.618	52.75
618.809	51.9
619.001	51.5
619.193	51.1
619.384	51.26
619.576	51.87
619.768	52.17
619.959	52.38
620.151	51.61
620.343	51.77
620.534	52.71
620.726	52.65
620.917	52.22
621.109	52.33
621.301	52
621.492	51.42
621.684	51.56
621.875	52.38
622.067	51.98
622.258	52.29
622.45	51.76
622.641	51.89
622.832	52.78
623.024	53.55
623.215	53.72
623.407	53.98
623.598	54.11
623.789	54.46
623.981	53.52
624.172	54.62
624.363	55.17
624.555	54.54
624.746	54.9
624.937	54.31
625.129	54.28
625.32	53.6
625.511	54.25
625.702	54.18
625.893	52.91
626.085	52.31
626.276	50.87
626.467	50.84
626.658	50.95
626.849	50.42
627.04	50.41
627.231	50.07
627.422	50.59
627.614	50.11
627.805	50.19
627.996	51.13
628.187	51.28
628.378	52.11
628.569	51.7
628.76	52.38
628.951	52.45
629.142	52.73
629.332	53.83
629.523	54.52
629.714	54.88
629.905	55.56
630.096	55.39
630.287	55.78
630.478	55.48
630.669	55.07
630.859	54.13
631.05	53.91
631.241	54.06
631.432	53.58
631.623	52.55
631.813	52.54
632.004	51.65
632.195	51.04
632.385	50.89
632.576	51.67
632.767	52.5
632.957	53.33
633.148	53.62
633.339	53.41
633.529	53.77
633.72	54.88
633.91	53.95
634.101	53.88
634.292	53.82
634.482	53.61
634.673	52.08
634.863	52.54
635.054	53.1
635.244	52.73
635.435	52.83
635.625	52.85
635.815	52.78
636.006	54.61
636.196	54.74
636.387	54.92
636.577	54.66
636.767	56.21
636.958	54.92
637.148	53.79
637.338	53.88
637.529	54.76
637.719	55.32
637.909	55.01
638.099	53.57
638.29	54.74
638.48	55.8
638.67	56.24
638.86	56.88
639.05	57.99
639.241	58.86
639.431	59.9
639.621	58.97
639.811	58.2
640.001	58.12
640.191	58.99
640.381	58.41
640.571	58.01
640.761	59.08
640.951	58.31
641.141	57.41
641.331	56.82
641.521	56.61
641.711	55.9
641.901	56.37
642.091	57.2
642.281	56.61
642.471	57.15
642.661	56.94
642.851	56.73
643.041	57.67
643.231	58.62
643.42	59.54
643.61	60.35
643.8	60.73
643.99	60.81
644.18	59.83
644.369	59.82
644.559	59.64
644.749	59.2
644.939	59.36
645.128	59.44
645.318	58.61
645.508	59.07
645.697	59.18
645.887	59.33
646.076	59.33
646.266	59.8
646.456	60.39
646.645	61.2
646.835	62.4
647.024	61.99
647.214	61.96
647.403	62.98
647.593	61.34
647.782	61.09
647.972	61.3
648.161	61.33
648.351	61.38
648.54	62.03
648.73	61.49
648.919	60.44
649.108	60.81
649.298	59.94
649.487	59.24
649.677	60.9
649.866	60.09
650.055	60.6
650.244	60.72
650.434	60.44
650.623	59.14
650.812	58.94
651.002	59.45
651.191	59.86
651.38	59.21
651.569	60.25
651.758	60.12
651.947	59.79
652.137	58.97
652.326	58.29
652.515	58.82
652.704	59.49
652.893	59.73
653.082	59.91
653.271	58.94
653.46	60.51
653.649	60.35
653.838	59.57
654.027	60.5
654.216	60.52
654.405	61.74
654.594	61.8
654.783	62.22
654.972	61.91
655.161	62.18
655.35	62.53
655.539	62.2
655.728	62.47
655.916	63.22
656.105	62.79
656.294	63.48
656.483	62.77
656.672	61.35
656.86	60.88
657.049	60.68
657.238	61.25
657.427	60.31
657.615	59.51
657.804	58.64
657.993	58.57
658.181	59.33
658.37	59.82
658.559	59.39
658.747	59.88
658.936	59.41
659.125	61.29
659.313	60.88
659.502	62.03
659.69	62.56
659.879	64.27
660.067	63.88
660.256	62.85
660.444	62.11
660.633	63.04
660.821	64.21
661.01	65.15
661.198	64.61
661.387	65.5
661.575	65.39
661.763	66.25
661.952	65.24
662.14	65.98
662.328	66.78
662.517	66.62
662.705	66.5
662.893	64.72
663.082	64.67
663.27	63.35
663.458	62.44
663.646	62.41
663.834	63.01
664.023	62.21
664.211	61.17
664.399	62.26
664.587	63.15
664.775	64.1
664.963	65.51
665.152	65.59
665.34	64.82
665.528	63.74
665.716	63.41
665.904	63.29
666.092	64.33
666.28	63.93
666.468	63.64
666.656	63.19
666.844	61.22
667.032	61.46
667.22	61.48
667.408	61.61
667.596	63.16
667.784	63.84
667.971	62.81
668.159	61.68
668.347	62.92
668.535	61.77
668.723	62.25
668.911	63.08
669.098	63.08
669.286	64.34
669.474	66.49
669.662	66.31
669.849	64.96
670.037	65.35
670.225	67.12
670.413	66.7
670.6	67.37
670.788	66.99
670.976	67.7
671.163	68.05
671.351	67.37
671.538	66.85
671.726	67.34
671.913	68.39
672.101	68.87
672.289	69.52
672.476	70.1
672.664	68.71
672.851	69.47
673.039	69.12
673.226	68.87
673.413	69.22
673.601	68.54
673.788	66.67
673.976	67.37
674.163	66.75
674.35	65.01
674.538	64.55
674.725	65.44
674.912	64.65
675.1	63.53
675.287	64.44
675.474	64.58
675.662	64.72
675.849	66.08
676.036	65.51
676.223	65.75
676.411	66.33
676.598	66.97
676.785	67.08
676.972	67.6
677.159	69.34
677.346	68.83
677.533	68.22
677.721	68.1
677.908	68.48
678.095	68.28
678.282	67.63
678.469	67.62
678.656	67.81
678.843	66.86
679.03	66.01
679.217	65.83
679.404	65.74
679.591	65.42
679.778	65.94
679.964	65.18
680.151	65.78
680.338	66.54
680.525	66.33
680.712	65.97
680.899	66.11
681.086	67.42
681.272	66.76
681.459	66.34
681.646	67.33
681.833	66.27
682.02	66.35
682.206	66.59
682.393	66.08
682.58	66.03
682.766	65.76
682.953	65.92
683.14	66.19
683.326	65.14
683.513	64.07
683.7	64.56
683.886	64.95
684.073	66.3
684.259	65.98
684.446	66.44
684.632	67.47
684.819	68.3
685.005	68.68
685.192	68.91
685.378	70.56
685.565	71.3
685.751	70.11
685.938	70.21
686.124	68.86
686.31	69.46
686.497	68.85
686.683	66.87
686.87	65.52
687.056	65.55
687.242	64.95
687.429	65.13
687.615	66.67
687.801	66.81
687.987	67.51
688.174	68.03
688.36	69.05
688.546	69.4
688.732	71.64
688.918	73.36
689.105	73.55
689.291	75.46
689.477	74.81
689.663	73.09
689.849	72.28
690.035	72.04
690.221	72.47
690.407	70.59
690.593	70.8
690.779	68.87
690.965	68.99
691.151	69.48
691.337	68
691.523	70.15
691.709	70.48
691.895	70.68
692.081	69.36
692.267	70.86
692.453	71.97
692.639	70.47
692.825	71.84
693.011	71.58
693.196	72.24
693.382	72.26
693.568	71.44
693.754	72.5
693.94	73.95
694.125	73.35
694.311	72.78
694.497	71.56
694.682	74.58
694.868	74.75
695.054	73.94
695.239	73.09
695.425	71.05
695.611	70.81
695.796	70.65
695.982	69.72
696.168	72.12
696.353	70.64
696.539	69.94
696.724	69.83
696.91	69.22
697.095	69.41
697.281	69.09
697.466	69.7
697.652	68.75
697.837	69.29
698.023	68.21
698.208	67.73
698.393	68.16
698.579	68.14
698.764	66.22
698.949	65.73
699.135	66.3
699.32	67.87
699.505	67.16
699.691	67.6
699.876	65.45
700.061	67.37
700.246	65.49
700.432	66.18
700.617	68.16
700.802	69.78
700.987	71.34
701.172	71.1
701.358	70.14
701.543	73.4
701.728	74.29
701.913	76.73
702.098	76.81
702.283	79.5
702.468	78.47
702.653	77.27
702.838	76.61
703.023	73.6
703.208	73.87
703.393	72.94
703.578	71.52
703.763	69.95
703.948	67.98
704.133	66.86
704.318	66.79
704.503	68.79
704.688	68.47
704.873	68.72
705.057	71.83
705.242	70.51
705.427	72.45
705.612	73.82
705.797	75.55
705.981	74.52
706.166	75.57
706.351	75.97
706.536	74.65
706.72	76.16
706.905	77.51
707.09	76.98
707.274	78.11
707.459	79.3
707.644	78.81
707.828	78.57
708.013	81.44
708.197	82.16
708.382	81.82
708.567	81.63
708.751	81.14
708.936	78.78
709.12	79.41
709.305	79.3
709.489	77.86
709.673	75.3
709.858	75.67
710.042	75.47
710.227	76.86
710.411	77.48
710.596	77.28
710.78	76.61
710.964	78.5
711.149	76.9
711.333	78.17
711.517	76.99
711.702	77.22
711.886	76.62
712.07	75.87
712.254	72.92
712.438	71.99
712.623	71.28
712.807	72.28
712.991	73.22
713.175	74.81
713.359	74.25
713.544	75.71
713.728	78.15
713.912	77.78
714.096	77.93
714.28	78.96
714.464	79.52
714.648	81.02
714.832	79.5
715.016	78.48
715.2	77.18
715.384	76.57
715.568	75.75
715.752	76.29
715.936	76.35
716.12	77.44
716.304	77.65
716.488	76.98
716.671	76.94
716.855	76.99
717.039	75.5
717.223	76.37
717.407	77.23
717.59	76.92
717.774	76.31
717.958	77.89
718.142	77.22
718.325	74.81
718.509	77.69
718.693	75.27
718.877	76.21
719.06	77.71
719.244	78.28
719.428	78.17
719.611	79.22
719.795	76.63
719.978	73.75
720.162	74.54
720.345	77.02
720.529	73.45
720.713	75.15
720.896	74.96
721.08	73.76
721.263	72.22
721.446	72.93
721.63	72.87
721.813	73.66
721.997	76.64
722.18	78.43
722.364	79.28
722.547	81.37
722.73	82.83
722.914	80.33
723.097	82.19
723.28	84.67
723.464	81.04
723.647	82.97
723.83	83.18
724.013	81.63
724.197	79.4
724.38	77.9
724.563	77.55
724.746	77.46
724.929	80.31
725.112	78.28
725.296	79.51
725.479	81.6
725.662	81.75
725.845	81.55
726.028	80.74
726.211	82.09
726.394	82.27
726.577	83.85
726.76	82.82
726.943	83.49
727.126	85.94
727.309	82.34
727.492	81.97
727.675	78.3
727.858	78.57
728.041	78.4
728.224	78.05
728.407	78.82
728.589	76.04
728.772	74.45
728.955	74.31
729.138	72.52
729.321	71.83
729.503	72.54
729.686	73.59
729.869	73.51
730.052	75.61
730.234	73.91
730.417	75.43
730.6	74.84
730.782	77.39
730.965	74.16
731.148	73.85
731.33	73.87
731.513	74.22
731.695	73.6
731.878	73.6
732.061	71.74
732.243	72.34
732.426	68.92
732.608	70.7
732.791	69.68
732.973	73.05
733.156	74.92
733.338	75
733.52	73.95
733.703	75.85
733.885	76.95
734.068	80.88
734.25	81.22
734.432	83.34
734.615	83.53
734.797	83.34
734.979	82.3
735.162	83.43
735.344	85.35
735.526	85.21
735.708	85.53
735.891	87.11
736.073	85.84
736.255	86.51
736.437	85.62
736.619	85.22
736.802	83.58
736.984	81.97
737.166	79.79
737.348	78.51
737.53	79.04
737.712	79.62
737.894	77.14
738.076	78.19
738.258	80.29
738.44	80.19
738.622	79.12
738.804	80.41
738.986	81.45
739.168	82.73
739.35	84.97
739.532	88.03
739.714	87.47
739.896	87.31
740.078	84.93
740.259	82.85
740.441	86.12
740.623	90.36
740.805	90.86
740.987	91.09
741.168	90.16
741.35	88.13
741.532	89.03
741.714	87.09
741.895	88.97
742.077	89.44
742.259	90.2
742.44	86.47
742.622	82.66
742.804	85.4
742.985	85.21
743.167	84.68
743.348	88.51
743.53	82.79
743.711	83.28
743.893	88.99
744.075	90.59
744.256	88.73
744.438	94.48
744.619	96.75
744.8	94.1
744.982	95.97
745.163	95.41
745.345	91.6
745.526	93.92
745.707	92.5
745.889	84.25
746.07	84.92
746.252	84.43
746.433	81.37
746.614	78.86
746.795	80.41
746.977	79.34
747.158	82.47
747.339	82.66
747.52	83.11
747.702	84.56
747.883	84.93
748.064	83.68
748.245	84.37
748.426	87.41
748.607	89.25
748.788	86.25
748.97	86.82
749.151	84.9
749.332	86.58
749.513	85.22
749.694	84.84
749.875	82
750.056	84.51
750.237	84.96
750.418	85.63
750.599	85.15
750.78	86.98
750.96	88.97
751.141	87.2
751.322	86.56
751.503	87.16
751.684	85.81
751.865	84.99
752.046	83.15
752.226	82.57
752.407	78.03
752.588	79.41
752.769	77.38
752.949	77.16
753.13	81.72
753.311	79.8
753.492	78.33
753.672	83.57
753.853	88.46
754.034	86.22
754.214	89.12
754.395	90.42
754.575	89.74
754.756	94.9
754.937	95.31
755.117	94.02
755.298	93.31
755.478	94.93
755.659	92.52
755.839	90.59
756.02	93.6
756.2	90.2
756.381	91.56
756.561	89.5
756.741	87.48
756.922	89.98
757.102	87.02
757.283	84.91
757.463	88.97
757.643	86.39
757.823	85.76
758.004	82.52
758.184	81.3
758.364	82.3
758.545	84.05
758.725	87.96
758.905	85.3
759.085	90.09
759.265	93.34
759.446	88.16
759.626	89.61
759.806	91.49
759.986	95.36
760.166	95.94
760.346	93.71
760.526	97.37
760.706	92.07
760.886	89.9
761.066	83.82
761.246	82.95
761.426	83.6
761.606	81.52
761.786	81.63
761.966	80.58
762.146	80.82
762.326	80.95
762.506	76.66
762.686	76.5
762.866	77.24
763.046	79.19
763.225	80.31
763.405	79.11
763.585	81.54
763.765	82.07
763.945	82.19
764.124	83.1
764.304	83.66
764.484	86.63
764.664	87.43
764.843	88.82
765.023	87.1
765.203	85.86
765.382	84.97
765.562	81.37
765.741	79.37
765.921	78.77
766.101	79.59
766.28	79.43
766.46	77.81
766.639	78.95
766.819	76.58
766.998	78.84
767.178	80.91
767.357	80.8
767.537	82.32
767.716	80.46
767.896	81.25
768.075	79.28
768.254	82.23
768.434	84.62
768.613	85.49
768.792	87.69
768.972	88.71
769.151	89.43
769.33	95.07
769.51	97.1
769.689	101.22
769.868	101.73
770.047	99.03
770.226	99.46
770.406	97.58
770.585	96.49
770.764	96.06
770.943	92.98
771.122	90.75
771.301	93.2
771.48	95.36
771.66	96.35
771.839	94.23
772.018	99.21
772.197	96.72
772.376	98.26
772.555	98.25
772.734	103.38
772.913	107.93
773.092	106.63
773.271	106.06
773.449	99.58
773.628	100.53
773.807	105.85
773.986	106.37
774.165	105.21
774.344	101.47
774.523	101.38
774.701	95.99
774.88	92.75
775.059	98.66
775.238	95.77
775.417	106.34
775.595	105.64
775.774	99.09
775.953	98.21
776.131	103.15
776.31	109.21
776.489	107.36
776.667	108.95
776.846	109.43
777.025	103.37
777.203	101.24
777.382	99.4
777.56	99.91
777.739	104.06
777.917	106.59
778.096	103.74
778.274	99.55
778.453	102.29
778.631	100.94
778.81	101.97
778.988	109.7
779.166	105.84
779.345	99.36
779.523	93.47
779.702	92.79
779.88	92.6
780.058	90.42
780.237	95.87
780.415	93.09
780.593	92.61
780.771	93.92
780.95	94.42
781.128	97.79
781.306	98.02
781.484	102.66
781.662	101.59
781.841	101.91
782.019	102.97
782.197	101.45
782.375	100.96
782.553	100.18
782.731	97.21
782.909	93.38
783.087	93.15
783.265	92.35
783.443	89.37
783.621	86.34
783.799	79.81
783.977	80.7
784.155	84.02
784.333	88.86
784.511	89.41
784.689	91.29
784.867	95.76
785.045	100.51
785.223	98.65
785.4	96.79
785.578	99.77
785.756	107.7
785.934	108.14
786.112	106.81
786.289	106.55
786.467	106.62
786.645	108.41
786.823	106.55
787	101.98
787.178	105.63
787.356	104.48
787.533	102.79
787.711	100.93
787.889	99.01
788.066	96.09
788.244	92.77
788.421	91.83
788.599	88.55
788.776	87.27
788.954	86.98
789.131	87.77
789.309	91.04
789.486	91.23
789.664	91.94
789.841	91.99
790.019	90.41
790.196	90.3
790.373	89.01
790.551	88.59
790.728	88.58
790.906	92.85
791.083	91
791.26	94.54
791.437	95.88
791.615	94.51
791.792	99.56
791.969	102.51
792.146	103.56
792.324	112.51
792.501	113.75
792.678	114.15
792.855	109.56
793.032	114.05
793.209	111.83
793.387	111.4
793.564	115.12
793.741	117.39
793.918	109.38
794.095	98.9
794.272	87.42
794.449	91.86
794.626	88.56
794.803	90.34
794.98	95.16
795.157	92.09
795.334	94.73
795.511	98.72
795.688	90.56
795.864	100.49
796.041	113.13
796.218	127.49
796.395	128.96
796.572	146.65
796.749	142.27
796.925	131.67
797.102	130.34
797.279	130.41
797.456	113.98
797.632	116.42
797.809	108.2
797.986	110.06
798.162	108.57
798.339	105.14
798.516	94.94
798.692	95.11
798.869	100.05
799.046	97.46
799.222	92.44
799.399	95.5
799.575	92.51
799.752	99.09
799.928	92.62
800.105	90.71
800.281	91.47
800.458	95.58
800.634	101.32
800.811	100.19
800.987	101.75
801.163	111
801.34	120.24
801.516	131.69
801.692	123.68
801.869	131.15
802.045	124.2
802.221	122.68
802.398	115.44
802.574	111.47
802.75	110.18
802.926	113.78
803.103	104.38
803.279	102.42
803.455	92.63
803.631	92.82
803.807	93.09
803.983	100.31
804.16	101.17
804.336	96.29
804.512	89.18
804.688	95.75
804.864	92.59
805.04	93.55
805.216	97.01
805.392	104.08
805.568	104.26
805.744	95.07
805.92	94.18
806.096	93.2
806.272	106.97
806.448	113.83
806.623	109.09
806.799	109.21
806.975	113.18
807.151	109.78
807.327	102.88
807.503	92.82
807.678	102.83
807.854	94.76
808.03	97.06
808.206	93
808.381	88.84
808.557	81.61
808.733	85.06
808.908	71.9
809.084	70.02
809.26	79.02
809.435	89.97
809.611	87.42
809.787	88.72
809.962	93.89
810.138	88.94
810.313	95.75
810.489	102.06
810.664	105.49
810.84	116.94
811.015	112.44
811.191	103.66
811.366	108.41
811.542	100.43
811.717	99.6
811.892	93.48
812.068	104.13
812.243	97.45
812.419	96.78
812.594	97.99
812.769	93.64
812.944	88.05
813.12	92.91
813.295	82.86
813.47	89.44
813.645	94.28
813.821	96.93
813.996	82.66
814.171	85.04
814.346	88.03
814.521	79.65
814.697	84.06
814.872	101.3
815.047	108.25
815.222	107.38
815.397	99.79
815.572	95.15
815.747	92.63
815.922	92.07
816.097	90.1
816.272	89.74
816.447	94.1
816.622	94.54
816.797	90.32
816.972	89.38
817.147	89.18
817.322	97.21
817.496	94.21
817.671	95.12
817.846	101.49
818.021	102.99
818.196	100.38
818.371	98.01
818.545	91.92
818.72	81.47
818.895	74.22
819.069	73.82
819.244	74.82
819.419	78
819.594	78.66
819.768	72.9
819.943	73.57
820.117	68.64
820.292	68.5
820.467	67.15
820.641	67.66
820.816	64.57
820.99	63.36
821.165	58.79
821.339	56.98
821.514	56.43
821.688	56.22
821.863	55.4
822.037	55.73
822.212	55.73
822.386	55.97
822.56	56.1
822.735	57.16
822.909	57.13
823.084	58.9
823.258	59.65
823.432	59.62
823.606	59.23
823.781	58.97
823.955	59.4
824.129	60.44
824.303	60.35
824.478	59.09
824.652	60.83
824.826	60.66
825	60.28
825.174	60.87
825.348	60.46
825.523	64.67
825.697	64.68
825.871	63.81
826.045	63.59
826.219	62.62
826.393	64.34
826.567	61.95
826.741	63.18
826.915	63.37
827.089	64.79
827.263	65.12
827.437	63.95
827.611	63
827.784	64.77
827.958	63.72
828.132	66.03
828.306	66
828.48	67.99
828.654	69.82
828.827	69.34
829.001	69.08
829.175	70.98
829.349	74.48
829.522	82.15
829.696	83.13
829.87	89.07
830.044	91.51
830.217	96.91
830.391	96.42
830.565	97.86
830.738	106.31
830.912	97.33
831.085	103.41
831.259	97.08
831.432	86.25
831.606	91.32
831.779	91.17
831.953	92.19
832.126	89.68
832.3	85.04
832.473	80.37
832.647	79.01
832.82	85.77
832.994	79.01
833.167	76
833.34	78.95
833.514	79.96
833.687	78.77
833.86	75.76
834.034	76.28
834.207	82.31
834.38	84.11
834.553	85.33
834.727	79.77
834.9	78.81
835.073	83.66
835.246	87.1
835.419	90.92
835.593	85.4
835.766	85
835.939	91.01
836.112	80.57
836.285	83.96
836.458	76.76
836.631	88.99
836.804	99.08
836.977	96.7
837.15	91.29
837.323	82.02
837.496	80.09
837.669	84.64
837.842	82.1
838.015	84.71
838.188	73.94
838.361	81.4
838.533	77.77
838.706	72.16
838.879	66.96
839.052	75.85
839.225	81.61
839.398	99.59
839.57	93.01
839.743	79.79
839.916	77.33
840.088	86.45
840.261	80.77
840.434	78.66
840.607	90.97
840.779	94.21
840.952	89.07
841.124	79.88
841.297	80.17
841.47	82.95
841.642	90.21
841.815	104.18
841.987	125.02
842.16	120.39
842.332	126.52
842.505	119.04
842.677	115.37
842.85	117.76
843.022	123.87
843.194	114.63
843.367	128.06
843.539	142.7
843.712	139.86
843.884	130.44
844.056	163.43
844.229	193.68
844.401	276.04
844.573	265.83
844.745	346.28
844.918	695
845.09	-3263.5
845.262	-939.98
845.434	-2046.35
845.606	20777.14
845.779	2396.78
845.951	924.27
846.123	385.56
846.295	370.17
846.467	484.16
846.639	434.76
846.811	254.31
846.983	269.94
847.155	277.05
847.327	223.12
847.499	254.44
847.671	183.02
847.843	181.73
848.015	183.21
848.187	191.49
848.359	178.74
848.531	152.58
848.703	201.38
848.875	147.91
849.047	155.01
849.218	179.24
849.39	156.02
849.562	187.74
849.734	213.86
849.905	254.93
850.077	225.99
850.249	206.54
850.421	165.09
850.592	222.52
850.764	276.34
850.936	261.81
851.107	251
851.279	197.19
851.451	193.14
851.622	233.24
851.794	212.36
851.965	173.08
852.137	170.14
852.308	213
852.48	158.92
852.651	161.9
852.823	177.41
852.994	171.98
853.166	170.38
853.337	199.62
853.509	175.59
853.68	186.37
853.851	210.83
854.023	225.07
854.194	240.4
854.365	287.2
854.537	232.73
854.708	210.84
854.879	255.23
855.05	512.87
855.222	307.63
855.393	233.64
855.564	254.29
855.735	272.02
855.906	224.45
856.078	193.78
856.249	227.29
856.42	266.59
856.591	294.19
856.762	236.67
856.933	189.09
857.104	153.39
857.275	168.78
857.446	200.34
857.617	191.34
857.788	209.4
857.959	182.95
858.13	161.5
858.301	144.05
858.472	145.51
858.643	149.53
858.814	134.1
858.985	135.75
859.155	180.63
859.326	116.02
859.497	134.19
859.668	163.25
859.839	158.49
860.009	163.29
860.18	172.49
860.351	158.55
860.522	148.28
860.692	155.48
860.863	190.96
861.034	163.86
861.204	220.17
861.375	225.15
861.546	204.92
861.716	260.13
861.887	257.63
862.057	309.61
862.228	230.34
862.398	212.02
862.569	354.52
862.739	434.48
862.91	1445.33
863.08	723.58
863.251	303.36
863.421	220.69
863.592	205.6
863.762	214.58
863.932	229.09
864.103	394.62
864.273	560.72
864.443	2895.12
864.614	299.83
864.784	247.23
864.954	346.19
865.125	1995.68
865.295	-144.83
865.465	-234.69
865.635	-117.57
865.805	-115.76
865.976	-303.37
866.146	605.83
866.316	213.16
866.486	279.12
866.656	419.01
866.826	338.28
866.996	363.56
867.166	189.5
867.336	175.69
867.506	170.96
867.676	147.65
867.846	143.57
868.016	139.06
868.186	121.32
868.356	105.01
868.526	86.42
868.696	78.34
868.866	81.9
869.036	92.3
869.206	100.06
869.376	99.39
869.545	116.78
869.715	119.55
869.885	161
870.055	143.77
870.224	252.54
870.394	472.87
870.564	357.92
870.734	595.18
870.903	311.8
871.073	278.05
871.243	343.66
871.412	253.94
871.582	312.97
871.751	279.16
871.921	330.52
872.091	210.48
872.26	177.97
872.43	163.76
872.599	126.73
872.769	157.12
872.938	160.18
873.108	124.5
873.277	145.42
873.446	132.7
873.616	157.8
873.785	194.34
873.955	190.29
874.124	176.35
874.293	161.04
874.463	199.8
874.632	156.07
874.801	149.95
874.971	138.32
875.14	167.06
875.309	166.11
875.478	147.52
875.647	127.99
875.817	115.52
875.986	160.44
876.155	114.59
876.324	146.83
876.493	324
876.662	516.61
876.831	399.28
877	175.79
877.17	1760.7
877.339	279.63
877.508	368.61
877.677	1700.87
877.846	-23200
878.015	-949.88
878.184	453.41
878.352	617.25
878.521	303.5
878.69	722.51
878.859	331.25
879.028	210.64
879.197	201.9
879.366	194.84
879.534	169.36
879.703	134.21
879.872	106.06
880.041	90.14
880.21	84.37
880.378	84.78
880.547	80.3
880.716	79.91
880.884	73.77
881.053	71.79
881.222	66.49
881.39	60.06
881.559	56.63
881.727	58.84
881.896	58.99
882.065	55.62
882.233	53.54
882.402	52.64
882.57	51.12
882.739	51.2
882.907	48.24
883.076	51.73
883.244	53.28
883.412	54.09
883.581	53.57
883.749	53.45
883.918	54.97
884.086	56.62
884.254	63.43
884.423	60.4
884.591	63.23
884.759	69.36
884.927	72.7
885.096	67.34
885.264	71.6
885.432	83.38
885.6	77.02
885.769	84.44
885.937	83.16
886.105	76.79
886.273	95.19
886.441	99.88
886.609	95.61
886.777	92.14
886.945	98.25
887.113	94.04
887.281	87.81
887.449	94.43
887.617	88.91
887.785	103.71
887.953	102.33
888.121	84.22
888.289	77.45
888.457	79.51
888.625	77.42
888.793	107.79
888.961	145
889.129	115.85
889.296	95.67
889.464	95.22
889.632	79.75
889.8	80.14
889.967	93.04
890.135	103.54
