Data from JASIL_3235_Reflection_1.txt Node
Date: Mon Nov 16 20:14:24 EST 2015
User: Geneva
Spectrometer: USB4E03002
Autoset integration time: false
Trigger mode: 4
Integration Time (sec): 1.000000E-1
Scans to average: 10
Electric dark correction enabled: false
Nonlinearity correction enabled: false
Boxcar width: 5
Stray light correction enabled: false
XAxis mode: Wavelengths
Stop averaging: false
Number of Pixels in Spectrum: 3648
>>>>>Begin Spectral Data<<<<<
177.575	2062.75
177.794	3509.09
178.014	2034.09
178.233	1748.54
178.452	1188.21
178.672	2226.25
178.891	2603.85
179.11	2128.03
179.33	2297.14
179.549	1431.25
179.768	1494.37
179.987	974.72
180.207	770.24
180.426	1060.12
180.645	1188.55
180.864	1427.38
181.084	921.84
181.303	1178.09
181.522	1349.64
181.741	1041.76
181.96	862.14
182.179	1065.75
182.398	1443.59
182.618	5658.82
182.837	4764.2
183.056	4253.93
183.275	2375.62
183.494	4673.33
183.713	1924.73
183.932	1119.33
184.151	1668.87
184.37	1876.29
184.589	1659.82
184.808	1695.71
185.027	1065.62
185.246	899.05
185.465	958.23
185.684	1810.14
185.903	1313.93
186.122	1484.53
186.341	6265.62
186.56	2688.67
186.779	-5231.17
186.998	-4020.2
187.216	-2326.16
187.435	-9836.59
187.654	-5166.67
187.873	-6926.79
188.092	-10183.33
188.311	-37320
188.53	-3753.06
188.748	5314.86
188.967	-6424.59
189.186	4905.26
189.405	2315.29
189.623	1824.4
189.842	3536.19
190.061	5165.22
190.28	2177.11
190.498	2825
190.717	5120.59
190.936	3599.01
191.154	8109.3
191.373	4363.29
191.592	3830
191.81	4541.89
192.029	3794.57
192.248	-8712.82
192.466	-10773.53
192.685	-1531
192.904	-2226.8
193.122	-1562.33
193.341	-3632.22
193.559	-2172.08
193.778	-2971.93
193.996	6973.58
194.215	-7610.87
194.433	-1755.73
194.652	-1639.61
194.87	-1627.23
195.089	-3010.81
195.307	-1860.53
195.526	-2381.63
195.744	-1610.96
195.963	-1205.47
196.181	-896.35
196.399	-541.97
196.618	-466.87
196.836	-1015.64
197.055	-1028.33
197.273	-55883.33
197.491	-10348.48
197.71	2452.17
197.928	8692.5
198.146	5639.68
198.365	2476.62
198.583	1376
198.801	1005.88
199.019	646.38
199.238	900.48
199.456	816.26
199.674	1199.34
199.892	1088.86
200.111	1223.2
200.329	905.35
200.547	1155.73
200.765	1770
200.983	12265.52
201.202	-3421.15
201.42	-2892.86
201.638	-6063.93
201.856	14711.54
202.074	3615.89
202.292	8102.17
202.51	-6237.93
202.728	6314.55
202.946	3334.58
203.165	1811.62
203.383	1753.85
203.601	1361.09
203.819	2480.41
204.037	4997.26
204.255	10305.88
204.473	-5545.16
204.691	-15068.18
204.909	-18964.71
205.127	-2822.5
205.345	8032.56
205.562	2400
205.78	1411.81
205.998	1168.03
206.216	881.16
206.434	1049.44
206.652	1017.41
206.87	1190.94
207.088	943.1
207.306	1398.3
207.523	2209.84
207.741	6896.49
207.959	24606.25
208.177	-11138.89
208.395	-2266.06
208.612	-3225.41
208.83	3446.09
209.048	3423.48
209.266	380700
209.483	-3638.83
209.701	18815
209.919	2983.33
210.136	1291.45
210.354	876.48
210.572	683.6
210.79	544.12
211.007	495.85
211.225	592.44
211.442	600.49
211.66	467.48
211.878	499.87
212.095	423.7
212.313	425.82
212.53	567.71
212.748	670.26
212.966	855.17
213.183	1100.92
213.401	1045.01
213.618	1149.04
213.836	968.55
214.053	1081.17
214.271	667.09
214.488	760.08
214.705	848.01
214.923	661.51
215.14	1189.67
215.358	849.37
215.575	1140.69
215.793	1049.37
216.01	633.21
216.227	775.85
216.445	778.65
216.662	1027.62
216.879	1119.03
217.097	698.01
217.314	677.01
217.531	565.06
217.749	611.04
217.966	551.04
218.183	617.79
218.4	1389.77
218.618	1064.47
218.835	944.16
219.052	881.52
219.269	950.75
219.487	2520.27
219.704	3620.39
219.921	1866.5
220.138	1695.48
220.355	983.72
220.572	1769.91
220.79	1130.17
221.007	1251.62
221.224	1288
221.441	2032.43
221.658	1746.85
221.875	1598.77
222.092	2430.32
222.309	63250
222.526	3726.26
222.743	8361.9
222.96	1898.37
223.177	702.67
223.394	681.32
223.611	635.11
223.828	646.92
224.045	540.77
224.262	437.86
224.479	443.1
224.696	391.18
224.913	392.46
225.13	406.25
225.347	336.97
225.564	383.78
225.781	313.57
225.997	302.11
226.214	235.59
226.431	210.51
226.648	190.82
226.865	176.99
227.082	161.88
227.298	151.79
227.515	135.62
227.732	125.93
227.949	111.23
228.165	104.72
228.382	97.8
228.599	95.98
228.816	94.92
229.032	98.09
229.249	92.82
229.466	92.69
229.682	92.18
229.899	97.83
230.116	102.4
230.332	112.54
230.549	120.48
230.765	130.99
230.982	135.46
231.199	148.26
231.415	150.04
231.632	158.14
231.848	157.7
232.065	170.95
232.281	165.62
232.498	166.48
232.714	185.59
232.931	190.04
233.147	179.89
233.364	186.51
233.58	179.61
233.797	170.2
234.013	155.98
234.23	160.37
234.446	150.33
234.662	153.96
234.879	156.28
235.095	141.24
235.312	138.09
235.528	145.02
235.744	141.7
235.961	146.24
236.177	151.07
236.393	161.51
236.61	165.53
236.826	168.93
237.042	176.15
237.258	166.61
237.475	176.13
237.691	178.9
237.907	170.07
238.123	168.33
238.339	155.19
238.556	151.08
238.772	144.42
238.988	131.49
239.204	125.46
239.42	115.04
239.636	113.7
239.853	100.69
240.069	93.14
240.285	86
240.501	81.84
240.717	79.84
240.933	73.37
241.149	69.68
241.365	67.69
241.581	62.5
241.797	58.47
242.013	56.32
242.229	58.42
242.445	56.99
242.661	57.58
242.877	60.88
243.093	61.4
243.309	64.16
243.525	65.83
243.741	66.03
243.957	68.83
244.173	68.29
244.388	68.74
244.604	66.17
244.82	64.77
245.036	60.02
245.252	53.17
245.468	48.82
245.683	45.61
245.899	41.88
246.115	39.55
246.331	37.66
246.547	37.28
246.762	36.27
246.978	36.08
247.194	35.59
247.409	36.49
247.625	36.71
247.841	37.94
248.057	39.39
248.272	41.01
248.488	42.91
248.703	43.75
248.919	46.07
249.135	48.54
249.35	51.49
249.566	54.73
249.782	58.21
249.997	60.8
250.213	61.25
250.428	61.92
250.644	61.25
250.859	63.19
251.075	65.55
251.29	63.42
251.506	63.57
251.721	62.09
251.937	62.72
252.152	58.47
252.368	58.25
252.583	60.55
252.798	61.44
253.014	64.66
253.229	66.12
253.445	67.39
253.66	74.33
253.875	78.12
254.091	80.64
254.306	83.9
254.521	92.09
254.737	95.59
254.952	93.72
255.167	97.55
255.383	97.67
255.598	99.83
255.813	94.87
256.028	90.1
256.244	85.75
256.459	80.81
256.674	74.62
256.889	70.58
257.104	65.49
257.32	62.66
257.535	55.74
257.75	51.16
257.965	46.48
258.18	42.52
258.395	39.02
258.61	35.61
258.826	33.5
259.041	31.3
259.256	29.21
259.471	28.16
259.686	26.64
259.901	27.13
260.116	28.04
260.331	28.56
260.546	30.16
260.761	31.64
260.976	33.57
261.191	35.7
261.406	37.51
261.621	41.68
261.836	45.2
262.05	48.77
262.265	51.58
262.48	52.52
262.695	54.44
262.91	54.3
263.125	56.27
263.34	55.98
263.555	56.29
263.769	58.41
263.984	58.53
264.199	60.53
264.414	58.71
264.629	56.64
264.843	56.6
265.058	57.69
265.273	56.28
265.488	52.94
265.702	52.5
265.917	52.44
266.132	50.22
266.346	47.88
266.561	44.98
266.776	44.37
266.99	44.79
267.205	44.19
267.42	41.66
267.634	42.26
267.849	44.39
268.063	44.25
268.278	46.35
268.492	47
268.707	46.93
268.922	46.92
269.136	46.83
269.351	45.14
269.565	42.72
269.78	40.42
269.994	41
270.209	40.76
270.423	39.77
270.637	36.33
270.852	37.17
271.066	35.65
271.281	36.64
271.495	37.64
271.709	37.6
271.924	38.77
272.138	41.25
272.353	41.03
272.567	39.9
272.781	40.64
272.996	41.7
273.21	41.72
273.424	43.7
273.638	44.25
273.853	44.46
274.067	45.51
274.281	46.89
274.495	46.93
274.71	47.33
274.924	48.66
275.138	48.12
275.352	49.97
275.566	49.56
275.781	50.85
275.995	50.26
276.209	51.14
276.423	50.12
276.637	50.85
276.851	50.97
277.065	49.46
277.279	48.88
277.493	51.36
277.707	49.81
277.921	49.05
278.135	48.03
278.349	47.1
278.563	46.81
278.777	48.36
278.991	46.23
279.205	44.21
279.419	44.41
279.633	45.52
279.847	43.88
280.061	41.99
280.275	42.22
280.489	41.92
280.703	41.95
280.917	41.25
281.131	38.84
281.344	40.66
281.558	41
281.772	41.7
281.986	40.86
282.2	38.87
282.414	40.27
282.627	38.78
282.841	38.72
283.055	38.08
283.269	37.88
283.482	38.6
283.696	36.04
283.91	35.02
284.123	33.55
284.337	31.29
284.551	30.93
284.764	30.8
284.978	30.96
285.192	28.92
285.405	29.24
285.619	29.28
285.833	29.69
286.046	31.23
286.26	32.49
286.473	31.45
286.687	32.25
286.9	32.72
287.114	32.19
287.327	31.66
287.541	32.09
287.754	31.61
287.968	32.11
288.181	31.24
288.395	29.82
288.608	29.59
288.822	31.31
289.035	32.1
289.248	32.36
289.462	32.5
289.675	33.27
289.889	35.12
290.102	35.18
290.315	34.6
290.529	34.75
290.742	35.94
290.955	36.02
291.169	36.86
291.382	36.94
291.595	37.69
291.808	39.17
292.022	38.8
292.235	38.27
292.448	37.92
292.661	37.6
292.875	37.7
293.088	36.92
293.301	36.16
293.514	35.33
293.727	34.67
293.94	34.24
294.153	34.06
294.367	34.11
294.58	32.9
294.793	31.56
295.006	31.33
295.219	30.74
295.432	29.27
295.645	28.61
295.858	29.22
296.071	28.33
296.284	28.01
296.497	26.45
296.71	26.36
296.923	26.26
297.136	27.14
297.349	27.15
297.562	26.84
297.775	27.74
297.988	28.1
298.201	27.97
298.414	28.35
298.626	28.81
298.839	29.17
299.052	30.21
299.265	31.78
299.478	31.65
299.691	32.23
299.903	32.78
300.116	33.43
300.329	34.37
300.542	34.57
300.755	34.97
300.967	36.7
301.18	37.66
301.393	37.08
301.605	36.93
301.818	36.64
302.031	36.95
302.243	35.79
302.456	35.84
302.669	35.99
302.881	36.15
303.094	36.13
303.307	34.49
303.519	34.08
303.732	34.55
303.944	35.11
304.157	37.06
304.37	36.54
304.582	38.04
304.795	37.17
305.007	36.89
305.22	37.17
305.432	38.93
305.645	38.79
305.857	39.29
306.069	38.71
306.282	37.32
306.494	35.24
306.707	35.13
306.919	35.54
307.132	35.01
307.344	35.14
307.556	34.23
307.769	32.65
307.981	32.35
308.193	31.66
308.406	31.09
308.618	31.31
308.83	31.47
309.043	30.94
309.255	30.77
309.467	31.74
309.679	30.47
309.892	28.93
310.104	29
310.316	29.01
310.528	29.16
310.74	29.2
310.953	29.78
311.165	30.82
311.377	31.54
311.589	31.11
311.801	30.01
312.013	32.28
312.225	34.15
312.437	34.94
312.649	36.12
312.862	35.78
313.074	37.09
313.286	36.56
313.498	36.56
313.71	36.7
313.922	37.58
314.134	38.85
314.346	36.95
314.558	37.11
314.77	37.79
314.982	35.3
315.193	38.25
315.405	38.68
315.617	37.75
315.829	38.4
316.041	36.49
316.253	37.34
316.465	38.37
316.677	38.66
316.888	38.21
317.1	37.29
317.312	39.94
317.524	37.92
317.736	37.53
317.947	39.55
318.159	41.37
318.371	42.47
318.583	42.65
318.794	43.01
319.006	44.68
319.218	46.09
319.43	46.29
319.641	45.1
319.853	44.2
320.064	45.01
320.276	44.99
320.488	42.91
320.699	45.23
320.911	44.75
321.123	45.57
321.334	45.63
321.546	46.55
321.757	46.78
321.969	47.64
322.18	47.64
322.392	46.1
322.603	45.49
322.815	44.92
323.026	43.88
323.238	42.15
323.449	40.06
323.661	39.33
323.872	37.46
324.083	37.15
324.295	37.24
324.506	37.6
324.718	37.04
324.929	36
325.14	35.84
325.352	37
325.563	38.4
325.774	37.89
325.986	37.47
326.197	37.55
326.408	37.28
326.62	37.27
326.831	37.3
327.042	39.06
327.253	40.29
327.464	41.23
327.676	40.54
327.887	39.81
328.098	41.1
328.309	41.17
328.52	40.82
328.732	40.47
328.943	41.22
329.154	42.49
329.365	42.31
329.576	40.83
329.787	41.24
329.998	41.16
330.209	41.38
330.42	42.15
330.631	43.53
330.842	43.21
331.053	44
331.264	43.28
331.475	42.51
331.686	42.17
331.897	44.46
332.108	43.32
332.319	41.36
332.53	42.37
332.741	41.13
332.952	39.64
333.163	40.41
333.374	40.48
333.585	39.91
333.795	40
334.006	40.11
334.217	40.39
334.428	41.17
334.639	43.47
334.849	43.95
335.06	43.59
335.271	44.64
335.482	45.38
335.692	44.29
335.903	44.84
336.114	45.59
336.325	45.36
336.535	46.07
336.746	46.27
336.957	44.98
337.167	43.99
337.378	44.19
337.589	45.05
337.799	45.33
338.01	47.12
338.22	47.25
338.431	46.7
338.642	47.17
338.852	45.61
339.063	45.13
339.273	44.74
339.484	45.52
339.694	46.89
339.905	45.94
340.115	45.34
340.326	45.71
340.536	45.84
340.746	44.91
340.957	42.4
341.167	42.6
341.378	41.16
341.588	42.62
341.799	41.7
342.009	41.89
342.219	42
342.43	42.6
342.64	41.76
342.85	42.18
343.061	42.53
343.271	44.73
343.481	43.44
343.691	44.3
343.902	43.21
344.112	42.32
344.322	41.3
344.532	40.45
344.743	39.34
344.953	39
345.163	38.89
345.373	39.01
345.583	38.23
345.793	38.27
346.004	38.32
346.214	38.31
346.424	38.09
346.634	38.09
346.844	39.23
347.054	39.2
347.264	39
347.474	38.25
347.684	38.59
347.894	39.27
348.104	39.74
348.314	40.67
348.524	40.77
348.734	42.07
348.944	42.34
349.154	41.49
349.364	41.9
349.574	41.56
349.784	41.4
349.994	40.17
350.204	38.53
350.413	38.75
350.623	37.59
350.833	37.43
351.043	36.42
351.253	34.85
351.463	33.56
351.672	33.63
351.882	33.64
352.092	33.38
352.302	34.48
352.511	35.32
352.721	33.98
352.931	34.81
353.141	35.08
353.35	35.26
353.56	36.13
353.77	36.04
353.979	36.12
354.189	35.91
354.399	36.64
354.608	35.81
354.818	35.45
355.027	35.99
355.237	35.34
355.447	36.16
355.656	36.25
355.866	35.78
356.075	36.24
356.285	34.57
356.494	34.87
356.704	35.15
356.913	35.33
357.123	34.84
357.332	34.67
357.542	33.61
357.751	32.28
357.96	32.19
358.17	32.19
358.379	33.14
358.589	33.93
358.798	33.09
359.007	31.63
359.217	30.47
359.426	30.61
359.635	30.24
359.845	29.98
360.054	29.6
360.263	29.36
360.472	28.55
360.682	27.65
360.891	27.24
361.1	27.19
361.309	27.67
361.519	27.76
361.728	27.2
361.937	28.15
362.146	28.65
362.355	28.44
362.564	28.8
362.774	29.2
362.983	29.27
363.192	29.55
363.401	29.4
363.61	28.8
363.819	29.68
364.028	30.24
364.237	29.37
364.446	29.89
364.655	29.98
364.864	29.91
365.073	30.36
365.282	29.46
365.491	29.3
365.7	29.58
365.909	30.34
366.118	30.11
366.327	30.43
366.536	30.86
366.745	31.43
366.954	31.64
367.162	31.24
367.371	32.1
367.58	33.24
367.789	32.81
367.998	33.92
368.207	33.85
368.415	33.52
368.624	33.34
368.833	33.44
369.042	33.03
369.25	33.67
369.459	33.96
369.668	33.85
369.877	32.61
370.085	33.05
370.294	32.22
370.503	31.6
370.711	32.36
370.92	32.27
371.129	31.68
371.337	30.94
371.546	30.42
371.754	30.42
371.963	29.43
372.171	29.83
372.38	29.94
372.589	29.91
372.797	29.46
373.006	28.8
373.214	29.09
373.423	30
373.631	30.45
373.84	31.53
374.048	31.45
374.256	31.5
374.465	32.29
374.673	32.41
374.882	32.53
375.09	33.19
375.298	32.89
375.507	32.82
375.715	31.98
375.923	31.33
376.132	29.71
376.34	29.64
376.548	29.1
376.757	29.26
376.965	28.8
377.173	28.43
377.381	28.21
377.59	29.24
377.798	28.65
378.006	28.69
378.214	29.36
378.423	30.09
378.631	30.13
378.839	30.75
379.047	30.37
379.255	30.33
379.463	30.8
379.671	31.43
379.879	30.91
380.088	31.95
380.296	31.71
380.504	32.23
380.712	32.84
380.92	32.44
381.128	32.95
381.336	32.59
381.544	33
381.752	32.7
381.96	32.44
382.168	32.32
382.376	32.06
382.584	32.43
382.791	31.31
382.999	31.1
383.207	30.72
383.415	30.21
383.623	30.36
383.831	30.45
384.039	30.23
384.247	29.85
384.454	30.3
384.662	29.67
384.87	29.94
385.078	30.48
385.285	30.03
385.493	30.53
385.701	29.79
385.909	29.77
386.116	28.94
386.324	29.57
386.532	29.38
386.739	27.79
386.947	28.3
387.155	28.35
387.362	28.17
387.57	28.43
387.778	28.93
387.985	29.58
388.193	29.59
388.4	29.68
388.608	29.22
388.816	29.42
389.023	30.75
389.231	30.15
389.438	29.66
389.646	29.63
389.853	28.95
390.061	28.19
390.268	27.67
390.475	27.36
390.683	28.11
390.89	27.97
391.098	28.12
391.305	27.77
391.512	27.96
391.72	27.94
391.927	27.32
392.135	27.8
392.342	27.86
392.549	28.08
392.756	27.85
392.964	27.52
393.171	28.23
393.378	27.85
393.586	28.08
393.793	28.01
394	27.68
394.207	28.28
394.414	28.19
394.622	28.42
394.829	28.5
395.036	28.96
395.243	29.27
395.45	28.47
395.657	28.63
395.864	28.11
396.072	28.65
396.279	29.25
396.486	28.96
396.693	29.16
396.9	29.23
397.107	29.55
397.314	29.1
397.521	28.75
397.728	29.41
397.935	30.02
398.142	30.44
398.349	30.16
398.556	29.94
398.763	30.14
398.97	29.88
399.177	30.01
399.383	29.98
399.59	30.4
399.797	30.83
400.004	30.79
400.211	30.18
400.418	29.59
400.625	29.75
400.831	29.45
401.038	30.01
401.245	29.42
401.452	29.32
401.658	29.03
401.865	29.24
402.072	28.43
402.279	28.17
402.485	27.81
402.692	27.81
402.899	27.27
403.105	26.72
403.312	26.13
403.519	26.21
403.725	25.98
403.932	26.33
404.138	25.87
404.345	26.15
404.552	26.3
404.758	26.59
404.965	27.32
405.171	27.89
405.378	28.32
405.584	27.91
405.791	27.98
405.997	28.04
406.204	28.21
406.41	28.98
406.617	28.78
406.823	28.7
407.029	28.94
407.236	28.91
407.442	28.25
407.649	29.13
407.855	29.23
408.061	29.62
408.268	29.65
408.474	28.9
408.68	28.41
408.887	28.78
409.093	28.64
409.299	28.28
409.505	27
409.712	27.52
409.918	26.71
410.124	27.25
410.33	26.87
410.537	27.2
410.743	27.32
410.949	27.33
411.155	27.5
411.361	27.16
411.567	27.52
411.773	28.82
411.98	28.41
412.186	28.88
412.392	28.32
412.598	29.12
412.804	28.67
413.01	28.8
413.216	29.18
413.422	28.96
413.628	28.86
413.834	28.93
414.04	28.22
414.246	28.46
414.452	28.44
414.658	28.89
414.864	28.48
415.07	28.49
415.275	28.68
415.481	28.43
415.687	27.92
415.893	28.05
416.099	27.48
416.305	27.51
416.511	27.08
416.716	26.61
416.922	26.03
417.128	25.55
417.334	25.32
417.539	24.36
417.745	23.75
417.951	23.79
418.157	23.54
418.362	23.46
418.568	23.11
418.774	23.05
418.979	22.77
419.185	22.64
419.391	22.54
419.596	22.37
419.802	22.28
420.008	22.29
420.213	24.17
420.419	24.19
420.624	24.06
420.83	23.95
421.035	23.65
421.241	23.77
421.446	23.55
421.652	23.48
421.857	23.34
422.063	23.6
422.268	23.52
422.474	21.61
422.679	21.85
422.885	21.94
423.09	22.18
423.295	22.02
423.501	21.85
423.706	22.22
423.911	22.22
424.117	22.33
424.322	22.43
424.527	22.47
424.733	22.37
424.938	22.16
425.143	21.92
425.349	21.72
425.554	22.21
425.759	22.21
425.964	22.1
426.169	22.23
426.375	22.36
426.58	22.39
426.785	22.99
426.99	23.17
427.195	23.42
427.4	23.93
427.605	24.58
427.811	24.57
428.016	25.13
428.221	25.48
428.426	25.61
428.631	26.05
428.836	25.94
429.041	25.96
429.246	26.09
429.451	25.71
429.656	25.73
429.861	25.42
430.066	25.61
430.271	25.42
430.476	25.35
430.681	25.14
430.886	24.75
431.09	24.75
431.295	24.11
431.5	24.16
431.705	24.48
431.91	24.32
432.115	23.99
432.32	24.02
432.524	24.07
432.729	23.68
432.934	23.71
433.139	23.51
433.343	23.03
433.548	23.49
433.753	23.47
433.958	23.58
434.162	23.83
434.367	23.91
434.572	23.59
434.776	23.53
434.981	23.91
435.186	24.32
435.39	24.78
435.595	25.32
435.799	24.83
436.004	24.62
436.209	24.05
436.413	23.89
436.618	24.14
436.822	24.2
437.027	24.33
437.231	24.25
437.436	24.1
437.64	23.97
437.845	23.99
438.049	24.18
438.253	24.06
438.458	23.83
438.662	23.7
438.867	23.46
439.071	23.61
439.275	23.23
439.48	23.11
439.684	22.88
439.888	22.75
440.093	22.65
440.297	22.58
440.501	22.7
440.706	23.04
440.91	22.99
441.114	22.8
441.318	22.8
441.523	22.91
441.727	23.11
441.931	23.29
442.135	23.42
442.339	23.84
442.543	23.8
442.748	23.92
442.952	23.9
443.156	23.96
443.36	24.46
443.564	24.4
443.768	24.15
443.972	24.15
444.176	23.92
444.38	23.8
444.584	23.53
444.788	23.56
444.992	23.27
445.196	23.2
445.4	22.98
445.604	22.65
445.808	22.62
446.012	22.64
446.216	22.21
446.42	22.19
446.624	22.22
446.828	22.1
447.032	21.93
447.235	22.15
447.439	22.02
447.643	21.96
447.847	22.39
448.051	22.35
448.254	22.87
448.458	23.34
448.662	23.5
448.866	23.52
449.069	23.53
449.273	23.79
449.477	23.71
449.681	23.89
449.884	24.4
450.088	24.2
450.292	24.52
450.495	24.34
450.699	23.99
450.902	24.04
451.106	23.92
451.31	24.57
451.513	24.63
451.717	24.75
451.92	25.07
452.124	25.05
452.327	24.77
452.531	24.28
452.734	24.27
452.938	24.92
453.141	25.24
453.345	25.65
453.548	25.42
453.752	25.66
453.955	25.68
454.158	25.45
454.362	25.43
454.565	25.68
454.769	25.73
454.972	25.8
455.175	25.31
455.379	25.11
455.582	25.05
455.785	24.9
455.988	24.74
456.192	24.24
456.395	24.05
456.598	23.78
456.801	23.88
457.005	24.14
457.208	23.7
457.411	23.78
457.614	23.73
457.817	23.34
458.021	22.82
458.224	22.53
458.427	22.81
458.63	22.41
458.833	22.45
459.036	22.21
459.239	21.92
459.442	21.91
459.645	21.54
459.848	21.13
460.051	21.24
460.254	21.46
460.457	21.76
460.66	21.58
460.863	22.16
461.066	22.26
461.269	22.5
461.472	22.83
461.675	23.05
461.878	23.58
462.081	24.18
462.284	24.12
462.486	24.09
462.689	23.83
462.892	24.36
463.095	24.18
463.298	24.24
463.5	24.85
463.703	24.74
463.906	24.9
464.109	24.77
464.311	24.84
464.514	25.3
464.717	25.53
464.92	25.5
465.122	25.19
465.325	25.55
465.528	25.7
465.73	25.01
465.933	24.72
466.135	24.57
466.338	24.54
466.541	24.6
466.743	24.09
466.946	24.09
467.148	24.14
467.351	23.91
467.553	23.54
467.756	23.5
467.958	23.26
468.161	23.46
468.363	23.47
468.566	23.68
468.768	23.77
468.971	23.98
469.173	23.84
469.375	23.93
469.578	24.2
469.78	24.36
469.983	24.46
470.185	24.5
470.387	24.71
470.59	24.88
470.792	24.88
470.994	24.73
471.196	24.46
471.399	24.46
471.601	24.59
471.803	24.5
472.005	24.56
472.208	24.57
472.41	25.1
472.612	24.73
472.814	24.55
473.016	24.7
473.218	24.76
473.421	24.92
473.623	24.82
473.825	24.69
474.027	24.92
474.229	25
474.431	24.76
474.633	24.1
474.835	23.99
475.037	23.97
475.239	23.83
475.441	23.66
475.643	23.63
475.845	23.92
476.047	23.8
476.249	23.64
476.451	23.45
476.653	23.22
476.855	23.37
477.057	23.53
477.258	23.21
477.46	22.99
477.662	22.84
477.864	22.66
478.066	22.44
478.268	22.51
478.469	22.68
478.671	22.42
478.873	22.5
479.075	22.61
479.276	22.48
479.478	23.04
479.68	22.93
479.882	22.8
480.083	22.84
480.285	22.57
480.487	22.42
480.688	22.24
480.89	22.17
481.091	21.8
481.293	21.51
481.495	21.41
481.696	20.77
481.898	20.53
482.099	20.23
482.301	19.84
482.502	19.6
482.704	19.3
482.905	19.01
483.107	18.69
483.308	18.65
483.51	18.47
483.711	18.36
483.913	18.28
484.114	18.14
484.315	18.13
484.517	18.1
484.718	18.11
484.92	18.09
485.121	18.08
485.322	18.31
485.524	18.37
485.725	18.4
485.926	18.39
486.127	18.52
486.329	18.61
486.53	18.66
486.731	18.69
486.932	18.73
487.134	18.87
487.335	18.86
487.536	18.71
487.737	18.72
487.938	18.83
488.139	18.89
488.341	18.89
488.542	19.05
488.743	19.07
488.944	19.22
489.145	19.41
489.346	19.42
489.547	19.51
489.748	19.62
489.949	19.68
490.15	19.62
490.351	19.57
490.552	19.63
490.753	19.48
490.954	19.42
491.155	19.25
491.356	19.1
491.557	19.1
491.758	19.15
491.959	19.32
492.159	19.31
492.36	19.33
492.561	19.61
492.762	19.64
492.963	19.82
493.164	20.02
493.364	20.43
493.565	20.64
493.766	20.77
493.967	20.9
494.167	20.71
494.368	20.97
494.569	21.34
494.769	21.19
494.97	21.4
495.171	21.65
495.371	21.79
495.572	21.89
495.773	22.05
495.973	22.16
496.174	22.01
496.375	22.23
496.575	22.01
496.776	22.04
496.976	22.28
497.177	22.11
497.377	21.96
497.578	21.83
497.778	21.82
497.979	21.52
498.179	21.38
498.38	21.56
498.58	21.42
498.78	21.74
498.981	21.69
499.181	21.61
499.382	21.8
499.582	21.75
499.782	21.69
499.983	21.87
500.183	22.22
500.383	22.61
500.584	22.59
500.784	22.98
500.984	22.85
501.184	22.92
501.385	22.78
501.585	23.15
501.785	23.26
501.985	23.61
502.185	23.5
502.386	23.46
502.586	23.22
502.786	23.3
502.986	23.42
503.186	23.55
503.386	23.36
503.586	23.45
503.786	23.36
503.987	23.64
504.187	23.58
504.387	23.53
504.587	23.6
504.787	23.9
504.987	24.09
505.187	23.8
505.387	23.77
505.587	23.91
505.786	23.97
505.986	23.99
506.186	23.64
506.386	23.73
506.586	24.04
506.786	24.14
506.986	24.05
507.186	24
507.386	24.08
507.585	23.76
507.785	23.87
507.985	23.92
508.185	23.69
508.384	23.73
508.584	23.76
508.784	23.41
508.984	23.55
509.183	23.55
509.383	23.69
509.583	23.84
509.782	24.31
509.982	24.34
510.182	24.2
510.381	24.33
510.581	24.61
510.781	24.87
510.98	25.12
511.18	25.2
511.379	25.36
511.579	25.39
511.778	25.36
511.978	25.05
512.177	25.08
512.377	25.38
512.576	25.32
512.776	25.4
512.975	25.15
513.175	24.88
513.374	24.48
513.573	24.28
513.773	24.35
513.972	24.48
514.172	24.73
514.371	24.87
514.57	24.94
514.77	24.99
514.969	25.1
515.168	25.16
515.367	25.59
515.567	26.07
515.766	26.33
515.965	26.13
516.164	25.83
516.364	25.9
516.563	25.92
516.762	25.69
516.961	25.78
517.16	25.58
517.359	25.53
517.559	25.29
517.758	25.05
517.957	25.02
518.156	25.04
518.355	25.02
518.554	25.04
518.753	24.91
518.952	25.11
519.151	25.31
519.35	25.37
519.549	25.44
519.748	25.51
519.947	25.47
520.146	25.38
520.345	25.69
520.544	25.97
520.743	25.91
520.942	26.16
521.141	26.08
521.339	26.08
521.538	26.12
521.737	26.09
521.936	26.24
522.135	26.43
522.333	26.61
522.532	26.41
522.731	26.45
522.93	26.73
523.129	26.8
523.327	27.07
523.526	26.95
523.725	27.14
523.923	27.21
524.122	27.39
524.321	27.52
524.519	27.23
524.718	27.35
524.917	27.48
525.115	27.34
525.314	26.95
525.512	26.82
525.711	26.63
525.909	26.48
526.108	26.42
526.306	26.29
526.505	26.21
526.703	26.27
526.902	26.02
527.1	25.87
527.299	25.65
527.497	25.79
527.696	25.71
527.894	25.8
528.092	25.77
528.291	25.73
528.489	25.71
528.688	25.71
528.886	25.72
529.084	25.71
529.283	25.74
529.481	25.98
529.679	26.14
529.877	26.3
530.076	26.4
530.274	26.55
530.472	26.74
530.67	26.93
530.869	27.11
531.067	27.32
531.265	27.67
531.463	27.83
531.661	27.83
531.859	27.9
532.057	27.92
532.255	27.9
532.454	27.69
532.652	27.81
532.85	27.82
533.048	27.77
533.246	27.71
533.444	27.72
533.642	27.83
533.84	27.85
534.038	27.9
534.236	28
534.434	28.18
534.632	28.42
534.83	28.55
535.027	28.78
535.225	28.96
535.423	29.38
535.621	29.39
535.819	29.57
536.017	29.86
536.215	29.71
536.412	29.78
536.61	30.08
536.808	30.2
537.006	30.42
537.203	30.39
537.401	30.47
537.599	30.46
537.797	30.76
537.994	30.94
538.192	31.12
538.39	31.5
538.587	31.55
538.785	31.59
538.983	31.8
539.18	31.65
539.378	31.65
539.575	31.74
539.773	31.68
539.97	31.65
540.168	31.41
540.366	31.3
540.563	31.14
540.761	31.11
540.958	30.9
541.155	30.78
541.353	30.72
541.55	30.84
541.748	30.89
541.945	31.03
542.143	31.01
542.34	31.08
542.537	31.11
542.735	31.14
542.932	31.2
543.129	31.41
543.327	31.7
543.524	31.83
543.721	31.84
543.919	32.02
544.116	31.81
544.313	32.21
544.51	32.41
544.708	32.55
544.905	32.99
545.102	33.54
545.299	33.82
545.496	33.97
545.693	34.09
545.891	34.24
546.088	34.24
546.285	34.7
546.482	34.47
546.679	34.66
546.876	34.85
547.073	34.84
547.27	34.74
547.467	34.91
547.664	34.96
547.861	35.37
548.058	35.62
548.255	36.14
548.452	36.22
548.649	36.59
548.846	36.94
549.043	37.25
549.24	37.58
549.437	37.91
549.633	37.78
549.83	38.37
550.027	38.74
550.224	39.1
550.421	39
550.618	39.3
550.814	39.58
551.011	39.57
551.208	39.35
551.405	39.42
551.601	39.66
551.798	39.89
551.995	39.6
552.191	39.51
552.388	39.45
552.585	39.51
552.781	39.51
552.978	39.69
553.175	39.74
553.371	40.18
553.568	40.18
553.764	40.03
553.961	40.26
554.157	40.6
554.354	40.98
554.55	41.36
554.747	41.48
554.943	41.66
555.14	41.63
555.336	42.02
555.533	42.14
555.729	42.4
555.926	42.48
556.122	42.77
556.318	42.94
556.515	43
556.711	42.89
556.907	43.41
557.104	43.96
557.3	43.93
557.496	43.51
557.693	43.67
557.889	43.92
558.085	44.01
558.281	44.11
558.478	44.43
558.674	43.99
558.87	44.26
559.066	44.17
559.262	43.78
559.459	43.79
559.655	44.48
559.851	44.52
560.047	44.72
560.243	44.92
560.439	44.84
560.635	44.6
560.831	44.73
561.027	44.79
561.223	44.88
561.419	44.92
561.615	45.16
561.811	45.31
562.007	45.77
562.203	45.34
562.399	45.44
562.595	45.64
562.791	45.77
562.987	46.37
563.183	46.11
563.379	45.88
563.575	46.18
563.771	46.51
563.966	46.51
564.162	46.25
564.358	46.43
564.554	46.34
564.75	45.83
564.945	45.51
565.141	45.33
565.337	45.69
565.533	46.06
565.728	45.81
565.924	45.76
566.12	45.34
566.315	45.21
566.511	45.48
566.707	45.54
566.902	45.91
567.098	45.9
567.293	45.92
567.489	45.84
567.684	45.59
567.88	46.09
568.076	46
568.271	46.1
568.467	46.36
568.662	46.48
568.858	46.78
569.053	46.85
569.248	47.01
569.444	47.22
569.639	47.41
569.835	47.5
570.03	46.97
570.225	46.82
570.421	47.19
570.616	46.9
570.812	46.68
571.007	46.54
571.202	46.78
571.397	47.15
571.593	46.82
571.788	46.68
571.983	46.7
572.178	47.11
572.374	47.67
572.569	47.39
572.764	47.72
572.959	47.73
573.154	47.79
573.35	47.63
573.545	47.65
573.74	47.94
573.935	47.87
574.13	47.8
574.325	47.66
574.52	47.5
574.715	48.15
574.91	48.2
575.105	48.58
575.3	48.89
575.495	49.26
575.69	49.42
575.885	49.48
576.08	50.27
576.275	50.53
576.47	50.98
576.665	51.46
576.86	50.9
577.055	51.14
577.25	51.06
577.444	51.35
577.639	51.23
577.834	51.53
578.029	51.65
578.224	51.28
578.418	51.53
578.613	51.59
578.808	51.44
579.003	51.99
579.197	52.16
579.392	52.32
579.587	51.95
579.781	52
579.976	51.97
580.171	52.25
580.365	52.19
580.56	52.43
580.755	52.47
580.949	52.3
581.144	52.28
581.338	52.27
581.533	52.52
581.727	53.25
581.922	53.24
582.116	53.4
582.311	53.04
582.505	53.26
582.7	53.29
582.894	53.36
583.089	53.58
583.283	53.84
583.478	53.76
583.672	53.89
583.866	53.53
584.061	53.67
584.255	53.34
584.449	53.73
584.644	53.99
584.838	54.09
585.032	54.46
585.226	54.51
585.421	54.26
585.615	54.28
585.809	54.03
586.003	54.26
586.198	54.72
586.392	55.24
586.586	55.62
586.78	55.51
586.974	55.81
587.168	55.5
587.363	55.45
587.557	55.28
587.751	55.66
587.945	55.83
588.139	55.89
588.333	54.92
588.527	55.03
588.721	54.84
588.915	55.33
589.109	54.74
589.303	54.93
589.497	54.95
589.691	55.43
589.885	55.06
590.079	54.98
590.273	54.73
590.466	55.63
590.66	55.39
590.854	55.89
591.048	55.32
591.242	55.54
591.436	55.42
591.629	54.95
591.823	55.29
592.017	55.68
592.211	56.05
592.404	56.06
592.598	55.82
592.792	55.89
592.986	55.87
593.179	56.14
593.373	56.48
593.567	56.53
593.76	57.27
593.954	57.07
594.147	57.24
594.341	56.97
594.535	57.23
594.728	57.16
594.922	56.73
595.115	56.19
595.309	56.01
595.502	55.7
595.696	55.72
595.889	55.36
596.083	55.11
596.276	54.87
596.47	54.77
596.663	54.66
596.856	54.82
597.05	54.95
597.243	54.95
597.437	54.72
597.63	54.69
597.823	54.94
598.017	55.27
598.21	55.61
598.403	55.68
598.596	56.09
598.79	55.9
598.983	55.99
599.176	56.34
599.369	56.65
599.563	57.21
599.756	57.56
599.949	57
600.142	57.41
600.335	56.99
600.528	57.24
600.722	57.07
600.915	57.72
601.108	57.67
601.301	57.54
601.494	57.25
601.687	57.04
601.88	57.03
602.073	57.45
602.266	56.7
602.459	56.65
602.652	56.14
602.845	55.95
603.038	55.62
603.231	55.76
603.424	55.65
603.617	55.53
603.809	55.3
604.002	54.85
604.195	55
604.388	55.21
604.581	55.29
604.774	55.77
604.966	55.91
605.159	56.23
605.352	56.24
605.545	56.58
605.737	56.9
605.93	57.49
606.123	58.34
606.316	58.37
606.508	58.68
606.701	59.33
606.894	58.97
607.086	59.5
607.279	59.29
607.471	59.19
607.664	58.52
607.857	58.45
608.049	58.26
608.242	58.02
608.434	57.46
608.627	57.31
608.819	56.8
609.012	56.98
609.204	56.79
609.397	56.93
609.589	56.86
609.782	57.31
609.974	57.49
610.166	57.49
610.359	57.77
610.551	58.63
610.743	59.09
610.936	59.89
611.128	59.98
611.32	60.41
611.513	60.44
611.705	61.38
611.897	61.05
612.09	61.69
612.282	62.17
612.474	62.41
612.666	62.84
612.858	62.59
613.051	62.81
613.243	62.89
613.435	62.68
613.627	63.03
613.819	62.81
614.011	64.81
614.203	65.06
614.395	65.06
614.588	64.82
614.78	63.97
614.972	63.92
615.164	63.29
615.356	63.78
615.548	63.47
615.74	63.35
615.932	63.21
616.124	61.71
616.315	61.35
616.507	61.4
616.699	61.71
616.891	62.32
617.083	62.77
617.275	63.44
617.467	63.35
617.659	63.3
617.85	63.11
618.042	63.72
618.234	64.38
618.426	64.66
618.618	64.68
618.809	64.17
619.001	63.97
619.193	64.15
619.384	63.76
619.576	63.45
619.768	63.86
619.959	63.97
620.151	63.73
620.343	63.5
620.534	63.53
620.726	63.39
620.917	64.06
621.109	63.99
621.301	63.74
621.492	63.82
621.684	64.38
621.875	64.21
622.067	63.94
622.258	64.02
622.45	64.59
622.641	64.6
622.832	64.46
623.024	63.92
623.215	64.27
623.407	63.7
623.598	64.41
623.789	64.02
623.981	63.85
624.172	64.41
624.363	64.08
624.555	63.22
624.746	62.94
624.937	63.01
625.129	63
625.32	62.26
625.511	62.32
625.702	61.25
625.893	61.82
626.085	62.13
626.276	61.64
626.467	62.09
626.658	61.83
626.849	61.61
627.04	61.5
627.231	61.39
627.422	61.52
627.614	61.84
627.805	62.26
627.996	61.8
628.187	61.87
628.378	62.27
628.569	61.42
628.76	62.17
628.951	62.28
629.142	62.47
629.332	62.75
629.523	63.03
629.714	62.76
629.905	62.61
630.096	62.66
630.287	62.85
630.478	62.8
630.669	63.36
630.859	63.08
631.05	63.51
631.241	63.51
631.432	63.25
631.623	63.58
631.813	63.94
632.004	63.61
632.195	63.42
632.385	63.32
632.576	63.63
632.767	63.53
632.957	63.48
633.148	63.56
633.339	63.32
633.529	63.06
633.72	62.27
633.91	62.32
634.101	62.64
634.292	63.15
634.482	63.1
634.673	62.77
634.863	62.53
635.054	62.54
635.244	62.07
635.435	62.53
635.625	63
635.815	63.97
636.006	63.62
636.196	64.1
636.387	64.14
636.577	64.26
636.767	64.72
636.958	64.66
637.148	65.25
637.338	66.06
637.529	65.9
637.719	66.18
637.909	65.26
638.099	65.18
638.29	64.73
638.48	64.7
638.67	65.2
638.86	65.41
639.05	66.57
639.241	66.98
639.431	67.32
639.621	67.91
639.811	67.84
640.001	68.85
640.191	69.66
640.381	70.19
640.571	69.65
640.761	69.37
640.951	69.74
641.141	69.74
641.331	69.12
641.521	68.34
641.711	68.53
641.901	68.33
642.091	68
642.281	68.38
642.471	68.32
642.661	69.26
642.851	69.09
643.041	68.27
643.231	68.39
643.42	68.16
643.61	68.05
643.8	68.12
643.99	68.76
644.18	69.26
644.369	69.26
644.559	68.49
644.749	68.54
644.939	69.45
645.128	69.73
645.318	68.34
645.508	68.65
645.697	69.36
645.887	68.97
646.076	69.23
646.266	69.81
646.456	69.7
646.645	70.26
646.835	70.38
647.024	69.75
647.214	70.11
647.403	71
647.593	70.84
647.782	70.58
647.972	70.63
648.161	70.72
648.351	69.82
648.54	69.78
648.73	69.61
648.919	68.99
649.108	69.25
649.298	68.87
649.487	68.71
649.677	68.59
649.866	68.21
650.055	67.87
650.244	67.91
650.434	67.87
650.623	67.61
650.812	67.84
651.002	68.1
651.191	68.37
651.38	68.03
651.569	68.56
651.758	69.23
651.947	68.5
652.137	69.45
652.326	69.15
652.515	69.64
652.704	69.87
652.893	70.34
653.082	69.73
653.271	70.06
653.46	70.1
653.649	69.39
653.838	69.19
654.027	70.29
654.216	70.13
654.405	70.44
654.594	70.14
654.783	69.75
654.972	70.73
655.161	71.19
655.35	70.15
655.539	70.6
655.728	71.44
655.916	71.11
656.105	71.12
656.294	71.6
656.483	71.13
656.672	70.81
656.86	70.86
657.049	69.34
657.238	69.2
657.427	69.23
657.615	68.35
657.804	67.38
657.993	67.04
658.181	66.55
658.37	65.36
658.559	64.5
658.747	64.27
658.936	64.54
659.125	64.57
659.313	64.61
659.502	64.88
659.69	65.33
659.879	65.55
660.067	66.28
660.256	66.67
660.444	67.01
660.633	66.94
660.821	67.52
661.01	67.59
661.198	68.27
661.387	68.47
661.575	68.94
661.763	69.49
661.952	69.75
662.14	69.79
662.328	69.75
662.517	70.55
662.705	71.5
662.893	71.61
663.082	71.41
663.27	71.98
663.458	71.75
663.646	71.73
663.834	72.13
664.023	72.44
664.211	73.27
664.399	73.81
664.587	73.41
664.775	73.38
664.963	74.35
665.152	74.83
665.34	74.27
665.528	74.44
665.716	74.03
665.904	73.47
666.092	73.49
666.28	73.27
666.468	72.99
666.656	73.41
666.844	75.12
667.032	74.23
667.22	74.76
667.408	74.34
667.596	75.08
667.784	75.38
667.971	75.81
668.159	75.42
668.347	74.55
668.535	74.62
668.723	74.18
668.911	72.4
669.098	72.47
669.286	71.68
669.474	71.76
669.662	71.69
669.849	72.19
670.037	72.48
670.225	72.6
670.413	72.28
670.6	72.44
670.788	72.98
670.976	73.46
671.163	74.02
671.351	74.6
671.538	74.69
671.726	74.21
671.913	73.4
672.101	73.68
672.289	73.82
672.476	75.32
672.664	75.22
672.851	74.64
673.039	75.1
673.226	74.91
673.413	75.02
673.601	75.43
673.788	76.34
673.976	76.61
674.163	75.67
674.35	75.32
674.538	74.6
674.725	74.62
674.912	74.68
675.1	75.28
675.287	75.66
675.474	75.02
675.662	74.89
675.849	74.06
676.036	73.26
676.223	73.04
676.411	73.14
676.598	72.7
676.785	72.57
676.972	72.72
677.159	72.2
677.346	71.31
677.533	71.33
677.721	71.35
677.908	71.9
678.095	72.16
678.282	72.61
678.469	72.17
678.656	72.21
678.843	72.36
679.03	72.32
679.217	71.9
679.404	72.11
679.591	72.02
679.778	71.23
679.964	70.85
680.151	70.48
680.338	70.42
680.525	71.15
680.712	71.02
680.899	70.57
681.086	70.39
681.272	70.7
681.459	71.29
681.646	71.27
681.833	71.63
682.02	71.87
682.206	72.45
682.393	72.69
682.58	72.98
682.766	73.18
682.953	74.31
683.14	75.02
683.326	76.44
683.513	76.47
683.7	76.9
683.886	78.15
684.073	79.34
684.259	79.92
684.446	80.81
684.632	80.8
684.819	81.75
685.005	80.82
685.192	80.91
685.378	79.35
685.565	79.46
685.751	79.31
685.938	78.55
686.124	76.95
686.31	76.49
686.497	75.27
686.683	74.78
686.87	74.14
687.056	74.64
687.242	74.62
687.429	75.73
687.615	74.71
687.801	75.51
687.987	75.67
688.174	75.98
688.36	76.84
688.546	77.12
688.732	77.42
688.918	77.56
689.105	77.36
689.291	77.49
689.477	75.97
689.663	77.5
689.849	77.06
690.035	76.58
690.221	78.3
690.407	77.86
690.593	77.82
690.779	76.82
690.965	77.55
691.151	78.96
691.337	79.14
691.523	80.36
691.709	80.05
691.895	81.06
692.081	81.25
692.267	80.34
692.453	80.4
692.639	80.14
692.825	81.39
693.011	81.66
693.196	81.79
693.382	82.15
693.568	82.27
693.754	81.68
693.94	80.85
694.125	81.43
694.311	81
694.497	81.33
694.682	81.81
694.868	82.04
695.054	80.96
695.239	79.77
695.425	78.69
695.611	78.24
695.796	77.85
695.982	77.07
696.168	76.44
696.353	75.83
696.539	75.67
696.724	75.23
696.91	75.16
697.095	75.46
697.281	74.49
697.466	74.17
697.652	73.64
697.837	73.38
698.023	73.49
698.208	73.27
698.393	73.32
698.579	72.44
698.764	72.7
698.949	72.06
699.135	72.58
699.32	73.14
699.505	73.22
699.691	73.52
699.876	73.56
700.061	74.13
700.246	75
700.432	75.67
700.617	77.6
700.802	77.7
700.987	78.33
701.172	77.28
701.358	78.06
701.543	79.88
701.728	80.21
701.913	80.52
702.098	80.6
702.283	81.95
702.468	82.66
702.653	81.82
702.838	83.16
703.023	84.89
703.208	86.14
703.393	85.97
703.578	85.93
703.763	86.44
703.948	87.89
704.133	88.15
704.318	87.5
704.503	86.61
704.688	87.8
704.873	86.77
705.057	86.25
705.242	86.06
705.427	86.08
705.612	86.56
705.797	86.66
705.981	86.58
706.166	87.26
706.351	86.41
706.536	86.4
706.72	84.49
706.905	84.64
707.09	83.54
707.274	83.84
707.459	85.09
707.644	83.32
707.828	83.89
708.013	82.98
708.197	82.64
708.382	83.15
708.567	83.52
708.751	84.02
708.936	83.11
709.12	83.29
709.305	83.28
709.489	82.46
709.673	82.38
709.858	83.7
710.042	83.47
710.227	82.56
710.411	82.09
710.596	81.65
710.78	82.5
710.964	83.59
711.149	83.89
711.333	83.31
711.517	83.71
711.702	84.55
711.886	81.97
712.07	83.41
712.254	84.6
712.438	85.01
712.623	85.48
712.807	83.23
712.991	83.24
713.175	84.18
713.359	84.96
713.544	84.2
713.728	84.29
713.912	84.5
714.096	84.13
714.28	83.65
714.464	84.1
714.648	83.85
714.832	85.63
715.016	84.81
715.2	84.3
715.384	84.39
715.568	84.53
715.752	83.8
715.936	84.74
716.12	84.6
716.304	85.75
716.488	84.51
716.671	84.75
716.855	85.7
717.039	87.66
717.223	87.36
717.407	86.95
717.59	86.75
717.774	87.34
717.958	86.91
718.142	86.69
718.325	85.32
718.509	86.57
718.693	87.03
718.877	85.58
719.06	84.26
719.244	84.1
719.428	83.96
719.611	86.7
719.795	87.72
719.978	88.07
720.162	89.17
720.345	90.69
720.529	90.82
720.713	92.54
720.896	94.51
721.08	94.57
721.263	95.8
721.446	95.83
721.63	93.7
721.813	94.24
721.997	93.43
722.18	92.58
722.364	93.69
722.547	95.58
722.73	94.95
722.914	95.37
723.097	95.45
723.28	95.77
723.464	96.9
723.647	97.25
723.83	95.9
724.013	98.32
724.197	99.76
724.38	96.37
724.563	93.45
724.746	94.17
724.929	94.08
725.112	96.4
725.296	96.24
725.479	95.35
725.662	95.04
725.845	96.4
726.028	94.05
726.211	92.57
726.394	95.12
726.577	96.04
726.76	94.97
726.943	93.47
727.126	90.01
727.309	91.4
727.492	90.6
727.675	89.95
727.858	88.11
728.041	88.54
728.224	90.18
728.407	88.19
728.589	87.63
728.772	85.77
728.955	86.4
729.138	86.03
729.321	83.5
729.503	84.58
729.686	85.03
729.869	85.84
730.052	86.38
730.234	85.82
730.417	87.9
730.6	88.98
730.782	90.92
730.965	90.12
731.148	92.79
731.33	93.37
731.513	93.79
731.695	92.25
731.878	92.04
732.061	92.24
732.243	90.75
732.426	89.33
732.608	88.43
732.791	88.76
732.973	90.31
733.156	88.14
733.338	88.67
733.52	87.56
733.703	89.24
733.885	90.36
734.068	89.93
734.25	91.77
734.432	91.79
734.615	93.19
734.797	94.42
734.979	92.32
735.162	93.2
735.344	93.57
735.526	93.69
735.708	95.25
735.891	95.77
736.073	97.1
736.255	97.91
736.437	97.75
736.619	97.54
736.802	95.99
736.984	96.96
737.166	97.61
737.348	97.73
737.53	98.67
737.712	95.61
737.894	94.62
738.076	95.49
738.258	92.82
738.44	93.41
738.622	93.87
738.804	94.55
738.986	95.56
739.168	95.66
739.35	95.87
739.532	97.95
739.714	102.94
739.896	102.64
740.078	102.25
740.259	102.95
740.441	103.75
740.623	103.15
740.805	103.09
740.987	102.04
741.168	102.96
741.35	102.95
741.532	101.25
741.714	98.23
741.895	99.04
742.077	98.94
742.259	101.97
742.44	102.48
742.622	102.02
742.804	102.53
742.985	104.91
743.167	103.72
743.348	105.67
743.53	105.5
743.711	104.47
743.893	106.96
744.075	106.1
744.256	104.88
744.438	106.2
744.619	108.49
744.8	106.28
744.982	107.64
745.163	110.06
745.345	104.79
745.526	105.77
745.707	107.02
745.889	104.65
746.07	105.94
746.252	105
746.433	101.87
746.614	100.41
746.795	101.83
746.977	99.68
747.158	99.46
747.339	103.56
747.52	104.09
747.702	104.6
747.883	105.66
748.064	105.52
748.245	107.13
748.426	108.27
748.607	108.89
748.788	111.3
748.97	113.58
749.151	115.12
749.332	113.37
749.513	113.44
749.694	113.37
749.875	114.2
750.056	115.35
750.237	116.31
750.418	119.27
750.599	120.37
750.78	118.17
750.96	115.28
751.141	114.65
751.322	118.31
751.503	120.6
751.684	124.32
751.865	120.88
752.046	121.32
752.226	119.07
752.407	116.56
752.588	115.98
752.769	117.05
752.949	116.56
753.13	116.85
753.311	111.81
753.492	111.03
753.672	109.41
753.853	110.76
754.034	109.44
754.214	112.63
754.395	112.92
754.575	118.24
754.756	118.84
754.937	120.46
755.117	116.93
755.298	120.43
755.478	119.34
755.659	115.68
755.839	117.46
756.02	117.77
756.2	116.7
756.381	115.25
756.561	110.63
756.741	108.42
756.922	107.76
757.102	109.99
757.283	110.84
757.463	109.77
757.643	110.94
757.823	109.21
758.004	109.32
758.184	107.04
758.364	109.14
758.545	109.78
758.725	110.84
758.905	110.25
759.085	107.78
759.265	107.79
759.446	107.7
759.626	107.24
759.806	108.86
759.986	109.2
760.166	111.36
760.346	109.53
760.526	107.76
760.706	106.61
760.886	105.43
761.066	106.42
761.246	103.21
761.426	101.02
761.606	99.89
761.786	96.96
761.966	95.43
762.146	91.83
762.326	90.31
762.506	88.66
762.686	86.88
762.866	85.71
763.046	83.69
763.225	84.89
763.405	84.44
763.585	85.22
763.765	84.16
763.945	84.81
764.124	85.88
764.304	88.39
764.484	88.56
764.664	91.15
764.843	93.24
765.023	97.71
765.203	97.24
765.382	100.15
765.562	101.43
765.741	104.28
765.921	104.45
766.101	106.4
766.28	102.93
766.46	105.28
766.639	104.1
766.819	105.1
766.998	104.3
767.178	104.15
767.357	105.42
767.537	104.97
767.716	107.78
767.896	109.59
768.075	108.44
768.254	111.38
768.434	111.68
768.613	114.99
768.792	115.79
768.972	116.93
769.151	120.04
769.33	120.1
769.51	122.71
769.689	120.73
769.868	122.44
770.047	124.15
770.226	124.21
770.406	125.98
770.585	128.23
770.764	126.64
770.943	123.73
771.122	125.52
771.301	125.13
771.48	125.69
771.66	127.24
771.839	124.66
772.018	126.59
772.197	126.73
772.376	126.38
772.555	127.32
772.734	129.89
772.913	132.8
773.092	131.24
773.271	128.43
773.449	129.29
773.628	127.63
773.807	127.8
773.986	127.83
774.165	131.33
774.344	131.66
774.523	128.44
774.701	131.48
774.88	134.97
775.059	136.43
775.238	140.61
775.417	136.79
775.595	141.24
775.774	143.51
775.953	143.04
776.131	142.22
776.31	140.59
776.489	147.52
776.667	141.81
776.846	138.34
777.025	136.59
777.203	134.76
777.382	134.96
777.56	133.64
777.739	129.93
777.917	132.64
778.096	130.29
778.274	135.59
778.453	128.63
778.631	130.54
778.81	126.64
778.988	127.71
779.166	128.89
779.345	132.26
779.523	130.52
779.702	132.45
779.88	130.92
780.058	132.48
780.237	131.03
780.415	131.83
780.593	132.82
780.771	138.93
780.95	139.54
781.128	147.84
781.306	146.5
781.484	149.44
781.662	162.1
781.841	156.82
782.019	157.15
782.197	153.53
782.375	151.12
782.553	152.5
782.731	150.96
782.909	148.97
783.087	144.01
783.265	144.24
783.443	147.45
783.621	136.27
783.799	143.35
783.977	148.3
784.155	157.14
784.333	165.8
784.511	162.09
784.689	165.2
784.867	165.2
785.045	162.03
785.223	162.98
785.4	157.06
785.578	158.06
785.756	154.66
785.934	148.66
786.112	143.35
786.289	137.68
786.467	134.71
786.645	132.45
786.823	131.65
787	132.28
787.178	131.05
787.356	128.74
787.533	131.36
787.711	130.87
787.889	130.61
788.066	130.23
788.244	128.51
788.421	132.4
788.599	129.39
788.776	129.31
788.954	130.09
789.131	129.62
789.309	132.41
789.486	129.69
789.664	130.42
789.841	129.73
790.019	127.62
790.196	135.28
790.373	135.55
790.551	144.81
790.728	146.27
790.906	145.6
791.083	146.85
791.26	148.21
791.437	150.51
791.615	154.67
791.792	156.35
791.969	159.94
792.146	149.68
792.324	148.58
792.501	145.91
792.678	148.2
792.855	142.44
793.032	145.94
793.209	145.58
793.387	141.09
793.564	136.62
793.741	137.07
793.918	132.84
794.095	138.38
794.272	142.07
794.449	135.04
794.626	135.83
794.803	135.09
794.98	135.41
795.157	133.07
795.334	136.11
795.511	135.35
795.688	136.52
795.864	135.12
796.041	134.28
796.218	136.49
796.395	138.79
796.572	139.66
796.749	149.02
796.925	147.32
797.102	151.37
797.279	151.35
797.456	153.18
797.632	152.3
797.809	163.76
797.986	169.27
798.162	166.13
798.339	167.3
798.516	168.65
798.692	164.73
798.869	159.96
799.046	156.21
799.222	156.28
799.399	160.43
799.575	167.33
799.752	162.09
799.928	158.61
800.105	157.81
800.281	166.94
800.458	160.85
800.634	160.24
800.811	170.69
800.987	188.91
801.163	193.96
801.34	188.17
801.516	184.28
801.692	200.4
801.869	193.83
802.045	214.59
802.221	199.66
802.398	208.65
802.574	209.71
802.75	202.41
802.926	188.64
803.103	188.13
803.279	192.85
803.455	189.15
803.631	180.74
803.807	181.94
803.983	169.27
804.16	179.25
804.336	176.69
804.512	176.11
804.688	175.61
804.864	176.15
805.04	175.22
805.216	177.53
805.392	179.62
805.568	182.42
805.744	187.4
805.92	195.28
806.096	187.66
806.272	195.62
806.448	202.12
806.623	208.06
806.799	207.87
806.975	210.84
807.151	206.12
807.327	217.93
807.503	211.81
807.678	216.16
807.854	211.52
808.03	217.2
808.206	208.52
808.381	200
808.557	189.97
808.733	186.78
808.908	190.06
809.084	196.49
809.26	184.53
809.435	182.91
809.611	181.74
809.787	178.77
809.962	181.26
810.138	180.23
810.313	182.77
810.489	188.48
810.664	191.33
810.84	192.06
811.015	190.46
811.191	201.96
811.366	198.67
811.542	188.17
811.717	181.92
811.892	174.31
812.068	176.29
812.243	175.18
812.419	173.76
812.594	180.52
812.769	172.59
812.944	165.38
813.12	163.87
813.295	170.36
813.47	175.28
813.645	187.73
813.821	188.36
813.996	184.03
814.171	193.14
814.346	187.83
814.521	187.99
814.697	203.24
814.872	202.31
815.047	204.96
815.222	203.73
815.397	200.27
815.572	196.13
815.747	193.12
815.922	203.47
816.097	201.08
816.272	206.61
816.447	196.46
816.622	190.9
816.797	199.06
816.972	188.83
817.147	190.53
817.322	192.61
817.496	194.76
817.671	190.96
817.846	187.28
818.021	180.47
818.196	171.35
818.371	163.68
818.545	154.44
818.72	154.3
818.895	154.26
819.069	145.76
819.244	139.5
819.419	131.54
819.594	132.99
819.768	125.83
819.943	118.97
820.117	112.6
820.292	108.26
820.467	101.63
820.641	92.62
820.816	88.2
820.99	85.55
821.165	81.83
821.339	78.18
821.514	75.51
821.688	72.14
821.863	71.11
822.037	69.67
822.212	68.52
822.386	68.01
822.56	67.36
822.735	67.9
822.909	67.55
823.084	68.17
823.258	68.48
823.432	69.14
823.606	70.91
823.781	72.42
823.955	74.36
824.129	77.01
824.303	80.94
824.478	84.43
824.652	84.05
824.826	85.34
825	85.57
825.174	88.56
825.348	88.44
825.523	92.65
825.697	92.42
825.871	94.01
826.045	92.12
826.219	90.87
826.393	91.09
826.567	91.85
826.741	95.18
826.915	94.55
827.089	94.85
827.263	94.18
827.437	91.14
827.611	91.66
827.784	92.38
827.958	93.71
828.132	95.46
828.306	99.6
828.48	103.92
828.654	102.43
828.827	106.07
829.001	107.4
829.175	113.75
829.349	119.46
829.522	127.03
829.696	134.14
829.87	140.59
830.044	144.16
830.217	142.9
830.391	141.5
830.565	145.76
830.738	146.86
830.912	150.41
831.085	156.3
831.259	160.4
831.432	154.88
831.606	148.97
831.779	149.27
831.953	147.67
832.126	142.4
832.3	140.27
832.473	136.56
832.647	139.19
832.82	138.17
832.994	129.77
833.167	127.61
833.34	123.56
833.514	118.54
833.687	116.62
833.86	116.67
834.034	114.97
834.207	118.5
834.38	117.89
834.553	116.25
834.727	115.06
834.9	120.96
835.073	124.88
835.246	131.72
835.419	140.7
835.593	143.88
835.766	142.62
835.939	151.85
836.112	150.07
836.285	160.32
836.458	174.04
836.631	184.49
836.804	184.88
836.977	183.96
837.15	187.42
837.323	191.91
837.496	190.14
837.669	189.76
837.842	188.37
838.015	203.42
838.188	203.3
838.361	207.08
838.533	199.54
838.706	205.42
838.879	212
839.052	211.24
839.225	214.06
839.398	222.91
839.57	228.47
839.743	228.49
839.916	215.47
840.088	220.03
840.261	224.15
840.434	211.83
840.607	218.37
840.779	221.36
840.952	218.01
841.124	240.03
841.297	264.1
841.47	286.3
841.642	308.88
841.815	327.7
841.987	335.34
842.16	306.44
842.332	383.05
842.505	381.23
842.677	340.92
842.85	302.3
843.022	284.86
843.194	271.75
843.367	306.88
843.539	291.45
843.712	287.71
843.884	276.96
844.056	305.3
844.229	292.01
844.401	286.16
844.573	333.55
844.745	431.09
844.918	463.23
845.09	421.88
845.262	404.38
845.434	427.24
845.606	455.97
845.779	585.78
845.951	583.78
846.123	755.11
846.295	709.66
846.467	554.29
846.639	585.49
846.811	570.05
846.983	562.19
847.155	487.33
847.327	535.77
847.499	558.36
847.671	567.6
847.843	528.18
848.015	432.9
848.187	545.64
848.359	555.04
848.531	480.24
848.703	392.38
848.875	493.78
849.047	431.2
849.218	425.82
849.39	409.15
849.562	330.02
849.734	341.32
849.905	414.33
850.077	374.22
850.249	404.86
850.421	418.12
850.592	413.97
850.764	393.58
850.936	421.07
851.107	426.37
851.279	409.19
851.451	529.99
851.622	468.42
851.794	405.94
851.965	431.39
852.137	420.09
852.308	408.89
852.48	473.84
852.651	393.43
852.823	426.48
852.994	425.89
853.166	434.79
853.337	425.08
853.509	485.85
853.68	581.1
853.851	493.66
854.023	451.44
854.194	392.48
854.365	391.38
854.537	438.5
854.708	417.37
854.879	440.44
855.05	456.52
855.222	381.96
855.393	363.38
855.564	320.45
855.735	337.07
855.906	387.68
856.078	542.06
856.249	503.85
856.42	490.88
856.591	500.62
856.762	491.91
856.933	435.98
857.104	528.32
857.275	515.36
857.446	568.03
857.617	506.99
857.788	467.44
857.959	354.73
858.13	384.41
858.301	368.99
858.472	353.3
858.643	334.82
858.814	354.45
858.985	378.5
859.155	461.96
859.326	508.62
859.497	849.05
859.668	1565.75
859.839	1773.33
860.009	1825.41
860.18	9319.44
860.351	-10334.38
860.522	9677.14
860.692	-17294.74
860.863	5230.65
861.034	1942.6
861.204	1257.2
861.375	630.36
861.546	461.29
861.716	474.04
861.887	417.19
862.057	413.11
862.228	414.03
862.398	467.87
862.569	417.33
862.739	430.34
862.91	420.66
863.08	436.49
863.251	506.58
863.421	599.16
863.592	846.54
863.762	1782.35
863.932	1151.9
864.103	953.39
864.273	862.65
864.443	1025.75
864.614	1307.34
864.784	734.74
864.954	596.02
865.125	485.75
865.295	481.97
865.465	373.99
865.635	349.38
865.805	348.83
865.976	383.96
866.146	399.42
866.316	409.31
866.486	358.46
866.656	441.8
866.826	460.53
866.996	467.1
867.166	389.62
867.336	432.97
867.506	368.85
867.676	363.73
867.846	360.93
868.016	355.49
868.186	331.73
868.356	337.25
868.526	315.09
868.696	345.6
868.866	363.54
869.036	475.84
869.206	457.39
869.376	526.76
869.545	464.6
869.715	496.49
869.885	455.46
870.055	427.14
870.224	435.58
870.394	468.42
870.564	439.18
870.734	478.72
870.903	447.7
871.073	449.37
871.243	393.81
871.412	480.48
871.582	431.71
871.751	475.03
871.921	596.21
872.091	588.58
872.26	562.84
872.43	582.35
872.599	493.82
872.769	434.62
872.938	509.09
873.108	627.21
873.277	592.03
873.446	563.48
873.616	534.76
873.785	480.93
873.955	524.62
874.124	385.32
874.293	377.41
874.463	400.41
874.632	341.21
874.801	328.61
874.971	376.8
875.14	378.94
875.309	358.59
875.478	374.77
875.647	372.79
875.817	322.23
875.986	434.92
876.155	411.95
876.324	453.32
876.493	610.18
876.662	459.54
876.831	370.86
877	398.08
877.17	454.97
877.339	480.05
877.508	514.71
877.677	535.38
877.846	442.1
878.015	522.87
878.184	520.96
878.352	451.32
878.521	470.13
878.69	488.24
878.859	430.41
879.028	375.9
879.197	369.09
879.366	414.88
879.534	401.86
879.703	380.07
879.872	329.69
880.041	274.53
880.21	260.37
880.378	258.46
880.547	241.13
880.716	202.93
880.884	191.26
881.053	176.74
881.222	151.23
881.39	140.17
881.559	132.06
881.727	125.9
881.896	121.61
882.065	116.03
882.233	112.99
882.402	110.54
882.57	114.51
882.739	112.92
882.907	111.88
883.076	113.03
883.244	117.01
883.412	121.46
883.581	124.61
883.749	129.88
883.918	136.42
884.086	143.22
884.254	153.58
884.423	159.74
884.591	173.14
884.759	178.21
884.927	185.77
885.096	195.28
885.264	205.35
885.432	215.25
885.6	227.56
885.769	261.17
885.937	267.68
886.105	277.67
886.273	290.51
886.441	302.59
886.609	333.22
886.777	361.67
886.945	381.36
887.113	446.23
887.281	517.91
887.449	494.38
887.617	431.19
887.785	437.05
887.953	462
888.121	585.65
888.289	567.1
888.457	506.55
888.625	503.03
888.793	614.2
888.961	529.28
889.129	514.46
889.296	494.04
889.464	496.15
889.632	539.45
889.8	505.03
889.967	442.34
890.135	416.05
