Data from JASIL_3049_Reflection_02.txt Node
Date: Mon Nov 09 11:17:29 EST 2015
User: Geneva
Spectrometer: USB4E03002
Autoset integration time: false
Trigger mode: 4
Integration Time (sec): 1.000000E-1
Scans to average: 10
Electric dark correction enabled: false
Nonlinearity correction enabled: false
Boxcar width: 5
Stray light correction enabled: false
XAxis mode: Wavelengths
Stop averaging: false
Number of Pixels in Spectrum: 3648
>>>>>Begin Spectral Data<<<<<
177.575	323.48
177.794	4122.22
178.014	-43700
178.233	-824.53
178.452	-433.77
178.672	-2152.94
178.891	1022.22
179.11	458.9
179.33	365.62
179.549	-2700
179.768	-1037.5
179.987	-101.83
180.207	-3585.71
180.426	658.82
180.645	139.66
180.864	243.45
181.084	246.32
181.303	-23500
181.522	-171.15
181.741	-253.95
181.96	-44.44
182.179	21.59
182.398	-10.16
182.618	1.73
182.837	-3.56
183.056	9.33
183.275	12.05
183.494	9.2
183.713	6.35
183.932	27.95
184.151	23.42
184.37	28.79
184.589	179.66
184.808	97.27
185.027	170.79
185.246	116.85
185.465	198.13
185.684	-113.24
185.903	-157.58
186.122	-3.21
186.341	-23.35
186.56	6.12
186.779	31.42
186.998	36.48
187.216	39.07
187.435	72.95
187.654	70.32
187.873	81.3
188.092	111.11
188.311	129.94
188.53	209.03
188.748	141.76
188.967	153.9
189.186	118.07
189.405	114.5
189.623	156.35
189.842	43.9
190.061	68.1
190.28	23.56
190.498	2.46
190.717	-44.21
190.936	-64.33
191.154	-98.86
191.373	-7300
191.592	6100
191.81	-105
192.029	86.54
192.248	-86.81
192.466	-24.39
192.685	31.82
192.904	1310.53
193.122	341.82
193.341	338.98
193.559	-942.11
193.778	-248.68
193.996	-3060
194.215	111.72
194.433	419.05
194.652	142.86
194.87	119.28
195.089	-51.72
195.307	-404.84
195.526	-885.71
195.744	-42.05
195.963	-800
196.181	-277.22
196.399	-146.15
196.618	-305.3
196.836	-201.69
197.055	-100.97
197.273	-103.47
197.491	-103.67
197.71	-142.7
197.928	-69.64
198.146	-94.41
198.365	-22.03
198.583	119.71
198.801	-174.14
199.019	59.8
199.238	13.92
199.456	32.35
199.674	-6.86
199.892	11.16
200.111	-21.43
200.329	21.81
200.547	227.66
200.765	295
200.983	9.09
201.202	608.33
201.42	-60.38
201.638	-47.92
201.856	16.18
202.074	22.79
202.292	22.97
202.51	-15.38
202.728	44.48
202.946	40.91
203.165	71.17
203.383	102.5
203.601	187.5
203.819	103.57
204.037	117.81
204.255	70.36
204.473	80.72
204.691	214.63
204.909	-590.63
205.127	327.59
205.345	95.59
205.562	82.84
205.78	470.37
205.998	-642.11
206.216	-95.12
206.434	61.11
206.652	24.37
206.87	-32.5
207.088	-17.36
207.306	-408.33
207.523	32.04
207.741	7.17
207.959	-18.46
208.177	-37.08
208.395	-1323.08
208.612	27.2
208.83	64.79
209.048	122.41
209.266	38.89
209.483	-124.59
209.701	439.71
209.919	-96.64
210.136	-103.03
210.354	-498.73
210.572	-459.05
210.79	-447.37
211.007	416.26
211.225	-350.55
211.442	-234.78
211.66	-89.58
211.878	-52.46
212.095	-19.82
212.313	-216.44
212.53	-137.18
212.748	-44.12
212.966	-59.43
213.183	147.24
213.401	-167.57
213.618	194.85
213.836	106.94
214.053	74.78
214.271	96.71
214.488	149.53
214.705	268.57
214.923	-12.03
215.14	37.32
215.358	29.19
215.575	26.88
215.793	12.74
216.01	-4.39
216.227	-9.25
216.445	-59.35
216.662	-125.62
216.879	-255.65
217.097	-185.29
217.314	-17.82
217.531	24
217.749	-12.35
217.966	35.71
218.183	112.11
218.4	281.69
218.618	-10633.33
218.835	-225.32
219.052	-381.25
219.269	-109.84
219.487	-13.33
219.704	-198.06
219.921	-256.25
220.138	460.24
220.355	-3650
220.572	-866.67
220.79	43.37
221.007	-307.46
221.224	-162.77
221.441	-350.67
221.658	-185.51
221.875	-38.21
222.092	-136.08
222.309	-15.52
222.526	-2344.44
222.743	-581.82
222.96	372.83
223.177	-2256.25
223.394	-1223.08
223.611	451.16
223.828	444.94
224.045	428.42
224.262	353.75
224.479	-341.51
224.696	1252.63
224.913	-32.93
225.13	-39.94
225.347	32.28
225.564	52.14
225.781	70.74
225.997	52.91
226.214	69.07
226.431	44.57
226.648	32.1
226.865	21.66
227.082	10.51
227.298	13.23
227.515	11.79
227.732	3.19
227.949	2.78
228.165	3.49
228.382	2.51
228.599	-5.39
228.816	-12.71
229.032	-14.89
229.249	-13.99
229.466	-8.09
229.682	-16.01
229.899	-16.92
230.116	-21.84
230.332	-28.52
230.549	-73.04
230.765	-88.69
230.982	-65.02
231.199	-48.89
231.415	-73.48
231.632	-77.07
231.848	-38.95
232.065	-1.72
232.281	8.24
232.498	11.39
232.714	-5.81
232.931	10.79
233.147	-8.38
233.364	-4.12
233.58	-8.67
233.797	6.29
234.013	-8.51
234.23	-26.57
234.446	-33.2
234.662	-19.73
234.879	-22.11
235.095	-24.21
235.312	-11.96
235.528	12.15
235.744	2.88
235.961	-11.78
236.177	-39.78
236.393	-6.48
236.61	5.99
236.826	10.14
237.042	-10.26
237.258	-7.46
237.475	1.21
237.691	-15.14
237.907	-51.68
238.123	-34.37
238.339	-8.9
238.556	3.57
238.772	-5.2
238.988	-5.25
239.204	-5.94
239.42	-1.8
239.636	-2.24
239.853	2.97
240.069	5.28
240.285	12.2
240.501	8.41
240.717	5.11
240.933	0.18
241.149	-4.53
241.365	-5.29
241.581	-3.78
241.797	-2.65
242.013	-3.61
242.229	-4.62
242.445	3.39
242.661	1.09
242.877	7.4
243.093	6.93
243.309	9.58
243.525	15.46
243.741	15.69
243.957	13.22
244.173	11.23
244.388	15.12
244.604	13.28
244.82	5.93
245.036	5.84
245.252	3.28
245.468	5.12
245.683	7.32
245.899	5.93
246.115	4.18
246.331	2.07
246.547	1.97
246.762	2.04
246.978	1.77
247.194	2.59
247.409	2.9
247.625	4.75
247.841	3.11
248.057	-1.55
248.272	-0
248.488	1.97
248.703	4.33
248.919	2.36
249.135	-1.94
249.35	-11.93
249.566	-14.95
249.782	-22.14
249.997	-21.12
250.213	-17.38
250.428	-13.97
250.644	-14.13
250.859	-16.46
251.075	-19.08
251.29	-14.71
251.506	-12.4
251.721	-7.36
251.937	-8.93
252.152	-2.14
252.368	-6.05
252.583	-5.27
252.798	-6.48
253.014	3.66
253.229	12.46
253.445	17.87
253.66	10.78
253.875	11.66
254.091	4.25
254.306	4.77
254.521	-0.72
254.737	2.42
254.952	-2.3
255.167	4.89
255.383	-9.91
255.598	-7.36
255.813	-13.89
256.028	-5.98
256.244	-8.76
256.459	0.24
256.674	2.68
256.889	4.12
257.104	3.7
257.32	5.84
257.535	1.38
257.75	4.12
257.965	2.81
258.18	4.33
258.395	2.09
258.61	4.71
258.826	3.02
259.041	4.58
259.256	3.2
259.471	3.29
259.686	3.16
259.901	7.44
260.116	7.38
260.331	6.11
260.546	4.26
260.761	7.11
260.976	3.41
261.191	3.48
261.406	-1.77
261.621	2.49
261.836	1.28
262.05	1.63
262.265	-7.22
262.48	-9.53
262.695	-3.6
262.91	-5.87
263.125	-8.39
263.34	-7.48
263.555	2.39
263.769	2.41
263.984	-4.19
264.199	-5.04
264.414	-4.65
264.629	-1.97
264.843	-2.4
265.058	-4.85
265.273	1.89
265.488	3.68
265.702	5.25
265.917	0.77
266.132	4.01
266.346	4.88
266.561	8.98
266.776	8.95
266.99	8.71
267.205	7.55
267.42	5.92
267.634	1.76
267.849	-3.04
268.063	-4.26
268.278	-6.49
268.492	-8.46
268.707	-5.96
268.922	-8.28
269.136	-10.53
269.351	-9.03
269.565	-5.95
269.78	-4.05
269.994	-0.09
270.209	6.65
270.423	5.43
270.637	7.26
270.852	3.93
271.066	1.92
271.281	2.87
271.495	4.1
271.709	4.36
271.924	4.69
272.138	5.02
272.353	2.97
272.567	-2.52
272.781	-0.88
272.996	-2.57
273.21	1.6
273.424	3.32
273.638	1.18
273.853	-2.93
274.067	-3.11
274.281	0.62
274.495	-0.93
274.71	0.86
274.924	7.91
275.138	4.77
275.352	5.78
275.566	6.9
275.781	7.85
275.995	7.53
276.209	10.61
276.423	7.1
276.637	4.53
276.851	2.95
277.065	3.71
277.279	-0.94
277.493	2.97
277.707	1.25
277.921	-1.75
278.135	-1.67
278.349	-1.41
278.563	-1.73
278.777	3.64
278.991	1.89
279.205	0.45
279.419	0.42
279.633	-0.84
279.847	-1.06
280.061	1.73
280.275	0.96
280.489	0.8
280.703	3.41
280.917	0.54
281.131	1.78
281.344	2.53
281.558	4.82
281.772	3.09
281.986	2.4
282.2	3.64
282.414	2.81
282.627	3.1
282.841	2.46
283.055	0.71
283.269	3.02
283.482	-0.37
283.696	-4.57
283.91	-3.05
284.123	-3.72
284.337	-2.42
284.551	-3.32
284.764	-4.65
284.978	-3.05
285.192	-2.28
285.405	-3.95
285.619	-2.61
285.833	-3.74
286.046	0.03
286.26	-0.62
286.473	0.21
286.687	-0.64
286.9	-3.55
287.114	-3
287.327	-4.37
287.541	-4.02
287.754	-2.87
287.968	-2.83
288.181	-0.92
288.395	-0.62
288.608	1.15
288.822	2.56
289.035	6.16
289.248	8.32
289.462	9.68
289.675	10.54
289.889	9.03
290.102	7.39
290.315	5.93
290.529	6.37
290.742	4.09
290.955	3.96
291.169	-0.58
291.382	-3.31
291.595	-3.78
291.808	-1.71
292.022	-0.44
292.235	-1.66
292.448	2.05
292.661	1.24
292.875	-0.63
293.088	0.88
293.301	-1.67
293.514	3.3
293.727	4.71
293.94	6.37
294.153	1.04
294.367	0.91
294.58	0.54
294.793	-0.45
295.006	-0.31
295.219	0.5
295.432	0.11
295.645	1.19
295.858	-0.38
296.071	-0.61
296.284	-1.01
296.497	1.33
296.71	-0.99
296.923	0.53
297.136	-0.33
297.349	1.34
297.562	-1.53
297.775	-0.49
297.988	0.5
298.201	1.26
298.414	-0.43
298.626	-2.6
298.839	-4.21
299.052	-0.4
299.265	1.19
299.478	1.31
299.691	0.31
299.903	1.29
300.116	4.38
300.329	2.63
300.542	1.6
300.755	1.13
300.967	2.86
301.18	4.22
301.393	1.61
301.605	0.2
301.818	3.76
302.031	0.55
302.243	6.26
302.456	1.97
302.669	3.01
302.881	4.53
303.094	4.89
303.307	4.43
303.519	3.06
303.732	4.97
303.944	4.42
304.157	2.58
304.37	6.63
304.582	3.98
304.795	5.73
305.007	4.9
305.22	2.3
305.432	3.87
305.645	3.45
305.857	3.09
306.069	3.09
306.282	3.46
306.494	5.35
306.707	3.93
306.919	6.81
307.132	2.55
307.344	6.24
307.556	8.31
307.769	8.9
307.981	9.4
308.193	11.65
308.406	9.74
308.618	10.37
308.83	8.25
309.043	9.09
309.255	9.25
309.467	14.93
309.679	11.55
309.892	10.71
310.104	10.83
310.316	10.82
310.528	9.42
310.74	11.45
310.953	13.19
311.165	14.08
311.377	13.84
311.589	11.72
311.801	8.42
312.013	6.85
312.225	6.09
312.437	5.55
312.649	5.78
312.862	6.95
313.074	5.62
313.286	4.17
313.498	5.89
313.71	8.38
313.922	8.23
314.134	8.82
314.346	9.64
314.558	10.31
314.77	9.82
314.982	8.94
315.193	8.78
315.405	8.88
315.617	9.52
315.829	11.47
316.041	8.59
316.253	11.07
316.465	10.52
316.677	12.9
316.888	14.47
317.1	11.82
317.312	13.64
317.524	16.68
317.736	18.73
317.947	19.24
318.159	17.6
318.371	18.52
318.583	16.6
318.794	18.11
319.006	17.04
319.218	14.23
319.43	14.17
319.641	12.15
319.853	10.13
320.064	9.11
320.276	7.84
320.488	5.38
320.699	6.11
320.911	3.69
321.123	3.03
321.334	2
321.546	5.51
321.757	7.71
321.969	7.82
322.18	6.1
322.392	4.64
322.603	2.28
322.815	3.53
323.026	3.08
323.238	2.84
323.449	4.54
323.661	5.76
323.872	4.52
324.083	4.46
324.295	4.39
324.506	3.25
324.718	2.69
324.929	3.88
325.14	3.84
325.352	4.61
325.563	6.98
325.774	4.01
325.986	4.62
326.197	4.51
326.408	7.07
326.62	6.62
326.831	6.74
327.042	9.28
327.253	6.57
327.464	7.13
327.676	7.98
327.887	8.65
328.098	10.32
328.309	9.43
328.52	9.81
328.732	8.48
328.943	12.63
329.154	13.29
329.365	11.87
329.576	14.12
329.787	13.44
329.998	12.45
330.209	11.95
330.42	8.43
330.631	8.53
330.842	8.47
331.053	5.75
331.264	3.86
331.475	3.61
331.686	6.66
331.897	9.57
332.108	8.82
332.319	10.15
332.53	10.02
332.741	12.69
332.952	14.12
333.163	14.93
333.374	16.69
333.585	17.78
333.795	18.18
334.006	14.69
334.217	14.17
334.428	15.5
334.639	13.15
334.849	13.04
335.06	13.48
335.271	10.43
335.482	7.98
335.692	8.34
335.903	8.32
336.114	7.51
336.325	9
336.535	8.9
336.746	8.38
336.957	8.74
337.167	8.15
337.378	9.87
337.589	10.37
337.799	13.29
338.01	12.1
338.22	8.61
338.431	7.03
338.642	5.84
338.852	4.95
339.063	6.78
339.273	7.59
339.484	9.38
339.694	8.83
339.905	11.73
340.115	12.47
340.326	12.94
340.536	16.54
340.746	18.96
340.957	19.66
341.167	21.36
341.378	18.5
341.588	18.75
341.799	18.79
342.009	17.87
342.219	18.65
342.43	16.6
342.64	16.69
342.85	13.84
343.061	12.71
343.271	14.56
343.481	15.06
343.691	16.18
343.902	15.96
344.112	16.8
344.322	17.52
344.532	15.11
344.743	13.99
344.953	12
345.163	13.39
345.373	15.25
345.583	11.67
345.793	11.08
346.004	9.41
346.214	9.93
346.424	3.25
346.634	1.5
346.844	3.33
347.054	4.74
347.264	7.73
347.474	8.19
347.684	7.26
347.894	8.32
348.104	8.08
348.314	9.87
348.524	8.68
348.734	14.98
348.944	14.98
349.154	15.89
349.364	13.93
349.574	13.72
349.784	15.11
349.994	14.57
350.204	14.02
350.413	13.94
350.623	15.23
350.833	15.79
351.043	12.67
351.253	15.25
351.463	11.54
351.672	14
351.882	13.47
352.092	11.66
352.302	11.53
352.511	12.78
352.721	9.82
352.931	6.74
353.141	6.27
353.35	4.14
353.56	2.3
353.77	3.98
353.979	3.99
354.189	4.19
354.399	3.95
354.608	5.56
354.818	5.23
355.027	7.18
355.237	8.68
355.447	8.57
355.656	10.82
355.866	11.8
356.075	12.14
356.285	12.87
356.494	12.82
356.704	13.09
356.913	10.53
357.123	11.11
357.332	11.75
357.542	12.51
357.751	14.23
357.96	13.45
358.17	11.85
358.379	10.53
358.589	8.06
358.798	7.25
359.007	7.47
359.217	10.08
359.426	10.03
359.635	10.71
359.845	11.38
360.054	12.07
360.263	12.65
360.472	13.83
360.682	15.5
360.891	17.14
361.1	17.36
361.309	17.51
361.519	16.79
361.728	17.31
361.937	16.35
362.146	14.91
362.355	11.41
362.564	12.01
362.774	12.17
362.983	11.84
363.192	11.5
363.401	11.15
363.61	10.65
363.819	10.82
364.028	10.86
364.237	11.91
364.446	11.55
364.655	12.76
364.864	11.59
365.073	10.77
365.282	9.78
365.491	9.52
365.7	10.59
365.909	10.39
366.118	11.34
366.327	8.84
366.536	7.65
366.745	8.01
366.954	8.32
367.162	9.47
367.371	9.12
367.58	9.45
367.789	8.65
367.998	8.29
368.207	9.52
368.415	8.9
368.624	10.5
368.833	11.34
369.042	11.52
369.25	12.79
369.459	12.24
369.668	12.39
369.877	11.88
370.085	13.94
370.294	13.08
370.503	12.46
370.711	12.07
370.92	11.74
371.129	12.21
371.337	12.67
371.546	12.08
371.754	11.87
371.963	12.84
372.171	14.38
372.38	12.73
372.589	12.27
372.797	12.08
373.006	13.05
373.214	13.88
373.423	13.21
373.631	14.22
373.84	13.43
374.048	12.4
374.256	13.61
374.465	11.59
374.673	11.39
374.882	13.22
375.09	12.55
375.298	12.23
375.507	11.87
375.715	13.26
375.923	10.55
376.132	11.36
376.34	12.92
376.548	11.71
376.757	13.53
376.965	13.99
377.173	12.52
377.381	12.46
377.59	13.06
377.798	14.58
378.006	11.43
378.214	13.65
378.423	13.8
378.631	11.47
378.839	10.14
379.047	9.36
379.255	11.07
379.463	12.16
379.671	12.94
379.879	11.66
380.088	11.65
380.296	12.12
380.504	11.42
380.712	11.59
380.92	13.29
381.128	13.69
381.336	14.31
381.544	11.4
381.752	12.39
381.96	14.02
382.168	13.22
382.376	12.43
382.584	12.53
382.791	13.76
382.999	13.14
383.207	11.57
383.415	10.53
383.623	9.7
383.831	10.9
384.039	9.87
384.247	8.98
384.454	10.64
384.662	8.45
384.87	8.03
385.078	6.77
385.285	6
385.493	7.81
385.701	9.76
385.909	8.65
386.116	8.56
386.324	8.68
386.532	6.94
386.739	5.3
386.947	7.17
387.155	8.29
387.362	9.4
387.57	11.23
387.778	10.58
387.985	10.01
388.193	9.95
388.4	10.6
388.608	11.59
388.816	12.6
389.023	12.27
389.231	11.67
389.438	10.73
389.646	10.36
389.853	9.37
390.061	8.78
390.268	9.14
390.475	9.9
390.683	9.68
390.89	8.31
391.098	7.31
391.305	7.83
391.512	7.71
391.72	9.06
391.927	8.9
392.135	8.66
392.342	9.69
392.549	9.66
392.756	10.05
392.964	9.32
393.171	9.26
393.378	9.6
393.586	9.17
393.793	10.68
394	10.87
394.207	10.44
394.414	10.55
394.622	10.28
394.829	9.75
395.036	8.84
395.243	8.87
395.45	9.58
395.657	9.5
395.864	10.09
396.072	10.31
396.279	9.49
396.486	9.96
396.693	11.41
396.9	11.18
397.107	10.75
397.314	10.38
397.521	11.75
397.728	12.4
397.935	13.3
398.142	13.3
398.349	12.28
398.556	13.31
398.763	13.88
398.97	13.28
399.177	13.13
399.383	12.5
399.59	13.5
399.797	12.39
400.004	12.17
400.211	11.24
400.418	11.59
400.625	13.18
400.831	12.7
401.038	12.92
401.245	12.46
401.452	13.06
401.658	14.11
401.865	14.55
402.072	15.53
402.279	15.58
402.485	17.41
402.692	17.51
402.899	15.77
403.105	14.82
403.312	13.96
403.519	14.5
403.725	14.31
403.932	15.13
404.138	14.34
404.345	14.01
404.552	13.96
404.758	13.13
404.965	13.6
405.171	14.35
405.378	14.3
405.584	14.57
405.791	14.25
405.997	15.58
406.204	14.47
406.41	15.71
406.617	15.17
406.823	15.8
407.029	14.32
407.236	14.14
407.442	13.61
407.649	14.77
407.855	14.13
408.061	13.83
408.268	11.81
408.474	12.7
408.68	13.16
408.887	12.94
409.093	12.4
409.299	13.24
409.505	13.23
409.712	13.19
409.918	12.93
410.124	13.32
410.33	13.31
410.537	13.04
410.743	13.35
410.949	12.44
411.155	12.99
411.361	12.09
411.567	12.9
411.773	12.28
411.98	12.11
412.186	11.76
412.392	13.55
412.598	13.96
412.804	15.29
413.01	14.36
413.216	15.2
413.422	15.08
413.628	16.36
413.834	16.63
414.04	16.81
414.246	17.03
414.452	18.19
414.658	16.75
414.864	16.97
415.07	17.29
415.275	17.87
415.481	17.8
415.687	17.71
415.893	17.24
416.099	17.51
416.305	17.82
416.511	18.01
416.716	17.42
416.922	17.76
417.128	17.45
417.334	17.9
417.539	17.78
417.745	16.56
417.951	16.29
418.157	16.08
418.362	15.63
418.568	16.16
418.774	15.82
418.979	16.02
419.185	15.8
419.391	15.84
419.596	15.18
419.802	15.39
420.008	16.1
420.213	12.49
420.419	12.62
420.624	12.81
420.83	12.28
421.035	12.62
421.241	12.11
421.446	12.24
421.652	12.39
421.857	12.19
422.063	11.69
422.268	11.71
422.474	15.84
422.679	15.96
422.885	15.59
423.09	15.44
423.295	15.63
423.501	16.22
423.706	16.59
423.911	16.44
424.117	16.57
424.322	17.24
424.527	17.4
424.733	17.69
424.938	17.6
425.143	18.2
425.349	18.35
425.554	18.09
425.759	17.91
425.964	17.21
426.169	17.69
426.375	18.14
426.58	17.66
426.785	17.25
426.99	16.71
427.195	16.23
427.4	15.04
427.605	15.3
427.811	15.57
428.016	15.81
428.221	16.45
428.426	16.78
428.631	16.6
428.836	16.55
429.041	16.55
429.246	16.76
429.451	17.62
429.656	18.46
429.861	18.59
430.066	19.45
430.271	19.12
430.476	18.72
430.681	18.04
430.886	17.36
431.09	17.87
431.295	17.98
431.5	18.35
431.705	18.1
431.91	17.72
432.115	17.02
432.32	16.3
432.524	16.08
432.729	15.66
432.934	15.46
433.139	16.26
433.343	15.9
433.548	15.42
433.753	14.54
433.958	14.55
434.162	15.75
434.367	16.63
434.572	16.21
434.776	16.22
434.981	16.41
435.186	16.6
435.39	16.59
435.595	16.74
435.799	17.78
436.004	17.85
436.209	17.91
436.413	17.13
436.618	17.3
436.822	17.63
437.027	17.26
437.231	17.09
437.436	16.91
437.64	16.89
437.845	16.39
438.049	15.94
438.253	16.13
438.458	16.18
438.662	15.57
438.867	14.68
439.071	14.53
439.275	14.45
439.48	14.99
439.684	14.88
439.888	14.89
440.093	15.52
440.297	15.41
440.501	15.87
440.706	15.58
440.91	15.62
441.114	16.19
441.318	16.09
441.523	16.38
441.727	15.59
441.931	15.46
442.135	15.28
442.339	14.89
442.543	14.98
442.748	14.71
442.952	14.56
443.156	14.63
443.36	14.38
443.564	14.08
443.768	14.35
443.972	14.81
444.176	15.48
444.38	15.42
444.584	15.44
444.788	15.17
444.992	15.52
445.196	15.97
445.4	16.17
445.604	16.44
445.808	16.38
446.012	16.35
446.216	16.51
446.42	16.63
446.624	16.79
446.828	16.83
447.032	17.53
447.235	17.08
447.439	16.68
447.643	17.04
447.847	17.2
448.051	17.26
448.254	17.37
448.458	17.49
448.662	16.84
448.866	17.31
449.069	17.64
449.273	17.42
449.477	17.7
449.681	18.24
449.884	17.87
450.088	17.48
450.292	18.3
450.495	17.89
450.699	17.41
450.902	17.6
451.106	17.26
451.31	16.86
451.513	17.38
451.717	17.52
451.92	16.92
452.124	16.8
452.327	16.86
452.531	16.83
452.734	17.5
452.938	18.76
453.141	18.88
453.345	18.54
453.548	18.36
453.752	17.49
453.955	17.05
454.158	17.34
454.362	17.47
454.565	17.6
454.769	17.55
454.972	16.91
455.175	15.61
455.379	15.58
455.582	16.34
455.785	16.83
455.988	16.99
456.192	17.07
456.395	17.15
456.598	16.97
456.801	17.43
457.005	17.55
457.208	17.92
457.411	18.01
457.614	17.91
457.817	17.08
458.021	17.11
458.224	16.96
458.427	16.83
458.63	16.41
458.833	16.34
459.036	15.99
459.239	15.81
459.442	15.7
459.645	15.75
459.848	15.97
460.051	15.96
460.254	15.4
460.457	15.15
460.66	15.11
460.863	15.23
461.066	15.43
461.269	15.57
461.472	16
461.675	15.67
461.878	15.55
462.081	15.22
462.284	15
462.486	15.53
462.689	16.36
462.892	16.06
463.095	16.07
463.298	16.04
463.5	15.57
463.703	15.57
463.906	16.67
464.109	16.77
464.311	16.8
464.514	17.81
464.717	17.55
464.92	17.16
465.122	17.38
465.325	17.28
465.528	17.09
465.73	17.18
465.933	17.55
466.135	16.99
466.338	16.35
466.541	16.01
466.743	15.44
466.946	15.54
467.148	15.17
467.351	15.52
467.553	16.02
467.756	16.17
467.958	16.06
468.161	15.47
468.363	15.4
468.566	15.88
468.768	16.71
468.971	16.95
469.173	16.53
469.375	16.66
469.578	16.25
469.78	16.1
469.983	16.87
470.185	16.46
470.387	16.7
470.59	17.44
470.792	17.95
470.994	17.03
471.196	17.56
471.399	18.16
471.601	18.31
471.803	18.89
472.005	19.16
472.208	18.94
472.41	19.44
472.612	18.94
472.814	18.43
473.016	18.94
473.218	19.74
473.421	18.82
473.623	18.02
473.825	18.25
474.027	18.32
474.229	18.36
474.431	17.98
474.633	18.46
474.835	18.48
475.037	18.93
475.239	18.5
475.441	17.85
475.643	17.81
475.845	18.74
476.047	18.85
476.249	18.89
476.451	19.08
476.653	19.38
476.855	18.63
477.057	18.68
477.258	18.32
477.46	18.56
477.662	19.09
477.864	19.31
478.066	19.16
478.268	18.89
478.469	18.93
478.671	18.73
478.873	18.64
479.075	19.03
479.276	18.93
479.478	18.93
479.68	18.46
479.882	18.18
480.083	17.83
480.285	17.9
480.487	17.75
480.688	17.21
480.89	16.51
481.091	16.56
481.293	16.64
481.495	16.64
481.696	16.69
481.898	16.57
482.099	16.4
482.301	16.46
482.502	16.42
482.704	16.22
482.905	16.27
483.107	16.41
483.308	16.51
483.51	16.34
483.711	16.35
483.913	16.22
484.114	16.24
484.315	16.34
484.517	16.51
484.718	16.49
484.92	16.59
485.121	16.66
485.322	16.55
485.524	16.16
485.725	16.33
485.926	16.54
486.127	16.34
486.329	16.49
486.53	16.54
486.731	16.61
486.932	16.54
487.134	16.79
487.335	16.59
487.536	16.91
487.737	17.23
487.938	17.16
488.139	17.1
488.341	17.42
488.542	17.31
488.743	17.69
488.944	17.59
489.145	17.74
489.346	17.58
489.547	17.69
489.748	17.74
489.949	17.74
490.15	17.91
490.351	17.95
490.552	17.76
490.753	17.73
490.954	17.33
491.155	17.41
491.356	17.45
491.557	17.74
491.758	18.24
491.959	18.19
492.159	18.02
492.36	17.87
492.561	17.57
492.762	17.89
492.963	18.07
493.164	18.64
493.364	18.62
493.565	18.38
493.766	18.05
493.967	17.59
494.167	17.47
494.368	17.94
494.569	18.46
494.769	18.96
494.97	18.31
495.171	18.28
495.371	18.12
495.572	17.84
495.773	17.88
495.973	18.19
496.174	18.62
496.375	18.62
496.575	18.32
496.776	17.93
496.976	18.06
497.177	18.44
497.377	19.05
497.578	19.27
497.778	19.5
497.979	19.75
498.179	19.8
498.38	19.24
498.58	19.53
498.78	19.53
498.981	19.4
499.181	18.86
499.382	19.4
499.582	18.91
499.782	18.29
499.983	18.96
500.183	18.92
500.383	18.83
500.584	18.99
500.784	18.65
500.984	19.15
501.184	19.4
501.385	19.57
501.585	20.03
501.785	20.14
501.985	20.57
502.185	20.26
502.386	20.14
502.586	19.91
502.786	20.19
502.986	20.26
503.186	19.69
503.386	19.3
503.586	18.79
503.786	17.76
503.987	17.51
504.187	17.47
504.387	17.37
504.587	17.67
504.787	17.87
504.987	17.81
505.187	18.36
505.387	18.23
505.587	18.49
505.786	19.17
505.986	19.48
506.186	19.94
506.386	19.68
506.586	19.55
506.786	19.07
506.986	18.68
507.186	18.56
507.386	18.03
507.585	18.3
507.785	18.5
507.985	18.35
508.185	18.27
508.384	17.96
508.584	18.03
508.784	18.14
508.984	18.28
509.183	18.86
509.383	18.53
509.583	18.53
509.782	18.55
509.982	18.54
510.182	18.72
510.381	18.86
510.581	19.1
510.781	19.34
510.98	18.96
511.18	19.2
511.379	19.55
511.579	19.69
511.778	20.1
511.978	20.78
512.177	21.02
512.377	21.33
512.576	21.38
512.776	21.3
512.975	21.39
513.175	21.57
513.374	21.8
513.573	21.67
513.773	22.03
513.972	21.71
514.172	21.26
514.371	20.71
514.57	20.15
514.77	20.21
514.969	20.33
515.168	20.43
515.367	20.65
515.567	20.85
515.766	20.38
515.965	19.81
516.164	19.97
516.364	19.65
516.563	20.45
516.762	20.95
516.961	20.75
517.16	20.58
517.359	20.77
517.559	20.99
517.758	20.96
517.957	20.85
518.156	21.15
518.355	21.26
518.554	21.37
518.753	21.04
518.952	21.06
519.151	21.18
519.35	21.21
519.549	20.76
519.748	20.84
519.947	20.45
520.146	21
520.345	21.32
520.544	21.38
520.743	21.53
520.942	21.63
521.141	21.43
521.339	21.87
521.538	21.87
521.737	22.01
521.936	21.82
522.135	21.72
522.333	21.94
522.532	22.33
522.731	22.3
522.93	22.11
523.129	21.83
523.327	22.08
523.526	22.05
523.725	21.94
523.923	22.22
524.122	22.26
524.321	22.75
524.519	22.41
524.718	22.13
524.917	22.24
525.115	22.5
525.314	22.66
525.512	22.73
525.711	22.59
525.909	22.65
526.108	22.33
526.306	22.4
526.505	22
526.703	22.07
526.902	22.02
527.1	21.91
527.299	21.84
527.497	21.79
527.696	21.58
527.894	21.71
528.092	21.75
528.291	21.72
528.489	21.77
528.688	22.02
528.886	21.89
529.084	21.95
529.283	22.02
529.481	21.97
529.679	22.22
529.877	22.13
530.076	22.12
530.274	22.15
530.472	22.72
530.67	22.41
530.869	22.59
531.067	22.47
531.265	22.65
531.463	22.61
531.661	22.85
531.859	22.79
532.057	22.98
532.255	22.89
532.454	22.98
532.652	22.84
532.85	22.88
533.048	22.79
533.246	23.17
533.444	23.08
533.642	23.21
533.84	23.57
534.038	23.55
534.236	23.64
534.434	23.68
534.632	23.51
534.83	23.46
535.027	23.97
535.225	23.83
535.423	23.88
535.621	24.09
535.819	24.02
536.017	23.98
536.215	23.98
536.412	24.26
536.61	24.11
536.808	24.15
537.006	24.36
537.203	24.08
537.401	24.47
537.599	24.54
537.797	24.6
537.994	24.92
538.192	24.58
538.39	24.64
538.587	24.12
538.785	24.05
538.983	24.22
539.18	24.14
539.378	24.12
539.575	24.13
539.773	24.13
539.97	23.81
540.168	23.75
540.366	23.59
540.563	23.51
540.761	23.53
540.958	23.77
541.155	24.05
541.353	24.08
541.55	24.32
541.748	24.2
541.945	24.13
542.143	24.4
542.34	24.35
542.537	24.67
542.735	24.92
542.932	25.24
543.129	25.4
543.327	25.16
543.524	25.33
543.721	25.06
543.919	24.83
544.116	24.79
544.313	24.37
544.51	24.57
544.708	24.38
544.905	24.6
545.102	24.79
545.299	25.05
545.496	25.19
545.693	25.37
545.891	25.78
546.088	26.36
546.285	26.52
546.482	27.03
546.679	27.63
546.876	28.7
547.073	28.67
547.27	28.94
547.467	28.71
547.664	28.67
547.861	28.38
548.058	28.37
548.255	27.98
548.452	27.86
548.649	28.22
548.846	27.02
549.043	26.42
549.24	26.6
549.437	26.76
549.633	27
549.83	27.56
550.027	27.52
550.224	28.01
550.421	28.59
550.618	29.12
550.814	28.36
551.011	28.97
551.208	29.18
551.405	29.14
551.601	28.56
551.798	28.96
551.995	28.91
552.191	28.89
552.388	28.09
552.585	28.32
552.781	28.03
552.978	28.49
553.175	28.52
553.371	28.44
553.568	28.99
553.764	29.24
553.961	28.87
554.157	28.81
554.354	29.61
554.55	29.65
554.747	29.37
554.943	29.15
555.14	29.35
555.336	29.76
555.533	29.74
555.729	29.62
555.926	29.45
556.122	30.05
556.318	30.11
556.515	30.6
556.711	31.36
556.907	31.29
557.104	31.83
557.3	32.92
557.496	32.77
557.693	32.06
557.889	31.71
558.085	31.9
558.281	31.4
558.478	30.52
558.674	29.31
558.87	29.16
559.066	29.37
559.262	29.79
559.459	28.94
559.655	28.93
559.851	29.69
560.047	30
560.243	30.44
560.439	30.58
560.635	31.86
560.831	31.58
561.027	32.27
561.223	32.51
561.419	32.1
561.615	31.31
561.811	31.9
562.007	31.81
562.203	31.97
562.399	31.6
562.595	30.87
562.791	30.69
562.987	31.65
563.183	31.17
563.379	30.78
563.575	30.96
563.771	31.73
563.966	31.62
564.162	31.72
564.358	31.17
564.554	31.32
564.75	31.82
564.945	31.25
565.141	30.58
565.337	30.26
565.533	30.05
565.728	29.78
565.924	29.85
566.12	29.53
566.315	29.67
566.511	30.1
566.707	30.07
566.902	29.83
567.098	30.57
567.293	31.27
567.489	31.45
567.684	31.94
567.88	32.21
568.076	32.23
568.271	32.73
568.467	32.34
568.662	32.09
568.858	32.42
569.053	32.66
569.248	32.42
569.444	31.63
569.639	31.57
569.835	31.03
570.03	31.36
570.225	31.36
570.421	30.86
570.616	31.02
570.812	31.33
571.007	31.13
571.202	30.58
571.397	30.14
571.593	30.75
571.788	30.67
571.983	30.77
572.178	30.95
572.374	31.12
572.569	31.17
572.764	31.22
572.959	30.92
573.154	31.84
573.35	32.41
573.545	32.79
573.74	32.88
573.935	32.72
574.13	32.91
574.325	32.18
574.52	31.49
574.715	31.79
574.91	32.2
575.105	31.89
575.3	31.08
575.495	31.56
575.69	31.83
575.885	31.58
576.08	32.37
576.275	31.86
576.47	32.09
576.665	32.21
576.86	32.55
577.055	32.41
577.25	33.32
577.444	33.7
577.639	33.6
577.834	33.91
578.029	33.23
578.224	32.98
578.418	33.8
578.613	34.32
578.808	34.8
579.003	34.05
579.197	33.23
579.392	32.85
579.587	32.55
579.781	32.1
579.976	32.07
580.171	32.79
580.365	32.66
580.56	32.68
580.755	32.48
580.949	32.07
581.144	32.07
581.338	32.55
581.533	32.63
581.727	32.99
581.922	33.3
582.116	32.91
582.311	32.99
582.505	32.75
582.7	33.39
582.894	33.64
583.089	33.94
583.283	35.2
583.478	34.93
583.672	34.5
583.866	33.93
584.061	34.31
584.255	33.58
584.449	34.15
584.644	34.85
584.838	33.83
585.032	33.97
585.226	33.82
585.421	33.94
585.615	34.34
585.809	34.39
586.003	34.05
586.198	32.8
586.392	33.6
586.586	33.57
586.78	32.55
586.974	32.59
587.168	32.32
587.363	32.82
587.557	31.54
587.751	30.93
587.945	30.32
588.139	31.13
588.333	32.1
588.527	31.29
588.721	30.6
588.915	30.73
589.109	30.88
589.303	30.61
589.497	31.12
589.691	32.16
589.885	32.24
590.079	32.66
590.273	31.81
590.466	31.44
590.66	32.21
590.854	32.24
591.048	32.31
591.242	33.24
591.436	33.36
591.629	32.33
591.823	30.95
592.017	31.78
592.211	32.09
592.404	32.97
592.598	33.62
592.792	33.37
592.986	33.92
593.179	34.92
593.373	34.42
593.567	34.7
593.76	35.05
593.954	35.23
594.147	34.99
594.341	34.65
594.535	34.52
594.728	34.47
594.922	34.52
595.115	35.21
595.309	35.23
595.502	34.79
595.696	34.7
595.889	34.5
596.083	34.66
596.276	35.09
596.47	36.1
596.663	35.79
596.856	35.88
597.05	36.05
597.243	35.57
597.437	34.82
597.63	35.44
597.823	35.23
598.017	34.82
598.21	35.49
598.403	35.13
598.596	34.8
598.79	35.33
598.983	35.61
599.176	36.11
599.369	35.68
599.563	35.48
599.756	35.91
599.949	35.99
600.142	36.83
600.335	37.58
600.528	36.82
600.722	37.56
600.915	37.35
601.108	36.58
601.301	36.82
601.494	36.82
601.687	36.41
601.88	35.61
602.073	35.49
602.266	35.64
602.459	35.21
602.652	35.79
602.845	34.88
603.038	35.09
603.231	35.16
603.424	34.64
603.617	34.12
603.809	34.94
604.002	34.69
604.195	34.58
604.388	34.38
604.581	34.02
604.774	34.62
604.966	34.89
605.159	34.37
605.352	34.34
605.545	34.6
605.737	35.35
605.93	34.75
606.123	35.16
606.316	34.77
606.508	34.86
606.701	34.61
606.894	33.78
607.086	33.6
607.279	33.81
607.471	34.19
607.664	33.84
607.857	33.3
608.049	33.26
608.242	33.34
608.434	33.85
608.627	33.96
608.819	34.54
609.012	34.45
609.204	34.55
609.397	34.77
609.589	34.31
609.782	34.89
609.974	35.6
610.166	36.9
610.359	37.51
610.551	37.83
610.743	37.78
610.936	38.67
611.128	38.52
611.32	38.52
611.513	38.83
611.705	39.57
611.897	39.36
612.09	39.28
612.282	39.06
612.474	38.64
612.666	39.04
612.858	39.81
613.051	38.96
613.243	39.66
613.435	39.83
613.627	39.54
613.819	40.64
614.011	40.66
614.203	40.09
614.395	39.99
614.588	41.05
614.78	40.35
614.972	39.68
615.164	40.04
615.356	40.27
615.548	40.12
615.74	39.88
615.932	38.9
616.124	38.75
616.315	38.95
616.507	38.99
616.699	37.09
616.891	37.08
617.083	37.29
617.275	35.92
617.467	35.17
617.659	35.28
617.85	36.09
618.042	36.57
618.234	36.44
618.426	37.15
618.618	36.53
618.809	37.27
619.001	37.67
619.193	37.65
619.384	38.57
619.576	39.82
619.768	39.64
619.959	39.39
620.151	38.91
620.343	39.14
620.534	38.8
620.726	39.28
620.917	39.43
621.109	39.48
621.301	39.07
621.492	39.11
621.684	38.92
621.875	38.9
622.067	38.92
622.258	39.11
622.45	39.45
622.641	39.85
622.832	38.81
623.024	38.86
623.215	40.44
623.407	40.55
623.598	39.7
623.789	39.56
623.981	38.74
624.172	39.04
624.363	38.75
624.555	38.21
624.746	38.07
624.937	38.61
625.129	39.08
625.32	37.87
625.511	38.32
625.702	38.87
625.893	37.65
626.085	39.4
626.276	38.72
626.467	38.3
626.658	38.68
626.849	38.87
627.04	39.2
627.231	38.71
627.422	39.04
627.614	38.77
627.805	38.34
627.996	39.25
628.187	38.44
628.378	38.48
628.569	39.07
628.76	39.23
628.951	38.48
629.142	38.04
629.332	37.85
629.523	37
629.714	36.24
629.905	36.49
630.096	35.82
630.287	35.38
630.478	36.49
630.669	35.87
630.859	35.1
631.05	35.8
631.241	35.76
631.432	36.26
631.623	36.2
631.813	37.16
632.004	37.63
632.195	37.26
632.385	37.67
632.576	37.11
632.767	37.78
632.957	39.07
633.148	38.88
633.339	39.41
633.529	39.72
633.72	40.05
633.91	40.17
634.101	39.87
634.292	41.14
634.482	40.74
634.673	40.75
634.863	40.26
635.054	39.75
635.244	39.76
635.435	39.96
635.625	39.16
635.815	40
636.006	38.77
636.196	39.24
636.387	38.24
636.577	39.04
636.767	39.46
636.958	39.99
637.148	40.51
637.338	40.61
637.529	41.09
637.719	40.36
637.909	39.6
638.099	40.69
638.29	38.67
638.48	39.39
638.67	40.47
638.86	39.69
639.05	39.95
639.241	40.6
639.431	40.29
639.621	39.81
639.811	41.95
640.001	42.86
640.191	43.1
640.381	45.31
640.571	44.68
640.761	44.88
640.951	44.42
641.141	43.92
641.331	41.16
641.521	41.69
641.711	42.17
641.901	41.87
642.091	41.12
642.281	39.82
642.471	39.06
642.661	41.1
642.851	39.19
643.041	39.5
643.231	39.9
643.42	41.3
643.61	41.44
643.8	40.69
643.99	40.14
644.18	39.81
644.369	39.68
644.559	40.09
644.749	38.95
644.939	39.71
645.128	39.62
645.318	39.69
645.508	39.78
645.697	39.02
645.887	38.88
646.076	38.18
646.266	37.99
646.456	38.2
646.645	38.32
646.835	38.09
647.024	36.08
647.214	35.96
647.403	34.98
647.593	35.16
647.782	36
647.972	35.6
648.161	37.15
648.351	37.63
648.54	37.98
648.73	37.9
648.919	39.16
649.108	40.56
649.298	40.66
649.487	41.14
649.677	40.27
649.866	39.99
650.055	40.31
650.244	39.85
650.434	40.47
650.623	42.03
650.812	42.64
651.002	41.23
651.191	40.86
651.38	41.98
651.569	43.24
651.758	43.16
651.947	42.98
652.137	42.7
652.326	42.66
652.515	41.44
652.704	39.95
652.893	39.93
653.082	41.29
653.271	43.11
653.46	42.74
653.649	41.9
653.838	41.85
654.027	41.37
654.216	41.78
654.405	41.25
654.594	40.84
654.783	41.78
654.972	41.46
655.161	40.2
655.35	39.61
655.539	39.85
655.728	40.04
655.916	41.23
656.105	41.49
656.294	42.11
656.483	41.59
656.672	41.8
656.86	40.74
657.049	40.27
657.238	40.58
657.427	39.83
657.615	39.61
657.804	39.13
657.993	38.91
658.181	39.33
658.37	38.65
658.559	38.49
658.747	39.87
658.936	41.86
659.125	42.25
659.313	41.56
659.502	40.86
659.69	40.41
659.879	41.22
660.067	41.77
660.256	41.84
660.444	42.55
660.633	43.53
660.821	42.56
661.01	41.24
661.198	41
661.387	40.84
661.575	41.84
661.763	42.69
661.952	42.47
662.14	39.94
662.328	39.78
662.517	39.93
662.705	40.36
662.893	41.96
663.082	42.51
663.27	43.52
663.458	44.63
663.646	43.64
663.834	43.05
664.023	43.08
664.211	47.28
664.399	48.4
664.587	47.18
664.775	47.65
664.963	46.31
665.152	47.03
665.34	46.29
665.528	46.69
665.716	48.53
665.904	49.02
666.092	48.23
666.28	46.76
666.468	45.76
666.656	46.72
666.844	45.7
667.032	45.2
667.22	43.36
667.408	42.08
667.596	42.12
667.784	40.9
667.971	40.45
668.159	42.22
668.347	42.85
668.535	42.92
668.723	40.45
668.911	41.47
669.098	41.78
669.286	41.11
669.474	41.98
669.662	42.08
669.849	43.16
670.037	42
670.225	40
670.413	40.11
670.6	39.64
670.788	40.86
670.976	40.77
671.163	40.65
671.351	41.7
671.538	41.59
671.726	40.46
671.913	39.48
672.101	39.75
672.289	39.32
672.476	39.22
672.664	39.41
672.851	39.68
673.039	38.4
673.226	39.21
673.413	39.59
673.601	40.43
673.788	41.2
673.976	39.88
674.163	40.75
674.35	41.1
674.538	39.28
674.725	40.55
674.912	41.8
675.1	42.62
675.287	41.74
675.474	40.54
675.662	39.54
675.849	40.44
676.036	40.95
676.223	40.81
676.411	41.96
676.598	42.74
676.785	42.03
676.972	41.79
677.159	40.83
677.346	40.98
677.533	41.95
677.721	42.54
677.908	41.07
678.095	42.29
678.282	43.7
678.469	42.91
678.656	42.44
678.843	41.86
679.03	42.23
679.217	42.63
679.404	42.42
679.591	42.55
679.778	43.16
679.964	43.32
680.151	42.24
680.338	41.06
680.525	42.11
680.712	42.03
680.899	42.03
681.086	41.41
681.272	40.1
681.459	41.15
681.646	41.13
681.833	40.44
682.02	41.23
682.206	41.97
682.393	43.83
682.58	43.12
682.766	43.79
682.953	45.64
683.14	45.68
683.326	49.38
683.513	48.47
683.7	47.42
683.886	47.63
684.073	47.24
684.259	47.71
684.446	45.03
684.632	45.05
684.819	43.82
685.005	41.82
685.192	41.49
685.378	38.84
685.565	38.98
685.751	41.01
685.938	39.48
686.124	39.47
686.31	39.1
686.497	39.53
686.683	39.92
686.87	40.41
687.056	40.95
687.242	41.35
687.429	41.65
687.615	40.99
687.801	38.92
687.987	38.94
688.174	39.75
688.36	40.73
688.546	40.68
688.732	40.48
688.918	40.91
689.105	40.4
689.291	38.08
689.477	36.82
689.663	37.95
689.849	38.12
690.035	38.15
690.221	37.24
690.407	35.38
690.593	36.69
690.779	36.87
690.965	36.81
691.151	36.28
691.337	38.59
691.523	39.17
691.709	39.63
691.895	40.99
692.081	43.6
692.267	42.22
692.453	43.23
692.639	43.7
692.825	42.09
693.011	41.62
693.196	42.24
693.382	40.77
693.568	43.35
693.754	40.37
693.94	38.25
694.125	36.94
694.311	37.57
694.497	37.48
694.682	37.26
694.868	38.19
695.054	37.19
695.239	38.69
695.425	40.21
695.611	37.51
695.796	39.66
695.982	42.01
696.168	39.94
696.353	39.88
696.539	40.06
696.724	38.92
696.91	37.95
697.095	38.33
697.281	36.72
697.466	36.43
697.652	38.6
697.837	37.18
698.023	36.06
698.208	37.77
698.393	38.46
698.579	38.82
698.764	38.72
698.949	40.53
699.135	40.85
699.32	41.08
699.505	40.53
699.691	38.98
699.876	41.04
700.061	41.55
700.246	42.05
700.432	42.65
700.617	41.13
700.802	42.38
700.987	40.78
701.172	42.52
701.358	44.18
701.543	45.22
701.728	44.43
701.913	44.32
702.098	44.51
702.283	43.63
702.468	41.94
702.653	44.08
702.838	45.41
703.023	45.63
703.208	43.66
703.393	44.05
703.578	43.78
703.763	45
703.948	44.17
704.133	43.44
704.318	43.13
704.503	43.51
704.688	43.32
704.873	40.98
705.057	42.53
705.242	42.67
705.427	42.72
705.612	41.76
705.797	41.34
705.981	44.44
706.166	45.74
706.351	46.31
706.536	48.21
706.72	47.69
706.905	50.35
707.09	48.12
707.274	49.61
707.459	49.32
707.644	51.78
707.828	52.04
708.013	49.4
708.197	47.46
708.382	46.59
708.567	45.7
708.751	45.49
708.936	43.12
709.12	45.41
709.305	43.7
709.489	44.45
709.673	44.22
709.858	43.23
710.042	44.62
710.227	47.25
710.411	46.74
710.596	48.68
710.78	48.9
710.964	49.95
711.149	49.78
711.333	49.91
711.517	49.41
711.702	47.35
711.886	46.41
712.07	45.27
712.254	43.82
712.438	45.62
712.623	43.21
712.807	42.25
712.991	39.74
713.175	38.2
713.359	38.89
713.544	38.55
713.728	39.5
713.912	42.32
714.096	44.27
714.28	43.56
714.464	42.18
714.648	42.17
714.832	42.41
715.016	44.23
715.2	41.97
715.384	41.57
715.568	41.49
715.752	39.15
715.936	37.35
716.12	34.9
716.304	38.36
716.488	39.66
716.671	38.65
716.855	39.24
717.039	38.04
717.223	41.37
717.407	43.08
717.59	42.33
717.774	44.31
717.958	41.55
718.142	41.49
718.325	36.5
718.509	31.27
718.693	34.34
718.877	34.91
719.06	37.32
719.244	33.59
719.428	33.7
719.611	35.28
719.795	35.9
719.978	38.04
720.162	40.31
720.345	41.94
720.529	47.16
720.713	44.92
720.896	45.33
721.08	41.62
721.263	44.51
721.446	41.33
721.63	40.01
721.813	39.02
721.997	37.81
722.18	39.27
722.364	40.19
722.547	37.89
722.73	40
722.914	37.12
723.097	38.27
723.28	37.91
723.464	42.06
723.647	42.92
723.83	43.66
724.013	47.87
724.197	45.68
724.38	44.44
724.563	42.26
724.746	43.41
724.929	44.84
725.112	46.97
725.296	46.6
725.479	42.46
725.662	41.61
725.845	43.01
726.028	41.69
726.211	44.16
726.394	43.23
726.577	46.25
726.76	44.51
726.943	45.54
727.126	42.62
727.309	43.75
727.492	46.61
727.675	44.53
727.858	41.17
728.041	41.64
728.224	40.17
728.407	41.91
728.589	44.59
728.772	42.68
728.955	41.55
729.138	41.81
729.321	40.26
729.503	37.77
729.686	40.93
729.869	44.84
730.052	43.99
730.234	41.57
730.417	40.23
730.6	38.3
730.782	37.58
730.965	39.89
731.148	41.83
731.33	42.74
731.513	43.03
731.695	41.95
731.878	41.69
732.061	43.42
732.243	45.8
732.426	47.43
732.608	46.5
732.791	50.56
732.973	49.93
733.156	50.06
733.338	51.28
733.52	52.82
733.703	53.6
733.885	54
734.068	51.27
734.25	50.46
734.432	48.86
734.615	50.04
734.797	44.93
734.979	47.55
735.162	46.68
735.344	44.81
735.526	43.58
735.708	45.72
735.891	43.23
736.073	44.49
736.255	49.28
736.437	54.71
736.619	53.54
736.802	54.64
736.984	50.21
737.166	49.1
737.348	49.89
737.53	53.9
737.712	52.64
737.894	55.72
738.076	54.27
738.258	52.23
738.44	50.29
738.622	51.41
738.804	51.03
738.986	53.03
739.168	54.93
739.35	57.1
739.532	55.06
739.714	53.91
739.896	46.37
740.078	55.56
740.259	53.99
740.441	54.33
740.623	57.37
740.805	59.81
740.987	58.31
741.168	59.44
741.35	60.88
741.532	61.16
741.714	62.83
741.895	72.55
742.077	68.48
742.259	70.08
742.44	69.55
742.622	69.74
742.804	68.89
742.985	66.08
743.167	68.06
743.348	64.6
743.53	61.14
743.711	64.01
743.893	62.2
744.075	60.76
744.256	61.61
744.438	58.56
744.619	56.3
744.8	58.79
744.982	61.84
745.163	59.27
745.345	58.45
745.526	59.8
745.707	58.13
745.889	58.16
746.07	59.46
746.252	59.74
746.433	61.18
746.614	64.19
746.795	61.06
746.977	60.42
747.158	60.18
747.339	63
747.52	67.23
747.702	69.68
747.883	67.86
748.064	68.79
748.245	65.59
748.426	64.94
748.607	63.44
748.788	64.95
748.97	65.97
749.151	62.59
749.332	61.42
749.513	56.05
749.694	57.57
749.875	57.74
750.056	55.19
750.237	58.47
750.418	60.26
750.599	56.55
750.78	57.33
750.96	59.36
751.141	69.37
751.322	68.79
751.503	74.14
751.684	66.54
751.865	67.89
752.046	65.78
752.226	63.63
752.407	66.63
752.588	67.14
752.769	64.84
752.949	64.09
753.13	63.84
753.311	62.39
753.492	58.55
753.672	58.42
753.853	56.01
754.034	57.25
754.214	57.4
754.395	57.2
754.575	61.05
754.756	61.79
754.937	62.18
755.117	56.72
755.298	59.31
755.478	60.79
755.659	64.52
755.839	68.08
756.02	69.7
756.2	65.59
756.381	61.19
756.561	58.41
756.741	60.37
756.922	57.8
757.102	54.7
757.283	54.1
757.463	49.58
757.643	51.02
757.823	45.11
758.004	38.44
758.184	37.41
758.364	34.32
758.545	34.8
758.725	32.57
758.905	31.97
759.085	27.65
759.265	28.94
759.446	30.55
759.626	31.05
759.806	31.94
759.986	31.95
760.166	37.24
760.346	42.07
760.526	39.31
760.706	37.7
760.886	39.83
761.066	44.75
761.246	39.72
761.426	41.13
761.606	40.43
761.786	41.17
761.966	43.8
762.146	43.25
762.326	39.6
762.506	38.2
762.686	37.67
762.866	37.28
763.046	35.81
763.225	38.65
763.405	39.39
763.585	39.78
763.765	40.77
763.945	42.31
764.124	41.8
764.304	43.62
764.484	48.28
764.664	48.39
764.843	51.32
765.023	55.49
765.203	52.04
765.382	50.62
765.562	47.24
765.741	48.18
765.921	49.62
766.101	50.68
766.28	55.93
766.46	59.7
766.639	66.45
766.819	63.95
766.998	68.63
767.178	79.6
767.357	81.35
767.537	81.36
767.716	87.3
767.896	83.31
768.075	83.77
768.254	83.34
768.434	84.27
768.613	86.37
768.792	92.14
768.972	82.43
769.151	68.4
769.33	67.47
769.51	65.32
769.689	62.39
769.868	62.72
770.047	62.86
770.226	60.69
770.406	57.49
770.585	57.12
770.764	58.03
770.943	59.38
771.122	65.22
771.301	67.83
771.48	72.86
771.66	73.28
771.839	80.14
772.018	81.62
772.197	84.96
772.376	83.94
772.555	81.08
772.734	80.13
772.913	80.58
773.092	80.88
773.271	85.54
773.449	87.36
773.628	91.2
773.807	84.15
773.986	87.74
774.165	86.44
774.344	89.67
774.523	91.82
774.701	86.6
774.88	88.39
775.059	88.11
775.238	91.44
775.417	82.84
775.595	80.88
775.774	81.7
775.953	78.66
776.131	72.27
776.31	66.54
776.489	68.17
776.667	76.84
776.846	73.51
777.025	76.59
777.203	67.19
777.382	69.17
777.56	70.1
777.739	69.73
777.917	73.16
778.096	76.1
778.274	79.59
778.453	74.99
778.631	68.05
778.81	75.16
778.988	72.85
779.166	79.25
779.345	82.3
779.523	80.23
779.702	80.23
779.88	82.48
780.058	92.44
780.237	86.68
780.415	84.87
780.593	90.13
780.771	81.93
780.95	83.72
781.128	84.23
781.306	85.57
781.484	85.81
781.662	85.06
781.841	78.16
782.019	73.05
782.197	77.88
782.375	82.23
782.553	78.28
782.731	77.32
782.909	72.78
783.087	71.79
783.265	70.4
783.443	71.84
783.621	70.88
783.799	76.67
783.977	69.85
784.155	71.08
784.333	69.85
784.511	68.55
784.689	70.45
784.867	78.54
785.045	67.52
785.223	58.43
785.4	59.3
785.578	61.86
785.756	55.56
785.934	51
786.112	34.86
786.289	34.72
786.467	38.77
786.645	32.21
786.823	29.86
787	30.94
787.178	36.52
787.356	33.16
787.533	27.53
787.711	18.5
787.889	21.82
788.066	26.86
788.244	18.54
788.421	18.71
788.599	25.24
788.776	20.37
788.954	22.84
789.131	25.84
789.309	30.29
789.486	27.94
789.664	34.41
789.841	39.25
790.019	48.29
790.196	59.76
790.373	68.52
790.551	73.89
790.728	67.92
790.906	73.39
791.083	84.26
791.26	72.19
791.437	82.39
791.615	83.85
791.792	85.81
791.969	77.49
792.146	68.11
792.324	54.68
792.501	57.6
792.678	76.6
792.855	66.85
793.032	58.61
793.209	73.24
793.387	64.69
793.564	70.16
793.741	71.09
793.918	68.36
794.095	75.13
794.272	75.77
794.449	69.03
794.626	67.9
794.803	72.51
794.98	70.07
795.157	61.64
795.334	66.18
795.511	65
795.688	63.28
795.864	64.69
796.041	63.3
796.218	66.54
796.395	65.78
796.572	61.21
796.749	55.1
796.925	58.31
797.102	60.66
797.279	60.22
797.456	54.52
797.632	56.08
797.809	52.23
797.986	52.2
798.162	47.02
798.339	54.57
798.516	59.61
798.692	63.28
798.869	59.06
799.046	64.69
799.222	68.91
799.399	70.71
799.575	68.71
799.752	80.14
799.928	74.33
800.105	75.3
800.281	74.53
800.458	69.63
800.634	72.98
800.811	71.29
800.987	63.14
801.163	45.77
801.34	54.3
801.516	54.39
801.692	44.44
801.869	55.47
802.045	64
802.221	70.01
802.398	67.47
802.574	68.33
802.75	80.84
802.926	92.62
803.103	89.91
803.279	93.12
803.455	93.97
803.631	83.21
803.807	84.33
803.983	93.43
804.16	80.74
804.336	102.54
804.512	101.68
804.688	98.21
804.864	110.15
805.04	132.78
805.216	112.09
805.392	100
805.568	115.32
805.744	96.33
805.92	99.19
806.096	95.05
806.272	72.77
806.448	55.32
806.623	55.05
806.799	21.05
806.975	19.85
807.151	44
807.327	59.19
807.503	41.53
807.678	46.13
807.854	53.21
808.03	67.02
808.206	65.96
808.381	67.73
808.557	62.9
808.733	70.84
808.908	65.48
809.084	55.22
809.26	49.91
809.435	55.67
809.611	64.83
809.787	59.32
809.962	42.53
810.138	35.14
810.313	43.49
810.489	24.58
810.664	27.49
810.84	46.87
811.015	45.5
811.191	35.64
811.366	38.23
811.542	36.26
811.717	39.9
811.892	54.08
812.068	66.26
812.243	44.3
812.419	63.3
812.594	55.89
812.769	41.84
812.944	39.53
813.12	54.5
813.295	61.01
813.47	66.43
813.645	68.15
813.821	38.62
813.996	4.72
814.171	63.74
814.346	36.34
814.521	73.68
814.697	56.74
814.872	54.17
815.047	56.44
815.222	56.37
815.397	27.43
815.572	18.97
815.747	23.83
815.922	24.18
816.097	29.59
816.272	42.5
816.447	38.68
816.622	53.44
816.797	47.17
816.972	47.8
817.147	51.93
817.322	63.05
817.496	60.22
817.671	56.1
817.846	57.48
818.021	45.17
818.196	41.09
818.371	46.89
818.545	40.78
818.72	47.86
818.895	45.05
819.069	46.56
819.244	47.5
819.419	42.9
819.594	39.95
819.768	36.95
819.943	40.4
820.117	40.47
820.292	39.92
820.467	39.67
820.641	36.77
820.816	33.97
820.99	32.99
821.165	32.59
821.339	32.93
821.514	32.97
821.688	35.15
821.863	33.3
822.037	31.76
822.212	30.74
822.386	29.14
822.56	28.94
822.735	30.29
822.909	29.78
823.084	28.78
823.258	29.5
823.432	30.35
823.606	30.21
823.781	34.58
823.955	40.56
824.129	40.42
824.303	39.77
824.478	43.36
824.652	43.51
824.826	46.37
825	52.89
825.174	53.97
825.348	51.13
825.523	48.83
825.697	43.3
825.871	42.8
826.045	43.57
826.219	49.66
826.393	51.96
826.567	54.26
826.741	55.93
826.915	52.34
827.089	55.45
827.263	60.17
827.437	59.42
827.611	65.66
827.784	62.17
827.958	56.14
828.132	50.06
828.306	43.63
828.48	42.41
828.654	38.79
828.827	30.6
829.001	19.04
829.175	6.01
829.349	-0.98
829.522	-9.16
829.696	-6.74
829.87	-2.31
830.044	-14.63
830.217	0.67
830.391	-1.15
830.565	10.82
830.738	28.93
830.912	32.42
831.085	39.26
831.259	37.43
831.432	51.14
831.606	47.95
831.779	56.08
831.953	61.65
832.126	62.82
832.3	68.53
832.473	64.43
832.647	57.33
832.82	59.2
832.994	57.4
833.167	57.19
833.34	48.1
833.514	57.65
833.687	53.95
833.86	52
834.034	61.19
834.207	46.11
834.38	51.32
834.553	53.09
834.727	50.93
834.9	49.84
835.073	47.7
835.246	48.15
835.419	44.58
835.593	45.82
835.766	51.08
835.939	29.5
836.112	35.74
836.285	33.63
836.458	37.79
836.631	28.31
836.804	24.43
836.977	39.75
837.15	40.03
837.323	50.18
837.496	41.46
837.669	40.12
837.842	39.76
838.015	45.63
838.188	43.32
838.361	43.04
838.533	53.16
838.706	55.56
838.879	61.38
839.052	73.86
839.225	63.08
839.398	64.41
839.57	66.48
839.743	62.96
839.916	76.23
840.088	73.23
840.261	73.23
840.434	62.44
840.607	65.48
840.779	59.59
840.952	63.73
841.124	62.72
841.297	85.71
841.47	112.5
841.642	135.99
841.815	131.36
841.987	138.06
842.16	161.59
842.332	363.58
842.505	256.34
842.677	322.94
842.85	-5366.67
843.022	-1250
843.194	427.27
843.367	329.03
843.539	51.76
843.712	100
843.884	218.52
844.056	476.36
844.229	-22.63
844.401	48.26
844.573	28.92
844.745	62.04
844.918	104.22
845.09	100.28
845.262	92.56
845.434	97.48
845.606	141.26
845.779	158.78
845.951	261.62
846.123	277.97
846.295	291.28
846.467	236.84
846.639	230.93
846.811	202.08
846.983	425.71
847.155	-243.18
847.327	-158.62
847.499	993.33
847.671	-69.33
847.843	-550
848.015	-53.06
848.187	16.67
848.359	68.57
848.531	86
848.703	28.47
848.875	90.95
849.047	66.48
849.218	32.35
849.39	-28.31
849.562	-126.29
849.734	-68.42
849.905	-31.64
850.077	-110.55
850.249	-792
850.421	417.74
850.592	98.84
850.764	115.58
850.936	107.61
851.107	96.51
851.279	86.83
851.451	33.25
851.622	55.01
851.794	50.73
851.965	35.41
852.137	12.78
852.308	-24.2
852.48	-34.44
852.651	-36.16
852.823	-21.09
852.994	-30.98
853.166	-63.2
853.337	-10.24
853.509	-51.41
853.68	-567.92
853.851	805.41
854.023	130.77
854.194	17.61
854.365	38.57
854.537	73.74
854.708	57.2
854.879	77.4
855.05	113.75
855.222	-1746.15
855.393	-242.45
855.564	-159.22
855.735	-847.83
855.906	-64.93
856.078	98.34
856.249	60.64
856.42	96.12
856.591	73.17
856.762	-48.05
856.933	6.56
857.104	-33.69
857.275	-127.87
857.446	-44
857.617	-105.47
857.788	-83.06
857.959	284.43
858.13	166.2
858.301	759.38
858.472	256.14
858.643	402.47
858.814	166.92
858.985	236.75
859.155	394
859.326	120.98
859.497	68.67
859.668	31.32
859.839	10.95
860.009	-39.8
860.18	139.82
860.351	3.33
860.522	125
860.692	50
860.863	-1266.67
861.034	-89.74
861.204	-4.55
861.375	65.98
861.546	-130.16
861.716	-1358.33
861.887	-393.75
862.057	550
862.228	-294.44
862.398	-812.5
862.569	163.29
862.739	136.8
862.91	812.12
863.08	97.12
863.251	-185.71
863.421	4
863.592	337.1
863.762	216
863.932	155.34
864.103	91.13
864.273	135.47
864.443	164.56
864.614	67.46
864.784	48.67
864.954	200
865.125	-6.49
865.295	24.12
865.465	-258.33
865.635	178.79
865.805	-175
865.976	46.43
866.146	-4.33
866.316	52.17
866.486	64.29
866.656	82.32
866.826	76.85
866.996	122.59
867.166	110.93
867.336	110
867.506	32.04
867.676	44.39
867.846	25
868.016	-456.1
868.186	-157.5
868.356	-957.5
868.526	-623.75
868.696	2522.22
868.866	-68.28
869.036	-100
869.206	-226.94
869.376	-151.16
869.545	-200
869.715	-541.89
869.885	-237.04
870.055	1342.86
870.224	-5800
870.394	32.33
870.564	54.63
870.734	49.49
870.903	28.32
871.073	-18.34
871.243	-1.13
871.412	-0
871.582	43.2
871.751	67.35
871.921	75
872.091	1.84
872.26	10.91
872.43	6.91
872.599	3.72
872.769	0.63
872.938	1.39
873.108	18.18
873.277	54.03
873.446	81.15
873.616	82.94
873.785	52.97
873.955	80.9
874.124	65.27
874.293	73.42
874.463	62.05
874.632	68.54
874.801	63.07
874.971	50.45
875.14	43.62
875.309	43.74
875.478	51.88
875.647	42.39
875.817	41.82
875.986	71.02
876.155	30.54
876.324	15.75
876.493	7.61
876.662	9.09
876.831	-9.57
877	-1.19
877.17	1.88
877.339	15.7
877.508	39.08
877.677	60.78
877.846	44.77
878.015	34.05
878.184	68.91
878.352	95.6
878.521	145.19
878.69	330.12
878.859	88.75
879.028	200
879.197	119.63
879.366	78.59
879.534	46.43
879.703	24.91
879.872	25.62
880.041	28.6
880.21	30.82
880.378	34.12
880.547	31.17
880.716	32.86
880.884	33.76
881.053	30.61
881.222	28.01
881.39	28.2
881.559	35.74
881.727	37.31
881.896	32.85
882.065	35.06
882.233	26.48
882.402	26.86
882.57	24.12
882.739	31.68
882.907	35.63
883.076	33.88
883.244	45.64
883.412	49.42
883.581	41.39
883.749	53.68
883.918	54.3
884.086	59.12
884.254	56.27
884.423	53.39
884.591	33.94
884.759	19.42
884.927	29.25
885.096	-5.57
885.264	-31.95
885.432	-55.82
885.6	-82.21
885.769	-22.11
885.937	-7
886.105	22.71
886.273	115.94
886.441	124.02
886.609	124.59
886.777	55.33
886.945	21.28
887.113	28.06
887.281	151.15
887.449	-964.29
887.617	323.08
887.785	-62.82
887.953	405.71
888.121	153.5
888.289	123.65
888.457	9.84
888.625	15.67
888.793	-3.23
888.961	-24.57
889.129	-14.06
889.296	-155.1
889.464	-81.12
889.632	-56.13
889.8	-106.06
889.967	-108.91
890.135	-186.27
