Data from JASIL_2966_Reflection_1.txt Node
Date: Sat Nov 07 21:31:36 EST 2015
User: Geneva
Spectrometer: USB4E03002
Autoset integration time: false
Trigger mode: 4
Integration Time (sec): 1.000000E-1
Scans to average: 10
Electric dark correction enabled: true
Nonlinearity correction enabled: false
Boxcar width: 5
Stray light correction enabled: false
XAxis mode: Wavelengths
Stop averaging: false
Number of Pixels in Spectrum: 3648
>>>>>Begin Spectral Data<<<<<
177.575	9.4
177.794	33.99
178.014	54.29
178.233	-35.72
178.452	-25.61
178.672	94.08
178.891	63.8
179.11	-8.79
179.33	55.27
179.549	-24.88
179.768	12.13
179.987	16.4
180.207	-60.29
180.426	5.7
180.645	74.44
180.864	78.71
181.084	58.74
181.303	56.09
181.522	39.18
181.741	57.85
181.96	39.06
182.179	44.21
182.398	35.53
182.618	18.05
182.837	26.01
183.056	12.89
183.275	24.81
183.494	33.67
183.713	65.03
183.932	96.62
184.151	200.25
184.37	92.09
184.589	63.38
184.808	49.81
185.027	55.63
185.246	55.31
185.465	35.99
185.684	37.96
185.903	38.01
186.122	37.88
186.341	34.04
186.56	30.4
186.779	35.69
186.998	43.18
187.216	69.54
187.435	69.82
187.654	76.42
187.873	92.57
188.092	72.51
188.311	73.92
188.53	64.34
188.748	66.98
188.967	74.31
189.186	67.3
189.405	56.96
189.623	47.18
189.842	46.26
190.061	35.11
190.28	15.53
190.498	12.24
190.717	-63.21
190.936	-104.23
191.154	-277.42
191.373	5294.24
191.592	-671.29
191.81	-724.83
192.029	-252.92
192.248	-523.24
192.466	-405.38
192.685	-117.89
192.904	-40.33
193.122	-20.47
193.341	-39.11
193.559	5.29
193.778	31.27
193.996	40.66
194.215	20.48
194.433	35.56
194.652	36.03
194.87	15.71
195.089	19.11
195.307	1.22
195.526	8.37
195.744	30.47
195.963	32.65
196.181	28.68
196.399	17.65
196.618	26.44
196.836	22.35
197.055	16.32
197.273	27.89
197.491	28
197.71	35.83
197.928	27.9
198.146	22.85
198.365	7.93
198.583	5.23
198.801	31.53
199.019	27.56
199.238	24.98
199.456	17.21
199.674	14.24
199.892	-3.61
200.111	-28.02
200.329	-7.4
200.547	-5.81
200.765	3.57
200.983	-14.41
201.202	-15.46
201.42	4.79
201.638	-0.98
201.856	-2.04
202.074	9.96
202.292	16.48
202.51	17.58
202.728	6.88
202.946	-20.44
203.165	-11.94
203.383	-6.24
203.601	-4.32
203.819	-16.9
204.037	-6.05
204.255	15.32
204.473	12.4
204.691	18.1
204.909	4.05
205.127	29.41
205.345	51.89
205.562	41.78
205.78	42.16
205.998	37.45
206.216	41.91
206.434	45.58
206.652	20.22
206.87	17.55
207.088	11.75
207.306	16.18
207.523	7.52
207.741	-12.53
207.959	-7.64
208.177	-6.67
208.395	-35.01
208.612	-67.59
208.83	-61.44
209.048	-46.43
209.266	-68.15
209.483	-84.79
209.701	-81.28
209.919	-113.09
210.136	-66.49
210.354	-25.52
210.572	-4.54
210.79	10.19
211.007	24.08
211.225	28.15
211.442	19
211.66	15.67
211.878	9.17
212.095	14.95
212.313	20.01
212.53	16.96
212.748	9.55
212.966	6.23
213.183	7.35
213.401	7.72
213.618	12.99
213.836	11.23
214.053	6.26
214.271	15.47
214.488	10.74
214.705	4.04
214.923	0.93
215.14	0.4
215.358	-4.09
215.575	-7.67
215.793	-4.23
216.01	-8.22
216.227	-4.13
216.445	-10.25
216.662	-12.23
216.879	-7.03
217.097	-3.46
217.314	1.15
217.531	-0.77
217.749	-4.48
217.966	-0.68
218.183	-6.15
218.4	-8.19
218.618	-14.9
218.835	0.19
219.052	3.02
219.269	-0.23
219.487	3.63
219.704	2.97
219.921	5.26
220.138	9.1
220.355	7.87
220.572	11.27
220.79	9.45
221.007	18.32
221.224	15.3
221.441	13.65
221.658	11.78
221.875	11.35
222.092	10.23
222.309	6.83
222.526	2.16
222.743	3.17
222.96	-1.97
223.177	-0.63
223.394	-7.54
223.611	-3.99
223.828	-4.6
224.045	-3.12
224.262	-1.8
224.479	-3.65
224.696	-2.11
224.913	3.13
225.13	4.87
225.347	6.67
225.564	6.88
225.781	8.11
225.997	7.95
226.214	7.18
226.431	7.65
226.648	6.57
226.865	6.97
227.082	8.18
227.298	7.98
227.515	7.44
227.732	7.12
227.949	7.72
228.165	7.74
228.382	7.09
228.599	7.54
228.816	7.8
229.032	7.72
229.249	8.69
229.466	7.79
229.682	7.62
229.899	8.34
230.116	9.26
230.332	9.29
230.549	9.33
230.765	10.15
230.982	11.08
231.199	10.9
231.415	11.58
231.632	10.14
231.848	10.26
232.065	10.67
232.281	10.12
232.498	9.52
232.714	8.43
232.931	7.6
233.147	8.33
233.364	7.44
233.58	7.7
233.797	7.63
234.013	8.1
234.23	8.43
234.446	8.06
234.662	8.1
234.879	9.05
235.095	9.12
235.312	10.4
235.528	10.12
235.744	10.21
235.961	10.89
236.177	9.67
236.393	10.17
236.61	9.89
236.826	10.11
237.042	10.5
237.258	9.72
237.475	9.88
237.691	8.93
237.907	8.57
238.123	8.24
238.339	6.88
238.556	7.29
238.772	6.65
238.988	7.64
239.204	7.9
239.42	7.9
239.636	7.35
239.853	7.53
240.069	7.96
240.285	8.09
240.501	7.6
240.717	8.16
240.933	8.49
241.149	8.78
241.365	8.67
241.581	8.53
241.797	8.24
242.013	8.44
242.229	8.54
242.445	8.46
242.661	8.4
242.877	8.89
243.093	8.55
243.309	8.38
243.525	8.02
243.741	7.76
243.957	7.86
244.173	8.28
244.388	8.04
244.604	7.92
244.82	8.53
245.036	8.4
245.252	8.63
245.468	8.77
245.683	8.72
245.899	8.78
246.115	8.62
246.331	8.61
246.547	8.53
246.762	8.7
246.978	8.66
247.194	8.32
247.409	8.32
247.625	7.79
247.841	7.44
248.057	7.5
248.272	7.19
248.488	7.42
248.703	7.13
248.919	7.03
249.135	6.51
249.35	6.42
249.566	6.45
249.782	6.07
249.997	7.1
250.213	7.43
250.428	7.57
250.644	7.71
250.859	7.53
251.075	7.69
251.29	7.71
251.506	7.57
251.721	7.58
251.937	7.5
252.152	7.78
252.368	7.3
252.583	7.05
252.798	6.61
253.014	7.07
253.229	7.32
253.445	7.06
253.66	6.95
253.875	7.04
254.091	6.83
254.306	7.13
254.521	6.52
254.737	6.79
254.952	6.62
255.167	6.34
255.383	6.02
255.598	6.52
255.813	6.6
256.028	5.94
256.244	6.09
256.459	5.58
256.674	5.42
256.889	5.76
257.104	5.83
257.32	6
257.535	6.2
257.75	6.31
257.965	5.92
258.18	6.01
258.395	5.99
258.61	5.95
258.826	6.03
259.041	6
259.256	6.1
259.471	6.03
259.686	6.14
259.901	6.16
260.116	6.07
260.331	5.98
260.546	5.87
260.761	6.2
260.976	6.43
261.191	6.49
261.406	6.41
261.621	6.17
261.836	5.94
262.05	5.5
262.265	5.18
262.48	5.08
262.695	5.15
262.91	5.1
263.125	4.65
263.34	4.45
263.555	4.59
263.769	4.47
263.984	4.55
264.199	5.01
264.414	5.22
264.629	5.25
264.843	5.07
265.058	5.18
265.273	5.18
265.488	5.56
265.702	5.5
265.917	6.18
266.132	6.54
266.346	6.67
266.561	6.46
266.776	6.58
266.99	6.81
267.205	6.82
267.42	6.64
267.634	6.61
267.849	6.41
268.063	6.2
268.278	5.56
268.492	5.7
268.707	5.73
268.922	5.87
269.136	5.75
269.351	5.59
269.565	5.75
269.78	5.51
269.994	5.41
270.209	5.41
270.423	5.95
270.637	5.97
270.852	5.81
271.066	5.72
271.281	5.78
271.495	5.88
271.709	5.82
271.924	5.67
272.138	5.84
272.353	5.95
272.567	5.66
272.781	5.24
272.996	5.29
273.21	5.09
273.424	4.84
273.638	4.75
273.853	4.66
274.067	4.69
274.281	4.78
274.495	4.85
274.71	4.83
274.924	4.93
275.138	5.27
275.352	5.07
275.566	5.39
275.781	5.67
275.995	5.48
276.209	5.64
276.423	5.59
276.637	5.39
276.851	4.86
277.065	4.93
277.279	5.1
277.493	4.95
277.707	4.86
277.921	4.88
278.135	4.9
278.349	4.87
278.563	4.63
278.777	4.46
278.991	4.77
279.205	5.34
279.419	5.49
279.633	5.39
279.847	5.41
280.061	5.7
280.275	5.45
280.489	5.63
280.703	5.53
280.917	5.47
281.131	5.83
281.344	5.53
281.558	5.41
281.772	5.35
281.986	5.56
282.2	5.54
282.414	5.64
282.627	5.86
282.841	5.65
283.055	5.77
283.269	5.77
283.482	5.62
283.696	5.7
283.91	5.97
284.123	5.83
284.337	5.61
284.551	5.39
284.764	5.2
284.978	5.06
285.192	4.95
285.405	5.06
285.619	5.2
285.833	5.07
286.046	5.08
286.26	4.97
286.473	4.81
286.687	4.92
286.9	5.15
287.114	5.03
287.327	5.2
287.541	5.28
287.754	5.15
287.968	4.9
288.181	5.06
288.395	5.23
288.608	5.13
288.822	5.31
289.035	5.48
289.248	5.4
289.462	5.69
289.675	5.68
289.889	5.78
290.102	5.85
290.315	5.98
290.529	6.11
290.742	5.93
290.955	6.02
291.169	6.01
291.382	5.7
291.595	5.72
291.808	5.69
292.022	5.79
292.235	5.7
292.448	5.84
292.661	5.85
292.875	5.69
293.088	5.7
293.301	5.99
293.514	6.07
293.727	6.32
293.94	6.36
294.153	6.2
294.367	5.96
294.58	5.97
294.793	5.74
295.006	5.82
295.219	6.02
295.432	6.07
295.645	5.92
295.858	5.85
296.071	5.81
296.284	5.68
296.497	5.77
296.71	5.85
296.923	5.98
297.136	6.1
297.349	6.13
297.562	5.98
297.775	5.99
297.988	5.98
298.201	6.05
298.414	6.06
298.626	6.19
298.839	6.24
299.052	6.27
299.265	6.11
299.478	6.08
299.691	5.98
299.903	6.06
300.116	6.01
300.329	6
300.542	6.07
300.755	6.12
300.967	6.27
301.18	6.35
301.393	6.27
301.605	6.14
301.818	5.92
302.031	5.98
302.243	5.83
302.456	6.12
302.669	6.02
302.881	6.11
303.094	6.09
303.307	6.26
303.519	6.23
303.732	6.44
303.944	6.67
304.157	6.95
304.37	7.2
304.582	7.49
304.795	7.25
305.007	7.25
305.22	7.21
305.432	7
305.645	6.74
305.857	6.88
306.069	6.87
306.282	6.66
306.494	6.62
306.707	6.43
306.919	6.38
307.132	6.49
307.344	6.59
307.556	6.63
307.769	6.72
307.981	6.83
308.193	6.69
308.406	6.37
308.618	6.65
308.83	6.54
309.043	6.67
309.255	6.45
309.467	6.35
309.679	6.42
309.892	6.36
310.104	6.4
310.316	6.3
310.528	6.35
310.74	6.72
310.953	6.78
311.165	6.9
311.377	6.55
311.589	6.88
311.801	6.96
312.013	6.87
312.225	6.97
312.437	7.06
312.649	7.19
312.862	7.17
313.074	6.93
313.286	6.84
313.498	6.73
313.71	6.96
313.922	6.64
314.134	6.67
314.346	6.67
314.558	6.63
314.77	6.69
314.982	6.53
315.193	6.55
315.405	6.42
315.617	6.33
315.829	6.37
316.041	6.6
316.253	6.65
316.465	6.7
316.677	6.78
316.888	6.78
317.1	6.73
317.312	7.02
317.524	7.1
317.736	7.35
317.947	7.5
318.159	7.7
318.371	7.67
318.583	7.79
318.794	7.79
319.006	7.76
319.218	7.74
319.43	7.5
319.641	7.38
319.853	7.27
320.064	7.31
320.276	7.37
320.488	7.2
320.699	7.34
320.911	7.45
321.123	7.57
321.334	7.8
321.546	7.85
321.757	8.21
321.969	8.08
322.18	8
322.392	7.77
322.603	7.63
322.815	7.75
323.026	7.67
323.238	7.51
323.449	7.57
323.661	7.47
323.872	7.58
324.083	7.53
324.295	7.55
324.506	7.56
324.718	7.71
324.929	7.83
325.14	7.91
325.352	7.98
325.563	8.27
325.774	8.2
325.986	8.19
326.197	8.17
326.408	8.34
326.62	8.5
326.831	8.65
327.042	8.71
327.253	8.79
327.464	9.02
327.676	8.9
327.887	8.75
328.098	8.8
328.309	8.69
328.52	8.72
328.732	8.83
328.943	8.96
329.154	9.25
329.365	9.32
329.576	9.56
329.787	9.14
329.998	9.3
330.209	9.41
330.42	9.47
330.631	9.71
330.842	9.72
331.053	9.77
331.264	9.65
331.475	9.53
331.686	9.57
331.897	9.41
332.108	9.56
332.319	9.58
332.53	9.87
332.741	9.86
332.952	9.83
333.163	9.93
333.374	9.83
333.585	9.94
333.795	9.86
334.006	10.04
334.217	10.17
334.428	10.37
334.639	10.38
334.849	10.25
335.06	10.45
335.271	10.54
335.482	10.61
335.692	10.67
335.903	10.6
336.114	10.61
336.325	10.58
336.535	10.51
336.746	10.19
336.957	10.14
337.167	10.12
337.378	9.89
337.589	9.75
337.799	9.77
338.01	9.73
338.22	9.95
338.431	9.93
338.642	9.81
338.852	9.71
339.063	10.02
339.273	10.06
339.484	9.99
339.694	10.05
339.905	10.19
340.115	9.94
340.326	9.94
340.536	10.05
340.746	10.07
340.957	9.91
341.167	9.95
341.378	9.79
341.588	9.89
341.799	9.85
342.009	9.86
342.219	9.81
342.43	10.03
342.64	9.75
342.85	9.44
343.061	9.56
343.271	9.77
343.481	9.75
343.691	9.8
343.902	9.69
344.112	9.57
344.322	9.66
344.532	9.58
344.743	9.62
344.953	9.66
345.163	9.71
345.373	9.59
345.583	9.5
345.793	9.42
346.004	9.27
346.214	9.23
346.424	9.32
346.634	9.25
346.844	9.35
347.054	9.18
347.264	9.41
347.474	9.23
347.684	9.19
347.894	9.23
348.104	9.36
348.314	9.53
348.524	9.52
348.734	9.46
348.944	9.4
349.154	9.45
349.364	9.48
349.574	9.26
349.784	9.28
349.994	9.38
350.204	9.16
350.413	8.95
350.623	9.02
350.833	9.05
351.043	9.03
351.253	9.04
351.463	8.84
351.672	8.65
351.882	8.71
352.092	8.77
352.302	8.67
352.511	8.8
352.721	8.75
352.931	8.57
353.141	8.33
353.35	8.31
353.56	8.26
353.77	8.49
353.979	8.69
354.189	8.69
354.399	8.76
354.608	8.76
354.818	8.69
355.027	8.83
355.237	8.75
355.447	8.91
355.656	9.04
355.866	9.04
356.075	8.88
356.285	8.75
356.494	8.75
356.704	8.62
356.913	8.61
357.123	8.59
357.332	8.57
357.542	8.71
357.751	8.78
357.96	8.6
358.17	8.66
358.379	8.74
358.589	8.78
358.798	8.77
359.007	8.82
359.217	8.64
359.426	8.74
359.635	8.71
359.845	8.66
360.054	8.55
360.263	8.58
360.472	8.54
360.682	8.47
360.891	8.46
361.1	8.44
361.309	8.47
361.519	8.59
361.728	8.61
361.937	8.59
362.146	8.55
362.355	8.61
362.564	8.65
362.774	8.59
362.983	8.53
363.192	8.54
363.401	8.49
363.61	8.38
363.819	8.46
364.028	8.38
364.237	8.25
364.446	8.36
364.655	8.29
364.864	8.19
365.073	8.19
365.282	8.26
365.491	8.15
365.7	8.14
365.909	8.18
366.118	8.19
366.327	8.14
366.536	8.21
366.745	8.09
366.954	8.09
367.162	8
367.371	8.01
367.58	7.84
367.789	7.85
367.998	7.86
368.207	7.97
368.415	7.79
368.624	7.75
368.833	7.78
369.042	7.79
369.25	7.81
369.459	7.91
369.668	7.86
369.877	7.92
370.085	7.95
370.294	7.92
370.503	7.81
370.711	7.87
370.92	7.86
371.129	7.78
371.337	7.66
371.546	7.52
371.754	7.42
371.963	7.53
372.171	7.49
372.38	7.29
372.589	7.35
372.797	7.3
373.006	7.17
373.214	7.12
373.423	7.14
373.631	7.27
373.84	7.43
374.048	7.43
374.256	7.27
374.465	7.14
374.673	7.26
374.882	7.18
375.09	7.11
375.298	7.13
375.507	7.16
375.715	7.12
375.923	7.02
376.132	6.95
376.34	6.96
376.548	6.96
376.757	7.1
376.965	7.08
377.173	7.17
377.381	7.19
377.59	7.21
377.798	7.24
378.006	7.25
378.214	7.31
378.423	7.29
378.631	7.24
378.839	7.2
379.047	7.13
379.255	7.12
379.463	6.99
379.671	6.87
379.879	6.89
380.088	6.74
380.296	6.66
380.504	6.69
380.712	6.64
380.92	6.78
381.128	6.85
381.336	6.88
381.544	6.89
381.752	6.87
381.96	6.91
382.168	6.82
382.376	6.87
382.584	6.87
382.791	6.85
382.999	6.81
383.207	6.7
383.415	6.62
383.623	6.55
383.831	6.47
384.039	6.41
384.247	6.42
384.454	6.44
384.662	6.53
384.87	6.61
385.078	6.58
385.285	6.65
385.493	6.61
385.701	6.64
385.909	6.65
386.116	6.69
386.324	6.78
386.532	6.78
386.739	6.77
386.947	6.65
387.155	6.54
387.362	6.54
387.57	6.51
387.778	6.52
387.985	6.51
388.193	6.5
388.4	6.59
388.608	6.54
388.816	6.56
389.023	6.52
389.231	6.43
389.438	6.47
389.646	6.39
389.853	6.24
390.061	6.25
390.268	6.23
390.475	6.22
390.683	6.07
390.89	6.03
391.098	5.95
391.305	5.97
391.512	5.95
391.72	5.88
391.927	5.85
392.135	5.89
392.342	5.92
392.549	5.85
392.756	5.83
392.964	5.8
393.171	5.81
393.378	5.8
393.586	5.79
393.793	5.9
394	5.87
394.207	5.86
394.414	5.9
394.622	5.93
394.829	5.93
395.036	5.85
395.243	5.91
395.45	5.87
395.657	5.8
395.864	5.74
396.072	5.73
396.279	5.79
396.486	5.77
396.693	5.72
396.9	5.65
397.107	5.7
397.314	5.77
397.521	5.72
397.728	5.75
397.935	5.73
398.142	5.72
398.349	5.65
398.556	5.67
398.763	5.64
398.97	5.69
399.177	5.58
399.383	5.63
399.59	5.56
399.797	5.51
400.004	5.49
400.211	5.53
400.418	5.62
400.625	5.63
400.831	5.56
401.038	5.58
401.245	5.46
401.452	5.48
401.658	5.39
401.865	5.61
402.072	5.67
402.279	5.68
402.485	5.68
402.692	5.57
402.899	5.54
403.105	5.58
403.312	5.58
403.519	5.61
403.725	5.72
403.932	5.68
404.138	5.52
404.345	5.44
404.552	5.41
404.758	5.47
404.965	5.48
405.171	5.53
405.378	5.43
405.584	5.49
405.791	5.5
405.997	5.34
406.204	5.38
406.41	5.35
406.617	5.38
406.823	5.35
407.029	5.28
407.236	5.31
407.442	5.33
407.649	5.49
407.855	5.5
408.061	5.49
408.268	5.54
408.474	5.45
408.68	5.49
408.887	5.5
409.093	5.52
409.299	5.6
409.505	5.59
409.712	5.46
409.918	5.36
410.124	5.25
410.33	5.2
410.537	5.2
410.743	5.24
410.949	5.25
411.155	5.34
411.361	5.4
411.567	5.32
411.773	5.22
411.98	5.31
412.186	5.31
412.392	5.28
412.598	5.36
412.804	5.35
413.01	5.38
413.216	5.39
413.422	5.36
413.628	5.33
413.834	5.27
414.04	5.3
414.246	5.24
414.452	5.23
414.658	5.27
414.864	5.25
415.07	5.26
415.275	5.21
415.481	5.11
415.687	4.96
415.893	4.94
416.099	4.94
416.305	5.01
416.511	5.01
416.716	5.01
416.922	5.01
417.128	5.04
417.334	5.04
417.539	5.02
417.745	5.04
417.951	5.06
418.157	5.07
418.362	5.09
418.568	5.03
418.774	5
418.979	4.91
419.185	4.88
419.391	4.82
419.596	4.82
419.802	4.79
420.008	4.76
420.213	5.1
420.419	5.05
420.624	5.1
420.83	5.08
421.035	5.13
421.241	5.18
421.446	5.2
421.652	5.18
421.857	5.16
422.063	5.16
422.268	5.19
422.474	4.89
422.679	4.91
422.885	4.86
423.09	4.85
423.295	4.8
423.501	4.79
423.706	4.76
423.911	4.79
424.117	4.8
424.322	4.82
424.527	4.84
424.733	4.79
424.938	4.79
425.143	4.78
425.349	4.81
425.554	4.82
425.759	4.83
425.964	4.84
426.169	4.84
426.375	4.84
426.58	4.8
426.785	4.74
426.99	4.78
427.195	4.75
427.4	4.79
427.605	4.8
427.811	4.8
428.016	4.78
428.221	4.83
428.426	4.84
428.631	4.8
428.836	4.81
429.041	4.82
429.246	4.84
429.451	4.88
429.656	4.85
429.861	4.8
430.066	4.81
430.271	4.84
430.476	4.76
430.681	4.7
430.886	4.71
431.09	4.8
431.295	4.78
431.5	4.8
431.705	4.8
431.91	4.74
432.115	4.75
432.32	4.75
432.524	4.67
432.729	4.68
432.934	4.68
433.139	4.67
433.343	4.69
433.548	4.66
433.753	4.67
433.958	4.65
434.162	4.67
434.367	4.67
434.572	4.63
434.776	4.69
434.981	4.7
435.186	4.69
435.39	4.71
435.595	4.67
435.799	4.7
436.004	4.62
436.209	4.64
436.413	4.65
436.618	4.66
436.822	4.72
437.027	4.66
437.231	4.66
437.436	4.66
437.64	4.64
437.845	4.62
438.049	4.61
438.253	4.62
438.458	4.62
438.662	4.65
438.867	4.66
439.071	4.69
439.275	4.76
439.48	4.77
439.684	4.78
439.888	4.76
440.093	4.77
440.297	4.76
440.501	4.79
440.706	4.8
440.91	4.81
441.114	4.79
441.318	4.75
441.523	4.72
441.727	4.71
441.931	4.73
442.135	4.76
442.339	4.78
442.543	4.77
442.748	4.72
442.952	4.7
443.156	4.68
443.36	4.74
443.564	4.7
443.768	4.74
443.972	4.7
444.176	4.62
444.38	4.6
444.584	4.57
444.788	4.59
444.992	4.61
445.196	4.56
445.4	4.58
445.604	4.53
445.808	4.54
446.012	4.53
446.216	4.56
446.42	4.58
446.624	4.59
446.828	4.58
447.032	4.57
447.235	4.57
447.439	4.62
447.643	4.62
447.847	4.65
448.051	4.64
448.254	4.65
448.458	4.62
448.662	4.69
448.866	4.71
449.069	4.74
449.273	4.77
449.477	4.81
449.681	4.78
449.884	4.81
450.088	4.81
450.292	4.83
450.495	4.81
450.699	4.87
450.902	4.83
451.106	4.82
451.31	4.83
451.513	4.8
451.717	4.74
451.92	4.7
452.124	4.63
452.327	4.61
452.531	4.64
452.734	4.61
452.938	4.56
453.141	4.57
453.345	4.54
453.548	4.55
453.752	4.55
453.955	4.61
454.158	4.63
454.362	4.66
454.565	4.63
454.769	4.58
454.972	4.61
455.175	4.62
455.379	4.6
455.582	4.56
455.785	4.54
455.988	4.52
456.192	4.48
456.395	4.5
456.598	4.5
456.801	4.54
457.005	4.6
457.208	4.58
457.411	4.57
457.614	4.55
457.817	4.58
458.021	4.55
458.224	4.55
458.427	4.55
458.63	4.58
458.833	4.56
459.036	4.58
459.239	4.53
459.442	4.48
459.645	4.48
459.848	4.51
460.051	4.5
460.254	4.52
460.457	4.54
460.66	4.56
460.863	4.54
461.066	4.58
461.269	4.56
461.472	4.6
461.675	4.71
461.878	4.74
462.081	4.71
462.284	4.76
462.486	4.77
462.689	4.78
462.892	4.8
463.095	4.78
463.298	4.75
463.5	4.75
463.703	4.77
463.906	4.74
464.109	4.69
464.311	4.77
464.514	4.76
464.717	4.73
464.92	4.71
465.122	4.75
465.325	4.77
465.528	4.79
465.73	4.77
465.933	4.75
466.135	4.8
466.338	4.81
466.541	4.73
466.743	4.75
466.946	4.77
467.148	4.8
467.351	4.75
467.553	4.73
467.756	4.73
467.958	4.74
468.161	4.76
468.363	4.69
468.566	4.67
468.768	4.63
468.971	4.58
469.173	4.6
469.375	4.57
469.578	4.65
469.78	4.62
469.983	4.64
470.185	4.68
470.387	4.7
470.59	4.69
470.792	4.73
470.994	4.81
471.196	4.87
471.399	4.82
471.601	4.82
471.803	4.71
472.005	4.72
472.208	4.7
472.41	4.65
472.612	4.6
472.814	4.6
473.016	4.61
473.218	4.64
473.421	4.59
473.623	4.65
473.825	4.65
474.027	4.74
474.229	4.75
474.431	4.75
474.633	4.75
474.835	4.73
475.037	4.72
475.239	4.7
475.441	4.69
475.643	4.71
475.845	4.73
476.047	4.7
476.249	4.66
476.451	4.72
476.653	4.73
476.855	4.73
477.057	4.75
477.258	4.76
477.46	4.79
477.662	4.75
477.864	4.74
478.066	4.67
478.268	4.7
478.469	4.68
478.671	4.62
478.873	4.57
479.075	4.59
479.276	4.6
479.478	4.61
479.68	4.57
479.882	4.61
480.083	4.65
480.285	4.7
480.487	4.69
480.688	4.69
480.89	4.71
481.091	4.73
481.293	4.69
481.495	4.7
481.696	4.69
481.898	4.69
482.099	4.68
482.301	4.66
482.502	4.63
482.704	4.62
482.905	4.6
483.107	4.59
483.308	4.58
483.51	4.57
483.711	4.57
483.913	4.56
484.114	4.56
484.315	4.55
484.517	4.54
484.718	4.55
484.92	4.56
485.121	4.57
485.322	4.58
485.524	4.59
485.725	4.6
485.926	4.61
486.127	4.6
486.329	4.6
486.53	4.6
486.731	4.6
486.932	4.6
487.134	4.6
487.335	4.59
487.536	4.6
487.737	4.58
487.938	4.59
488.139	4.56
488.341	4.55
488.542	4.56
488.743	4.57
488.944	4.54
489.145	4.53
489.346	4.54
489.547	4.55
489.748	4.54
489.949	4.56
490.15	4.56
490.351	4.59
490.552	4.61
490.753	4.61
490.954	4.58
491.155	4.59
491.356	4.58
491.557	4.57
491.758	4.6
491.959	4.61
492.159	4.6
492.36	4.64
492.561	4.64
492.762	4.65
492.963	4.67
493.164	4.71
493.364	4.74
493.565	4.79
493.766	4.84
493.967	4.81
494.167	4.81
494.368	4.85
494.569	4.81
494.769	4.77
494.97	4.76
495.171	4.77
495.371	4.77
495.572	4.77
495.773	4.78
495.973	4.74
496.174	4.75
496.375	4.79
496.575	4.79
496.776	4.82
496.976	4.87
497.177	4.91
497.377	4.89
497.578	4.92
497.778	4.92
497.979	4.94
498.179	4.97
498.38	4.96
498.58	4.94
498.78	4.96
498.981	4.98
499.181	4.98
499.382	4.99
499.582	5.04
499.782	5.08
499.983	5.1
500.183	5.12
500.383	5.09
500.584	5.11
500.784	5.12
500.984	5.1
501.184	5.09
501.385	5.09
501.585	5.09
501.785	5.11
501.985	5.07
502.185	5.07
502.386	5.07
502.586	5.12
502.786	5.18
502.986	5.22
503.186	5.25
503.386	5.27
503.586	5.3
503.786	5.3
503.987	5.28
504.187	5.32
504.387	5.38
504.587	5.38
504.787	5.42
504.987	5.44
505.187	5.43
505.387	5.43
505.587	5.48
505.786	5.56
505.986	5.55
506.186	5.61
506.386	5.58
506.586	5.59
506.786	5.62
506.986	5.61
507.186	5.62
507.386	5.67
507.585	5.69
507.785	5.72
507.985	5.71
508.185	5.8
508.384	5.78
508.584	5.82
508.784	5.85
508.984	5.87
509.183	5.92
509.383	5.96
509.583	5.98
509.782	6.01
509.982	6.02
510.182	6.01
510.381	6.04
510.581	6.1
510.781	6.16
510.98	6.15
511.18	6.2
511.379	6.21
511.579	6.23
511.778	6.22
511.978	6.24
512.177	6.24
512.377	6.28
512.576	6.29
512.776	6.3
512.975	6.32
513.175	6.4
513.374	6.41
513.573	6.44
513.773	6.49
513.972	6.57
514.172	6.63
514.371	6.68
514.57	6.67
514.77	6.68
514.969	6.66
515.168	6.69
515.367	6.7
515.567	6.74
515.766	6.74
515.965	6.76
516.164	6.77
516.364	6.81
516.563	6.84
516.762	6.93
516.961	6.97
517.16	7.06
517.359	7.1
517.559	7.13
517.758	7.15
517.957	7.18
518.156	7.23
518.355	7.25
518.554	7.28
518.753	7.27
518.952	7.3
519.151	7.32
519.35	7.35
519.549	7.34
519.748	7.38
519.947	7.44
520.146	7.46
520.345	7.46
520.544	7.5
520.743	7.53
520.942	7.61
521.141	7.6
521.339	7.64
521.538	7.63
521.737	7.7
521.936	7.71
522.135	7.74
522.333	7.77
522.532	7.8
522.731	7.87
522.93	7.89
523.129	7.93
523.327	7.96
523.526	7.98
523.725	8.03
523.923	8.03
524.122	8.05
524.321	8.08
524.519	8.11
524.718	8.1
524.917	8.09
525.115	8.1
525.314	8.13
525.512	8.15
525.711	8.21
525.909	8.24
526.108	8.25
526.306	8.29
526.505	8.28
526.703	8.31
526.902	8.37
527.1	8.38
527.299	8.41
527.497	8.43
527.696	8.45
527.894	8.46
528.092	8.47
528.291	8.5
528.489	8.52
528.688	8.55
528.886	8.57
529.084	8.58
529.283	8.62
529.481	8.66
529.679	8.66
529.877	8.68
530.076	8.71
530.274	8.75
530.472	8.8
530.67	8.84
530.869	8.89
531.067	8.92
531.265	8.95
531.463	9
531.661	9
531.859	9.03
532.057	9.08
532.255	9.11
532.454	9.12
532.652	9.13
532.85	9.12
533.048	9.14
533.246	9.14
533.444	9.17
533.642	9.19
533.84	9.21
534.038	9.26
534.236	9.29
534.434	9.31
534.632	9.35
534.83	9.37
535.027	9.41
535.225	9.44
535.423	9.49
535.621	9.49
535.819	9.5
536.017	9.51
536.215	9.53
536.412	9.49
536.61	9.51
536.808	9.53
537.006	9.53
537.203	9.56
537.401	9.56
537.599	9.58
537.797	9.62
537.994	9.63
538.192	9.7
538.39	9.76
538.587	9.83
538.785	9.87
538.983	9.91
539.18	9.98
539.378	9.99
539.575	10.02
539.773	10.05
539.97	10.07
540.168	10.09
540.366	10.07
540.563	10.07
540.761	10.1
540.958	10.12
541.155	10.13
541.353	10.14
541.55	10.17
541.748	10.19
541.945	10.22
542.143	10.25
542.34	10.27
542.537	10.33
542.735	10.36
542.932	10.37
543.129	10.4
543.327	10.45
543.524	10.48
543.721	10.52
543.919	10.58
544.116	10.61
544.313	10.65
544.51	10.69
544.708	10.73
544.905	10.74
545.102	10.76
545.299	10.75
545.496	10.79
545.693	10.83
545.891	10.83
546.088	10.82
546.285	10.84
546.482	10.85
546.679	10.87
546.876	10.87
547.073	10.9
547.27	10.98
547.467	11.04
547.664	11.03
547.861	11.05
548.058	11.05
548.255	11.07
548.452	11.13
548.649	11.16
548.846	11.2
549.043	11.2
549.24	11.23
549.437	11.22
549.633	11.24
549.83	11.22
550.027	11.27
550.224	11.3
550.421	11.33
550.618	11.33
550.814	11.33
551.011	11.36
551.208	11.43
551.405	11.43
551.601	11.44
551.798	11.47
551.995	11.5
552.191	11.5
552.388	11.53
552.585	11.57
552.781	11.58
552.978	11.62
553.175	11.63
553.371	11.6
553.568	11.65
553.764	11.7
553.961	11.69
554.157	11.77
554.354	11.83
554.55	11.91
554.747	11.9
554.943	11.92
555.14	11.96
555.336	11.97
555.533	12
555.729	12.05
555.926	12.07
556.122	12.08
556.318	12.09
556.515	12.07
556.711	12.05
556.907	12.06
557.104	12.07
557.3	12.03
557.496	12.09
557.693	12.14
557.889	12.17
558.085	12.2
558.281	12.22
558.478	12.22
558.674	12.29
558.87	12.27
559.066	12.3
559.262	12.33
559.459	12.39
559.655	12.36
559.851	12.36
560.047	12.32
560.243	12.3
560.439	12.28
560.635	12.31
560.831	12.3
561.027	12.35
561.223	12.35
561.419	12.35
561.615	12.3
561.811	12.35
562.007	12.42
562.203	12.48
562.399	12.51
562.595	12.55
562.791	12.49
562.987	12.49
563.183	12.48
563.379	12.57
563.575	12.59
563.771	12.67
563.966	12.72
564.162	12.69
564.358	12.71
564.554	12.72
564.75	12.76
564.945	12.82
565.141	12.85
565.337	12.87
565.533	12.87
565.728	12.94
565.924	12.92
566.12	12.87
566.315	12.89
566.511	12.85
566.707	12.89
566.902	12.89
567.098	12.89
567.293	12.89
567.489	12.93
567.684	12.93
567.88	12.86
568.076	12.88
568.271	12.9
568.467	12.91
568.662	13.02
568.858	13.01
569.053	13.03
569.248	13.07
569.444	13.06
569.639	13.08
569.835	13.06
570.03	13.13
570.225	13.1
570.421	13.13
570.616	13.16
570.812	13.09
571.007	13.13
571.202	13.16
571.397	13.14
571.593	13.14
571.788	13.15
571.983	13.14
572.178	13.11
572.374	13.16
572.569	13.19
572.764	13.16
572.959	13.17
573.154	13.17
573.35	13.2
573.545	13.23
573.74	13.25
573.935	13.24
574.13	13.29
574.325	13.32
574.52	13.31
574.715	13.31
574.91	13.32
575.105	13.36
575.3	13.38
575.495	13.37
575.69	13.39
575.885	13.44
576.08	13.45
576.275	13.44
576.47	13.44
576.665	13.49
576.86	13.49
577.055	13.56
577.25	13.56
577.444	13.57
577.639	13.56
577.834	13.54
578.029	13.5
578.224	13.52
578.418	13.56
578.613	13.56
578.808	13.56
579.003	13.57
579.197	13.53
579.392	13.5
579.587	13.48
579.781	13.44
579.976	13.48
580.171	13.49
580.365	13.5
580.56	13.46
580.755	13.49
580.949	13.5
581.144	13.54
581.338	13.59
581.533	13.63
581.727	13.67
581.922	13.7
582.116	13.74
582.311	13.74
582.505	13.74
582.7	13.82
582.894	13.81
583.089	13.86
583.283	13.79
583.478	13.72
583.672	13.73
583.866	13.7
584.061	13.68
584.255	13.66
584.449	13.65
584.644	13.74
584.838	13.68
585.032	13.69
585.226	13.72
585.421	13.74
585.615	13.78
585.809	13.74
586.003	13.74
586.198	13.81
586.392	13.8
586.586	13.81
586.78	13.77
586.974	13.9
587.168	13.94
587.363	13.89
587.557	13.91
587.751	13.89
587.945	13.95
588.139	13.93
588.333	13.91
588.527	13.93
588.721	13.97
588.915	13.95
589.109	13.88
589.303	13.8
589.497	13.81
589.691	13.84
589.885	13.85
590.079	13.81
590.273	13.87
590.466	13.88
590.66	13.9
590.854	13.89
591.048	13.89
591.242	13.9
591.436	13.95
591.629	13.92
591.823	13.96
592.017	14.01
592.211	14.03
592.404	14.03
592.598	14.02
592.792	14.06
592.986	14.06
593.179	14.09
593.373	14.02
593.567	14.01
593.76	14.03
593.954	14
594.147	14.02
594.341	14.03
594.535	14.07
594.728	14.14
594.922	14.12
595.115	14.13
595.309	14.21
595.502	14.29
595.696	14.29
595.889	14.36
596.083	14.34
596.276	14.37
596.47	14.38
596.663	14.34
596.856	14.3
597.05	14.35
597.243	14.31
597.437	14.26
597.63	14.26
597.823	14.27
598.017	14.29
598.21	14.33
598.403	14.3
598.596	14.29
598.79	14.33
598.983	14.36
599.176	14.28
599.369	14.28
599.563	14.23
599.756	14.21
599.949	14.21
600.142	14.11
600.335	14.08
600.528	14.08
600.722	14.13
600.915	14.14
601.108	14.1
601.301	14.21
601.494	14.29
601.687	14.33
601.88	14.33
602.073	14.33
602.266	14.38
602.459	14.42
602.652	14.47
602.845	14.46
603.038	14.52
603.231	14.54
603.424	14.49
603.617	14.47
603.809	14.43
604.002	14.48
604.195	14.5
604.388	14.48
604.581	14.46
604.774	14.41
604.966	14.43
605.159	14.4
605.352	14.45
605.545	14.48
605.737	14.5
605.93	14.53
606.123	14.48
606.316	14.49
606.508	14.48
606.701	14.53
606.894	14.6
607.086	14.58
607.279	14.48
607.471	14.44
607.664	14.45
607.857	14.47
608.049	14.53
608.242	14.57
608.434	14.54
608.627	14.62
608.819	14.54
609.012	14.57
609.204	14.55
609.397	14.66
609.589	14.73
609.782	14.74
609.974	14.7
610.166	14.7
610.359	14.73
610.551	14.78
610.743	14.78
610.936	14.84
611.128	14.82
611.32	14.85
611.513	14.78
611.705	14.7
611.897	14.66
612.09	14.68
612.282	14.67
612.474	14.55
612.666	14.64
612.858	14.58
613.051	14.62
613.243	14.54
613.435	14.54
613.627	14.58
613.819	14.58
614.011	14.57
614.203	14.53
614.395	14.43
614.588	14.49
614.78	14.43
614.972	14.43
615.164	14.34
615.356	14.37
615.548	14.31
615.74	14.35
615.932	14.4
616.124	14.47
616.315	14.45
616.507	14.49
616.699	14.55
616.891	14.56
617.083	14.68
617.275	14.78
617.467	14.74
617.659	14.77
617.85	14.69
618.042	14.69
618.234	14.71
618.426	14.81
618.618	14.94
618.809	14.96
619.001	14.87
619.193	14.84
619.384	14.79
619.576	14.91
619.768	14.96
619.959	14.97
620.151	14.94
620.343	14.87
620.534	14.83
620.726	14.7
620.917	14.68
621.109	14.72
621.301	14.7
621.492	14.68
621.684	14.6
621.875	14.6
622.067	14.64
622.258	14.63
622.45	14.68
622.641	14.71
622.832	14.78
623.024	14.8
623.215	14.81
623.407	14.83
623.598	14.83
623.789	14.82
623.981	14.68
624.172	14.69
624.363	14.67
624.555	14.67
624.746	14.61
624.937	14.6
625.129	14.55
625.32	14.45
625.511	14.42
625.702	14.37
625.893	14.38
626.085	14.48
626.276	14.48
626.467	14.5
626.658	14.5
626.849	14.46
627.04	14.45
627.231	14.45
627.422	14.63
627.614	14.67
627.805	14.8
627.996	14.87
628.187	14.85
628.378	14.83
628.569	14.87
628.76	14.87
628.951	14.99
629.142	15.05
629.332	15.06
629.523	14.96
629.714	14.88
629.905	14.82
630.096	14.71
630.287	14.69
630.478	14.72
630.669	14.72
630.859	14.68
631.05	14.67
631.241	14.67
631.432	14.63
631.623	14.64
631.813	14.69
632.004	14.61
632.195	14.73
632.385	14.77
632.576	14.74
632.767	14.72
632.957	14.78
633.148	14.74
633.339	14.69
633.529	14.72
633.72	14.75
633.91	14.62
634.101	14.71
634.292	14.62
634.482	14.56
634.673	14.53
634.863	14.5
635.054	14.48
635.244	14.46
635.435	14.49
635.625	14.53
635.815	14.5
636.006	14.55
636.196	14.57
636.387	14.59
636.577	14.62
636.767	14.64
636.958	14.72
637.148	14.7
637.338	14.75
637.529	14.78
637.719	14.63
637.909	14.72
638.099	14.8
638.29	14.79
638.48	14.93
638.67	14.96
638.86	15.05
639.05	15.03
639.241	15.1
639.431	15.09
639.621	15.06
639.811	15.24
640.001	15.08
640.191	15.1
640.381	15.05
640.571	14.92
640.761	14.91
640.951	14.8
641.141	14.84
641.331	14.74
641.521	14.72
641.711	14.71
641.901	14.61
642.091	14.78
642.281	14.69
642.471	14.7
642.661	14.75
642.851	14.77
643.041	14.83
643.231	14.77
643.42	14.83
643.61	14.78
643.8	14.73
643.99	14.79
644.18	14.66
644.369	14.72
644.559	14.8
644.749	14.72
644.939	14.65
645.128	14.62
645.318	14.6
645.508	14.61
645.697	14.57
645.887	14.63
646.076	14.61
646.266	14.65
646.456	14.63
646.645	14.54
646.835	14.54
647.024	14.55
647.214	14.61
647.403	14.55
647.593	14.59
647.782	14.72
647.972	14.68
648.161	14.58
648.351	14.63
648.54	14.62
648.73	14.61
648.919	14.68
649.108	14.67
649.298	14.59
649.487	14.65
649.677	14.59
649.866	14.58
650.055	14.65
650.244	14.78
650.434	14.68
650.623	14.76
650.812	14.71
651.002	14.65
651.191	14.7
651.38	14.74
651.569	14.77
651.758	14.72
651.947	14.61
652.137	14.53
652.326	14.34
652.515	14.4
652.704	14.39
652.893	14.52
653.082	14.58
653.271	14.63
653.46	14.66
653.649	14.62
653.838	14.59
654.027	14.7
654.216	14.71
654.405	14.85
654.594	14.83
654.783	14.82
654.972	14.74
655.161	14.72
655.35	14.69
655.539	14.67
655.728	14.74
655.916	14.73
656.105	14.73
656.294	14.83
656.483	14.7
656.672	14.71
656.86	14.74
657.049	14.71
657.238	14.64
657.427	14.56
657.615	14.55
657.804	14.47
657.993	14.46
658.181	14.4
658.37	14.35
658.559	14.4
658.747	14.39
658.936	14.36
659.125	14.27
659.313	14.38
659.502	14.41
659.69	14.42
659.879	14.35
660.067	14.42
660.256	14.45
660.444	14.46
660.633	14.51
660.821	14.48
661.01	14.44
661.198	14.58
661.387	14.5
661.575	14.52
661.763	14.5
661.952	14.55
662.14	14.58
662.328	14.6
662.517	14.59
662.705	14.59
662.893	14.71
663.082	14.75
663.27	14.68
663.458	14.71
663.646	14.69
663.834	14.77
664.023	14.84
664.211	14.85
664.399	14.83
664.587	14.79
664.775	14.84
664.963	14.76
665.152	14.7
665.34	14.87
665.528	14.86
665.716	14.85
665.904	14.76
666.092	14.72
666.28	14.71
666.468	14.76
666.656	14.73
666.844	14.64
667.032	14.63
667.22	14.68
667.408	14.53
667.596	14.49
667.784	14.52
667.971	14.57
668.159	14.53
668.347	14.47
668.535	14.48
668.723	14.51
668.911	14.57
669.098	14.52
669.286	14.51
669.474	14.66
669.662	14.72
669.849	14.68
670.037	14.62
670.225	14.7
670.413	14.69
670.6	14.66
670.788	14.61
670.976	14.65
671.163	14.68
671.351	14.62
671.538	14.55
671.726	14.63
671.913	14.59
672.101	14.57
672.289	14.53
672.476	14.65
672.664	14.65
672.851	14.72
673.039	14.58
673.226	14.52
673.413	14.61
673.601	14.56
673.788	14.5
673.976	14.5
674.163	14.59
674.35	14.62
674.538	14.47
674.725	14.43
674.912	14.43
675.1	14.52
675.287	14.44
675.474	14.36
675.662	14.53
675.849	14.47
676.036	14.56
676.223	14.66
676.411	14.6
676.598	14.73
676.785	14.78
676.972	14.84
677.159	14.79
677.346	14.92
677.533	14.99
677.721	14.87
677.908	14.9
678.095	14.83
678.282	14.84
678.469	14.84
678.656	14.7
678.843	14.65
679.03	14.6
679.217	14.69
679.404	14.69
679.591	14.61
679.778	14.6
679.964	14.61
680.151	14.69
680.338	14.62
680.525	14.7
680.712	14.83
680.899	14.82
681.086	14.77
681.272	14.66
681.459	14.72
681.646	14.78
681.833	14.77
682.02	14.77
682.206	14.7
682.393	14.65
682.58	14.56
682.766	14.5
682.953	14.53
683.14	14.59
683.326	14.75
683.513	14.73
683.7	14.74
683.886	14.81
684.073	14.7
684.259	14.7
684.446	14.73
684.632	14.73
684.819	14.65
685.005	14.71
685.192	14.74
685.378	14.57
685.565	14.58
685.751	14.51
685.938	14.33
686.124	14.38
686.31	14.42
686.497	14.42
686.683	14.47
686.87	14.63
687.056	14.62
687.242	14.57
687.429	14.65
687.615	14.51
687.801	14.64
687.987	14.64
688.174	14.69
688.36	14.68
688.546	14.79
688.732	14.84
688.918	14.83
689.105	14.83
689.291	14.73
689.477	14.89
689.663	15.11
689.849	14.99
690.035	15.2
690.221	15.31
690.407	15.27
690.593	15.22
690.779	15.27
690.965	15.22
691.151	15.23
691.337	15.42
691.523	15.28
691.709	15.21
691.895	15.27
692.081	15.14
692.267	15.03
692.453	15.02
692.639	15.01
692.825	15.03
693.011	14.92
693.196	14.91
693.382	14.87
693.568	14.85
693.754	14.83
693.94	14.74
694.125	14.79
694.311	14.78
694.497	14.89
694.682	14.85
694.868	14.82
695.054	14.92
695.239	14.84
695.425	14.73
695.611	14.84
695.796	14.79
695.982	14.87
696.168	14.81
696.353	14.76
696.539	14.66
696.724	14.6
696.91	14.58
697.095	14.56
697.281	14.61
697.466	14.57
697.652	14.5
697.837	14.5
698.023	14.46
698.208	14.57
698.393	14.64
698.579	14.7
698.764	14.75
698.949	14.75
699.135	14.73
699.32	14.72
699.505	14.77
699.691	14.61
699.876	14.64
700.061	14.61
700.246	14.5
700.432	14.47
700.617	14.48
700.802	14.63
700.987	14.59
701.172	14.6
701.358	14.64
701.543	14.88
701.728	15.06
701.913	15.15
702.098	15.27
702.283	15.52
702.468	15.59
702.653	15.5
702.838	15.25
703.023	15.27
703.208	15.4
703.393	15.28
703.578	15.16
703.763	15.19
703.948	14.99
704.133	15.02
704.318	14.72
704.503	14.77
704.688	14.8
704.873	14.77
705.057	14.87
705.242	14.82
705.427	14.92
705.612	14.83
705.797	14.91
705.981	15.05
706.166	15.02
706.351	15.09
706.536	15.03
706.72	14.96
706.905	14.98
707.09	14.86
707.274	14.81
707.459	14.81
707.644	14.91
707.828	14.75
708.013	14.67
708.197	14.71
708.382	14.65
708.567	14.53
708.751	14.64
708.936	14.71
709.12	14.79
709.305	14.76
709.489	14.79
709.673	14.49
709.858	14.53
710.042	14.69
710.227	14.54
710.411	14.48
710.596	14.57
710.78	14.54
710.964	14.55
711.149	14.48
711.333	14.7
711.517	14.66
711.702	14.81
711.886	14.94
712.07	14.83
712.254	14.97
712.438	15.12
712.623	15.1
712.807	15.15
712.991	15.17
713.175	15.19
713.359	15.09
713.544	15.14
713.728	15.21
713.912	15.18
714.096	15.26
714.28	15.16
714.464	15.18
714.648	15.18
714.832	15.22
715.016	15.2
715.2	15.07
715.384	15.05
715.568	15.01
715.752	14.87
715.936	14.82
716.12	14.76
716.304	14.76
716.488	14.71
716.671	14.62
716.855	14.45
717.039	14.33
717.223	14.47
717.407	14.22
717.59	14.26
717.774	14.35
717.958	14.38
718.142	14.22
718.325	14.26
718.509	14.25
718.693	14.25
718.877	14.38
719.06	14.5
719.244	14.32
719.428	14.48
719.611	14.52
719.795	14.59
719.978	14.61
720.162	14.64
720.345	14.57
720.529	14.5
720.713	14.68
720.896	14.65
721.08	14.54
721.263	14.57
721.446	14.63
721.63	14.62
721.813	14.59
721.997	14.78
722.18	14.9
722.364	15.03
722.547	15.15
722.73	15.04
722.914	15.07
723.097	15
723.28	15.26
723.464	15.19
723.647	15.16
723.83	15.19
724.013	14.88
724.197	14.87
724.38	14.88
724.563	14.73
724.746	14.82
724.929	14.8
725.112	14.9
725.296	14.59
725.479	14.73
725.662	14.61
725.845	14.64
726.028	14.48
726.211	14.55
726.394	14.58
726.577	14.66
726.76	14.65
726.943	14.55
727.126	14.57
727.309	14.75
727.492	14.72
727.675	14.76
727.858	14.55
728.041	14.68
728.224	14.68
728.407	14.71
728.589	14.69
728.772	14.79
728.955	15.07
729.138	15.14
729.321	15.17
729.503	15.36
729.686	15.26
729.869	15.36
730.052	15.48
730.234	15.41
730.417	15.4
730.6	15.44
730.782	15.29
730.965	15.05
731.148	14.77
731.33	14.65
731.513	14.22
731.695	14.27
731.878	14.38
732.061	14.4
732.243	14.32
732.426	14.11
732.608	14.24
732.791	14.18
732.973	14.38
733.156	14.67
733.338	14.69
733.52	14.78
733.703	14.79
733.885	14.81
734.068	14.63
734.25	14.69
734.432	14.9
734.615	14.74
734.797	14.74
734.979	14.49
735.162	14.44
735.344	14.48
735.526	14.65
735.708	14.54
735.891	14.4
736.073	14.47
736.255	14.44
736.437	14.47
736.619	14.55
736.802	14.6
736.984	14.55
737.166	14.66
737.348	14.6
737.53	14.47
737.712	14.66
737.894	14.66
738.076	14.61
738.258	14.48
738.44	14.42
738.622	14.16
738.804	14.24
738.986	14.32
739.168	14.35
739.35	14.4
739.532	14.38
739.714	14.14
739.896	14.28
740.078	14.48
740.259	14.71
740.441	14.63
740.623	14.78
740.805	14.61
740.987	14.78
741.168	14.34
741.35	14.21
741.532	14.21
741.714	14.5
741.895	14.48
742.077	14.48
742.259	14.58
742.44	14.71
742.622	14.54
742.804	14.59
742.985	14.53
743.167	14.91
743.348	15
743.53	15.21
743.711	14.9
743.893	14.6
744.075	14.39
744.256	14.09
744.438	13.76
744.619	13.9
744.8	13.83
744.982	13.76
745.163	13.84
745.345	13.99
745.526	13.95
745.707	14.22
745.889	14.2
746.07	14.28
746.252	14.32
746.433	14.54
746.614	14.38
746.795	14.47
746.977	14.57
747.158	14.6
747.339	14.28
747.52	14.25
747.702	14.1
747.883	14.14
748.064	14.03
748.245	13.98
748.426	13.94
748.607	14.15
748.788	14.03
748.97	13.75
749.151	13.34
749.332	13.56
749.513	13.58
749.694	13.56
749.875	13.81
750.056	13.96
750.237	13.89
750.418	13.62
750.599	13.63
750.78	13.57
750.96	13.75
751.141	14.07
751.322	14.53
751.503	14.33
751.684	14.61
751.865	14.47
752.046	14.49
752.226	14.44
752.407	14.55
752.588	14.6
752.769	15.04
752.949	15.03
753.13	14.81
753.311	14.39
753.492	14.47
753.672	14.43
753.853	14.24
754.034	14.27
754.214	14.53
754.395	14.55
754.575	14.61
754.756	14.25
754.937	13.86
755.117	14.14
755.298	14.36
755.478	14.69
755.659	14.5
755.839	14.79
756.02	14.64
756.2	14.43
756.381	14.29
756.561	14.09
756.741	14.44
756.922	14.82
757.102	14.82
757.283	14.52
757.463	14.2
757.643	14.32
757.823	14.21
758.004	14.36
758.184	14.59
758.364	14.81
758.545	14.9
758.725	14.59
758.905	14.42
759.085	14.33
759.265	14.48
759.446	14.64
759.626	14.58
759.806	14.84
759.986	14.57
760.166	14.74
760.346	14.58
760.526	14.42
760.706	14.62
760.886	14.78
761.066	14.68
761.246	14.67
761.426	14.59
761.606	14.4
761.786	14.3
761.966	14.62
762.146	14.56
762.326	14.65
762.506	14.83
762.686	14.69
762.866	14.6
763.046	14.71
763.225	14.8
763.405	14.78
763.585	15.05
763.765	14.92
763.945	14.71
764.124	14.62
764.304	14.69
764.484	14.71
764.664	14.95
764.843	15.17
765.023	15.01
765.203	14.83
765.382	15.05
765.562	14.97
765.741	15.41
765.921	15.55
766.101	15.47
766.28	15.5
766.46	15.18
766.639	14.88
766.819	14.53
766.998	14.75
767.178	14.78
767.357	14.6
767.537	14.33
767.716	13.86
767.896	13.89
768.075	13.91
768.254	14
768.434	14.35
768.613	14.31
768.792	14.7
768.972	14.74
769.151	14.61
769.33	14.66
769.51	14.89
769.689	14.79
769.868	14.51
770.047	14.43
770.226	14.64
770.406	14.71
770.585	14.74
770.764	14.23
770.943	14
771.122	14.2
771.301	14.25
771.48	14.79
771.66	14.99
771.839	15.25
772.018	15.37
772.197	15.03
772.376	14.7
772.555	14.61
772.734	14.87
772.913	15.08
773.092	14.73
773.271	14.55
773.449	14
773.628	14.38
773.807	14.05
773.986	13.6
774.165	13.44
774.344	13.54
774.523	13.61
774.701	13.82
774.88	13.14
775.059	13.72
775.238	13.66
775.417	13.55
775.595	13.12
775.774	13.86
775.953	14.41
776.131	14.04
776.31	14.04
776.489	14.09
776.667	14
776.846	14.68
777.025	14.55
777.203	14.74
777.382	14.92
777.56	14.59
777.739	14.08
777.917	13.79
778.096	14.22
778.274	14.36
778.453	14.58
778.631	14.77
778.81	14.71
778.988	14.07
779.166	14.34
779.345	14
779.523	14.09
779.702	14.16
779.88	14.29
780.058	14.51
780.237	14.18
780.415	14.31
780.593	14.08
780.771	13.88
780.95	14.3
781.128	13.65
781.306	14.08
781.484	14.62
781.662	14.71
781.841	14.39
782.019	14.07
782.197	14.22
782.375	14.05
782.553	14.31
782.731	14.26
782.909	14.71
783.087	15.21
783.265	15.26
783.443	15.03
783.621	14.45
783.799	15.06
783.977	15.58
784.155	15.85
784.333	15.63
784.511	15.55
784.689	15.79
784.867	15.58
785.045	14.72
785.223	14.4
785.4	14.39
785.578	14.97
785.756	15.11
785.934	14.41
786.112	13.95
786.289	14.13
786.467	13.66
786.645	14.02
786.823	13.52
787	14.19
787.178	14.58
787.356	14.2
787.533	14.45
787.711	14.09
787.889	14.62
788.066	14.97
788.244	14.76
788.421	14.77
788.599	14.37
788.776	14.69
788.954	14.42
789.131	14.03
789.309	13.86
789.486	12.94
789.664	13.1
789.841	12.36
790.019	11.97
790.196	12.01
790.373	11.9
790.551	11.59
790.728	11.39
790.906	11.77
791.083	11.22
791.26	11.51
791.437	11.73
791.615	11.7
791.792	12.08
791.969	12.04
792.146	12.16
792.324	12.78
792.501	13.45
792.678	13.58
792.855	13.23
793.032	14
793.209	14.21
793.387	14.85
793.564	14.32
793.741	14.55
793.918	14.31
794.095	14.57
794.272	14.58
794.449	14.03
794.626	14.15
794.803	13.97
794.98	13.5
795.157	13.51
795.334	13.72
795.511	13.82
795.688	13.95
795.864	14.6
796.041	14.84
796.218	14.37
796.395	14.73
796.572	14.53
796.749	14.56
796.925	15.05
797.102	15.14
797.279	14.57
797.456	15.27
797.632	14.84
797.809	14.47
797.986	13.9
798.162	14.31
798.339	14.09
798.516	13.74
798.692	14.31
798.869	14.03
799.046	13.59
799.222	13.89
799.399	13.41
799.575	14.04
799.752	13.85
799.928	13.62
800.105	13.3
800.281	13.63
800.458	14.13
800.634	13.62
800.811	13.79
800.987	14.09
801.163	13.92
801.34	13.56
801.516	13.14
801.692	13.47
801.869	13.9
802.045	14.64
802.221	14.46
802.398	14.12
802.574	14
802.75	14.11
802.926	14.3
803.103	13.87
803.279	14.67
803.455	14.93
803.631	15.31
803.807	14.6
803.983	14.34
804.16	14.15
804.336	13.88
804.512	14.28
804.688	14.4
804.864	13.9
805.04	14.76
805.216	14.5
805.392	13.95
805.568	14.03
805.744	14.96
805.92	14.7
806.096	14.45
806.272	15.11
806.448	14.81
806.623	14.64
806.799	14.89
806.975	14.53
807.151	15.07
807.327	14.67
807.503	15
807.678	14.5
807.854	14.49
808.03	14.62
808.206	14.76
808.381	14.94
808.557	15.14
808.733	15.34
808.908	15.14
809.084	14.11
809.26	14.39
809.435	13.9
809.611	13.98
809.787	13.6
809.962	13.11
810.138	12.95
810.313	13.35
810.489	12.09
810.664	11.8
810.84	11.78
811.015	12.49
811.191	12.48
811.366	12.17
811.542	11.94
811.717	12.5
811.892	13.68
812.068	14.28
812.243	14.32
812.419	15.36
812.594	15.54
812.769	16
812.944	15.44
813.12	15.21
813.295	15.1
813.47	15.58
813.645	14.86
813.821	14.73
813.996	13.83
814.171	13.7
814.346	13.71
814.521	13.43
814.697	12.81
814.872	13.88
815.047	14.28
815.222	14.52
815.397	14.4
815.572	15.04
815.747	15.18
815.922	15.18
816.097	15.19
816.272	14.93
816.447	14.79
816.622	15.48
816.797	14.37
816.972	14.19
817.147	14.2
817.322	13.89
817.496	13.56
817.671	13.52
817.846	14.15
818.021	14.03
818.196	14.25
818.371	14.8
818.545	14.72
818.72	15
818.895	15.51
819.069	15.34
819.244	15.27
819.419	15.43
819.594	15.11
819.768	14.73
819.943	14.69
820.117	14.59
820.292	14.59
820.467	14.83
820.641	14.95
820.816	14.84
820.99	14.9
821.165	14.98
821.339	15.01
821.514	15.1
821.688	15.18
821.863	15.23
822.037	15.29
822.212	15.2
822.386	15.05
822.56	14.96
822.735	14.9
822.909	14.94
823.084	14.88
823.258	14.8
823.432	14.85
823.606	14.75
823.781	14.83
823.955	14.79
824.129	14.9
824.303	15.05
824.478	14.97
824.652	14.98
824.826	15.08
825	15.39
825.174	15.3
825.348	14.91
825.523	15.02
825.697	14.65
825.871	14.72
826.045	14.71
826.219	14.57
826.393	14.72
826.567	14.95
826.741	14.96
826.915	14.94
827.089	15.07
827.263	15.35
827.437	15.37
827.611	15.64
827.784	15.54
827.958	15.3
828.132	15.34
828.306	15.39
828.48	15.22
828.654	15.11
828.827	14.59
829.001	14.43
829.175	13.99
829.349	14.13
829.522	13.93
829.696	13.87
829.87	14.48
830.044	14.74
830.217	14.79
830.391	14.32
830.565	14.39
830.738	14.54
830.912	14.69
831.085	14.94
831.259	15.36
831.432	14.46
831.606	14.42
831.779	14.27
831.953	13.59
832.126	13.56
832.3	13.89
832.473	13.85
832.647	13.44
832.82	13.6
832.994	13.81
833.167	13.28
833.34	13.81
833.514	13.88
833.687	13.88
833.86	13.91
834.034	14.07
834.207	14.35
834.38	13.84
834.553	14.59
834.727	14.49
834.9	14.65
835.073	14.65
835.246	14.26
835.419	13.81
835.593	13.92
835.766	14.29
835.939	13.6
836.112	12.66
836.285	12.83
836.458	12.73
836.631	12.6
836.804	11.37
836.977	11.46
837.15	11.96
837.323	12.71
837.496	11.89
837.669	11.39
837.842	11.45
838.015	13.37
838.188	13.22
838.361	13.02
838.533	13.58
838.706	13.53
838.879	13.49
839.052	13.96
839.225	13.91
839.398	14.4
839.57	14.05
839.743	14.46
839.916	13.85
840.088	14.03
840.261	14.9
840.434	14.54
840.607	14.47
840.779	14.75
840.952	14.1
841.124	14.62
841.297	15.01
841.47	15.12
841.642	14.93
841.815	14.32
841.987	14.43
842.16	12.37
842.332	11.88
842.505	12.42
842.677	11.7
842.85	11.94
843.022	11.03
843.194	11.06
843.367	11.95
843.539	12.29
843.712	12.63
843.884	11.62
844.056	11.79
844.229	11.75
844.401	12.04
844.573	13.74
844.745	14.73
844.918	14.11
845.09	13.31
845.262	12.86
845.434	13.41
845.606	13.57
845.779	14.81
845.951	16.91
846.123	18.46
846.295	18.02
846.467	17.48
846.639	17.14
846.811	18.11
846.983	17.64
847.155	17.54
847.327	16.55
847.499	15.88
847.671	14.15
847.843	11.6
848.015	9.57
848.187	9.93
848.359	7.82
848.531	6.49
848.703	5.55
848.875	9.61
849.047	10.61
849.218	11.39
849.39	12.22
849.562	14.42
849.734	14.08
849.905	15.53
850.077	15.39
850.249	16.07
850.421	17.01
850.592	17.82
850.764	13.84
850.936	11.8
851.107	9.47
851.279	8.77
851.451	9.33
851.622	10.43
851.794	11.84
851.965	12.66
852.137	13.69
852.308	13.78
852.48	14.1
852.651	13.19
852.823	13.94
852.994	16.42
853.166	15.73
853.337	15.53
853.509	14.68
853.68	13.01
853.851	13.27
854.023	10.84
854.194	10.54
854.365	11.13
854.537	11.23
854.708	13.25
854.879	12.23
855.05	11.64
855.222	12.23
855.393	10.02
855.564	7.56
855.735	6.12
855.906	8.13
856.078	6.61
856.249	8.86
856.42	8.11
856.591	5.96
856.762	8.22
856.933	10.03
857.104	9.37
857.275	13.73
857.446	16.24
857.617	16.85
857.788	15.71
857.959	15.39
858.13	13.04
858.301	15.14
858.472	15.66
858.643	13.54
858.814	14.74
858.985	15.21
859.155	13.69
859.326	15.16
859.497	15.29
859.668	12.11
859.839	13.78
860.009	14.51
860.18	13.9
860.351	15.85
860.522	18.01
860.692	16.54
860.863	15.34
861.034	14.35
861.204	12.69
861.375	11.98
861.546	15.28
861.716	13.79
861.887	11.23
862.057	13.48
862.228	12.14
862.398	8.85
862.569	10.07
862.739	10.29
862.91	11.33
863.08	11.64
863.251	10.51
863.421	8.66
863.592	8.18
863.762	10.21
863.932	7.75
864.103	8.65
864.273	7.22
864.443	7.13
864.614	7.17
864.784	6.31
864.954	6.2
865.125	7.35
865.295	11.05
865.465	14.22
865.635	10.65
865.805	12.44
865.976	9.11
866.146	12.64
866.316	12.53
866.486	12.43
866.656	14.06
866.826	11.54
866.996	13.52
867.166	12.86
867.336	11.69
867.506	15.86
867.676	13.32
867.846	14.38
868.016	11.65
868.186	8.31
868.356	6.98
868.526	5.43
868.696	8.75
868.866	7.73
869.036	4.68
869.206	5.97
869.376	4.18
869.545	3.97
869.715	4.21
869.885	5.59
870.055	7.11
870.224	7.15
870.394	8.28
870.564	8.48
870.734	5.47
870.903	6.9
871.073	6.79
871.243	10.1
871.412	9.46
871.582	10.62
871.751	11.87
871.921	11.98
872.091	8.98
872.26	8.51
872.43	6.11
872.599	7.25
872.769	8.55
872.938	5.46
873.108	3.46
873.277	4.54
873.446	5.88
873.616	4.67
873.785	6.92
873.955	12.71
874.124	11.89
874.293	12.82
874.463	13.98
874.632	13.3
874.801	15.33
874.971	16.11
875.14	18.59
875.309	15.3
875.478	13.96
875.647	14.46
875.817	12.9
875.986	11.01
876.155	10.8
876.324	10.88
876.493	11.87
876.662	11.87
876.831	9.6
877	6.69
877.17	10.11
877.339	12.7
877.508	12.35
877.677	13.46
877.846	15.57
878.015	16.66
878.184	14.41
878.352	15
878.521	14.13
878.69	14.34
878.859	15.67
879.028	15.62
879.197	14.79
879.366	14.35
879.534	14.5
879.703	14.01
879.872	14.42
880.041	16.14
880.21	15.35
880.378	15.53
880.547	15.98
880.716	15.75
880.884	14.87
881.053	15.08
881.222	14.53
881.39	14.86
881.559	15.53
881.727	15.37
881.896	15.12
882.065	15.04
882.233	14.85
882.402	14.58
882.57	14.19
882.739	14.43
882.907	14.48
883.076	14.85
883.244	14.33
883.412	14.04
883.581	13.92
883.749	14.04
883.918	14.69
884.086	15.52
884.254	15.45
884.423	15.89
884.591	16.38
884.759	15.52
884.927	16.01
885.096	15.51
885.264	15.74
885.432	15.56
885.6	13.72
885.769	12.52
885.937	12.07
886.105	11.8
886.273	11.43
886.441	10.28
886.609	12.49
886.777	10.09
886.945	9.97
887.113	11.11
887.281	12.1
887.449	15.1
887.617	15.78
887.785	15.37
887.953	16.36
888.121	16.17
888.289	15.9
888.457	14.12
888.625	15.3
888.793	17.43
888.961	11.85
889.129	8.04
889.296	6.49
889.464	5.44
889.632	3.31
889.8	1.85
889.967	3.03
890.135	4.63
