Data from JASIL_2989_Reflection_02.txt Node
Date: Mon Nov 09 09:38:39 EST 2015
User: Geneva
Spectrometer: USB4E03002
Autoset integration time: false
Trigger mode: 4
Integration Time (sec): 1.000000E-1
Scans to average: 10
Electric dark correction enabled: false
Nonlinearity correction enabled: false
Boxcar width: 5
Stray light correction enabled: false
XAxis mode: Wavelengths
Stop averaging: false
Number of Pixels in Spectrum: 3648
>>>>>Begin Spectral Data<<<<<
177.575	-184.36
177.794	-222.55
178.014	-1091.03
178.233	-1851.85
178.452	808.97
178.672	3306.82
178.891	896.26
179.11	508.94
179.33	629.71
179.549	658.7
179.768	498.67
179.987	579.95
180.207	726.78
180.426	1145
180.645	1438.26
180.864	-1937.96
181.084	10694.74
181.303	-1538.52
181.522	-1035.52
181.741	-1822.45
181.96	-743.53
182.179	-731.74
182.398	-3000
182.618	734.38
182.837	930.19
183.056	1411.9
183.275	1356.67
183.494	1090.13
183.713	837.32
183.932	785.25
184.151	728.11
184.37	343.68
184.589	595.24
184.808	550.49
185.027	1302.54
185.246	2310
185.465	723.56
185.684	772.55
185.903	653.59
186.122	463.21
186.341	787.64
186.56	568.85
186.779	-3167.5
186.998	878.48
187.216	-9600
187.435	2019.51
187.654	1154
187.873	-1766.67
188.092	-9281.25
188.311	-2006.58
188.53	-1068.97
188.748	-1041.83
188.967	-879.67
189.186	-1121.71
189.405	-1953.49
189.623	-2353.13
189.842	-609.3
190.061	-383.06
190.28	-303.74
190.498	-430.5
190.717	-593.93
190.936	-457.46
191.154	-392.44
191.373	-360.63
191.592	-235.34
191.81	-215.04
192.029	-248.57
192.248	-457.28
192.466	-933.74
192.685	1200.66
192.904	1570.09
193.122	1494.12
193.341	4610
193.559	5345.71
193.778	-1551.79
193.996	1616.67
194.215	1908.89
194.433	1296.24
194.652	-3935.9
194.87	-5848.15
195.089	-1278.33
195.307	-647.46
195.526	-305.76
195.744	-508.52
195.963	-1116.03
196.181	-1946.25
196.399	-418.59
196.618	-548.76
196.836	13300
197.055	2269.57
197.273	-3200
197.491	2973.91
197.71	1236.27
197.928	440.63
198.146	634.88
198.365	444.23
198.583	391.3
198.801	258.06
199.019	287.22
199.238	475.42
199.456	452.94
199.674	632.34
199.892	614.93
200.111	720.17
200.329	886.67
200.547	1150.97
200.765	-15518.18
200.983	2893.44
201.202	-10016.67
201.42	1914.29
201.638	-973.99
201.856	-956.32
202.074	6773.08
202.292	-1812.5
202.51	5848.28
202.728	-3608.51
202.946	1216.18
203.165	1365.55
203.383	814.88
203.601	596.84
203.819	6052
204.037	1163.64
204.255	797.51
204.473	1765.88
204.691	4191.89
204.909	-4188.24
205.127	-2092.06
205.345	-4475.76
205.562	-4271.43
205.78	-573.47
205.998	-573.44
206.216	-1366.02
206.434	-1517.35
206.652	-553.5
206.87	-512.07
207.088	-409.33
207.306	-736.36
207.523	-885.47
207.741	-514.34
207.959	-1834.62
208.177	-1122.12
208.395	-471.27
208.612	-367.95
208.83	-444.57
209.048	-1533.72
209.266	-4016.13
209.483	3568.57
209.701	-5747.62
209.919	1002.29
210.136	-22350
210.354	-1232.26
210.572	-4168.42
210.79	994.77
211.007	697.18
211.225	571.88
211.442	979.46
211.66	646.38
211.878	918.57
212.095	1169.44
212.313	1980.52
212.53	1257.81
212.748	2498.28
212.966	576.47
213.183	1334.15
213.401	1595.83
213.618	-2143.06
213.836	-1229.09
214.053	-365.87
214.271	-694.94
214.488	-657.53
214.705	-428.15
214.923	-754.02
215.14	1875.68
215.358	-819.35
215.575	-3274.36
215.793	-1383.15
216.01	2806.38
216.227	710.7
216.445	485.28
216.662	477.99
216.879	601.94
217.097	505.1
217.314	632.78
217.531	620.62
217.749	619.94
217.966	701.01
218.183	489.41
218.4	481.8
218.618	610.32
218.835	893.28
219.052	843.02
219.269	491.16
219.487	427.71
219.704	503.79
219.921	624.31
220.138	522.85
220.355	428.31
220.572	435.83
220.79	362.65
221.007	289.52
221.224	273.86
221.441	261.61
221.658	323.34
221.875	536.67
222.092	301.66
222.309	326.82
222.526	436.24
222.743	3336.84
222.96	4370.97
223.177	-2112.5
223.394	-681
223.611	-888.16
223.828	-469.92
224.045	-1256.56
224.262	1475
224.479	-4668.75
224.696	-3272.92
224.913	-33700
225.13	786.63
225.347	653.33
225.564	505.36
225.781	317.93
225.997	244.66
226.214	199.86
226.431	168.4
226.648	149.46
226.865	119.86
227.082	110
227.298	110.48
227.515	107.9
227.732	101.76
227.949	104.77
228.165	104.44
228.382	110.46
228.599	115.29
228.816	111.73
229.032	116.64
229.249	129.34
229.466	142.76
229.682	158.03
229.899	142.04
230.116	162.78
230.332	203.97
230.549	260.71
230.765	307.73
230.982	233.94
231.199	349.6
231.415	266.41
231.632	284.41
231.848	300.85
232.065	258.66
232.281	258.19
232.498	215.31
232.714	184.9
232.931	192.83
233.147	166.16
233.364	162.13
233.58	148.98
233.797	157.59
234.013	158.99
234.23	164.56
234.446	157.41
234.662	188.56
234.879	252.54
235.095	247.86
235.312	211.98
235.528	204.71
235.744	241.61
235.961	208.9
236.177	167.52
236.393	156.12
236.61	155.27
236.826	169.94
237.042	160.85
237.258	146.94
237.475	144.91
237.691	144.31
237.907	157.71
238.123	153.18
238.339	165.62
238.556	185.04
238.772	181.91
238.988	150.78
239.204	133.45
239.42	120.98
239.636	119.89
239.853	115.24
240.069	107.76
240.285	98.66
240.501	86.54
240.717	79.56
240.933	73.45
241.149	72.18
241.365	77.88
241.581	78.24
241.797	82.37
242.013	78.27
242.229	78.69
242.445	76.48
242.661	81.61
242.877	84.59
243.093	91.69
243.309	103.33
243.525	101.76
243.741	98.13
243.957	95.48
244.173	78.62
244.388	70.74
244.604	64.55
244.82	60.86
245.036	54.32
245.252	49.7
245.468	47.6
245.683	43.84
245.899	42.7
246.115	40.27
246.331	39.35
246.547	39.19
246.762	40
246.978	38.34
247.194	38.14
247.409	40.65
247.625	44.25
247.841	45.1
248.057	49.39
248.272	58.58
248.488	64.3
248.703	69.57
248.919	79.04
249.135	86.46
249.35	95.51
249.566	96.83
249.782	89.52
249.997	86.71
250.213	76.67
250.428	69.84
250.644	66.84
250.859	65.02
251.075	70.56
251.29	67.57
251.506	70.56
251.721	72.65
251.937	75.38
252.152	75.23
252.368	78.99
252.583	90.25
252.798	102.99
253.014	108.69
253.229	118.62
253.445	103.76
253.66	99.55
253.875	97.77
254.091	88.32
254.306	84.44
254.521	85.95
254.737	85.59
254.952	79.66
255.167	78.01
255.383	67.16
255.598	62.96
255.813	54.19
256.028	62.68
256.244	56.33
256.459	55.41
256.674	50.94
256.889	43.06
257.104	37.73
257.32	39.86
257.535	33.77
257.75	33.5
257.965	31.16
258.18	32.94
258.395	28.07
258.61	26.28
258.826	24.58
259.041	25.74
259.256	27.78
259.471	27.6
259.686	25.2
259.901	28.65
260.116	29.79
260.331	32.61
260.546	33.86
260.761	39.97
260.976	43.84
261.191	46.87
261.406	46.89
261.621	49.48
261.836	52
262.05	54.34
262.265	50.75
262.48	49.7
262.695	54.3
262.91	54.29
263.125	52.38
263.34	52.08
263.555	52.01
263.769	49.51
263.984	45.03
264.199	47.44
264.414	47.53
264.629	48.84
264.843	51.32
265.058	40.57
265.273	40.64
265.488	34.89
265.702	33.07
265.917	34.9
266.132	38.53
266.346	40.07
266.561	37.87
266.776	40.27
266.99	42.36
267.205	43.41
267.42	47.15
267.634	48.56
267.849	49.05
268.063	53.18
268.278	49.17
268.492	48.91
268.707	49.63
268.922	46.71
269.136	42.04
269.351	40.58
269.565	35.94
269.78	36.63
269.994	36.45
270.209	38.75
270.423	40.27
270.637	37.89
270.852	37.14
271.066	35.42
271.281	37.96
271.495	40.79
271.709	39.84
271.924	42.61
272.138	39.3
272.353	37.01
272.567	35.58
272.781	34.82
272.996	39
273.21	39.39
273.424	40.13
273.638	40.06
273.853	42.48
274.067	41.43
274.281	39.83
274.495	43.31
274.71	45.02
274.924	49.63
275.138	47.72
275.352	46.92
275.566	49.62
275.781	51.7
275.995	51.04
276.209	48.47
276.423	52.55
276.637	54.88
276.851	55.05
277.065	53.74
277.279	51.02
277.493	49.98
277.707	48.15
277.921	45.95
278.135	43.1
278.349	44.87
278.563	46.29
278.777	43.44
278.991	41.93
279.205	43.14
279.419	42.88
279.633	42.67
279.847	41.99
280.061	43.88
280.275	41.84
280.489	42.48
280.703	43.75
280.917	42.31
281.131	42.19
281.344	39.52
281.558	37.82
281.772	36.57
281.986	35.79
282.2	37.95
282.414	38.44
282.627	36.41
282.841	33.37
283.055	31.68
283.269	33.42
283.482	31.09
283.696	30.96
283.91	30.62
284.123	28.8
284.337	26.54
284.551	24.33
284.764	21.97
284.978	23.83
285.192	25.64
285.405	27.22
285.619	25.96
285.833	28.11
286.046	28.66
286.26	27.89
286.473	26.74
286.687	29.6
286.9	28.67
287.114	30.02
287.327	29.65
287.541	29.24
287.754	28.65
287.968	26.06
288.181	23.15
288.395	27.25
288.608	28.99
288.822	32.64
289.035	29.62
289.248	31.03
289.462	30.42
289.675	29.64
289.889	28.59
290.102	25.78
290.315	24.35
290.529	27.85
290.742	25.2
290.955	26.03
291.169	25.98
291.382	27.65
291.595	27.58
291.808	30.57
292.022	31.15
292.235	29.78
292.448	32.32
292.661	35.54
292.875	33.98
293.088	33.67
293.301	30.26
293.514	29.89
293.727	30.32
293.94	26.57
294.153	25.24
294.367	24.12
294.58	27.13
294.793	24.69
295.006	23.71
295.219	23.5
295.432	23.15
295.645	23.57
295.858	21.6
296.071	19.12
296.284	21.98
296.497	22.29
296.71	22.62
296.923	22.01
297.136	23.59
297.349	25.07
297.562	25.42
297.775	24.92
297.988	24.08
298.201	25.32
298.414	30.12
298.626	30.31
298.839	31.13
299.052	30.56
299.265	29.64
299.478	28.86
299.691	31.41
299.903	31.72
300.116	33.99
300.329	38.43
300.542	39.1
300.755	39.46
300.967	39.74
301.18	38.91
301.393	40.66
301.605	44.06
301.818	43.33
302.031	40.99
302.243	41.86
302.456	40.17
302.669	39.02
302.881	38.24
303.094	38.75
303.307	37.77
303.519	36.45
303.732	36.92
303.944	34.75
304.157	34.42
304.37	33.84
304.582	30.94
304.795	34.85
305.007	32.34
305.22	35.01
305.432	32.1
305.645	33.15
305.857	34.63
306.069	32.97
306.282	34.38
306.494	35.11
306.707	37.29
306.919	38.81
307.132	39.28
307.344	39.33
307.556	37.24
307.769	37.3
307.981	37.32
308.193	36.18
308.406	37.25
308.618	34.27
308.83	32.56
309.043	31.12
309.255	31.25
309.467	28.47
309.679	27
309.892	26.14
310.104	24.52
310.316	24.04
310.528	22.99
310.74	23.01
310.953	25.39
311.165	26.31
311.377	26.25
311.589	26.81
311.801	25.64
312.013	24.14
312.225	27.76
312.437	29.88
312.649	29.06
312.862	29.7
313.074	29.57
313.286	29.96
313.498	31.46
313.71	30.22
313.922	31.54
314.134	32.21
314.346	36.21
314.558	39.03
314.77	37.27
314.982	38.79
315.193	38.29
315.405	39.68
315.617	36.62
315.829	35.5
316.041	39.16
316.253	36.4
316.465	39.28
316.677	38.74
316.888	37
317.1	37.18
317.312	36.68
317.524	36.62
317.736	34.2
317.947	36.26
318.159	35.57
318.371	33.77
318.583	33.06
318.794	31.91
319.006	35.24
319.218	33.48
319.43	35.24
319.641	35.59
319.853	39.91
320.064	41.3
320.276	41.85
320.488	44.33
320.699	47.69
320.911	49
321.123	47.75
321.334	46.03
321.546	45.49
321.757	46.7
321.969	48.09
322.18	48.56
322.392	47.1
322.603	45.51
322.815	45.85
323.026	40.21
323.238	37.86
323.449	38.34
323.661	37.87
323.872	37.69
324.083	36.47
324.295	35.14
324.506	33.41
324.718	33.34
324.929	34.28
325.14	32.85
325.352	34.53
325.563	34.89
325.774	36.27
325.986	38.5
326.197	40.02
326.408	39.43
326.62	40.65
326.831	37.13
327.042	37.08
327.253	35.02
327.464	36.32
327.676	36.6
327.887	38.8
328.098	35.19
328.309	29.42
328.52	26.57
328.732	26.64
328.943	23.07
329.154	28.06
329.365	28.26
329.576	29.06
329.787	28.81
329.998	30.6
330.209	32.97
330.42	35.18
330.631	37.5
330.842	38.58
331.053	38.95
331.264	43.06
331.475	41.64
331.686	40.7
331.897	41.76
332.108	42.14
332.319	42.11
332.53	39.12
332.741	37.78
332.952	36.87
333.163	37.18
333.374	37.32
333.585	38.33
333.795	36.99
334.006	37.11
334.217	35.44
334.428	36.69
334.639	34.99
334.849	35.59
335.06	34.05
335.271	31.75
335.482	31.65
335.692	29.62
335.903	28.21
336.114	29.98
336.325	30.3
336.535	32.72
336.746	31.85
336.957	32.44
337.167	32.84
337.378	34.75
337.589	37.44
337.799	37.08
338.01	38.77
338.22	38.35
338.431	40.2
338.642	40.22
338.852	37.33
339.063	36.45
339.273	35.39
339.484	33.45
339.694	31.75
339.905	29.61
340.115	30.57
340.326	28.35
340.536	26.42
340.746	23.75
340.957	23.66
341.167	24.52
341.378	22.51
341.588	21.59
341.799	22.56
342.009	22.02
342.219	22.34
342.43	18.39
342.64	19.46
342.85	20.19
343.061	20.38
343.271	23.11
343.481	24.38
343.691	24.98
343.902	25.14
344.112	24.93
344.322	27.86
344.532	28.84
344.743	29.17
344.953	29.22
345.163	29.14
345.373	27.76
345.583	25.76
345.793	24.8
346.004	24.74
346.214	27.52
346.424	27.68
346.634	28.82
346.844	29.54
347.054	30.41
347.264	31.96
347.474	32.37
347.684	35.67
347.894	34.69
348.104	33.56
348.314	33.53
348.524	29.1
348.734	29.11
348.944	27.85
349.154	26.34
349.364	26.74
349.574	25.55
349.784	25.86
349.994	25.39
350.204	28.07
350.413	29.02
350.623	29.54
350.833	31.9
351.043	30.34
351.253	29.02
351.463	31.01
351.672	32.45
351.882	33.22
352.092	33.36
352.302	32.54
352.511	30.7
352.721	29.16
352.931	27.68
353.141	27.98
353.35	28.67
353.56	28.04
353.77	24.62
353.979	24.17
354.189	23.72
354.399	23.07
354.608	20.83
354.818	21.3
355.027	20.64
355.237	21.38
355.447	20.95
355.656	19.45
355.866	19.13
356.075	22.59
356.285	21.59
356.494	20.52
356.704	20.79
356.913	23.18
357.123	23.2
357.332	24.97
357.542	26.09
357.751	26.15
357.96	27.64
358.17	28.07
358.379	26.64
358.589	26.87
358.798	27.32
359.007	26.44
359.217	24.97
359.426	25.21
359.635	23.48
359.845	21.4
360.054	19.59
360.263	17.8
360.472	17.38
360.682	16.95
360.891	16.39
361.1	15.94
361.309	15.16
361.519	15.75
361.728	15.66
361.937	17.13
362.146	17.7
362.355	18.65
362.564	19.63
362.774	19.35
362.983	19.06
363.192	18.96
363.401	19.78
363.61	19.85
363.819	19.8
364.028	19.72
364.237	18.33
364.446	17.41
364.655	17.8
364.864	18.45
365.073	18.65
365.282	18.43
365.491	18.8
365.7	19.11
365.909	20.22
366.118	20.16
366.327	18.99
366.536	18.4
366.745	19.37
366.954	18.82
367.162	18.48
367.371	20.06
367.58	20.4
367.789	20.83
367.998	20.31
368.207	20.57
368.415	20.81
368.624	21.36
368.833	22.31
369.042	21.89
369.25	22.2
369.459	22.12
369.668	21.01
369.877	20.6
370.085	19.23
370.294	18.15
370.503	18.59
370.711	17.98
370.92	17.7
371.129	17.96
371.337	17.36
371.546	17.47
371.754	17.53
371.963	18.37
372.171	19.33
372.38	20.7
372.589	21.82
372.797	21.52
373.006	21.82
373.214	21.15
373.423	22.03
373.631	22.16
373.84	21.91
374.048	21.1
374.256	20.34
374.465	20.05
374.673	18.69
374.882	15.92
375.09	15.17
375.298	13.98
375.507	15.24
375.715	13.82
375.923	14.72
376.132	13.6
376.34	15.88
376.548	15.87
376.757	15.18
376.965	14.78
377.173	16.76
377.381	16.38
377.59	18.26
377.798	18.37
378.006	19.9
378.214	19.23
378.423	20.59
378.631	19.44
378.839	18.98
379.047	17.52
379.255	20.21
379.463	21.37
379.671	22.17
379.879	22.01
380.088	21.44
380.296	20.72
380.504	21.11
380.712	22.16
380.92	20.82
381.128	21.4
381.336	23.82
381.544	22.44
381.752	20.98
381.96	19.34
382.168	19.29
382.376	18.75
382.584	19.17
382.791	18.16
382.999	16.68
383.207	17.05
383.415	16.81
383.623	17.42
383.831	16.16
384.039	15.61
384.247	15.02
384.454	13.62
384.662	13.8
384.87	12.44
385.078	14.01
385.285	14.06
385.493	15.83
385.701	15.8
385.909	14.27
386.116	14.82
386.324	14.34
386.532	16.22
386.739	16.53
386.947	15.97
387.155	16.28
387.362	16.68
387.57	16.69
387.778	15.73
387.985	15.83
388.193	14.5
388.4	13.85
388.608	14.88
388.816	15.35
389.023	15.79
389.231	15.1
389.438	14.77
389.646	13.27
389.853	13.32
390.061	13.07
390.268	13.72
390.475	15.01
390.683	15.48
390.89	15.57
391.098	14.74
391.305	13.94
391.512	14.48
391.72	14.72
391.927	14.25
392.135	12.46
392.342	12.12
392.549	11.81
392.756	11.49
392.964	11.72
393.171	11.77
393.378	11.07
393.586	11.27
393.793	11.89
394	11.99
394.207	12.75
394.414	14.41
394.622	15.41
394.829	14.56
395.036	14.85
395.243	14.35
395.45	13.38
395.657	14.56
395.864	13.97
396.072	13.39
396.279	13.71
396.486	14.33
396.693	14.16
396.9	12.85
397.107	13.18
397.314	13.3
397.521	14.11
397.728	14.41
397.935	14.62
398.142	15.36
398.349	15.51
398.556	15.07
398.763	14.78
398.97	15.44
399.177	15.8
399.383	15.61
399.59	15.49
399.797	14.99
400.004	14.81
400.211	14.9
400.418	14.73
400.625	12.96
400.831	12.24
401.038	11.54
401.245	11.59
401.452	11.69
401.658	12.18
401.865	11.83
402.072	12.67
402.279	13.88
402.485	12.53
402.692	11.85
402.899	13.99
403.105	13.88
403.312	15.91
403.519	16.29
403.725	16.01
403.932	15.83
404.138	15.16
404.345	14.65
404.552	13.13
404.758	13.69
404.965	15.8
405.171	14.81
405.378	15.67
405.584	14.62
405.791	13.43
405.997	12.86
406.204	11.27
406.41	12.46
406.617	12.81
406.823	12.73
407.029	12.44
407.236	10.34
407.442	11.16
407.649	11.57
407.855	11.02
408.061	11.83
408.268	12.27
408.474	13.25
408.68	12.71
408.887	11.69
409.093	12.71
409.299	13.34
409.505	12.94
409.712	12.41
409.918	11.35
410.124	10.38
410.33	10.36
410.537	9.74
410.743	9.91
410.949	11.02
411.155	11.02
411.361	11.08
411.567	11.17
411.773	11.81
411.98	12.12
412.186	11.7
412.392	13.32
412.598	13.68
412.804	13.73
413.01	14.53
413.216	14.53
413.422	14.09
413.628	14.02
413.834	13.88
414.04	13.04
414.246	12.64
414.452	13.63
414.658	12.02
414.864	10.06
415.07	10.39
415.275	8.97
415.481	7.76
415.687	8.56
415.893	8.5
416.099	7.72
416.305	7.17
416.511	6.84
416.716	6.04
416.922	7.15
417.128	8.25
417.334	8.44
417.539	8.88
417.745	8.34
417.951	7.88
418.157	7.42
418.362	7.35
418.568	7.68
418.774	7.67
418.979	7.72
419.185	7.02
419.391	6.28
419.596	5.54
419.802	5.5
420.008	6.11
420.213	10.13
420.419	10.16
420.624	10.39
420.83	10.83
421.035	10.5
421.241	10.45
421.446	10.72
421.652	11.05
421.857	11.43
422.063	11
422.268	10.48
422.474	6.7
422.679	6.25
422.885	6.5
423.09	6.04
423.295	5.92
423.501	6.11
423.706	6.18
423.911	6.07
424.117	5.81
424.322	5.92
424.527	6.15
424.733	5.9
424.938	5.65
425.143	5.01
425.349	5.25
425.554	5.81
425.759	6.01
425.964	5.64
426.169	5.32
426.375	5.68
426.58	6.5
426.785	6.61
426.99	6.13
427.195	7.02
427.4	7.32
427.605	7.13
427.811	7.3
428.016	7.02
428.221	7.6
428.426	7.99
428.631	7.72
428.836	6.98
429.041	7.46
429.246	7.77
429.451	7.37
429.656	7.95
429.861	8.46
430.066	8.66
430.271	8.48
430.476	7.65
430.681	7.96
430.886	8.69
431.09	8.7
431.295	7.36
431.5	7.61
431.705	7.32
431.91	6.66
432.115	5.8
432.32	5.8
432.524	5.61
432.729	5.94
432.934	5.45
433.139	4.99
433.343	5.08
433.548	5.94
433.753	5.72
433.958	5.62
434.162	5.97
434.367	7.28
434.572	6.86
434.776	6.34
434.981	5.94
435.186	5.99
435.39	5.56
435.595	5.47
435.799	5.73
436.004	5.86
436.209	6.69
436.413	6.24
436.618	5.64
436.822	6.3
437.027	6.69
437.231	6.85
437.436	7.27
437.64	7.36
437.845	6.92
438.049	6.58
438.253	6.61
438.458	6.84
438.662	7.08
438.867	7.01
439.071	6.45
439.275	6.2
439.48	6.28
439.684	5.83
439.888	5.93
440.093	6.12
440.297	6.17
440.501	6.16
440.706	5.87
440.91	5.95
441.114	6.53
441.318	6.63
441.523	7.51
441.727	7.35
441.931	8.24
442.135	8.94
442.339	8.78
442.543	8.77
442.748	8.91
442.952	8.78
443.156	8.42
443.36	7.7
443.564	7.73
443.768	6.93
443.972	7.02
444.176	6.2
444.38	5.6
444.584	6.23
444.788	5.66
444.992	5.28
445.196	5.1
445.4	5.04
445.604	4.96
445.808	4.71
446.012	4.41
446.216	4.15
446.42	4.28
446.624	4.44
446.828	3.82
447.032	4.22
447.235	4.39
447.439	4.27
447.643	4.31
447.847	4.86
448.051	4.77
448.254	5.39
448.458	5.48
448.662	5.34
448.866	4.94
449.069	4.85
449.273	4.77
449.477	4.74
449.681	5.16
449.884	6.02
450.088	5.64
450.292	5.94
450.495	6.62
450.699	7.54
450.902	7.32
451.106	7.75
451.31	7.93
451.513	8.59
451.717	8.96
451.92	9.57
452.124	9.42
452.327	9.33
452.531	10.2
452.734	9.72
452.938	8.35
453.141	9.25
453.345	9.29
453.548	9.4
453.752	9.07
453.955	8.21
454.158	7.33
454.362	7.6
454.565	7.72
454.769	7.02
454.972	6.94
455.175	7.61
455.379	6.55
455.582	6.42
455.785	6.64
455.988	6.66
456.192	7.13
456.395	7.45
456.598	6.84
456.801	6.63
457.005	6.11
457.208	6.84
457.411	6.89
457.614	6.57
457.817	6.49
458.021	5.77
458.224	5.47
458.427	5.56
458.63	5.42
458.833	5.43
459.036	5.45
459.239	5.83
459.442	5.29
459.645	5.74
459.848	6.15
460.051	6.2
460.254	6.59
460.457	6.21
460.66	6.15
460.863	6.15
461.066	6.21
461.269	6.25
461.472	6.3
461.675	6.72
461.878	5.79
462.081	6.41
462.284	6.85
462.486	7.1
462.689	7.92
462.892	7.63
463.095	7.64
463.298	7.37
463.5	7.51
463.703	7.66
463.906	7.23
464.109	7.66
464.311	7.76
464.514	6.94
464.717	7.5
464.92	7.88
465.122	8.29
465.325	8.22
465.528	8.15
465.73	8.15
465.933	7.76
466.135	8.19
466.338	8.22
466.541	7.32
466.743	7.56
466.946	7.6
467.148	7.58
467.351	7.37
467.553	7.9
467.756	7.94
467.958	7.43
468.161	8.24
468.363	7.83
468.566	7.99
468.768	8.29
468.971	8.47
469.173	8.49
469.375	8.39
469.578	8.03
469.78	7.23
469.983	7.16
470.185	8.03
470.387	7.94
470.59	8.11
470.792	7.79
470.994	7.83
471.196	7.25
471.399	6.81
471.601	6.68
471.803	6.58
472.005	6.64
472.208	6.6
472.41	6.31
472.612	5.73
472.814	6.07
473.016	6.09
473.218	6.06
473.421	7.08
473.623	6.92
473.825	7.32
474.027	7.55
474.229	7.82
474.431	7.88
474.633	8.03
474.835	8.13
475.037	7.41
475.239	7.6
475.441	7.76
475.643	7.88
475.845	7.52
476.047	6.75
476.249	7.41
476.451	7.55
476.653	7.87
476.855	7.74
477.057	6.9
477.258	6.87
477.46	6.62
477.662	6.68
477.864	6.56
478.066	6.88
478.268	6.88
478.469	6.09
478.671	5.71
478.873	5.35
479.075	5.02
479.276	5.41
479.478	5.1
479.68	5.11
479.882	4.93
480.083	4.24
480.285	4.04
480.487	3.84
480.688	3.88
480.89	3.74
481.091	3.1
481.293	2.65
481.495	2.41
481.696	2.45
481.898	2.33
482.099	2.25
482.301	2.24
482.502	2.02
482.704	2.12
482.905	2.14
483.107	2.17
483.308	2.26
483.51	2.37
483.711	2.37
483.913	2.54
484.114	2.65
484.315	2.5
484.517	2.4
484.718	2.52
484.92	2.41
485.121	2.32
485.322	2.11
485.524	2.29
485.725	2.31
485.926	2.37
486.127	2.13
486.329	1.68
486.53	1.92
486.731	1.96
486.932	1.83
487.134	1.9
487.335	1.96
487.536	2.18
487.737	2.01
487.938	2.28
488.139	2.03
488.341	2.09
488.542	2.26
488.743	2.05
488.944	1.94
489.145	2.42
489.346	2.28
489.547	2.17
489.748	1.91
489.949	1.82
490.15	1.6
490.351	2.06
490.552	2.08
490.753	2.12
490.954	2.39
491.155	2.72
491.356	2.8
491.557	2.91
491.758	3.21
491.959	3.51
492.159	3.76
492.36	3.73
492.561	3.85
492.762	3.83
492.963	4.71
493.164	4.37
493.364	4.12
493.565	3.83
493.766	4.22
493.967	4.2
494.167	3.79
494.368	3.65
494.569	3.66
494.769	3.85
494.97	4.53
495.171	4.21
495.371	4.21
495.572	4.75
495.773	4.88
495.973	4.57
496.174	4.58
496.375	5.16
496.575	5.69
496.776	6.2
496.976	6.11
497.177	5.71
497.377	5.66
497.578	5.8
497.778	5.88
497.979	5.98
498.179	6.33
498.38	6.54
498.58	6.07
498.78	5.99
498.981	5.56
499.181	5.34
499.382	5.95
499.582	5.69
499.782	6.19
499.983	5.96
500.183	5.85
500.383	6.02
500.584	5.75
500.784	6.34
500.984	6.18
501.184	6.56
501.385	6.54
501.585	5.61
501.785	6.07
501.985	6.2
502.185	5.73
502.386	6.46
502.586	6.43
502.786	6.25
502.986	6.6
503.186	7.45
503.386	7.37
503.586	7.3
503.786	7.34
503.987	7.16
504.187	6.71
504.387	7.1
504.587	6.92
504.787	6.92
504.987	7.67
505.187	7.47
505.387	7.25
505.587	7.15
505.786	7.7
505.986	7.83
506.186	8.21
506.386	8.87
506.586	8.85
506.786	8.14
506.986	7.62
507.186	7.3
507.386	6.82
507.585	6.37
507.785	6.01
507.985	6
508.185	6.4
508.384	5.87
508.584	5.08
508.784	4.83
508.984	5.22
509.183	5.53
509.383	5.52
509.583	5.87
509.782	5.58
509.982	5.64
510.182	5.37
510.381	5.11
510.581	5.02
510.781	5.11
510.98	5.62
511.18	5.19
511.379	5.29
511.579	4.98
511.778	4.9
511.978	5.41
512.177	5.42
512.377	5.5
512.576	5.78
512.776	6.43
512.975	6.94
513.175	6.74
513.374	7.01
513.573	7.04
513.773	7.79
513.972	8.13
514.172	7.77
514.371	8.48
514.57	8.33
514.77	8.37
514.969	8.17
515.168	7.87
515.367	7.7
515.567	7.73
515.766	7.31
515.965	6.49
516.164	6.4
516.364	6.38
516.563	6.4
516.762	6.03
516.961	5.82
517.16	5.56
517.359	5.39
517.559	5.32
517.758	5.3
517.957	5.67
518.156	6.27
518.355	6.02
518.554	5.98
518.753	5.97
518.952	6.34
519.151	6.38
519.35	6.8
519.549	6.82
519.748	7.3
519.947	7.49
520.146	7.03
520.345	6.71
520.544	6.92
520.743	7.06
520.942	7.13
521.141	7.14
521.339	7.37
521.538	7.05
521.737	7.25
521.936	7.44
522.135	7.16
522.333	8.05
522.532	7.99
522.731	8.03
522.93	7.9
523.129	7.7
523.327	7.48
523.526	7.36
523.725	7.42
523.923	7.55
524.122	6.96
524.321	6.83
524.519	6.44
524.718	6.57
524.917	6.44
525.115	6.69
525.314	6.64
525.512	6.74
525.711	6.61
525.909	6.48
526.108	5.99
526.306	5.96
526.505	6.08
526.703	5.95
526.902	5.86
527.1	5.85
527.299	5.59
527.497	5.38
527.696	5.34
527.894	5.31
528.092	5.35
528.291	5.37
528.489	5.4
528.688	5.44
528.886	5.29
529.084	5.47
529.283	5.72
529.481	5.99
529.679	6.22
529.877	6.21
530.076	6.46
530.274	6.6
530.472	6.8
530.67	7.06
530.869	6.88
531.067	7.13
531.265	6.87
531.463	6.61
531.661	6.5
531.859	6.37
532.057	6.59
532.255	6.12
532.454	6.01
532.652	6.06
532.85	6.01
533.048	6.18
533.246	6.33
533.444	6.37
533.642	6.48
533.84	6.48
534.038	6.89
534.236	6.29
534.434	6.64
534.632	6.89
534.83	7.29
535.027	7.39
535.225	7.49
535.423	7.19
535.621	7.36
535.819	7.48
536.017	7.3
536.215	7.41
536.412	7.92
536.61	8.54
536.808	8.59
537.006	8.49
537.203	8.24
537.401	8.49
537.599	9.23
537.797	9.16
537.994	9.32
538.192	9.89
538.39	9.66
538.587	9.64
538.785	9.35
538.983	9.01
539.18	8.51
539.378	8.28
539.575	7.88
539.773	7.62
539.97	7.61
540.168	7.44
540.366	7.71
540.563	7.55
540.761	7.68
540.958	7.77
541.155	7.86
541.353	8.28
541.55	8.68
541.748	8.86
541.945	8.89
542.143	9.3
542.34	9.47
542.537	9.15
542.735	9.39
542.932	9.29
543.129	9.21
543.327	9.24
543.524	9.25
543.721	9.09
543.919	9.44
544.116	9.33
544.313	8.66
544.51	8.6
544.708	8.78
544.905	8.73
545.102	9.25
545.299	8.92
545.496	9.01
545.693	9
545.891	9.07
546.088	9.02
546.285	9.32
546.482	9.65
546.679	9.66
546.876	10.05
547.073	10.42
547.27	10.61
547.467	10.98
547.664	11.17
547.861	11.06
548.058	11.44
548.255	11.76
548.452	12.27
548.649	12.57
548.846	12.89
549.043	12.62
549.24	12.66
549.437	12.66
549.633	12.67
549.83	13.49
550.027	13.84
550.224	13.85
550.421	13.83
550.618	13.62
550.814	13.69
551.011	13.48
551.208	13.48
551.405	13.78
551.601	14.28
551.798	14.44
551.995	13.77
552.191	14.07
552.388	14.43
552.585	14.45
552.781	14.48
552.978	14.55
553.175	14.88
553.371	15.37
553.568	15.37
553.764	14.84
553.961	15.15
554.157	15.65
554.354	15.39
554.55	15.63
554.747	15.43
554.943	15.42
555.14	15.98
555.336	16.04
555.533	16.45
555.729	16.51
555.926	16.25
556.122	16.39
556.318	16.41
556.515	17.73
556.711	17.64
556.907	17.84
557.104	18.16
557.3	17.34
557.496	17.96
557.693	16.57
557.889	16.07
558.085	16.44
558.281	16.49
558.478	16.41
558.674	15.75
558.87	15.73
559.066	15.44
559.262	15.5
559.459	15.95
559.655	15.62
559.851	16.09
560.047	16.87
560.243	17.11
560.439	17.57
560.635	16.7
560.831	16.65
561.027	16.84
561.223	17.85
561.419	17.66
561.615	17.58
561.811	17.55
562.007	17.61
562.203	17.67
562.399	17.05
562.595	16.41
562.791	17.4
562.987	17.47
563.183	16.65
563.379	16
563.575	15.93
563.771	15.99
563.966	15.44
564.162	16.02
564.358	15.32
564.554	15.94
564.75	15.82
564.945	15.65
565.141	15.77
565.337	16.22
565.533	16.38
565.728	16.86
565.924	17.38
566.12	18.43
566.315	18.41
566.511	18.58
566.707	18.76
566.902	19.21
567.098	19.65
567.293	19.38
567.489	20.23
567.684	20.76
567.88	19.97
568.076	19.23
568.271	18.91
568.467	18.57
568.662	18.79
568.858	18.4
569.053	18.58
569.248	17.91
569.444	17.51
569.639	16.74
569.835	16.73
570.03	17.02
570.225	17.58
570.421	17.15
570.616	17.06
570.812	17.33
571.007	17.75
571.202	17.41
571.397	17.32
571.593	17.65
571.788	17.29
571.983	16.8
572.178	16.8
572.374	16.74
572.569	17.25
572.764	17.69
572.959	17.35
573.154	16.68
573.35	16.35
573.545	16.82
573.74	16.83
573.935	17.47
574.13	17.55
574.325	17.59
574.52	17.82
574.715	17.37
574.91	16.96
575.105	17.27
575.3	17.66
575.495	18.02
575.69	18.91
575.885	19.38
576.08	19.2
576.275	19.32
576.47	19.74
576.665	19.28
576.86	20.12
577.055	20.71
577.25	21.17
577.444	21.38
577.639	21.98
577.834	20.93
578.029	21
578.224	22.15
578.418	22.32
578.613	23
578.808	23.05
579.003	23.5
579.197	22.8
579.392	23.07
579.587	23.24
579.781	23.3
579.976	23.85
580.171	23.06
580.365	22.37
580.56	22.44
580.755	21.44
580.949	21.59
581.144	20.76
581.338	21.17
581.533	20.47
581.727	20.12
581.922	19.86
582.116	19.9
582.311	20.54
582.505	20.53
582.7	21.06
582.894	21.72
583.089	21.72
583.283	21.67
583.478	21.24
583.672	21.47
583.866	21.14
584.061	20.55
584.255	20.1
584.449	20.46
584.644	20.28
584.838	19.19
585.032	19.19
585.226	19.29
585.421	19.16
585.615	19.3
585.809	18.78
586.003	19.86
586.198	20.64
586.392	20.91
586.586	20.73
586.78	21.04
586.974	21.61
587.168	20.95
587.363	20.93
587.557	20.88
587.751	20.54
587.945	21.33
588.139	21.04
588.333	21.95
588.527	22.66
588.721	22.47
588.915	22.76
589.109	23.02
589.303	23.39
589.497	23.7
589.691	23.95
589.885	25
590.079	24.94
590.273	24.86
590.466	23.3
590.66	22.85
590.854	22.46
591.048	23.02
591.242	22.76
591.436	22.43
591.629	22
591.823	21.88
592.017	21.39
592.211	20.59
592.404	21.09
592.598	21.89
592.792	21.72
592.986	22.13
593.179	21.14
593.373	20.73
593.567	20.81
593.76	21.58
593.954	21.9
594.147	22.28
594.341	22.72
594.535	22.04
594.728	21.77
594.922	21.75
595.115	21.59
595.309	21.73
595.502	21.85
595.696	22
595.889	21.4
596.083	21.31
596.276	21.15
596.47	21.12
596.663	21.32
596.856	21.48
597.05	21.21
597.243	21.58
597.437	21.65
597.63	21.43
597.823	22.17
598.017	22.51
598.21	23.17
598.403	22.96
598.596	23.33
598.79	24.16
598.983	24.76
599.176	25.33
599.369	25.75
599.563	25.71
599.756	26.3
599.949	25.56
600.142	25.31
600.335	25.09
600.528	25.15
600.722	25.13
600.915	24.84
601.108	24.51
601.301	24.26
601.494	23.43
601.687	23.36
601.88	23.25
602.073	22.6
602.266	22.26
602.459	21.01
602.652	20.75
602.845	20.39
603.038	19.36
603.231	19.56
603.424	19.49
603.617	19.85
603.809	19.32
604.002	19.23
604.195	19.95
604.388	20.22
604.581	20.79
604.774	21.45
604.966	22.04
605.159	22.56
605.352	22.63
605.545	23.52
605.737	23.6
605.93	24.21
606.123	24.93
606.316	25.08
606.508	25.38
606.701	26.28
606.894	26.26
607.086	26
607.279	26.15
607.471	25.97
607.664	25.07
607.857	24.37
608.049	24.87
608.242	24.7
608.434	24.11
608.627	23.51
608.819	23.01
609.012	22.52
609.204	22.61
609.397	22.68
609.589	22.78
609.782	23.32
609.974	23.96
610.166	23.17
610.359	24.02
610.551	24.98
610.743	25.53
610.936	25.22
611.128	25.68
611.32	25.5
611.513	26.16
611.705	26.91
611.897	26.32
612.09	26.81
612.282	26.88
612.474	26.15
612.666	25.77
612.858	25.98
613.051	27.51
613.243	27.61
613.435	28.26
613.627	27.29
613.819	26.8
614.011	28.46
614.203	27.88
614.395	28.88
614.588	29.57
614.78	29.41
614.972	30.49
615.164	29.82
615.356	30.42
615.548	30.28
615.74	31.17
615.932	31
616.124	30.64
616.315	31.28
616.507	30.68
616.699	28.57
616.891	28.19
617.083	27.3
617.275	27.39
617.467	27.18
617.659	27.77
617.85	27.79
618.042	27.3
618.234	26.64
618.426	26.58
618.618	26.33
618.809	27.45
619.001	28.04
619.193	28.41
619.384	28.08
619.576	28.51
619.768	27.57
619.959	27.36
620.151	26.84
620.343	27.05
620.534	27.15
620.726	28.05
620.917	28.31
621.109	28.34
621.301	28.4
621.492	27.73
621.684	26.53
621.875	26.38
622.067	25.65
622.258	25.72
622.45	26.86
622.641	26.52
622.832	26.87
623.024	26.8
623.215	27.07
623.407	26.2
623.598	26.68
623.789	27.26
623.981	26.75
624.172	26.85
624.363	27.32
624.555	26.16
624.746	25.73
624.937	25.27
625.129	25.52
625.32	24.83
625.511	24.94
625.702	24.8
625.893	24.44
626.085	24.84
626.276	24.91
626.467	25.19
626.658	25.29
626.849	26.32
627.04	25.46
627.231	25.5
627.422	25.91
627.614	25.59
627.805	25.26
627.996	25.26
628.187	25.18
628.378	24.64
628.569	24.16
628.76	24.38
628.951	24.29
629.142	24.76
629.332	24.16
629.523	23.99
629.714	24.52
629.905	25.28
630.096	24.88
630.287	25.56
630.478	27.1
630.669	26.93
630.859	25.94
631.05	25.51
631.241	26.17
631.432	26.19
631.623	27.5
631.813	27.51
632.004	27.1
632.195	27.35
632.385	26.5
632.576	26.21
632.767	26.58
632.957	27.71
633.148	27.42
633.339	27.21
633.529	27.82
633.72	26.46
633.91	25.94
634.101	26.15
634.292	27.67
634.482	28.21
634.673	28.52
634.863	28.77
635.054	29.6
635.244	29.72
635.435	29.35
635.625	29.25
635.815	29.04
636.006	30.57
636.196	30.48
636.387	29.18
636.577	29.92
636.767	29.41
636.958	29.87
637.148	28.19
637.338	28.22
637.529	28.62
637.719	28.99
637.909	30.93
638.099	30.19
638.29	31.33
638.48	31.58
638.67	31.61
638.86	32.17
639.05	31.23
639.241	33.31
639.431	33.4
639.621	34.11
639.811	33.82
640.001	34.1
640.191	34.55
640.381	34.32
640.571	36.16
640.761	35.81
640.951	34.92
641.141	35.92
641.331	33.72
641.521	34.14
641.711	33.68
641.901	34.19
642.091	33.12
642.281	32.35
642.471	31.73
642.661	31.06
642.851	31.98
643.041	33.32
643.231	32.63
643.42	33.39
643.61	33.01
643.8	33.73
643.99	32.78
644.18	32.76
644.369	33.02
644.559	32.98
644.749	32.01
644.939	30.63
645.128	29.14
645.318	27.71
645.508	27.26
645.697	27.17
645.887	26.76
646.076	26.22
646.266	25.5
646.456	24.71
646.645	26.18
646.835	26.74
647.024	26.34
647.214	26.31
647.403	27.62
647.593	28.2
647.782	28.86
647.972	27.49
648.161	28.74
648.351	28.92
648.54	29.26
648.73	28.08
648.919	27.83
649.108	29.6
649.298	30.76
649.487	31.36
649.677	31.71
649.866	32.74
650.055	32.94
650.244	33.23
650.434	33.43
650.623	34.57
650.812	34.87
651.002	35.01
651.191	33.47
651.38	32.46
651.569	31.91
651.758	31.86
651.947	30.63
652.137	31.33
652.326	31.03
652.515	31.98
652.704	31.2
652.893	32.76
653.082	32.92
653.271	34.1
653.46	34.99
653.649	36.02
653.838	34.78
654.027	34.38
654.216	33.45
654.405	33.61
654.594	33.46
654.783	33.48
654.972	30.83
655.161	30.77
655.35	30.6
655.539	29.18
655.728	29.6
655.916	30.66
656.105	30.01
656.294	31.31
656.483	30.66
656.672	28.95
656.86	29.01
657.049	30.6
657.238	30.11
657.427	28.83
657.615	29.52
657.804	28.21
657.993	26.86
658.181	28.25
658.37	27.6
658.559	27.54
658.747	28.37
658.936	27.33
659.125	28.27
659.313	28.17
659.502	28.23
659.69	27.99
659.879	28.94
660.067	30.89
660.256	30.09
660.444	29.65
660.633	30.08
660.821	30.3
661.01	32.35
661.198	31.44
661.387	31.42
661.575	34.15
661.763	35.16
661.952	35.04
662.14	35.42
662.328	36.35
662.517	37.6
662.705	37.74
662.893	37.92
663.082	36.79
663.27	34.75
663.458	35.73
663.646	33.32
663.834	33.45
664.023	33.81
664.211	32.66
664.399	34.15
664.587	34.48
664.775	33.8
664.963	33.77
665.152	35.47
665.34	37.36
665.528	36.71
665.716	37.98
665.904	36.53
666.092	36.33
666.28	37.44
666.468	35.63
666.656	35.08
666.844	37.35
667.032	37.74
667.22	36.1
667.408	35.64
667.596	36.5
667.784	35.66
667.971	37.44
668.159	37.24
668.347	36.82
668.535	37.36
668.723	38.23
668.911	36.17
669.098	36.06
669.286	36.69
669.474	37.93
669.662	36.74
669.849	38.08
670.037	37.99
670.225	37.85
670.413	37.73
670.6	38.03
670.788	37.4
670.976	37.76
671.163	38.45
671.351	38.49
671.538	38.38
671.726	39.43
671.913	38.05
672.101	38.55
672.289	38.97
672.476	38.07
672.664	37.17
672.851	38.28
673.039	38.22
673.226	37.71
673.413	38.07
673.601	37.28
673.788	37.39
673.976	38.19
674.163	37.5
674.35	36.62
674.538	36.94
674.725	35.95
674.912	35.37
675.1	35.8
675.287	35.98
675.474	35.41
675.662	34.6
675.849	34.21
676.036	33.51
676.223	33.14
676.411	33.56
676.598	33.38
676.785	34.53
676.972	34
677.159	34.38
677.346	32.71
677.533	34.09
677.721	33.73
677.908	33.09
678.095	33.21
678.282	32.57
678.469	31.83
678.656	31.55
678.843	31.29
679.03	31.38
679.217	31.21
679.404	31.97
679.591	31.1
679.778	31.01
679.964	31.91
680.151	31.15
680.338	33.37
680.525	34.77
680.712	35.67
680.899	36.88
681.086	36.92
681.272	35.35
681.459	35.22
681.646	35.83
681.833	36.63
682.02	36.36
682.206	37.36
682.393	36.8
682.58	36.34
682.766	37.5
682.953	35.98
683.14	35.56
683.326	38.58
683.513	39
683.7	40.73
683.886	40.87
684.073	41.05
684.259	42.69
684.446	41.29
684.632	40.83
684.819	39.55
685.005	39.89
685.192	40.58
685.378	40.03
685.565	38.13
685.751	35.59
685.938	35.97
686.124	35.38
686.31	33.27
686.497	33.42
686.683	34.56
686.87	34.5
687.056	33.95
687.242	33.89
687.429	33.29
687.615	34.61
687.801	35.42
687.987	34.22
688.174	35.03
688.36	35.84
688.546	35.64
688.732	34.83
688.918	35.34
689.105	35.02
689.291	33.89
689.477	33.94
689.663	35.07
689.849	36.07
690.035	37.52
690.221	38.62
690.407	41.17
690.593	42.87
690.779	41.36
690.965	42.52
691.151	43
691.337	44.66
691.523	44.08
691.709	43.3
691.895	44.11
692.081	43.54
692.267	42.33
692.453	40.21
692.639	38.96
692.825	40.64
693.011	38.38
693.196	39.85
693.382	37.12
693.568	38.11
693.754	39.54
693.94	37.42
694.125	37.01
694.311	36.87
694.497	36.7
694.682	35.97
694.868	36.59
695.054	36.2
695.239	36.76
695.425	38.06
695.611	36.97
695.796	34.81
695.982	33.88
696.168	33.82
696.353	34.17
696.539	33.5
696.724	33.09
696.91	31.93
697.095	32.42
697.281	30.64
697.466	31.51
697.652	31.83
697.837	32.65
698.023	31.73
698.208	31.99
698.393	30.64
698.579	31.06
698.764	31.19
698.949	31.92
699.135	30.77
699.32	32.3
699.505	31.39
699.691	30.67
699.876	29.41
700.061	31.22
700.246	32.04
700.432	33.24
700.617	33.77
700.802	35.95
700.987	36.93
701.172	39.16
701.358	37.22
701.543	36.13
701.728	36.52
701.913	38.01
702.098	39.01
702.283	40.71
702.468	42.71
702.653	42.12
702.838	41.94
703.023	39.82
703.208	40.29
703.393	44.33
703.578	46.05
703.763	46.52
703.948	47.82
704.133	47.84
704.318	46.47
704.503	47.54
704.688	48.89
704.873	46.55
705.057	49.91
705.242	51.04
705.427	50.47
705.612	48.81
705.797	48.34
705.981	47.9
706.166	49.81
706.351	47.44
706.536	43.96
706.72	43.32
706.905	46.47
707.09	44.7
707.274	43.86
707.459	41.25
707.644	41.7
707.828	41.14
708.013	41.98
708.197	37.71
708.382	38.43
708.567	39
708.751	40.11
708.936	37.86
709.12	38.26
709.305	35.83
709.489	36.39
709.673	39.36
709.858	39.15
710.042	37.98
710.227	41.78
710.411	42.55
710.596	42.22
710.78	40.83
710.964	41.99
711.149	42.98
711.333	44.18
711.517	44.32
711.702	41.81
711.886	41.38
712.07	41.65
712.254	40.02
712.438	38.81
712.623	40.82
712.807	41.33
712.991	42.26
713.175	39.45
713.359	39.98
713.544	40.69
713.728	41.39
713.912	42.61
714.096	41.95
714.28	43.44
714.464	45.46
714.648	43.25
714.832	42.55
715.016	41.44
715.2	40.03
715.384	39.91
715.568	39.44
715.752	38.49
715.936	39.44
716.12	41.8
716.304	41.21
716.488	39.07
716.671	41.91
716.855	41.15
717.039	40.27
717.223	43.64
717.407	42.7
717.59	43.29
717.774	41.53
717.958	40.86
718.142	40.09
718.325	38.64
718.509	40.42
718.693	37.13
718.877	37.44
719.06	38.09
719.244	40.45
719.428	42.92
719.611	42.98
719.795	46.43
719.978	49.01
720.162	48.35
720.345	48.39
720.529	50.37
720.713	51.99
720.896	53.72
721.08	53.96
721.263	51.42
721.446	50.94
721.63	50.61
721.813	51.71
721.997	49.68
722.18	49.9
722.364	51.06
722.547	48.51
722.73	50.62
722.914	47.89
723.097	48.59
723.28	49.63
723.464	50.15
723.647	48.68
723.83	48.36
724.013	48.33
724.197	48.54
724.38	45.74
724.563	46.48
724.746	44.64
724.929	49.47
725.112	49.3
725.296	48.11
725.479	47.75
725.662	49.72
725.845	50.34
726.028	49.6
726.211	48.84
726.394	50.08
726.577	50.8
726.76	50.2
726.943	46.73
727.126	47.9
727.309	47.59
727.492	46.31
727.675	45.69
727.858	46.02
728.041	46.77
728.224	46.67
728.407	48.49
728.589	50.41
728.772	50.96
728.955	53.26
729.138	49.37
729.321	47.01
729.503	46.21
729.686	48.27
729.869	45.4
730.052	46.19
730.234	47.49
730.417	47.08
730.6	44.62
730.782	42.64
730.965	39.63
731.148	41.44
731.33	47.01
731.513	46.52
731.695	47.13
731.878	47.51
732.061	48.72
732.243	48.41
732.426	47.52
732.608	48.36
732.791	50.7
732.973	50.92
733.156	49.97
733.338	50.76
733.52	52.4
733.703	50.45
733.885	49.53
734.068	48.81
734.25	49.67
734.432	48.59
734.615	47.44
734.797	51.53
734.979	53.06
735.162	57.26
735.344	53.38
735.526	52.27
735.708	53.42
735.891	58
736.073	57.2
736.255	56.27
736.437	56.81
736.619	58.25
736.802	54.54
736.984	57.8
737.166	58.43
737.348	60.34
737.53	61.74
737.712	60.64
737.894	58
738.076	57.4
738.258	57.37
738.44	57.7
738.622	55.11
738.804	53.75
738.986	52.61
739.168	52.08
739.35	53.93
739.532	53.23
739.714	54.35
739.896	53.54
740.078	53.87
740.259	55.36
740.441	56.34
740.623	56.84
740.805	57.03
740.987	54.78
741.168	53.05
741.35	47.08
741.532	48.61
741.714	48.75
741.895	51.31
742.077	52.54
742.259	52.93
742.44	53.14
742.622	55.12
742.804	57.55
742.985	64.1
743.167	64.6
743.348	68.69
743.53	71.49
743.711	67.12
743.893	68.41
744.075	68.65
744.256	64.86
744.438	69.59
744.619	69.57
744.8	72.04
744.982	66.35
745.163	68.73
745.345	70.33
745.526	72.71
745.707	73.14
745.889	72.88
746.07	71.32
746.252	75.05
746.433	69
746.614	67.23
746.795	65.32
746.977	63.65
747.158	63.41
747.339	60.71
747.52	58.92
747.702	61.67
747.883	57.65
748.064	59.05
748.245	61.7
748.426	65.33
748.607	68.28
748.788	69
748.97	70.28
749.151	68.62
749.332	72.17
749.513	72.71
749.694	72.87
749.875	75.01
750.056	72.93
750.237	68.53
750.418	65.79
750.599	61.83
750.78	59.86
750.96	61.34
751.141	61.41
751.322	60.84
751.503	57.64
751.684	57.19
751.865	58.95
752.046	61.03
752.226	62.19
752.407	67.86
752.588	71.34
752.769	73.38
752.949	75.61
753.13	72.51
753.311	74.51
753.492	78.47
753.672	79.02
753.853	74.65
754.034	76.64
754.214	78.32
754.395	72.52
754.575	71.06
754.756	68.66
754.937	67.36
755.117	72.62
755.298	73.62
755.478	71.21
755.659	70.7
755.839	73.65
756.02	69.79
756.2	66.27
756.381	68.39
756.561	65.74
756.741	69.44
756.922	69.34
757.102	67.21
757.283	63.55
757.463	66.55
757.643	66.77
757.823	64.38
758.004	64
758.184	68.48
758.364	66.33
758.545	67.59
758.725	64.82
758.905	60.7
759.085	58.87
759.265	60.87
759.446	57.81
759.626	57.46
759.806	60.7
759.986	60.73
760.166	59.59
760.346	61.71
760.526	62.59
760.706	61.95
760.886	63.57
761.066	62.97
761.246	61.24
761.426	59.45
761.606	56.76
761.786	53.93
761.966	51.04
762.146	46.7
762.326	45.68
762.506	42.92
762.686	42.45
762.866	43.17
763.046	44.46
763.225	43.34
763.405	42.94
763.585	45.06
763.765	45.57
763.945	48.52
764.124	53.71
764.304	54.24
764.484	58.99
764.664	61.05
764.843	59.38
765.023	66.89
765.203	60.67
765.382	60.26
765.562	59.77
765.741	62.9
765.921	63.9
766.101	63.93
766.28	62.69
766.46	61.48
766.639	64.56
766.819	68.72
766.998	62.71
767.178	68.05
767.357	72.25
767.537	71.72
767.716	73.65
767.896	72.37
768.075	69.05
768.254	72.92
768.434	80.22
768.613	82.85
768.792	84.45
768.972	81.49
769.151	83.08
769.33	82.15
769.51	85.24
769.689	86.7
769.868	90.87
770.047	97.36
770.226	94.53
770.406	91.17
770.585	81.24
770.764	75.49
770.943	76.89
771.122	79.49
771.301	78.7
771.48	82.16
771.66	81.35
771.839	81.88
772.018	78.04
772.197	82.64
772.376	88.75
772.555	110.75
772.734	116.14
772.913	117.19
773.092	120.03
773.271	121.91
773.449	117.28
773.628	115.38
773.807	107.3
773.986	106.52
774.165	105.22
774.344	97.38
774.523	89.15
774.701	83.95
774.88	89.37
775.059	90.45
775.238	92.6
775.417	90.99
775.595	93.29
775.774	100.69
775.953	100
776.131	101.15
776.31	100.91
776.489	100.56
776.667	101.3
776.846	97.57
777.025	97.51
777.203	98.03
777.382	98.3
777.56	102.94
777.739	99.71
777.917	108.08
778.096	105.06
778.274	107.17
778.453	109.29
778.631	116.14
778.81	113.47
778.988	115.13
779.166	107.54
779.345	108.38
779.523	109.93
779.702	112.37
779.88	105.6
780.058	109.51
780.237	111.98
780.415	104.32
780.593	105.27
780.771	103.24
780.95	103.28
781.128	107.05
781.306	107.6
781.484	103.66
781.662	100.58
781.841	114.82
782.019	112.9
782.197	106.63
782.375	119.58
782.553	127.1
782.731	130.19
782.909	142.07
783.087	146.25
783.265	152.02
783.443	137.91
783.621	149.6
783.799	124.54
783.977	129.37
784.155	132.06
784.333	134.26
784.511	127.98
784.689	119.38
784.867	105.97
785.045	104.38
785.223	97.56
785.4	98.84
785.578	86.31
785.756	88.25
785.934	87.18
786.112	91.43
786.289	77.44
786.467	76.02
786.645	79.48
786.823	82.36
787	81.55
787.178	80.55
787.356	84.76
787.533	95.18
787.711	100.67
787.889	95.76
788.066	99.59
788.244	112.76
788.421	107.37
788.599	100.09
788.776	100.47
788.954	93.84
789.131	93.57
789.309	91.47
789.486	89.25
789.664	87.13
789.841	95.52
790.019	88.04
790.196	89.1
790.373	88.8
790.551	96.86
790.728	95.02
790.906	103.81
791.083	108.14
791.26	111.67
791.437	110.48
791.615	116.1
791.792	110.02
791.969	126.29
792.146	128.71
792.324	124.92
792.501	137.16
792.678	132.35
792.855	126.96
793.032	120.28
793.209	122.82
793.387	121.93
793.564	114.95
793.741	109.13
793.918	98.94
794.095	99.48
794.272	105.71
794.449	92.21
794.626	100.05
794.803	103.99
794.98	113.34
795.157	99.3
795.334	104.39
795.511	105.98
795.688	114.18
795.864	118.93
796.041	112.65
796.218	112.17
796.395	117.66
796.572	123.3
796.749	142.7
796.925	135.99
797.102	146.99
797.279	152.37
797.456	159.57
797.632	161.98
797.809	156.29
797.986	156.72
798.162	163.59
798.339	156.49
798.516	134.55
798.692	117.75
798.869	122.63
799.046	126.95
799.222	123.56
799.399	116.32
799.575	114.35
799.752	110.93
799.928	114.09
800.105	111.7
800.281	122.54
800.458	130.6
800.634	149
800.811	147.39
800.987	136.34
801.163	136.24
801.34	151.85
801.516	148.15
801.692	156
801.869	152.4
802.045	143.56
802.221	121.28
802.398	127.33
802.574	112.62
802.75	114.21
802.926	113.17
803.103	108.03
803.279	105.67
803.455	109.06
803.631	104.42
803.807	115.15
803.983	122.09
804.16	137.65
804.336	148.24
804.512	132.32
804.688	118.34
804.864	134.41
805.04	143.51
805.216	143.24
805.392	147.37
805.568	157.32
805.744	141.22
805.92	125.1
806.096	121.46
806.272	116.05
806.448	120.39
806.623	146.98
806.799	137.11
806.975	135.85
807.151	137.44
807.327	135.9
807.503	133.76
807.678	140.34
807.854	153.55
808.03	153.44
808.206	134.19
808.381	130.99
808.557	114.33
808.733	110.61
808.908	114.27
809.084	117.81
809.26	114.35
809.435	113.55
809.611	108.28
809.787	110.61
809.962	107.94
810.138	115.96
810.313	130.97
810.489	134.95
810.664	135.61
810.84	131.4
811.015	138.18
811.191	136.73
811.366	157.08
811.542	168.35
811.717	176.51
811.892	183.16
812.068	191.72
812.243	195.79
812.419	199.1
812.594	210.93
812.769	195.45
812.944	186.14
813.12	181.71
813.295	140.13
813.47	137.78
813.645	145.2
813.821	122.9
813.996	112.92
814.171	107.45
814.346	99.39
814.521	103.51
814.697	120.79
814.872	133.65
815.047	131.35
815.222	135.25
815.397	128.67
815.572	146.36
815.747	148.38
815.922	146.49
816.097	161.08
816.272	170.18
816.447	183.5
816.622	156.9
816.797	149.1
816.972	160.57
817.147	163.52
817.322	155.13
817.496	142.87
817.671	155.18
817.846	159.3
818.021	141.6
818.196	131.33
818.371	123.46
818.545	116.99
818.72	107.24
818.895	94.83
819.069	94.19
819.244	90.66
819.419	77.66
819.594	74.04
819.768	61.87
819.943	53.18
820.117	46.33
820.292	43.15
820.467	42.68
820.641	38.33
820.816	35.75
820.99	33.49
821.165	32.41
821.339	32.34
821.514	31.23
821.688	32.46
821.863	32.79
822.037	32.96
822.212	32.39
822.386	31.46
822.56	34.21
822.735	36.49
822.909	40.06
823.084	43.72
823.258	45.49
823.432	48.73
823.606	49.27
823.781	52.61
823.955	58.53
824.129	63.74
824.303	67.89
824.478	65.96
824.652	66.87
824.826	64.54
825	65.31
825.174	64.17
825.348	63.79
825.523	62.65
825.697	61.82
825.871	59.67
826.045	56.63
826.219	56.59
826.393	56.63
826.567	58.4
826.741	59.91
826.915	58.67
827.089	64.87
827.263	70.61
827.437	75.58
827.611	77.39
827.784	82.15
827.958	92.18
828.132	101.53
828.306	113.78
828.48	119.24
828.654	123.37
828.827	138.16
829.001	129.2
829.175	126.74
829.349	132.79
829.522	133.74
829.696	139.91
829.87	136.83
830.044	127.63
830.217	135.29
830.391	144.72
830.565	139.01
830.738	129.19
830.912	135.19
831.085	130.09
831.259	113.95
831.432	110.06
831.606	101.85
831.779	89.37
831.953	86.2
832.126	71.66
832.3	63.16
832.473	63.39
832.647	68.56
832.82	64.83
832.994	61.76
833.167	65.16
833.34	69.04
833.514	73.66
833.687	72.41
833.86	79.13
834.034	90.89
834.207	94.35
834.38	97.9
834.553	94.94
834.727	99.86
834.9	108.49
835.073	111.88
835.246	121.58
835.419	122.92
835.593	138.59
835.766	140.11
835.939	134.66
836.112	131.21
836.285	133.55
836.458	138.47
836.631	160.3
836.804	171.84
836.977	170.91
837.15	172.91
837.323	170.55
837.496	177.46
837.669	180.82
837.842	184.96
838.015	215.76
838.188	192.52
838.361	178.79
838.533	161.85
838.706	167.75
838.879	175.21
839.052	180.11
839.225	184.71
839.398	177.15
839.57	160.21
839.743	156.41
839.916	150.45
840.088	159.09
840.261	168.94
840.434	167.58
840.607	152.79
840.779	168.83
840.952	147.42
841.124	146.69
841.297	147.93
841.47	153.18
841.642	164.55
841.815	204.91
841.987	226.46
842.16	229.57
842.332	245.9
842.505	272.37
842.677	281.91
842.85	252.46
843.022	259.95
843.194	309.61
843.367	329.38
843.539	279.74
843.712	305.53
843.884	296.82
844.056	327.12
844.229	400.53
844.401	393
844.573	422
844.745	843.62
844.918	813.02
845.09	1098.53
845.262	9020
845.434	-5379.17
845.606	2373.58
845.779	5773.91
845.951	1032.09
846.123	854.32
846.295	595.44
846.467	340.28
846.639	360.9
846.811	295.58
846.983	265.14
847.155	262.78
847.327	290.92
847.499	272.92
847.671	257.51
847.843	298.46
848.015	253.82
848.187	319.75
848.359	407.1
848.531	789.93
848.703	1107.14
848.875	589.43
849.047	382.38
849.218	508.81
849.39	537.92
849.562	360.15
849.734	392.58
849.905	542.38
850.077	740.24
850.249	388.61
850.421	279.74
850.592	304.96
850.764	379.06
850.936	394.22
851.107	370.32
851.279	316.74
851.451	413.24
851.622	290.91
851.794	253.26
851.965	212.18
852.137	268.79
852.308	278.04
852.48	301.37
852.651	247.97
852.823	323.82
852.994	323.27
853.166	364.18
853.337	330.17
853.509	313.46
853.68	331.08
853.851	410.68
854.023	412.32
854.194	502.92
854.365	362.5
854.537	389.54
854.708	257.1
854.879	223.8
855.05	196.53
855.222	194.01
855.393	241.76
855.564	200.38
855.735	185.78
855.906	217.42
856.078	222.4
856.249	224.33
856.42	239.67
856.591	356.89
856.762	380.98
856.933	644.69
857.104	507.02
857.275	461.68
857.446	582.14
857.617	424.82
857.788	266.1
857.959	284.17
858.13	335.48
858.301	285.49
858.472	276.53
858.643	299.59
858.814	341.5
858.985	352.7
859.155	278.46
859.326	297.28
859.497	415.06
859.668	565.05
859.839	475.68
860.009	562.12
860.18	662.5
860.351	578.09
860.522	691.98
860.692	838.54
860.863	1160.54
861.034	4281.58
861.204	2144
861.375	1277.1
861.546	11307.14
861.716	3167.35
861.887	777.21
862.057	577.81
862.228	585.96
862.398	515.87
862.569	379.01
862.739	360.61
862.91	451.3
863.08	580.97
863.251	708.7
863.421	598.73
863.592	437.29
863.762	1169.7
863.932	11123.08
864.103	1075
864.273	1562.38
864.443	-845.12
864.614	-744.38
864.784	-2175.81
864.954	6436.36
865.125	763.29
865.295	501.53
865.465	725.58
865.635	658.87
865.805	664.81
865.976	35180
866.146	1356.55
866.316	592.53
866.486	495.02
866.656	699.34
866.826	847.7
866.996	757.09
867.166	780.8
867.336	931.86
867.506	740.93
867.676	653.48
867.846	616.01
868.016	705.1
868.186	1022.11
868.356	1520.47
868.526	882.87
868.696	544.08
868.866	639.79
869.036	1145.03
869.206	884.54
869.376	612.88
869.545	728.88
869.715	536.16
869.885	444.63
870.055	377.17
870.224	459.77
870.394	673.73
870.564	859.47
870.734	565.42
870.903	569.26
871.073	467.97
871.243	537.31
871.412	496.86
871.582	520.54
871.751	568.41
871.921	432.88
872.091	491.01
872.26	346.92
872.43	360.23
872.599	466.04
872.769	380.29
872.938	504.73
873.108	597.08
873.277	484.36
873.446	400.2
873.616	378.71
873.785	511.08
873.955	330.56
874.124	485.16
874.293	420.56
874.463	486.4
874.632	531.96
874.801	585.9
874.971	371.33
875.14	505.15
875.309	354.37
875.478	371.29
875.647	294.56
875.817	263.25
875.986	262.09
876.155	226.07
876.324	221.19
876.493	198.73
876.662	177.04
876.831	207.46
877	154.62
877.17	201.42
877.339	229.5
877.508	262.21
877.677	349.91
877.846	294.42
878.015	288.81
878.184	273.1
878.352	252.15
878.521	255.7
878.69	236.73
878.859	355.06
879.028	249.72
879.197	248.3
879.366	213.07
879.534	167.62
879.703	147.9
879.872	149.3
880.041	126.41
880.21	125.15
880.378	99.26
880.547	95.53
880.716	86.3
880.884	84.85
881.053	75.52
881.222	73.31
881.39	69.83
881.559	74.27
881.727	76.63
881.896	79.97
882.065	82.09
882.233	98.03
882.402	99.34
882.57	107.52
882.739	112.92
882.907	110.75
883.076	111.26
883.244	126.54
883.412	147.89
883.581	141.85
883.749	186.88
883.918	227.64
884.086	293.21
884.254	442.09
884.423	452.74
884.591	447.1
884.759	1281.9
884.927	6340.91
885.096	-3991.89
885.264	-2583.93
885.432	1315.62
885.6	994.19
885.769	690.08
885.937	1222.39
886.105	533.13
886.273	552.65
886.441	468.51
886.609	350
886.777	304.42
886.945	332.92
887.113	377.24
887.281	584.77
887.449	486.99
887.617	780.15
887.785	550.13
887.953	579.6
888.121	540.9
888.289	1554.21
888.457	7761.9
888.625	-3447.73
888.793	-5316.67
888.961	870.06
889.129	1004.17
889.296	2610.42
889.464	629.63
889.632	733.77
889.8	950
889.967	3061.29
890.135	841.76
