Data from JASIL_3286_Reflection_1.txt Node
Date: Tue Nov 17 19:34:54 EST 2015
User: Geneva
Spectrometer: USB4E03002
Autoset integration time: false
Trigger mode: 4
Integration Time (sec): 1.000000E-1
Scans to average: 10
Electric dark correction enabled: false
Nonlinearity correction enabled: false
Boxcar width: 5
Stray light correction enabled: false
XAxis mode: Wavelengths
Stop averaging: false
Number of Pixels in Spectrum: 3648
>>>>>Begin Spectral Data<<<<<
177.575	122.77
177.794	255.43
178.014	360.67
178.233	641.51
178.452	596.67
178.672	299.21
178.891	463.79
179.11	-3420
179.33	-763.04
179.549	-615.69
179.768	2581.82
179.987	-155.3
180.207	-44.67
180.426	-80.82
180.645	-58.4
180.864	-841.18
181.084	-30.72
181.303	-62.05
181.522	-47.13
181.741	8.43
181.96	-2.02
182.179	-1135.29
182.398	254.55
182.618	56.72
182.837	1.43
183.056	-19.67
183.275	-33.33
183.494	23.14
183.713	10.78
183.932	14.49
184.151	40.44
184.37	30.16
184.589	3.29
184.808	38.04
185.027	53.8
185.246	49.03
185.465	53.62
185.684	36.21
185.903	13.27
186.122	-16.67
186.341	-69.91
186.56	-54.17
186.779	-362.96
186.998	-0.53
187.216	-70.56
187.435	-46.06
187.654	78.18
187.873	59.82
188.092	178.21
188.311	112.14
188.53	139.67
188.748	47.71
188.967	51.85
189.186	86.07
189.405	121.76
189.623	73.13
189.842	37.99
190.061	42.51
190.28	53.48
190.498	37.55
190.717	74.12
190.936	94.02
191.154	256.59
191.373	419.54
191.592	-620.93
191.81	-262.14
192.029	-405.26
192.248	-205.39
192.466	-224.31
192.685	-66.32
192.904	-177.72
193.122	-141.39
193.341	-151.68
193.559	-289.83
193.778	-265.75
193.996	-172.04
194.215	-650.72
194.433	-327.86
194.652	-278.32
194.87	-223.75
195.089	-247.69
195.307	-1015.79
195.526	690.82
195.744	413.67
195.963	255.33
196.181	338.02
196.399	440.23
196.618	-475
196.836	-131.21
197.055	-84.46
197.273	-91.04
197.491	-158.56
197.71	23.41
197.928	47.68
198.146	17.47
198.365	-602.38
198.583	-136.51
198.801	181.45
199.019	96.8
199.238	131.03
199.456	128.42
199.674	116.27
199.892	125.85
200.111	121.83
200.329	109.68
200.547	120.19
200.765	-180.39
200.983	293.16
201.202	-268.42
201.42	-22.5
201.638	-7.94
201.856	-105.13
202.074	-249.33
202.292	-55.36
202.51	-56.16
202.728	-93.55
202.946	-1592.86
203.165	-921.15
203.383	-92.06
203.601	-165.99
203.819	-260.91
204.037	1033.33
204.255	862.96
204.473	238.46
204.691	172.94
204.909	169.91
205.127	425
205.345	-45.45
205.562	225.58
205.78	134.75
205.998	116.67
206.216	123.24
206.434	110.73
206.652	147.09
206.87	183.23
207.088	226.19
207.306	131.79
207.523	133.03
207.741	115.34
207.959	61.26
208.177	56.48
208.395	56.37
208.612	6.94
208.83	58.51
209.048	35.86
209.266	64.92
209.483	47.74
209.701	76.01
209.919	78.13
210.136	85.06
210.354	92.54
210.572	117.39
210.79	114.67
211.007	248.59
211.225	1273.33
211.442	-466.1
211.66	-424
211.878	50.17
212.095	491.62
212.313	766.95
212.53	499.05
212.748	440.24
212.966	329.28
213.183	373.93
213.401	-3933.33
213.618	-206.75
213.836	-196.25
214.053	-228.9
214.271	-126.92
214.488	199.11
214.705	228.45
214.923	200.59
215.14	171.31
215.358	138.98
215.575	131.83
215.793	119.84
216.01	199.05
216.227	240.52
216.445	213.19
216.662	220.26
216.879	213.91
217.097	142.44
217.314	195.33
217.531	-3700
217.749	-232.67
217.966	-80.77
218.183	-58.13
218.4	-205.81
218.618	-288.82
218.835	-163.45
219.052	-138.97
219.269	-91.25
219.487	13.81
219.704	9.77
219.921	-21.85
220.138	-32.18
220.355	-24.64
220.572	-39.63
220.79	-21.65
221.007	-21.56
221.224	-46.77
221.441	-35.98
221.658	-63.68
221.875	1517.14
222.092	529.55
222.309	-887.88
222.526	-181.21
222.743	-107.25
222.96	-124.46
223.177	-479.07
223.394	-344.74
223.611	-130.07
223.828	-36
224.045	-58.31
224.262	-13.07
224.479	-30.1
224.696	-99.04
224.913	-131.4
225.13	-186.79
225.347	-168.97
225.564	-52.23
225.781	-30.72
225.997	-23.57
226.214	-24.83
226.431	-29.04
226.648	-31.3
226.865	-18.54
227.082	-25.72
227.298	-14.66
227.515	-17.92
227.732	-15.56
227.949	-10.92
228.165	-9.75
228.382	-14.26
228.599	-14.44
228.816	-8.14
229.032	-5.63
229.249	-3.17
229.466	4.35
229.682	0.64
229.899	-1.75
230.116	6.52
230.332	-11.37
230.549	-9.22
230.765	-0.34
230.982	-5.76
231.199	-3.29
231.415	-7.74
231.632	-5.64
231.848	-33.09
232.065	-37.3
232.281	-22.37
232.498	-25.19
232.714	-20.39
232.931	-25.06
233.147	-25.04
233.364	-9.74
233.58	-21.34
233.797	-11.19
234.013	-27.85
234.23	6.61
234.446	13.29
234.662	10.89
234.879	-28.38
235.095	-20.38
235.312	-14.94
235.528	-7.52
235.744	-44.02
235.961	-9.6
236.177	-42.98
236.393	-59.37
236.61	-87.97
236.826	-61.01
237.042	-47.4
237.258	-47.17
237.475	-42.09
237.691	-76.35
237.907	-76
238.123	-33.93
238.339	-41.11
238.556	-32.36
238.772	-17.88
238.988	-9.06
239.204	-20.55
239.42	-11.97
239.636	-3.45
239.853	-0.26
240.069	5.26
240.285	5.32
240.501	4.54
240.717	0.95
240.933	2.55
241.149	2.61
241.365	2.38
241.581	1.58
241.797	3.34
242.013	4.42
242.229	2.67
242.445	-3.4
242.661	-5.94
242.877	-5.75
243.093	-1.13
243.309	-2.88
243.525	-3.47
243.741	1.15
243.957	4.07
244.173	-4.69
244.388	-4.51
244.604	-0.54
244.82	3.67
245.036	6.88
245.252	4.08
245.468	4.14
245.683	1.68
245.899	1.32
246.115	0.74
246.331	0.92
246.547	4.13
246.762	3.1
246.978	2.63
247.194	0.26
247.409	-1.42
247.625	-2.61
247.841	-6.36
248.057	-1.95
248.272	-1.77
248.488	-7.55
248.703	-10.58
248.919	-11.62
249.135	-9.81
249.35	-8.76
249.566	-2.48
249.782	0.54
249.997	-0.2
250.213	3.6
250.428	-0.85
250.644	-0.19
250.859	7.25
251.075	6.88
251.29	1.96
251.506	2.94
251.721	5.69
251.937	0.32
252.152	-1.63
252.368	-1.64
252.583	-1.63
252.798	1.4
253.014	3.28
253.229	-6.58
253.445	-4.93
253.66	-0.04
253.875	-6.03
254.091	-23.34
254.306	-13.87
254.521	-25.23
254.737	-26.43
254.952	-27.99
255.167	-35.16
255.383	-41.15
255.598	-33.16
255.813	-35.76
256.028	-36.86
256.244	-32.76
256.459	-22.11
256.674	-22.16
256.889	-16.55
257.104	-16.62
257.32	-17.37
257.535	-12
257.75	-7.41
257.965	-6.43
258.18	-4.38
258.395	-4.61
258.61	-3.24
258.826	-3.97
259.041	-3.84
259.256	-3.45
259.471	-2.93
259.686	-1.09
259.901	-0.9
260.116	-1.78
260.331	-1.04
260.546	-0.81
260.761	0.23
260.976	-0.72
261.191	0.8
261.406	-0.52
261.621	-2.43
261.836	-1.75
262.05	-3.62
262.265	-4.1
262.48	-5.34
262.695	-8.3
262.91	-14.16
263.125	-14.05
263.34	-21.2
263.555	-29.07
263.769	-34.48
263.984	-34.72
264.199	-28.42
264.414	-21.65
264.629	-20.41
264.843	-14.69
265.058	-15.69
265.273	-14.61
265.488	-12.03
265.702	-6.14
265.917	1.32
266.132	2.59
266.346	6.44
266.561	5.91
266.776	2.12
266.99	0.18
267.205	-2.41
267.42	-2.72
267.634	-0.71
267.849	-1.53
268.063	-5.49
268.278	-9.83
268.492	-7.16
268.707	-7.17
268.922	-5.51
269.136	-2.67
269.351	-2.38
269.565	-1.55
269.78	0.64
269.994	2.07
270.209	2.21
270.423	3.82
270.637	3.32
270.852	3.5
271.066	2.68
271.281	2.61
271.495	1.82
271.709	3.19
271.924	2.41
272.138	3.48
272.353	1.93
272.567	2.46
272.781	0.28
272.996	1.09
273.21	1.03
273.424	0.4
273.638	-1.61
273.853	-1.6
274.067	-2.96
274.281	-4.28
274.495	-4.89
274.71	-2.39
274.924	-5.13
275.138	-1.71
275.352	-0.03
275.566	-1.36
275.781	-1.62
275.995	-0.18
276.209	-0.45
276.423	1.13
276.637	1.06
276.851	-0.72
277.065	-2.55
277.279	-3.59
277.493	-5.51
277.707	-8.96
277.921	-6.63
278.135	-2.49
278.349	-5.05
278.563	-5.75
278.777	-9.85
278.991	-9.51
279.205	-8.06
279.419	-11.26
279.633	-8.88
279.847	-7.52
280.061	-5.32
280.275	-4.8
280.489	-8.4
280.703	-5.98
280.917	-3.77
281.131	-1.29
281.344	0.54
281.558	-1.09
281.772	0.84
281.986	1.99
282.2	0.67
282.414	0.22
282.627	-0.53
282.841	1.22
283.055	-0.87
283.269	-1.42
283.482	-2.3
283.696	-2.17
283.91	-0.68
284.123	0.15
284.337	1.12
284.551	2.36
284.764	1.99
284.978	2.3
285.192	0.49
285.405	0.39
285.619	0.67
285.833	2.46
286.046	1.89
286.26	1.54
286.473	2.12
286.687	0.87
286.9	1.99
287.114	3.22
287.327	2.65
287.541	3.39
287.754	4.43
287.968	4.73
288.181	3.02
288.395	4.09
288.608	6.02
288.822	5.98
289.035	6.14
289.248	4.92
289.462	3.64
289.675	3.31
289.889	5.29
290.102	4.62
290.315	3.86
290.529	5.28
290.742	3.82
290.955	2.9
291.169	3.29
291.382	2.47
291.595	2.01
291.808	4.21
292.022	3.87
292.235	2.95
292.448	4.64
292.661	6.23
292.875	4.65
293.088	7.01
293.301	5.91
293.514	3.17
293.727	2.09
293.94	1.34
294.153	0.08
294.367	1.55
294.58	0.69
294.793	-1.51
295.006	-3.56
295.219	-1.76
295.432	-3.25
295.645	-2.07
295.858	-0.46
296.071	0.62
296.284	1.53
296.497	2.03
296.71	2.28
296.923	2.45
297.136	3.27
297.349	4.87
297.562	3.81
297.775	2.64
297.988	1.06
298.201	-0.05
298.414	0.79
298.626	-0.28
298.839	-1.78
299.052	-1.87
299.265	-1.26
299.478	-0.05
299.691	-2.46
299.903	-3.39
300.116	-1.84
300.329	-2.89
300.542	-0.61
300.755	-2.16
300.967	-0.43
301.18	2.03
301.393	1.74
301.605	0.5
301.818	-0.24
302.031	2.37
302.243	3.59
302.456	4.25
302.669	4.89
302.881	2.81
303.094	4.85
303.307	5.18
303.519	4.55
303.732	4.44
303.944	6.12
304.157	8.32
304.37	8.06
304.582	8.66
304.795	7.86
305.007	9.56
305.22	11.01
305.432	9.2
305.645	9.09
305.857	7.26
306.069	5.72
306.282	5.09
306.494	2.81
306.707	3.45
306.919	3.39
307.132	4.2
307.344	3.2
307.556	2.28
307.769	1.14
307.981	1.23
308.193	1.92
308.406	2.48
308.618	1.7
308.83	2.11
309.043	0.23
309.255	-0.19
309.467	-0.06
309.679	-1.3
309.892	-0.04
310.104	1.41
310.316	1.94
310.528	2.39
310.74	2.19
310.953	2.53
311.165	1.29
311.377	4.51
311.589	5.04
311.801	4.67
312.013	3.33
312.225	1.74
312.437	1.19
312.649	-1.03
312.862	-0.28
313.074	-0.4
313.286	-0.75
313.498	-0.16
313.71	-4.9
313.922	-5.37
314.134	-5.86
314.346	-2.77
314.558	-2.22
314.77	-2.8
314.982	-1.06
315.193	-2.04
315.405	-2.4
315.617	-4.26
315.829	-3.43
316.041	-1.4
316.253	-3.36
316.465	-1.67
316.677	-2.68
316.888	-0.23
317.1	-0.31
317.312	0.29
317.524	0.43
317.736	1.87
317.947	5.31
318.159	6.61
318.371	7.78
318.583	7.74
318.794	6.53
319.006	8.28
319.218	6.43
319.43	8.18
319.641	7.75
319.853	8.8
320.064	9.15
320.276	8.99
320.488	7.56
320.699	6.33
320.911	7.55
321.123	9.28
321.334	6.73
321.546	5.83
321.757	6.75
321.969	7
322.18	6.54
322.392	5.8
322.603	5.14
322.815	5.31
323.026	4.53
323.238	3.47
323.449	1.12
323.661	3.03
323.872	3.62
324.083	1.89
324.295	1.29
324.506	-0.21
324.718	-1.7
324.929	-1.29
325.14	0.34
325.352	2.01
325.563	3.95
325.774	5.4
325.986	5.8
326.197	5.34
326.408	5.66
326.62	4.79
326.831	5.95
327.042	8.81
327.253	8.66
327.464	6.58
327.676	5.48
327.887	4.57
328.098	5.48
328.309	5.04
328.52	5.95
328.732	6.18
328.943	7.95
329.154	8.42
329.365	7.74
329.576	8.34
329.787	9.79
329.998	11.31
330.209	13.36
330.42	11.78
330.631	12.97
330.842	13.34
331.053	13.74
331.264	13.67
331.475	13.47
331.686	13.41
331.897	12.48
332.108	12.71
332.319	11.39
332.53	10.63
332.741	11.27
332.952	10.4
333.163	10.99
333.374	12.63
333.585	10.77
333.795	9.96
334.006	8.54
334.217	9.91
334.428	8.19
334.639	8.08
334.849	9.13
335.06	10.91
335.271	11.8
335.482	10.53
335.692	9.48
335.903	9.62
336.114	12.29
336.325	14.06
336.535	12.73
336.746	14.55
336.957	13.18
337.167	11.42
337.378	10.45
337.589	9.78
337.799	9.93
338.01	9.11
338.22	10.16
338.431	7.19
338.642	7.39
338.852	8.44
339.063	7.17
339.273	9.65
339.484	10.38
339.694	10.08
339.905	10.68
340.115	11.73
340.326	11.68
340.536	11.65
340.746	11.3
340.957	10.71
341.167	12.11
341.378	12.11
341.588	11.56
341.799	12.23
342.009	12.01
342.219	11.9
342.43	12.06
342.64	13.22
342.85	13.17
343.061	14.12
343.271	13.76
343.481	11.52
343.691	11.58
343.902	11.93
344.112	11.34
344.322	9.96
344.532	10.18
344.743	10.18
344.953	9.52
345.163	9.56
345.373	10.76
345.583	11.67
345.793	13.12
346.004	14.86
346.214	14.62
346.424	14.5
346.634	16.1
346.844	16.69
347.054	16.57
347.264	15.27
347.474	14.2
347.684	12.83
347.894	12.19
348.104	10.52
348.314	9.75
348.524	9.79
348.734	10.17
348.944	10.03
349.154	8.99
349.364	8.28
349.574	9.5
349.784	10.23
349.994	10.38
350.204	9.18
350.413	8.3
350.623	7.95
350.833	8.69
351.043	9.66
351.253	9.89
351.463	9.36
351.672	9.77
351.882	9.29
352.092	10.42
352.302	11.3
352.511	11.95
352.721	13.44
352.931	12.55
353.141	10.78
353.35	8.88
353.56	7.98
353.77	8.41
353.979	8.75
354.189	8.8
354.399	7.57
354.608	6.73
354.818	5.67
355.027	5.77
355.237	6.05
355.447	8.12
355.656	8.24
355.866	8.65
356.075	8.57
356.285	7.59
356.494	6.97
356.704	8.61
356.913	8.98
357.123	9.41
357.332	9.1
357.542	9.32
357.751	8.42
357.96	7.16
358.17	6.86
358.379	6.88
358.589	7.21
358.798	7.53
359.007	7.41
359.217	8.06
359.426	8.41
359.635	8.07
359.845	8.91
360.054	8.38
360.263	9.91
360.472	10.7
360.682	11.16
360.891	10.97
361.1	11.63
361.309	11.57
361.519	10.55
361.728	11.02
361.937	11.5
362.146	11.13
362.355	11.77
362.564	11.45
362.774	10.84
362.983	10.28
363.192	10.91
363.401	11.24
363.61	10.91
363.819	11.8
364.028	12.11
364.237	11.71
364.446	11.71
364.655	10.63
364.864	11.36
365.073	11.06
365.282	10.97
365.491	10.05
365.7	9.94
365.909	9.19
366.118	8.85
366.327	8.58
366.536	8.03
366.745	7.33
366.954	8.18
367.162	7.53
367.371	8.03
367.58	8.17
367.789	8.91
367.998	8.2
368.207	7.98
368.415	8.81
368.624	7.85
368.833	8.8
369.042	8.97
369.25	9.74
369.459	10.36
369.668	10.2
369.877	11.08
370.085	11.11
370.294	11.16
370.503	11.92
370.711	10.03
370.92	10.76
371.129	10.1
371.337	10.29
371.546	9.35
371.754	8.34
371.963	8.31
372.171	7.18
372.38	7.45
372.589	7.76
372.797	7.28
373.006	9.09
373.214	8.08
373.423	8.79
373.631	9.08
373.84	7.92
374.048	8.57
374.256	8.58
374.465	9.7
374.673	9.62
374.882	7.61
375.09	7.46
375.298	7.88
375.507	7.99
375.715	7.79
375.923	7.16
376.132	8.27
376.34	7.43
376.548	7.58
376.757	7.32
376.965	6.98
377.173	8.67
377.381	8.79
377.59	7.84
377.798	8.31
378.006	8.28
378.214	8.18
378.423	8
378.631	8.29
378.839	8.25
379.047	8.12
379.255	8.86
379.463	8.39
379.671	8.57
379.879	8.34
380.088	7.98
380.296	9.07
380.504	9.25
380.712	9.38
380.92	9.68
381.128	10.34
381.336	9.84
381.544	8.47
381.752	8.38
381.96	8.07
382.168	7.49
382.376	7.91
382.584	6.91
382.791	7.23
382.999	6.62
383.207	6.34
383.415	5.9
383.623	6.7
383.831	7.1
384.039	6.96
384.247	6.9
384.454	7.71
384.662	7.5
384.87	7.76
385.078	7.08
385.285	7.93
385.493	9.26
385.701	9.31
385.909	8.79
386.116	9.37
386.324	9.66
386.532	10.22
386.739	10.26
386.947	10.34
387.155	10.07
387.362	10.1
387.57	9.1
387.778	7.32
387.985	6.06
388.193	5.86
388.4	5.47
388.608	5.85
388.816	5.27
389.023	4.68
389.231	5.09
389.438	5.27
389.646	6.27
389.853	7.54
390.061	8.12
390.268	8.06
390.475	7.62
390.683	7.6
390.89	7.97
391.098	8.1
391.305	7.41
391.512	7.26
391.72	7.42
391.927	7.4
392.135	7.33
392.342	7.07
392.549	7.27
392.756	7.73
392.964	7.72
393.171	8.25
393.378	7.76
393.586	9.06
393.793	8.9
394	8.22
394.207	7.59
394.414	7.87
394.622	8.21
394.829	8.86
395.036	8.49
395.243	8.43
395.45	7.79
395.657	8.15
395.864	7.66
396.072	8.59
396.279	9.15
396.486	9.36
396.693	8.55
396.9	8.45
397.107	8.47
397.314	8.33
397.521	8.12
397.728	8.12
397.935	7.95
398.142	8.36
398.349	7.14
398.556	6.8
398.763	6.86
398.97	7.16
399.177	7.83
399.383	8.13
399.59	9.05
399.797	9.54
400.004	9.68
400.211	9.65
400.418	9.11
400.625	9.45
400.831	9.73
401.038	9.23
401.245	9.57
401.452	8.95
401.658	8.96
401.865	8.44
402.072	8.54
402.279	8.37
402.485	8.57
402.692	8.9
402.899	8.18
403.105	7.94
403.312	8.61
403.519	8.48
403.725	8.35
403.932	8.1
404.138	9.03
404.345	9.18
404.552	9.09
404.758	10.11
404.965	9.85
405.171	10.36
405.378	11.09
405.584	10.92
405.791	10.97
405.997	10.86
406.204	11.2
406.41	10.85
406.617	10.39
406.823	9.67
407.029	8.61
407.236	9.15
407.442	9.25
407.649	9.59
407.855	9.44
408.061	8.99
408.268	9.19
408.474	9.33
408.68	9.19
408.887	9.54
409.093	10.3
409.299	10.44
409.505	10.14
409.712	10.28
409.918	9.41
410.124	9.15
410.33	9
410.537	9.18
410.743	8.58
410.949	8.39
411.155	8.01
411.361	7.23
411.567	6.72
411.773	7.03
411.98	7.23
412.186	7.75
412.392	8.21
412.598	8.6
412.804	8.4
413.01	8.92
413.216	8.89
413.422	8.82
413.628	9.21
413.834	9.15
414.04	8.89
414.246	8.4
414.452	7.87
414.658	7.61
414.864	7.96
415.07	8.18
415.275	7.72
415.481	7.86
415.687	8.19
415.893	8.08
416.099	9.09
416.305	9.4
416.511	9.57
416.716	9.51
416.922	10.29
417.128	9.59
417.334	9.77
417.539	10.14
417.745	10.37
417.951	10.14
418.157	10.71
418.362	10.76
418.568	10.63
418.774	10.59
418.979	10.65
419.185	10.15
419.391	10.51
419.596	10.63
419.802	10.47
420.008	9.82
420.213	7.19
420.419	7.21
420.624	6.89
420.83	6.78
421.035	7
421.241	7.37
421.446	7.39
421.652	7.35
421.857	7.44
422.063	7.9
422.268	8.34
422.474	10.99
422.679	10.56
422.885	10.38
423.09	10.48
423.295	10.26
423.501	10.1
423.706	10.04
423.911	10.11
424.117	9.91
424.322	9.42
424.527	9.19
424.733	9.35
424.938	9.51
425.143	9.61
425.349	9.41
425.554	9.66
425.759	9.45
425.964	9.57
426.169	9.74
426.375	9.74
426.58	10.1
426.785	10.19
426.99	10.22
427.195	10.33
427.4	10.46
427.605	10.97
427.811	10.83
428.016	10.79
428.221	10.78
428.426	10.55
428.631	10.33
428.836	9.66
429.041	9.94
429.246	9.23
429.451	9.48
429.656	9.83
429.861	9.52
430.066	9.85
430.271	10.24
430.476	10.2
430.681	10.03
430.886	10.32
431.09	10.43
431.295	10.19
431.5	10.86
431.705	10.54
431.91	10.11
432.115	10.15
432.32	9.86
432.524	9.65
432.729	9.6
432.934	9.87
433.139	9.71
433.343	9.75
433.548	9.86
433.753	9.78
433.958	9.67
434.162	9.91
434.367	9.73
434.572	9.4
434.776	9.35
434.981	9.27
435.186	8.8
435.39	8.97
435.595	8.88
435.799	8.87
436.004	8.68
436.209	8.71
436.413	8.51
436.618	8.52
436.822	9.35
437.027	9.75
437.231	9.67
437.436	9.78
437.64	9.94
437.845	9.97
438.049	10.05
438.253	9.99
438.458	10.18
438.662	10.32
438.867	10.21
439.071	9.77
439.275	9.71
439.48	10.02
439.684	10.5
439.888	10.34
440.093	10.42
440.297	10.4
440.501	10.57
440.706	10.71
440.91	10.59
441.114	10.87
441.318	10.79
441.523	10.82
441.727	10.44
441.931	10.2
442.135	10.25
442.339	10.35
442.543	10.61
442.748	10.61
442.952	10.41
443.156	10.43
443.36	10.41
443.564	10.38
443.768	10.4
443.972	11
444.176	10.88
444.38	10.53
444.584	10.41
444.788	10.18
444.992	10.1
445.196	9.87
445.4	9.74
445.604	9.59
445.808	9.82
446.012	9.44
446.216	9.35
446.42	9.29
446.624	9.55
446.828	9.73
447.032	9.61
447.235	9.54
447.439	9.69
447.643	10.15
447.847	10.22
448.051	9.89
448.254	9.94
448.458	9.72
448.662	9.7
448.866	9.34
449.069	9.27
449.273	9.39
449.477	9.81
449.681	9.96
449.884	9.51
450.088	9.33
450.292	9.47
450.495	9.53
450.699	9.63
450.902	9.61
451.106	9.85
451.31	10.06
451.513	10.28
451.717	10.06
451.92	10
452.124	10.19
452.327	10.4
452.531	10.55
452.734	10.67
452.938	10.33
453.141	10.36
453.345	10.31
453.548	9.96
453.752	10.01
453.955	9.8
454.158	9.8
454.362	9.67
454.565	9.88
454.769	10.09
454.972	10.46
455.175	10.39
455.379	10.69
455.582	10.72
455.785	10.52
455.988	9.9
456.192	9.9
456.395	9.43
456.598	9.71
456.801	9.86
457.005	9.63
457.208	9.09
457.411	8.98
457.614	8.76
457.817	8.55
458.021	8.73
458.224	8.91
458.427	9.04
458.63	9.14
458.833	9.12
459.036	9.06
459.239	8.81
459.442	8.98
459.645	9.27
459.848	9.23
460.051	9.5
460.254	9.65
460.457	9.76
460.66	9.58
460.863	9.79
461.066	9.7
461.269	9.47
461.472	9.94
461.675	10.11
461.878	10.17
462.081	10.21
462.284	9.99
462.486	9.44
462.689	9.14
462.892	9.41
463.095	9.25
463.298	9.1
463.5	9.33
463.703	9.29
463.906	9.16
464.109	8.98
464.311	9.41
464.514	9.46
464.717	9.41
464.92	9.67
465.122	9.76
465.325	9.8
465.528	9.68
465.73	9.38
465.933	9.18
466.135	9.06
466.338	9.05
466.541	8.67
466.743	8.92
466.946	9.18
467.148	9.3
467.351	9.23
467.553	9.05
467.756	9.28
467.958	9.38
468.161	9.53
468.363	9.42
468.566	9.29
468.768	9.42
468.971	9.23
469.173	9.59
469.375	9.49
469.578	9.5
469.78	9.36
469.983	9.49
470.185	9.27
470.387	9.26
470.59	9.42
470.792	9.69
470.994	9.4
471.196	9.49
471.399	8.92
471.601	9.23
471.803	9.07
472.005	9.76
472.208	9.53
472.41	9.48
472.612	9.29
472.814	9.71
473.016	9.64
473.218	9.88
473.421	9.55
473.623	9.69
473.825	9.62
474.027	10.05
474.229	10.19
474.431	10.03
474.633	10.38
474.835	10.07
475.037	9.82
475.239	10.06
475.441	10.35
475.643	10.71
475.845	10.62
476.047	10.48
476.249	9.96
476.451	9.26
476.653	9.38
476.855	9.38
477.057	9.78
477.258	9.3
477.46	9.36
477.662	9.38
477.864	9.25
478.066	9.47
478.268	9.53
478.469	9.75
478.671	9.92
478.873	9.91
479.075	9.88
479.276	9.84
479.478	9.82
479.68	9.74
479.882	9.58
480.083	9.69
480.285	9.48
480.487	9.48
480.688	9.62
480.89	9.71
481.091	9.7
481.293	9.57
481.495	9.52
481.696	9.69
481.898	9.72
482.099	9.75
482.301	9.62
482.502	9.68
482.704	9.6
482.905	9.49
483.107	9.55
483.308	9.48
483.51	9.49
483.711	9.52
483.913	9.63
484.114	9.56
484.315	9.45
484.517	9.54
484.718	9.57
484.92	9.72
485.121	9.7
485.322	9.62
485.524	9.68
485.725	9.75
485.926	9.68
486.127	9.51
486.329	9.57
486.53	9.49
486.731	9.47
486.932	9.39
487.134	9.38
487.335	9.36
487.536	9.33
487.737	9.39
487.938	9.43
488.139	9.51
488.341	9.42
488.542	9.42
488.743	9.59
488.944	9.67
489.145	9.72
489.346	9.73
489.547	9.84
489.748	9.93
489.949	9.91
490.15	9.77
490.351	9.75
490.552	9.9
490.753	9.89
490.954	9.86
491.155	9.65
491.356	9.68
491.557	9.55
491.758	9.71
491.959	9.66
492.159	9.73
492.36	9.88
492.561	9.83
492.762	9.77
492.963	9.65
493.164	9.72
493.364	10.05
493.565	10.16
493.766	10.09
493.967	9.95
494.167	10.01
494.368	9.59
494.569	9.55
494.769	9.71
494.97	9.62
495.171	9.83
495.371	9.79
495.572	9.71
495.773	9.55
495.973	9.78
496.174	9.87
496.375	10.06
496.575	10.43
496.776	10.3
496.976	10.18
497.177	10.21
497.377	9.99
497.578	9.95
497.778	9.84
497.979	10.15
498.179	10.03
498.38	10.09
498.58	10.01
498.78	9.98
498.981	10.33
499.181	10.38
499.382	10.5
499.582	10.67
499.782	10.92
499.983	11.21
500.183	11.01
500.383	11.14
500.584	11.01
500.784	10.86
500.984	10.98
501.184	10.91
501.385	11.07
501.585	11.04
501.785	10.96
501.985	10.7
502.185	10.5
502.386	10.84
502.586	10.73
502.786	10.58
502.986	10.27
503.186	10.02
503.386	9.82
503.586	9.86
503.786	9.93
503.987	10.07
504.187	10.28
504.387	10.59
504.587	10.26
504.787	10.2
504.987	10.35
505.187	10.68
505.387	10.83
505.587	10.99
505.786	11.18
505.986	11.23
506.186	11.06
506.386	11.31
506.586	11.39
506.786	11.62
506.986	11.93
507.186	11.88
507.386	11.96
507.585	12.12
507.785	12.3
507.985	12.2
508.185	12.28
508.384	12.64
508.584	12.64
508.784	12.74
508.984	12.81
509.183	12.76
509.383	12.93
509.583	13.14
509.782	13.06
509.982	13.18
510.182	13.36
510.381	13.33
510.581	13.19
510.781	13.11
510.98	12.85
511.18	12.69
511.379	12.8
511.579	12.74
511.778	12.64
511.978	12.89
512.177	12.75
512.377	12.64
512.576	12.71
512.776	12.66
512.975	12.6
513.175	12.77
513.374	13.08
513.573	13.34
513.773	13.33
513.972	13.46
514.172	13.54
514.371	13.25
514.57	13.51
514.77	13.63
514.969	13.56
515.168	13.69
515.367	13.83
515.567	13.6
515.766	13.82
515.965	13.88
516.164	13.69
516.364	13.65
516.563	14.1
516.762	14.17
516.961	14.22
517.16	14.35
517.359	14.26
517.559	13.71
517.758	13.75
517.957	13.29
518.156	13.36
518.355	13.51
518.554	13.3
518.753	13.06
518.952	12.74
519.151	12.67
519.35	13.11
519.549	13.1
519.748	13.56
519.947	13.13
520.146	13.31
520.345	13.41
520.544	13.36
520.743	13.58
520.942	13.64
521.141	13.97
521.339	13.84
521.538	13.38
521.737	13.23
521.936	13.4
522.135	13.83
522.333	13.9
522.532	13.88
522.731	13.97
522.93	13.96
523.129	14.17
523.327	14.12
523.526	14.28
523.725	14.36
523.923	14.7
524.122	14.8
524.321	15.04
524.519	14.96
524.718	15.03
524.917	15.17
525.115	15.2
525.314	15.14
525.512	15.21
525.711	15.41
525.909	15.14
526.108	15.11
526.306	14.98
526.505	14.85
526.703	15
526.902	14.97
527.1	14.93
527.299	15.01
527.497	14.99
527.696	15.02
527.894	14.93
528.092	15.15
528.291	15.24
528.489	15.24
528.688	15.29
528.886	15.22
529.084	15.2
529.283	15.14
529.481	15.11
529.679	15.34
529.877	15.2
530.076	15.22
530.274	15.36
530.472	15.03
530.67	15.15
530.869	15.32
531.067	15.5
531.265	15.66
531.463	15.92
531.661	15.98
531.859	15.88
532.057	15.98
532.255	16.1
532.454	16.1
532.652	16.31
532.85	16.3
533.048	16.2
533.246	16.23
533.444	16.15
533.642	15.95
533.84	16.14
534.038	16.16
534.236	16.22
534.434	16.24
534.632	16.22
534.83	16.31
535.027	16.62
535.225	17
535.423	16.85
535.621	17.01
535.819	17.33
536.017	17.29
536.215	17.3
536.412	17.37
536.61	17.18
536.808	17.17
537.006	16.98
537.203	16.95
537.401	16.77
537.599	17
537.797	16.92
537.994	16.94
538.192	17.01
538.39	16.97
538.587	17.02
538.785	17.29
538.983	17.27
539.18	17.63
539.378	17.32
539.575	17.32
539.773	17.43
539.97	17.61
540.168	17.63
540.366	17.57
540.563	17.67
540.761	17.74
540.958	17.88
541.155	17.96
541.353	17.93
541.55	18.19
541.748	18.24
541.945	18.2
542.143	18.13
542.34	18.28
542.537	18.41
542.735	18.63
542.932	18.62
543.129	18.72
543.327	18.89
543.524	18.81
543.721	18.73
543.919	18.9
544.116	18.98
544.313	19.18
544.51	18.98
544.708	18.99
544.905	18.92
545.102	18.77
545.299	18.81
545.496	18.7
545.693	19.05
545.891	19.12
546.088	18.93
546.285	18.93
546.482	18.98
546.679	18.98
546.876	18.91
547.073	18.9
547.27	19.3
547.467	19.15
547.664	19.25
547.861	19.31
548.058	19.77
548.255	20.14
548.452	20.54
548.649	20.67
548.846	20.91
549.043	21.2
549.24	21.33
549.437	20.93
549.633	20.96
549.83	21.01
550.027	21.02
550.224	20.52
550.421	20.57
550.618	20.43
550.814	20.39
551.011	20.09
551.208	20.23
551.405	20.26
551.601	20.54
551.798	20.4
551.995	20.28
552.191	20.12
552.388	20.45
552.585	20.66
552.781	20.64
552.978	20.73
553.175	20.94
553.371	20.75
553.568	20.99
553.764	21.23
553.961	21.62
554.157	21.95
554.354	21.65
554.55	21.42
554.747	21.04
554.943	21.12
555.14	21.4
555.336	21
555.533	20.92
555.729	20.98
555.926	20.69
556.122	20.85
556.318	20.82
556.515	21.49
556.711	21.99
556.907	22.06
557.104	21.9
557.3	21.73
557.496	22.24
557.693	22.42
557.889	22.16
558.085	22.36
558.281	22.21
558.478	22.59
558.674	22.9
558.87	22.76
559.066	22.6
559.262	22.25
559.459	22.74
559.655	22.71
559.851	22.63
560.047	22.66
560.243	22.77
560.439	22.9
560.635	22.89
560.831	22.8
561.027	22.77
561.223	23.5
561.419	24.33
561.615	23.71
561.811	23.56
562.007	23.84
562.203	24.12
562.399	24
562.595	23.67
562.791	23.84
562.987	23.36
563.183	23.43
563.379	22.96
563.575	22.3
563.771	23.1
563.966	23.82
564.162	24.04
564.358	24.19
564.554	24.09
564.75	24.55
564.945	24.48
565.141	25.01
565.337	25.06
565.533	25.33
565.728	25.61
565.924	24.96
566.12	24.75
566.315	24.35
566.511	24.22
566.707	24.86
566.902	25.2
567.098	25.27
567.293	24.81
567.489	25.08
567.684	25
567.88	25.25
568.076	25.65
568.271	25.79
568.467	26.04
568.662	25.85
568.858	25.78
569.053	25.16
569.248	25.14
569.444	25.57
569.639	25.34
569.835	25.63
570.03	25.74
570.225	25.8
570.421	25.8
570.616	25.92
570.812	26.3
571.007	26.32
571.202	26.65
571.397	26.58
571.593	26.51
571.788	26.52
571.983	26.42
572.178	26.4
572.374	26.25
572.569	26.26
572.764	26.21
572.959	25.99
573.154	25.82
573.35	25.82
573.545	25.66
573.74	25.29
573.935	25.25
574.13	25.27
574.325	25.32
574.52	25.38
574.715	25.81
574.91	26.27
575.105	26.95
575.3	27.39
575.495	27.03
575.69	27.33
575.885	27.93
576.08	28.1
576.275	28.51
576.47	28.87
576.665	29.07
576.86	28.43
577.055	28.15
577.25	27.52
577.444	27.33
577.639	27.65
577.834	27.81
578.029	27.6
578.224	27.58
578.418	27.58
578.613	27.49
578.808	27.75
579.003	27.73
579.197	28.07
579.392	28.2
579.587	28.05
579.781	28.16
579.976	28.55
580.171	29.24
580.365	29.46
580.56	29.08
580.755	29.1
580.949	29
581.144	29.28
581.338	28.86
581.533	28.89
581.727	29.11
581.922	29.38
582.116	29.51
582.311	29.32
582.505	29.39
582.7	29.45
582.894	29.98
583.089	30.09
583.283	30.24
583.478	30.69
583.672	31.31
583.866	30.83
584.061	31.26
584.255	30.49
584.449	30.62
584.644	30.68
584.838	31.37
585.032	30.56
585.226	30.31
585.421	30.9
585.615	30.67
585.809	30.22
586.003	30.93
586.198	30.9
586.392	31.58
586.586	31.63
586.78	31.71
586.974	31.02
587.168	31.79
587.363	32.43
587.557	31.74
587.751	31.67
587.945	31.89
588.139	31.82
588.333	31.36
588.527	31.09
588.721	31.1
588.915	30.64
589.109	30.91
589.303	30.62
589.497	30.49
589.691	30.71
589.885	30.82
590.079	30.88
590.273	30.79
590.466	31.06
590.66	31.23
590.854	30.82
591.048	31.2
591.242	31.32
591.436	31.61
591.629	31.4
591.823	31.07
592.017	31.15
592.211	31.03
592.404	31.31
592.598	31.31
592.792	31.27
592.986	31.28
593.179	31.26
593.373	31.37
593.567	30.61
593.76	30.62
593.954	31.01
594.147	30.95
594.341	30.9
594.535	31.01
594.728	31.06
594.922	31.23
595.115	31.09
595.309	31.26
595.502	31.2
595.696	31.61
595.889	31.58
596.083	31.77
596.276	31.78
596.47	31.9
596.663	31.63
596.856	31.67
597.05	31.61
597.243	31.78
597.437	31.94
597.63	31.84
597.823	31.69
598.017	31.62
598.21	31.35
598.403	31.21
598.596	31.07
598.79	31.75
598.983	31.55
599.176	30.85
599.369	31.29
599.563	31.11
599.756	31.11
599.949	31.39
600.142	31.93
600.335	32.16
600.528	32.12
600.722	32.1
600.915	31.57
601.108	32.49
601.301	32.92
601.494	32.83
601.687	32.81
601.88	32.91
602.073	32.95
602.266	32.64
602.459	32.58
602.652	32.64
602.845	32.84
603.038	32.7
603.231	31.89
603.424	32.33
603.617	32.08
603.809	32.55
604.002	32.33
604.195	31.93
604.388	32.33
604.581	32.3
604.774	32.69
604.966	32.74
605.159	32.92
605.352	33.15
605.545	32.77
605.737	32.97
605.93	32.87
606.123	32.89
606.316	33.49
606.508	33.33
606.701	33.47
606.894	32.8
607.086	32.74
607.279	33
607.471	33.05
607.664	33.28
607.857	33.48
608.049	33.4
608.242	33.55
608.434	33.41
608.627	33.85
608.819	33.54
609.012	33.89
609.204	33.53
609.397	33.72
609.589	33.49
609.782	33.47
609.974	33.68
610.166	33.44
610.359	33.79
610.551	33.95
610.743	33.11
610.936	33.87
611.128	34.24
611.32	35.22
611.513	34.81
611.705	35.88
611.897	36.3
612.09	35.63
612.282	36.18
612.474	36.44
612.666	36.64
612.858	36.86
613.051	36.6
613.243	36.2
613.435	35.81
613.627	35.89
613.819	35.26
614.011	34.14
614.203	35
614.395	34.38
614.588	34.49
614.78	34.58
614.972	35.41
615.164	35.48
615.356	36.07
615.548	35.73
615.74	35.85
615.932	35.8
616.124	36.9
616.315	36.7
616.507	36.78
616.699	36.06
616.891	35.76
617.083	35.31
617.275	35.49
617.467	35.06
617.659	35.37
617.85	35.52
618.042	35.77
618.234	35.01
618.426	34.85
618.618	34.34
618.809	35.19
619.001	35.5
619.193	35.57
619.384	35.42
619.576	35.87
619.768	35.49
619.959	35.16
620.151	35
620.343	35.04
620.534	35.63
620.726	36.41
620.917	36.29
621.109	36.27
621.301	36.46
621.492	36.5
621.684	36.42
621.875	37.23
622.067	37.42
622.258	37.68
622.45	38.39
622.641	37.83
622.832	38.14
623.024	37.51
623.215	37.55
623.407	37.04
623.598	37.25
623.789	37.23
623.981	36.99
624.172	37.13
624.363	37.38
624.555	37
624.746	36.6
624.937	36.17
625.129	36.28
625.32	35.78
625.511	35.75
625.702	35.4
625.893	35.56
626.085	35.73
626.276	35.75
626.467	35.07
626.658	34.98
626.849	35.54
627.04	35.9
627.231	36.23
627.422	36.53
627.614	37.06
627.805	36.41
627.996	36.47
628.187	36.08
628.378	36.36
628.569	36.69
628.76	36.85
628.951	36.49
629.142	36.5
629.332	36.02
629.523	36.29
629.714	36.15
629.905	37.43
630.096	37.23
630.287	36.89
630.478	36.12
630.669	35.88
630.859	35.82
631.05	36.43
631.241	35.67
631.432	36.01
631.623	35.86
631.813	35.61
632.004	34.7
632.195	34.65
632.385	34.99
632.576	34.87
632.767	35.01
632.957	35.29
633.148	34.84
633.339	35.03
633.529	34.79
633.72	34.59
633.91	34.38
634.101	34.92
634.292	34.53
634.482	34.77
634.673	35.35
634.863	34.99
635.054	34.06
635.244	34.82
635.435	35.37
635.625	36.23
635.815	36.56
636.006	36.9
636.196	37.31
636.387	37.76
636.577	37.64
636.767	37.63
636.958	38.36
637.148	39.77
637.338	39.89
637.529	39.55
637.719	38.75
637.909	39.05
638.099	39.01
638.29	38.16
638.48	38.61
638.67	38.7
638.86	38.79
639.05	39
639.241	39.3
639.431	38.85
639.621	39.76
639.811	39.26
640.001	38.93
640.191	39.38
640.381	39.12
640.571	38.63
640.761	39.23
640.951	39.78
641.141	39.76
641.331	38.83
641.521	38.89
641.711	38.07
641.901	38.83
642.091	39.16
642.281	38.82
642.471	39.46
642.661	39.48
642.851	38.86
643.041	38.02
643.231	38.21
643.42	38.41
643.61	38.45
643.8	38.63
643.99	38.25
644.18	38.11
644.369	38.34
644.559	38.25
644.749	38.41
644.939	38.32
645.128	38.89
645.318	38.4
645.508	38.5
645.697	37.68
645.887	37.82
646.076	38.78
646.266	38.71
646.456	38.5
646.645	38.89
646.835	39.44
647.024	39.61
647.214	37.91
647.403	38.18
647.593	38.11
647.782	38.8
647.972	38.55
648.161	38.52
648.351	39.05
648.54	39.41
648.73	39.42
648.919	38.81
649.108	38.61
649.298	40.23
649.487	40.5
649.677	40.91
649.866	41.26
650.055	41.23
650.244	41.38
650.434	41.06
650.623	40.49
650.812	40.31
651.002	40.42
651.191	40.97
651.38	40.57
651.569	39.98
651.758	39.68
651.947	39.64
652.137	39.94
652.326	39.13
652.515	38.55
652.704	38.62
652.893	38.45
653.082	38.92
653.271	38.55
653.46	38.84
653.649	39.29
653.838	39.32
654.027	39.99
654.216	39.71
654.405	40.06
654.594	40.26
654.783	40.81
654.972	41.22
655.161	39.79
655.35	39.29
655.539	39.58
655.728	39.39
655.916	38.4
656.105	37.66
656.294	37.86
656.483	37.73
656.672	37.67
656.86	37.46
657.049	37.02
657.238	37.96
657.427	39.12
657.615	39.02
657.804	39.43
657.993	40.11
658.181	39.92
658.37	40.25
658.559	39.74
658.747	40.54
658.936	40.57
659.125	40.17
659.313	39.99
659.502	39.57
659.69	39.63
659.879	39.97
660.067	39.72
660.256	40.19
660.444	40.31
660.633	40.91
660.821	40.56
661.01	40.62
661.198	41.4
661.387	41.71
661.575	42.11
661.763	41.99
661.952	41.51
662.14	41.5
662.328	41.38
662.517	40.76
662.705	41.15
662.893	41.2
663.082	40.64
663.27	40.79
663.458	40.53
663.646	40.16
663.834	39.44
664.023	39.27
664.211	38.69
664.399	39.44
664.587	40.24
664.775	39.87
664.963	39.44
665.152	39.62
665.34	40.22
665.528	40.93
665.716	41.3
665.904	43.54
666.092	42.54
666.28	43.96
666.468	42.99
666.656	42.79
666.844	42.95
667.032	43.04
667.22	43.71
667.408	42.79
667.596	42.35
667.784	42.64
667.971	41.52
668.159	42.19
668.347	42.5
668.535	42.58
668.723	42.12
668.911	41.09
669.098	41.1
669.286	40.84
669.474	41.42
669.662	40.94
669.849	39.41
670.037	39.52
670.225	39.83
670.413	39.06
670.6	39.12
670.788	39.19
670.976	40.44
671.163	39.59
671.351	39.62
671.538	39.62
671.726	41.14
671.913	42.16
672.101	40.54
672.289	40.38
672.476	40.76
672.664	40.75
672.851	40.23
673.039	40.66
673.226	40.85
673.413	41.19
673.601	40.76
673.788	39.69
673.976	39.95
674.163	41.5
674.35	41.57
674.538	40.98
674.725	40.82
674.912	41.17
675.1	40.89
675.287	42.17
675.474	41.25
675.662	41.85
675.849	41.51
676.036	40.64
676.223	40.29
676.411	40.22
676.598	39.95
676.785	40.64
676.972	40.48
677.159	40.57
677.346	39.79
677.533	40.88
677.721	40.59
677.908	41.03
678.095	41.52
678.282	41.31
678.469	40.14
678.656	40.51
678.843	39.77
679.03	40.28
679.217	40.28
679.404	40.52
679.591	40.42
679.778	40.63
679.964	40.28
680.151	40.62
680.338	40.95
680.525	41.79
680.712	42.21
680.899	42.5
681.086	42.71
681.272	43.47
681.459	43.74
681.646	42.72
681.833	42.42
682.02	43.35
682.206	42.6
682.393	42.76
682.58	42.37
682.766	45.18
682.953	45.57
683.14	45.46
683.326	44.93
683.513	45.04
683.7	46.36
683.886	47.25
684.073	47.8
684.259	48.14
684.446	47.71
684.632	48.51
684.819	44.33
685.005	43.79
685.192	43.37
685.378	43.03
685.565	41.85
685.751	40.95
685.938	40.19
686.124	38.82
686.31	38.38
686.497	38.82
686.683	38.43
686.87	40.03
687.056	41.21
687.242	39.76
687.429	40.24
687.615	40.68
687.801	41.18
687.987	41.13
688.174	41.37
688.36	41.59
688.546	41.28
688.732	41.18
688.918	39.6
689.105	38.58
689.291	41
689.477	40.97
689.663	41.47
689.849	41.54
690.035	42.59
690.221	42.88
690.407	42.8
690.593	42.78
690.779	43
690.965	44.29
691.151	44.01
691.337	44.37
691.523	42.99
691.709	43.36
691.895	43.26
692.081	42.58
692.267	42.66
692.453	43.5
692.639	44.09
692.825	44.29
693.011	44.47
693.196	45.26
693.382	43.79
693.568	45.15
693.754	45.71
693.94	45.06
694.125	45.16
694.311	45.67
694.497	45.79
694.682	46.39
694.868	45.8
695.054	45.22
695.239	45.78
695.425	46.26
695.611	45.32
695.796	43.7
695.982	44.12
696.168	44.03
696.353	43.12
696.539	42.26
696.724	40.76
696.91	41.71
697.095	41.56
697.281	41.06
697.466	40.68
697.652	41.04
697.837	41.1
698.023	41.4
698.208	41.61
698.393	42.34
698.579	42.5
698.764	42.08
698.949	41.77
699.135	41.99
699.32	41.56
699.505	42.74
699.691	42.54
699.876	43.14
700.061	43.12
700.246	43.37
700.432	43.64
700.617	44.44
700.802	45.88
700.987	46.16
701.172	47.68
701.358	47.44
701.543	46.74
701.728	48.15
701.913	49.21
702.098	48.14
702.283	47.98
702.468	46.99
702.653	47.45
702.838	47.47
703.023	47.38
703.208	45.59
703.393	47.85
703.578	47.98
703.763	46.51
703.948	46.27
704.133	47.39
704.318	46.63
704.503	47.59
704.688	46.5
704.873	46.84
705.057	46.45
705.242	47.47
705.427	46.77
705.612	44.9
705.797	44.83
705.981	44.41
706.166	45.12
706.351	45.02
706.536	45.01
706.72	44.95
706.905	44.45
707.09	45.62
707.274	45.97
707.459	45.43
707.644	46.37
707.828	46.52
708.013	46.8
708.197	44.99
708.382	45.2
708.567	44.13
708.751	45.63
708.936	46.38
709.12	46.29
709.305	46.1
709.489	45.67
709.673	46.01
709.858	45.58
710.042	44.31
710.227	45.55
710.411	46.43
710.596	47.34
710.78	46.18
710.964	45.66
711.149	44.73
711.333	44.57
711.517	44.36
711.702	44.87
711.886	45.53
712.07	46.99
712.254	46.34
712.438	46.57
712.623	45.14
712.807	44.94
712.991	45.61
713.175	45.51
713.359	45.41
713.544	47.21
713.728	46.75
713.912	46.62
714.096	45.99
714.28	45.03
714.464	43.69
714.648	45.26
714.832	45.66
715.016	46.34
715.2	46.39
715.384	45.83
715.568	44.23
715.752	43.48
715.936	43.04
716.12	43.22
716.304	43.64
716.488	44.61
716.671	44.57
716.855	44.91
717.039	43.13
717.223	42.89
717.407	43.39
717.59	43.91
717.774	44.91
717.958	46.68
718.142	46.81
718.325	49
718.509	48.97
718.693	48.67
718.877	48.27
719.06	49.95
719.244	49.91
719.428	52.21
719.611	52.6
719.795	50.71
719.978	50.51
720.162	50.89
720.345	49.54
720.529	50.21
720.713	49.23
720.896	49.46
721.08	49.22
721.263	51.17
721.446	48.97
721.63	48.81
721.813	51.17
721.997	49.24
722.18	49.54
722.364	50.58
722.547	50.07
722.73	51.21
722.914	51.02
723.097	49.83
723.28	49.2
723.464	47.88
723.647	47.28
723.83	47.16
724.013	48.47
724.197	47.75
724.38	48.21
724.563	46.91
724.746	45.76
724.929	45.37
725.112	46.33
725.296	45.82
725.479	46.81
725.662	48.43
725.845	47.72
726.028	48.35
726.211	47.59
726.394	46.52
726.577	46.41
726.76	45.4
726.943	45.5
727.126	45.32
727.309	44.38
727.492	42.07
727.675	41.69
727.858	42.44
728.041	41.57
728.224	41.68
728.407	42.03
728.589	42.3
728.772	43.1
728.955	43.66
729.138	43.9
729.321	45.31
729.503	46.57
729.686	45.68
729.869	44.04
730.052	43.93
730.234	45.37
730.417	43.89
730.6	44.64
730.782	45.65
730.965	44.2
731.148	43.95
731.33	43.94
731.513	45.11
731.695	44.98
731.878	46.25
732.061	46.52
732.243	44.4
732.426	45.62
732.608	44.59
732.791	43.67
732.973	44.11
733.156	44.74
733.338	45.14
733.52	44.6
733.703	43.97
733.885	44.63
734.068	44.71
734.25	47.8
734.432	49.32
734.615	50.28
734.797	51.9
734.979	53.69
735.162	53.04
735.344	52.59
735.526	53.06
735.708	53.88
735.891	53.87
736.073	53.14
736.255	51.33
736.437	50.47
736.619	49.29
736.802	45.49
736.984	45.44
737.166	44.85
737.348	44.01
737.53	44.56
737.712	43.55
737.894	42.1
738.076	42.4
738.258	42.93
738.44	40.83
738.622	42.36
738.804	48.11
738.986	47.15
739.168	48.43
739.35	49
739.532	48.29
739.714	52.32
739.896	52.93
740.078	53.64
740.259	53.46
740.441	54.19
740.623	54.69
740.805	52.82
740.987	52.3
741.168	52.43
741.35	52.33
741.532	52.52
741.714	50.48
741.895	50.47
742.077	51.4
742.259	52.37
742.44	53.61
742.622	53.48
742.804	53.79
742.985	55.03
743.167	54.65
743.348	53.5
743.53	54.45
743.711	54.85
743.893	54.34
744.075	55
744.256	51.6
744.438	50.69
744.619	50.83
744.8	47.89
744.982	47.15
745.163	46.32
745.345	47.37
745.526	45.54
745.707	43.97
745.889	44.58
746.07	42.53
746.252	44.73
746.433	44.88
746.614	45.89
746.795	46.44
746.977	46.45
747.158	48.79
747.339	49.71
747.52	51.46
747.702	53.48
747.883	54.58
748.064	57.07
748.245	56.39
748.426	56.48
748.607	53.46
748.788	55.34
748.97	55.53
749.151	51.69
749.332	50.93
749.513	50.19
749.694	50.33
749.875	49.52
750.056	47.68
750.237	49.21
750.418	48.76
750.599	47.66
750.78	43.4
750.96	44.12
751.141	47.39
751.322	47.38
751.503	48.7
751.684	48.22
751.865	46.13
752.046	46.9
752.226	45.19
752.407	44.2
752.588	45.93
752.769	51.04
752.949	52.12
753.13	47.82
753.311	46.62
753.492	45.04
753.672	44.2
753.853	47.78
754.034	45.28
754.214	46.98
754.395	47.52
754.575	46.12
754.756	43.58
754.937	42.81
755.117	45.91
755.298	49
755.478	49.7
755.659	50.55
755.839	49.95
756.02	51.02
756.2	49.32
756.381	48.3
756.561	50.3
756.741	51.08
756.922	49.13
757.102	48.68
757.283	47.37
757.463	48.31
757.643	48.34
757.823	46.62
758.004	45.91
758.184	47.11
758.364	49.47
758.545	49.99
758.725	50.54
758.905	51.46
759.085	52.22
759.265	52.1
759.446	52.26
759.626	51.81
759.806	52.6
759.986	53.5
760.166	51.97
760.346	52.47
760.526	51.5
760.706	50.39
760.886	50.24
761.066	50.28
761.246	48.05
761.426	46.29
761.606	44.32
761.786	42.27
761.966	41.22
762.146	41.72
762.326	41.72
762.506	41.49
762.686	41.45
762.866	40.59
763.046	39.6
763.225	40.22
763.405	40.44
763.585	39.99
763.765	41.59
763.945	42.78
764.124	42.88
764.304	42.95
764.484	44.45
764.664	44.32
764.843	45.81
765.023	47
765.203	47.62
765.382	48.42
765.562	50.85
765.741	51.89
765.921	51.11
766.101	52.06
766.28	52.86
766.46	52.27
766.639	51.99
766.819	51.85
766.998	52.78
767.178	53.62
767.357	53.69
767.537	54.77
767.716	54.31
767.896	54.78
768.075	53.72
768.254	52.07
768.434	51.15
768.613	53.71
768.792	53.95
768.972	53.57
769.151	54.35
769.33	52.97
769.51	53.28
769.689	54.17
769.868	55.9
770.047	55.14
770.226	55.58
770.406	55.68
770.585	56.07
770.764	56.42
770.943	54.57
771.122	53.78
771.301	55.61
771.48	54.15
771.66	53.35
771.839	51.99
772.018	54.45
772.197	55.51
772.376	55.15
772.555	51.97
772.734	50.5
772.913	52.96
773.092	54.94
773.271	53.66
773.449	57
773.628	58.61
773.807	61.42
773.986	63.37
774.165	60.75
774.344	61.91
774.523	64.27
774.701	68.64
774.88	65.48
775.059	64.71
775.238	66.15
775.417	62.92
775.595	64.18
775.774	59.13
775.953	54.02
776.131	54.43
776.31	53.38
776.489	47.98
776.667	41.98
776.846	46.46
777.025	50.29
777.203	50.68
777.382	52.05
777.56	50.57
777.739	52.08
777.917	50.41
778.096	50.75
778.274	52.09
778.453	54.98
778.631	56.6
778.81	54.09
778.988	53.28
779.166	52.29
779.345	48.71
779.523	47.61
779.702	48.47
779.88	55.91
780.058	53.87
780.237	52.55
780.415	53
780.593	52.23
780.771	50.57
780.95	46.36
781.128	47.85
781.306	51.77
781.484	52.72
781.662	51.03
781.841	48.23
782.019	52.14
782.197	49.45
782.375	52.67
782.553	52.72
782.731	55.49
782.909	54.25
783.087	49.87
783.265	49.28
783.443	48.25
783.621	50.75
783.799	48.52
783.977	49.51
784.155	55.94
784.333	53.43
784.511	50.9
784.689	45.61
784.867	49.05
785.045	51.18
785.223	46.57
785.4	47.33
785.578	43.84
785.756	43.4
785.934	41.96
786.112	38.66
786.289	36.41
786.467	36.74
786.645	44.07
786.823	43.09
787	43.96
787.178	49.13
787.356	48.03
787.533	52.85
787.711	55.78
787.889	54.24
788.066	52.4
788.244	52.65
788.421	54.66
788.599	52.53
788.776	51.65
788.954	52.44
789.131	50.27
789.309	52.61
789.486	47.42
789.664	47.05
789.841	47.01
790.019	46.94
790.196	47.68
790.373	50.09
790.551	50.23
790.728	52.63
790.906	50.74
791.083	53.88
791.26	48.89
791.437	54.96
791.615	55.81
791.792	56.22
791.969	58.93
792.146	57.09
792.324	53.23
792.501	56.15
792.678	59.47
792.855	58.69
793.032	58.5
793.209	62.97
793.387	65.88
793.564	64.76
793.741	68.12
793.918	68.19
794.095	72.8
794.272	69.74
794.449	64.69
794.626	60.53
794.803	64.73
794.98	59.13
795.157	56.08
795.334	50.84
795.511	52.95
795.688	47.5
795.864	49.15
796.041	49.25
796.218	51.37
796.395	53.03
796.572	54.23
796.749	55.39
796.925	59.23
797.102	59.74
797.279	58.24
797.456	53.64
797.632	54.67
797.809	53.62
797.986	45.77
798.162	45.58
798.339	46.42
798.516	43.07
798.692	41.63
798.869	42.25
799.046	38.63
799.222	37.97
799.399	37.8
799.575	39.91
799.752	38.01
799.928	46.41
800.105	48.16
800.281	47.06
800.458	50.96
800.634	48.73
800.811	47.91
800.987	51.35
801.163	53.43
801.34	53.56
801.516	51.23
801.692	52.57
801.869	49.75
802.045	52.16
802.221	52.51
802.398	51.07
802.574	53.7
802.75	51.26
802.926	52.94
803.103	52.88
803.279	55.23
803.455	55.02
803.631	57.3
803.807	57.82
803.983	56.22
804.16	56.9
804.336	54.53
804.512	57.07
804.688	60.11
804.864	54.68
805.04	50.54
805.216	50
805.392	52.38
805.568	49.46
805.744	47.54
805.92	45.82
806.096	44.4
806.272	48.45
806.448	43.66
806.623	39.82
806.799	42.86
806.975	44.41
807.151	46.94
807.327	44.29
807.503	42.55
807.678	41.83
807.854	41.58
808.03	45.32
808.206	38.86
808.381	42.11
808.557	41.27
808.733	40.31
808.908	42.2
809.084	40.17
809.26	43.68
809.435	45.6
809.611	50.5
809.787	50.47
809.962	47.37
810.138	53.13
810.313	50.43
810.489	55.86
810.664	58.12
810.84	58.16
811.015	60.92
811.191	58.11
811.366	62.45
811.542	59.89
811.717	60.05
811.892	57.33
812.068	54.35
812.243	53.25
812.419	47.59
812.594	46.38
812.769	47.32
812.944	48.33
813.12	46.44
813.295	42.64
813.47	46.5
813.645	49.76
813.821	48.08
813.996	47.33
814.171	52.29
814.346	52.81
814.521	50.99
814.697	52.7
814.872	50.71
815.047	53.67
815.222	51.69
815.397	42.93
815.572	41.12
815.747	47.14
815.922	50.89
816.097	45.48
816.272	47.03
816.447	51.12
816.622	45.89
816.797	43.76
816.972	44.23
817.147	45.79
817.322	50.24
817.496	47.82
817.671	47.82
817.846	42.75
818.021	43.14
818.196	46.73
818.371	44.5
818.545	45.64
818.72	49.14
818.895	48.43
819.069	50.72
819.244	48.87
819.419	48.77
819.594	44.96
819.768	43.08
819.943	43
820.117	41.01
820.292	41.63
820.467	40.76
820.641	39.13
820.816	37.74
820.99	36.71
821.165	35.86
821.339	35.04
821.514	35.1
821.688	35.76
821.863	35.33
822.037	34.55
822.212	33.45
822.386	33.11
822.56	32.19
822.735	32.71
822.909	33.07
823.084	33.01
823.258	33.1
823.432	32.83
823.606	32.38
823.781	32.55
823.955	32.84
824.129	33.59
824.303	33.6
824.478	34.54
824.652	35.12
824.826	34.31
825	34.32
825.174	35.51
825.348	35.86
825.523	35.81
825.697	35.05
825.871	35.88
826.045	34.97
826.219	34.48
826.393	33.9
826.567	32.84
826.741	32.74
826.915	33.94
827.089	33.78
827.263	32.47
827.437	33.57
827.611	33.91
827.784	32.53
827.958	34.16
828.132	35.31
828.306	35.22
828.48	36.06
828.654	35.94
828.827	36.9
829.001	37.12
829.175	38.65
829.349	39.5
829.522	39.3
829.696	40.05
829.87	37.56
830.044	37.25
830.217	36.67
830.391	38.94
830.565	42.17
830.738	43.43
830.912	43
831.085	43.94
831.259	42.08
831.432	44.89
831.606	46.45
831.779	47.32
831.953	48.05
832.126	49.32
832.3	47.9
832.473	44.04
832.647	40.89
832.82	38.05
832.994	36.96
833.167	38.32
833.34	34.96
833.514	32.53
833.687	31.36
833.86	30.37
834.034	28.01
834.207	25.72
834.38	24.74
834.553	23.7
834.727	26.93
834.9	25.92
835.073	23.06
835.246	24.01
835.419	23.43
835.593	21.94
835.766	23.05
835.939	31.17
836.112	31.02
836.285	31.67
836.458	28.19
836.631	26.41
836.804	30.38
836.977	30.66
837.15	30.65
837.323	40.1
837.496	44.74
837.669	43.51
837.842	34.57
838.015	30.59
838.188	33.15
838.361	39.49
838.533	40.37
838.706	36.95
838.879	39.11
839.052	43.46
839.225	41.63
839.398	43.14
839.57	42.75
839.743	40.51
839.916	43.62
840.088	41.51
840.261	43.56
840.434	44.73
840.607	48.26
840.779	47.84
840.952	46.3
841.124	44.71
841.297	46.61
841.47	49.34
841.642	50.65
841.815	45.97
841.987	55.08
842.16	57.68
842.332	52.09
842.505	54.1
842.677	50.88
842.85	49
843.022	52.35
843.194	45.69
843.367	46.35
843.539	51.51
843.712	59.4
843.884	59.18
844.056	62.15
844.229	69.72
844.401	68.87
844.573	68.94
844.745	67.19
844.918	71.45
845.09	68.04
845.262	58.79
845.434	58.38
845.606	58.54
845.779	47.62
845.951	25.93
846.123	12.63
846.295	0.94
846.467	2.23
846.639	15.92
846.811	11.69
846.983	31.24
847.155	45.6
847.327	38.19
847.499	27.92
847.671	44.77
847.843	57.65
848.015	61.66
848.187	63.67
848.359	64.49
848.531	61.05
848.703	53.74
848.875	46.19
849.047	34.1
849.218	41.02
849.39	41.81
849.562	36.89
849.734	36.58
849.905	43.16
850.077	44.09
850.249	44.34
850.421	40.06
850.592	40.22
850.764	61.05
850.936	53.34
851.107	55.19
851.279	62.69
851.451	56.89
851.622	53.95
851.794	62.81
851.965	72.65
852.137	73.21
852.308	78.97
852.48	87.95
852.651	79.69
852.823	87.17
852.994	85.86
853.166	83.31
853.337	86.35
853.509	81.93
853.68	61.18
853.851	50.92
854.023	56.7
854.194	49.74
854.365	44.05
854.537	44.94
854.708	53.59
854.879	51.57
855.05	55.55
855.222	56.25
855.393	63.68
855.564	70.15
855.735	76
855.906	75.41
856.078	77.28
856.249	64.83
856.42	64.68
856.591	60.09
856.762	51.6
856.933	44.64
857.104	40.36
857.275	34.57
857.446	28.01
857.617	19.72
857.788	13.16
857.959	4.58
858.13	9.63
858.301	18.24
858.472	21.23
858.643	25.4
858.814	38.41
858.985	41.08
859.155	32.11
859.326	32.12
859.497	35.29
859.668	22.89
859.839	69.61
860.009	42.26
860.18	31.54
860.351	40.15
860.522	42.19
860.692	36.72
860.863	29.13
861.034	39.8
861.204	47.92
861.375	50.32
861.546	50.88
861.716	47.24
861.887	47.13
862.057	45.24
862.228	44.57
862.398	49.43
862.569	46.8
862.739	59.82
862.91	58.05
863.08	42.11
863.251	39.96
863.421	39.72
863.592	50.32
863.762	46.43
863.932	37.27
864.103	28.04
864.273	23.2
864.443	21.85
864.614	10.93
864.784	5.54
864.954	24.04
865.125	25.85
865.295	32.09
865.465	29.19
865.635	38.24
865.805	46.63
865.976	56.01
866.146	56.19
866.316	62.94
866.486	72.83
866.656	66.08
866.826	56.54
866.996	77.29
867.166	66.87
867.336	56.12
867.506	41.31
867.676	55.84
867.846	52.32
868.016	60.02
868.186	62.34
868.356	69.25
868.526	72.1
868.696	75.14
868.866	72.9
869.036	81.15
869.206	78.27
869.376	78.73
869.545	72.18
869.715	77.82
869.885	82.6
870.055	66.02
870.224	55.62
870.394	55.84
870.564	60.35
870.734	51.58
870.903	44.1
871.073	50.1
871.243	69.64
871.412	75.27
871.582	64.95
871.751	51.47
871.921	65.61
872.091	89.81
872.26	68.15
872.43	60.05
872.599	61.49
872.769	61.18
872.938	59.3
873.108	57.78
873.277	53.35
873.446	58.29
873.616	64.02
873.785	68.13
873.955	62.06
874.124	51.78
874.293	50.2
874.463	37.57
874.632	35.74
874.801	51.09
874.971	57.31
875.14	57.21
875.309	64.93
875.478	52.24
875.647	40.96
875.817	45.35
875.986	69.29
876.155	63.31
876.324	71.47
876.493	71.96
876.662	62.84
876.831	54.52
877	52.9
877.17	50.62
877.339	55.36
877.508	58.55
877.677	56.32
877.846	45.41
878.015	48.88
878.184	49.86
878.352	52.24
878.521	44.57
878.69	42.65
878.859	25.58
879.028	28.03
879.197	21.85
879.366	26.57
879.534	21.4
879.703	17.73
879.872	17.37
880.041	13.24
880.21	9.91
880.378	13.69
880.547	17.27
880.716	21.17
880.884	21.2
881.053	21.23
881.222	22.9
881.39	26.54
881.559	28.22
881.727	29.11
881.896	27.94
882.065	28.82
882.233	31.21
882.402	30.38
882.57	33.38
882.739	31.06
882.907	30.6
883.076	27.9
883.244	26.12
883.412	26.93
883.581	27.59
883.749	30.15
883.918	29.73
884.086	26.97
884.254	26.32
884.423	26.57
884.591	28.37
884.759	29.62
884.927	32.97
885.096	34.57
885.264	32.06
885.432	31.81
885.6	28.51
885.769	32.67
885.937	34.39
886.105	32.51
886.273	24.38
886.441	27.92
886.609	36.08
886.777	37.19
886.945	40.38
887.113	44.8
887.281	46.86
887.449	44.61
887.617	43.82
887.785	43.52
887.953	47.57
888.121	54.71
888.289	56.45
888.457	43.22
888.625	44.44
888.793	42.31
888.961	25.42
889.129	26.2
889.296	38.31
889.464	32.66
889.632	33.74
889.8	27.35
889.967	22.9
890.135	14.92
