Data from JASIL_3308_Reflection_1.txt Node
Date: Tue Nov 17 19:54:41 EST 2015
User: Geneva
Spectrometer: USB4E03002
Autoset integration time: false
Trigger mode: 4
Integration Time (sec): 1.000000E-1
Scans to average: 10
Electric dark correction enabled: false
Nonlinearity correction enabled: false
Boxcar width: 5
Stray light correction enabled: false
XAxis mode: Wavelengths
Stop averaging: false
Number of Pixels in Spectrum: 3648
>>>>>Begin Spectral Data<<<<<
177.575	-491.09
177.794	-684.78
178.014	-653.93
178.233	-1122.64
178.452	-1201.67
178.672	-637.01
178.891	-1403.45
179.11	8930
179.33	2060.87
179.549	2103.92
179.768	-9900
179.987	813.64
180.207	445.9
180.426	819.86
180.645	1040.8
180.864	7194.12
181.084	740.36
181.303	607.59
181.522	766.09
181.741	697.75
181.96	1161.62
182.179	6752.94
182.398	-1496.1
182.618	-501
182.837	-447.62
183.056	-509.29
183.275	-479.44
183.494	-204.11
183.713	-131.25
183.932	-123.43
184.151	-106.84
184.37	-88.74
184.589	-126.15
184.808	-118.79
185.027	-111.7
185.246	-175.88
185.465	-142.68
185.684	-204.96
185.903	-366.67
186.122	-561.67
186.341	-1093.81
186.56	-724.4
186.779	-4977.78
186.998	-582.01
187.216	-624.44
187.435	-755.15
187.654	-758.18
187.873	-569.2
188.092	-783.97
188.311	-868.57
188.53	-612.5
188.748	-320.22
188.967	-394.95
189.186	-225.57
189.405	-465.27
189.623	-355.31
189.842	-327.65
190.061	-260.2
190.28	-172.55
190.498	-212.45
190.717	-170.61
190.936	-187.18
191.154	-413.19
191.373	-980.46
191.592	2213.95
191.81	745.63
192.029	711.58
192.248	361.76
192.466	427.62
192.685	202.74
192.904	478.71
193.122	350.18
193.341	413.45
193.559	605.65
193.778	611.05
193.996	569.19
194.215	1763.77
194.433	1046.43
194.652	905.59
194.87	760
195.089	945.38
195.307	1787.72
195.526	-1059.18
195.744	-790.65
195.963	-789.33
196.181	-978.51
196.399	-1255.17
196.618	1476.32
196.836	746.1
197.055	853.38
197.273	1083.58
197.491	1179.28
197.71	581.75
197.928	501.66
198.146	484.59
198.365	2821.43
198.583	1888.89
198.801	-823.39
199.019	-266.28
199.238	-262.82
199.456	-230.23
199.674	-286.98
199.892	-271.46
200.111	-251.17
200.329	-275.54
200.547	-352.88
200.765	2643.14
200.983	-1189.74
201.202	2068.42
201.42	581.07
201.638	392.56
201.856	644.87
202.074	938.67
202.292	497.5
202.51	414.71
202.728	479.21
202.946	4532.14
203.165	2436.54
203.383	474.01
203.601	620.3
203.819	1193.64
204.037	-3466.67
204.255	-4140.74
204.473	-697.9
204.691	-592.94
204.909	-432.3
205.127	-2175
205.345	559.39
205.562	-567.44
205.78	-128.13
205.998	-133.33
206.216	-123.24
206.434	-175.92
206.652	-205.5
206.87	-363.47
207.088	-302.86
207.306	-441.62
207.523	-407.69
207.741	-327.3
207.959	-554.5
208.177	-675.13
208.395	-626.96
208.612	-657.41
208.83	-417.96
209.048	-444.9
209.266	-445.58
209.483	-296.66
209.701	-360.1
209.919	-303.61
210.136	-326.51
210.354	-302.49
210.572	-363.98
210.79	-431.67
211.007	-909.15
211.225	-9426.67
211.442	2037.29
211.66	5452
211.878	482.72
212.095	1187.43
212.313	1914.41
212.53	1096.21
212.748	968.53
212.966	676.23
213.183	825.29
213.401	-10805.56
213.618	-712.3
213.836	-644.71
214.053	-806.88
214.271	-567.95
214.488	-375.45
214.705	-296.65
214.923	-214.24
215.14	-116.22
215.358	-99.49
215.575	-90.09
215.793	-112.45
216.01	-326.54
216.227	-550
216.445	-554.17
216.662	-238.79
216.879	-271.3
217.097	-153.78
217.314	-251.75
217.531	11712.5
217.749	1103.96
217.966	614.84
218.183	416.61
218.4	661.94
218.618	704.61
218.835	425.3
219.052	451.1
219.269	433
219.487	237.84
219.704	234.57
219.921	255.56
220.138	318.39
220.355	307.33
220.572	295.33
220.79	283.45
221.007	395.5
221.224	570.34
221.441	536.74
221.658	627.78
221.875	-3331.43
222.092	-1279.55
222.309	3260.61
222.526	618.79
222.743	471.01
222.96	737.41
223.177	2506.98
223.394	1392.11
223.611	754.55
223.828	498
224.045	379.48
224.262	305.28
224.479	334.83
224.696	656.73
224.913	1122.31
225.13	1310.38
225.347	945.52
225.564	465.92
225.781	312.25
225.997	250.15
226.214	219.83
226.431	173.2
226.648	150.11
226.865	114.71
227.082	94.5
227.298	84.91
227.515	71.9
227.732	64.54
227.949	56.86
228.165	51.54
228.382	50.53
228.599	53.31
228.816	56.44
229.032	58.05
229.249	63.15
229.466	69.52
229.682	65.31
229.899	73.07
230.116	85.7
230.332	92.54
230.549	89.92
230.765	85.19
230.982	77.43
231.199	83.07
231.415	84.14
231.632	80.5
231.848	67.82
232.065	72.11
232.281	57.82
232.498	54.51
232.714	51.01
232.931	54.63
233.147	55.43
233.364	53.06
233.58	48.56
233.797	50.47
234.013	65.98
234.23	78.25
234.446	83.54
234.662	111.28
234.879	121.62
235.095	98.68
235.312	97.17
235.528	90.56
235.744	137.07
235.961	190.4
236.177	169.36
236.393	217.9
236.61	210.17
236.826	179.2
237.042	152.34
237.258	179.51
237.475	175.75
237.691	244.62
237.907	181.19
238.123	139.27
238.339	124.1
238.556	123.65
238.772	89.38
238.988	70.84
239.204	66.16
239.42	62.94
239.636	58.72
239.853	60.36
240.069	53.73
240.285	51.81
240.501	48.65
240.717	44.07
240.933	42.7
241.149	43.01
241.365	46.47
241.581	49.68
241.797	50.64
242.013	49.11
242.229	44.45
242.445	44.73
242.661	48.26
242.877	51.07
243.093	54.14
243.309	55.68
243.525	53.88
243.741	54.71
243.957	48.4
244.173	44.13
244.388	40.12
244.604	40.65
244.82	38.28
245.036	36.4
245.252	35.06
245.468	34.23
245.683	30.74
245.899	28.51
246.115	26.53
246.331	24.01
246.547	23.5
246.762	21.56
246.978	20.7
247.194	20.71
247.409	19.84
247.625	15.56
247.841	12.69
248.057	13.56
248.272	14.27
248.488	10.78
248.703	13.84
248.919	19.51
249.135	24.36
249.35	28.73
249.566	31.21
249.782	35.68
249.997	37.01
250.213	40.31
250.428	40.06
250.644	43.85
250.859	45.57
251.075	44.07
251.29	36.35
251.506	35.39
251.721	33.99
251.937	32.32
252.152	32.55
252.368	32.48
252.583	35.48
252.798	35.05
253.014	34.44
253.229	35.93
253.445	43.14
253.66	50.64
253.875	53.95
254.091	51.16
254.306	52.3
254.521	43.32
254.737	46.08
254.952	38.48
255.167	39.52
255.383	35.15
255.598	33.82
255.813	29.26
256.028	30.92
256.244	27.35
256.459	31.88
256.674	31.02
256.889	33.27
257.104	27.46
257.32	26.21
257.535	24.23
257.75	23.09
257.965	18.37
258.18	17.16
258.395	14.22
258.61	13.43
258.826	11.7
259.041	11.3
259.256	9.6
259.471	10.95
259.686	12.12
259.901	12.14
260.116	12.81
260.331	16.01
260.546	15.86
260.761	17.99
260.976	19.1
261.191	21.65
261.406	23.82
261.621	25.89
261.836	28.96
262.05	26.76
262.265	29.14
262.48	28.67
262.695	27
262.91	28.8
263.125	24.71
263.34	23.41
263.555	19.97
263.769	17.46
263.984	12.89
264.199	14.95
264.414	17.03
264.629	11.56
264.843	15.43
265.058	14.98
265.273	14.25
265.488	19.98
265.702	20.65
265.917	22.08
266.132	21.07
266.346	24.91
266.561	25.09
266.776	26.77
266.99	29.9
267.205	27.51
267.42	23.99
267.634	22.56
267.849	19.15
268.063	17.88
268.278	17.56
268.492	18.4
268.707	15.07
268.922	14.53
269.136	13.32
269.351	12.05
269.565	14.34
269.78	16.81
269.994	18.29
270.209	17.4
270.423	18.75
270.637	16.98
270.852	16.76
271.066	19.01
271.281	19.27
271.495	19.32
271.709	19.33
271.924	17.66
272.138	18.53
272.353	19.13
272.567	19.26
272.781	19.21
272.996	20.89
273.21	22.58
273.424	20.64
273.638	19.37
273.853	19.49
274.067	19.05
274.281	19.12
274.495	19.72
274.71	20.14
274.924	19.44
275.138	19.52
275.352	17.18
275.566	15.91
275.781	17.29
275.995	17.86
276.209	15.7
276.423	15.92
276.637	16.62
276.851	14.71
277.065	14.34
277.279	14.93
277.493	14.07
277.707	15
277.921	15.96
278.135	17.44
278.349	14.86
278.563	16.42
278.777	16.29
278.991	16.43
279.205	18.5
279.419	13.3
279.633	15.94
279.847	18.03
280.061	16.48
280.275	16.7
280.489	14.9
280.703	16.19
280.917	16.49
281.131	17.21
281.344	17.7
281.558	16.05
281.772	20.41
281.986	18.37
282.2	14.86
282.414	15.89
282.627	14.81
282.841	15.72
283.055	16.2
283.269	18.21
283.482	17.42
283.696	16.5
283.91	18.75
284.123	17.2
284.337	17.46
284.551	17.58
284.764	16.86
284.978	16.48
285.192	14.63
285.405	13.15
285.619	10.83
285.833	11.09
286.046	12.43
286.26	11.09
286.473	12.44
286.687	12.21
286.9	15.65
287.114	16.3
287.327	16.48
287.541	17.65
287.754	19.82
287.968	21.28
288.181	20.18
288.395	18.66
288.608	18.03
288.822	17.4
289.035	17.68
289.248	16.03
289.462	16.04
289.675	16.99
289.889	17.51
290.102	16.91
290.315	14.78
290.529	15.82
290.742	16.1
290.955	17.18
291.169	18.51
291.382	17.81
291.595	18.27
291.808	19.09
292.022	17.69
292.235	16.82
292.448	17.37
292.661	18.98
292.875	17.47
293.088	17.55
293.301	16.48
293.514	13.01
293.727	12.5
293.94	9.8
294.153	9.89
294.367	10.5
294.58	9.99
294.793	8.64
295.006	7.09
295.219	7.98
295.432	6.76
295.645	7.69
295.858	9.78
296.071	9.63
296.284	10.83
296.497	10.12
296.71	10.03
296.923	10.37
297.136	9.84
297.349	11.39
297.562	11.5
297.775	11.57
297.988	10.17
298.201	11.25
298.414	12
298.626	11.12
298.839	12.09
299.052	12.9
299.265	14.47
299.478	17.39
299.691	16.06
299.903	15.41
300.116	16.81
300.329	17.47
300.542	15.92
300.755	15.7
300.967	16.97
301.18	16.9
301.393	16.55
301.605	14.09
301.818	11.67
302.031	14.04
302.243	15.27
302.456	15.94
302.669	16.64
302.881	15.89
303.094	18.3
303.307	16.5
303.519	16.43
303.732	17.23
303.944	18.68
304.157	20.33
304.37	18.85
304.582	17.31
304.795	16.77
305.007	16.5
305.22	17.32
305.432	15.92
305.645	17.75
305.857	16.1
306.069	13.29
306.282	14.2
306.494	13.95
306.707	13.73
306.919	15.46
307.132	14.49
307.344	14.7
307.556	13
307.769	11.55
307.981	11.04
308.193	11.93
308.406	12.61
308.618	10.1
308.83	8.68
309.043	6.94
309.255	7.54
309.467	7.56
309.679	3.83
309.892	5.8
310.104	7.06
310.316	8.53
310.528	9.44
310.74	9.42
310.953	9.71
311.165	9.82
311.377	12.5
311.589	12.06
311.801	12.11
312.013	14.81
312.225	14.13
312.437	13.52
312.649	12.22
312.862	11.4
313.074	12.11
313.286	12.87
313.498	14.48
313.71	12.27
313.922	11.51
314.134	11.5
314.346	13.07
314.558	12.49
314.77	13.5
314.982	14.2
315.193	14.64
315.405	14.63
315.617	14.89
315.829	14.39
316.041	16.94
316.253	16.98
316.465	17.53
316.677	16.27
316.888	19.15
317.1	17.8
317.312	18.91
317.524	19.79
317.736	20.79
317.947	21.08
318.159	21.16
318.371	22.41
318.583	21.33
318.794	22.68
319.006	24.1
319.218	23.24
319.43	24.74
319.641	24.82
319.853	24.95
320.064	23.2
320.276	24.7
320.488	25.18
320.699	25.01
320.911	24.99
321.123	24.17
321.334	22.73
321.546	19.81
321.757	20.96
321.969	21.47
322.18	19.84
322.392	20.54
322.603	19.47
322.815	18.83
323.026	16.46
323.238	16.07
323.449	14.65
323.661	15.85
323.872	16.83
324.083	16.04
324.295	13.81
324.506	15.05
324.718	14.71
324.929	15.46
325.14	16.7
325.352	17.78
325.563	19.28
325.774	19.6
325.986	19.39
326.197	21.01
326.408	19.7
326.62	20.72
326.831	19.79
327.042	21.55
327.253	20.78
327.464	20.23
327.676	19.94
327.887	18.88
328.098	19.94
328.309	19.37
328.52	18.84
328.732	21.13
328.943	21.67
329.154	21.39
329.365	20.94
329.576	21.38
329.787	21.07
329.998	22.43
330.209	23.73
330.42	23.87
330.631	24.85
330.842	25.59
331.053	24.82
331.264	25.2
331.475	26.28
331.686	28.04
331.897	26.59
332.108	27.21
332.319	25.4
332.53	24.58
332.741	25.42
332.952	24.41
333.163	24.41
333.374	25.49
333.585	24.71
333.795	24.57
334.006	22.62
334.217	24.66
334.428	23.34
334.639	24.21
334.849	25.22
335.06	25.09
335.271	25.66
335.482	24.71
335.692	23.27
335.903	22.81
336.114	22.5
336.325	22.15
336.535	21.59
336.746	22.55
336.957	22.06
337.167	21.76
337.378	20.62
337.589	22.14
337.799	22.42
338.01	22.36
338.22	22.17
338.431	21.24
338.642	21.72
338.852	22.32
339.063	21.48
339.273	21.78
339.484	22.18
339.694	21.61
339.905	20.92
340.115	21.39
340.326	20.64
340.536	19.84
340.746	20.45
340.957	19.46
341.167	19.32
341.378	19.8
341.588	19.8
341.799	18.84
342.009	19.13
342.219	18.18
342.43	18.15
342.64	18.55
342.85	20.4
343.061	21.41
343.271	22.52
343.481	20.84
343.691	20.45
343.902	20.55
344.112	21.39
344.322	21.63
344.532	21.29
344.743	21.99
344.953	23.04
345.163	22.1
345.373	21.41
345.583	20.99
345.793	23.93
346.004	25.11
346.214	25.34
346.424	25.89
346.634	26.27
346.844	28.14
347.054	26.82
347.264	26.36
347.474	25.59
347.684	26.48
347.894	26.12
348.104	22.35
348.314	20.85
348.524	20.83
348.734	20.81
348.944	20.35
349.154	19.27
349.364	19.5
349.574	18.06
349.784	19.19
349.994	18.96
350.204	19.23
350.413	19.58
350.623	20.13
350.833	20.53
351.043	21.55
351.253	22.63
351.463	21.2
351.672	21.63
351.882	22.38
352.092	22.6
352.302	22.4
352.511	23.03
352.721	23.22
352.931	23.03
353.141	22.13
353.35	20.18
353.56	18.98
353.77	18.71
353.979	17.86
354.189	17.52
354.399	17.16
354.608	15.99
354.818	15.66
355.027	16.63
355.237	15.66
355.447	16.51
355.656	16.7
355.866	17.12
356.075	18.85
356.285	19.12
356.494	19.45
356.704	20.13
356.913	20.76
357.123	20.47
357.332	19.73
357.542	21.24
357.751	21.33
357.96	20.85
358.17	20.85
358.379	19.61
358.589	19.47
358.798	19.5
359.007	18.92
359.217	19.32
359.426	18.8
359.635	18.99
359.845	18.25
360.054	16.77
360.263	17.58
360.472	17.99
360.682	18.61
360.891	18.33
361.1	18.29
361.309	18.19
361.519	17.31
361.728	17.62
361.937	17.87
362.146	18.64
362.355	19.13
362.564	19.14
362.774	18.01
362.983	17.55
363.192	17.65
363.401	17.82
363.61	17.06
363.819	18.26
364.028	18.32
364.237	19.35
364.446	19.26
364.655	19.04
364.864	19.09
365.073	19.6
365.282	19.35
365.491	19.81
365.7	20.46
365.909	20.41
366.118	20.35
366.327	20.06
366.536	17.9
366.745	16.35
366.954	17.75
367.162	17.84
367.371	18.05
367.58	18.67
367.789	18.89
367.998	18.19
368.207	19.19
368.415	19.53
368.624	19.78
368.833	21.62
369.042	22.23
369.25	21.42
369.459	21.25
369.668	21.24
369.877	21.53
370.085	20.76
370.294	20.01
370.503	20.04
370.711	19.57
370.92	19.27
371.129	18.99
371.337	19.24
371.546	18.16
371.754	17.16
371.963	17.01
372.171	15.92
372.38	16.37
372.589	16.55
372.797	15.39
373.006	15.26
373.214	14.46
373.423	14.17
373.631	14.22
373.84	14.07
374.048	14.2
374.256	13.86
374.465	15.63
374.673	16.49
374.882	15.59
375.09	15.55
375.298	15.95
375.507	16.55
375.715	15.91
375.923	16.85
376.132	17.84
376.34	17.95
376.548	18.93
376.757	16.8
376.965	15.42
377.173	17.03
377.381	18.01
377.59	16.85
377.798	17.82
378.006	17.63
378.214	16.51
378.423	15.9
378.631	15.25
378.839	14.47
379.047	16.43
379.255	17.05
379.463	16.35
379.671	16.28
379.879	17.13
380.088	15.99
380.296	17.08
380.504	16.89
380.712	17.2
380.92	17.85
381.128	18.08
381.336	16.79
381.544	15.97
381.752	16.33
381.96	16.53
382.168	15.31
382.376	15.47
382.584	15.12
382.791	15.37
382.999	15.38
383.207	14.55
383.415	14.85
383.623	14.97
383.831	15.15
384.039	14.6
384.247	14.06
384.454	15.21
384.662	15.52
384.87	15.38
385.078	15.03
385.285	14.57
385.493	16.08
385.701	15.04
385.909	15.59
386.116	16.27
386.324	16.26
386.532	15.79
386.739	14.88
386.947	14.58
387.155	14.17
387.362	14.09
387.57	13.71
387.778	12.42
387.985	11.91
388.193	11.93
388.4	11.02
388.608	11.66
388.816	12.18
389.023	12.23
389.231	13.49
389.438	14.1
389.646	14.52
389.853	15.31
390.061	15.6
390.268	16.2
390.475	15.72
390.683	16.43
390.89	16.44
391.098	16.46
391.305	16.44
391.512	15.98
391.72	15.37
391.927	15.07
392.135	15.34
392.342	15.11
392.549	15.04
392.756	15.2
392.964	14.99
393.171	15.34
393.378	15.22
393.586	14.99
393.793	14.65
394	15.12
394.207	15.57
394.414	15.51
394.622	16.17
394.829	16.75
395.036	16.54
395.243	16.41
395.45	15.88
395.657	15.39
395.864	16.02
396.072	16.68
396.279	16.13
396.486	15.81
396.693	15.46
396.9	14.94
397.107	14.53
397.314	14.52
397.521	14.09
397.728	13.48
397.935	13.56
398.142	13.51
398.349	12.3
398.556	12.32
398.763	12.56
398.97	13.24
399.177	13.88
399.383	13.93
399.59	14.46
399.797	14.83
400.004	16.35
400.211	16.45
400.418	16.18
400.625	16.34
400.831	16.37
401.038	16.39
401.245	16.1
401.452	15.82
401.658	15.87
401.865	15.42
402.072	15.27
402.279	14.26
402.485	14.6
402.692	15.17
402.899	14.47
403.105	14.77
403.312	14.36
403.519	14.25
403.725	13.57
403.932	13.46
404.138	13.52
404.345	13.67
404.552	13.69
404.758	14.22
404.965	13.43
405.171	13.64
405.378	13.84
405.584	13.87
405.791	13.53
405.997	13.8
406.204	14.45
406.41	14.38
406.617	14.36
406.823	13.91
407.029	13.11
407.236	13.85
407.442	14.25
407.649	14.24
407.855	13.72
408.061	14.24
408.268	14.83
408.474	14.61
408.68	14.4
408.887	14.55
409.093	14.88
409.299	15.04
409.505	14.47
409.712	15.28
409.918	14.89
410.124	14.96
410.33	14.51
410.537	13.95
410.743	13.56
410.949	14.33
411.155	13.81
411.361	12.85
411.567	12.62
411.773	13.16
411.98	12.41
412.186	13
412.392	13.35
412.598	12.85
412.804	12.15
413.01	12
413.216	11.64
413.422	11.47
413.628	12.51
413.834	12.17
414.04	11.53
414.246	11.32
414.452	10.59
414.658	10.16
414.864	10.85
415.07	11.48
415.275	11.14
415.481	11.06
415.687	11.73
415.893	11.41
416.099	12.14
416.305	12.17
416.511	12.09
416.716	12.23
416.922	12.75
417.128	12.73
417.334	12.97
417.539	13.01
417.745	13.04
417.951	12.53
418.157	13.32
418.362	13.11
418.568	13.02
418.774	13.01
418.979	12.97
419.185	12.96
419.391	12.82
419.596	12.65
419.802	12.71
420.008	12.39
420.213	10.52
420.419	9.96
420.624	9.94
420.83	10.14
421.035	10.51
421.241	10.44
421.446	10.16
421.652	10.23
421.857	10.3
422.063	10.55
422.268	10.64
422.474	12.65
422.679	12.5
422.885	12.39
423.09	12.48
423.295	12.01
423.501	11.89
423.706	12.16
423.911	12.09
424.117	12.38
424.322	12.42
424.527	12.45
424.733	12.5
424.938	12.59
425.143	12.87
425.349	12.49
425.554	12.69
425.759	13.01
425.964	12.87
426.169	12.96
426.375	12.56
426.58	12.52
426.785	12.45
426.99	12.38
427.195	12.42
427.4	12.29
427.605	13.02
427.811	13.14
428.016	13
428.221	13.18
428.426	13.51
428.631	13.39
428.836	12.98
429.041	13.31
429.246	13.3
429.451	13.49
429.656	13.41
429.861	13.13
430.066	12.95
430.271	13.4
430.476	13.2
430.681	12.85
430.886	12.65
431.09	12.88
431.295	12.51
431.5	12.81
431.705	12.98
431.91	12.64
432.115	12.22
432.32	12.38
432.524	11.92
432.729	11.91
432.934	11.94
433.139	12.23
433.343	11.99
433.548	12.33
433.753	12.08
433.958	11.47
434.162	12.02
434.367	12.46
434.572	11.81
434.776	12.09
434.981	12.09
435.186	11.96
435.39	12
435.595	12.08
435.799	11.9
436.004	12.05
436.209	12.61
436.413	12.12
436.618	11.6
436.822	12.09
437.027	11.81
437.231	12.01
437.436	11.84
437.64	11.95
437.845	12.05
438.049	11.86
438.253	11.6
438.458	11.42
438.662	11.65
438.867	11.86
439.071	12.07
439.275	12.32
439.48	12.41
439.684	12.61
439.888	12.52
440.093	12.51
440.297	12.78
440.501	12.93
440.706	13.04
440.91	13
441.114	13.17
441.318	13.1
441.523	13.13
441.727	12.65
441.931	12.9
442.135	13.07
442.339	13
442.543	12.81
442.748	12.73
442.952	12.62
443.156	12.27
443.36	12.24
443.564	12.17
443.768	12.36
443.972	13.03
444.176	12.45
444.38	11.99
444.584	11.93
444.788	12.06
444.992	11.95
445.196	11.98
445.4	12.25
445.604	12.17
445.808	12.2
446.012	11.95
446.216	11.52
446.42	11.84
446.624	12.1
446.828	12.19
447.032	11.74
447.235	12.07
447.439	11.86
447.643	12.01
447.847	12.28
448.051	12.24
448.254	12.46
448.458	12.44
448.662	12.19
448.866	11.83
449.069	11.8
449.273	12.23
449.477	12.07
449.681	12.56
449.884	12.17
450.088	11.64
450.292	11.4
450.495	11.14
450.699	11.87
450.902	12.22
451.106	12.64
451.31	12.64
451.513	12.87
451.717	12.85
451.92	12.6
452.124	12.97
452.327	13.35
452.531	14.01
452.734	13.79
452.938	13.21
453.141	12.92
453.345	12.94
453.548	12.74
453.752	12.66
453.955	12.58
454.158	12.59
454.362	12.38
454.565	12.52
454.769	12.65
454.972	13.19
455.175	13.27
455.379	13.55
455.582	13.51
455.785	13.65
455.988	13.42
456.192	13.39
456.395	13.33
456.598	13.29
456.801	13.29
457.005	12.74
457.208	12.21
457.411	12.08
457.614	11.89
457.817	11.61
458.021	11.73
458.224	11.62
458.427	11.71
458.63	11.61
458.833	11.71
459.036	11.58
459.239	11.21
459.442	11.05
459.645	11.24
459.848	11.28
460.051	11.41
460.254	11.37
460.457	11.6
460.66	11.72
460.863	11.98
461.066	12
461.269	11.7
461.472	12.53
461.675	13.05
461.878	12.82
462.081	13.02
462.284	13
462.486	12.82
462.689	12.71
462.892	12.74
463.095	12.6
463.298	12.32
463.5	12.82
463.703	12.36
463.906	12.26
464.109	12.43
464.311	12.29
464.514	12.62
464.717	12.84
464.92	13.02
465.122	12.77
465.325	12.88
465.528	13.1
465.73	12.9
465.933	13.09
466.135	13.23
466.338	13.4
466.541	13.24
466.743	12.96
466.946	12.82
467.148	12.56
467.351	12.7
467.553	12.48
467.756	12.29
467.958	12.19
468.161	12.23
468.363	12.34
468.566	12.02
468.768	11.9
468.971	11.96
469.173	12.55
469.375	12.81
469.578	12.28
469.78	12.45
469.983	12.74
470.185	12.74
470.387	12.6
470.59	12.32
470.792	12.32
470.994	12.42
471.196	12.44
471.399	11.91
471.601	11.62
471.803	11.63
472.005	11.52
472.208	11.49
472.41	11.27
472.612	11.25
472.814	11.49
473.016	11.18
473.218	11.26
473.421	11.12
473.623	11.35
473.825	11.62
474.027	12.17
474.229	12.85
474.431	12.55
474.633	12.9
474.835	12.8
475.037	12.5
475.239	13
475.441	13.29
475.643	13.82
475.845	13.62
476.047	13.49
476.249	12.99
476.451	12.28
476.653	12.32
476.855	12.39
477.057	12.85
477.258	12.63
477.46	12.56
477.662	12.47
477.864	12.04
478.066	12.1
478.268	12.25
478.469	12.62
478.671	12.71
478.873	12.73
479.075	12.56
479.276	11.95
479.478	12.08
479.68	11.94
479.882	11.92
480.083	12.16
480.285	11.95
480.487	12.09
480.688	11.88
480.89	11.85
481.091	11.86
481.293	11.93
481.495	11.94
481.696	11.86
481.898	11.77
482.099	11.51
482.301	11.21
482.502	11.14
482.704	10.85
482.905	10.79
483.107	10.78
483.308	10.62
483.51	10.53
483.711	10.49
483.913	10.5
484.114	10.48
484.315	10.53
484.517	10.74
484.718	10.84
484.92	11.1
485.121	11.06
485.322	11.01
485.524	11.22
485.725	11.23
485.926	11.31
486.127	11.32
486.329	11.32
486.53	11.19
486.731	10.93
486.932	10.79
487.134	10.62
487.335	10.66
487.536	10.67
487.737	10.65
487.938	10.63
488.139	10.66
488.341	10.58
488.542	10.58
488.743	10.75
488.944	10.92
489.145	11.01
489.346	11.11
489.547	11.23
489.748	11.32
489.949	11.15
490.15	11.18
490.351	11.02
490.552	11.02
490.753	11
490.954	11
491.155	10.99
491.356	11.03
491.557	10.92
491.758	10.99
491.959	11.03
492.159	11.17
492.36	11.27
492.561	11.4
492.762	11.51
492.963	11.49
493.164	11.6
493.364	11.84
493.565	11.77
493.766	11.82
493.967	11.94
494.167	12.02
494.368	11.96
494.569	11.87
494.769	12.13
494.97	12.11
495.171	12.68
495.371	12.44
495.572	12.4
495.773	12.47
495.973	12.56
496.174	12.44
496.375	12.54
496.575	12.71
496.776	12.84
496.976	12.56
497.177	12.51
497.377	12.1
497.578	12.37
497.778	12.31
497.979	12.5
498.179	12.36
498.38	12.52
498.58	12.34
498.78	12.33
498.981	12.45
499.181	12.5
499.382	12.59
499.582	12.66
499.782	12.85
499.983	12.82
500.183	12.88
500.383	13.04
500.584	12.89
500.784	12.89
500.984	12.93
501.184	12.69
501.385	12.98
501.585	12.96
501.785	12.97
501.985	12.76
502.185	13.04
502.386	12.9
502.586	12.79
502.786	12.94
502.986	12.96
503.186	12.78
503.386	13.17
503.586	13.33
503.786	13.65
503.987	13.58
504.187	13.61
504.387	13.65
504.587	13.49
504.787	13.79
504.987	13.92
505.187	14.08
505.387	14.23
505.587	13.9
505.786	13.55
505.986	13.73
506.186	13.85
506.386	14.16
506.586	13.98
506.786	14.26
506.986	14.13
507.186	13.8
507.386	13.76
507.585	13.9
507.785	13.87
507.985	14.07
508.185	13.96
508.384	14.46
508.584	14.22
508.784	14.47
508.984	14.81
509.183	15.16
509.383	15.65
509.583	16.02
509.782	16.02
509.982	16.53
510.182	16.57
510.381	16.45
510.581	15.97
510.781	16.1
510.98	15.94
511.18	15.66
511.379	15.23
511.579	14.87
511.778	14.71
511.978	14.6
512.177	14.11
512.377	14.08
512.576	14
512.776	13.93
512.975	13.91
513.175	13.85
513.374	14.08
513.573	14.52
513.773	14.58
513.972	14.46
514.172	14.94
514.371	15.16
514.57	15.61
514.77	15.99
514.969	16.4
515.168	16.42
515.367	16.52
515.567	16.5
515.766	16.59
515.965	16.65
516.164	16.46
516.364	15.97
516.563	15.86
516.762	15.82
516.961	15.48
517.16	15.44
517.359	15.28
517.559	14.87
517.758	14.78
517.957	14.71
518.156	14.9
518.355	15.17
518.554	15.47
518.753	15.48
518.952	15.32
519.151	15.45
519.35	15.62
519.549	16
519.748	16.44
519.947	16.39
520.146	16.47
520.345	16.45
520.544	16.18
520.743	16.21
520.942	16.31
521.141	16.68
521.339	16.89
521.538	17.15
521.737	17.02
521.936	17.33
522.135	17.41
522.333	17.7
522.532	17.83
522.731	17.91
522.93	17.99
523.129	18.32
523.327	18
523.526	17.95
523.725	17.59
523.923	17.69
524.122	17.72
524.321	17.78
524.519	17.7
524.718	17.52
524.917	17.73
525.115	17.66
525.314	17.61
525.512	17.82
525.711	17.89
525.909	17.83
526.108	17.81
526.306	17.65
526.505	17.6
526.703	17.47
526.902	17.45
527.1	17.41
527.299	17.33
527.497	17.29
527.696	17.24
527.894	17.27
528.092	17.33
528.291	17.36
528.489	17.48
528.688	17.61
528.886	17.76
529.084	17.92
529.283	18.04
529.481	18.26
529.679	18.39
529.877	18.42
530.076	18.48
530.274	18.78
530.472	18.86
530.67	19.05
530.869	19.19
531.067	19.23
531.265	19.34
531.463	19.55
531.661	19.63
531.859	19.76
532.057	19.87
532.255	19.99
532.454	19.83
532.652	19.79
532.85	19.61
533.048	19.57
533.246	19.71
533.444	19.58
533.642	19.54
533.84	19.74
534.038	19.79
534.236	19.72
534.434	19.62
534.632	19.85
534.83	20.13
535.027	20.31
535.225	20.56
535.423	20.48
535.621	20.53
535.819	20.61
536.017	20.61
536.215	20.8
536.412	20.91
536.61	20.97
536.808	21.04
537.006	20.92
537.203	20.9
537.401	20.88
537.599	21.13
537.797	21.45
537.994	21.61
538.192	21.53
538.39	21.19
538.587	21.35
538.785	21.65
538.983	21.54
539.18	21.94
539.378	22.12
539.575	21.96
539.773	21.72
539.97	21.74
540.168	21.7
540.366	21.68
540.563	21.79
540.761	21.77
540.958	21.58
541.155	21.51
541.353	21.44
541.55	21.55
541.748	21.81
541.945	22.01
542.143	21.89
542.34	21.85
542.537	22
542.735	22.18
542.932	22.35
543.129	22.75
543.327	23.09
543.524	22.88
543.721	22.94
543.919	22.92
544.116	22.79
544.313	23.25
544.51	23.29
544.708	23.5
544.905	23.46
545.102	23.28
545.299	23.4
545.496	23.35
545.693	23.54
545.891	23.47
546.088	23.53
546.285	23.72
546.482	23.74
546.679	23.89
546.876	23.5
547.073	23.39
547.27	23.75
547.467	23.51
547.664	23.41
547.861	23.48
548.058	23.62
548.255	23.53
548.452	23.9
548.649	24
548.846	24.37
549.043	24.85
549.24	25.34
549.437	25.35
549.633	25.74
549.83	26.31
550.027	26.52
550.224	26.61
550.421	26.65
550.618	26.47
550.814	26.21
551.011	26.28
551.208	26.16
551.405	25.87
551.601	25.69
551.798	25.48
551.995	25.31
552.191	25.26
552.388	25.3
552.585	25.71
552.781	25.9
552.978	26.14
553.175	26.03
553.371	26.14
553.568	26.43
553.764	26.9
553.961	26.91
554.157	27.19
554.354	27.18
554.55	27.18
554.747	27.19
554.943	27.11
555.14	27.06
555.336	26.95
555.533	26.98
555.729	26.98
555.926	26.7
556.122	27.1
556.318	27.11
556.515	27.5
556.711	27.94
556.907	27.86
557.104	27.94
557.3	28.3
557.496	28.5
557.693	28.98
557.889	28.98
558.085	29.52
558.281	29.43
558.478	29.67
558.674	29.66
558.87	29.66
559.066	29.34
559.262	28.98
559.459	28.49
559.655	28.57
559.851	28
560.047	28.17
560.243	27.92
560.439	27.91
560.635	28.18
560.831	28.38
561.027	28.31
561.223	29.01
561.419	29.46
561.615	29.63
561.811	29.65
562.007	30.04
562.203	30.18
562.399	30.49
562.595	30.23
562.791	29.97
562.987	30.14
563.183	30.06
563.379	29.68
563.575	29.61
563.771	29.85
563.966	29.87
564.162	29.96
564.358	29.81
564.554	29.4
564.75	29.62
564.945	29.33
565.141	29.33
565.337	29.53
565.533	30.08
565.728	30.56
565.924	30.47
566.12	30.61
566.315	30.5
566.511	30.69
566.707	31.1
566.902	31.69
567.098	32.06
567.293	31.72
567.489	31.85
567.684	31.45
567.88	31.33
568.076	31.63
568.271	31.55
568.467	31.53
568.662	31.28
568.858	31.38
569.053	31.04
569.248	31.14
569.444	31.94
569.639	31.63
569.835	31.93
570.03	31.63
570.225	31.47
570.421	31.53
570.616	32.04
570.812	32.22
571.007	32.28
571.202	32.29
571.397	31.99
571.593	31.5
571.788	31.71
571.983	31.24
572.178	31.4
572.374	31.2
572.569	31.26
572.764	31.14
572.959	30.87
573.154	30.7
573.35	30.98
573.545	31.09
573.74	31.14
573.935	31.15
574.13	31.62
574.325	31.63
574.52	32.17
574.715	32.52
574.91	32.4
575.105	33.04
575.3	33.2
575.495	32.98
575.69	33.85
575.885	33.72
576.08	33.73
576.275	33.69
576.47	34.29
576.665	34.77
576.86	34.73
577.055	35.02
577.25	34.83
577.444	35
577.639	35.06
577.834	34.85
578.029	35.48
578.224	35.65
578.418	36.27
578.613	36.3
578.808	35.88
579.003	35.81
579.197	35.73
579.392	35.84
579.587	36.03
579.781	36.15
579.976	35.85
580.171	36.25
580.365	36.36
580.56	35.79
580.755	35.08
580.949	34.81
581.144	34.71
581.338	34.92
581.533	34.82
581.727	34.91
581.922	35.03
582.116	35.13
582.311	34.4
582.505	34.52
582.7	34.51
582.894	34.78
583.089	34.95
583.283	35.45
583.478	35.58
583.672	35.6
583.866	35.61
584.061	35.27
584.255	34.97
584.449	35.24
584.644	35.05
584.838	35.5
585.032	35.89
585.226	36.05
585.421	35.7
585.615	35.57
585.809	35.57
586.003	35.59
586.198	36.35
586.392	36.8
586.586	36.92
586.78	37.09
586.974	37.05
587.168	36.9
587.363	37.08
587.557	36.84
587.751	36.92
587.945	37.09
588.139	36.49
588.333	36.17
588.527	35.93
588.721	35.8
588.915	35.44
589.109	34.95
589.303	34.7
589.497	35.05
589.691	34.99
589.885	34.84
590.079	34.69
590.273	35.37
590.466	35.35
590.66	35.5
590.854	35.48
591.048	35.77
591.242	35.91
591.436	36.32
591.629	35.83
591.823	35.65
592.017	35.65
592.211	35.73
592.404	35.65
592.598	35.55
592.792	35.74
592.986	35.72
593.179	35.56
593.373	35.27
593.567	34.85
593.76	34.82
593.954	35.41
594.147	35.36
594.341	35.28
594.535	35.21
594.728	34.84
594.922	34.73
595.115	34.42
595.309	34.88
595.502	35.5
595.696	35.77
595.889	35.96
596.083	35.92
596.276	35.87
596.47	36.21
596.663	36.07
596.856	36.55
597.05	37
597.243	37.38
597.437	37.3
597.63	37.49
597.823	37.53
598.017	37.52
598.21	37.36
598.403	37.44
598.596	37.15
598.79	37.62
598.983	37.77
599.176	36.72
599.369	36.74
599.563	36.46
599.756	36
599.949	35.75
600.142	36.04
600.335	36.42
600.528	36.2
600.722	36.91
600.915	36.95
601.108	36.67
601.301	36.84
601.494	36.98
601.687	37.2
601.88	37.2
602.073	37.33
602.266	37.11
602.459	36.91
602.652	36.9
602.845	36.86
603.038	36.57
603.231	36.84
603.424	37.16
603.617	36.53
603.809	36.54
604.002	36.36
604.195	36.31
604.388	35.81
604.581	35.9
604.774	36.5
604.966	36.43
605.159	36.49
605.352	36.44
605.545	36
605.737	36.42
605.93	36.8
606.123	36.81
606.316	36.91
606.508	37.14
606.701	37.1
606.894	36.66
607.086	36.86
607.279	37.26
607.471	37.3
607.664	37.43
607.857	38.12
608.049	37.98
608.242	38.1
608.434	38.55
608.627	39.58
608.819	39.72
609.012	39.74
609.204	39.1
609.397	39.37
609.589	39.47
609.782	40.08
609.974	40.01
610.166	40.18
610.359	39.91
610.551	39.63
610.743	38.97
610.936	39.35
611.128	39.75
611.32	41.06
611.513	40.77
611.705	41.05
611.897	40.97
612.09	40.48
612.282	39.73
612.474	40.48
612.666	40.9
612.858	40.94
613.051	40.5
613.243	39.67
613.435	38.31
613.627	37.85
613.819	37.69
614.011	37.49
614.203	38.13
614.395	38.49
614.588	38.96
614.78	38.92
614.972	39.71
615.164	39.97
615.356	40.88
615.548	41.65
615.74	42.01
615.932	41.66
616.124	42.52
616.315	42.56
616.507	43.02
616.699	43.06
616.891	42.83
617.083	42.29
617.275	42.33
617.467	42.28
617.659	42.3
617.85	42.36
618.042	43.34
618.234	42.7
618.426	42.09
618.618	41.29
618.809	40.83
619.001	40.91
619.193	40.45
619.384	40.92
619.576	41.44
619.768	40.81
619.959	41.1
620.151	40.89
620.343	40.54
620.534	40.91
620.726	41.35
620.917	41.6
621.109	41.22
621.301	41.67
621.492	40.85
621.684	39.71
621.875	40.82
622.067	40.41
622.258	40.42
622.45	41.03
622.641	40.81
622.832	41.32
623.024	40.66
623.215	41.07
623.407	40.8
623.598	41.61
623.789	42.68
623.981	42.12
624.172	42.14
624.363	41.51
624.555	40.74
624.746	41.19
624.937	41.18
625.129	41.39
625.32	41.36
625.511	41.49
625.702	40.76
625.893	40.74
626.085	40.47
626.276	40.59
626.467	40.5
626.658	40.66
626.849	40.37
627.04	40.4
627.231	40.86
627.422	40.66
627.614	40.43
627.805	40.43
627.996	40.04
628.187	40.13
628.378	40.52
628.569	40.78
628.76	41.11
628.951	41.01
629.142	40.94
629.332	40.46
629.523	40.42
629.714	40.76
629.905	41.44
630.096	41.74
630.287	41.54
630.478	41
630.669	41.04
630.859	40.9
631.05	40.97
631.241	40.6
631.432	40.63
631.623	40.59
631.813	40.09
632.004	39.96
632.195	39.41
632.385	39.47
632.576	39.51
632.767	39.51
632.957	39.91
633.148	40.51
633.339	40.45
633.529	40.63
633.72	40.62
633.91	40.52
634.101	40.48
634.292	41.12
634.482	41.22
634.673	41.69
634.863	41.43
635.054	40.79
635.244	41.21
635.435	41.49
635.625	41.42
635.815	41.48
636.006	41.62
636.196	41.4
636.387	40.8
636.577	41.27
636.767	41.57
636.958	41.77
637.148	42.79
637.338	42.18
637.529	42.41
637.719	42.75
637.909	42.99
638.099	44.37
638.29	43.97
638.48	44.74
638.67	44.46
638.86	43.82
639.05	44.45
639.241	44.2
639.431	44.07
639.621	44.6
639.811	44.25
640.001	44.8
640.191	44.17
640.381	44.1
640.571	43.51
640.761	44.51
640.951	44.01
641.141	43.74
641.331	43.75
641.521	43.9
641.711	43.25
641.901	43.06
642.091	42.81
642.281	42.04
642.471	43.05
642.661	43.51
642.851	42.51
643.041	42.93
643.231	42.69
643.42	42.39
643.61	42.43
643.8	42.71
643.99	42.8
644.18	42.44
644.369	43.35
644.559	43
644.749	42.71
644.939	42.37
645.128	42.39
645.318	43.09
645.508	42.97
645.697	42.22
645.887	41.96
646.076	43.26
646.266	43.57
646.456	43.57
646.645	44.24
646.835	44.66
647.024	44.46
647.214	44.39
647.403	43.94
647.593	43.22
647.782	44.26
647.972	43.84
648.161	43.04
648.351	43.04
648.54	43
648.73	43.58
648.919	43.47
649.108	43.97
649.298	44.38
649.487	44.75
649.677	46.27
649.866	46.95
650.055	47.23
650.244	47.48
650.434	47.36
650.623	47.28
650.812	45.82
651.002	46
651.191	46.52
651.38	46.17
651.569	46.22
651.758	45.97
651.947	44.97
652.137	45.16
652.326	44.94
652.515	45.39
652.704	45.21
652.893	44.82
653.082	44.26
653.271	44.58
653.46	44.6
653.649	43.59
653.838	43.06
654.027	43.45
654.216	43.53
654.405	43.88
654.594	43.35
654.783	43.22
654.972	43.95
655.161	44.09
655.35	43.63
655.539	44.08
655.728	44.11
655.916	43.79
656.105	43.32
656.294	43.62
656.483	43.57
656.672	44.03
656.86	43.88
657.049	44
657.238	43.83
657.427	43.88
657.615	44.02
657.804	44.89
657.993	45.46
658.181	45.76
658.37	45.45
658.559	45.12
658.747	45.1
658.936	45.55
659.125	44.4
659.313	44.52
659.502	45.06
659.69	44.81
659.879	45.01
660.067	44.94
660.256	44.69
660.444	45.76
660.633	45.51
660.821	45.51
661.01	45.77
661.198	47.06
661.387	47.2
661.575	47.39
661.763	47.85
661.952	47.56
662.14	47.99
662.328	48.69
662.517	48.08
662.705	48.7
662.893	49.32
663.082	48.98
663.27	49.62
663.458	50.1
663.646	49.11
663.834	48.6
664.023	48.84
664.211	48.07
664.399	48.43
664.587	48.25
664.775	47.86
664.963	46.95
665.152	47.43
665.34	46.99
665.528	46.03
665.716	46.07
665.904	47.15
666.092	46.53
666.28	47.34
666.468	46.63
666.656	46.88
666.844	47.98
667.032	48.05
667.22	48.39
667.408	48.49
667.596	49.25
667.784	49.67
667.971	48.67
668.159	48.79
668.347	48.37
668.535	48.16
668.723	47.66
668.911	46.7
669.098	46.52
669.286	45.42
669.474	45.43
669.662	44.98
669.849	44.23
670.037	44.78
670.225	44.32
670.413	43.69
670.6	43.2
670.788	43.01
670.976	43.16
671.163	43.11
671.351	43.86
671.538	43.88
671.726	44.61
671.913	44.67
672.101	44.55
672.289	45.39
672.476	45.87
672.664	46.96
672.851	46.54
673.039	47.29
673.226	48.07
673.413	48.05
673.601	48.78
673.788	47.98
673.976	48.33
674.163	48.25
674.35	47.43
674.538	48.11
674.725	47.71
674.912	48.13
675.1	48.17
675.287	48.15
675.474	47.63
675.662	47.47
675.849	48.14
676.036	47.89
676.223	47.98
676.411	48.26
676.598	48.2
676.785	49.04
676.972	48.99
677.159	48.68
677.346	47.15
677.533	48.29
677.721	47.05
677.908	46.83
678.095	47.06
678.282	47.08
678.469	46.63
678.656	46.32
678.843	45.35
679.03	45.84
679.217	45.46
679.404	46.3
679.591	46.01
679.778	47.31
679.964	48.32
680.151	48.66
680.338	48.5
680.525	49.34
680.712	49.49
680.899	50.38
681.086	50.5
681.272	50.66
681.459	51.57
681.646	50.58
681.833	50.31
682.02	49.47
682.206	49.59
682.393	49.57
682.58	49.27
682.766	51.77
682.953	51.15
683.14	51.77
683.326	52.01
683.513	52.24
683.7	53.56
683.886	54.27
684.073	54.71
684.259	53.52
684.446	54.2
684.632	54.7
684.819	51.53
685.005	51.77
685.192	51.06
685.378	51.12
685.565	51.04
685.751	50.57
685.938	49.15
686.124	48.77
686.31	49.88
686.497	49.73
686.683	49.49
686.87	50.48
687.056	49.91
687.242	49.67
687.429	49.71
687.615	49.98
687.801	50.63
687.987	50.81
688.174	50.24
688.36	49.79
688.546	49.19
688.732	49.6
688.918	48.16
689.105	50.17
689.291	50.82
689.477	51.49
689.663	50.71
689.849	51.14
690.035	52.12
690.221	52.32
690.407	53.64
690.593	54.79
690.779	54.55
690.965	55.76
691.151	54.48
691.337	55.66
691.523	54.42
691.709	55.52
691.895	53.31
692.081	52.87
692.267	53.71
692.453	52.68
692.639	52.82
692.825	52.01
693.011	51.77
693.196	52.65
693.382	50.51
693.568	51.86
693.754	51.69
693.94	53.38
694.125	53.45
694.311	53.09
694.497	53.72
694.682	53.34
694.868	53.97
695.054	54.27
695.239	54.63
695.425	55.07
695.611	53.77
695.796	51.47
695.982	51.3
696.168	51.3
696.353	51.84
696.539	51.35
696.724	50.42
696.91	49.72
697.095	50.07
697.281	49.43
697.466	49.35
697.652	49.81
697.837	49.99
698.023	49.8
698.208	49.94
698.393	50.28
698.579	50.45
698.764	49.89
698.949	50.32
699.135	49.97
699.32	49.7
699.505	49.7
699.691	49.74
699.876	49.97
700.061	50.1
700.246	49.5
700.432	47.28
700.617	47.28
700.802	48.15
700.987	48.37
701.172	49.29
701.358	49.67
701.543	50.83
701.728	52.02
701.913	53.38
702.098	53.63
702.283	53.95
702.468	55.71
702.653	55.39
702.838	56.22
703.023	56.69
703.208	55.95
703.393	57.39
703.578	55.98
703.763	55.48
703.948	56.6
704.133	57.94
704.318	58.79
704.503	59.2
704.688	59.58
704.873	58.97
705.057	57.84
705.242	57.66
705.427	56.05
705.612	56.4
705.797	55.71
705.981	55.29
706.166	54.37
706.351	53.53
706.536	52.75
706.72	52.74
706.905	52.95
707.09	54.99
707.274	55.24
707.459	55.62
707.644	55.83
707.828	55.56
708.013	55.42
708.197	54.17
708.382	53.49
708.567	52.69
708.751	53.74
708.936	53.52
709.12	53.17
709.305	52.52
709.489	52.06
709.673	52.1
709.858	52.41
710.042	51.69
710.227	52.98
710.411	54.78
710.596	54.75
710.78	53.29
710.964	53.47
711.149	52.17
711.333	53.09
711.517	52.94
711.702	54.38
711.886	53.94
712.07	54.39
712.254	54.11
712.438	53.26
712.623	54.11
712.807	54.76
712.991	55.34
713.175	55.97
713.359	55.54
713.544	55.55
713.728	54.4
713.912	54.9
714.096	54.76
714.28	54.12
714.464	54.42
714.648	53.97
714.832	53.84
715.016	53.01
715.2	53.25
715.384	53.71
715.568	53.86
715.752	53.41
715.936	53.55
716.12	53.34
716.304	53.87
716.488	53.64
716.671	55.8
716.855	57.71
717.039	57.84
717.223	58.59
717.407	58.85
717.59	60.06
717.774	60.96
717.958	60.46
718.142	63.27
718.325	63.12
718.509	63.57
718.693	62.73
718.877	61.55
719.06	64.12
719.244	62.62
719.428	63.31
719.611	63.08
719.795	62.17
719.978	63.41
720.162	62.43
720.345	63.64
720.529	63.98
720.713	63.1
720.896	64.82
721.08	63.88
721.263	65.07
721.446	63.67
721.63	63.43
721.813	65.82
721.997	66.01
722.18	65.37
722.364	65.06
722.547	65.31
722.73	66.44
722.914	63.84
723.097	63.31
723.28	62.5
723.464	62.44
723.647	63.41
723.83	60.43
724.013	60.35
724.197	59.54
724.38	60.67
724.563	59.72
724.746	58.85
724.929	59.36
725.112	60.41
725.296	59.47
725.479	59.25
725.662	59.26
725.845	60.31
726.028	59.11
726.211	57.51
726.394	56.7
726.577	56.83
726.76	55.26
726.943	54.98
727.126	54.06
727.309	55.41
727.492	54.97
727.675	53.84
727.858	55
728.041	54.04
728.224	55.96
728.407	53.8
728.589	53.82
728.772	54.99
728.955	55.53
729.138	55.72
729.321	55.55
729.503	55.3
729.686	55.5
729.869	53.64
730.052	54.4
730.234	54.31
730.417	54.67
730.6	55.81
730.782	55.86
730.965	54.78
731.148	55.05
731.33	55.41
731.513	56.24
731.695	56.8
731.878	58.14
732.061	58.81
732.243	58.2
732.426	59.27
732.608	57.83
732.791	58.99
732.973	60.44
733.156	59.37
733.338	58.77
733.52	59.07
733.703	58.18
733.885	59.69
734.068	59.18
734.25	59.39
734.432	59.46
734.615	60.88
734.797	60.21
734.979	60.34
735.162	61.64
735.344	61.24
735.526	60.43
735.708	61.86
735.891	60.24
736.073	61.64
736.255	62.36
736.437	61.78
736.619	59.11
736.802	59.07
736.984	58.04
737.166	57.35
737.348	58.37
737.53	59.73
737.712	57.77
737.894	56.77
738.076	54.57
738.258	53.97
738.44	52.58
738.622	53.88
738.804	56.44
738.986	56.41
739.168	56.55
739.35	56.23
739.532	55.38
739.714	57.18
739.896	59
740.078	61.11
740.259	61.88
740.441	63.81
740.623	63.62
740.805	61.29
740.987	62.2
741.168	61.81
741.35	63.28
741.532	63.8
741.714	64.73
741.895	62.35
742.077	61.52
742.259	61.51
742.44	62.47
742.622	64.24
742.804	65.33
742.985	63.85
743.167	65.36
743.348	63.82
743.53	65.13
743.711	64.46
743.893	65.63
744.075	68.36
744.256	68.52
744.438	67.9
744.619	65.95
744.8	64.95
744.982	65.15
745.163	65.98
745.345	67.08
745.526	64.18
745.707	63.6
745.889	64.64
746.07	64.5
746.252	66.1
746.433	67.8
746.614	69.71
746.795	69.74
746.977	72.29
747.158	72.37
747.339	71.61
747.52	74.05
747.702	75.47
747.883	76.3
748.064	76.13
748.245	74.23
748.426	72.88
748.607	71.24
748.788	72.16
748.97	72.03
749.151	70.72
749.332	72.88
749.513	70.4
749.694	70.03
749.875	68.15
750.056	67.7
750.237	69.74
750.418	69.8
750.599	70.8
750.78	68.92
750.96	67.72
751.141	67.51
751.322	67.03
751.503	69.98
751.684	68.03
751.865	67.32
752.046	68.23
752.226	63.81
752.407	62.16
752.588	62.78
752.769	64.92
752.949	66.96
753.13	66.77
753.311	66.01
753.492	64.27
753.672	63.11
753.853	65.59
754.034	62.71
754.214	65.42
754.395	67.07
754.575	64.06
754.756	61.82
754.937	61.15
755.117	61.8
755.298	64.21
755.478	65.65
755.659	69.52
755.839	68.74
756.02	69.21
756.2	70.47
756.381	71.99
756.561	75.37
756.741	78.17
756.922	77.85
757.102	74.5
757.283	71.91
757.463	70.75
757.643	69.04
757.823	69.12
758.004	69.11
758.184	68.12
758.364	66.89
758.545	66.04
758.725	66.02
758.905	64.8
759.085	68.23
759.265	68.86
759.446	68.26
759.626	67.64
759.806	68.82
759.986	69.46
760.166	69.67
760.346	69.32
760.526	69.29
760.706	66.98
760.886	67.23
761.066	65.46
761.246	64.4
761.426	65.39
761.606	64.89
761.786	62.03
761.966	61.03
762.146	60.06
762.326	59.95
762.506	59.97
762.686	59.84
762.866	59.92
763.046	57.84
763.225	59.54
763.405	58.5
763.585	57.21
763.765	58.1
763.945	58.62
764.124	58.17
764.304	59.62
764.484	58.78
764.664	59.88
764.843	60.94
765.023	64.28
765.203	62.43
765.382	64.38
765.562	67.05
765.741	67.56
765.921	67.34
766.101	68.57
766.28	68.1
766.46	69.7
766.639	69.97
766.819	69.89
766.998	70.4
767.178	70.83
767.357	70.2
767.537	72.02
767.716	71.56
767.896	70.61
768.075	70.39
768.254	68.31
768.434	70.04
768.613	70.57
768.792	69.58
768.972	67.26
769.151	68.94
769.33	69.28
769.51	68.14
769.689	69.48
769.868	70.99
770.047	72.64
770.226	74.45
770.406	74.24
770.585	74.47
770.764	74.3
770.943	76.18
771.122	76.63
771.301	76
771.48	76.49
771.66	77.59
771.839	77.55
772.018	78.81
772.197	81.08
772.376	77.01
772.555	77.91
772.734	77.94
772.913	81
773.092	76.45
773.271	77.6
773.449	79.47
773.628	79.67
773.807	82.92
773.986	79.57
774.165	76.21
774.344	79.51
774.523	76.47
774.701	80.19
774.88	77.23
775.059	80.38
775.238	81.68
775.417	82.28
775.595	81.17
775.774	78.22
775.953	76.95
776.131	77.62
776.31	76.41
776.489	75.29
776.667	75.17
776.846	76.43
777.025	77.61
777.203	75.73
777.382	69.52
777.56	70.6
777.739	69.38
777.917	72.03
778.096	73.59
778.274	74.86
778.453	78.13
778.631	79
778.81	78.11
778.988	77.95
779.166	81.54
779.345	79.87
779.523	77.23
779.702	80
779.88	81.91
780.058	80.45
780.237	76.46
780.415	76.41
780.593	71.84
780.771	71.62
780.95	70.8
781.128	70.03
781.306	75.41
781.484	76.62
781.662	79.62
781.841	74.88
782.019	76.42
782.197	81.24
782.375	80.39
782.553	84.95
782.731	89.06
782.909	88.91
783.087	85.46
783.265	86.81
783.443	84.28
783.621	82.97
783.799	89.55
783.977	91.28
784.155	88.67
784.333	90.32
784.511	84.94
784.689	82.97
784.867	80.46
785.045	82.85
785.223	77.6
785.4	83.65
785.578	84.62
785.756	81.33
785.934	78.03
786.112	78
786.289	78.28
786.467	76.99
786.645	77.67
786.823	80.45
787	76.96
787.178	78.18
787.356	73.18
787.533	69.63
787.711	71.89
787.889	70.83
788.066	70.92
788.244	70.02
788.421	74.03
788.599	71.96
788.776	68.98
788.954	71.79
789.131	73.24
789.309	74.65
789.486	74.88
789.664	74.1
789.841	76.33
790.019	78.97
790.196	79.74
790.373	81.54
790.551	84.21
790.728	87.88
790.906	85.57
791.083	86.27
791.26	85
791.437	89.05
791.615	91.56
791.792	90.47
791.969	87.66
792.146	88.53
792.324	82.9
792.501	83.89
792.678	87.59
792.855	87.45
793.032	89.53
793.209	92.54
793.387	91.34
793.564	89.01
793.741	92.11
793.918	92.85
794.095	93.05
794.272	90.29
794.449	85.09
794.626	81.5
794.803	84.73
794.98	78.44
795.157	80.7
795.334	81.85
795.511	82.22
795.688	77.83
795.864	78.18
796.041	79.5
796.218	83.34
796.395	90.43
796.572	89.5
796.749	91.81
796.925	92.74
797.102	88.18
797.279	88.34
797.456	87.75
797.632	88.12
797.809	88.47
797.986	85.7
798.162	82.12
798.339	81.27
798.516	83.32
798.692	78.42
798.869	81.83
799.046	81.73
799.222	83.81
799.399	85.04
799.575	85.96
799.752	85.52
799.928	86.98
800.105	94.73
800.281	91.5
800.458	89.24
800.634	87.3
800.811	86.84
800.987	85.62
801.163	81.79
801.34	79.73
801.516	78.23
801.692	79.33
801.869	81.46
802.045	78.9
802.221	79.35
802.398	81.6
802.574	83.96
802.75	79.82
802.926	81.48
803.103	79.92
803.279	81.93
803.455	85.49
803.631	80.05
803.807	75.22
803.983	76.73
804.16	76.76
804.336	74.69
804.512	75.37
804.688	78.67
804.864	78
805.04	81.38
805.216	84.65
805.392	84.53
805.568	89.32
805.744	91.71
805.92	89.43
806.096	89.98
806.272	96.33
806.448	95.23
806.623	95.72
806.799	101.3
806.975	100.87
807.151	99.02
807.327	95.55
807.503	97.14
807.678	90.93
807.854	90.85
808.03	91.74
808.206	88.24
808.381	89.96
808.557	89.57
808.733	83.16
808.908	83.43
809.084	84.96
809.26	89.56
809.435	90.66
809.611	96.44
809.787	100.13
809.962	100.96
810.138	103.18
810.313	103.17
810.489	108
810.664	106.29
810.84	107.27
811.015	103.26
811.191	101.58
811.366	97.95
811.542	99.79
811.717	97.04
811.892	98.49
812.068	99.35
812.243	97.43
812.419	93.67
812.594	100.98
812.769	105.69
812.944	107.85
813.12	108.87
813.295	109.03
813.47	110.81
813.645	114.09
813.821	104.13
813.996	94.73
814.171	95.82
814.346	96.8
814.521	93.98
814.697	91.65
814.872	92.6
815.047	90.36
815.222	87.57
815.397	85.08
815.572	75.31
815.747	80.57
815.922	82.9
816.097	83.91
816.272	83.44
816.447	92.49
816.622	88
816.797	87.29
816.972	87.62
817.147	84.85
817.322	84.58
817.496	91.23
817.671	96.07
817.846	100.27
818.021	94.73
818.196	94.88
818.371	88.45
818.545	87.65
818.72	85.91
818.895	86.03
819.069	88.27
819.244	85.04
819.419	78.32
819.594	71.9
819.768	67.12
819.943	65.41
820.117	62.59
820.292	60.32
820.467	58.81
820.641	56.72
820.816	54.73
820.99	54.44
821.165	52.62
821.339	52.27
821.514	51.08
821.688	50.44
821.863	50.15
822.037	49.73
822.212	48.94
822.386	48.87
822.56	48.74
822.735	49.75
822.909	49.3
823.084	50.15
823.258	50.35
823.432	51.4
823.606	51.86
823.781	52.75
823.955	53.07
824.129	53.7
824.303	53.15
824.478	53.76
824.652	53.69
824.826	53.92
825	53.95
825.174	54.3
825.348	54.84
825.523	54.37
825.697	53.87
825.871	53.62
826.045	53.89
826.219	55.14
826.393	55.59
826.567	54.7
826.741	56.12
826.915	55.52
827.089	56.16
827.263	54.53
827.437	56.24
827.611	57.06
827.784	57.15
827.958	59.52
828.132	58.56
828.306	59.12
828.48	59.85
828.654	59.77
828.827	60.73
829.001	62.84
829.175	65.83
829.349	67.1
829.522	67.97
829.696	73.44
829.87	71.31
830.044	76.18
830.217	75.9
830.391	80.97
830.565	80.46
830.738	85.15
830.912	86.44
831.085	86.16
831.259	86.72
831.432	87.07
831.606	81.39
831.779	80.16
831.953	76.86
832.126	77.76
832.3	75.11
832.473	75.11
832.647	70.21
832.82	67.03
832.994	65.98
833.167	66.77
833.34	65.52
833.514	63.94
833.687	62.11
833.86	65.88
834.034	64.65
834.207	62.72
834.38	60.63
834.553	59.63
834.727	61.22
834.9	61.51
835.073	60.91
835.246	63.64
835.419	63.67
835.593	65.68
835.766	60.51
835.939	65.26
836.112	69.39
836.285	69.27
836.458	72.88
836.631	75.01
836.804	82.49
836.977	83.88
837.15	76.79
837.323	88.35
837.496	93.02
837.669	98.19
837.842	94.86
838.015	97.55
838.188	103.07
838.361	97.94
838.533	96.41
838.706	94.08
838.879	91.49
839.052	94.33
839.225	86
839.398	87.93
839.57	91.59
839.743	90.78
839.916	90.31
840.088	89.52
840.261	99.72
840.434	105.29
840.607	107.38
840.779	112.21
840.952	112.36
841.124	126.48
841.297	123
841.47	127.64
841.642	131.53
841.815	130.56
841.987	143.42
842.16	140.79
842.332	136.85
842.505	132.25
842.677	129.11
842.85	141.8
843.022	133.08
843.194	132.39
843.367	125.88
843.539	124.3
843.712	124.48
843.884	122.9
844.056	113.99
844.229	120.09
844.401	125.83
844.573	133.36
844.745	123.25
844.918	155.74
845.09	157.02
845.262	171.63
845.434	203.89
845.606	213.54
845.779	208.9
845.951	196.87
846.123	189.23
846.295	200.52
846.467	225.09
846.639	218.05
846.811	223.14
846.983	220.37
847.155	223.48
847.327	189.96
847.499	180.1
847.671	176.62
847.843	182.31
848.015	176.44
848.187	157.22
848.359	152.7
848.531	167.88
848.703	145.16
848.875	165.38
849.047	151.59
849.218	142.85
849.39	136.74
849.562	153.76
849.734	187.92
849.905	180.91
850.077	194.98
850.249	188.21
850.421	159.94
850.592	164.95
850.764	148.1
850.936	143.52
851.107	148.87
851.279	171.91
851.451	157.38
851.622	146.47
851.794	159.22
851.965	169.8
852.137	162.22
852.308	173.79
852.48	178.78
852.651	181.5
852.823	182.77
852.994	170.84
853.166	166.43
853.337	191.4
853.509	181.37
853.68	165.91
853.851	162.92
854.023	160.38
854.194	141.33
854.365	144.13
854.537	135.26
854.708	144.64
854.879	141.6
855.05	150.12
855.222	120.46
855.393	136.12
855.564	147.85
855.735	152.81
855.906	154.18
856.078	159.09
856.249	141.52
856.42	143.48
856.591	149.75
856.762	164.06
856.933	153.08
857.104	153.6
857.275	139.13
857.446	138.48
857.617	118.69
857.788	111.62
857.959	116.43
858.13	128.97
858.301	128.6
858.472	121.64
858.643	118.05
858.814	124.55
858.985	149.89
859.155	209.53
859.326	198.11
859.497	228.2
859.668	389.76
859.839	353.31
860.009	253.91
860.18	295.23
860.351	273.05
860.522	248.56
860.692	222.85
860.863	184.46
861.034	158.91
861.204	167.24
861.375	157.16
861.546	146.93
861.716	142.82
861.887	153.9
862.057	174.03
862.228	178.96
862.398	171.2
862.569	191.36
862.739	219.34
862.91	196.28
863.08	199.04
863.251	209.11
863.421	210.39
863.592	240.08
863.762	223.16
863.932	183.48
864.103	182.25
864.273	193.48
864.443	155.51
864.614	145.95
864.784	151.85
864.954	156.09
865.125	177.21
865.295	163.14
865.465	198.56
865.635	205.74
865.805	187.48
865.976	215.98
866.146	190.72
866.316	252.33
866.486	289.83
866.656	288.05
866.826	291.54
866.996	249.39
867.166	304.67
867.336	221.1
867.506	160.71
867.676	155.49
867.846	143.44
868.016	152.32
868.186	131.87
868.356	127.73
868.526	128.88
868.696	124.63
868.866	126.86
869.036	123.35
869.206	121.79
869.376	119.39
869.545	124.53
869.715	133.33
869.885	138.29
870.055	137.91
870.224	130.01
870.394	135.46
870.564	152.07
870.734	148.59
870.903	171.2
871.073	171.7
871.243	204.94
871.412	204.26
871.582	178.25
871.751	182.3
871.921	187.45
872.091	219.01
872.26	171.61
872.43	152.11
872.599	154.81
872.769	143.13
872.938	158.82
873.108	134.79
873.277	121.85
873.446	132.61
873.616	136.97
873.785	152.23
873.955	156.87
874.124	152.06
874.293	143.69
874.463	136.99
874.632	142.45
874.801	142.57
874.971	160.81
875.14	222.81
875.309	204.13
875.478	162.66
875.647	134.81
875.817	127.91
875.986	146.13
876.155	154.06
876.324	155.75
876.493	142.31
876.662	135.38
876.831	133.88
877	118.49
877.17	122.98
877.339	126.57
877.508	143.5
877.677	150.99
877.846	141.85
878.015	129.99
878.184	115.89
878.352	119.39
878.521	117.46
878.69	110.99
878.859	100.26
879.028	93.05
879.197	92.95
879.366	85.64
879.534	77.13
879.703	64.17
879.872	68.83
880.041	65.78
880.21	62.5
880.378	57.82
880.547	55.59
880.716	57.26
880.884	54.1
881.053	52.53
881.222	52.78
881.39	53.45
881.559	53.46
881.727	53.14
881.896	52.78
882.065	52.27
882.233	55.15
882.402	54.27
882.57	57.26
882.739	56.81
882.907	58.43
883.076	57.25
883.244	56.56
883.412	58.52
883.581	58.25
883.749	60.89
883.918	63.73
884.086	63.05
884.254	64.63
884.423	66.51
884.591	73.55
884.759	76.36
884.927	81.11
885.096	87.1
885.264	90.35
885.432	94.72
885.6	100.65
885.769	106.45
885.937	115.08
886.105	134.19
886.273	134.63
886.441	130.89
886.609	128.14
886.777	122.11
886.945	125.56
887.113	126.77
887.281	118.8
887.449	116.89
887.617	109.24
887.785	106.73
887.953	101.17
888.121	105.85
888.289	106.84
888.457	115.95
888.625	121.62
888.793	121.69
888.961	140.92
889.129	151.34
889.296	157.08
889.464	176.32
889.632	191.29
889.8	215.1
889.967	182.52
890.135	194.57
