Data from JASIL_2935_Reflection_1.txt Node
Date: Sat Nov 07 21:00:24 EST 2015
User: Geneva
Spectrometer: USB4E03002
Autoset integration time: false
Trigger mode: 4
Integration Time (sec): 1.000000E-1
Scans to average: 10
Electric dark correction enabled: true
Nonlinearity correction enabled: false
Boxcar width: 5
Stray light correction enabled: false
XAxis mode: Wavelengths
Stop averaging: false
Number of Pixels in Spectrum: 3648
>>>>>Begin Spectral Data<<<<<
177.575	-681.73
177.794	-309.85
178.014	-313.74
178.233	-8.4
178.452	7.59
178.672	76.35
178.891	71.41
179.11	0
179.33	362.77
179.549	-431.28
179.768	357.92
179.987	-296.37
180.207	-38.42
180.426	22.72
180.645	38.48
180.864	46.69
181.084	45.72
181.303	32
181.522	38.13
181.741	42.74
181.96	36.79
182.179	49.98
182.398	41.3
182.618	31.25
182.837	28.44
183.056	14.54
183.275	-2.52
183.494	-7.79
183.713	9.36
183.932	-12.6
184.151	-48.51
184.37	-13.51
184.589	-24.92
184.808	-19.27
185.027	-13.72
185.246	-13.67
185.465	-12.83
185.684	-1.64
185.903	-1.24
186.122	-1.06
186.341	-0.48
186.56	13.49
186.779	-8.75
186.998	0.13
187.216	17.88
187.435	19.8
187.654	-1.69
187.873	11.17
188.092	-7.97
188.311	-12.64
188.53	-1.41
188.748	12.06
188.967	-0.78
189.186	21.55
189.405	26.55
189.623	7.37
189.842	26.61
190.061	35.57
190.28	20.97
190.498	24.72
190.717	46.08
190.936	28.33
191.154	-8.26
191.373	-18.45
191.592	-27.12
191.81	-50.55
192.029	-47.44
192.248	-104
192.466	-54.87
192.685	-41.84
192.904	-29.52
193.122	-34.69
193.341	-28.81
193.559	2.45
193.778	9.25
193.996	14.32
194.215	14.55
194.433	9.9
194.652	13.62
194.87	13.98
195.089	24.15
195.307	32.29
195.526	37.65
195.744	40.09
195.963	39.95
196.181	36.11
196.399	19.93
196.618	37.12
196.836	51.05
197.055	57.82
197.273	56.66
197.491	72.53
197.71	72.65
197.928	66.51
198.146	53.39
198.365	33.54
198.583	50.51
198.801	55.79
199.019	42.68
199.238	26.25
199.456	18.09
199.674	5.36
199.892	-10.88
200.111	-62.11
200.329	-33.3
200.547	-37.25
200.765	-31.8
200.983	-64.2
201.202	-46.99
201.42	-29.08
201.638	-29.77
201.856	-38.92
202.074	-16.11
202.292	-10.88
202.51	-1.86
202.728	-13.75
202.946	-26.13
203.165	-25.68
203.383	-13.19
203.601	-24.14
203.819	-34.68
204.037	-23.92
204.255	-1.87
204.473	0.92
204.691	-9.79
204.909	-11.87
205.127	18.74
205.345	25.07
205.562	17.71
205.78	16.93
205.998	19.39
206.216	19.76
206.434	12.11
206.652	18.17
206.87	11.3
207.088	18.88
207.306	20.63
207.523	8.66
207.741	3.6
207.959	11.03
208.177	0.38
208.395	-23.82
208.612	-45.98
208.83	-14.55
209.048	-32.79
209.266	-54.36
209.483	-66.57
209.701	-61.35
209.919	-65.69
210.136	-58.63
210.354	-13.32
210.572	10.63
210.79	27.07
211.007	41.19
211.225	35.71
211.442	47.6
211.66	55.71
211.878	59.84
212.095	119.39
212.313	116.18
212.53	115.72
212.748	115.21
212.966	113.27
213.183	103.64
213.401	98.27
213.618	98.45
213.836	100.12
214.053	93.14
214.271	81.55
214.488	12.59
214.705	8.37
214.923	3.47
215.14	-0.66
215.358	-4.82
215.575	1.4
215.793	1.28
216.01	-4.06
216.227	-10.59
216.445	-13.02
216.662	-6.73
216.879	-2.35
217.097	-7.73
217.314	-3.1
217.531	-1.54
217.749	-0.75
217.966	-2.39
218.183	-3.26
218.4	-5.82
218.618	-2.54
218.835	8.31
219.052	10.26
219.269	10.34
219.487	16.78
219.704	17.15
219.921	14.93
220.138	16.2
220.355	12.17
220.572	11.52
220.79	9.75
221.007	17.83
221.224	15.44
221.441	14.6
221.658	11.28
221.875	11.19
222.092	6.81
222.309	8.77
222.526	5.72
222.743	8.18
222.96	5.93
223.177	12.31
223.394	5.88
223.611	6.1
223.828	4.41
224.045	6.76
224.262	5.41
224.479	7.1
224.696	4.85
224.913	6.77
225.13	9.11
225.347	8.84
225.564	7.75
225.781	8.39
225.997	9.5
226.214	8.64
226.431	8.47
226.648	8.22
226.865	8.2
227.082	9
227.298	8.89
227.515	8.18
227.732	8.09
227.949	8.42
228.165	8.07
228.382	7.18
228.599	7.14
228.816	7.27
229.032	7.24
229.249	7.47
229.466	6.86
229.682	6.77
229.899	7.21
230.116	7.52
230.332	8.02
230.549	9.71
230.765	11.81
230.982	11.91
231.199	12.33
231.415	11.98
231.632	11.13
231.848	12.08
232.065	12.59
232.281	12.45
232.498	12.86
232.714	11.5
232.931	9.12
233.147	8.37
233.364	9.57
233.58	9.97
233.797	10.15
234.013	11.15
234.23	10.5
234.446	10.78
234.662	10.67
234.879	10.93
235.095	10.8
235.312	11.25
235.528	10.72
235.744	9.91
235.961	8.67
236.177	9.08
236.393	8.61
236.61	9.57
236.826	8.63
237.042	8.24
237.258	8.07
237.475	8.6
237.691	8.64
237.907	9.14
238.123	9.58
238.339	10.69
238.556	10.65
238.772	10.24
238.988	10.12
239.204	10.56
239.42	10.95
239.636	10.95
239.853	10.44
240.069	10.47
240.285	10.18
240.501	9.69
240.717	9.34
240.933	9.51
241.149	9.9
241.365	9.98
241.581	10.01
241.797	9.92
242.013	9.7
242.229	10.18
242.445	10.28
242.661	10.19
242.877	10.61
243.093	10.95
243.309	11.23
243.525	10.9
243.741	10.6
243.957	10.69
244.173	10.6
244.388	10.48
244.604	10.08
244.82	10.2
245.036	9.89
245.252	9.71
245.468	9.6
245.683	9.43
245.899	9.71
246.115	9.56
246.331	9.53
246.547	9.5
246.762	9.5
246.978	9.4
247.194	9.19
247.409	9.35
247.625	9.21
247.841	9.17
248.057	9.12
248.272	8.64
248.488	8.53
248.703	8.14
248.919	8.07
249.135	8.12
249.35	7.95
249.566	8.15
249.782	8.02
249.997	8.46
250.213	8.54
250.428	8.67
250.644	8.8
250.859	9.05
251.075	9.36
251.29	9.21
251.506	8.95
251.721	9.18
251.937	8.92
252.152	9.2
252.368	8.77
252.583	8.65
252.798	8.7
253.014	8.79
253.229	9.2
253.445	8.88
253.66	9.06
253.875	8.79
254.091	8.28
254.306	8.71
254.521	8.49
254.737	8.96
254.952	8.72
255.167	8.16
255.383	8.4
255.598	7.94
255.813	7.56
256.028	7.27
256.244	7.69
256.459	7.68
256.674	7.53
256.889	7.34
257.104	7
257.32	6.89
257.535	6.83
257.75	6.57
257.965	6.36
258.18	6.52
258.395	6.5
258.61	6.41
258.826	6.63
259.041	6.52
259.256	6.51
259.471	6.63
259.686	6.72
259.901	6.74
260.116	6.86
260.331	7.1
260.546	7.26
260.761	7.48
260.976	7.8
261.191	7.69
261.406	7.67
261.621	7.68
261.836	7.35
262.05	7.09
262.265	7.16
262.48	7.08
262.695	6.84
262.91	6.78
263.125	6.39
263.34	6.17
263.555	6.09
263.769	5.92
263.984	6.27
264.199	6.85
264.414	6.93
264.629	6.6
264.843	6.53
265.058	6.58
265.273	6.5
265.488	6.46
265.702	6.25
265.917	6.67
266.132	7
266.346	6.69
266.561	6.58
266.776	6.83
266.99	7.19
267.205	7.29
267.42	7.15
267.634	7.23
267.849	7.48
268.063	7.42
268.278	6.84
268.492	6.57
268.707	6.72
268.922	6.72
269.136	6.59
269.351	6.5
269.565	6.55
269.78	6.47
269.994	6.1
270.209	5.93
270.423	6.23
270.637	6.4
270.852	6.41
271.066	6.28
271.281	6.33
271.495	6.46
271.709	6.18
271.924	5.94
272.138	5.88
272.353	6.13
272.567	5.95
272.781	5.79
272.996	5.92
273.21	5.86
273.424	5.87
273.638	5.7
273.853	5.49
274.067	5.59
274.281	5.73
274.495	5.86
274.71	5.59
274.924	5.68
275.138	5.62
275.352	5.54
275.566	5.55
275.781	5.72
275.995	5.92
276.209	6.09
276.423	6.19
276.637	6.16
276.851	6.27
277.065	6.48
277.279	6.62
277.493	7.02
277.707	7.03
277.921	7.26
278.135	7.18
278.349	6.87
278.563	6.49
278.777	6.31
278.991	6.47
279.205	6.69
279.419	6.59
279.633	6.62
279.847	6.33
280.061	6.4
280.275	6.27
280.489	6.18
280.703	6.16
280.917	6.02
281.131	6.21
281.344	5.96
281.558	5.63
281.772	5.61
281.986	5.64
282.2	5.49
282.414	5.33
282.627	5.28
282.841	5.39
283.055	5.42
283.269	5.57
283.482	5.36
283.696	5.54
283.91	5.79
284.123	5.92
284.337	5.77
284.551	5.77
284.764	5.64
284.978	5.9
285.192	5.73
285.405	5.77
285.619	5.97
285.833	5.84
286.046	5.82
286.26	5.67
286.473	5.36
286.687	5.41
286.9	5.46
287.114	5.63
287.327	5.48
287.541	5.63
287.754	5.72
287.968	5.51
288.181	5.89
288.395	5.75
288.608	5.6
288.822	5.85
289.035	5.99
289.248	5.92
289.462	6.09
289.675	6.14
289.889	6.03
290.102	6.05
290.315	5.95
290.529	5.89
290.742	5.95
290.955	5.94
291.169	5.95
291.382	5.64
291.595	5.7
291.808	5.32
292.022	5.35
292.235	5.28
292.448	5.38
292.661	5.58
292.875	5.6
293.088	5.64
293.301	5.91
293.514	5.76
293.727	6.04
293.94	6.21
294.153	6.48
294.367	6.31
294.58	6.34
294.793	6.11
295.006	6.14
295.219	6.31
295.432	6.28
295.645	6.38
295.858	6.25
296.071	6.24
296.284	6.02
296.497	5.9
296.71	5.99
296.923	6.12
297.136	6.15
297.349	6.21
297.562	6.05
297.775	6.07
297.988	6.04
298.201	6.26
298.414	6.23
298.626	6.41
298.839	6.57
299.052	6.67
299.265	6.46
299.478	6.43
299.691	6.14
299.903	6.17
300.116	6.18
300.329	6.08
300.542	5.98
300.755	6.11
300.967	6.13
301.18	6.01
301.393	5.91
301.605	6.1
301.818	6
302.031	6.26
302.243	6.28
302.456	6.61
302.669	6.63
302.881	6.89
303.094	6.63
303.307	6.79
303.519	6.95
303.732	7.12
303.944	7.19
304.157	7.33
304.37	7.56
304.582	7.55
304.795	7.28
305.007	7.36
305.22	7.26
305.432	7.42
305.645	7.23
305.857	7.16
306.069	7.21
306.282	7.2
306.494	7.36
306.707	7.09
306.919	7.23
307.132	7.07
307.344	7.01
307.556	7.03
307.769	7
307.981	7.11
308.193	7.16
308.406	6.73
308.618	6.71
308.83	6.57
309.043	6.69
309.255	6.63
309.467	6.77
309.679	6.89
309.892	6.83
310.104	6.97
310.316	6.82
310.528	6.72
310.74	7.08
310.953	7.25
311.165	7.44
311.377	7.22
311.589	7.09
311.801	7.11
312.013	7.17
312.225	7.28
312.437	7.08
312.649	7.3
312.862	7.55
313.074	7.33
313.286	7.22
313.498	7
313.71	7.32
313.922	7.53
314.134	7.76
314.346	7.52
314.558	7.48
314.77	7.72
314.982	7.61
315.193	7.49
315.405	7.4
315.617	7.2
315.829	7.39
316.041	7.46
316.253	7.35
316.465	7.02
316.677	7.07
316.888	7.19
317.1	7.13
317.312	7.29
317.524	7.44
317.736	7.83
317.947	8.08
318.159	8.38
318.371	8.28
318.583	8.49
318.794	8.86
319.006	9.03
319.218	9.01
319.43	9.24
319.641	9.29
319.853	9.3
320.064	9.32
320.276	9.6
320.488	9.33
320.699	9.54
320.911	9.63
321.123	9.87
321.334	9.91
321.546	9.8
321.757	9.64
321.969	9.67
322.18	9.66
322.392	9.55
322.603	9.35
322.815	9.55
323.026	9.63
323.238	9.62
323.449	9.63
323.661	9.56
323.872	9.95
324.083	10.13
324.295	10.15
324.506	10.33
324.718	10.64
324.929	10.88
325.14	11.18
325.352	11.16
325.563	11.41
325.774	11.28
325.986	11.53
326.197	11.52
326.408	11.69
326.62	11.86
326.831	12.09
327.042	12.17
327.253	12.25
327.464	12.35
327.676	12.57
327.887	12.7
328.098	12.9
328.309	13.18
328.52	13.49
328.732	13.89
328.943	14.17
329.154	14.44
329.365	14.54
329.576	14.86
329.787	14.8
329.998	15.02
330.209	15.47
330.42	15.88
330.631	16.04
330.842	16.06
331.053	16.06
331.264	16.17
331.475	16.21
331.686	16.39
331.897	16.57
332.108	16.67
332.319	16.74
332.53	16.59
332.741	16.57
332.952	16.57
333.163	16.79
333.374	16.88
333.585	16.67
333.795	16.74
334.006	16.83
334.217	16.85
334.428	17.01
334.639	17.13
334.849	17.32
335.06	17.35
335.271	17.41
335.482	17.38
335.692	17.39
335.903	17.51
336.114	17.35
336.325	17.55
336.535	17.41
336.746	17.17
336.957	17.29
337.167	17.21
337.378	17.02
337.589	16.96
337.799	16.95
338.01	16.94
338.22	17.13
338.431	17.24
338.642	16.95
338.852	17.02
339.063	17.25
339.273	17.17
339.484	17.27
339.694	17.46
339.905	17.46
340.115	17.47
340.326	17.34
340.536	17.58
340.746	17.64
340.957	17.83
341.167	17.87
341.378	17.85
341.588	17.84
341.799	17.56
342.009	17.5
342.219	17.63
342.43	17.77
342.64	17.81
342.85	17.51
343.061	17.47
343.271	17.49
343.481	17.5
343.691	17.53
343.902	17.42
344.112	17.36
344.322	17.41
344.532	17.32
344.743	17.2
344.953	17.12
345.163	17.15
345.373	17.02
345.583	16.85
345.793	16.86
346.004	16.82
346.214	16.8
346.424	16.99
346.634	17.07
346.844	17.04
347.054	16.97
347.264	17.15
347.474	17.15
347.684	17.19
347.894	17.32
348.104	17.16
348.314	17.04
348.524	17.13
348.734	17.1
348.944	16.93
349.154	16.95
349.364	16.92
349.574	16.79
349.784	16.71
349.994	16.72
350.204	16.6
350.413	16.61
350.623	16.72
350.833	16.56
351.043	16.5
351.253	16.56
351.463	16.5
351.672	16.14
351.882	16.11
352.092	16.1
352.302	15.98
352.511	15.92
352.721	15.93
352.931	15.86
353.141	15.85
353.35	15.79
353.56	15.83
353.77	15.91
353.979	16.29
354.189	16.39
354.399	16.65
354.608	16.84
354.818	16.85
355.027	17.03
355.237	16.96
355.447	17.04
355.656	17.07
355.866	16.98
356.075	16.8
356.285	16.67
356.494	16.61
356.704	16.39
356.913	16.24
357.123	16.13
357.332	15.88
357.542	16
357.751	16.07
357.96	15.96
358.17	15.96
358.379	16.14
358.589	16.19
358.798	16.24
359.007	16.19
359.217	16.17
359.426	16.29
359.635	16.34
359.845	16.16
360.054	16
360.263	16.12
360.472	16.05
360.682	15.99
360.891	15.91
361.1	15.84
361.309	15.82
361.519	15.86
361.728	15.85
361.937	15.82
362.146	15.86
362.355	15.86
362.564	15.79
362.774	15.79
362.983	15.63
363.192	15.6
363.401	15.53
363.61	15.52
363.819	15.5
364.028	15.41
364.237	15.33
364.446	15.34
364.655	15.28
364.864	15.24
365.073	15.34
365.282	15.43
365.491	15.48
365.7	15.57
365.909	15.52
366.118	15.62
366.327	15.64
366.536	15.65
366.745	15.62
366.954	15.62
367.162	15.6
367.371	15.4
367.58	15.42
367.789	15.33
367.998	15.18
368.207	15.39
368.415	15.29
368.624	15.2
368.833	15.21
369.042	15.24
369.25	15.24
369.459	15.33
369.668	15.38
369.877	15.35
370.085	15.42
370.294	15.4
370.503	15.26
370.711	15.22
370.92	15.2
371.129	15.17
371.337	15.18
371.546	15.09
371.754	15.06
371.963	15.09
372.171	15.01
372.38	14.95
372.589	15.01
372.797	14.96
373.006	14.91
373.214	14.87
373.423	14.89
373.631	14.76
373.84	14.88
374.048	14.73
374.256	14.63
374.465	14.62
374.673	14.67
374.882	14.61
375.09	14.62
375.298	14.57
375.507	14.66
375.715	14.66
375.923	14.61
376.132	14.42
376.34	14.33
376.548	14.32
376.757	14.41
376.965	14.42
377.173	14.53
377.381	14.6
377.59	14.63
377.798	14.61
378.006	14.46
378.214	14.47
378.423	14.53
378.631	14.63
378.839	14.63
379.047	14.64
379.255	14.53
379.463	14.43
379.671	14.23
379.879	14.16
380.088	14.09
380.296	14.21
380.504	14.32
380.712	14.42
380.92	14.53
381.128	14.52
381.336	14.47
381.544	14.44
381.752	14.41
381.96	14.45
382.168	14.53
382.376	14.52
382.584	14.4
382.791	14.38
382.999	14.31
383.207	14.2
383.415	14.15
383.623	14.22
383.831	14.27
384.039	14.3
384.247	14.31
384.454	14.44
384.662	14.53
384.87	14.58
385.078	14.57
385.285	14.57
385.493	14.58
385.701	14.65
385.909	14.6
386.116	14.59
386.324	14.57
386.532	14.58
386.739	14.34
386.947	14.19
387.155	14.13
387.362	14.06
387.57	14.09
387.778	14.13
387.985	14.19
388.193	14.12
388.4	14.19
388.608	14.11
388.816	14.09
389.023	14.12
389.231	14.1
389.438	14.11
389.646	14.07
389.853	14.02
390.061	13.92
390.268	13.85
390.475	13.86
390.683	13.8
390.89	13.84
391.098	13.83
391.305	13.94
391.512	13.97
391.72	14.01
391.927	13.99
392.135	14.05
392.342	14.03
392.549	14.01
392.756	13.89
392.964	13.83
393.171	13.79
393.378	13.73
393.586	13.57
393.793	13.59
394	13.49
394.207	13.57
394.414	13.56
394.622	13.62
394.829	13.55
395.036	13.62
395.243	13.64
395.45	13.77
395.657	13.78
395.864	13.83
396.072	13.92
396.279	13.99
396.486	13.92
396.693	13.88
396.9	13.89
397.107	13.88
397.314	13.86
397.521	13.86
397.728	13.74
397.935	13.74
398.142	13.72
398.349	13.63
398.556	13.65
398.763	13.68
398.97	13.68
399.177	13.69
399.383	13.77
399.59	13.78
399.797	13.73
400.004	13.73
400.211	13.78
400.418	13.76
400.625	13.8
400.831	13.71
401.038	13.66
401.245	13.6
401.452	13.55
401.658	13.54
401.865	13.59
402.072	13.62
402.279	13.65
402.485	13.62
402.692	13.69
402.899	13.65
403.105	13.8
403.312	13.85
403.519	13.81
403.725	13.88
403.932	13.91
404.138	13.84
404.345	13.84
404.552	13.84
404.758	13.87
404.965	13.89
405.171	13.88
405.378	13.73
405.584	13.81
405.791	13.88
405.997	13.86
406.204	13.84
406.41	13.85
406.617	13.89
406.823	13.87
407.029	13.82
407.236	13.82
407.442	13.81
407.649	14.03
407.855	14.05
408.061	14.1
408.268	14.06
408.474	14.05
408.68	14.14
408.887	14.09
409.093	14.1
409.299	14.08
409.505	14
409.712	14
409.918	13.88
410.124	13.75
410.33	13.73
410.537	13.75
410.743	13.76
410.949	13.74
411.155	13.84
411.361	13.88
411.567	13.84
411.773	13.79
411.98	13.86
412.186	13.79
412.392	13.8
412.598	13.68
412.804	13.69
413.01	13.65
413.216	13.57
413.422	13.54
413.628	13.5
413.834	13.59
414.04	13.68
414.246	13.73
414.452	13.75
414.658	13.77
414.864	13.84
415.07	13.82
415.275	13.84
415.481	13.86
415.687	13.73
415.893	13.74
416.099	13.72
416.305	13.66
416.511	13.64
416.716	13.64
416.922	13.67
417.128	13.65
417.334	13.66
417.539	13.65
417.745	13.65
417.951	13.69
418.157	13.72
418.362	13.74
418.568	13.77
418.774	13.75
418.979	13.76
419.185	13.73
419.391	13.75
419.596	13.72
419.802	13.71
420.008	13.69
420.213	14.06
420.419	14.01
420.624	13.97
420.83	13.97
421.035	13.96
421.241	13.96
421.446	14.02
421.652	14.04
421.857	14.02
422.063	14
422.268	14.01
422.474	13.69
422.679	13.7
422.885	13.74
423.09	13.73
423.295	13.74
423.501	13.73
423.706	13.66
423.911	13.63
424.117	13.64
424.322	13.66
424.527	13.69
424.733	13.66
424.938	13.68
425.143	13.67
425.349	13.67
425.554	13.68
425.759	13.68
425.964	13.71
426.169	13.75
426.375	13.78
426.58	13.76
426.785	13.72
426.99	13.72
427.195	13.71
427.4	13.69
427.605	13.7
427.811	13.74
428.016	13.78
428.221	13.75
428.426	13.75
428.631	13.73
428.836	13.74
429.041	13.72
429.246	13.74
429.451	13.77
429.656	13.76
429.861	13.77
430.066	13.76
430.271	13.7
430.476	13.73
430.681	13.67
430.886	13.66
431.09	13.69
431.295	13.69
431.5	13.65
431.705	13.69
431.91	13.64
432.115	13.59
432.32	13.56
432.524	13.59
432.729	13.55
432.934	13.56
433.139	13.62
433.343	13.67
433.548	13.7
433.753	13.75
433.958	13.69
434.162	13.72
434.367	13.73
434.572	13.73
434.776	13.71
434.981	13.75
435.186	13.73
435.39	13.66
435.595	13.63
435.799	13.6
436.004	13.57
436.209	13.56
436.413	13.6
436.618	13.64
436.822	13.66
437.027	13.67
437.231	13.66
437.436	13.69
437.64	13.71
437.845	13.71
438.049	13.74
438.253	13.72
438.458	13.74
438.662	13.75
438.867	13.75
439.071	13.77
439.275	13.77
439.48	13.79
439.684	13.79
439.888	13.79
440.093	13.78
440.297	13.77
440.501	13.77
440.706	13.76
440.91	13.74
441.114	13.69
441.318	13.67
441.523	13.68
441.727	13.67
441.931	13.69
442.135	13.69
442.339	13.65
442.543	13.63
442.748	13.62
442.952	13.59
443.156	13.57
443.36	13.6
443.564	13.59
443.768	13.6
443.972	13.53
444.176	13.51
444.38	13.49
444.584	13.52
444.788	13.53
444.992	13.55
445.196	13.56
445.4	13.57
445.604	13.56
445.808	13.52
446.012	13.48
446.216	13.49
446.42	13.45
446.624	13.46
446.828	13.42
447.032	13.41
447.235	13.41
447.439	13.41
447.643	13.44
447.847	13.46
448.051	13.49
448.254	13.53
448.458	13.54
448.662	13.63
448.866	13.61
449.069	13.66
449.273	13.7
449.477	13.69
449.681	13.67
449.884	13.69
450.088	13.67
450.292	13.67
450.495	13.64
450.699	13.66
450.902	13.62
451.106	13.66
451.31	13.62
451.513	13.63
451.717	13.59
451.92	13.57
452.124	13.46
452.327	13.48
452.531	13.5
452.734	13.5
452.938	13.54
453.141	13.52
453.345	13.52
453.548	13.54
453.752	13.49
453.955	13.49
454.158	13.53
454.362	13.58
454.565	13.53
454.769	13.52
454.972	13.49
455.175	13.43
455.379	13.44
455.582	13.42
455.785	13.38
455.988	13.4
456.192	13.39
456.395	13.3
456.598	13.34
456.801	13.34
457.005	13.32
457.208	13.32
457.411	13.32
457.614	13.29
457.817	13.29
458.021	13.31
458.224	13.34
458.427	13.38
458.63	13.46
458.833	13.42
459.036	13.44
459.239	13.43
459.442	13.45
459.645	13.47
459.848	13.5
460.051	13.49
460.254	13.52
460.457	13.5
460.66	13.54
460.863	13.55
461.066	13.58
461.269	13.62
461.472	13.67
461.675	13.7
461.878	13.75
462.081	13.72
462.284	13.73
462.486	13.69
462.689	13.69
462.892	13.61
463.095	13.59
463.298	13.55
463.5	13.47
463.703	13.41
463.906	13.37
464.109	13.33
464.311	13.37
464.514	13.37
464.717	13.37
464.92	13.41
465.122	13.45
465.325	13.48
465.528	13.51
465.73	13.5
465.933	13.53
466.135	13.57
466.338	13.56
466.541	13.54
466.743	13.53
466.946	13.6
467.148	13.56
467.351	13.54
467.553	13.51
467.756	13.54
467.958	13.57
468.161	13.61
468.363	13.56
468.566	13.54
468.768	13.53
468.971	13.54
469.173	13.51
469.375	13.5
469.578	13.54
469.78	13.49
469.983	13.44
470.185	13.42
470.387	13.4
470.59	13.38
470.792	13.41
470.994	13.49
471.196	13.47
471.399	13.46
471.601	13.49
471.803	13.4
472.005	13.45
472.208	13.45
472.41	13.46
472.612	13.47
472.814	13.51
473.016	13.53
473.218	13.46
473.421	13.46
473.623	13.44
473.825	13.43
474.027	13.49
474.229	13.45
474.431	13.49
474.633	13.5
474.835	13.47
475.037	13.42
475.239	13.41
475.441	13.44
475.643	13.43
475.845	13.46
476.047	13.5
476.249	13.47
476.451	13.51
476.653	13.51
476.855	13.52
477.057	13.53
477.258	13.58
477.46	13.58
477.662	13.59
477.864	13.62
478.066	13.62
478.268	13.61
478.469	13.66
478.671	13.63
478.873	13.53
479.075	13.58
479.276	13.58
479.478	13.57
479.68	13.52
479.882	13.5
480.083	13.55
480.285	13.59
480.487	13.56
480.688	13.54
480.89	13.57
481.091	13.59
481.293	13.55
481.495	13.54
481.696	13.51
481.898	13.52
482.099	13.52
482.301	13.49
482.502	13.47
482.704	13.49
482.905	13.5
483.107	13.47
483.308	13.47
483.51	13.49
483.711	13.51
483.913	13.55
484.114	13.54
484.315	13.55
484.517	13.58
484.718	13.59
484.92	13.58
485.121	13.58
485.322	13.61
485.524	13.62
485.725	13.61
485.926	13.59
486.127	13.57
486.329	13.58
486.53	13.59
486.731	13.57
486.932	13.56
487.134	13.54
487.335	13.53
487.536	13.54
487.737	13.54
487.938	13.52
488.139	13.52
488.341	13.5
488.542	13.5
488.743	13.48
488.944	13.49
489.145	13.5
489.346	13.52
489.547	13.54
489.748	13.55
489.949	13.55
490.15	13.58
490.351	13.59
490.552	13.61
490.753	13.59
490.954	13.59
491.155	13.59
491.356	13.58
491.557	13.58
491.758	13.6
491.959	13.59
492.159	13.61
492.36	13.61
492.561	13.6
492.762	13.59
492.963	13.61
493.164	13.62
493.364	13.61
493.565	13.64
493.766	13.69
493.967	13.67
494.167	13.67
494.368	13.68
494.569	13.68
494.769	13.7
494.97	13.75
495.171	13.76
495.371	13.75
495.572	13.79
495.773	13.8
495.973	13.78
496.174	13.79
496.375	13.83
496.575	13.84
496.776	13.84
496.976	13.83
497.177	13.87
497.377	13.91
497.578	13.96
497.778	13.94
497.979	13.96
498.179	13.98
498.38	13.96
498.58	13.97
498.78	13.95
498.981	13.97
499.181	13.96
499.382	13.91
499.582	13.91
499.782	13.9
499.983	13.92
500.183	13.96
500.383	13.96
500.584	13.98
500.784	13.99
500.984	14.02
501.184	14.07
501.385	14.14
501.585	14.16
501.785	14.16
501.985	14.18
502.185	14.18
502.386	14.13
502.586	14.14
502.786	14.15
502.986	14.2
503.186	14.22
503.386	14.21
503.586	14.22
503.786	14.22
503.987	14.27
504.187	14.31
504.387	14.36
504.587	14.36
504.787	14.37
504.987	14.45
505.187	14.41
505.387	14.42
505.587	14.46
505.786	14.49
505.986	14.47
506.186	14.44
506.386	14.48
506.586	14.51
506.786	14.59
506.986	14.62
507.186	14.6
507.386	14.65
507.585	14.69
507.785	14.65
507.985	14.67
508.185	14.77
508.384	14.83
508.584	14.78
508.784	14.79
508.984	14.78
509.183	14.8
509.383	14.85
509.583	14.88
509.782	14.9
509.982	14.92
510.182	14.91
510.381	14.94
510.581	14.94
510.781	14.96
510.98	15.02
511.18	15
511.379	15.02
511.579	15.05
511.778	15.06
511.978	15.1
512.177	15.14
512.377	15.2
512.576	15.22
512.776	15.29
512.975	15.34
513.175	15.4
513.374	15.48
513.573	15.52
513.773	15.53
513.972	15.55
514.172	15.57
514.371	15.67
514.57	15.67
514.77	15.71
514.969	15.65
515.168	15.7
515.367	15.7
515.567	15.74
515.766	15.75
515.965	15.75
516.164	15.82
516.364	15.86
516.563	15.87
516.762	15.95
516.961	15.98
517.16	16.08
517.359	16.12
517.559	16.12
517.758	16.16
517.957	16.2
518.156	16.26
518.355	16.3
518.554	16.35
518.753	16.35
518.952	16.36
519.151	16.42
519.35	16.45
519.549	16.49
519.748	16.56
519.947	16.62
520.146	16.66
520.345	16.7
520.544	16.72
520.743	16.73
520.942	16.78
521.141	16.83
521.339	16.85
521.538	16.88
521.737	16.93
521.936	16.95
522.135	16.97
522.333	17.02
522.532	17.07
522.731	17.14
522.93	17.18
523.129	17.21
523.327	17.26
523.526	17.29
523.725	17.28
523.923	17.32
524.122	17.33
524.321	17.38
524.519	17.4
524.718	17.4
524.917	17.39
525.115	17.42
525.314	17.48
525.512	17.5
525.711	17.57
525.909	17.59
526.108	17.61
526.306	17.65
526.505	17.68
526.703	17.71
526.902	17.76
527.1	17.8
527.299	17.85
527.497	17.87
527.696	17.9
527.894	17.91
528.092	17.95
528.291	17.96
528.489	18
528.688	18.05
528.886	18.09
529.084	18.13
529.283	18.18
529.481	18.19
529.679	18.22
529.877	18.26
530.076	18.3
530.274	18.33
530.472	18.41
530.67	18.45
530.869	18.45
531.067	18.48
531.265	18.49
531.463	18.51
531.661	18.55
531.859	18.6
532.057	18.64
532.255	18.65
532.454	18.68
532.652	18.67
532.85	18.68
533.048	18.7
533.246	18.72
533.444	18.75
533.642	18.79
533.84	18.8
534.038	18.84
534.236	18.9
534.434	18.94
534.632	18.99
534.83	19.03
535.027	19.08
535.225	19.11
535.423	19.17
535.621	19.19
535.819	19.22
536.017	19.25
536.215	19.24
536.412	19.22
536.61	19.22
536.808	19.24
537.006	19.28
537.203	19.31
537.401	19.34
537.599	19.32
537.797	19.39
537.994	19.39
538.192	19.45
538.39	19.54
538.587	19.57
538.785	19.63
538.983	19.7
539.18	19.77
539.378	19.8
539.575	19.83
539.773	19.89
539.97	19.89
540.168	19.94
540.366	19.92
540.563	19.91
540.761	19.95
540.958	19.98
541.155	19.99
541.353	20.02
541.55	20.05
541.748	20.08
541.945	20.08
542.143	20.09
542.34	20.12
542.537	20.19
542.735	20.26
542.932	20.26
543.129	20.29
543.327	20.34
543.524	20.35
543.721	20.38
543.919	20.41
544.116	20.46
544.313	20.57
544.51	20.59
544.708	20.61
544.905	20.6
545.102	20.64
545.299	20.68
545.496	20.66
545.693	20.67
545.891	20.68
546.088	20.71
546.285	20.72
546.482	20.7
546.679	20.71
546.876	20.75
547.073	20.79
547.27	20.89
547.467	20.93
547.664	20.99
547.861	21.03
548.058	21.08
548.255	21.1
548.452	21.15
548.649	21.2
548.846	21.24
549.043	21.29
549.24	21.28
549.437	21.23
549.633	21.25
549.83	21.23
550.027	21.29
550.224	21.32
550.421	21.34
550.618	21.36
550.814	21.37
551.011	21.41
551.208	21.47
551.405	21.52
551.601	21.57
551.798	21.58
551.995	21.68
552.191	21.65
552.388	21.66
552.585	21.73
552.781	21.79
552.978	21.84
553.175	21.84
553.371	21.82
553.568	21.86
553.764	21.88
553.961	21.97
554.157	21.96
554.354	22.02
554.55	22.1
554.747	22.09
554.943	22.1
555.14	22.12
555.336	22.19
555.533	22.22
555.729	22.27
555.926	22.31
556.122	22.24
556.318	22.29
556.515	22.29
556.711	22.29
556.907	22.32
557.104	22.36
557.3	22.41
557.496	22.46
557.693	22.51
557.889	22.52
558.085	22.59
558.281	22.65
558.478	22.68
558.674	22.75
558.87	22.72
559.066	22.85
559.262	22.85
559.459	22.83
559.655	22.82
559.851	22.78
560.047	22.76
560.243	22.76
560.439	22.78
560.635	22.78
560.831	22.82
561.027	22.89
561.223	22.86
561.419	22.93
561.615	22.99
561.811	23.03
562.007	23.14
562.203	23.2
562.399	23.26
562.595	23.35
562.791	23.32
562.987	23.36
563.183	23.42
563.379	23.51
563.575	23.49
563.771	23.57
563.966	23.6
564.162	23.66
564.358	23.72
564.554	23.75
564.75	23.76
564.945	23.87
565.141	23.87
565.337	23.93
565.533	23.95
565.728	24.02
565.924	23.99
566.12	24.01
566.315	24.04
566.511	24.05
566.707	24.05
566.902	24.1
567.098	24.07
567.293	24.15
567.489	24.17
567.684	24.16
567.88	24.14
568.076	24.2
568.271	24.24
568.467	24.25
568.662	24.27
568.858	24.35
569.053	24.41
569.248	24.49
569.444	24.46
569.639	24.44
569.835	24.48
570.03	24.58
570.225	24.57
570.421	24.62
570.616	24.62
570.812	24.64
571.007	24.64
571.202	24.64
571.397	24.66
571.593	24.72
571.788	24.77
571.983	24.84
572.178	24.82
572.374	24.87
572.569	24.89
572.764	24.95
572.959	25
573.154	25.02
573.35	25.06
573.545	25.1
573.74	25.12
573.935	25.11
574.13	25.1
574.325	25.12
574.52	25.1
574.715	25.07
574.91	25.07
575.105	25.14
575.3	25.17
575.495	25.17
575.69	25.16
575.885	25.16
576.08	25.15
576.275	25.15
576.47	25.14
576.665	25.2
576.86	25.29
577.055	25.35
577.25	25.28
577.444	25.36
577.639	25.4
577.834	25.41
578.029	25.49
578.224	25.53
578.418	25.57
578.613	25.62
578.808	25.63
579.003	25.63
579.197	25.63
579.392	25.67
579.587	25.63
579.781	25.62
579.976	25.62
580.171	25.57
580.365	25.64
580.56	25.67
580.755	25.68
580.949	25.7
581.144	25.66
581.338	25.68
581.533	25.69
581.727	25.63
581.922	25.67
582.116	25.73
582.311	25.77
582.505	25.76
582.7	25.76
582.894	25.82
583.089	25.82
583.283	25.85
583.478	25.81
583.672	25.85
583.866	25.98
584.061	26.02
584.255	26.04
584.449	26.02
584.644	26.06
584.838	26.09
585.032	26.09
585.226	26.12
585.421	26.12
585.615	26.13
585.809	26.16
586.003	26.13
586.198	26.1
586.392	26.09
586.586	26.15
586.78	26.1
586.974	26.06
587.168	26.13
587.363	26.09
587.557	26.12
587.751	26.14
587.945	26.17
588.139	26.18
588.333	26.23
588.527	26.23
588.721	26.29
588.915	26.3
589.109	26.33
589.303	26.32
589.497	26.42
589.691	26.47
589.885	26.56
590.079	26.64
590.273	26.68
590.466	26.71
590.66	26.77
590.854	26.73
591.048	26.78
591.242	26.83
591.436	26.84
591.629	26.82
591.823	26.85
592.017	26.79
592.211	26.65
592.404	26.61
592.598	26.55
592.792	26.57
592.986	26.6
593.179	26.68
593.373	26.63
593.567	26.55
593.76	26.59
593.954	26.57
594.147	26.62
594.341	26.71
594.535	26.77
594.728	26.77
594.922	26.77
595.115	26.76
595.309	26.77
595.502	26.82
595.696	26.85
595.889	26.82
596.083	26.81
596.276	26.75
596.47	26.73
596.663	26.76
596.856	26.79
597.05	26.77
597.243	26.81
597.437	26.84
597.63	26.9
597.823	26.91
598.017	26.9
598.21	26.82
598.403	26.95
598.596	26.97
598.79	26.96
598.983	26.98
599.176	26.98
599.369	26.97
599.563	26.87
599.756	26.8
599.949	26.78
600.142	26.8
600.335	26.95
600.528	26.89
600.722	26.92
600.915	27.01
601.108	27.07
601.301	27.14
601.494	27.19
601.687	27.22
601.88	27.23
602.073	27.32
602.266	27.36
602.459	27.35
602.652	27.33
602.845	27.31
603.038	27.24
603.231	27.22
603.424	27.21
603.617	27.18
603.809	27.21
604.002	27.28
604.195	27.33
604.388	27.32
604.581	27.3
604.774	27.36
604.966	27.43
605.159	27.45
605.352	27.51
605.545	27.57
605.737	27.63
605.93	27.61
606.123	27.54
606.316	27.46
606.508	27.49
606.701	27.57
606.894	27.62
607.086	27.55
607.279	27.54
607.471	27.51
607.664	27.46
607.857	27.45
608.049	27.52
608.242	27.54
608.434	27.55
608.627	27.61
608.819	27.53
609.012	27.5
609.204	27.42
609.397	27.47
609.589	27.47
609.782	27.49
609.974	27.51
610.166	27.55
610.359	27.59
610.551	27.6
610.743	27.63
610.936	27.73
611.128	27.78
611.32	27.96
611.513	28
611.705	28.02
611.897	28.01
612.09	27.96
612.282	27.9
612.474	27.79
612.666	27.85
612.858	27.78
613.051	27.74
613.243	27.66
613.435	27.57
613.627	27.51
613.819	27.48
614.011	27.49
614.203	27.45
614.395	27.44
614.588	27.49
614.78	27.38
614.972	27.37
615.164	27.37
615.356	27.38
615.548	27.39
615.74	27.4
615.932	27.38
616.124	27.37
616.315	27.45
616.507	27.38
616.699	27.46
616.891	27.49
617.083	27.5
617.275	27.62
617.467	27.6
617.659	27.54
617.85	27.47
618.042	27.5
618.234	27.52
618.426	27.44
618.618	27.56
618.809	27.55
619.001	27.58
619.193	27.66
619.384	27.62
619.576	27.66
619.768	27.72
619.959	27.77
620.151	27.74
620.343	27.73
620.534	27.81
620.726	27.73
620.917	27.72
621.109	27.76
621.301	27.59
621.492	27.49
621.684	27.47
621.875	27.47
622.067	27.48
622.258	27.5
622.45	27.63
622.641	27.69
622.832	27.76
623.024	27.82
623.215	27.84
623.407	27.96
623.598	28
623.789	28.01
623.981	27.99
624.172	28.07
624.363	27.97
624.555	27.83
624.746	27.8
624.937	27.75
625.129	27.69
625.32	27.58
625.511	27.62
625.702	27.63
625.893	27.73
626.085	27.79
626.276	27.79
626.467	27.84
626.658	27.94
626.849	28.01
627.04	28.05
627.231	28.07
627.422	28.22
627.614	28.22
627.805	28.28
627.996	28.24
628.187	28.19
628.378	28.14
628.569	28.21
628.76	28.11
628.951	27.99
629.142	27.99
629.332	28.02
629.523	27.98
629.714	28.02
629.905	28.02
630.096	28.01
630.287	28.03
630.478	28.06
630.669	28.05
630.859	28.14
631.05	28.2
631.241	28.22
631.432	28.16
631.623	28.22
631.813	28.13
632.004	28.03
632.195	28
632.385	27.96
632.576	27.95
632.767	27.97
632.957	27.98
633.148	27.98
633.339	27.95
633.529	28.04
633.72	27.99
633.91	27.96
634.101	28.03
634.292	28.02
634.482	28.06
634.673	28.02
634.863	28.05
635.054	28.01
635.244	28.02
635.435	28.13
635.625	28.01
635.815	28
636.006	28.03
636.196	27.99
636.387	28.02
636.577	28
636.767	28.07
636.958	28.05
637.148	28.01
637.338	27.97
637.529	27.93
637.719	27.93
637.909	27.93
638.099	27.99
638.29	27.99
638.48	28.02
638.67	28.01
638.86	27.94
639.05	27.95
639.241	28.12
639.431	28.09
639.621	28.05
639.811	28.11
640.001	28.04
640.191	27.95
640.381	27.95
640.571	27.93
640.761	27.95
640.951	27.98
641.141	27.89
641.331	27.71
641.521	27.73
641.711	27.73
641.901	27.66
642.091	27.71
642.281	27.81
642.471	27.85
642.661	27.87
642.851	27.88
643.041	27.79
643.231	27.86
643.42	27.96
643.61	27.96
643.8	27.92
643.99	28.05
644.18	28
644.369	28
644.559	28.05
644.749	28.07
644.939	28.06
645.128	28.1
645.318	28.15
645.508	28.15
645.697	28.13
645.887	28.23
646.076	28.21
646.266	28.19
646.456	28.16
646.645	28.08
646.835	27.94
647.024	27.98
647.214	28.08
647.403	28.07
647.593	28.15
647.782	28.33
647.972	28.22
648.161	28.2
648.351	28.32
648.54	28.38
648.73	28.35
648.919	28.57
649.108	28.51
649.298	28.4
649.487	28.41
649.677	28.28
649.866	28.13
650.055	28.19
650.244	28.14
650.434	28.14
650.623	28.1
650.812	28.04
651.002	27.95
651.191	27.86
651.38	27.88
651.569	27.87
651.758	27.89
651.947	27.89
652.137	27.84
652.326	27.85
652.515	27.82
652.704	27.78
652.893	27.95
653.082	27.94
653.271	28.15
653.46	28.22
653.649	28.19
653.838	28.12
654.027	28.14
654.216	28.19
654.405	28.16
654.594	28.17
654.783	28.23
654.972	28.18
655.161	28.16
655.35	28.06
655.539	28
655.728	27.98
655.916	28.03
656.105	28.14
656.294	28.05
656.483	28.06
656.672	28.2
656.86	28.26
657.049	28.27
657.238	28.26
657.427	28.27
657.615	28.23
657.804	28.2
657.993	28.21
658.181	28.08
658.37	28.11
658.559	28.21
658.747	28.13
658.936	28.05
659.125	27.92
659.313	27.97
659.502	28.01
659.69	28.09
659.879	28.13
660.067	28.11
660.256	28.18
660.444	28.27
660.633	28.17
660.821	28.07
661.01	28.19
661.198	28.28
661.387	28.22
661.575	28.2
661.763	28.28
661.952	28.34
662.14	28.34
662.328	28.36
662.517	28.33
662.705	28.35
662.893	28.4
663.082	28.3
663.27	28.39
663.458	28.39
663.646	28.36
663.834	28.23
664.023	28.19
664.211	28.13
664.399	28.08
664.587	28.04
664.775	27.95
664.963	27.91
665.152	27.81
665.34	27.74
665.528	27.81
665.716	27.81
665.904	27.88
666.092	27.97
666.28	28.14
666.468	28.22
666.656	28.27
666.844	28.4
667.032	28.48
667.22	28.68
667.408	28.68
667.596	28.72
667.784	28.8
667.971	28.78
668.159	28.69
668.347	28.66
668.535	28.54
668.723	28.45
668.911	28.4
669.098	28.33
669.286	28.21
669.474	28.25
669.662	28.14
669.849	28.1
670.037	27.95
670.225	27.95
670.413	27.96
670.6	28.04
670.788	28.06
670.976	28.06
671.163	28.21
671.351	28.16
671.538	28.13
671.726	28.3
671.913	28.3
672.101	28.33
672.289	28.36
672.476	28.35
672.664	28.34
672.851	28.31
673.039	28.33
673.226	28.26
673.413	28.27
673.601	28.25
673.788	28.09
673.976	28.08
674.163	28.2
674.35	28.11
674.538	27.98
674.725	28.02
674.912	28.15
675.1	28.21
675.287	28.25
675.474	28.31
675.662	28.44
675.849	28.54
676.036	28.6
676.223	28.67
676.411	28.73
676.598	28.8
676.785	28.79
676.972	28.64
677.159	28.6
677.346	28.58
677.533	28.55
677.721	28.52
677.908	28.51
678.095	28.48
678.282	28.44
678.469	28.37
678.656	28.43
678.843	28.49
679.03	28.59
679.217	28.73
679.404	28.7
679.591	28.73
679.778	28.6
679.964	28.48
680.151	28.47
680.338	28.4
680.525	28.55
680.712	28.53
680.899	28.47
681.086	28.49
681.272	28.24
681.459	28.21
681.646	28.2
681.833	28.27
682.02	28.34
682.206	28.37
682.393	28.45
682.58	28.35
682.766	28.28
682.953	28.24
683.14	28.14
683.326	28.37
683.513	28.49
683.7	28.49
683.886	28.64
684.073	28.55
684.259	28.43
684.446	28.41
684.632	28.49
684.819	28.51
685.005	28.6
685.192	28.58
685.378	28.61
685.565	28.46
685.751	28.35
685.938	28.22
686.124	28.31
686.31	28.33
686.497	28.33
686.683	28.32
686.87	28.41
687.056	28.28
687.242	28.36
687.429	28.25
687.615	28.25
687.801	28.39
687.987	28.28
688.174	28.35
688.36	28.49
688.546	28.47
688.732	28.41
688.918	28.26
689.105	28.31
689.291	28.2
689.477	28.27
689.663	28.38
689.849	28.36
690.035	28.48
690.221	28.43
690.407	28.22
690.593	28.29
690.779	28.38
690.965	28.56
691.151	28.58
691.337	28.77
691.523	28.72
691.709	28.69
691.895	28.71
692.081	28.71
692.267	28.79
692.453	28.85
692.639	28.78
692.825	28.67
693.011	28.57
693.196	28.65
693.382	28.59
693.568	28.53
693.754	28.55
693.94	28.46
694.125	28.45
694.311	28.46
694.497	28.53
694.682	28.52
694.868	28.69
695.054	28.8
695.239	28.82
695.425	28.75
695.611	28.85
695.796	28.77
695.982	28.76
696.168	28.72
696.353	28.77
696.539	28.68
696.724	28.58
696.91	28.56
697.095	28.57
697.281	28.45
697.466	28.48
697.652	28.42
697.837	28.48
698.023	28.62
698.208	28.75
698.393	28.69
698.579	28.81
698.764	28.88
698.949	28.82
699.135	28.76
699.32	28.85
699.505	28.8
699.691	28.78
699.876	28.78
700.061	28.76
700.246	28.65
700.432	28.56
700.617	28.58
700.802	28.71
700.987	28.72
701.172	28.64
701.358	28.49
701.543	28.67
701.728	28.77
701.913	28.76
702.098	28.76
702.283	28.76
702.468	28.82
702.653	28.61
702.838	28.56
703.023	28.61
703.208	28.73
703.393	28.83
703.578	28.74
703.763	28.61
703.948	28.63
704.133	28.57
704.318	28.35
704.503	28.53
704.688	28.7
704.873	28.75
705.057	28.79
705.242	28.8
705.427	28.78
705.612	28.83
705.797	28.94
705.981	29.03
706.166	29.11
706.351	29.27
706.536	29.09
706.72	28.98
706.905	28.83
707.09	28.8
707.274	28.75
707.459	28.77
707.644	28.76
707.828	28.76
708.013	28.66
708.197	28.74
708.382	28.75
708.567	28.8
708.751	28.88
708.936	28.73
709.12	28.64
709.305	28.67
709.489	28.75
709.673	28.64
709.858	28.6
710.042	28.69
710.227	28.55
710.411	28.42
710.596	28.44
710.78	28.37
710.964	28.51
711.149	28.6
711.333	28.49
711.517	28.51
711.702	28.63
711.886	28.62
712.07	28.48
712.254	28.61
712.438	28.75
712.623	28.77
712.807	28.98
712.991	29.1
713.175	29.03
713.359	29.17
713.544	29.1
713.728	29.14
713.912	29.15
714.096	29.33
714.28	29.15
714.464	29.09
714.648	28.93
714.832	28.79
715.016	28.78
715.2	28.74
715.384	28.73
715.568	28.73
715.752	28.62
715.936	28.62
716.12	28.54
716.304	28.55
716.488	28.59
716.671	28.71
716.855	28.64
717.039	28.51
717.223	28.59
717.407	28.47
717.59	28.38
717.774	28.36
717.958	28.45
718.142	28.28
718.325	28.24
718.509	28.27
718.693	28.28
718.877	28.27
719.06	28.33
719.244	28.29
719.428	28.34
719.611	28.54
719.795	28.53
719.978	28.63
720.162	28.81
720.345	28.83
720.529	28.85
720.713	28.9
720.896	28.97
721.08	28.93
721.263	28.83
721.446	28.82
721.63	28.89
721.813	28.96
721.997	28.67
722.18	28.75
722.364	28.8
722.547	28.86
722.73	28.88
722.914	28.94
723.097	28.85
723.28	29
723.464	29.02
723.647	28.8
723.83	28.77
724.013	28.84
724.197	28.77
724.38	28.87
724.563	28.83
724.746	28.83
724.929	28.77
725.112	28.7
725.296	28.7
725.479	28.62
725.662	28.53
725.845	28.54
726.028	28.44
726.211	28.4
726.394	28.39
726.577	28.29
726.76	28.13
726.943	28.06
727.126	28.15
727.309	28.13
727.492	28.26
727.675	28.24
727.858	28.24
728.041	28.33
728.224	28.34
728.407	28.33
728.589	28.09
728.772	28.26
728.955	28.58
729.138	28.65
729.321	28.63
729.503	28.53
729.686	28.62
729.869	28.64
730.052	28.6
730.234	28.78
730.417	28.74
730.6	29.01
730.782	28.95
730.965	28.74
731.148	28.76
731.33	28.77
731.513	28.95
731.695	28.88
731.878	28.93
732.061	28.98
732.243	28.88
732.426	28.72
732.608	28.78
732.791	28.74
732.973	28.61
733.156	28.63
733.338	28.62
733.52	28.37
733.703	28.56
733.885	28.44
734.068	28.21
734.25	28.19
734.432	28.52
734.615	28.62
734.797	28.61
734.979	28.49
735.162	28.37
735.344	28.45
735.526	28.68
735.708	28.6
735.891	28.9
736.073	29.22
736.255	29.14
736.437	28.94
736.619	28.64
736.802	28.64
736.984	28.79
737.166	28.86
737.348	28.86
737.53	28.78
737.712	28.76
737.894	28.48
738.076	28.33
738.258	28.22
738.44	28.24
738.622	28.32
738.804	28.29
738.986	28.12
739.168	28.12
739.35	28.07
739.532	28.07
739.714	28
739.896	27.95
740.078	28.04
740.259	28.02
740.441	27.91
740.623	28.18
740.805	28.24
740.987	28.61
741.168	28.52
741.35	28.47
741.532	28.59
741.714	28.78
741.895	28.93
742.077	28.9
742.259	29.01
742.44	29.04
742.622	28.66
742.804	28.8
742.985	28.42
743.167	28.42
743.348	28.51
743.53	28.53
743.711	28.29
743.893	27.87
744.075	27.89
744.256	27.71
744.438	27.71
744.619	27.9
744.8	27.73
744.982	28.27
745.163	28.27
745.345	28.18
745.526	28.07
745.707	28.04
745.889	28.42
746.07	28.76
746.252	28.99
746.433	29.02
746.614	28.94
746.795	29.1
746.977	28.62
747.158	28.73
747.339	28.81
747.52	28.95
747.702	29.03
747.883	28.9
748.064	28.66
748.245	28.38
748.426	28.35
748.607	28.28
748.788	27.88
748.97	27.87
749.151	28.07
749.332	28.04
749.513	27.81
749.694	27.71
749.875	27.99
750.056	28.03
750.237	28.17
750.418	28.2
750.599	27.97
750.78	28.27
750.96	28.49
751.141	28.36
751.322	28.56
751.503	28.34
751.684	28.54
751.865	28.5
752.046	28.82
752.226	28.91
752.407	29.07
752.588	29.34
752.769	29.68
752.949	29.69
753.13	29.77
753.311	29.7
753.492	29.9
753.672	29.79
753.853	29.5
754.034	29.35
754.214	29.45
754.395	29.06
754.575	29.16
754.756	28.22
754.937	28.13
755.117	28.22
755.298	28
755.478	28.14
755.659	28.43
755.839	28.55
756.02	28.29
756.2	27.91
756.381	27.89
756.561	27.98
756.741	28.73
756.922	28.69
757.102	28.46
757.283	28.66
757.463	28.5
757.643	28.45
757.823	28.72
758.004	28.55
758.184	28.76
758.364	29.05
758.545	29.04
758.725	28.78
758.905	29.09
759.085	29.05
759.265	28.79
759.446	28.73
759.626	28.66
759.806	28.43
759.986	28.59
760.166	28.62
760.346	28.57
760.526	28.62
760.706	28.54
760.886	28.48
761.066	28.38
761.246	28.62
761.426	28.64
761.606	28.44
761.786	28.56
761.966	28.59
762.146	28.47
762.326	28.44
762.506	28.2
762.686	28.37
762.866	28.16
763.046	28.22
763.225	28.08
763.405	28.12
763.585	28.21
763.765	28.1
763.945	28.02
764.124	27.95
764.304	28.04
764.484	28.31
764.664	28.23
764.843	28.36
765.023	28.42
765.203	28.55
765.382	28.67
765.562	28.64
765.741	28.88
765.921	29.07
766.101	29.3
766.28	29.24
766.46	29
766.639	29.11
766.819	28.72
766.998	28.83
767.178	28.7
767.357	28.49
767.537	28.39
767.716	28.15
767.896	27.82
768.075	27.55
768.254	27.56
768.434	27.97
768.613	27.53
768.792	27.79
768.972	27.66
769.151	27.82
769.33	28.01
769.51	28.15
769.689	28.06
769.868	28.4
770.047	28.91
770.226	29.02
770.406	28.72
770.585	29.01
770.764	28.8
770.943	28.96
771.122	28.72
771.301	28.65
771.48	28.81
771.66	28.91
771.839	28.7
772.018	28.69
772.197	28.41
772.376	28.42
772.555	28.57
772.734	29.08
772.913	28.97
773.092	29.34
773.271	29.18
773.449	28.89
773.628	29.13
773.807	29.22
773.986	28.74
774.165	28.89
774.344	28.85
774.523	28.71
774.701	28.72
774.88	28.35
775.059	27.91
775.238	28.12
775.417	28.36
775.595	28.02
775.774	28.17
775.953	28.65
776.131	28.32
776.31	28.4
776.489	28.4
776.667	28.36
776.846	28.62
777.025	28.88
777.203	28.46
777.382	28.45
777.56	28.31
777.739	28.16
777.917	27.93
778.096	28.57
778.274	28.58
778.453	28.95
778.631	28.87
778.81	28.63
778.988	28.09
779.166	28.65
779.345	28.31
779.523	28.66
779.702	28.47
779.88	28.76
780.058	28.31
780.237	28.27
780.415	28.09
780.593	28.09
780.771	28.29
780.95	29
781.128	28.97
781.306	29.38
781.484	29.46
781.662	29.88
781.841	29.63
782.019	29.49
782.197	29.85
782.375	29.57
782.553	29.47
782.731	30.1
782.909	29.85
783.087	29.76
783.265	29.54
783.443	29.39
783.621	29.1
783.799	29.03
783.977	29.09
784.155	28.25
784.333	28.45
784.511	28.81
784.689	28.24
784.867	28.91
785.045	28.51
785.223	28.48
785.4	28.05
785.578	28.15
785.756	28.29
785.934	28.26
786.112	28.82
786.289	28.67
786.467	28.19
786.645	28.4
786.823	27.44
787	27.89
787.178	28.11
787.356	28.24
787.533	28.45
787.711	28.94
787.889	29.15
788.066	29.34
788.244	29.35
788.421	29.42
788.599	29.16
788.776	29.72
788.954	29.61
789.131	29.63
789.309	29.79
789.486	29.45
789.664	29.23
789.841	29
790.019	28.77
790.196	28.93
790.373	29.05
790.551	29.18
790.728	28.9
790.906	29.31
791.083	28.24
791.26	27.85
791.437	27.87
791.615	27.44
791.792	27.6
791.969	27.58
792.146	27.5
792.324	27.59
792.501	27.8
792.678	27.81
792.855	27.08
793.032	27.6
793.209	28.04
793.387	28.05
793.564	27.91
793.741	27.86
793.918	28.02
794.095	27.93
794.272	27.71
794.449	27.73
794.626	28.22
794.803	28.03
794.98	28.06
795.157	27.79
795.334	28.21
795.511	28.02
795.688	27.92
795.864	27.61
796.041	28.15
796.218	28.07
796.395	28.01
796.572	27.33
796.749	27.83
796.925	28.34
797.102	28.82
797.279	28.55
797.456	29.13
797.632	28.91
797.809	28.69
797.986	28.41
798.162	28.95
798.339	28.79
798.516	29.19
798.692	29.03
798.869	29.46
799.046	28.85
799.222	28.58
799.399	28.22
799.575	29.12
799.752	29.3
799.928	28.48
800.105	27.95
800.281	27.9
800.458	28.1
800.634	28.18
800.811	27.76
800.987	28.13
801.163	27.92
801.34	27.98
801.516	27.64
801.692	27.38
801.869	28.06
802.045	28.51
802.221	28.65
802.398	28.1
802.574	28.53
802.75	28.54
802.926	28.56
803.103	28.05
803.279	28.22
803.455	27.93
803.631	28.34
803.807	28.47
803.983	28.52
804.16	28.25
804.336	28.66
804.512	28.22
804.688	28.31
804.864	27.89
805.04	28.81
805.216	28.85
805.392	28.48
805.568	28.31
805.744	28.26
805.92	27.76
806.096	27.66
806.272	27.37
806.448	27.21
806.623	26.19
806.799	26.59
806.975	26.51
807.151	26.23
807.327	25.99
807.503	26.76
807.678	26.7
807.854	27.42
808.03	28.14
808.206	27.71
808.381	28.02
808.557	28.91
808.733	29.01
808.908	29.52
809.084	29.34
809.26	29.72
809.435	29.17
809.611	28.88
809.787	28.34
809.962	27.45
810.138	27.64
810.313	27.55
810.489	27.24
810.664	26.78
810.84	26.03
811.015	26.36
811.191	26.21
811.366	26.18
811.542	25.95
811.717	26.01
811.892	26.92
812.068	27.3
812.243	27.63
812.419	27.69
812.594	27.98
812.769	28.44
812.944	28.44
813.12	28.4
813.295	27.9
813.47	28.39
813.645	28.99
813.821	28.78
813.996	28.94
814.171	28.45
814.346	28.59
814.521	28.68
814.697	28.27
814.872	28.78
815.047	29.37
815.222	29.56
815.397	29.45
815.572	28.6
815.747	28.91
815.922	28.74
816.097	28.54
816.272	28.05
816.447	27.72
816.622	28.21
816.797	27.16
816.972	27.71
817.147	27.85
817.322	28.08
817.496	27.89
817.671	27.15
817.846	27.14
818.021	27
818.196	27.19
818.371	27.27
818.545	27.11
818.72	27.72
818.895	27.41
819.069	27.92
819.244	28
819.419	28.5
819.594	28.92
819.768	29.04
819.943	29.18
820.117	29.19
820.292	29.21
820.467	29.09
820.641	29
820.816	28.91
820.99	28.77
821.165	28.67
821.339	28.55
821.514	28.36
821.688	28.22
821.863	28.15
822.037	28.13
822.212	28.09
822.386	28.08
822.56	27.95
822.735	27.9
822.909	27.85
823.084	27.67
823.258	27.69
823.432	27.78
823.606	27.68
823.781	27.67
823.955	27.62
824.129	27.51
824.303	27.45
824.478	27.49
824.652	27.49
824.826	27.42
825	27.82
825.174	27.63
825.348	27.68
825.523	27.88
825.697	27.61
825.871	27.65
826.045	27.67
826.219	27.8
826.393	28.2
826.567	28.14
826.741	28.23
826.915	28.12
827.089	28.39
827.263	28.2
827.437	28.29
827.611	28.69
827.784	28.68
827.958	28.78
828.132	28.62
828.306	28.11
828.48	27.92
828.654	28.03
828.827	27.96
829.001	27.66
829.175	27.79
829.349	27.77
829.522	27.73
829.696	27.86
829.87	27.94
830.044	28.34
830.217	28.61
830.391	28.93
830.565	28.84
830.738	28.45
830.912	28.4
831.085	28.85
831.259	28.96
831.432	28.71
831.606	28.34
831.779	28.39
831.953	28.12
832.126	28.45
832.3	28.53
832.473	28.22
832.647	28.48
832.82	28.29
832.994	28.14
833.167	27.97
833.34	27.64
833.514	27.58
833.687	27.63
833.86	27.55
834.034	27.27
834.207	27.23
834.38	27.17
834.553	26.98
834.727	27.31
834.9	26.86
835.073	26.95
835.246	27.06
835.419	27.34
835.593	27.72
835.766	28.06
835.939	28.29
836.112	28.67
836.285	29.17
836.458	29.88
836.631	29.43
836.804	29.69
836.977	29.05
837.15	29.4
837.323	29.41
837.496	28.82
837.669	28.15
837.842	27.35
838.015	26.97
838.188	25.96
838.361	25.72
838.533	25.53
838.706	25.88
838.879	26.62
839.052	27.08
839.225	27.66
839.398	27.04
839.57	26.34
839.743	26.37
839.916	27.04
840.088	26.89
840.261	27.32
840.434	28.23
840.607	28.71
840.779	28.13
840.952	28.39
841.124	28.15
841.297	28.41
841.47	29.34
841.642	29.4
841.815	27.81
841.987	28.43
842.16	27.92
842.332	26.42
842.505	25.24
842.677	26.26
842.85	25.61
843.022	24.41
843.194	25.29
843.367	25.63
843.539	26.27
843.712	27.05
843.884	28.2
844.056	27.57
844.229	28.28
844.401	29.08
844.573	28.19
844.745	27.12
844.918	28.51
845.09	26.6
845.262	26.87
845.434	28.2
845.606	27.47
845.779	26.55
845.951	28.01
846.123	27.97
846.295	27.68
846.467	28.88
846.639	29.52
846.811	28.04
846.983	28.11
847.155	27.04
847.327	25.94
847.499	27.51
847.671	26.02
847.843	25.65
848.015	25.76
848.187	26.22
848.359	25.01
848.531	24.84
848.703	26.3
848.875	29.2
849.047	30.66
849.218	30.07
849.39	27.22
849.562	30.31
849.734	28.28
849.905	29.42
850.077	30.33
850.249	30.75
850.421	32.21
850.592	30.76
850.764	28.81
850.936	28.84
851.107	28.78
851.279	29.75
851.451	28.28
851.622	30.14
851.794	29.61
851.965	27.82
852.137	27.74
852.308	26.06
852.48	25.93
852.651	25.15
852.823	24.62
852.994	26.57
853.166	28.17
853.337	28.86
853.509	28.68
853.68	30.21
853.851	32.29
854.023	31.1
854.194	30.88
854.365	32.81
854.537	33.43
854.708	32.22
854.879	30.96
855.05	31.68
855.222	30.9
855.393	29.08
855.564	26.55
855.735	24.12
855.906	24.38
856.078	24.7
856.249	26.53
856.42	23.92
856.591	25.87
856.762	25.16
856.933	24.03
857.104	23.38
857.275	25.67
857.446	26.6
857.617	25.06
857.788	26.04
857.959	26.7
858.13	23.53
858.301	24.25
858.472	23.2
858.643	20.46
858.814	21.4
858.985	23.25
859.155	24.02
859.326	23.81
859.497	25.67
859.668	25.87
859.839	26.58
860.009	27.14
860.18	28.62
860.351	28.86
860.522	31.07
860.692	32.15
860.863	29.9
861.034	27.3
861.204	28.66
861.375	28.58
861.546	27.69
861.716	24.9
861.887	24.46
862.057	24.83
862.228	24.9
862.398	24.25
862.569	22.92
862.739	23.9
862.91	24.92
863.08	23.96
863.251	23.71
863.421	21.79
863.592	23.57
863.762	24.19
863.932	24.89
864.103	24.39
864.273	25.23
864.443	26.06
864.614	27.43
864.784	26.66
864.954	26.46
865.125	27.8
865.295	32.41
865.465	31.73
865.635	31.7
865.805	31.08
865.976	29.36
866.146	27.93
866.316	26.17
866.486	24.69
866.656	22.49
866.826	20.83
866.996	20.83
867.166	18.92
867.336	20.39
867.506	21.99
867.676	22.3
867.846	24.55
868.016	24.92
868.186	22.69
868.356	23.23
868.526	25.73
868.696	26.6
868.866	27.68
869.036	24.97
869.206	22.93
869.376	19.94
869.545	18.68
869.715	17.66
869.885	20
870.055	22.95
870.224	21.73
870.394	22.5
870.564	22.95
870.734	19.82
870.903	22.43
871.073	23.91
871.243	28
871.412	28.73
871.582	32.3
871.751	32.6
871.921	32.48
872.091	30.46
872.26	30.89
872.43	30.07
872.599	29.79
872.769	28.22
872.938	28.98
873.108	26.88
873.277	26.84
873.446	25.71
873.616	23.85
873.785	21.63
873.955	23.45
874.124	23.83
874.293	24.73
874.463	25.48
874.632	26.22
874.801	23.47
874.971	23.69
875.14	25.08
875.309	22.78
875.478	24.08
875.647	27.53
875.817	28.21
875.986	25.97
876.155	26.25
876.324	26.7
876.493	28.04
876.662	30.26
876.831	29.36
877	28.01
877.17	29.52
877.339	30.79
877.508	29.41
877.677	30.41
877.846	32.03
878.015	30.7
878.184	32.59
878.352	32.18
878.521	30.88
878.69	30.95
878.859	31.04
879.028	31.13
879.197	30.27
879.366	30.01
879.534	30.08
879.703	29.29
879.872	29.2
880.041	29.35
880.21	28.99
880.378	28.91
880.547	28.84
880.716	28.93
880.884	28.13
881.053	27.93
881.222	27.47
881.39	26.98
881.559	27.19
881.727	27.4
881.896	26.89
882.065	26.47
882.233	26.61
882.402	26.62
882.57	26.39
882.739	26.78
882.907	27.1
883.076	27.82
883.244	28.04
883.412	28.46
883.581	28.84
883.749	28.94
883.918	29.84
884.086	30.28
884.254	30.08
884.423	30.12
884.591	30.58
884.759	29.74
884.927	29.13
885.096	28.74
885.264	28.33
885.432	26.76
885.6	25.93
885.769	25.38
885.937	24.35
886.105	24.73
886.273	25.24
886.441	25.7
886.609	27.71
886.777	27.56
886.945	28.9
887.113	28.19
887.281	29.5
887.449	32.58
887.617	31.69
887.785	30.51
887.953	30.96
888.121	29.85
888.289	26.84
888.457	26.09
888.625	26.4
888.793	23.9
888.961	21.96
889.129	21.05
889.296	19.8
889.464	20.03
889.632	21.63
889.8	20.35
889.967	21.77
890.135	24.45
