Data from JASIL_3335_Reflection_1.txt Node
Date: Tue Nov 17 20:20:32 EST 2015
User: Geneva
Spectrometer: USB4E03002
Autoset integration time: false
Trigger mode: 4
Integration Time (sec): 1.000000E-1
Scans to average: 10
Electric dark correction enabled: false
Nonlinearity correction enabled: false
Boxcar width: 5
Stray light correction enabled: false
XAxis mode: Wavelengths
Stop averaging: false
Number of Pixels in Spectrum: 3648
>>>>>Begin Spectral Data<<<<<
177.575	-328.71
177.794	-320.65
178.014	-235.96
178.233	-454.72
178.452	-500
178.672	-324.41
178.891	-850
179.11	5230
179.33	1319.57
179.549	1411.76
179.768	-6554.55
179.987	675.76
180.207	425.41
180.426	841.1
180.645	1080
180.864	7688.24
181.084	816.87
181.303	581.25
181.522	736.21
181.741	770.22
181.96	1192.93
182.179	6270.59
182.398	-1118.18
182.618	-388.56
182.837	-271.9
183.056	-236.07
183.275	-251.67
183.494	-65.55
183.713	-67.67
183.932	-55.28
184.151	-24.88
184.37	-29.29
184.589	-53.78
184.808	-30.43
185.027	-28.65
185.246	-98.64
185.465	-109.7
185.684	-153.66
185.903	-265.05
186.122	-347.08
186.341	-737.17
186.56	-470.83
186.779	-2781.48
186.998	-316.4
187.216	-406.67
187.435	-399.39
187.654	-354.55
187.873	-246.87
188.092	-275
188.311	-395.71
188.53	-232.61
188.748	-114.56
188.967	-130.64
189.186	-74.2
189.405	-227.48
189.623	-163.44
189.842	-153.35
190.061	-135.38
190.28	-77.01
190.498	-103.53
190.717	-80.04
190.936	-130.34
191.154	-457.14
191.373	-986.21
191.592	2283.72
191.81	892.23
192.029	877.89
192.248	480.39
192.466	525.41
192.685	211.58
192.904	498.51
193.122	342.86
193.341	403.36
193.559	470.06
193.778	523.2
193.996	425.12
194.215	1089.86
194.433	555
194.652	580.42
194.87	428.75
195.089	516.15
195.307	1173.68
195.526	-657.14
195.744	-445.32
195.963	-531.33
196.181	-722.31
196.399	-1098.85
196.618	1321.05
196.836	789.36
197.055	666.89
197.273	787.31
197.491	924.32
197.71	426.98
197.928	366.23
198.146	323.29
198.365	1335.71
198.583	852.38
198.801	-287.1
199.019	-53.49
199.238	-32.56
199.456	-33.33
199.674	-94.67
199.892	-79.51
200.111	-78.87
200.329	-85.22
200.547	-150
200.765	1325.49
200.983	-562.39
201.202	1057.89
201.42	389.29
201.638	298.26
201.856	480.34
202.074	616
202.292	357.5
202.51	269.67
202.728	377.06
202.946	2835.71
203.165	1765.38
203.383	355.96
203.601	522.34
203.819	780.91
204.037	-2354.55
204.255	-3125.93
204.473	-622.38
204.691	-554.12
204.909	-398.23
205.127	-1752.08
205.345	553.33
205.562	-502.33
205.78	-114.42
205.998	-76.13
206.216	-75.69
206.434	-98.95
206.652	-100.61
206.87	-200.6
207.088	-163.81
207.306	-309.83
207.523	-209.05
207.741	-165.95
207.959	-290.99
208.177	-324.87
208.395	-349.02
208.612	-362.5
208.83	-206.19
209.048	-255.1
209.266	-221.27
209.483	-105.7
209.701	-92.64
209.919	-97.45
210.136	-122.41
210.354	-131.59
210.572	-165.84
210.79	-217.67
211.007	-500.7
211.225	-5740
211.442	901.69
211.66	2524
211.878	308.31
212.095	992.15
212.313	1541.53
212.53	830.33
212.748	711.16
212.966	517.68
213.183	637.74
213.401	-7327.78
213.618	-470.24
213.836	-489.42
214.053	-613.76
214.271	-444.87
214.488	-182.14
214.705	-155.65
214.923	-116.62
215.14	-80.04
215.358	-62.2
215.575	-47.6
215.793	-128.6
216.01	-390.05
216.227	-604.31
216.445	-534.72
216.662	-229.31
216.879	-236.09
217.097	-116.28
217.314	-117.12
217.531	4800
217.749	418.81
217.966	296.15
218.183	190.66
218.4	249.68
218.618	316.45
218.835	195.18
219.052	196.69
219.269	225.59
219.487	154.24
219.704	170.08
219.921	183.7
220.138	237.93
220.355	227.09
220.572	222.36
220.79	203.35
221.007	233.65
221.224	325.86
221.441	328.03
221.658	367.09
221.875	-1694.29
222.092	-671.59
222.309	1681.82
222.526	348.48
222.743	329.95
222.96	366.19
223.177	1025.58
223.394	771.05
223.611	539.86
223.828	354.4
224.045	231.92
224.262	175
224.479	198.76
224.696	382.21
224.913	614.05
225.13	470.75
225.347	382.76
225.564	224.52
225.781	146.79
225.997	125.23
226.214	105.27
226.431	90.67
226.648	85.87
226.865	68.37
227.082	62.01
227.298	58.28
227.515	54.24
227.732	55.55
227.949	52.59
228.165	48.32
228.382	40.96
228.599	42.54
228.816	43.98
229.032	44.93
229.249	52.16
229.466	49.5
229.682	50.49
229.899	50.2
230.116	56.71
230.332	63.62
230.549	68.83
230.765	66.02
230.982	59.14
231.199	70.19
231.415	72
231.632	69.92
231.848	70.37
232.065	69.99
232.281	66.64
232.498	56.54
232.714	47.62
232.931	43.89
233.147	52.34
233.364	58.46
233.58	44.92
233.797	48.79
234.013	52.31
234.23	76.42
234.446	83.33
234.662	104.8
234.879	128.6
235.095	99.25
235.312	93.24
235.528	105.31
235.744	123.36
235.961	168.18
236.177	139.36
236.393	183.24
236.61	125.73
236.826	98.44
237.042	71.7
237.258	81.67
237.475	89.95
237.691	117.5
237.907	57.04
238.123	62.62
238.339	60.06
238.556	68.47
238.772	54.04
238.988	42.3
239.204	37.37
239.42	43.29
239.636	38.03
239.853	37.19
240.069	36.91
240.285	36.34
240.501	32.19
240.717	33.73
240.933	29.17
241.149	26.59
241.365	29.78
241.581	29.23
241.797	30.82
242.013	32.27
242.229	31.86
242.445	27.86
242.661	31.77
242.877	36.57
243.093	35.3
243.309	36.08
243.525	36.48
243.741	37.9
243.957	37.81
244.173	34.82
244.388	35.05
244.604	35.51
244.82	34.89
245.036	31.71
245.252	27.69
245.468	25.14
245.683	23.81
245.899	22.98
246.115	22.34
246.331	20.23
246.547	17.95
246.762	17.8
246.978	15.91
247.194	15.69
247.409	14.22
247.625	14.11
247.841	12.71
248.057	14.55
248.272	13.45
248.488	10.15
248.703	9.62
248.919	12.34
249.135	7.91
249.35	8.58
249.566	12.34
249.782	19.07
249.997	20.66
250.213	24.17
250.428	22.1
250.644	23.55
250.859	24.88
251.075	26.77
251.29	23.71
251.506	25.95
251.721	25.19
251.937	19.23
252.152	16.33
252.368	15.6
252.583	11.49
252.798	12.95
253.014	13
253.229	14.09
253.445	18.6
253.66	24.78
253.875	25.35
254.091	20.6
254.306	27.54
254.521	22.01
254.737	16.1
254.952	18.1
255.167	16.32
255.383	15.95
255.598	19.15
255.813	14.2
256.028	7.23
256.244	8.36
256.459	20.54
256.674	18.81
256.889	20.65
257.104	19.87
257.32	19.32
257.535	17.09
257.75	16.5
257.965	15.03
258.18	13.3
258.395	13.06
258.61	12.99
258.826	9.23
259.041	10.73
259.256	10.37
259.471	9.83
259.686	11.58
259.901	12.66
260.116	12.73
260.331	11.26
260.546	14.05
260.761	15.45
260.976	14.26
261.191	18.53
261.406	15.97
261.621	17.83
261.836	20.78
262.05	18.9
262.265	22.3
262.48	23.2
262.695	28.48
262.91	28.06
263.125	29.15
263.34	31.87
263.555	28.74
263.769	33.36
263.984	26.96
264.199	27.16
264.414	27.26
264.629	22.75
264.843	23.18
265.058	19.78
265.273	13.49
265.488	16.54
265.702	18.03
265.917	18.47
266.132	16.3
266.346	19.12
266.561	17.43
266.776	14.22
266.99	12.34
267.205	12.34
267.42	10.27
267.634	10.9
267.849	10.26
268.063	8.44
268.278	9.83
268.492	12.16
268.707	9.42
268.922	12.79
269.136	17.1
269.351	16.79
269.565	19.24
269.78	22.06
269.994	25.51
270.209	22.54
270.423	22.4
270.637	18.37
270.852	17.73
271.066	18.86
271.281	17.4
271.495	15.05
271.709	17.11
271.924	14.68
272.138	14.04
272.353	12.33
272.567	13.63
272.781	10.48
272.996	10.4
273.21	12.77
273.424	11.79
273.638	13.38
273.853	14.46
274.067	13.63
274.281	12.48
274.495	13.24
274.71	15.82
274.924	14.24
275.138	19.56
275.352	21.59
275.566	18.76
275.781	17.77
275.995	15.11
276.209	13.57
276.423	11.66
276.637	12.09
276.851	10.76
277.065	8.42
277.279	7.93
277.493	5.29
277.707	4.29
277.921	4.12
278.135	8.13
278.349	8.52
278.563	9.49
278.777	10.5
278.991	10.13
279.205	11.67
279.419	11.66
279.633	12.92
279.847	13.91
280.061	14.03
280.275	15.06
280.489	13.18
280.703	11.21
280.917	12.54
281.131	12.1
281.344	15.59
281.558	13.87
281.772	12.4
281.986	14.48
282.2	12.92
282.414	12.93
282.627	12.12
282.841	12.72
283.055	11.91
283.269	10.69
283.482	12.65
283.696	10.97
283.91	11.81
284.123	12.66
284.337	11.32
284.551	12.71
284.764	12.3
284.978	11.72
285.192	11.54
285.405	12.92
285.619	12.76
285.833	12.1
286.046	12.99
286.26	13.18
286.473	15.46
286.687	15.02
286.9	16.16
287.114	17.73
287.327	17.72
287.541	16.71
287.754	18.37
287.968	18.66
288.181	17.73
288.395	17.23
288.608	17.33
288.822	14.04
289.035	13.59
289.248	12.29
289.462	9.98
289.675	10.21
289.889	10.53
290.102	9.78
290.315	9.86
290.529	11.38
290.742	11.49
290.955	11.93
291.169	13.33
291.382	13.73
291.595	13.4
291.808	15.37
292.022	17.2
292.235	18.05
292.448	17.25
292.661	17.86
292.875	17.64
293.088	16.84
293.301	15.08
293.514	15.1
293.727	13.72
293.94	13.17
294.153	12.29
294.367	11.97
294.58	11.48
294.793	11.05
295.006	10.2
295.219	9.06
295.432	7.82
295.645	10.2
295.858	10.28
296.071	11.22
296.284	10.77
296.497	11.58
296.71	11.62
296.923	10.45
297.136	10.84
297.349	11.38
297.562	11.37
297.775	11.34
297.988	10.01
298.201	9.99
298.414	10.73
298.626	10.74
298.839	9.91
299.052	9.43
299.265	11.76
299.478	11.95
299.691	12.08
299.903	12.69
300.116	13.44
300.329	11.74
300.542	13.53
300.755	13.66
300.967	14.29
301.18	16.37
301.393	16.5
301.605	16.29
301.818	16.34
302.031	16.51
302.243	16.31
302.456	15.77
302.669	17.32
302.881	16.28
303.094	16.6
303.307	16.27
303.519	15.35
303.732	15.9
303.944	15.43
304.157	16.7
304.37	17.63
304.582	17.82
304.795	18.94
305.007	18.66
305.22	17.9
305.432	18.25
305.645	19.66
305.857	18.82
306.069	15.7
306.282	14.32
306.494	13.23
306.707	11.09
306.919	10.03
307.132	10.1
307.344	9.8
307.556	8.95
307.769	6.59
307.981	6.34
308.193	5.36
308.406	5.92
308.618	5.83
308.83	6.68
309.043	7.97
309.255	8.37
309.467	8.35
309.679	6.76
309.892	8.32
310.104	10.05
310.316	10.63
310.528	12.18
310.74	12.25
310.953	13.25
311.165	12.87
311.377	13.92
311.589	14.64
311.801	14.37
312.013	15.18
312.225	14.76
312.437	13.84
312.649	12
312.862	12.57
313.074	12.97
313.286	13.7
313.498	12.73
313.71	9.83
313.922	8.81
314.134	9.21
314.346	10.74
314.558	10.76
314.77	9.78
314.982	11.2
315.193	9.05
315.405	10.31
315.617	8.49
315.829	9.76
316.041	11.36
316.253	11.47
316.465	11.76
316.677	12.21
316.888	13.47
317.1	13.71
317.312	14.95
317.524	16.67
317.736	18.52
317.947	18.07
318.159	19.59
318.371	20.88
318.583	20.57
318.794	20.8
319.006	20.37
319.218	18.85
319.43	19.6
319.641	20.76
319.853	21.42
320.064	18.85
320.276	21.54
320.488	21.37
320.699	20.05
320.911	21.8
321.123	20.88
321.334	21.18
321.546	20.37
321.757	21.62
321.969	20.09
322.18	18.73
322.392	17.99
322.603	16.65
322.815	13.4
323.026	12.59
323.238	12.23
323.449	11.2
323.661	10.97
323.872	11.11
324.083	11.11
324.295	9.52
324.506	9.64
324.718	9.91
324.929	11.51
325.14	14.11
325.352	14.32
325.563	14.98
325.774	15.59
325.986	14.97
326.197	15.9
326.408	15.15
326.62	16.93
326.831	17.47
327.042	17.94
327.253	17.72
327.464	16.59
327.676	17.46
327.887	15.59
328.098	16.73
328.309	16.69
328.52	16.9
328.732	16.48
328.943	16
329.154	15.7
329.365	15.87
329.576	14.39
329.787	14.66
329.998	15.8
330.209	17.75
330.42	17.36
330.631	17.91
330.842	18.95
331.053	19.94
331.264	21.8
331.475	20.84
331.686	21.54
331.897	21.31
332.108	22.56
332.319	20.07
332.53	18.49
332.741	18.17
332.952	17.51
333.163	17.19
333.374	18.5
333.585	17.86
333.795	21.01
334.006	19.63
334.217	20.34
334.428	18.83
334.639	19.28
334.849	21.69
335.06	23.01
335.271	25.03
335.482	25.51
335.692	24.81
335.903	23.34
336.114	23
336.325	24.36
336.535	24.89
336.746	25.1
336.957	25.43
337.167	24.1
337.378	24.36
337.589	24.5
337.799	22.13
338.01	23.09
338.22	23.52
338.431	23.29
338.642	23.96
338.852	24.01
339.063	24.12
339.273	24.51
339.484	24.79
339.694	23.14
339.905	22.07
340.115	23.75
340.326	22.13
340.536	20.94
340.746	20.82
340.957	19.62
341.167	20.23
341.378	20.42
341.588	19.55
341.799	19.26
342.009	19.45
342.219	19.19
342.43	19.22
342.64	18.56
342.85	19.74
343.061	18.67
343.271	18.65
343.481	17.04
343.691	16.46
343.902	17
344.112	17.8
344.322	16.43
344.532	15.57
344.743	15.21
344.953	15.32
345.163	13.3
345.373	14.1
345.583	13.82
345.793	14.17
346.004	14.7
346.214	13.72
346.424	12.05
346.634	13.76
346.844	15.58
347.054	15.28
347.264	15.52
347.474	16.73
347.684	17.2
347.894	17.28
348.104	16.73
348.314	17.07
348.524	17.82
348.734	19.32
348.944	18.88
349.154	16.93
349.364	16.96
349.574	15.97
349.784	16.43
349.994	14.83
350.204	14.18
350.413	13.57
350.623	12.53
350.833	13.9
351.043	12.65
351.253	12.34
351.463	11.75
351.672	11.57
351.882	12.36
352.092	12.27
352.302	12.64
352.511	13.58
352.721	15.51
352.931	15.08
353.141	14.19
353.35	13.48
353.56	13.35
353.77	14.7
353.979	14.28
354.189	15.09
354.399	15.03
354.608	14.96
354.818	14.85
355.027	14.23
355.237	14.43
355.447	14.28
355.656	15.48
355.866	16.13
356.075	16.41
356.285	16.52
356.494	15.86
356.704	16.49
356.913	17.03
357.123	17.15
357.332	17.65
357.542	18.23
357.751	18.2
357.96	17.31
358.17	16.75
358.379	16.02
358.589	16.9
358.798	17.46
359.007	17.44
359.217	17.53
359.426	16.6
359.635	15.92
359.845	15.66
360.054	15.2
360.263	15.69
360.472	15.87
360.682	16.59
360.891	15.64
361.1	15.17
361.309	15.49
361.519	14.29
361.728	14.34
361.937	14.64
362.146	15.07
362.355	15.05
362.564	14.44
362.774	14.78
362.983	14.54
363.192	14.88
363.401	15.48
363.61	14.48
363.819	15.88
364.028	17.05
364.237	17.38
364.446	16.61
364.655	16.7
364.864	17.36
365.073	16.33
365.282	15.59
365.491	15.59
365.7	16.02
365.909	15.91
366.118	15.87
366.327	14.74
366.536	13.1
366.745	13.39
366.954	13.49
367.162	13.66
367.371	14.29
367.58	15.15
367.789	15.45
367.998	14.68
368.207	14.04
368.415	14.37
368.624	15.08
368.833	16.29
369.042	16.59
369.25	16.84
369.459	16.71
369.668	16.63
369.877	16.98
370.085	16.5
370.294	16.07
370.503	17.46
370.711	15.69
370.92	15.48
371.129	14.96
371.337	13.64
371.546	12.26
371.754	11.92
371.963	12.29
372.171	11.27
372.38	11.59
372.589	11.53
372.797	10.84
373.006	11.71
373.214	11.12
373.423	11.46
373.631	12.77
373.84	12.71
374.048	12.26
374.256	12.41
374.465	13.21
374.673	13.15
374.882	12.44
375.09	11.5
375.298	12.03
375.507	11.97
375.715	11.62
375.923	11.33
376.132	11.85
376.34	11.46
376.548	11.58
376.757	10.7
376.965	10.49
377.173	11.41
377.381	12.72
377.59	12.25
377.798	12.12
378.006	11.3
378.214	11.37
378.423	11.26
378.631	12.14
378.839	11.68
379.047	11.87
379.255	12.9
379.463	12.56
379.671	12.09
379.879	11.33
380.088	12.06
380.296	13.74
380.504	13.44
380.712	14.17
380.92	13.69
381.128	14.33
381.336	14.92
381.544	13.27
381.752	13.36
381.96	12.77
382.168	12.74
382.376	13.22
382.584	12.12
382.791	12.49
382.999	12.59
383.207	12.82
383.415	12.46
383.623	12.3
383.831	13.69
384.039	13.68
384.247	14.36
384.454	14.55
384.662	13.72
384.87	14.92
385.078	14.42
385.285	13.36
385.493	14.58
385.701	14.66
385.909	14.81
386.116	14.48
386.324	13.7
386.532	13.04
386.739	13.78
386.947	13.23
387.155	12.92
387.362	13.5
387.57	13.75
387.778	12.27
387.985	11.47
388.193	11.02
388.4	10.48
388.608	11.3
388.816	12.01
389.023	12.61
389.231	13.9
389.438	12.66
389.646	12.28
389.853	13.05
390.061	13.17
390.268	13.47
390.475	13.11
390.683	13.32
390.89	13.36
391.098	12.96
391.305	12.08
391.512	11.7
391.72	12.52
391.927	12.72
392.135	12.1
392.342	11.77
392.549	11.2
392.756	10.84
392.964	10.41
393.171	11.13
393.378	11.32
393.586	11.27
393.793	10.93
394	10.76
394.207	10.7
394.414	11.29
394.622	11.27
394.829	11.93
395.036	12.28
395.243	12.3
395.45	11.8
395.657	10.54
395.864	10.82
396.072	11.91
396.279	12.05
396.486	11.66
396.693	10.87
396.9	11.15
397.107	11.18
397.314	11.55
397.521	11.6
397.728	11.24
397.935	11.7
398.142	11.41
398.349	10.07
398.556	9.79
398.763	9.87
398.97	10.45
399.177	10.76
399.383	11.08
399.59	11.23
399.797	11.4
400.004	11.53
400.211	12.48
400.418	12.41
400.625	13.09
400.831	13.21
401.038	13.29
401.245	13.37
401.452	13.15
401.658	12.97
401.865	12.65
402.072	12.38
402.279	12.31
402.485	12.76
402.692	13.12
402.899	12.05
403.105	12.26
403.312	12.43
403.519	12.49
403.725	11.88
403.932	11.57
404.138	11.8
404.345	11.97
404.552	12.47
404.758	12.18
404.965	11.53
405.171	12.32
405.378	12.79
405.584	13.06
405.791	13.26
405.997	13.66
406.204	13.42
406.41	13.79
406.617	13.71
406.823	12.38
407.029	11.51
407.236	12.12
407.442	11.94
407.649	11.22
407.855	10.33
408.061	9.6
408.268	10.17
408.474	10.71
408.68	10.09
408.887	10.43
409.093	12.08
409.299	12.16
409.505	11.56
409.712	11.44
409.918	11.87
410.124	11.73
410.33	12.2
410.537	11.64
410.743	11.13
410.949	11.5
411.155	10.96
411.361	9.7
411.567	9.71
411.773	9.75
411.98	10.12
412.186	10.07
412.392	10.4
412.598	10.36
412.804	9.46
413.01	10.3
413.216	9.67
413.422	9.93
413.628	10.39
413.834	10.08
414.04	9.84
414.246	9.28
414.452	8.51
414.658	8.83
414.864	8.68
415.07	9.74
415.275	8.47
415.481	9.12
415.687	9.01
415.893	8.62
416.099	9.1
416.305	9.21
416.511	9.25
416.716	9.37
416.922	9.47
417.128	9.36
417.334	9.16
417.539	9.67
417.745	9.66
417.951	9.26
418.157	9.65
418.362	9.76
418.568	9.68
418.774	9.83
418.979	9.54
419.185	9.26
419.391	9.24
419.596	9.24
419.802	9.38
420.008	8.55
420.213	9.09
420.419	8.68
420.624	8.68
420.83	8.78
421.035	8.72
421.241	8.71
421.446	8.9
421.652	9.12
421.857	9.22
422.063	9.25
422.268	9.83
422.474	9.45
422.679	9.64
422.885	9.41
423.09	9.58
423.295	9.61
423.501	9.71
423.706	9.6
423.911	9.21
424.117	9.3
424.322	9.08
424.527	8.92
424.733	9.33
424.938	9.17
425.143	9.27
425.349	9.04
425.554	9.06
425.759	9.23
425.964	9.41
426.169	10
426.375	9.93
426.58	10.49
426.785	10.46
426.99	9.99
427.195	9.92
427.4	9.89
427.605	10.3
427.811	10.48
428.016	10.48
428.221	10.07
428.426	10.09
428.631	9.89
428.836	9.45
429.041	9.62
429.246	9.83
429.451	10.58
429.656	10.85
429.861	10.78
430.066	10.62
430.271	11.05
430.476	11.02
430.681	10.39
430.886	10.21
431.09	9.9
431.295	9.95
431.5	10.5
431.705	10.13
431.91	9.89
432.115	9.46
432.32	9.22
432.524	8.94
432.729	9.24
432.934	9.62
433.139	9.7
433.343	9.89
433.548	9.6
433.753	8.93
433.958	8.52
434.162	8.91
434.367	9.25
434.572	9.2
434.776	9.21
434.981	8.74
435.186	8.44
435.39	8.62
435.595	8.54
435.799	9.14
436.004	9.13
436.209	9.63
436.413	9.21
436.618	8.95
436.822	9.41
437.027	9.12
437.231	9.43
437.436	9.47
437.64	9.49
437.845	9.65
438.049	9.17
438.253	9.12
438.458	9.09
438.662	9.15
438.867	9.01
439.071	9.21
439.275	9.59
439.48	9.47
439.684	9.69
439.888	9.49
440.093	9.31
440.297	9.38
440.501	9.74
440.706	9.77
440.91	9.61
441.114	9.6
441.318	9.4
441.523	9.27
441.727	9.15
441.931	9.13
442.135	9.6
442.339	9.77
442.543	10.12
442.748	9.97
442.952	9.86
443.156	9.55
443.36	10.05
443.564	9.69
443.768	9.67
443.972	10.45
444.176	10.18
444.38	9.7
444.584	9.5
444.788	9.19
444.992	8.98
445.196	8.89
445.4	9.17
445.604	8.75
445.808	8.71
446.012	8.48
446.216	8.09
446.42	8.02
446.624	8.15
446.828	8.19
447.032	8.24
447.235	8.3
447.439	8.16
447.643	8.24
447.847	8.7
448.051	8.91
448.254	9.08
448.458	9.16
448.662	9.13
448.866	9.19
449.069	9.54
449.273	9.53
449.477	9.76
449.681	10.01
449.884	9.76
450.088	9.19
450.292	9.09
450.495	9.07
450.699	9.06
450.902	9.31
451.106	9.45
451.31	9.4
451.513	10.05
451.717	10.07
451.92	10.14
452.124	10.23
452.327	10.63
452.531	10.86
452.734	10.81
452.938	10.48
453.141	10.5
453.345	10.4
453.548	10.08
453.752	9.58
453.955	9.33
454.158	9.18
454.362	9.32
454.565	9.66
454.769	9.98
454.972	10.14
455.175	10.55
455.379	10.73
455.582	10.95
455.785	10.77
455.988	10.68
456.192	10.62
456.395	10.46
456.598	10.48
456.801	10.19
457.005	9.72
457.208	9.67
457.411	9.14
457.614	8.71
457.817	8.42
458.021	8.48
458.224	8.23
458.427	8.43
458.63	8.42
458.833	8.57
459.036	8.56
459.239	8.47
459.442	8.26
459.645	8.39
459.848	8.77
460.051	9.15
460.254	9.4
460.457	9.6
460.66	9.78
460.863	10.22
461.066	10.05
461.269	10.07
461.472	10.54
461.675	10.95
461.878	11.21
462.081	11.02
462.284	10.6
462.486	10.22
462.689	10.07
462.892	10.2
463.095	9.9
463.298	9.98
463.5	10.26
463.703	9.98
463.906	9.69
464.109	9.77
464.311	9.89
464.514	10.1
464.717	10.05
464.92	10.42
465.122	10.32
465.325	10.22
465.528	10.39
465.73	10.08
465.933	9.84
466.135	9.95
466.338	9.74
466.541	9.52
466.743	9.4
466.946	9.53
467.148	9.43
467.351	9.2
467.553	9.48
467.756	9.23
467.958	8.98
468.161	9.18
468.363	9.3
468.566	9.45
468.768	9.76
468.971	9.44
469.173	10.04
469.375	10.12
469.578	10.32
469.78	10.24
469.983	10.37
470.185	10.39
470.387	10.48
470.59	10.3
470.792	10.21
470.994	9.87
471.196	10.18
471.399	9.51
471.601	9.72
471.803	9.21
472.005	9.09
472.208	9.21
472.41	9.55
472.612	9.26
472.814	9.77
473.016	9.62
473.218	9.5
473.421	9.12
473.623	9.54
473.825	9.2
474.027	9.53
474.229	9.91
474.431	9.45
474.633	9.22
474.835	9.17
475.037	8.42
475.239	8.52
475.441	8.83
475.643	9.26
475.845	9.19
476.047	9.24
476.249	8.74
476.451	8.41
476.653	8.52
476.855	8.89
477.057	9.13
477.258	9.16
477.46	9.19
477.662	9.03
477.864	8.82
478.066	9.04
478.268	9.07
478.469	9.38
478.671	9.25
478.873	9.25
479.075	8.91
479.276	9.03
479.478	9.25
479.68	9.29
479.882	9.33
480.083	9.33
480.285	8.98
480.487	9.11
480.688	8.99
480.89	9.2
481.091	9.14
481.293	8.93
481.495	8.58
481.696	8.46
481.898	8.31
482.099	8.33
482.301	8.26
482.502	8.13
482.704	8
482.905	7.94
483.107	7.78
483.308	7.71
483.51	7.71
483.711	7.7
483.913	7.77
484.114	7.7
484.315	7.55
484.517	7.6
484.718	7.69
484.92	7.68
485.121	7.71
485.322	7.74
485.524	7.84
485.725	7.97
485.926	8.01
486.127	7.91
486.329	7.95
486.53	7.86
486.731	7.83
486.932	7.73
487.134	7.66
487.335	7.64
487.536	7.69
487.737	7.68
487.938	7.7
488.139	7.74
488.341	7.63
488.542	7.7
488.743	8.04
488.944	8.1
489.145	8.07
489.346	8.12
489.547	8.05
489.748	7.96
489.949	8
490.15	7.95
490.351	7.93
490.552	7.89
490.753	7.84
490.954	7.61
491.155	7.53
491.356	7.67
491.557	7.72
491.758	7.94
491.959	8.06
492.159	7.99
492.36	8.08
492.561	8.03
492.762	8.28
492.963	8.2
493.164	8.42
493.364	8.62
493.565	8.71
493.766	8.77
493.967	8.27
494.167	8.05
494.368	7.87
494.569	7.56
494.769	7.75
494.97	7.7
495.171	8.06
495.371	8.14
495.572	8.3
495.773	8.31
495.973	8.27
496.174	8.64
496.375	9.02
496.575	9.35
496.776	9.44
496.976	9.43
497.177	9.53
497.377	9.49
497.578	9.36
497.778	8.99
497.979	9.12
498.179	9.17
498.38	9.15
498.58	8.93
498.78	9
498.981	9.42
499.181	9.58
499.382	9.63
499.582	9.46
499.782	9.72
499.983	9.98
500.183	10.04
500.383	10.22
500.584	10.33
500.784	10.29
500.984	10.36
501.184	9.89
501.385	9.68
501.585	9.85
501.785	9.93
501.985	9.86
502.185	10.01
502.386	9.99
502.586	9.99
502.786	10.15
502.986	9.94
503.186	9.6
503.386	9.87
503.586	10.3
503.786	10.37
503.987	10.4
504.187	10.32
504.387	10.18
504.587	9.97
504.787	10.05
504.987	9.96
505.187	10.56
505.387	11.03
505.587	11.05
505.786	10.97
505.986	11.13
506.186	11.21
506.386	11.58
506.586	11.83
506.786	11.92
506.986	11.84
507.186	11.92
507.386	11.67
507.585	11.59
507.785	11.66
507.985	11.58
508.185	11.53
508.384	11.64
508.584	11.67
508.784	11.66
508.984	11.78
509.183	11.93
509.383	12.04
509.583	12.21
509.782	12.16
509.982	12.24
510.182	12.46
510.381	12.37
510.581	12.16
510.781	12.32
510.98	12.44
511.18	12.37
511.379	12.29
511.579	12.18
511.778	12.3
511.978	12.5
512.177	12.34
512.377	12.11
512.576	12.09
512.776	12.22
512.975	12
513.175	11.79
513.374	12.01
513.573	12.23
513.773	12.37
513.972	12.04
514.172	12.17
514.371	12.34
514.57	12.75
514.77	12.85
514.969	12.99
515.168	13.06
515.367	13.08
515.567	12.98
515.766	12.81
515.965	12.75
516.164	12.89
516.364	12.7
516.563	12.74
516.762	12.65
516.961	12.45
517.16	12.76
517.359	12.83
517.559	12.8
517.758	13.02
517.957	13.1
518.156	13.24
518.355	13.35
518.554	13.21
518.753	13.25
518.952	13.24
519.151	13.53
519.35	13.56
519.549	13.7
519.748	13.83
519.947	13.62
520.146	13.85
520.345	13.83
520.544	13.81
520.743	14.13
520.942	13.95
521.141	14.02
521.339	13.91
521.538	13.74
521.737	13.68
521.936	13.57
522.135	13.8
522.333	13.97
522.532	14.16
522.731	14.35
522.93	14.46
523.129	14.62
523.327	14.69
523.526	14.85
523.725	14.77
523.923	14.93
524.122	14.93
524.321	14.94
524.519	14.75
524.718	14.49
524.917	14.72
525.115	14.67
525.314	14.67
525.512	14.71
525.711	14.54
525.909	14.54
526.108	14.41
526.306	14.47
526.505	14.36
526.703	14.23
526.902	14.13
527.1	13.99
527.299	14
527.497	13.97
527.696	13.93
527.894	14.08
528.092	14.1
528.291	14.08
528.489	14.08
528.688	14.22
528.886	14.3
529.084	14.55
529.283	14.69
529.481	14.7
529.679	15.04
529.877	15.25
530.076	15.21
530.274	15.43
530.472	15.57
530.67	15.67
530.869	15.59
531.067	15.66
531.265	15.74
531.463	15.74
531.661	15.8
531.859	15.69
532.057	15.6
532.255	15.67
532.454	15.54
532.652	15.5
532.85	15.53
533.048	15.55
533.246	15.6
533.444	15.59
533.642	15.68
533.84	15.85
534.038	15.87
534.236	15.86
534.434	16.04
534.632	16.2
534.83	16.21
535.027	16.37
535.225	16.6
535.423	16.72
535.621	16.71
535.819	16.77
536.017	16.81
536.215	17.11
536.412	17.2
536.61	17.11
536.808	17.29
537.006	17.45
537.203	17.58
537.401	17.53
537.599	17.61
537.797	17.76
537.994	17.78
538.192	17.76
538.39	17.45
538.587	17.67
538.785	17.68
538.983	17.57
539.18	17.71
539.378	17.6
539.575	17.45
539.773	17.32
539.97	17.39
540.168	17.46
540.366	17.5
540.563	17.45
540.761	17.35
540.958	17.45
541.155	17.55
541.353	17.57
541.55	17.69
541.748	17.8
541.945	18.1
542.143	18
542.34	17.93
542.537	18.14
542.735	18.53
542.932	18.73
543.129	18.87
543.327	18.93
543.524	18.75
543.721	18.87
543.919	18.93
544.116	18.81
544.313	19.12
544.51	19.4
544.708	19.41
544.905	19.25
545.102	19.07
545.299	19.32
545.496	19.49
545.693	19.65
545.891	19.47
546.088	19.78
546.285	19.78
546.482	19.8
546.679	19.54
546.876	19.44
547.073	19.55
547.27	20.07
547.467	19.82
547.664	20.07
547.861	20.52
548.058	20.93
548.255	21.05
548.452	21.42
548.649	21.72
548.846	22.39
549.043	22.71
549.24	22.59
549.437	22.4
549.633	22.5
549.83	22.32
550.027	22.09
550.224	22.33
550.421	22.48
550.618	22.52
550.814	22.46
551.011	22.33
551.208	22.12
551.405	22.41
551.601	22.54
551.798	22.37
551.995	22.44
552.191	22.66
552.388	22.55
552.585	22.61
552.781	22.7
552.978	22.73
553.175	22.74
553.371	22.76
553.568	22.67
553.764	22.78
553.961	23.11
554.157	23.42
554.354	23.28
554.55	23.12
554.747	23.15
554.943	23.64
555.14	23.85
555.336	23.95
555.533	24.11
555.729	24.29
555.926	24.29
556.122	24.5
556.318	24.77
556.515	25.02
556.711	25.59
556.907	25.54
557.104	25.42
557.3	25.52
557.496	25.45
557.693	25.8
557.889	26.09
558.085	26.76
558.281	26.83
558.478	26.52
558.674	26.74
558.87	26.78
559.066	26.72
559.262	26.27
559.459	25.93
559.655	25.86
559.851	25.49
560.047	25.64
560.243	25.13
560.439	24.85
560.635	25.2
560.831	25.39
561.027	25.27
561.223	25.6
561.419	25.98
561.615	26.16
561.811	26.38
562.007	27.05
562.203	26.9
562.399	27.36
562.595	27.64
562.791	27.58
562.987	27.32
563.183	27.16
563.379	26.84
563.575	26.76
563.771	27.05
563.966	27.15
564.162	26.93
564.358	26.91
564.554	26.56
564.75	26.8
564.945	26.61
565.141	27.06
565.337	27.05
565.533	27.57
565.728	27.52
565.924	27.56
566.12	27.79
566.315	27.73
566.511	27.58
566.707	27.94
566.902	28.13
567.098	28.58
567.293	28.33
567.489	28.77
567.684	28.45
567.88	28.91
568.076	28.58
568.271	28.77
568.467	28.76
568.662	28.75
568.858	28.76
569.053	28.65
569.248	28.31
569.444	28.64
569.639	28.64
569.835	29.22
570.03	28.94
570.225	29.01
570.421	28.72
570.616	28.91
570.812	29.26
571.007	29.62
571.202	29.73
571.397	29.64
571.593	29.46
571.788	29.39
571.983	28.8
572.178	29.3
572.374	29.28
572.569	29.22
572.764	29.19
572.959	29.5
573.154	29.05
573.35	29.31
573.545	29.75
573.74	29.92
573.935	30.16
574.13	30.68
574.325	30.49
574.52	30.59
574.715	31.16
574.91	31.55
575.105	31.8
575.3	32.13
575.495	31.9
575.69	31.92
575.885	31.88
576.08	32.17
576.275	32.06
576.47	32.33
576.665	32.9
576.86	32.69
577.055	32.82
577.25	32.57
577.444	32.9
577.639	33.05
577.834	33.41
578.029	33.73
578.224	33.38
578.418	33.69
578.613	33.69
578.808	33.59
579.003	33.63
579.197	33.76
579.392	33.69
579.587	33.85
579.781	34.05
579.976	33.81
580.171	33.95
580.365	34.29
580.56	33.94
580.755	34.14
580.949	34.23
581.144	34.57
581.338	34.33
581.533	34.3
581.727	33.81
581.922	33.5
582.116	33.71
582.311	33.48
582.505	33.33
582.7	33.98
582.894	34.08
583.089	33.92
583.283	34.05
583.478	34.41
583.672	34.79
583.866	35
584.061	35.18
584.255	35.21
584.449	35.53
584.644	36.12
584.838	36.04
585.032	35.9
585.226	36.36
585.421	36.27
585.615	36.34
585.809	36.27
586.003	36.24
586.198	36.67
586.392	36.81
586.586	37.01
586.78	36.48
586.974	36.54
587.168	36.55
587.363	36.9
587.557	37.05
587.751	37.01
587.945	37.25
588.139	36.95
588.333	36.89
588.527	37.02
588.721	36.85
588.915	36.72
589.109	36.29
589.303	36.1
589.497	35.94
589.691	35.69
589.885	35.3
590.079	35.19
590.273	35.51
590.466	35.17
590.66	35.18
590.854	35.19
591.048	35.47
591.242	35.98
591.436	36.3
591.629	36.04
591.823	36.3
592.017	36.67
592.211	36.97
592.404	36.81
592.598	37.23
592.792	36.7
592.986	36.88
593.179	37.35
593.373	37.01
593.567	36.95
593.76	37.42
593.954	37.48
594.147	37.46
594.341	37.23
594.535	37.71
594.728	37.64
594.922	38.32
595.115	38.03
595.309	38.02
595.502	38.3
595.696	38.23
595.889	37.93
596.083	38.09
596.276	37.98
596.47	38
596.663	37.55
596.856	37.46
597.05	37.28
597.243	37.21
597.437	36.97
597.63	37.21
597.823	37.41
598.017	37.35
598.21	36.87
598.403	36.63
598.596	36.55
598.79	37.5
598.983	37.77
599.176	37.65
599.369	37.96
599.563	38.42
599.756	38.03
599.949	37.73
600.142	37.91
600.335	38.25
600.528	38.52
600.722	38.54
600.915	38.45
601.108	38.71
601.301	38.77
601.494	38.88
601.687	38.62
601.88	38.52
602.073	38.54
602.266	38.81
602.459	38.59
602.652	38.66
602.845	38.82
603.038	38.56
603.231	38.35
603.424	38.29
603.617	38.12
603.809	38.45
604.002	38.33
604.195	38.41
604.388	38.1
604.581	38.66
604.774	38.96
604.966	38.7
605.159	38.67
605.352	38.92
605.545	39.12
605.737	39.31
605.93	39.09
606.123	39.1
606.316	39.51
606.508	39.9
606.701	39.02
606.894	39
607.086	39.44
607.279	39.84
607.471	39.76
607.664	39.68
607.857	39.98
608.049	40.25
608.242	40.78
608.434	40.66
608.627	41.34
608.819	41.6
609.012	41.51
609.204	40.93
609.397	40.6
609.589	40.34
609.782	40.64
609.974	40.44
610.166	39.92
610.359	39.5
610.551	39.56
610.743	38.58
610.936	38.53
611.128	38.8
611.32	39.67
611.513	40.24
611.705	41.28
611.897	41.65
612.09	42.1
612.282	43.29
612.474	44.3
612.666	44.39
612.858	44.72
613.051	44.79
613.243	44.87
613.435	45.11
613.627	44.67
613.819	43.77
614.011	42.72
614.203	42.68
614.395	41.63
614.588	41.33
614.78	42.08
614.972	43.2
615.164	43.14
615.356	43.53
615.548	42.77
615.74	43.15
615.932	43.39
616.124	44.04
616.315	43.71
616.507	44.06
616.699	43.84
616.891	43.2
617.083	42.44
617.275	43.27
617.467	42.95
617.659	43.46
617.85	43.28
618.042	44.09
618.234	43.26
618.426	43.68
618.618	43.56
618.809	43.72
619.001	44.18
619.193	43.82
619.384	43.63
619.576	43.57
619.768	43.3
619.959	43.33
620.151	42.72
620.343	43.32
620.534	42.78
620.726	42.82
620.917	43.5
621.109	42.85
621.301	43.04
621.492	43.08
621.684	43.24
621.875	43.63
622.067	43.36
622.258	43.64
622.45	43.24
622.641	43.65
622.832	44.57
623.024	43.1
623.215	43.73
623.407	43.88
623.598	43.38
623.789	43.09
623.981	42.53
624.172	43.14
624.363	43
624.555	43.36
624.746	43.07
624.937	42.02
625.129	42.88
625.32	42.57
625.511	42.56
625.702	42.44
625.893	43.08
626.085	43.7
626.276	43.59
626.467	43.38
626.658	43.49
626.849	44.01
627.04	44.61
627.231	44.68
627.422	44.45
627.614	44.22
627.805	44.53
627.996	44.22
628.187	43.85
628.378	43.97
628.569	43.61
628.76	43.69
628.951	43.84
629.142	43.69
629.332	43.89
629.523	44.66
629.714	45.03
629.905	45.75
630.096	45.46
630.287	45.74
630.478	45.75
630.669	46.56
630.859	46.91
631.05	46.65
631.241	46.09
631.432	45.6
631.623	45.21
631.813	45.33
632.004	45.27
632.195	45.21
632.385	45.47
632.576	44.98
632.767	45.08
632.957	45.13
633.148	44.79
633.339	45.45
633.529	45.92
633.72	46.12
633.91	45.96
634.101	45.97
634.292	46.49
634.482	45.75
634.673	46.14
634.863	45.06
635.054	44.57
635.244	45.33
635.435	45.1
635.625	44.97
635.815	44.94
636.006	44.72
636.196	44.59
636.387	44.46
636.577	45.17
636.767	45.25
636.958	46.24
637.148	46.09
637.338	46.16
637.529	46.63
637.719	46.43
637.909	46.31
638.099	47.36
638.29	47.32
638.48	47.88
638.67	47.35
638.86	47.37
639.05	47.08
639.241	48.06
639.431	47.02
639.621	47.17
639.811	47.26
640.001	47.97
640.191	47.53
640.381	47.2
640.571	46.81
640.761	47.53
640.951	47.72
641.141	48.29
641.331	47.97
641.521	48.88
641.711	48.36
641.901	48.43
642.091	48.37
642.281	47.57
642.471	47.66
642.661	47.74
642.851	47.69
643.041	47.45
643.231	47.18
643.42	46.92
643.61	46.81
643.8	46.9
643.99	46.73
644.18	46.31
644.369	47.54
644.559	47.56
644.749	47.48
644.939	46.96
645.128	47.24
645.318	47.58
645.508	47.41
645.697	47.12
645.887	47.02
646.076	47.13
646.266	47.75
646.456	46.47
646.645	46.59
646.835	46.72
647.024	46.66
647.214	46.34
647.403	46.86
647.593	47.05
647.782	47.08
647.972	47.34
648.161	47.71
648.351	47.34
648.54	48.56
648.73	49.09
648.919	49.35
649.108	49.37
649.298	50.16
649.487	50.3
649.677	51.21
649.866	51.57
650.055	51.42
650.244	51.61
650.434	51.11
650.623	50.49
650.812	50.4
651.002	49.94
651.191	50.76
651.38	49.33
651.569	48.37
651.758	47.88
651.947	47.64
652.137	48.01
652.326	47.74
652.515	48.81
652.704	48.7
652.893	47.86
653.082	48.56
653.271	48.31
653.46	48.52
653.649	48.22
653.838	48.22
654.027	48.76
654.216	49.24
654.405	49.59
654.594	48.38
654.783	48.56
654.972	48.83
655.161	47.46
655.35	47.64
655.539	48.45
655.728	48.28
655.916	47.74
656.105	47.5
656.294	46.49
656.483	45.19
656.672	45.37
656.86	44.97
657.049	44.8
657.238	44.76
657.427	45.19
657.615	44.5
657.804	45.1
657.993	44.8
658.181	44.69
658.37	44.54
658.559	44.7
658.747	44.98
658.936	45.43
659.125	46.11
659.313	46.5
659.502	46.32
659.69	46.8
659.879	47.24
660.067	47.93
660.256	47.25
660.444	47.97
660.633	48.55
660.821	48.62
661.01	48.27
661.198	48.05
661.387	48.59
661.575	49.11
661.763	50.55
661.952	50.8
662.14	50.71
662.328	51.75
662.517	52.44
662.705	52.29
662.893	52.56
663.082	53.14
663.27	53.47
663.458	53.75
663.646	52.8
663.834	50.61
664.023	49.59
664.211	49.81
664.399	50.54
664.587	49.4
664.775	49.74
664.963	49.41
665.152	49.82
665.34	49.43
665.528	49.39
665.716	50.25
665.904	51.98
666.092	51.82
666.28	52.1
666.468	50.66
666.656	51.9
666.844	52.6
667.032	52.43
667.22	52.51
667.408	52.55
667.596	52.62
667.784	52.52
667.971	52.45
668.159	53.03
668.347	52.75
668.535	52.88
668.723	52.18
668.911	51.5
669.098	50.97
669.286	50.48
669.474	51.26
669.662	50.97
669.849	49.8
670.037	50.86
670.225	51.01
670.413	49.95
670.6	50.07
670.788	50.17
670.976	50.8
671.163	52.16
671.351	52.3
671.538	51.96
671.726	53.12
671.913	54.58
672.101	52.88
672.289	52.41
672.476	54.12
672.664	54.63
672.851	54.04
673.039	54.12
673.226	53.52
673.413	52.98
673.601	52.39
673.788	50.99
673.976	49.81
674.163	49.57
674.35	50.52
674.538	49.89
674.725	49.67
674.912	49.35
675.1	49.48
675.287	49.78
675.474	50.02
675.662	50
675.849	50.42
676.036	51.42
676.223	51.65
676.411	51.01
676.598	51.08
676.785	51.17
676.972	51.35
677.159	51.05
677.346	50.08
677.533	50.89
677.721	50.74
677.908	49.44
678.095	48.39
678.282	48.62
678.469	47.95
678.656	48.06
678.843	48.11
679.03	48.7
679.217	49.03
679.404	49.28
679.591	48.59
679.778	48.55
679.964	50.43
680.151	50.79
680.338	50.11
680.525	51
680.712	50.78
680.899	50.06
681.086	50.54
681.272	50.34
681.459	51.34
681.646	51.24
681.833	52.08
682.02	51.59
682.206	52.99
682.393	53.62
682.58	53.37
682.766	56.18
682.953	57.31
683.14	56.94
683.326	56.36
683.513	56.81
683.7	57.55
683.886	58.35
684.073	58.85
684.259	57.26
684.446	57.92
684.632	57.31
684.819	54.49
685.005	54.52
685.192	54.9
685.378	55.43
685.565	54.17
685.751	54.55
685.938	53.35
686.124	52.58
686.31	53.33
686.497	52.72
686.683	53.59
686.87	54.27
687.056	52.73
687.242	52.5
687.429	53.24
687.615	53.7
687.801	53.52
687.987	53.51
688.174	53.83
688.36	53.13
688.546	53.58
688.732	53.5
688.918	51.65
689.105	53.25
689.291	53.91
689.477	52.82
689.663	51.98
689.849	52.51
690.035	53.32
690.221	53.12
690.407	54.62
690.593	54.61
690.779	55.03
690.965	57.32
691.151	56.99
691.337	56.24
691.523	56.59
691.709	57.83
691.895	56.25
692.081	55.95
692.267	56.65
692.453	55.58
692.639	55.44
692.825	54.71
693.011	53.95
693.196	55.44
693.382	55.39
693.568	55.51
693.754	55.9
693.94	57.24
694.125	56.68
694.311	55
694.497	55.5
694.682	55.72
694.868	55.95
695.054	55.33
695.239	54.11
695.425	54.54
695.611	53.99
695.796	53.15
695.982	52.31
696.168	51.67
696.353	51.95
696.539	51.76
696.724	50.79
696.91	50.46
697.095	51.33
697.281	51.33
697.466	51.48
697.652	51.06
697.837	50.33
698.023	50.69
698.208	51.61
698.393	51.87
698.579	52.22
698.764	52.26
698.949	52.21
699.135	51.87
699.32	51.89
699.505	51.84
699.691	52.6
699.876	53.38
700.061	54.2
700.246	54.43
700.432	54.78
700.617	54.29
700.802	55.62
700.987	55.99
701.172	58
701.358	57.58
701.543	57.55
701.728	59.16
701.913	60.16
702.098	60.12
702.283	59.92
702.468	59.7
702.653	59.6
702.838	59.82
703.023	60.27
703.208	57.99
703.393	59.35
703.578	59.35
703.763	58.94
703.948	58.98
704.133	57.9
704.318	58.59
704.503	60.01
704.688	59.46
704.873	58.13
705.057	58.45
705.242	58.17
705.427	58.27
705.612	57.59
705.797	57.43
705.981	58.76
706.166	59.58
706.351	59.42
706.536	58.95
706.72	60.55
706.905	61.1
707.09	62.12
707.274	63.36
707.459	63.39
707.644	65.24
707.828	63.95
708.013	62.84
708.197	61.7
708.382	60.92
708.567	59.24
708.751	58.39
708.936	59.06
709.12	58.16
709.305	56.62
709.489	54.8
709.673	53.12
709.858	53.52
710.042	52.61
710.227	53.83
710.411	55.85
710.596	56.63
710.78	56.45
710.964	56.14
711.149	55.13
711.333	56.83
711.517	56.76
711.702	58.09
711.886	58.39
712.07	58.86
712.254	58.29
712.438	56.26
712.623	55.81
712.807	56.08
712.991	56.18
713.175	57.34
713.359	55.88
713.544	58.03
713.728	58.28
713.912	57.94
714.096	58.91
714.28	57.83
714.464	57.17
714.648	57.35
714.832	56.73
715.016	57.34
715.2	57.36
715.384	58.53
715.568	58.36
715.752	56.56
715.936	56.99
716.12	56.64
716.304	58.05
716.488	58.84
716.671	60.65
716.855	63.09
717.039	62.08
717.223	62.49
717.407	63.2
717.59	61.15
717.774	63.38
717.958	63.14
718.142	63.71
718.325	64.16
718.509	64.44
718.693	64.57
718.877	64.57
719.06	67.66
719.244	64.81
719.428	64.88
719.611	67.65
719.795	65.19
719.978	66.38
720.162	65.37
720.345	66.02
720.529	66.05
720.713	64.08
720.896	62.85
721.08	60.85
721.263	64.75
721.446	63.32
721.63	62.16
721.813	64.4
721.997	64.29
722.18	64.71
722.364	64.86
722.547	65.65
722.73	67
722.914	66.97
723.097	66.67
723.28	65.51
723.464	66.39
723.647	66.28
723.83	66.8
724.013	67.43
724.197	66.63
724.38	66.72
724.563	66
724.746	65.81
724.929	64.63
725.112	64.71
725.296	63.29
725.479	63.28
725.662	64.81
725.845	61.96
726.028	61.29
726.211	61.23
726.394	61.5
726.577	60.06
726.76	58.72
726.943	59.38
727.126	59.17
727.309	58.73
727.492	56.96
727.675	56.04
727.858	58.08
728.041	57.99
728.224	58.44
728.407	55.96
728.589	57.01
728.772	58.11
728.955	59.24
729.138	59.41
729.321	61.41
729.503	61.62
729.686	61.82
729.869	59.29
730.052	58.94
730.234	58.85
730.417	59.95
730.6	60.71
730.782	60.31
730.965	59.6
731.148	59.33
731.33	58.87
731.513	59.21
731.695	58.49
731.878	60.59
732.061	61.18
732.243	61.17
732.426	61.37
732.608	59.85
732.791	59.76
732.973	59.3
733.156	60.44
733.338	61.15
733.52	62.65
733.703	62.91
733.885	64.76
734.068	63.99
734.25	64.73
734.432	64.7
734.615	66.6
734.797	67.52
734.979	69.84
735.162	69.79
735.344	67.62
735.526	67.25
735.708	68.66
735.891	66.86
736.073	67.16
736.255	66.66
736.437	66.57
736.619	64.39
736.802	63.25
736.984	61.18
737.166	60.6
737.348	61.72
737.53	60.09
737.712	57.77
737.894	58.69
738.076	60.12
738.258	59.16
738.44	57.92
738.622	58.81
738.804	62.64
738.986	61.75
739.168	61.69
739.35	62.86
739.532	64.5
739.714	66.15
739.896	66.75
740.078	67.13
740.259	66.94
740.441	67.9
740.623	69.92
740.805	67.26
740.987	69.17
741.168	68.62
741.35	70.6
741.532	72.44
741.714	73.16
741.895	70.96
742.077	68.71
742.259	70.01
742.44	71.44
742.622	72.59
742.804	72.54
742.985	72.49
743.167	73.9
743.348	70.37
743.53	70.28
743.711	70.54
743.893	70.5
744.075	72.07
744.256	72.14
744.438	71.74
744.619	68.71
744.8	69.54
744.982	67.78
745.163	67.55
745.345	68.96
745.526	67.71
745.707	65.62
745.889	65.48
746.07	65.86
746.252	68.09
746.433	67.8
746.614	69.44
746.795	69.53
746.977	72.37
747.158	73.25
747.339	71.61
747.52	71.78
747.702	75.3
747.883	77.05
748.064	76.34
748.245	72.62
748.426	71.69
748.607	70.24
748.788	69.33
748.97	69.46
749.151	67.82
749.332	69.98
749.513	69.73
749.694	69.95
749.875	69.94
750.056	69.74
750.237	73.01
750.418	76.2
750.599	78.06
750.78	77.91
750.96	76.55
751.141	76.83
751.322	75.48
751.503	75.54
751.684	73.3
751.865	70.77
752.046	71.57
752.226	68.39
752.407	66.37
752.588	66.83
752.769	68.38
752.949	69.29
753.13	70.24
753.311	68.54
753.492	67.2
753.672	68.28
753.853	70.75
754.034	69.09
754.214	66.88
754.395	66.03
754.575	63.24
754.756	59.57
754.937	58.33
755.117	57.32
755.298	61.65
755.478	62.36
755.659	61.02
755.839	60.05
756.02	59.88
756.2	62.78
756.381	63.14
756.561	66.27
756.741	68.19
756.922	68.95
757.102	69.31
757.283	66.42
757.463	66.65
757.643	66.45
757.823	66.52
758.004	68.07
758.184	67.18
758.364	68.42
758.545	67.06
758.725	67.78
758.905	67.9
759.085	69.96
759.265	72.35
759.446	73.86
759.626	75.76
759.806	75.42
759.986	73.32
760.166	74.14
760.346	73.01
760.526	71.29
760.706	69.58
760.886	69.5
761.066	67.8
761.246	65.45
761.426	62.72
761.606	59.89
761.786	59.12
761.966	59.27
762.146	57.8
762.326	57.5
762.506	57.7
762.686	56.92
762.866	56.1
763.046	55.18
763.225	55.58
763.405	56.43
763.585	56.71
763.765	57.81
763.945	58.84
764.124	59.21
764.304	59.58
764.484	60.78
764.664	61.98
764.843	61.64
765.023	62.19
765.203	61.86
765.382	63.49
765.562	65.06
765.741	67.56
765.921	65.88
766.101	67.86
766.28	70.12
766.46	69.92
766.639	70.34
766.819	72.41
766.998	73.65
767.178	73.79
767.357	73.36
767.537	73.59
767.716	72.07
767.896	71.77
768.075	71.15
768.254	68.09
768.434	66.11
768.613	66.99
768.792	65.86
768.972	64.84
769.151	66.19
769.33	64.55
769.51	65.07
769.689	65.7
769.868	66.57
770.047	65.89
770.226	67.29
770.406	71.28
770.585	73.06
770.764	71.49
770.943	73.4
771.122	74.32
771.301	76.21
771.48	77.15
771.66	74.8
771.839	77.12
772.018	78.47
772.197	80.59
772.376	80.14
772.555	76.52
772.734	81.25
772.913	84.82
773.092	84.65
773.271	87.24
773.449	88.8
773.628	87.81
773.807	90.19
773.986	90.61
774.165	85.7
774.344	86.08
774.523	88.21
774.701	87.39
774.88	85.28
775.059	85.57
775.238	83.96
775.417	82.97
775.595	85.61
775.774	84.51
775.953	84.46
776.131	86.91
776.31	84.42
776.489	81.78
776.667	80.06
776.846	81.63
777.025	82.92
777.203	82.57
777.382	80.45
777.56	80.97
777.739	78.42
777.917	78.47
778.096	78.12
778.274	77.53
778.453	80.05
778.631	80.23
778.81	75.7
778.988	74.77
779.166	77.33
779.345	78.04
779.523	77.92
779.702	81.32
779.88	80.63
780.058	79.43
780.237	83.31
780.415	85.65
780.593	85.02
780.771	86.27
780.95	84.19
781.128	79.2
781.306	81.54
781.484	81.17
781.662	80.92
781.841	78.36
782.019	82.34
782.197	82.2
782.375	78.45
782.553	81.19
782.731	84.88
782.909	83.31
783.087	86.21
783.265	84.51
783.443	87.34
783.621	87.05
783.799	95.32
783.977	97.55
784.155	96.46
784.333	98.77
784.511	96.02
784.689	91.36
784.867	90.61
785.045	94.14
785.223	91.44
785.4	88.93
785.578	88.21
785.756	83.59
785.934	77.74
786.112	74.74
786.289	77.45
786.467	73.42
786.645	76.4
786.823	79.72
787	73.54
787.178	76.29
787.356	73.96
787.533	74.94
787.711	74.62
787.889	76.35
788.066	77.6
788.244	73.81
788.421	78.78
788.599	78.93
788.776	78.9
788.954	80.8
789.131	80.09
789.309	80.43
789.486	76.6
789.664	78
789.841	77.22
790.019	77.57
790.196	83.46
790.373	82.52
790.551	81.8
790.728	80.85
790.906	80.44
791.083	75.9
791.26	78.2
791.437	80.89
791.615	84.16
791.792	81.15
791.969	79.36
792.146	75
792.324	72.18
792.501	69.54
792.678	71.8
792.855	73.2
793.032	79.74
793.209	80.42
793.387	84.51
793.564	81.59
793.741	86.97
793.918	88.47
794.095	87.88
794.272	87.73
794.449	88.62
794.626	87.72
794.803	88.4
794.98	85.85
795.157	88.03
795.334	83.06
795.511	85.32
795.688	81.69
795.864	81.57
796.041	82.75
796.218	86.34
796.395	90.66
796.572	90.05
796.749	90.2
796.925	93.17
797.102	87.32
797.279	88.54
797.456	84.51
797.632	86.5
797.809	88.25
797.986	84.17
798.162	82.93
798.339	79.88
798.516	82.8
798.692	83.51
798.869	87.05
799.046	88.76
799.222	89.68
799.399	86.21
799.575	84.28
799.752	80.81
799.928	84.48
800.105	80.75
800.281	79.61
800.458	76.68
800.634	75.72
800.811	68.36
800.987	70.53
801.163	70.61
801.34	76.25
801.516	77.6
801.692	81.12
801.869	83.41
802.045	86.13
802.221	86.7
802.398	87.48
802.574	88.64
802.75	87.11
802.926	84.86
803.103	83.84
803.279	84.41
803.455	81.91
803.631	80.51
803.807	78.79
803.983	80.31
804.16	77.96
804.336	77.28
804.512	76.58
804.688	81.13
804.864	79.87
805.04	82.54
805.216	80.15
805.392	82.9
805.568	83.67
805.744	83.2
805.92	79.51
806.096	83.63
806.272	93.48
806.448	88.34
806.623	81.44
806.799	83.63
806.975	82.26
807.151	83.7
807.327	81.36
807.503	81.76
807.678	78.54
807.854	86.04
808.03	86.68
808.206	80.39
808.381	83
808.557	88.36
808.733	89.01
808.908	86.49
809.084	83.75
809.26	87.8
809.435	88.24
809.611	93.74
809.787	85.64
809.962	85.75
810.138	83.7
810.313	85.48
810.489	92
810.664	90.32
810.84	99.05
811.015	104.88
811.191	104.35
811.366	104.53
811.542	104.32
811.717	107.52
811.892	105.93
812.068	108.12
812.243	105.82
812.419	99.55
812.594	102.17
812.769	97.62
812.944	96.29
813.12	91.7
813.295	85.98
813.47	87.3
813.645	89
813.821	85.72
813.996	83.12
814.171	85.01
814.346	83.06
814.521	82.76
814.697	82.81
814.872	81.74
815.047	84.65
815.222	86.17
815.397	85.01
815.572	82.62
815.747	89.17
815.922	93.57
816.097	93.56
816.272	95.5
816.447	96.8
816.622	98.22
816.797	101.23
816.972	99.22
817.147	97.15
817.322	98.73
817.496	94.3
817.671	94.64
817.846	94.4
818.021	88.45
818.196	87.3
818.371	84.94
818.545	82.75
818.72	81.85
818.895	80.72
819.069	79.77
819.244	71.72
819.419	68.91
819.594	62.55
819.768	57.33
819.943	57.53
820.117	55.16
820.292	52.1
820.467	49.15
820.641	45.44
820.816	44.23
820.99	43.79
821.165	42.27
821.339	42.59
821.514	42.21
821.688	42.79
821.863	41.77
822.037	41.01
822.212	41.6
822.386	41.65
822.56	40.75
822.735	41.29
822.909	40.58
823.084	41.18
823.258	40.63
823.432	40.89
823.606	40.36
823.781	40.98
823.955	41.84
824.129	41.13
824.303	40.42
824.478	42.05
824.652	42.42
824.826	44.42
825	45.94
825.174	46.16
825.348	45.87
825.523	44.71
825.697	44.62
825.871	44.64
826.045	44.24
826.219	45.03
826.393	45.36
826.567	43.89
826.741	42.18
826.915	41.69
827.089	42.6
827.263	43.21
827.437	44.6
827.611	44.69
827.784	43.26
827.958	44.43
828.132	45.31
828.306	46.73
828.48	48.05
828.654	49.52
828.827	51.83
829.001	53.06
829.175	55.75
829.349	59.37
829.522	62.02
829.696	65.62
829.87	66.91
830.044	71.61
830.217	73.06
830.391	78.47
830.565	80.39
830.738	82.05
830.912	82.81
831.085	79.33
831.259	75.81
831.432	74.14
831.606	72.48
831.779	68.94
831.953	64.26
832.126	65.53
832.3	62.39
832.473	63.43
832.647	57.67
832.82	57.56
832.994	57.91
833.167	57.58
833.34	56.31
833.514	55
833.687	54.3
833.86	54.86
834.034	53.36
834.207	52.68
834.38	51.92
834.553	53.22
834.727	53.13
834.9	51.83
835.073	53.42
835.246	55.33
835.419	54.25
835.593	54.62
835.766	52.85
835.939	54.04
836.112	56.68
836.285	56.93
836.458	62.04
836.631	65.33
836.804	72.94
836.977	75.26
837.15	78.57
837.323	91.5
837.496	95.25
837.669	103.23
837.842	97.63
838.015	97.82
838.188	99.04
838.361	91.82
838.533	91.54
838.706	89.49
838.879	80.94
839.052	81.42
839.225	78.3
839.398	78.66
839.57	80.62
839.743	81.49
839.916	81.44
840.088	79.59
840.261	87.47
840.434	85.25
840.607	85.96
840.779	98.72
840.952	95.35
841.124	97.14
841.297	103.15
841.47	100.74
841.642	108.78
841.815	108.27
841.987	116.68
842.16	110.02
842.332	115.29
842.505	104.41
842.677	100.78
842.85	112.18
843.022	118.51
843.194	108.28
843.367	117.02
843.539	114.76
843.712	121.49
843.884	122.1
844.056	121.43
844.229	126.48
844.401	138.19
844.573	142.25
844.745	125.47
844.918	131.19
845.09	144.41
845.262	143.72
845.434	152.1
845.606	145
845.779	128.16
845.951	108.81
846.123	110.09
846.295	129.45
846.467	174.44
846.639	192.26
846.811	177.34
846.983	166.25
847.155	158.8
847.327	138.58
847.499	147.72
847.671	159.32
847.843	167.69
848.015	156.46
848.187	145.76
848.359	124.41
848.531	130.75
848.703	128.46
848.875	163.49
849.047	164.84
849.218	179.41
849.39	170.32
849.562	199.65
849.734	250.67
849.905	239.66
850.077	263.92
850.249	238.39
850.421	204.94
850.592	210.43
850.764	171.07
850.936	155.54
851.107	142.11
851.279	144.15
851.451	119.76
851.622	118.26
851.794	123.62
851.965	134.49
852.137	142.29
852.308	146.44
852.48	155.58
852.651	161.33
852.823	161.59
852.994	169.88
853.166	172.6
853.337	198.19
853.509	185.99
853.68	178.19
853.851	162.67
854.023	156.62
854.194	152.32
854.365	150.59
854.537	138.71
854.708	145.85
854.879	134.54
855.05	150.2
855.222	130.18
855.393	142.48
855.564	142.03
855.735	146.06
855.906	149.96
856.078	147.92
856.249	140.19
856.42	147.26
856.591	144.8
856.762	157.14
856.933	157.03
857.104	149.11
857.275	140.36
857.446	150.07
857.617	133.98
857.788	137.81
857.959	136.74
858.13	148.83
858.301	144.01
858.472	147.97
858.643	134.69
858.814	122.83
858.985	142.4
859.155	179.91
859.326	173.4
859.497	222.66
859.668	319.88
859.839	315.75
860.009	245.39
860.18	269.92
860.351	253.35
860.522	213.51
860.692	181.51
860.863	157.5
861.034	146.83
861.204	142.03
861.375	125.85
861.546	123.03
861.716	120.06
861.887	132.41
862.057	149.89
862.228	154.92
862.398	162.14
862.569	185.23
862.739	215.33
862.91	189.43
863.08	193.72
863.251	201.14
863.421	196.97
863.592	226.85
863.762	194.48
863.932	156.41
864.103	155.81
864.273	164.81
864.443	144.67
864.614	136.11
864.784	138.04
864.954	135.02
865.125	159.07
865.295	161.79
865.465	177.15
865.635	199.58
865.805	181.57
865.976	193.11
866.146	167.2
866.316	207.78
866.486	262.85
866.656	230.58
866.826	264.23
866.996	220.88
867.166	238.82
867.336	178.75
867.506	119.4
867.676	115.07
867.846	102.51
868.016	119.01
868.186	104.69
868.356	96.22
868.526	100.2
868.696	93.91
868.866	90.47
869.036	97.44
869.206	97.97
869.376	104.71
869.545	116.85
869.715	136.98
869.885	136.33
870.055	133.16
870.224	121.82
870.394	131.76
870.564	155.68
870.734	160.05
870.903	167.33
871.073	161.28
871.243	163.13
871.412	163.65
871.582	133.92
871.751	118.78
871.921	131.33
872.091	151.1
872.26	118.79
872.43	88.92
872.599	85.47
872.769	85.76
872.938	106.17
873.108	103.93
873.277	95.61
873.446	103.78
873.616	117.29
873.785	125.43
873.955	134.05
874.124	136.7
874.293	157.99
874.463	158.77
874.632	153.85
874.801	153.26
874.971	165.96
875.14	212.58
875.309	192.29
875.478	157.18
875.647	117.7
875.817	116.13
875.986	124.4
876.155	121.01
876.324	112.82
876.493	98.01
876.662	89.59
876.831	86.89
877	74.44
877.17	79.14
877.339	87.91
877.508	100.2
877.677	106.72
877.846	108.01
878.015	113.78
878.184	107.05
878.352	114.27
878.521	110.35
878.69	99.8
878.859	95.59
879.028	94.98
879.197	89.28
879.366	85.06
879.534	69.41
879.703	57.74
879.872	51.39
880.041	48.21
880.21	47.14
880.378	44
880.547	44.36
880.716	44.88
880.884	40.13
881.053	37.23
881.222	36.66
881.39	38.16
881.559	38.68
881.727	39.01
881.896	39.67
882.065	40.23
882.233	41.02
882.402	39.53
882.57	41.77
882.739	41.7
882.907	43.63
883.076	44.09
883.244	44.15
883.412	44.22
883.581	44.03
883.749	44.13
883.918	45.82
884.086	47.35
884.254	51.1
884.423	51.75
884.591	58.68
884.759	60.39
884.927	65.35
885.096	70.25
885.264	76.21
885.432	83.19
885.6	85.93
885.769	86.24
885.937	101.52
886.105	111.28
886.273	116.71
886.441	110.18
886.609	117.48
886.777	114.22
886.945	113.55
887.113	112.42
887.281	103.57
887.449	111.94
887.617	113.49
887.785	100.42
887.953	97.44
888.121	103.75
888.289	111.5
888.457	104.08
888.625	109.05
888.793	107.57
888.961	120.7
889.129	137.06
889.296	136.01
889.464	142.92
889.632	159.86
889.8	177.8
889.967	149.65
890.135	142.64
