Data from JASIL_3054_Reflection_01.txt Node
Date: Mon Nov 09 11:23:27 EST 2015
User: Geneva
Spectrometer: USB4E03002
Autoset integration time: false
Trigger mode: 4
Integration Time (sec): 1.000000E-1
Scans to average: 10
Electric dark correction enabled: false
Nonlinearity correction enabled: false
Boxcar width: 5
Stray light correction enabled: false
XAxis mode: Wavelengths
Stop averaging: false
Number of Pixels in Spectrum: 3648
>>>>>Begin Spectral Data<<<<<
177.575	-230.43
177.794	-87.8
178.014	21.94
178.233	3.84
178.452	14.39
178.672	39.04
178.891	63.3
179.11	77.73
179.33	54.2
179.549	79.02
179.768	62.03
179.987	66.34
180.207	82.13
180.426	45.97
180.645	-181.08
180.864	-6.9
181.084	-8.7
181.303	23.03
181.522	-895.83
181.741	335.29
181.96	-371.62
182.179	856.25
182.398	144.55
182.618	264.86
182.837	1635
183.056	394.07
183.275	271.24
183.494	151.45
183.713	185.11
183.932	156.15
184.151	115.25
184.37	100.93
184.589	129.03
184.808	-23.74
185.027	165.43
185.246	219.12
185.465	44.76
185.684	59.09
185.903	48.1
186.122	47.64
186.341	-40
186.56	-234.75
186.779	-32.5
186.998	-572.22
187.216	-58.54
187.435	-104.13
187.654	45.22
187.873	-172.97
188.092	-61.79
188.311	2.42
188.53	-41.99
188.748	94.3
188.967	87.26
189.186	153.85
189.405	3150
189.623	-1747.37
189.842	-128.25
190.061	-735.59
190.28	-210.74
190.498	-400
190.717	-721.62
190.936	169.9
191.154	127.61
191.373	89.1
191.592	211.63
191.81	146.33
192.029	116.12
192.248	131.75
192.466	77.67
192.685	88.93
192.904	105.64
193.122	207.53
193.341	196.04
193.559	1035.56
193.778	-3466.67
193.996	377.37
194.215	342.59
194.433	312.84
194.652	601.2
194.87	312.12
195.089	543.2
195.307	-271.66
195.526	992.42
195.744	-1876.92
195.963	-448.42
196.181	-184.41
196.399	-286.52
196.618	-416.52
196.836	-1319.05
197.055	392.13
197.273	414.56
197.491	317.04
197.71	159.36
197.928	168.57
198.146	200.96
198.365	152
198.583	67.92
198.801	21.68
199.019	-75.81
199.238	-58.11
199.456	-248.4
199.674	-78.3
199.892	31.12
200.111	48.63
200.329	112
200.547	121.19
200.765	97.64
200.983	141.67
201.202	330.08
201.42	215.35
201.638	209.3
201.856	-620
202.074	-227.03
202.292	-169.42
202.51	7475
202.728	379.55
202.946	-86.36
203.165	-2266.67
203.383	1405
203.601	-188.72
203.819	-424.21
204.037	-2564.71
204.255	467.78
204.473	680.95
204.691	224
204.909	217.62
205.127	2192.86
205.345	353.5
205.562	-249.33
205.78	-4141.67
205.998	350
206.216	875.76
206.434	-532.26
206.652	1059.57
206.87	-586.21
207.088	-131.15
207.306	-113.31
207.523	-302.5
207.741	-147.5
207.959	-2178.57
208.177	-164.05
208.395	-76.07
208.612	-177.11
208.83	-169.36
209.048	-114.24
209.266	-131.88
209.483	-106.07
209.701	-79.3
209.919	-61.77
210.136	-117.15
210.354	-96
210.572	-73.54
210.79	387.5
211.007	-12500
211.225	-951.72
211.442	14550
211.66	105.18
211.878	69.85
212.095	241.01
212.313	277.5
212.53	417.65
212.748	364.62
212.966	415.48
213.183	6459.09
213.401	-4774.07
213.618	706.74
213.836	673.65
214.053	790.76
214.271	31266.67
214.488	-106.06
214.705	155.86
214.923	167.16
215.14	109.81
215.358	75.41
215.575	32.7
215.793	21.77
216.01	33.1
216.227	46.73
216.445	70.91
216.662	60
216.879	58.12
217.097	195.06
217.314	259.09
217.531	-23.53
217.749	-61.29
217.966	10.93
218.183	-19.79
218.4	-74.54
218.618	-132.2
218.835	-64.58
219.052	-63.44
219.269	-194.3
219.487	-1020.83
219.704	-312.96
219.921	-87.5
220.138	-60.2
220.355	-71.68
220.572	-98.28
220.79	-36.89
221.007	-59.45
221.224	410.94
221.441	2645.45
221.658	-323.71
221.875	-148.47
222.092	-126.15
222.309	-661.43
222.526	6357.14
222.743	-289.68
222.96	-131.75
223.177	-149.68
223.394	-177.74
223.611	-62.06
223.828	-76.85
224.045	-38.77
224.262	-30.32
224.479	-42.25
224.696	-24.74
224.913	-27.95
225.13	-10.45
225.347	-10.48
225.564	-17.25
225.781	-15.8
225.997	-13.69
226.214	-7.49
226.431	-31.66
226.648	-28.63
226.865	-22.49
227.082	-23.34
227.298	-15.09
227.515	-27.62
227.732	-20.43
227.949	-10.89
228.165	-16.93
228.382	-23.91
228.599	-20.43
228.816	-7.56
229.032	-9.8
229.249	-6.19
229.466	-5.7
229.682	-8.15
229.899	-0.42
230.116	-2.64
230.332	-11.07
230.549	7.85
230.765	16.49
230.982	18.72
231.199	20.17
231.415	20.31
231.632	17.21
231.848	30.13
232.065	26.13
232.281	29.79
232.498	15.72
232.714	18.29
232.931	6.33
233.147	-5.55
233.364	-25.95
233.58	-12.98
233.797	-18.65
234.013	-33.76
234.23	-55.53
234.446	-50.81
234.662	-86.66
234.879	-29.08
235.095	-24.1
235.312	-19.78
235.528	-22.68
235.744	-20.46
235.961	-21.8
236.177	-20.54
236.393	-12.87
236.61	-14.44
236.826	-25.24
237.042	-22.85
237.258	-47.86
237.475	-40.58
237.691	-26.35
237.907	-6.13
238.123	2.57
238.339	-15.12
238.556	-31.1
238.772	-26.13
238.988	-28.97
239.204	-20.68
239.42	-23.64
239.636	-18.3
239.853	-23.26
240.069	-24.89
240.285	-23.46
240.501	-21.85
240.717	-18.2
240.933	-7.55
241.149	-11.38
241.365	-7.58
241.581	-2.17
241.797	-1.28
242.013	-2.67
242.229	-0.62
242.445	-3.34
242.661	-6.82
242.877	-6.24
243.093	-6.69
243.309	-9.61
243.525	-6.4
243.741	-11.12
243.957	-6.65
244.173	-3.83
244.388	-5.24
244.604	-0.18
244.82	2.51
245.036	2.74
245.252	3.96
245.468	4.09
245.683	4.14
245.899	4.43
246.115	5.66
246.331	0.04
246.547	-0.81
246.762	0.51
246.978	-1.4
247.194	-4.5
247.409	-7.45
247.625	-8.65
247.841	-10.04
248.057	-11.57
248.272	-8.96
248.488	-6.08
248.703	2.32
248.919	-3.63
249.135	-4.32
249.35	-4.14
249.566	9.25
249.782	11.76
249.997	3.2
250.213	7.99
250.428	9.25
250.644	8.91
250.859	8.32
251.075	5.97
251.29	9.15
251.506	14.57
251.721	13.1
251.937	9.96
252.152	13.18
252.368	20.05
252.583	12.51
252.798	10.78
253.014	9.41
253.229	3.12
253.445	2.28
253.66	8.28
253.875	4.15
254.091	9.46
254.306	8.61
254.521	5.6
254.737	0
254.952	8.63
255.167	10.41
255.383	13.04
255.598	12.99
255.813	11.46
256.028	8.08
256.244	4.92
256.459	-1.85
256.674	-11.65
256.889	-11.39
257.104	-11.23
257.32	-11.28
257.535	-8.86
257.75	-9.06
257.965	-6.47
258.18	-7.62
258.395	-7.26
258.61	-6.68
258.826	-5.42
259.041	-3.74
259.256	-4.28
259.471	-4.52
259.686	-6.42
259.901	-10.12
260.116	-12.19
260.331	-14.64
260.546	-11.72
260.761	-11.49
260.976	-8.29
261.191	-10.33
261.406	-6.98
261.621	-5.78
261.836	-4.26
262.05	-4.45
262.265	4.26
262.48	7.52
262.695	0.87
262.91	-4.7
263.125	-10.02
263.34	-12.71
263.555	-8.96
263.769	-16.5
263.984	-16.55
264.199	-17.5
264.414	-12.82
264.629	-17.14
264.843	-16.7
265.058	-12.67
265.273	-9.5
265.488	-4.58
265.702	-6.23
265.917	-3.46
266.132	-1.89
266.346	0.3
266.561	1.09
266.776	-0.07
266.99	1.82
267.205	-2.31
267.42	-2.58
267.634	-0.87
267.849	-4.88
268.063	-7.37
268.278	-12.86
268.492	-13.65
268.707	-11.54
268.922	-10.41
269.136	-7.17
269.351	-9.22
269.565	-10.08
269.78	-7.95
269.994	-8.03
270.209	-4.03
270.423	-2.92
270.637	-1.08
270.852	-0.54
271.066	-2.4
271.281	-2.58
271.495	-3.53
271.709	-3.35
271.924	0.06
272.138	-1.39
272.353	-3.79
272.567	-6.07
272.781	-5.7
272.996	-6.7
273.21	-8.61
273.424	-8.69
273.638	-12.61
273.853	-13.66
274.067	-14
274.281	-13.98
274.495	-10.56
274.71	-7.15
274.924	-7.7
275.138	-6.8
275.352	-7.92
275.566	-2.87
275.781	-4.27
275.995	-1.71
276.209	-2.03
276.423	-1.36
276.637	-4.63
276.851	-6.85
277.065	-11.08
277.279	-6.97
277.493	-7.52
277.707	-5.44
277.921	-9.43
278.135	-5.78
278.349	-3.61
278.563	-2.77
278.777	-4.17
278.991	0.19
279.205	-2.12
279.419	2.13
279.633	-3.63
279.847	-2.17
280.061	-4.56
280.275	-1.09
280.489	-5.51
280.703	-5.69
280.917	-7.03
281.131	-5.13
281.344	-4.87
281.558	-0.38
281.772	-3.45
281.986	-1.32
282.2	-3.69
282.414	-4.09
282.627	-6.56
282.841	-3.96
283.055	-5.56
283.269	-3.38
283.482	-5.67
283.696	-5.42
283.91	-6.41
284.123	-5.6
284.337	-3.25
284.551	-3.3
284.764	-0.71
284.978	-2.8
285.192	-4.92
285.405	-3.4
285.619	-2.32
285.833	-1.29
286.046	-3.2
286.26	-4.7
286.473	-3.59
286.687	-5.47
286.9	-2.6
287.114	-4.21
287.327	-3.9
287.541	-1.28
287.754	-0.29
287.968	-0.31
288.181	1.94
288.395	1.74
288.608	4.1
288.822	3.5
289.035	4.1
289.248	2.29
289.462	2.4
289.675	4.49
289.889	5.66
290.102	2.34
290.315	0.23
290.529	-1.01
290.742	-3.23
290.955	-7.72
291.169	-11.25
291.382	-12.11
291.595	-11.85
291.808	-6.79
292.022	-4.08
292.235	-3.91
292.448	-2.97
292.661	-1.94
292.875	-2.01
293.088	0.67
293.301	3.53
293.514	6.92
293.727	6.34
293.94	6.08
294.153	1.18
294.367	-0.29
294.58	-2.38
294.793	-1.05
295.006	-2.51
295.219	-1.84
295.432	-2.75
295.645	-3.14
295.858	-5.23
296.071	-4.66
296.284	-3.46
296.497	-1.3
296.71	-1.57
296.923	-2.12
297.136	-2.23
297.349	-3.29
297.562	-4.64
297.775	-4.1
297.988	-3.6
298.201	-1.97
298.414	-3.15
298.626	-3.98
298.839	-6.57
299.052	-7.88
299.265	-3.91
299.478	-3.56
299.691	-3.86
299.903	-1.95
300.116	-3.15
300.329	-7.44
300.542	-5.74
300.755	-4.49
300.967	-4.28
301.18	-3.49
301.393	-1.95
301.605	-2.19
301.818	-4.73
302.031	-1.33
302.243	-3.63
302.456	-2.05
302.669	3.01
302.881	1.29
303.094	0.6
303.307	0.65
303.519	0.73
303.732	1.44
303.944	-2.21
304.157	1.74
304.37	0.13
304.582	1.92
304.795	1.58
305.007	-1.96
305.22	-3.57
305.432	-2.75
305.645	-4.74
305.857	-1.58
306.069	-1.7
306.282	0.18
306.494	-1.17
306.707	-1.21
306.919	-1.66
307.132	-2.04
307.344	0.16
307.556	0.41
307.769	3.19
307.981	4.27
308.193	0.89
308.406	-1.77
308.618	-2.25
308.83	-2.54
309.043	-3.33
309.255	0.21
309.467	1.71
309.679	3.18
309.892	5.27
310.104	3.3
310.316	4.11
310.528	4.31
310.74	5.74
310.953	4.77
311.165	2.69
311.377	4.08
311.589	-0.73
311.801	-0.57
312.013	-5.23
312.225	-6.62
312.437	-6.33
312.649	-5.78
312.862	-5.11
313.074	-3.76
313.286	-3.2
313.498	-1.43
313.71	-0.31
313.922	1.29
314.134	-0.35
314.346	0.8
314.558	-0.89
314.77	-1.76
314.982	-0.02
315.193	-0.49
315.405	-2.46
315.617	-2.41
315.829	-1.08
316.041	-2.22
316.253	-3.14
316.465	-3.55
316.677	-0.62
316.888	1.31
317.1	2.26
317.312	-3.61
317.524	-5.63
317.736	-6.54
317.947	-6.09
318.159	-7.2
318.371	-8.34
318.583	-7.72
318.794	-6.96
319.006	-9.35
319.218	-12.92
319.43	-12.43
319.641	-6.63
319.853	-3.25
320.064	-0.13
320.276	-0.36
320.488	1.13
320.699	2.69
320.911	4.35
321.123	3.16
321.334	4.05
321.546	7.46
321.757	7.29
321.969	4.15
322.18	5.27
322.392	2.35
322.603	1.29
322.815	2.48
323.026	1.8
323.238	3.5
323.449	1.91
323.661	2.47
323.872	3.55
324.083	2.89
324.295	3.73
324.506	2.51
324.718	4.54
324.929	7.33
325.14	5.51
325.352	6.2
325.563	2.42
325.774	5.69
325.986	5.28
326.197	4.28
326.408	1.14
326.62	-1.03
326.831	-0.98
327.042	-3.95
327.253	-4.37
327.464	-3.7
327.676	-2.49
327.887	-0.2
328.098	-3.07
328.309	-2.36
328.52	-2.1
328.732	0.48
328.943	0.14
329.154	3.42
329.365	4.34
329.576	3.36
329.787	0.46
329.998	0.39
330.209	-1.32
330.42	-0.24
330.631	-1.01
330.842	0.33
331.053	3.71
331.264	5.78
331.475	3.96
331.686	3.99
331.897	5.63
332.108	7.74
332.319	7.84
332.53	7.67
332.741	10.55
332.952	8.3
333.163	5.63
333.374	2.35
333.585	2.64
333.795	1.23
334.006	0.48
334.217	-0.9
334.428	-2.11
334.639	-1.33
334.849	-2.56
335.06	-5.55
335.271	-4.67
335.482	-4.28
335.692	-4.79
335.903	-4.97
336.114	-5.8
336.325	-3.88
336.535	-3.74
336.746	-4.4
336.957	-3.69
337.167	0.39
337.378	2.48
337.589	5.14
337.799	5.64
338.01	5.85
338.22	5.56
338.431	8.02
338.642	6.23
338.852	7.02
339.063	8.87
339.273	6.62
339.484	2.82
339.694	1.82
339.905	-0.45
340.115	0.81
340.326	1.01
340.536	0.64
340.746	-0.24
340.957	0.95
341.167	2.31
341.378	1.82
341.588	2.19
341.799	2.67
342.009	3.85
342.219	5.91
342.43	5.3
342.64	4.67
342.85	3.71
343.061	3.74
343.271	2.41
343.481	1.47
343.691	1.2
343.902	1.9
344.112	2.63
344.322	2.82
344.532	1.12
344.743	0.35
344.953	0.7
345.163	3.28
345.373	2.14
345.583	4.32
345.793	3.12
346.004	4.26
346.214	4.32
346.424	4.75
346.634	2.88
346.844	2.08
347.054	4.13
347.264	4.28
347.474	2.73
347.684	2.89
347.894	0.34
348.104	1.26
348.314	-1.31
348.524	-3.69
348.734	-3.73
348.944	-2.33
349.154	-2.77
349.364	-2.71
349.574	-3.7
349.784	-1.86
349.994	-1.77
350.204	0.79
350.413	-0.18
350.623	2.19
350.833	3.27
351.043	2.44
351.253	1.78
351.463	3.09
351.672	1.71
351.882	3.34
352.092	1.47
352.302	1.2
352.511	0.35
352.721	0.94
352.931	-0.27
353.141	-1.09
353.35	-0.85
353.56	-0.18
353.77	0.45
353.979	-1.29
354.189	-1.64
354.399	-3.25
354.608	-1.87
354.818	-0.89
355.027	-0.22
355.237	-1.12
355.447	0.88
355.656	2.14
355.866	2.41
356.075	1.42
356.285	4.55
356.494	3.99
356.704	4.4
356.913	4.36
357.123	3.64
357.332	3.3
357.542	3.98
357.751	2.57
357.96	1.78
358.17	0.95
358.379	2.33
358.589	1.94
358.798	3.86
359.007	4.85
359.217	3.99
359.426	4.82
359.635	4.15
359.845	5.04
360.054	6.33
360.263	5.14
360.472	4.97
360.682	3.91
360.891	3.08
361.1	3.36
361.309	2.88
361.519	2.45
361.728	1.2
361.937	2.15
362.146	0.61
362.355	-1.11
362.564	1.11
362.774	2.76
362.983	3.69
363.192	4.86
363.401	4.92
363.61	5.56
363.819	6.09
364.028	6.97
364.237	6.99
364.446	8.15
364.655	9
364.864	8.95
365.073	7.92
365.282	6.97
365.491	4.01
365.7	3.39
365.909	1.5
366.118	1.05
366.327	1.18
366.536	1.98
366.745	1.4
366.954	1.77
367.162	0.3
367.371	1.71
367.58	1.3
367.789	3.42
367.998	3.59
368.207	4.21
368.415	4.79
368.624	3.32
368.833	1.85
369.042	1.27
369.25	0.95
369.459	0.87
369.668	0.11
369.877	-1.6
370.085	-1.45
370.294	-2.92
370.503	-1.54
370.711	-2.5
370.92	-1.78
371.129	-0.28
371.337	1.36
371.546	1.85
371.754	3.82
371.963	3.27
372.171	5.16
372.38	5.51
372.589	5.9
372.797	5.39
373.006	7.66
373.214	8.84
373.423	8.66
373.631	8.69
373.84	8.44
374.048	6.8
374.256	6.22
374.465	7.58
374.673	5.38
374.882	5.53
375.09	5.51
375.298	6.16
375.507	5.14
375.715	4.88
375.923	2.05
376.132	2.66
376.34	2.85
376.548	2.25
376.757	2.69
376.965	3.55
377.173	4.37
377.381	5.01
377.59	4.06
377.798	4.79
378.006	4.67
378.214	7.55
378.423	6.43
378.631	6.45
378.839	8.34
379.047	5.42
379.255	7.22
379.463	6.17
379.671	5.74
379.879	5.92
380.088	6.09
380.296	6.12
380.504	5.59
380.712	4.75
380.92	3.81
381.128	3.3
381.336	4.9
381.544	4.17
381.752	5.34
381.96	6.15
382.168	4.42
382.376	2.81
382.584	2.73
382.791	3.74
382.999	5.31
383.207	8.16
383.415	6.28
383.623	6.68
383.831	5.98
384.039	4.27
384.247	4.16
384.454	3.72
384.662	3.75
384.87	4.33
385.078	2.76
385.285	2.74
385.493	2
385.701	3.76
385.909	3.01
386.116	1.96
386.324	2.49
386.532	3.53
386.739	4.09
386.947	4.55
387.155	3.41
387.362	4.43
387.57	3.7
387.778	1.56
387.985	1.79
388.193	2.99
388.4	4.85
388.608	5.55
388.816	5.11
389.023	6.14
389.231	5.67
389.438	6.66
389.646	5.07
389.853	4.98
390.061	5.88
390.268	5.15
390.475	3.91
390.683	3.08
390.89	3.24
391.098	3.24
391.305	1.76
391.512	2.33
391.72	1.29
391.927	2.07
392.135	2.93
392.342	2.63
392.549	3.88
392.756	4.45
392.964	4.4
393.171	4.95
393.378	4.5
393.586	5.39
393.793	5.47
394	5.22
394.207	4.62
394.414	3.79
394.622	3.56
394.829	2.35
395.036	2.16
395.243	1.89
395.45	0.28
395.657	1.14
395.864	2.29
396.072	2.82
396.279	4
396.486	4.69
396.693	5.26
396.9	6.18
397.107	6.94
397.314	8.09
397.521	8.3
397.728	9.09
397.935	7.46
398.142	5.72
398.349	4.64
398.556	3.76
398.763	4.13
398.97	4.36
399.177	4.64
399.383	3.73
399.59	1.34
399.797	1.27
400.004	0.81
400.211	1.05
400.418	1.97
400.625	1.29
400.831	1.28
401.038	1.38
401.245	0.51
401.452	0.27
401.658	0.68
401.865	1.71
402.072	1.6
402.279	0.72
402.485	0.51
402.692	-0.2
402.899	0.85
403.105	0.83
403.312	0.5
403.519	0.23
403.725	-0.29
403.932	0.24
404.138	0.92
404.345	1.26
404.552	2.51
404.758	2.9
404.965	3.41
405.171	3.9
405.378	4.82
405.584	4.97
405.791	4.62
405.997	4.57
406.204	4.75
406.41	3.96
406.617	2.6
406.823	2.83
407.029	2.4
407.236	3.62
407.442	2.41
407.649	1.85
407.855	1.6
408.061	3.31
408.268	4.08
408.474	2.88
408.68	3.47
408.887	4.48
409.093	4.7
409.299	4.6
409.505	3.53
409.712	4.7
409.918	3.99
410.124	5.12
410.33	4.79
410.537	3.04
410.743	4.07
410.949	2.65
411.155	2.55
411.361	2.19
411.567	2.59
411.773	3
411.98	3.23
412.186	4.52
412.392	4.04
412.598	3.84
412.804	5.37
413.01	4.78
413.216	6.05
413.422	5.88
413.628	6.82
413.834	7.56
414.04	7.6
414.246	6.17
414.452	5.78
414.658	4.56
414.864	3.9
415.07	3.46
415.275	3.15
415.481	3.68
415.687	3.45
415.893	2.07
416.099	1.69
416.305	1.62
416.511	2.67
416.716	3.09
416.922	4.21
417.128	4.97
417.334	5.33
417.539	6.12
417.745	5.93
417.951	5.96
418.157	6.74
418.362	6.41
418.568	7.22
418.774	6.45
418.979	6.5
419.185	6.26
419.391	6
419.596	5.65
419.802	4.72
420.008	4.74
420.213	1.13
420.419	0.06
420.624	0.23
420.83	-0.95
421.035	-0.61
421.241	-0.45
421.446	-0.69
421.652	-0.23
421.857	-0.14
422.063	0.92
422.268	0.48
422.474	4.24
422.679	4.64
422.885	4.97
423.09	5.27
423.295	5.78
423.501	5.18
423.706	5.17
423.911	4.67
424.117	4.19
424.322	3.99
424.527	3.63
424.733	3.61
424.938	3.85
425.143	3.07
425.349	3.47
425.554	2.63
425.759	2.58
425.964	2.9
426.169	3.05
426.375	3.47
426.58	2.84
426.785	3.57
426.99	3.82
427.195	3.6
427.4	3.88
427.605	2.82
427.811	3.16
428.016	3.46
428.221	3.21
428.426	3.09
428.631	3.85
428.836	4.57
429.041	4.27
429.246	4.41
429.451	4.83
429.656	5.61
429.861	6.46
430.066	6.87
430.271	6.85
430.476	6.76
430.681	6.37
430.886	5.33
431.09	5.3
431.295	5.57
431.5	5.96
431.705	5.68
431.91	4.58
432.115	3.83
432.32	3.97
432.524	3.9
432.729	4.73
432.934	4.53
433.139	4.52
433.343	4.51
433.548	4.82
433.753	4.28
433.958	4.29
434.162	4.75
434.367	5.24
434.572	4.79
434.776	4.95
434.981	4.23
435.186	5.06
435.39	6.27
435.595	5.32
435.799	4.7
436.004	4.87
436.209	4.93
436.413	5.42
436.618	5.81
436.822	6.23
437.027	6.11
437.231	5.91
437.436	6.12
437.64	5.47
437.845	6.16
438.049	6.85
438.253	6.59
438.458	6.29
438.662	5.89
438.867	5.37
439.071	4.98
439.275	4.69
439.48	5.26
439.684	4.57
439.888	4.56
440.093	4.35
440.297	3.57
440.501	3.31
440.706	3.1
440.91	2.82
441.114	3.2
441.318	3.17
441.523	3.75
441.727	2.98
441.931	3.65
442.135	4.09
442.339	4
442.543	4.12
442.748	4.14
442.952	4.39
443.156	4.88
443.36	4.56
443.564	4.77
443.768	4.16
443.972	3.89
444.176	3.42
444.38	3.07
444.584	3.22
444.788	3.83
444.992	4.74
445.196	4.71
445.4	5.11
445.604	4.96
445.808	4.74
446.012	4.71
446.216	5.08
446.42	5.7
446.624	5.43
446.828	5.41
447.032	5.28
447.235	4.66
447.439	4.4
447.643	3.51
447.847	3.85
448.051	3.55
448.254	3.62
448.458	3.55
448.662	3.09
448.866	3.82
449.069	3.61
449.273	3.59
449.477	4.19
449.681	5.63
449.884	5.74
450.088	5.53
450.292	4.92
450.495	4.97
450.699	4.89
450.902	4.85
451.106	4.56
451.31	4.37
451.513	3.87
451.717	3.64
451.92	2.8
452.124	3.07
452.327	2.9
452.531	4.09
452.734	4.37
452.938	4.67
453.141	4.58
453.345	4.44
453.548	4.07
453.752	4.31
453.955	3.86
454.158	3.36
454.362	2.89
454.565	3.06
454.769	2.52
454.972	1.83
455.175	1.7
455.379	1.5
455.582	1.74
455.785	2.44
455.988	2.33
456.192	2.72
456.395	3.28
456.598	4.21
456.801	4.18
457.005	4.47
457.208	5.14
457.411	5.32
457.614	5.77
457.817	5.84
458.021	6.17
458.224	5.73
458.427	5.97
458.63	5.32
458.833	4.57
459.036	4.18
459.239	4.11
459.442	3.86
459.645	3.7
459.848	3.52
460.051	3.38
460.254	3.23
460.457	3.67
460.66	2.98
460.863	3.17
461.066	3.85
461.269	4.68
461.472	4.77
461.675	5.06
461.878	4.59
462.081	3.74
462.284	3.71
462.486	3
462.689	3.48
462.892	3.42
463.095	3.24
463.298	3.76
463.5	3.59
463.703	3.92
463.906	3.71
464.109	4.57
464.311	4.93
464.514	4.75
464.717	5.82
464.92	5.34
465.122	5.18
465.325	5.81
465.528	5.76
465.73	5.91
465.933	5.34
466.135	4.92
466.338	4.58
466.541	4.59
466.743	4.8
466.946	3.68
467.148	3.49
467.351	3.82
467.553	3.71
467.756	2.83
467.958	2.11
468.161	2.41
468.363	2.87
468.566	3.36
468.768	3.14
468.971	3.03
469.173	3.55
469.375	3.52
469.578	3.56
469.78	3.49
469.983	4
470.185	4.22
470.387	3.61
470.59	3.99
470.792	3.67
470.994	4.56
471.196	4.45
471.399	4.42
471.601	4.38
471.803	4.54
472.005	4.42
472.208	4.49
472.41	4.9
472.612	5.26
472.814	4.85
473.016	5.8
473.218	5.82
473.421	5.68
473.623	5.24
473.825	5.14
474.027	4.99
474.229	5.32
474.431	5.3
474.633	4.66
474.835	5.23
475.037	5.12
475.239	4.33
475.441	3.91
475.643	4.37
475.845	4.53
476.047	4.83
476.249	4.8
476.451	4.69
476.653	4.7
476.855	4.85
477.057	4.7
477.258	5.1
477.46	4.88
477.662	4.93
477.864	5.14
478.066	5.78
478.268	6.22
478.469	6.56
478.671	6.7
478.873	6.18
479.075	6.21
479.276	6.1
479.478	6.01
479.68	6.63
479.882	6.51
480.083	6.44
480.285	5.94
480.487	5.3
480.688	4.82
480.89	4.62
481.091	4.91
481.293	4.93
481.495	5.08
481.696	5.01
481.898	4.6
482.099	4.65
482.301	4.43
482.502	4.46
482.704	4.65
482.905	4.71
483.107	4.71
483.308	4.57
483.51	4.58
483.711	4.45
483.913	4.33
484.114	4.45
484.315	4.61
484.517	4.98
484.718	4.78
484.92	4.71
485.121	4.82
485.322	4.9
485.524	4.91
485.725	5.06
485.926	4.99
486.127	5.03
486.329	4.76
486.53	4.7
486.731	4.38
486.932	4.87
487.134	4.81
487.335	4.71
487.536	4.64
487.737	4.69
487.938	4.82
488.139	4.9
488.341	5.08
488.542	5.22
488.743	4.61
488.944	4.44
489.145	4.13
489.346	4.2
489.547	4.19
489.748	4.21
489.949	4.24
490.15	3.62
490.351	3.61
490.552	3.49
490.753	3.55
490.954	4.17
491.155	4.25
491.356	4.32
491.557	4.25
491.758	4.34
491.959	4.35
492.159	4.15
492.36	4.41
492.561	4.82
492.762	4.53
492.963	4.76
493.164	4.43
493.364	4.61
493.565	4.45
493.766	4.71
493.967	4.55
494.167	4.21
494.368	4.43
494.569	4.79
494.769	4.23
494.97	4.86
495.171	4.62
495.371	4.49
495.572	4.08
495.773	3.83
495.973	3.42
496.174	3.66
496.375	3.91
496.575	3.75
496.776	3.28
496.976	3.36
497.177	2.98
497.377	2.85
497.578	2.76
497.778	3.18
497.979	3.5
498.179	3.58
498.38	2.92
498.58	3.29
498.78	3.76
498.981	4.32
499.181	4.05
499.382	4.31
499.582	4.41
499.782	4.93
499.983	5.12
500.183	4.94
500.383	5.14
500.584	5.27
500.784	5.16
500.984	4.34
501.184	4.33
501.385	4.45
501.585	4.33
501.785	4.41
501.985	3.84
502.185	3.5
502.386	3.58
502.586	3.66
502.786	3.51
502.986	3.51
503.186	3.88
503.386	3.48
503.586	3.21
503.786	3.24
503.987	3.42
504.187	3.07
504.387	3.16
504.587	3.3
504.787	2.92
504.987	3.33
505.187	3.29
505.387	3.62
505.587	3.57
505.786	4.04
505.986	3.82
506.186	3.44
506.386	4.03
506.586	4.08
506.786	3.98
506.986	4.28
507.186	4.39
507.386	3.98
507.585	3.95
507.785	3.87
507.985	3.72
508.185	4.02
508.384	4.19
508.584	4.01
508.784	4.25
508.984	3.75
509.183	3.69
509.383	3.55
509.583	3.71
509.782	3.72
509.982	4.07
510.182	3.88
510.381	3.37
510.581	3.04
510.781	3.21
510.98	2.8
511.18	3.45
511.379	3.31
511.579	3.41
511.778	3.24
511.978	3.26
512.177	3.64
512.377	4.18
512.576	4.39
512.776	4.6
512.975	4.75
513.175	5.1
513.374	5.06
513.573	5.72
513.773	6.1
513.972	6.71
514.172	6.27
514.371	6.07
514.57	5.89
514.77	6.26
514.969	6.53
515.168	6.66
515.367	6.11
515.567	6.3
515.766	5.64
515.965	5.54
516.164	5.47
516.364	5.93
516.563	5.36
516.762	5.41
516.961	5.39
517.16	5.4
517.359	5.01
517.559	5.45
517.758	5.55
517.957	5.41
518.156	5.14
518.355	4.79
518.554	4.76
518.753	4.98
518.952	4.87
519.151	4.77
519.35	4.54
519.549	4.77
519.748	4.56
519.947	4.09
520.146	5.02
520.345	5.19
520.544	4.73
520.743	4.73
520.942	4.8
521.141	4.95
521.339	4.93
521.538	4.9
521.737	5.33
521.936	5.04
522.135	5.3
522.333	4.86
522.532	5.13
522.731	5.86
522.93	5.77
523.129	5.64
523.327	5.25
523.526	5.29
523.725	5.31
523.923	5.11
524.122	5.68
524.321	5.86
524.519	6.04
524.718	5.44
524.917	5.35
525.115	5.29
525.314	5.42
525.512	5.52
525.711	5.88
525.909	5.8
526.108	5.66
526.306	5.86
526.505	5.92
526.703	5.93
526.902	6.51
527.1	6.52
527.299	6.68
527.497	6.82
527.696	7.04
527.894	7.02
528.092	7.2
528.291	7.27
528.489	6.96
528.688	6.7
528.886	6.53
529.084	6.34
529.283	6.48
529.481	6.29
529.679	6.15
529.877	5.94
530.076	5.76
530.274	5.7
530.472	5.75
530.67	6.04
530.869	6.29
531.067	6.44
531.265	6.51
531.463	6.42
531.661	6.72
531.859	6.69
532.057	6.82
532.255	6.9
532.454	6.82
532.652	6.44
532.85	6.32
533.048	6.31
533.246	6.57
533.444	6.78
533.642	6.59
533.84	6.36
534.038	6.3
534.236	6.37
534.434	6.24
534.632	6.39
534.83	6.93
535.027	7.04
535.225	6.89
535.423	6.67
535.621	6.3
535.819	6.71
536.017	6.47
536.215	6.82
536.412	6.74
536.61	6.7
536.808	6.85
537.006	6.85
537.203	6.93
537.401	7.49
537.599	7.62
537.797	7.29
537.994	7.03
538.192	7.48
538.39	7.25
538.587	7.56
538.785	7.81
538.983	7.59
539.18	7.2
539.378	7.21
539.575	7.01
539.773	6.97
539.97	7.12
540.168	7.32
540.366	7.34
540.563	7.39
540.761	7.07
540.958	7.23
541.155	7.49
541.353	7.8
541.55	7.77
541.748	7.8
541.945	7.83
542.143	7.8
542.34	7.5
542.537	7.38
542.735	7.28
542.932	7.79
543.129	7.29
543.327	7.13
543.524	7
543.721	7
543.919	7.16
544.116	6.97
544.313	7.55
544.51	8
544.708	7.98
544.905	8.29
545.102	7.97
545.299	7.67
545.496	7.47
545.693	7.47
545.891	7.57
546.088	7.6
546.285	7.52
546.482	7.07
546.679	6.65
546.876	7.17
547.073	7.28
547.27	7.21
547.467	7.71
547.664	7.58
547.861	7.81
548.058	7.7
548.255	7.46
548.452	7.8
548.649	8.43
548.846	8.52
549.043	8.33
549.24	7.61
549.437	7.35
549.633	7.24
549.83	7.51
550.027	7.8
550.224	7.63
550.421	7.32
550.618	7.95
550.814	7.48
551.011	7.79
551.208	7.69
551.405	8.06
551.601	8.35
551.798	8.55
551.995	8.68
552.191	8.27
552.388	8.36
552.585	8.41
552.781	7.88
552.978	8.01
553.175	8.59
553.371	8.63
553.568	8.08
553.764	8.81
553.961	9.32
554.157	9.53
554.354	10.35
554.55	10.34
554.747	10.73
554.943	10.64
555.14	10.39
555.336	9.49
555.533	9.43
555.729	10.4
555.926	9.32
556.122	8.49
556.318	7.85
556.515	7.95
556.711	8.47
556.907	7.78
557.104	7.74
557.3	8.26
557.496	8.71
557.693	8.56
557.889	8.01
558.085	8.46
558.281	9.26
558.478	9.28
558.674	8.3
558.87	8.14
559.066	8.03
559.262	7.95
559.459	7.78
559.655	8.02
559.851	8.22
560.047	8.65
560.243	9.44
560.439	9.72
560.635	10.58
560.831	11.13
561.027	11.58
561.223	12.66
561.419	13.08
561.615	13.33
561.811	13.24
562.007	13.43
562.203	13.67
562.399	12.7
562.595	12.16
562.791	12.12
562.987	12.14
563.183	11.43
563.379	10.98
563.575	10.9
563.771	11.09
563.966	10.76
564.162	10.65
564.358	10.52
564.554	10.92
564.75	10.87
564.945	11.2
565.141	11.23
565.337	11.34
565.533	12.2
565.728	12.29
565.924	11.82
566.12	12.77
566.315	13.2
566.511	13.2
566.707	13.12
566.902	13.89
567.098	13.09
567.293	13.03
567.489	13.66
567.684	13.56
567.88	13.62
568.076	14.09
568.271	13.58
568.467	13.37
568.662	13.45
568.858	13.62
569.053	13.09
569.248	13.77
569.444	13.31
569.639	12.81
569.835	12.57
570.03	13.26
570.225	13.43
570.421	13.28
570.616	13.31
570.812	12.93
571.007	12.46
571.202	12.56
571.397	12.11
571.593	13.19
571.788	12.79
571.983	12.64
572.178	12.08
572.374	11.96
572.569	11.97
572.764	11.89
572.959	12.31
573.154	13.1
573.35	13.02
573.545	13.08
573.74	12.73
573.935	13.34
574.13	13.03
574.325	12.79
574.52	12.66
574.715	12.51
574.91	12.5
575.105	12.59
575.3	12.74
575.495	12.98
575.69	13.05
575.885	12.63
576.08	12.55
576.275	12.61
576.47	12.83
576.665	12.46
576.86	12.49
577.055	11.99
577.25	12.16
577.444	11.35
577.639	10.18
577.834	10.51
578.029	10.64
578.224	10.76
578.418	10.94
578.613	11.06
578.808	11.64
579.003	11.31
579.197	11.72
579.392	11.3
579.587	11.91
579.781	12.78
579.976	12.66
580.171	12.23
580.365	12.14
580.56	12.46
580.755	12.11
580.949	11.68
581.144	12.15
581.338	11.87
581.533	11.99
581.727	12.23
581.922	11.76
582.116	11.25
582.311	11.81
582.505	11.5
582.7	12.07
582.894	12.07
583.089	11.92
583.283	12.17
583.478	12.74
583.672	12.87
583.866	11.41
584.061	11.73
584.255	11.62
584.449	11.01
584.644	11.56
584.838	10.24
585.032	10.59
585.226	11.02
585.421	10.86
585.615	11.66
585.809	11.86
586.003	12.27
586.198	12.52
586.392	12.86
586.586	13.2
586.78	13.27
586.974	14.26
587.168	14.01
587.363	13.78
587.557	13.4
587.751	12.06
587.945	12.22
588.139	12.71
588.333	12.21
588.527	12.03
588.721	12.35
588.915	11.65
589.109	11.97
589.303	12.81
589.497	12.88
589.691	13.71
589.885	14.06
590.079	13.48
590.273	13.11
590.466	13.81
590.66	14.3
590.854	14.58
591.048	14.54
591.242	14.38
591.436	13.78
591.629	13.99
591.823	14.48
592.017	14.95
592.211	15.71
592.404	15.86
592.598	15.56
592.792	15.09
592.986	14.67
593.179	15.43
593.373	15.33
593.567	15.41
593.76	16.39
593.954	14.44
594.147	14.04
594.341	13.53
594.535	13.63
594.728	14.31
594.922	14.49
595.115	14.58
595.309	14.56
595.502	14.13
595.696	13.79
595.889	12.77
596.083	13.2
596.276	13.27
596.47	12.78
596.663	12.9
596.856	11.99
597.05	11.53
597.243	11.35
597.437	11.28
597.63	11.08
597.823	11.68
598.017	12.02
598.21	13.28
598.403	12.62
598.596	13.72
598.79	13.47
598.983	15
599.176	15.73
599.369	15.46
599.563	15.86
599.756	16.44
599.949	15.88
600.142	15.41
600.335	14.65
600.528	15.07
600.722	14.66
600.915	14.88
601.108	13.57
601.301	13.79
601.494	14.59
601.687	14.61
601.88	13.96
602.073	13.86
602.266	14.38
602.459	14.19
602.652	14.41
602.845	14.46
603.038	14.69
603.231	15.08
603.424	14.83
603.617	13.84
603.809	13.41
604.002	13.76
604.195	14.17
604.388	13.49
604.581	13.69
604.774	13.38
604.966	12.57
605.159	11.81
605.352	12.11
605.545	12.08
605.737	13.14
605.93	13.02
606.123	12.47
606.316	12.45
606.508	12.52
606.701	12.7
606.894	13.12
607.086	13.86
607.279	14.76
607.471	14.06
607.664	14.6
607.857	14.32
608.049	13.94
608.242	13.98
608.434	13.71
608.627	13.62
608.819	13.99
609.012	14.69
609.204	14.55
609.397	14.1
609.589	14.42
609.782	13.28
609.974	13.18
610.166	13.89
610.359	13.98
610.551	14.06
610.743	14.23
610.936	13.47
611.128	12.26
611.32	13.29
611.513	13.82
611.705	13
611.897	13.9
612.09	14.17
612.282	13.95
612.474	14.47
612.666	13.64
612.858	13.68
613.051	13.36
613.243	13.47
613.435	12.75
613.627	11.91
613.819	12.42
614.011	12.09
614.203	12.23
614.395	11.52
614.588	10.8
614.78	12.93
614.972	15.1
615.164	15.55
615.356	15.37
615.548	14.85
615.74	14.65
615.932	15.48
616.124	15.77
616.315	15.4
616.507	16.51
616.699	17.09
616.891	16.71
617.083	15.05
617.275	15.32
617.467	16.04
617.659	16.91
617.85	16.55
618.042	16.43
618.234	16.22
618.426	16.98
618.618	15.79
618.809	16
619.001	15.33
619.193	15.45
619.384	15.21
619.576	14.41
619.768	13.94
619.959	14.32
620.151	13.65
620.343	13.7
620.534	13.82
620.726	14.8
620.917	14.52
621.109	14.79
621.301	14.31
621.492	14.43
621.684	14.3
621.875	14.95
622.067	15.71
622.258	14.98
622.45	15.15
622.641	14.5
622.832	13.64
623.024	13.67
623.215	12.79
623.407	12.7
623.598	13.44
623.789	14.21
623.981	13.89
624.172	13.19
624.363	13.35
624.555	13.32
624.746	12.94
624.937	13.88
625.129	13.62
625.32	13.98
625.511	14.44
625.702	13.43
625.893	13.96
626.085	12.68
626.276	13.1
626.467	13.54
626.658	13.44
626.849	14.2
627.04	14.07
627.231	14.17
627.422	14
627.614	13.54
627.805	13.43
627.996	13.21
628.187	14.45
628.378	13.41
628.569	13.53
628.76	12.69
628.951	11.2
629.142	10.89
629.332	10.15
629.523	11.1
629.714	12.3
629.905	12.67
630.096	13.2
630.287	13.56
630.478	14.42
630.669	14.66
630.859	15.26
631.05	16.92
631.241	17.32
631.432	18.45
631.623	17.73
631.813	17.05
632.004	16.97
632.195	15.89
632.385	14.09
632.576	13.34
632.767	13.56
632.957	13.04
633.148	12.69
633.339	12.1
633.529	12.07
633.72	12.89
633.91	12.26
634.101	11.64
634.292	11.66
634.482	13.14
634.673	13.54
634.863	12.41
635.054	13.07
635.244	12.52
635.435	13
635.625	13.05
635.815	12.44
636.006	13.24
636.196	13.71
636.387	13.55
636.577	13.13
636.767	13.38
636.958	14.81
637.148	14.9
637.338	14.72
637.529	14.94
637.719	14.21
637.909	13.69
638.099	13.39
638.29	12.93
638.48	13.1
638.67	12.23
638.86	12.14
639.05	12.03
639.241	11.77
639.431	11.91
639.621	11.04
639.811	11.53
640.001	12.58
640.191	13.52
640.381	14.49
640.571	13.77
640.761	14.06
640.951	14.48
641.141	14.12
641.331	14.82
641.521	15.37
641.711	15.42
641.901	14.65
642.091	14.09
642.281	12.84
642.471	13.04
642.661	13.56
642.851	14.05
643.041	14.49
643.231	14.17
643.42	14.4
643.61	13.09
643.8	14.07
643.99	15.3
644.18	15.7
644.369	16.09
644.559	16.96
644.749	16.41
644.939	16.45
645.128	15.7
645.318	16.14
645.508	16.06
645.697	17.63
645.887	17.34
646.076	16.49
646.266	15.72
646.456	14.97
646.645	13.86
646.835	14.85
647.024	17.04
647.214	18.51
647.403	18.34
647.593	17.56
647.782	16.72
647.972	16.58
648.161	16.4
648.351	16.42
648.54	16.72
648.73	16.73
648.919	15.41
649.108	13.07
649.298	11.94
649.487	11.79
649.677	13.92
649.866	14.03
650.055	14.85
650.244	15.61
650.434	16.47
650.623	18.01
650.812	19.28
651.002	21.17
651.191	21.91
651.38	21.91
651.569	22.42
651.758	21.04
651.947	21.33
652.137	19.59
652.326	20.69
652.515	19.83
652.704	18.5
652.893	17.28
653.082	15.13
653.271	14.74
653.46	15.58
653.649	15.3
653.838	15.19
654.027	15.26
654.216	16.59
654.405	15.54
654.594	15.26
654.783	14.83
654.972	14.71
655.161	15.77
655.35	16.74
655.539	15.57
655.728	15.25
655.916	15.52
656.105	15.34
656.294	15.73
656.483	15.49
656.672	15.69
656.86	16.1
657.049	17.05
657.238	17.08
657.427	16.45
657.615	16.73
657.804	16.54
657.993	16.09
658.181	16.17
658.37	15.32
658.559	14.88
658.747	15.45
658.936	14.92
659.125	16.94
659.313	16.64
659.502	16.56
659.69	16.2
659.879	17.01
660.067	17.31
660.256	16.79
660.444	17.98
660.633	17.24
660.821	15.28
661.01	15.35
661.198	11.12
661.387	11.72
661.575	11.76
661.763	12.19
661.952	11.37
662.14	11.9
662.328	12.57
662.517	11.9
662.705	12.53
662.893	14.6
663.082	15.39
663.27	16.32
663.458	16.24
663.646	15.96
663.834	16.1
664.023	16.31
664.211	15.18
664.399	14.88
664.587	14.9
664.775	16.99
664.963	16.44
665.152	15.39
665.34	16.31
665.528	15.1
665.716	16.06
665.904	17.04
666.092	17.41
666.28	17.65
666.468	16.65
666.656	17.01
666.844	14.83
667.032	14.59
667.22	16.29
667.408	15.83
667.596	16.82
667.784	16.22
667.971	15.29
668.159	15.1
668.347	15.75
668.535	17
668.723	15.14
668.911	16.05
669.098	17.17
669.286	16.91
669.474	16.29
669.662	16.47
669.849	17.08
670.037	17.11
670.225	17.11
670.413	16.89
670.6	16.77
670.788	18.64
670.976	18.33
671.163	18.87
671.351	18.12
671.538	17.52
671.726	18.8
671.913	17.71
672.101	17.33
672.289	17.22
672.476	17.55
672.664	19.22
672.851	19.84
673.039	18.3
673.226	17
673.413	18.04
673.601	18.57
673.788	17.4
673.976	18.34
674.163	18.96
674.35	18.81
674.538	18.78
674.725	16.14
674.912	14.69
675.1	16.43
675.287	15.88
675.474	15.53
675.662	14.66
675.849	14.68
676.036	13.25
676.223	13.15
676.411	12.7
676.598	10.69
676.785	11.23
676.972	11.67
677.159	10.35
677.346	11.96
677.533	12.73
677.721	13.71
677.908	13.81
678.095	14.08
678.282	14.12
678.469	14.3
678.656	15.89
678.843	17.55
679.03	18.24
679.217	19.31
679.404	17.84
679.591	17.8
679.778	17.91
679.964	17.93
680.151	18.05
680.338	16.84
680.525	17.02
680.712	16.2
680.899	16.53
681.086	15.13
681.272	15.93
681.459	17.13
681.646	15.51
681.833	15.48
682.02	14.53
682.206	13.44
682.393	14.61
682.58	14.56
682.766	14.89
682.953	12.99
683.14	14.46
683.326	12.37
683.513	11.29
683.7	11.84
683.886	12.87
684.073	13.75
684.259	13.03
684.446	12.87
684.632	12.76
684.819	12.97
685.005	13.23
685.192	12.34
685.378	14.08
685.565	13.53
685.751	14.17
685.938	13.81
686.124	13.71
686.31	16.53
686.497	16.95
686.683	16.58
686.87	16.31
687.056	16.01
687.242	15.94
687.429	13.39
687.615	14.56
687.801	14.85
687.987	13.97
688.174	13.93
688.36	13.37
688.546	12.24
688.732	13.08
688.918	13.71
689.105	13.36
689.291	12.93
689.477	13.62
689.663	12.94
689.849	13.63
690.035	15.36
690.221	14.03
690.407	14.81
690.593	15.56
690.779	14.89
690.965	14.77
691.151	16.61
691.337	17.22
691.523	18.73
691.709	17.15
691.895	14.01
692.081	10.96
692.267	10.74
692.453	10.46
692.639	10.83
692.825	10.85
693.011	12.3
693.196	11.91
693.382	12.9
693.568	12.43
693.754	14.11
693.94	17.05
694.125	18.37
694.311	21.04
694.497	19.09
694.682	18.86
694.868	18.65
695.054	18.52
695.239	17.95
695.425	16.67
695.611	17.06
695.796	17.37
695.982	16.99
696.168	16.55
696.353	15.25
696.539	16.39
696.724	14.65
696.91	14.57
697.095	14.01
697.281	14.33
697.466	14.64
697.652	14.22
697.837	14.62
698.023	13.29
698.208	12.95
698.393	12.67
698.579	11.23
698.764	12.26
698.949	12.65
699.135	11.52
699.32	10.71
699.505	10.25
699.691	9.92
699.876	9.2
700.061	9.61
700.246	10.38
700.432	11.66
700.617	12.2
700.802	10.93
700.987	9.77
701.172	9.83
701.358	9.41
701.543	8.18
701.728	8.2
701.913	8.81
702.098	9.89
702.283	9.93
702.468	6.41
702.653	7.39
702.838	11.6
703.023	13.12
703.208	12.88
703.393	12.1
703.578	12.83
703.763	14.58
703.948	12.8
704.133	11.97
704.318	11.44
704.503	14.54
704.688	15.47
704.873	13.52
705.057	12.84
705.242	14.96
705.427	17.07
705.612	19.34
705.797	18.07
705.981	19.48
706.166	22.05
706.351	22.82
706.536	26.21
706.72	25.2
706.905	25.63
707.09	25.76
707.274	26.59
707.459	25.47
707.644	23.86
707.828	23.61
708.013	23.07
708.197	20.67
708.382	18.79
708.567	15.95
708.751	14.34
708.936	10.9
709.12	12.25
709.305	9.6
709.489	11.01
709.673	8.88
709.858	8.63
710.042	9.12
710.227	9.28
710.411	10.19
710.596	10.22
710.78	12.44
710.964	13.61
711.149	11.91
711.333	12.09
711.517	11.06
711.702	15.11
711.886	15.97
712.07	16.21
712.254	16.47
712.438	14.56
712.623	14.56
712.807	13.6
712.991	16.35
713.175	16.42
713.359	17.15
713.544	17.17
713.728	14.76
713.912	14.28
714.096	15.08
714.28	16.41
714.464	17.79
714.648	17.32
714.832	17.99
715.016	14.84
715.2	16.5
715.384	14.09
715.568	13.19
715.752	13.17
715.936	13.09
716.12	13.14
716.304	13.94
716.488	16.34
716.671	14.24
716.855	14.49
717.039	15.01
717.223	13.14
717.407	15.22
717.59	16.28
717.774	14.48
717.958	13.98
718.142	12.14
718.325	8.95
718.509	8.14
718.693	11.16
718.877	10.34
719.06	8.68
719.244	9.9
719.428	8.26
719.611	7.04
719.795	8.61
719.978	8.97
720.162	11.98
720.345	12.22
720.529	11.27
720.713	12.71
720.896	13.63
721.08	17.67
721.263	15.95
721.446	19.05
721.63	21.09
721.813	21.44
721.997	22.58
722.18	20.46
722.364	18.75
722.547	18.99
722.73	15.14
722.914	15.42
723.097	12.64
723.28	13.58
723.464	10.77
723.647	11.74
723.83	13.03
724.013	13.04
724.197	10.76
724.38	15.56
724.563	14.41
724.746	15.23
724.929	15.69
725.112	12.79
725.296	14.42
725.479	15.08
725.662	11.02
725.845	11.13
726.028	12.2
726.211	13.26
726.394	12.53
726.577	11.86
726.76	14.97
726.943	13.97
727.126	17.15
727.309	12.98
727.492	13.34
727.675	17.27
727.858	17.37
728.041	13.45
728.224	12.29
728.407	9.77
728.589	12.19
728.772	9.95
728.955	10.76
729.138	10.09
729.321	11.28
729.503	11.38
729.686	10.56
729.869	10.13
730.052	15.14
730.234	18.23
730.417	17.97
730.6	17.09
730.782	17.5
730.965	15.44
731.148	15.21
731.33	18.85
731.513	17.88
731.695	17.73
731.878	18.05
732.061	14.5
732.243	9.6
732.426	10.7
732.608	10.47
732.791	9.68
732.973	10.11
733.156	10.79
733.338	7.84
733.52	11.09
733.703	8.15
733.885	5.68
734.068	9.02
734.25	14.6
734.432	13.89
734.615	12.77
734.797	13.43
734.979	13.16
735.162	13.92
735.344	12.9
735.526	9.72
735.708	12.96
735.891	12.03
736.073	11.21
736.255	10.85
736.437	10.12
736.619	14.17
736.802	15.54
736.984	17.29
737.166	16.83
737.348	16.83
737.53	19.66
737.712	19.28
737.894	21.55
738.076	20.71
738.258	19.74
738.44	20.34
738.622	18.03
738.804	15.41
738.986	13.07
739.168	11.96
739.35	13.1
739.532	11.38
739.714	8.52
739.896	11.39
740.078	9.11
740.259	8.31
740.441	5.97
740.623	3.87
740.805	7.45
740.987	7.11
741.168	8.86
741.35	10.79
741.532	9.63
741.714	14.48
741.895	8.83
742.077	10.28
742.259	10.83
742.44	12.06
742.622	14.16
742.804	12.61
742.985	14.46
743.167	13.43
743.348	12.01
743.53	9.44
743.711	7.82
743.893	11.32
744.075	12.94
744.256	9.42
744.438	9.27
744.619	8.11
744.8	7.64
744.982	7.7
745.163	12.2
745.345	14.89
745.526	15.11
745.707	11
745.889	10.88
746.07	7.82
746.252	11.17
746.433	14.11
746.614	17.25
746.795	19.45
746.977	19.41
747.158	15.5
747.339	15.47
747.52	16.26
747.702	21.56
747.883	23.33
748.064	23.52
748.245	22.36
748.426	21.35
748.607	18.51
748.788	17.39
748.97	17.67
749.151	16.18
749.332	18.05
749.513	16.86
749.694	12.39
749.875	10.82
750.056	13.15
750.237	14.41
750.418	12.3
750.599	9.51
750.78	11.09
750.96	8.41
751.141	11.41
751.322	7.9
751.503	10.66
751.684	15.14
751.865	12.76
752.046	10.54
752.226	9.55
752.407	12.93
752.588	17.38
752.769	17.33
752.949	15.91
753.13	17.79
753.311	20.12
753.492	23.68
753.672	22.05
753.853	23.84
754.034	26.97
754.214	27.52
754.395	26.89
754.575	26.1
754.756	24.05
754.937	27.13
755.117	26.04
755.298	22.07
755.478	18.53
755.659	17.45
755.839	19.77
756.02	18.28
756.2	15.89
756.381	8.16
756.561	7.44
756.741	6.71
756.922	7.56
757.102	6.62
757.283	11.68
757.463	11.19
757.643	11.59
757.823	8.03
758.004	3.5
758.184	7.13
758.364	12.96
758.545	15.7
758.725	17.05
758.905	18.26
759.085	16.07
759.265	14.19
759.446	15.19
759.626	14.51
759.806	17.11
759.986	18.76
760.166	17.71
760.346	17.41
760.526	16.82
760.706	14.74
760.886	14.77
761.066	15.04
761.246	15.38
761.426	13.34
761.606	13.74
761.786	13.09
761.966	13.04
762.146	12.94
762.326	12.96
762.506	12.38
762.686	13.11
762.866	11.52
763.046	11.05
763.225	9.83
763.405	7.05
763.585	7.65
763.765	3.56
763.945	8.1
764.124	7.2
764.304	9.53
764.484	8.58
764.664	7.75
764.843	8.98
765.023	11.85
765.203	15.11
765.382	21.28
765.562	19.21
765.741	22.39
765.921	19.07
766.101	22.02
766.28	17.33
766.46	18.7
766.639	19.06
766.819	21.31
766.998	19.38
767.178	18
767.357	15.23
767.537	18.17
767.716	20.82
767.896	18.29
768.075	15.9
768.254	20.84
768.434	18.33
768.613	21.6
768.792	20.9
768.972	19.52
769.151	19.89
769.33	19.67
769.51	15.22
769.689	11.82
769.868	15.06
770.047	18.83
770.226	15.51
770.406	15.54
770.585	14.35
770.764	7.17
770.943	11.63
771.122	6.09
771.301	7.21
771.48	13.03
771.66	18.57
771.839	20.16
772.018	17.78
772.197	18.73
772.376	21.91
772.555	20.77
772.734	22.55
772.913	20.94
773.092	29.78
773.271	38.44
773.449	35.06
773.628	25.34
773.807	18.08
773.986	16.75
774.165	21.09
774.344	26.29
774.523	28.44
774.701	32
774.88	26.4
775.059	29.99
775.238	24.96
775.417	25.76
775.595	24.56
775.774	33.37
775.953	25.77
776.131	26.67
776.31	16.84
776.489	17.01
776.667	21
776.846	25.04
777.025	22.68
777.203	20.76
777.382	24.82
777.56	28.06
777.739	23.45
777.917	33.33
778.096	32.64
778.274	38.09
778.453	36.13
778.631	30.67
778.81	30.74
778.988	22.28
779.166	23.42
779.345	20.51
779.523	14.03
779.702	10.57
779.88	9.95
780.058	7.99
780.237	0.96
780.415	-0.68
780.593	-3.25
780.771	4.09
780.95	12.54
781.128	12.51
781.306	13.96
781.484	20.3
781.662	25.9
781.841	13.84
782.019	13.98
782.197	20.15
782.375	21.99
782.553	25.47
782.731	12.9
782.909	7.33
783.087	4.65
783.265	10.15
783.443	6.73
783.621	7.82
783.799	13.09
783.977	18.08
784.155	15.8
784.333	19.53
784.511	19.05
784.689	19.71
784.867	17.08
785.045	16.04
785.223	11.48
785.4	17.09
785.578	17.04
785.756	16.56
785.934	11.7
786.112	15.42
786.289	11.88
786.467	16.7
786.645	15.76
786.823	23.58
787	24.66
787.178	26.32
787.356	25.13
787.533	20.78
787.711	23.03
787.889	20.56
788.066	21.16
788.244	21.53
788.421	17.37
788.599	15.52
788.776	12.72
788.954	12.39
789.131	9.35
789.309	6.65
789.486	8.42
789.664	12.68
789.841	13.96
790.019	14.06
790.196	18.6
790.373	19.68
790.551	22.76
790.728	14.69
790.906	19.11
791.083	19.54
791.26	20.48
791.437	26.37
791.615	24.4
791.792	25.55
791.969	22.48
792.146	16.59
792.324	11.42
792.501	5.76
792.678	13.95
792.855	5.56
793.032	7.71
793.209	8.52
793.387	-1.39
793.564	-3.93
793.741	-1.99
793.918	1.43
794.095	2.46
794.272	7.02
794.449	18.31
794.626	18.68
794.803	24.51
794.98	23.9
795.157	22.01
795.334	16.49
795.511	17.22
795.688	16.54
795.864	21.22
796.041	18.79
796.218	19.42
796.395	12.38
796.572	11.08
796.749	13.77
796.925	9.23
797.102	9.42
797.279	31.12
797.456	34.19
797.632	41.66
797.809	38.85
797.986	42.56
798.162	32.47
798.339	32.1
798.516	34.12
798.692	23.52
798.869	19.73
799.046	30.45
799.222	13.12
799.399	8.94
799.575	8.33
799.752	12.9
799.928	20.09
800.105	26.63
800.281	31.74
800.458	27.37
800.634	24.38
800.811	23.59
800.987	7.31
801.163	12.41
801.34	6.83
801.516	-3.87
801.692	-23.04
801.869	-19.95
802.045	-22.93
802.221	-33.41
802.398	-19.68
802.574	-16
802.75	-5.71
802.926	-6.22
803.103	-9.99
803.279	-10.86
803.455	-9.62
803.631	-4.32
803.807	2.28
803.983	7.56
804.16	7.94
804.336	-5.95
804.512	-9.53
804.688	-9.47
804.864	-2.02
805.04	-12.53
805.216	1.18
805.392	14.94
805.568	10.36
805.744	2.47
805.92	5.15
806.096	19.23
806.272	23.16
806.448	23.44
806.623	22.96
806.799	19.4
806.975	28.71
807.151	25.11
807.327	9.76
807.503	13.2
807.678	11.23
807.854	14.76
808.03	5.14
808.206	9.12
808.381	14.77
808.557	16.37
808.733	22.9
808.908	15.34
809.084	10.91
809.26	11.89
809.435	15.97
809.611	15.52
809.787	14.41
809.962	23.87
810.138	21.29
810.313	28.21
810.489	35.32
810.664	27.85
810.84	32.73
811.015	19.78
811.191	18.79
811.366	15.34
811.542	7.26
811.717	2.96
811.892	-25.52
812.068	-29.62
812.243	-63.57
812.419	-71.68
812.594	-51.89
812.769	-25.18
812.944	19.31
813.12	5.01
813.295	-5.61
813.47	6.84
813.645	0.64
813.821	-1.26
813.996	5.24
814.171	14.41
814.346	3.48
814.521	3.43
814.697	-8.84
814.872	-24.86
815.047	-16.01
815.222	-3.11
815.397	-21.09
815.572	-11.87
815.747	2.56
815.922	-1.48
816.097	-6.04
816.272	-3.77
816.447	-15.01
816.622	-18.05
816.797	-11.12
816.972	-7.78
817.147	-12.13
817.322	1.89
817.496	-4.41
817.671	-9.19
817.846	-8.47
818.021	-3.65
818.196	5.5
818.371	12.69
818.545	15.03
818.72	14.53
818.895	18.02
819.069	14.36
819.244	12.85
819.419	14.35
819.594	15.69
819.768	18.04
819.943	13.77
820.117	11.17
820.292	12.63
820.467	11.15
820.641	12.55
820.816	11
820.99	12.14
821.165	12.02
821.339	11.7
821.514	11.59
821.688	11.11
821.863	12.14
822.037	12.28
822.212	11.54
822.386	13.8
822.56	13.66
822.735	14.8
822.909	16.78
823.084	17.75
823.258	19.75
823.432	20.07
823.606	19.15
823.781	17.73
823.955	18.1
824.129	18.27
824.303	13
824.478	6.09
824.652	-1.27
824.826	-3.94
825	-8.03
825.174	-8.22
825.348	-4.12
825.523	-2.49
825.697	2.47
825.871	5.19
826.045	7.88
826.219	11.3
826.393	13.82
826.567	17.74
826.741	16.91
826.915	21.38
827.089	23.85
827.263	21.36
827.437	20.84
827.611	20.95
827.784	10.66
827.958	4.25
828.132	-0.77
828.306	0.17
828.48	1.5
828.654	-0.19
828.827	-2.82
829.001	-25.03
829.175	-29.81
829.349	-37.9
829.522	-59.17
829.696	-32.67
829.87	-53.56
830.044	-45.19
830.217	-64.43
830.391	-81.41
830.565	-98.15
830.738	-94.55
830.912	-58.58
831.085	-46.08
831.259	-30.87
831.432	-23.58
831.606	-6.26
831.779	6.06
831.953	9.99
832.126	17.04
832.3	17.82
832.473	25.73
832.647	21.35
832.82	16.74
832.994	8.47
833.167	13.59
833.34	14.17
833.514	11.06
833.687	5.37
833.86	1.78
834.034	-1.49
834.207	-10.5
834.38	-17.33
834.553	-19.19
834.727	-19.4
834.9	-19.78
835.073	-43.45
835.246	-48.06
835.419	-82.89
835.593	-107.11
835.766	-130.95
835.939	-40.35
836.112	-47.84
836.285	-66.93
836.458	-4.01
836.631	-16.7
836.804	-24.81
836.977	-10.9
837.15	-1.21
837.323	6.38
837.496	7.69
837.669	-3.3
837.842	-16.62
838.015	-9.15
838.188	-6.28
838.361	-13.74
838.533	0.68
838.706	5.15
838.879	5.57
839.052	-7.55
839.225	-3.77
839.398	-1.04
839.57	19.42
839.743	8.48
839.916	8.49
840.088	19.77
840.261	26.68
840.434	18.45
840.607	20.5
840.779	14.53
840.952	4.91
841.124	3.01
841.297	-18.62
841.47	-36.73
841.642	-29.97
841.815	-45.8
841.987	-87.87
842.16	-1041.18
842.332	-751.47
842.505	861.54
842.677	613.89
842.85	797.06
843.022	-4700
843.194	-1122.58
843.367	147.56
843.539	356.96
843.712	265.55
843.884	218.88
844.056	151.16
844.229	114.29
844.401	391.15
844.573	446.99
844.745	-279.31
844.918	-90
845.09	25.69
845.262	10.65
845.434	11.99
845.606	23.35
845.779	0.47
845.951	9
846.123	2.18
846.295	7.01
846.467	3.95
846.639	-16.98
846.811	-54.24
846.983	-124.76
847.155	-220.07
847.327	-391.5
847.499	-540
847.671	-249.07
847.843	3268.42
848.015	1764.52
848.187	-960.34
848.359	-4933.33
848.531	-502.75
848.703	-409.37
848.875	-242.37
849.047	-122.9
849.218	-122.17
849.39	-321.15
849.562	7100
849.734	-382.09
849.905	-1526.67
850.077	-86.11
850.249	0.28
850.421	-25.89
850.592	-58.11
850.764	-67.3
850.936	-122.43
851.107	-102.9
851.279	-203.74
851.451	-141.72
851.622	-35.75
851.794	-32.96
851.965	-58.09
852.137	-132.42
852.308	-117.46
852.48	-31.51
852.651	-15
852.823	35.98
852.994	41.83
853.166	73.34
853.337	66.12
853.509	39.25
853.68	109.72
853.851	-650
854.023	171.07
854.194	202.65
854.365	4150
854.537	172.73
854.708	123.81
854.879	131.91
855.05	-30.59
855.222	0.57
855.393	-10.31
855.564	-5.5
855.735	-17.87
855.906	-27.75
856.078	-1.98
856.249	43.88
856.42	22.79
856.591	15.6
856.762	-31.98
856.933	-15.06
857.104	-49.06
857.275	-4.89
857.446	-41.96
857.617	-47.31
857.788	-53.69
857.959	-87.28
858.13	-273.21
858.301	-121.38
858.472	-123.53
858.643	-44.22
858.814	33.56
858.985	96.97
859.155	121.4
859.326	94.07
859.497	106.14
859.668	94.24
859.839	94.81
860.009	87.19
860.18	80.7
860.351	83.88
860.522	74.03
860.692	69.91
860.863	1.15
861.034	38.2
861.204	49.41
861.375	31.6
861.546	21.65
861.716	38.6
861.887	49.92
862.057	70.02
862.228	51.4
862.398	42.23
862.569	-8.73
862.739	-32.76
862.91	-10.79
863.08	-393.59
863.251	-147.57
863.421	-162.73
863.592	-287.86
863.762	770
863.932	1096.77
864.103	2925
864.273	548.57
864.443	-1402.27
864.614	-408.23
864.784	-1694.87
864.954	-3027.27
865.125	1906.06
865.295	3250
865.465	-698.15
865.635	-104.37
865.805	-118.03
865.976	-110.92
866.146	-11.07
866.316	22.16
866.486	39.15
866.656	30.89
866.826	40.79
866.996	33.09
867.166	27.68
867.336	-0.43
867.506	-15.06
867.676	-17.37
867.846	-33.71
868.016	-52.16
868.186	-100.5
868.356	-262.09
868.526	-458
868.696	-673.42
868.866	-229.48
869.036	-157.68
869.206	3047.06
869.376	4760
869.545	-4710
869.715	-556.25
869.885	416.9
870.055	372.6
870.224	-199.21
870.394	-974.51
870.564	395.77
870.734	-134.78
870.903	-167.26
871.073	-71.89
871.243	-327.21
871.412	-112.31
871.582	-96.5
871.751	-70.27
871.921	-104.5
872.091	-211.43
872.26	-55.09
872.43	-56.49
872.599	-95.85
872.769	-51.37
872.938	-50.41
873.108	-10.11
873.277	-22.54
873.446	-7.31
873.616	-38.83
873.785	-27.07
873.955	-0.33
874.124	-4.3
874.293	-8.36
874.463	-20.41
874.632	-38.84
874.801	-45.86
874.971	-27.11
875.14	-3.41
875.309	-98.92
875.478	-60.29
875.647	-10.17
875.817	21.55
875.986	15.98
876.155	9.13
876.324	29.04
876.493	48.15
876.662	56.49
876.831	52.26
877	54.92
877.17	44.95
877.339	43.61
877.508	36.21
877.677	-18.53
877.846	-66.94
878.015	-56.25
878.184	-54.01
878.352	-27.05
878.521	-8.72
878.69	-46.54
878.859	-42.52
879.028	-75.32
879.197	-12.21
879.366	7.69
879.534	24.74
879.703	21.94
879.872	24.72
880.041	23.49
880.21	19.03
880.378	11.96
880.547	15.61
880.716	18.56
880.884	15.27
881.053	13.9
881.222	14.6
881.39	15.24
881.559	18.86
881.727	16.64
881.896	15.02
882.065	10.05
882.233	17.81
882.402	21.01
882.57	16.39
882.739	14.11
882.907	13.37
883.076	16.19
883.244	27.01
883.412	33.51
883.581	43.38
883.749	47.41
883.918	53.59
884.086	38.1
884.254	25.34
884.423	32.37
884.591	41.48
884.759	40.85
884.927	30.18
885.096	29.24
885.264	29.99
885.432	22.72
885.6	27.2
885.769	30.67
885.937	36.66
886.105	60.44
886.273	86.32
886.441	97.41
886.609	89.45
886.777	110.91
886.945	79.09
887.113	48.58
887.281	33.62
887.449	21.48
887.617	41.03
887.785	29.73
887.953	13.25
888.121	-35.71
888.289	-44.53
888.457	-42.21
888.625	-68.48
888.793	-94.03
888.961	-42.73
889.129	-20.67
889.296	-107.89
889.464	-562.9
889.632	-336.84
889.8	-938.46
889.967	15.46
890.135	95.24
