Data from JASIL_3057_Reflection_01.txt Node
Date: Mon Nov 09 11:26:38 EST 2015
User: Geneva
Spectrometer: USB4E03002
Autoset integration time: false
Trigger mode: 4
Integration Time (sec): 1.000000E-1
Scans to average: 10
Electric dark correction enabled: false
Nonlinearity correction enabled: false
Boxcar width: 5
Stray light correction enabled: false
XAxis mode: Wavelengths
Stop averaging: false
Number of Pixels in Spectrum: 3648
>>>>>Begin Spectral Data<<<<<
177.575	-33.33
177.794	-86.99
178.014	-21.52
178.233	16.7
178.452	-9.35
178.672	-47.15
178.891	-22.34
179.11	29.48
179.33	43.89
179.549	45.76
179.768	47.47
179.987	30
180.207	64.26
180.426	8.06
180.645	204.05
180.864	-100
181.084	184.78
181.303	158.79
181.522	241.67
181.741	111.76
181.96	52.7
182.179	315.62
182.398	80
182.618	234.23
182.837	600
183.056	90.37
183.275	171.9
183.494	103.96
183.713	118.54
183.932	118.61
184.151	86.44
184.37	113.35
184.589	193.55
184.808	-24.46
185.027	87.65
185.246	-76.47
185.465	74.29
185.684	190.91
185.903	93.33
186.122	99.06
186.341	123.5
186.56	51.69
186.779	140
186.998	586.11
187.216	352.44
187.435	313.22
187.654	259.87
187.873	1200
188.092	357.72
188.311	433.87
188.53	318.23
188.748	320.73
188.967	221.97
189.186	485.71
189.405	-7425
189.623	1073.68
189.842	135.03
190.061	37.29
190.28	-18.79
190.498	-47.44
190.717	-248.65
190.936	120.39
191.154	105.63
191.373	74.94
191.592	77.67
191.81	18.08
192.029	-33.06
192.248	-50.24
192.466	-170.87
192.685	-38.11
192.904	-11.54
193.122	-104.3
193.341	-12.5
193.559	-726.67
193.778	1711.11
193.996	-151.09
194.215	-1.39
194.433	54.59
194.652	-28.92
194.87	57.14
195.089	37.6
195.307	52.94
195.526	207.58
195.744	-450
195.963	-240
196.181	-154.3
196.399	-187.08
196.618	-238.26
196.836	-485.71
197.055	199.54
197.273	199.37
197.491	45.19
197.71	56.97
197.928	84.57
198.146	96.15
198.365	104
198.583	43.34
198.801	58.54
199.019	44.65
199.238	65.32
199.456	34.57
199.674	78.3
199.892	182.16
200.111	264.48
200.329	214.8
200.547	162.39
200.765	141.89
200.983	172.62
201.202	364.66
201.42	199.07
201.638	293.8
201.856	-382.86
202.074	-158.56
202.292	-188.43
202.51	5275
202.728	365.91
202.946	-80.91
203.165	-1788.89
203.383	845
203.601	-13.53
203.819	-248.42
204.037	-935.29
204.255	282.22
204.473	331.75
204.691	102.67
204.909	162.07
205.127	1400
205.345	235.67
205.562	-86.67
205.78	-2250
205.998	152.6
206.216	269.7
206.434	-283.87
206.652	559.57
206.87	-274.71
207.088	-38.08
207.306	15.83
207.523	81.25
207.741	43.13
207.959	-407.14
208.177	-5.88
208.395	-31.79
208.612	-83.08
208.83	-71.91
209.048	-31.98
209.266	-40.94
209.483	-50.66
209.701	-38.44
209.919	-8.86
210.136	14.56
210.354	47.08
210.572	90.58
210.79	-376.79
211.007	6633.33
211.225	610.34
211.442	-10550
211.66	-13.47
211.878	8.49
212.095	196.77
212.313	229.09
212.53	368.38
212.748	310.58
212.966	362.85
213.183	5118.18
213.401	-3370.37
213.618	470.22
213.836	472.3
214.053	437.82
214.271	16000
214.488	547.47
214.705	-500
214.923	-232.34
215.14	-156.98
215.358	-125.69
215.575	-58.54
215.793	-37.22
216.01	-42.83
216.227	-10.58
216.445	-15.52
216.662	-24.05
216.879	-5.52
217.097	85.19
217.314	368.18
217.531	-335.29
217.749	-36.29
217.966	-3.24
218.183	-13.89
218.4	-15.13
218.618	-28.25
218.835	-23.51
219.052	-5.44
219.269	-157.59
219.487	-829.17
219.704	-200
219.921	-13.33
220.138	-62.88
220.355	-73.78
220.572	-19.31
220.79	-48.06
221.007	-96.77
221.224	296.88
221.441	1400
221.658	73.2
221.875	61.14
222.092	39.93
222.309	31.43
222.526	-3271.43
222.743	192.86
222.96	82.94
223.177	61.22
223.394	105.3
223.611	69.58
223.828	76.31
224.045	73.1
224.262	69.39
224.479	54.71
224.696	42.08
224.913	18.6
225.13	29.68
225.347	35.01
225.564	34.31
225.781	23.99
225.997	28.5
226.214	23.51
226.431	15.1
226.648	3.67
226.865	13.25
227.082	12.82
227.298	17.54
227.515	7.13
227.732	3.7
227.949	11.06
228.165	12.46
228.382	5.97
228.599	10.33
228.816	10.81
229.032	12.99
229.249	16.18
229.466	15.29
229.682	7.36
229.899	12.53
230.116	12.73
230.332	8.47
230.549	25.21
230.765	34.67
230.982	36.73
231.199	44.82
231.415	52.66
231.632	56.56
231.848	65.95
232.065	75.64
232.281	87.31
232.498	89.9
232.714	70.59
232.931	68.59
233.147	58.4
233.364	42.37
233.58	37.74
233.797	29.64
234.013	6.43
234.23	-11.43
234.446	2.19
234.662	-38.65
234.879	-18.75
235.095	-2.76
235.312	2.59
235.528	12
235.744	19.17
235.961	23.45
236.177	26.43
236.393	23.46
236.61	51.73
236.826	43.14
237.042	46.74
237.258	42.42
237.475	32.62
237.691	29.96
237.907	27.32
238.123	26.22
238.339	20.92
238.556	8.9
238.772	15.28
238.988	-8.57
239.204	-9.84
239.42	-14.08
239.636	-15.3
239.853	-9.36
240.069	-13.09
240.285	-13.62
240.501	-11.7
240.717	-11.77
240.933	-5.06
241.149	-6.23
241.365	-1.34
241.581	6.06
241.797	7.09
242.013	7.43
242.229	11.53
242.445	8.8
242.661	11.76
242.877	11.38
243.093	8.35
243.309	7.46
243.525	8.57
243.741	4.12
243.957	2.5
244.173	7.23
244.388	9.36
244.604	8.77
244.82	10.87
245.036	10.43
245.252	11.23
245.468	12.16
245.683	11.35
245.899	11.33
246.115	13.08
246.331	10.99
246.547	8.22
246.762	7.47
246.978	7.33
247.194	6.49
247.409	4.58
247.625	2.99
247.841	1.01
248.057	2.62
248.272	3.34
248.488	2.3
248.703	-0.54
248.919	-4.19
249.135	-3.21
249.35	-3.48
249.566	-0.08
249.782	-3.15
249.997	3.05
250.213	7.71
250.428	7.54
250.644	6.93
250.859	8.82
251.075	15.02
251.29	18.45
251.506	20.47
251.721	20.83
251.937	19.55
252.152	21.36
252.368	20.92
252.583	18.83
252.798	21.1
253.014	22.86
253.229	18.33
253.445	12.12
253.66	20.25
253.875	17.65
254.091	21.51
254.306	26.67
254.521	22.24
254.737	20.91
254.952	23.61
255.167	28.45
255.383	26.66
255.598	24.84
255.813	25.52
256.028	19.28
256.244	15.7
256.459	7.7
256.674	-1.28
256.889	1.21
257.104	0.58
257.32	-1.46
257.535	-9.27
257.75	-7.6
257.965	-5.47
258.18	-5.77
258.395	-4.11
258.61	-2.25
258.826	-2.12
259.041	-0.88
259.256	0.1
259.471	-2.25
259.686	-4.94
259.901	-3.72
260.116	-4.78
260.331	-3.42
260.546	0.66
260.761	-2.14
260.976	-4.81
261.191	-4.66
261.406	-4.44
261.621	-4.35
261.836	6.53
262.05	9.48
262.265	15.44
262.48	18.55
262.695	12.87
262.91	7.03
263.125	8
263.34	10.14
263.555	7.79
263.769	6.25
263.984	5.79
264.199	-3.36
264.414	1.67
264.629	-2.26
264.843	-3.33
265.058	0.65
265.273	1.54
265.488	3.5
265.702	5.92
265.917	10.84
266.132	11.93
266.346	11.2
266.561	10.55
266.776	13.05
266.99	11.76
267.205	10.93
267.42	9.41
267.634	10.1
267.849	10.14
268.063	5.38
268.278	1.91
268.492	2.83
268.707	5.26
268.922	7.19
269.136	4.42
269.351	7.02
269.565	6.31
269.78	5.04
269.994	6.41
270.209	2.6
270.423	4.01
270.637	3.54
270.852	1.58
271.066	1.41
271.281	0.16
271.495	1.49
271.709	-2.8
271.924	0.39
272.138	1.86
272.353	0.19
272.567	0.78
272.781	2.6
272.996	-0.16
273.21	-3.13
273.424	-4.7
273.638	-4.19
273.853	-6.94
274.067	-4.28
274.281	-7.87
274.495	-9.95
274.71	-8.23
274.924	-7.29
275.138	-8.19
275.352	-7.47
275.566	-3.33
275.781	-4.05
275.995	-3.74
276.209	-1.74
276.423	-1.5
276.637	0.02
276.851	0.19
277.065	-3.79
277.279	0.79
277.493	-0.97
277.707	2.02
277.921	3.14
278.135	4.88
278.349	5.08
278.563	4.97
278.777	4.62
278.991	6.77
279.205	4.83
279.419	9.7
279.633	5.07
279.847	5.87
280.061	5.69
280.275	5.53
280.489	5.33
280.703	5.65
280.917	5.2
281.131	6.39
281.344	4.33
281.558	8.25
281.772	8.43
281.986	9.4
282.2	7.14
282.414	6.03
282.627	6.25
282.841	6.01
283.055	4.88
283.269	3.87
283.482	3.39
283.696	0.95
283.91	-1.75
284.123	-3.84
284.337	-2.41
284.551	0.85
284.764	2.26
284.978	-3.2
285.192	-5.4
285.405	-6.01
285.619	-5.71
285.833	-8.15
286.046	-4.42
286.26	-1.72
286.473	-0.05
286.687	-0.92
286.9	0.38
287.114	-0.28
287.327	1.38
287.541	5.19
287.754	7.68
287.968	8.62
288.181	11.67
288.395	9.41
288.608	8.67
288.822	7.43
289.035	5.96
289.248	2.24
289.462	3.14
289.675	7.82
289.889	8.45
290.102	5.77
290.315	1.73
290.529	0.48
290.742	0.98
290.955	-0.88
291.169	1
291.382	3.15
291.595	4.96
291.808	5.16
292.022	6.2
292.235	5.46
292.448	9.48
292.661	9.59
292.875	9.67
293.088	7.98
293.301	10.2
293.514	10.37
293.727	9.66
293.94	8.69
294.153	6.45
294.367	5.07
294.58	2.17
294.793	-0.39
295.006	-0.38
295.219	2.09
295.432	4.08
295.645	1.98
295.858	-0.14
296.071	-0.89
296.284	-0.91
296.497	-0.25
296.71	0.5
296.923	1.39
297.136	1.56
297.349	1.02
297.562	-0.99
297.775	-1.07
297.988	-2.22
298.201	-2.53
298.414	-2.01
298.626	-0.43
298.839	-2.02
299.052	-3.74
299.265	-1.02
299.478	0.19
299.691	0.66
299.903	-0.71
300.116	-1.22
300.329	0.57
300.542	4.4
300.755	1.74
300.967	2.82
301.18	5.48
301.393	3.64
301.605	1.03
301.818	0.1
302.031	2.43
302.243	3.15
302.456	2.67
302.669	4.9
302.881	2.89
303.094	6.37
303.307	5.07
303.519	3.25
303.732	5.55
303.944	4.15
304.157	6.01
304.37	5.58
304.582	4.7
304.795	5.88
305.007	1.48
305.22	-0.19
305.432	-1.27
305.645	-3.59
305.857	-1.49
306.069	-4.85
306.282	-1.48
306.494	-4.41
306.707	-5.12
306.919	-5.89
307.132	-6.41
307.344	-3.11
307.556	-2.22
307.769	0.47
307.981	3.68
308.193	4.07
308.406	5.65
308.618	6.2
308.83	7.36
309.043	7.1
309.255	9.7
309.467	10.87
309.679	11.37
309.892	13.64
310.104	10.59
310.316	10.1
310.528	8.24
310.74	8.92
310.953	6.02
311.165	5.07
311.377	5.95
311.589	3.57
311.801	4.41
312.013	0.26
312.225	-4.1
312.437	-0.74
312.649	0.56
312.862	1.85
313.074	3.72
313.286	6.09
313.498	6.71
313.71	7.16
313.922	7.32
314.134	4.85
314.346	7.16
314.558	10.09
314.77	7.79
314.982	4.01
315.193	1.73
315.405	-0.15
315.617	-1.25
315.829	0.43
316.041	0.33
316.253	-0.91
316.465	-0.67
316.677	0.64
316.888	-1.24
317.1	2.44
317.312	2.83
317.524	5.39
317.736	2.42
317.947	3.81
318.159	2.55
318.371	-0.39
318.583	2.18
318.794	3.28
319.006	1.81
319.218	-0.26
319.43	-0.22
319.641	4.02
319.853	3.97
320.064	4.58
320.276	3.98
320.488	6.23
320.699	9.04
320.911	12.02
321.123	11.36
321.334	12.25
321.546	11.86
321.757	7.94
321.969	4.26
322.18	3.52
322.392	6.95
322.603	5.79
322.815	6.07
323.026	3.47
323.238	2.27
323.449	0.32
323.661	1.75
323.872	4.69
324.083	4.24
324.295	4.88
324.506	4.03
324.718	3.39
324.929	3.75
325.14	2.75
325.352	6.97
325.563	4.18
325.774	7.19
325.986	7.33
326.197	6.9
326.408	7.8
326.62	7.89
326.831	9.21
327.042	7.47
327.253	7.11
327.464	8.83
327.676	7.12
327.887	11.74
328.098	9.56
328.309	8.78
328.52	8.79
328.732	9.57
328.943	9.53
329.154	11
329.365	11.44
329.576	14.3
329.787	11.78
329.998	12.33
330.209	9.17
330.42	12.32
330.631	11.81
330.842	12.78
331.053	14.38
331.264	15.55
331.475	16.24
331.686	18.29
331.897	19.47
332.108	17.99
332.319	18.11
332.53	16.62
332.741	17.2
332.952	15.38
333.163	14.6
333.374	12.63
333.585	14.61
333.795	11.75
334.006	11.48
334.217	10.14
334.428	11.67
334.639	12.26
334.849	13.24
335.06	11.5
335.271	13.45
335.482	14.78
335.692	14.91
335.903	13.25
336.114	13.6
336.325	12.04
336.535	11.81
336.746	11.46
336.957	12.75
337.167	14.07
337.378	13.68
337.589	15.89
337.799	16.27
338.01	15.34
338.22	12.91
338.431	13.13
338.642	15.08
338.852	14.79
339.063	15.29
339.273	14.02
339.484	11.27
339.694	12.02
339.905	9.36
340.115	8.5
340.326	12.18
340.536	13.06
340.746	13.02
340.957	11.51
341.167	12.18
341.378	11.69
341.588	10.76
341.799	11.9
342.009	12.37
342.219	14.35
342.43	14.01
342.64	12.48
342.85	14.35
343.061	16.13
343.271	15.68
343.481	14.9
343.691	15.55
343.902	15.69
344.112	15.17
344.322	14.29
344.532	14.07
344.743	14.26
344.953	15.26
345.163	13.57
345.373	10.29
345.583	9.76
345.793	10.17
346.004	9.49
346.214	8.85
346.424	11.62
346.634	10.83
346.844	9.09
347.054	10.64
347.264	7.58
347.474	8.62
347.684	9.35
347.894	8.15
348.104	5.84
348.314	6.09
348.524	4.3
348.734	0.89
348.944	2.57
349.154	2.91
349.364	1.89
349.574	2.04
349.784	4.15
349.994	6.08
350.204	8.72
350.413	11.08
350.623	11.14
350.833	12.54
351.043	12.99
351.253	13.08
351.463	10.38
351.672	10.42
351.882	11.55
352.092	9.77
352.302	8.7
352.511	8.53
352.721	6.9
352.931	6.24
353.141	7.34
353.35	7.82
353.56	6.53
353.77	9.81
353.979	9.39
354.189	8.78
354.399	5.94
354.608	8.15
354.818	8.4
355.027	10.47
355.237	10.17
355.447	11.14
355.656	11.79
355.866	12.88
356.075	13.16
356.285	13.7
356.494	13.95
356.704	14.9
356.913	14.05
357.123	13.83
357.332	13.17
357.542	12.53
357.751	11.52
357.96	10.86
358.17	9.08
358.379	9.29
358.589	8.77
358.798	9.06
359.007	10.3
359.217	11
359.426	11.34
359.635	11.59
359.845	14.27
360.054	14.41
360.263	14.71
360.472	14.64
360.682	13.78
360.891	12.49
361.1	13.99
361.309	13.95
361.519	13.35
361.728	11.13
361.937	11.35
362.146	9.4
362.355	9.22
362.564	9.13
362.774	9.57
362.983	9.36
363.192	12.62
363.401	11.15
363.61	9.98
363.819	10.38
364.028	12.63
364.237	12.36
364.446	12.11
364.655	11.1
364.864	10.62
365.073	12.01
365.282	11.41
365.491	9.17
365.7	9.65
365.909	9.32
366.118	8.91
366.327	8.2
366.536	7.07
366.745	8.06
366.954	9.63
367.162	9.86
367.371	9.76
367.58	9.74
367.789	11.19
367.998	11.27
368.207	12.37
368.415	12.35
368.624	12.62
368.833	14.61
369.042	12.38
369.25	11.83
369.459	11.7
369.668	10.87
369.877	11.52
370.085	9.82
370.294	8.7
370.503	8.29
370.711	7.62
370.92	7.59
371.129	6.99
371.337	9.49
371.546	9.38
371.754	9.86
371.963	10.29
372.171	10.16
372.38	10.9
372.589	12.05
372.797	10.9
373.006	10.84
373.214	11.52
373.423	11.38
373.631	12.83
373.84	12
374.048	10.88
374.256	10.98
374.465	12.22
374.673	10.15
374.882	8.27
375.09	8.86
375.298	10.88
375.507	10.99
375.715	11.29
375.923	9.11
376.132	10.61
376.34	11.82
376.548	10.49
376.757	11.43
376.965	13.06
377.173	15.04
377.381	15.13
377.59	13.57
377.798	12.5
378.006	11.22
378.214	11.23
378.423	10.15
378.631	9.04
378.839	9.01
379.047	6.02
379.255	7.14
379.463	5.55
379.671	4.78
379.879	4.73
380.088	5.98
380.296	5.88
380.504	5.54
380.712	4.23
380.92	4.84
381.128	7.36
381.336	8.15
381.544	7.39
381.752	7.85
381.96	9.26
382.168	7.94
382.376	7.24
382.584	8.08
382.791	8.34
382.999	9.8
383.207	9.62
383.415	6.65
383.623	7.14
383.831	5.77
384.039	3.22
384.247	2.89
384.454	2.98
384.662	3.36
384.87	3.25
385.078	3.36
385.285	3.46
385.493	5.4
385.701	7.38
385.909	6.35
386.116	6.9
386.324	9.32
386.532	10.23
386.739	11.57
386.947	11.96
387.155	12.16
387.362	11.87
387.57	11.29
387.778	9.86
387.985	9.09
388.193	9.26
388.4	10.69
388.608	11.08
388.816	10.01
389.023	10.27
389.231	9.66
389.438	9.93
389.646	9.77
389.853	9.54
390.061	9.04
390.268	7.87
390.475	7.74
390.683	7.29
390.89	6.41
391.098	6.97
391.305	6.49
391.512	5.59
391.72	3.51
391.927	2.88
392.135	3.92
392.342	3.55
392.549	5.42
392.756	5.66
392.964	5.05
393.171	5.35
393.378	5.03
393.586	4.37
393.793	4.34
394	5.21
394.207	5.23
394.414	5.18
394.622	4.48
394.829	3.09
395.036	3.24
395.243	2.9
395.45	2
395.657	2.3
395.864	3.89
396.072	5.07
396.279	6.48
396.486	7.71
396.693	7.72
396.9	8.96
397.107	8.73
397.314	10.19
397.521	10.35
397.728	10.9
397.935	10.75
398.142	9.4
398.349	8.01
398.556	6.25
398.763	5.27
398.97	4.92
399.177	4.55
399.383	4.08
399.59	1.3
399.797	1.58
400.004	2.36
400.211	1.19
400.418	2.15
400.625	2.3
400.831	3.56
401.038	4.26
401.245	2.86
401.452	2.95
401.658	5.18
401.865	7.74
402.072	7.44
402.279	6.37
402.485	7.42
402.692	7.53
402.899	8.81
403.105	8.62
403.312	8.39
403.519	9.83
403.725	9.44
403.932	9.48
404.138	7.87
404.345	7.91
404.552	8.55
404.758	8.52
404.965	7.51
405.171	7.34
405.378	8.38
405.584	8.63
405.791	8.54
405.997	8.69
406.204	7.23
406.41	7.59
406.617	6.39
406.823	5.9
407.029	5.92
407.236	7.04
407.442	6.21
407.649	5.83
407.855	5.46
408.061	4.87
408.268	5.28
408.474	5.58
408.68	6.05
408.887	7.27
409.093	8.12
409.299	6.71
409.505	6.47
409.712	6.06
409.918	4.44
410.124	5.52
410.33	5.44
410.537	4.26
410.743	4.79
410.949	5.2
411.155	4.67
411.361	4.53
411.567	5.41
411.773	5.19
411.98	6.43
412.186	7.77
412.392	7.4
412.598	7.48
412.804	8.95
413.01	8.51
413.216	8.31
413.422	8.61
413.628	9.65
413.834	9.92
414.04	10.38
414.246	9.59
414.452	9.46
414.658	9.24
414.864	9.16
415.07	7.84
415.275	7.44
415.481	7.36
415.687	7.48
415.893	6.58
416.099	6.85
416.305	6.71
416.511	7.05
416.716	6.82
416.922	6.42
417.128	6.99
417.334	7.76
417.539	8.26
417.745	8.16
417.951	7.59
418.157	7.38
418.362	6.61
418.568	6.91
418.774	6.5
418.979	6.9
419.185	7.38
419.391	7.12
419.596	6.93
419.802	6.2
420.008	5.88
420.213	2.2
420.419	1.42
420.624	1.99
420.83	1.08
421.035	0.92
421.241	0.65
421.446	0.46
421.652	0.31
421.857	0.59
422.063	1.25
422.268	1.23
422.474	4.9
422.679	5.75
422.885	5.63
423.09	5.92
423.295	6.34
423.501	5.77
423.706	5.66
423.911	5.75
424.117	5.04
424.322	4.58
424.527	4.48
424.733	4.76
424.938	5.07
425.143	4.74
425.349	4.4
425.554	3.96
425.759	4.52
425.964	4.06
426.169	4.35
426.375	4.41
426.58	4.45
426.785	4.85
426.99	5.34
427.195	4.51
427.4	5.46
427.605	5.69
427.811	6.11
428.016	6.37
428.221	6.91
428.426	6.22
428.631	7.05
428.836	7.46
429.041	7.03
429.246	6.91
429.451	7.08
429.656	7.37
429.861	7.41
430.066	7.33
430.271	6.99
430.476	6.93
430.681	7.48
430.886	7.43
431.09	7.6
431.295	8.16
431.5	8.05
431.705	8.21
431.91	7.36
432.115	7.32
432.32	7.71
432.524	7.88
432.729	7.78
432.934	6.77
433.139	6.42
433.343	6.29
433.548	5.95
433.753	5.26
433.958	5.36
434.162	5.19
434.367	5.69
434.572	5.37
434.776	4.66
434.981	4.86
435.186	6.12
435.39	7.11
435.595	6.52
435.799	6.19
436.004	6.59
436.209	6.02
436.413	6.55
436.618	6.02
436.822	6.16
437.027	6.76
437.231	6.46
437.436	5.78
437.64	4.87
437.845	5.38
438.049	5.86
438.253	5.87
438.458	5.85
438.662	5.21
438.867	4.91
439.071	4.9
439.275	4.65
439.48	5.09
439.684	4.85
439.888	5.05
440.093	5.62
440.297	5.75
440.501	5.75
440.706	5.66
440.91	6.19
441.114	6.83
441.318	6.26
441.523	6.29
441.727	6.18
441.931	7.09
442.135	6.93
442.339	6.92
442.543	6.73
442.748	6.5
442.952	7
443.156	7.14
443.36	7.01
443.564	7.53
443.768	7.31
443.972	6.55
444.176	5.79
444.38	5.98
444.584	5.32
444.788	5.28
444.992	5.73
445.196	5.45
445.4	5.47
445.604	5.25
445.808	5.81
446.012	6.09
446.216	7.07
446.42	7.48
446.624	7.2
446.828	7.49
447.032	7.74
447.235	7.95
447.439	7.48
447.643	7.04
447.847	7.24
448.051	6.54
448.254	5.77
448.458	5.97
448.662	5.68
448.866	6.27
449.069	5.71
449.273	5.43
449.477	5.06
449.681	6.11
449.884	6.41
450.088	6.47
450.292	5.58
450.495	6.43
450.699	5.19
450.902	5.7
451.106	5.53
451.31	5.61
451.513	5.17
451.717	5.18
451.92	5.5
452.124	4.75
452.327	4.65
452.531	5.43
452.734	5.55
452.938	5.75
453.141	4.71
453.345	4.58
453.548	4.25
453.752	4.75
453.955	5.02
454.158	4.45
454.362	5.37
454.565	4.51
454.769	4.42
454.972	4.11
455.175	4.11
455.379	5.15
455.582	5.18
455.785	6.16
455.988	5.91
456.192	5.4
456.395	5.99
456.598	5.78
456.801	6.05
457.005	6.93
457.208	7.24
457.411	7.21
457.614	7.1
457.817	7.09
458.021	7.04
458.224	7.07
458.427	7.43
458.63	6.83
458.833	6.61
459.036	6.81
459.239	6.18
459.442	6.01
459.645	6.09
459.848	5.92
460.051	6.16
460.254	5.84
460.457	6.08
460.66	5.65
460.863	5.54
461.066	5.45
461.269	5.68
461.472	5.74
461.675	5.47
461.878	5.6
462.081	4.82
462.284	4.19
462.486	3.95
462.689	3.88
462.892	3.73
463.095	4.02
463.298	4.9
463.5	4.83
463.703	5.46
463.906	5.87
464.109	6.06
464.311	6.44
464.514	6.61
464.717	7.4
464.92	7
465.122	6.88
465.325	7.08
465.528	6.81
465.73	7.47
465.933	6.95
466.135	6.77
466.338	5.87
466.541	6.27
466.743	6.34
466.946	5.84
467.148	6.04
467.351	5.97
467.553	6.23
467.756	6.65
467.958	5.85
468.161	5.55
468.363	5.67
468.566	6.64
468.768	6.64
468.971	7.64
469.173	7.84
469.375	7.67
469.578	8.41
469.78	7.81
469.983	7.11
470.185	7.7
470.387	7.89
470.59	7.92
470.792	8.21
470.994	8.72
471.196	7.49
471.399	6.79
471.601	6.31
471.803	6.16
472.005	6.46
472.208	6.76
472.41	6.19
472.612	6.33
472.814	6.11
473.016	5.28
473.218	4.83
473.421	4.67
473.623	5.66
473.825	5.9
474.027	5.55
474.229	5.26
474.431	5.13
474.633	5.01
474.835	5.62
475.037	5.27
475.239	5.6
475.441	5.47
475.643	5.73
475.845	5.29
476.047	5.45
476.249	5.03
476.451	5.01
476.653	4.67
476.855	4.6
477.057	4.6
477.258	5.2
477.46	4.45
477.662	4.54
477.864	4.64
478.066	4.57
478.268	4.99
478.469	5.96
478.671	5.85
478.873	5.91
479.075	6.04
479.276	5.83
479.478	5.72
479.68	6.61
479.882	6.94
480.083	7.1
480.285	7.44
480.487	7.47
480.688	6.9
480.89	7.27
481.091	7.48
481.293	7.42
481.495	7.48
481.696	7.38
481.898	7.12
482.099	6.78
482.301	6.77
482.502	6.56
482.704	6.5
482.905	6.48
483.107	6.41
483.308	6.34
483.51	6.39
483.711	6.27
483.913	6.12
484.114	6.07
484.315	6.21
484.517	5.97
484.718	6.05
484.92	6.02
485.121	6.09
485.322	5.91
485.524	5.8
485.725	5.87
485.926	5.75
486.127	5.71
486.329	5.53
486.53	5.55
486.731	5.66
486.932	5.85
487.134	5.72
487.335	5.88
487.536	6.11
487.737	6.26
487.938	6.01
488.139	6.11
488.341	6.47
488.542	6.66
488.743	6.35
488.944	6.28
489.145	5.93
489.346	6.11
489.547	5.71
489.748	5.47
489.949	5.43
490.15	5.44
490.351	5.26
490.552	5.33
490.753	5.16
490.954	5.47
491.155	5.45
491.356	5.73
491.557	5.59
491.758	5.64
491.959	5.66
492.159	5.4
492.36	5.65
492.561	5.93
492.762	5.93
492.963	6.4
493.164	6.26
493.364	6.44
493.565	6.23
493.766	5.97
493.967	6.41
494.167	6.84
494.368	7.33
494.569	7
494.769	6.63
494.97	6.3
495.171	6.21
495.371	6.25
495.572	5.82
495.773	5.42
495.973	5.47
496.174	5.49
496.375	5.4
496.575	5.17
496.776	5.22
496.976	5.46
497.177	5.58
497.377	5.34
497.578	5.05
497.778	5.17
497.979	5.35
498.179	5.61
498.38	4.85
498.58	4.84
498.78	5
498.981	5.22
499.181	4.92
499.382	5.08
499.582	5.09
499.782	5.48
499.983	6.01
500.183	6.53
500.383	6.72
500.584	7.53
500.784	7.51
500.984	7.18
501.184	7.05
501.385	7.62
501.585	6.87
501.785	7.22
501.985	7.21
502.185	6.55
502.386	5.93
502.586	5.77
502.786	5.22
502.986	5.13
503.186	5.35
503.386	5.89
503.586	5.78
503.786	6.29
503.987	6.52
504.187	6.35
504.387	6.48
504.587	6.91
504.787	7.01
504.987	7.86
505.187	7.72
505.387	7.76
505.587	7.17
505.786	6.46
505.986	6.67
506.186	5.9
506.386	6.25
506.586	6.46
506.786	6.66
506.986	6.77
507.186	6.63
507.386	6.83
507.585	7.14
507.785	7.08
507.985	7.48
508.185	7.06
508.384	7.68
508.584	7.15
508.784	7.39
508.984	6.68
509.183	6.5
509.383	6.26
509.583	6.37
509.782	6.62
509.982	6.74
510.182	6.88
510.381	7.01
510.581	6.51
510.781	6.84
510.98	6.52
511.18	7.01
511.379	7.21
511.579	6.82
511.778	6.74
511.978	6.08
512.177	6.83
512.377	7.12
512.576	7.62
512.776	7.83
512.975	7.98
513.175	8.57
513.374	8.74
513.573	8.73
513.773	9.44
513.972	9.76
514.172	9.95
514.371	9.36
514.57	9.47
514.77	9.1
514.969	9.54
515.168	9.57
515.367	9.2
515.567	9.3
515.766	9.38
515.965	9.26
516.164	9.14
516.364	9.49
516.563	9.26
516.762	9.24
516.961	9.45
517.16	9.27
517.359	9.2
517.559	9.36
517.758	9.74
517.957	9.63
518.156	9.34
518.355	8.91
518.554	8.94
518.753	9.14
518.952	8.78
519.151	8.88
519.35	8.82
519.549	9.2
519.748	9.08
519.947	8.78
520.146	9.23
520.345	9.7
520.544	10.25
520.743	10.58
520.942	10.9
521.141	11.64
521.339	11.44
521.538	11.84
521.737	11.72
521.936	11.71
522.135	11.69
522.333	11.22
522.532	11.28
522.731	11.13
522.93	10.85
523.129	10.66
523.327	10.47
523.526	10.96
523.725	10.67
523.923	10.89
524.122	11.33
524.321	11.64
524.519	11.71
524.718	11.59
524.917	11.58
525.115	11.82
525.314	11.92
525.512	11.99
525.711	11.83
525.909	11.83
526.108	11.81
526.306	11.9
526.505	11.7
526.703	12.01
526.902	12.14
527.1	12.3
527.299	12.21
527.497	12.3
527.696	12.36
527.894	12.36
528.092	12.42
528.291	12.5
528.489	12.49
528.688	12.55
528.886	12.28
529.084	12.54
529.283	12.61
529.481	12.6
529.679	12.93
529.877	12.84
530.076	12.86
530.274	13.17
530.472	13.25
530.67	13.29
530.869	13.34
531.067	13.77
531.265	13.73
531.463	13.69
531.661	13.99
531.859	13.84
532.057	14.12
532.255	14.1
532.454	13.93
532.652	13.76
532.85	13.65
533.048	14.01
533.246	14.11
533.444	14.14
533.642	14.3
533.84	14.14
534.038	14.01
534.236	13.83
534.434	14.18
534.632	14.37
534.83	14.76
535.027	14.85
535.225	14.42
535.423	14.36
535.621	14.12
535.819	14.51
536.017	14.37
536.215	14.56
536.412	14.29
536.61	14.1
536.808	14.31
537.006	13.87
537.203	14.21
537.401	14.76
537.599	14.73
537.797	14.84
537.994	14.45
538.192	14.88
538.39	14.91
538.587	15.48
538.785	15.68
538.983	15.66
539.18	15.56
539.378	15.56
539.575	15.58
539.773	15.6
539.97	15.79
540.168	15.46
540.366	15.45
540.563	15.41
540.761	15.03
540.958	15.13
541.155	15.12
541.353	15.29
541.55	15.16
541.748	14.92
541.945	14.8
542.143	14.42
542.34	14.6
542.537	14.62
542.735	14.86
542.932	15.39
543.129	15.08
543.327	14.93
543.524	15.22
543.721	15.28
543.919	15.62
544.116	15.97
544.313	16.65
544.51	16.91
544.708	16.87
544.905	16.79
545.102	16.57
545.299	16.7
545.496	16.9
545.693	16.53
545.891	16.8
546.088	16.8
546.285	16.52
546.482	16.22
546.679	15.87
546.876	15.8
547.073	16.4
547.27	16.27
547.467	16.12
547.664	16.09
547.861	16.39
548.058	16.07
548.255	15.99
548.452	16.13
548.649	16.2
548.846	17.25
549.043	17.51
549.24	16.21
549.437	16.32
549.633	15.96
549.83	16.11
550.027	16.61
550.224	16.27
550.421	15.72
550.618	16.12
550.814	16.23
551.011	15.64
551.208	15.81
551.405	16.42
551.601	16.54
551.798	17
551.995	17
552.191	16.48
552.388	17.33
552.585	17.68
552.781	17.63
552.978	17.82
553.175	18.46
553.371	18.77
553.568	17.83
553.764	18.84
553.961	19.28
554.157	19.22
554.354	19.84
554.55	19.43
554.747	19.17
554.943	19.18
555.14	19.19
555.336	18.63
555.533	18.53
555.729	19.93
555.926	19.03
556.122	18.89
556.318	19.2
556.515	19.61
556.711	19.87
556.907	19.39
557.104	19.35
557.3	19.24
557.496	19.69
557.693	19.62
557.889	19.64
558.085	20.57
558.281	20.76
558.478	20.28
558.674	19.25
558.87	19.28
559.066	20.01
559.262	20.6
559.459	20.24
559.655	20.74
559.851	20.62
560.047	20.34
560.243	19.41
560.439	19.44
560.635	19.9
560.831	20.65
561.027	20.32
561.223	21.09
561.419	20.12
561.615	20.93
561.811	19.76
562.007	19.45
562.203	19.42
562.399	19.27
562.595	19.98
562.791	20.5
562.987	20.01
563.183	20.05
563.379	19.01
563.575	19.83
563.771	19.64
563.966	19.49
564.162	19.95
564.358	19.97
564.554	20.21
564.75	19.95
564.945	19.76
565.141	20.18
565.337	20.08
565.533	20.59
565.728	20.45
565.924	20.48
566.12	21.31
566.315	21.36
566.511	21.54
566.707	21.95
566.902	22.03
567.098	22.01
567.293	21.85
567.489	22.62
567.684	22.67
567.88	22.67
568.076	22.69
568.271	22.74
568.467	22.47
568.662	22.29
568.858	22.09
569.053	21.77
569.248	21.16
569.444	21.27
569.639	20.52
569.835	20.59
570.03	20.58
570.225	20.02
570.421	19.68
570.616	19.65
570.812	19.48
571.007	19.15
571.202	19.25
571.397	19.39
571.593	19.53
571.788	19.37
571.983	19.01
572.178	18.66
572.374	18.88
572.569	18.86
572.764	18.96
572.959	19.05
573.154	19.95
573.35	19.71
573.545	19.54
573.74	19.35
573.935	19.49
574.13	19.67
574.325	19.56
574.52	19.33
574.715	19.3
574.91	19.14
575.105	19.3
575.3	18.74
575.495	19.26
575.69	19.42
575.885	18.61
576.08	18.96
576.275	18.55
576.47	19.13
576.665	19.37
576.86	19.67
577.055	19.39
577.25	19.78
577.444	19.65
577.639	19.59
577.834	20.36
578.029	21.54
578.224	21.34
578.418	21.59
578.613	21.29
578.808	21.59
579.003	21.05
579.197	21.43
579.392	20.61
579.587	21.2
579.781	20.91
579.976	20.71
580.171	20.42
580.365	20.65
580.56	21.66
580.755	22.06
580.949	22.17
581.144	22.66
581.338	22.09
581.533	21.93
581.727	21.61
581.922	21.39
582.116	21.21
582.311	21.44
582.505	21.2
582.7	20.42
582.894	20.51
583.089	20.5
583.283	19.94
583.478	20.8
583.672	20.98
583.866	21.24
584.061	20.4
584.255	20.15
584.449	18.88
584.644	18.81
584.838	19.11
585.032	18.83
585.226	18.22
585.421	19.05
585.615	19.24
585.809	20.32
586.003	19.47
586.198	19.72
586.392	19.62
586.586	20.23
586.78	19.93
586.974	20.08
587.168	20.05
587.363	20.4
587.557	20.04
587.751	19.48
587.945	19.06
588.139	20.38
588.333	20.7
588.527	20.89
588.721	20.89
588.915	21.35
589.109	21.97
589.303	22.07
589.497	22.98
589.691	22.41
589.885	22.75
590.079	22.26
590.273	20.74
590.466	21.22
590.66	21.56
590.854	21.69
591.048	21.81
591.242	20.6
591.436	20.75
591.629	20.02
591.823	21.06
592.017	21.3
592.211	22.5
592.404	23.23
592.598	23.28
592.792	23.35
592.986	23.54
593.179	23.87
593.373	24.69
593.567	24.68
593.76	24.92
593.954	24.21
594.147	23.64
594.341	22.69
594.535	22.2
594.728	21.42
594.922	20.8
595.115	20.65
595.309	20.06
595.502	19.7
595.696	19.18
595.889	18.51
596.083	19.15
596.276	20.12
596.47	20.12
596.663	20.86
596.856	21.43
597.05	21.57
597.243	22.57
597.437	22.67
597.63	22.67
597.823	23.38
598.017	24.31
598.21	24.82
598.403	23.88
598.596	24.99
598.79	24.52
598.983	24.7
599.176	24.86
599.369	23.85
599.563	23.89
599.756	24.1
599.949	23.4
600.142	23.47
600.335	22.77
600.528	22.23
600.722	21.5
600.915	21.09
601.108	20.87
601.301	21.38
601.494	21.44
601.687	22.07
601.88	22.1
602.073	22.81
602.266	22.61
602.459	22.19
602.652	22.36
602.845	22.07
603.038	22.65
603.231	22.74
603.424	22.78
603.617	22.57
603.809	22.25
604.002	21.85
604.195	21.42
604.388	20.84
604.581	21.4
604.774	21.86
604.966	22.28
605.159	22.18
605.352	22.1
605.545	21.94
605.737	22.75
605.93	22.4
606.123	22.79
606.316	22.96
606.508	23.09
606.701	22.86
606.894	23.19
607.086	22.88
607.279	23.52
607.471	24.37
607.664	24.35
607.857	24.01
608.049	23.94
608.242	24.06
608.434	23.54
608.627	23.77
608.819	23.99
609.012	23.91
609.204	23.86
609.397	23.3
609.589	22.65
609.782	22.32
609.974	21.88
610.166	22.81
610.359	23.1
610.551	23.98
610.743	24.36
610.936	23.47
611.128	23.03
611.32	23.22
611.513	23.47
611.705	22.07
611.897	22.26
612.09	22.69
612.282	21.92
612.474	22.15
612.666	21.08
612.858	20.99
613.051	21.3
613.243	21.12
613.435	21.63
613.627	21.11
613.819	23.19
614.011	22.04
614.203	22.24
614.395	22.22
614.588	20.9
614.78	21.37
614.972	22.22
615.164	22.44
615.356	22.68
615.548	23.27
615.74	23.46
615.932	23.12
616.124	24.52
616.315	25.3
616.507	26.24
616.699	26.02
616.891	27.42
617.083	26.39
617.275	25.81
617.467	25.74
617.659	24.67
617.85	24.5
618.042	24.42
618.234	23.92
618.426	23.85
618.618	22.24
618.809	23.4
619.001	23.23
619.193	22.87
619.384	24.49
619.576	23.84
619.768	23.99
619.959	24.31
620.151	24.24
620.343	24.97
620.534	24.71
620.726	26.13
620.917	25.66
621.109	24.47
621.301	24.61
621.492	23.74
621.684	23.74
621.875	24.7
622.067	25.09
622.258	23.98
622.45	23.31
622.641	22.58
622.832	22.28
623.024	22.84
623.215	22.79
623.407	22.55
623.598	22.87
623.789	23.25
623.981	22.4
624.172	21.73
624.363	22.53
624.555	22.75
624.746	22.69
624.937	22.6
625.129	21.96
625.32	22.31
625.511	22.7
625.702	22.4
625.893	23.64
626.085	23.18
626.276	23.78
626.467	23.88
626.658	24.13
626.849	24.84
627.04	24.53
627.231	24.77
627.422	24.54
627.614	24.97
627.805	25.24
627.996	24.78
628.187	25.57
628.378	25.11
628.569	25.02
628.76	24.63
628.951	23.74
629.142	23.43
629.332	22.32
629.523	23.44
629.714	23.73
629.905	23.58
630.096	23.85
630.287	22.8
630.478	23.04
630.669	23.44
630.859	23.41
631.05	23.6
631.241	24.01
631.432	25.65
631.623	25.4
631.813	24.93
632.004	24.85
632.195	23.65
632.385	24.13
632.576	23.56
632.767	23
632.957	22.99
633.148	23.65
633.339	24
633.529	23.52
633.72	23.71
633.91	22.81
634.101	22.97
634.292	23.17
634.482	23.94
634.673	24.14
634.863	23.74
635.054	23.8
635.244	23.13
635.435	22.2
635.625	21.86
635.815	20.49
636.006	21.39
636.196	20.98
636.387	21.62
636.577	20.76
636.767	20.27
636.958	21.41
637.148	22.04
637.338	21.79
637.529	23
637.719	23.43
637.909	23.69
638.099	22.85
638.29	22.56
638.48	22.63
638.67	21.85
638.86	21.94
639.05	21.47
639.241	20.51
639.431	20.98
639.621	20.54
639.811	20.13
640.001	21.62
640.191	22.79
640.381	23.46
640.571	23.09
640.761	23.87
640.951	24.54
641.141	24.83
641.331	24.74
641.521	25.85
641.711	27.39
641.901	27.38
642.091	25.58
642.281	25.07
642.471	24.85
642.661	25.52
642.851	26.36
643.041	26.87
643.231	26.14
643.42	27.08
643.61	25.53
643.8	24.09
643.99	24.95
644.18	25.26
644.369	25.66
644.559	25.74
644.749	24.24
644.939	24.35
645.128	23.45
645.318	23.62
645.508	23.65
645.697	25.58
645.887	25.79
646.076	25.51
646.266	26.87
646.456	25.63
646.645	26.07
646.835	26.87
647.024	26.82
647.214	27.09
647.403	27.24
647.593	27.03
647.782	25.5
647.972	24.26
648.161	22.96
648.351	21.17
648.54	22.2
648.73	22.1
648.919	21.48
649.108	21.61
649.298	22.12
649.487	22.8
649.677	23
649.866	22.92
650.055	24.11
650.244	25.36
650.434	26.63
650.623	26.63
650.812	25.99
651.002	26.36
651.191	25.67
651.38	25.33
651.569	25.27
651.758	24.82
651.947	24.83
652.137	25.43
652.326	24.82
652.515	24.04
652.704	24.62
652.893	25.11
653.082	25.61
653.271	25.06
653.46	24.8
653.649	24.57
653.838	23.99
654.027	23.59
654.216	23.26
654.405	23.22
654.594	23.87
654.783	21.83
654.972	22.28
655.161	22.77
655.35	23.65
655.539	23.74
655.728	23.29
655.916	23.77
656.105	24.64
656.294	25.41
656.483	26.05
656.672	25.1
656.86	24.95
657.049	25.32
657.238	25.65
657.427	25.22
657.615	25.06
657.804	25.74
657.993	24.99
658.181	23.85
658.37	23.07
658.559	23.17
658.747	23.59
658.936	25.41
659.125	25.73
659.313	24.77
659.502	24.53
659.69	23.68
659.879	23.2
660.067	24.89
660.256	25.9
660.444	25
660.633	24.59
660.821	23.98
661.01	22.77
661.198	21.88
661.387	22.3
661.575	22.37
661.763	24.21
661.952	23.37
662.14	23.94
662.328	23.25
662.517	25.28
662.705	24.86
662.893	26
663.082	25.91
663.27	25.84
663.458	25.99
663.646	26.78
663.834	26.47
664.023	27.71
664.211	26.99
664.399	28.11
664.587	27.36
664.775	29.13
664.963	28.78
665.152	28.75
665.34	28.7
665.528	27.37
665.716	26.57
665.904	27.6
666.092	27.79
666.28	26.64
666.468	26.48
666.656	27.47
666.844	26.7
667.032	25.97
667.22	26.86
667.408	26.74
667.596	27.5
667.784	28.51
667.971	28.29
668.159	27.4
668.347	26.47
668.535	25.73
668.723	24.2
668.911	22.78
669.098	23.56
669.286	23.2
669.474	24.45
669.662	25.35
669.849	24.12
670.037	22.54
670.225	22.18
670.413	23.32
670.6	23.72
670.788	23.92
670.976	24.37
671.163	23.36
671.351	23.36
671.538	22.03
671.726	21.82
671.913	21.89
672.101	22.25
672.289	24.26
672.476	25.43
672.664	25.26
672.851	24.76
673.039	23.81
673.226	24.05
673.413	24.65
673.601	24.5
673.788	23.7
673.976	25.01
674.163	25.51
674.35	24.53
674.538	23.65
674.725	22.59
674.912	22.39
675.1	23.64
675.287	23.79
675.474	23.58
675.662	22.28
675.849	20.98
676.036	20.22
676.223	21.46
676.411	21.49
676.598	20.49
676.785	22.06
676.972	23.96
677.159	24.22
677.346	25.59
677.533	25.21
677.721	27.16
677.908	29.37
678.095	29.46
678.282	27.97
678.469	27.66
678.656	29.06
678.843	28.88
679.03	28.86
679.217	28.8
679.404	27.51
679.591	28.04
679.778	26.87
679.964	26.35
680.151	27.08
680.338	26.91
680.525	27.21
680.712	27.14
680.899	27.54
681.086	27.63
681.272	28.35
681.459	28.82
681.646	28.35
681.833	28.53
682.02	28.18
682.206	26.58
682.393	26.77
682.58	27.32
682.766	26.87
682.953	26.84
683.14	26.28
683.326	25.8
683.513	27.15
683.7	25.33
683.886	27.21
684.073	27.04
684.259	25.83
684.446	25.13
684.632	23.81
684.819	23.23
685.005	22.96
685.192	21.94
685.378	21.12
685.565	19.2
685.751	21.07
685.938	20.54
686.124	21.7
686.31	24.41
686.497	24.31
686.683	25.8
686.87	26.33
687.056	25.11
687.242	24.06
687.429	24.47
687.615	25.29
687.801	25.5
687.987	24.63
688.174	23.86
688.36	23.59
688.546	24.77
688.732	24.08
688.918	24.11
689.105	25.76
689.291	27.83
689.477	27.33
689.663	28.55
689.849	29.9
690.035	30.25
690.221	30.25
690.407	31.35
690.593	32.04
690.779	31.77
690.965	33.76
691.151	32.87
691.337	33.09
691.523	34.1
691.709	31.22
691.895	29.75
692.081	29.33
692.267	27.8
692.453	26.6
692.639	26.35
692.825	25.87
693.011	23.52
693.196	25.24
693.382	23.71
693.568	22.57
693.754	24.69
693.94	24.91
694.125	25.12
694.311	26.35
694.497	25.18
694.682	24.83
694.868	24.41
695.054	25.02
695.239	24.71
695.425	27.4
695.611	28.07
695.796	27.84
695.982	28.6
696.168	27.21
696.353	25.86
696.539	26.31
696.724	23.95
696.91	23.61
697.095	23.86
697.281	24.56
697.466	22.1
697.652	21.93
697.837	22.69
698.023	22.04
698.208	22.1
698.393	24
698.579	23.56
698.764	25.35
698.949	26.14
699.135	25.92
699.32	24.26
699.505	24.57
699.691	24.16
699.876	22.77
700.061	22.83
700.246	24.38
700.432	24.24
700.617	24.07
700.802	23.22
700.987	23.12
701.172	23.04
701.358	23.95
701.543	25.32
701.728	24.57
701.913	25.93
702.098	25.54
702.283	25.53
702.468	23.97
702.653	24.46
702.838	27.67
703.023	27.11
703.208	24.65
703.393	23.99
703.578	21.71
703.763	23.55
703.948	22.57
704.133	21.28
704.318	20.67
704.503	22.89
704.688	21.74
704.873	19.39
705.057	20.33
705.242	21.83
705.427	22
705.612	22.18
705.797	21.23
705.981	21.01
706.166	23.75
706.351	24.69
706.536	23.88
706.72	26.13
706.905	26.32
707.09	25.92
707.274	26.99
707.459	26.52
707.644	27.98
707.828	28.82
708.013	30.05
708.197	28.37
708.382	27.45
708.567	27.09
708.751	26.49
708.936	24.86
709.12	26.31
709.305	26.44
709.489	27.62
709.673	27.27
709.858	28.48
710.042	27.87
710.227	28.84
710.411	26.96
710.596	27
710.78	27.13
710.964	28.43
711.149	27.92
711.333	27.6
711.517	27.19
711.702	27.94
711.886	26.48
712.07	27.95
712.254	27.91
712.438	29.21
712.623	30.2
712.807	30.07
712.991	30.58
713.175	30.32
713.359	28.42
713.544	28.13
713.728	27.59
713.912	27.02
714.096	24.99
714.28	25.26
714.464	24.4
714.648	22.01
714.832	21.99
715.016	19.88
715.2	20.59
715.384	20.91
715.568	19.46
715.752	19.05
715.936	20.19
716.12	22.02
716.304	20.99
716.488	22.96
716.671	21.98
716.855	22.29
717.039	24.11
717.223	22.52
717.407	23.12
717.59	25.57
717.774	25.29
717.958	23.43
718.142	19.43
718.325	19.3
718.509	18.57
718.693	21.91
718.877	21.86
719.06	21.84
719.244	23.16
719.428	24.74
719.611	23.85
719.795	26.13
719.978	26.76
720.162	29.29
720.345	29.67
720.529	30.28
720.713	32.55
720.896	31.39
721.08	33.09
721.263	32.48
721.446	33.96
721.63	33.89
721.813	31.63
721.997	31.74
722.18	29.05
722.364	27.36
722.547	26.25
722.73	21.81
722.914	22.14
723.097	18.98
723.28	18.81
723.464	15.26
723.647	15.58
723.83	16.92
724.013	16.74
724.197	18.23
724.38	20.29
724.563	21.09
724.746	20.9
724.929	20.15
725.112	22.37
725.296	23.72
725.479	26.52
725.662	24.78
725.845	24.31
726.028	27.83
726.211	28.36
726.394	31.07
726.577	28.76
726.76	30.68
726.943	33.33
727.126	30.98
727.309	30.24
727.492	27.52
727.675	28.62
727.858	29.54
728.041	26.72
728.224	27.25
728.407	24.86
728.589	24.46
728.772	24.85
728.955	23.29
729.138	23.79
729.321	23.5
729.503	25.07
729.686	24.66
729.869	22.44
730.052	23.3
730.234	22.43
730.417	21.92
730.6	25
730.782	24.87
730.965	21.66
731.148	22.42
731.33	25.13
731.513	23.95
731.695	24.33
731.878	25.52
732.061	24.1
732.243	24.42
732.426	25.13
732.608	24.09
732.791	21.6
732.973	25.18
733.156	25.28
733.338	22.46
733.52	24.6
733.703	23.58
733.885	24.18
734.068	26.28
734.25	27.07
734.432	27.99
734.615	25.78
734.797	26.99
734.979	25.09
735.162	28.14
735.344	28.52
735.526	26.61
735.708	29.1
735.891	27.2
736.073	26.77
736.255	28.43
736.437	28.04
736.619	31.75
736.802	32.32
736.984	31.81
737.166	29.77
737.348	28.58
737.53	29.29
737.712	29.42
737.894	30.74
738.076	29.45
738.258	28.21
738.44	26.74
738.622	24.32
738.804	24.95
738.986	24.69
739.168	26.05
739.35	28.32
739.532	31.5
739.714	27.84
739.896	26.37
740.078	22.8
740.259	23.15
740.441	22.2
740.623	24.03
740.805	26.77
740.987	25.46
741.168	23.54
741.35	21.79
741.532	18.31
741.714	20.79
741.895	20.38
742.077	23.6
742.259	26.86
742.44	27.34
742.622	31.49
742.804	26.31
742.985	30.98
743.167	31.46
743.348	34.68
743.53	31.16
743.711	34.22
743.893	37.25
744.075	39.62
744.256	34.67
744.438	33.53
744.619	28.04
744.8	30.94
744.982	31.95
745.163	33.87
745.345	33.88
745.526	36.61
745.707	31.73
745.889	32.24
746.07	33.03
746.252	31.85
746.433	32.06
746.614	31.71
746.795	32.73
746.977	32.44
747.158	29.24
747.339	29.28
747.52	27.66
747.702	31.62
747.883	30.63
748.064	26.26
748.245	27.34
748.426	29.44
748.607	28.15
748.788	27.47
748.97	25.21
749.151	24.79
749.332	25.04
749.513	26.96
749.694	26
749.875	25.76
750.056	32.63
750.237	36.04
750.418	37.56
750.599	36.28
750.78	36.19
750.96	35.99
751.141	39.1
751.322	38.12
751.503	35.31
751.684	36.05
751.865	34.83
752.046	29.85
752.226	27.2
752.407	24.07
752.588	27.3
752.769	27
752.949	27.73
753.13	25.88
753.311	27.15
753.492	29.79
753.672	30.27
753.853	31.88
754.034	34.33
754.214	35.17
754.395	37.9
754.575	39.95
754.756	38.29
754.937	38.69
755.117	39.51
755.298	34.55
755.478	30.78
755.659	28.27
755.839	28.91
756.02	25.31
756.2	19.59
756.381	15.63
756.561	10.09
756.741	9.39
756.922	11.62
757.102	13.09
757.283	17.27
757.463	21.59
757.643	22.65
757.823	21.75
758.004	22.5
758.184	27.11
758.364	27.6
758.545	29.2
758.725	30.36
758.905	29.44
759.085	27.66
759.265	25.03
759.446	24.26
759.626	24.92
759.806	24.99
759.986	26.42
760.166	25.12
760.346	26.56
760.526	29.93
760.706	26.26
760.886	25.43
761.066	27.49
761.246	31.7
761.426	29.77
761.606	24.56
761.786	25.08
761.966	22.59
762.146	24.43
762.326	21.76
762.506	21.21
762.686	23.61
762.866	23.63
763.046	22.56
763.225	20.49
763.405	19.64
763.585	23.58
763.765	20.21
763.945	23.14
764.124	23.23
764.304	27.19
764.484	25.47
764.664	24.03
764.843	24
765.023	25.12
765.203	25.87
765.382	28.54
765.562	29.51
765.741	33.21
765.921	32.88
766.101	33.75
766.28	33.51
766.46	36.16
766.639	40.51
766.819	41.84
766.998	42.59
767.178	46.46
767.357	49.68
767.537	48.42
767.716	47.31
767.896	47.12
768.075	45.13
768.254	45.91
768.434	42.27
768.613	42.63
768.792	41.31
768.972	40.76
769.151	34.37
769.33	36.88
769.51	36.51
769.689	38.78
769.868	39.42
770.047	42.8
770.226	45.95
770.406	46.08
770.585	44.48
770.764	45.4
770.943	46.07
771.122	43.11
771.301	33.74
771.48	35.32
771.66	34.76
771.839	35.66
772.018	34.46
772.197	26.86
772.376	29.7
772.555	28.22
772.734	23.68
772.913	29.95
773.092	38.74
773.271	51.54
773.449	51.65
773.628	52.64
773.807	46.09
773.986	47.92
774.165	53.48
774.344	55.67
774.523	61.73
774.701	62.2
774.88	53.66
775.059	52.82
775.238	51.73
775.417	55.25
775.595	52.11
775.774	60.73
775.953	55.42
776.131	51.88
776.31	52.49
776.489	49.66
776.667	53.72
776.846	53.06
777.025	46.44
777.203	45.11
777.382	43.61
777.56	42.53
777.739	42.24
777.917	43.97
778.096	48.75
778.274	49.01
778.453	43.66
778.631	42.86
778.81	39.45
778.988	41.83
779.166	40.24
779.345	34.67
779.523	29.59
779.702	22.75
779.88	20.32
780.058	17.42
780.237	9.81
780.415	11.69
780.593	4.9
780.771	12.14
780.95	14.17
781.128	17.2
781.306	20.56
781.484	21.19
781.662	27.69
781.841	28.3
782.019	25.39
782.197	29.66
782.375	27.85
782.553	37.53
782.731	27.68
782.909	24.75
783.087	29.27
783.265	38.8
783.443	45.93
783.621	46.24
783.799	40.86
783.977	43.29
784.155	43.1
784.333	50.75
784.511	49.84
784.689	53.98
784.867	55.53
785.045	43.12
785.223	40.59
785.4	38.33
785.578	30.57
785.756	37.78
785.934	28.12
786.112	31.56
786.289	24.12
786.467	21.78
786.645	17.26
786.823	22.32
787	26.49
787.178	22.19
787.356	21.54
787.533	24.09
787.711	25.76
787.889	23.97
788.066	22.92
788.244	18.48
788.421	17.24
788.599	12.71
788.776	4.86
788.954	9.93
789.131	10
789.309	8.92
789.486	13.82
789.664	13.78
789.841	24.42
790.019	28.44
790.196	38.56
790.373	38.19
790.551	43.74
790.728	49.18
790.906	47.06
791.083	51.59
791.26	51.04
791.437	56.55
791.615	54.71
791.792	56.43
791.969	52.88
792.146	53.91
792.324	60.3
792.501	59.36
792.678	58.8
792.855	50.73
793.032	47.88
793.209	45.19
793.387	40.32
793.564	31.41
793.741	34.37
793.918	36.69
794.095	31.21
794.272	25.13
794.449	26.39
794.626	19.47
794.803	22.48
794.98	25.3
795.157	30.09
795.334	25.26
795.511	36.45
795.688	31.19
795.864	36.63
796.041	40.3
796.218	45.26
796.395	46.11
796.572	48.15
796.749	51.14
796.925	47.71
797.102	43.61
797.279	47.56
797.456	44.09
797.632	49.67
797.809	44.67
797.986	39.02
798.162	26.36
798.339	23.03
798.516	28.44
798.692	25.15
798.869	20.98
799.046	36.7
799.222	38.52
799.399	31.83
799.575	35.8
799.752	33.24
799.928	32.74
800.105	35.47
800.281	41.53
800.458	38.23
800.634	41.72
800.811	38.04
800.987	23.61
801.163	21.33
801.34	27.19
801.516	8.17
801.692	12.9
801.869	20.03
802.045	25.69
802.221	19.12
802.398	24.38
802.574	13.5
802.75	25.01
802.926	35.43
803.103	37.34
803.279	33.97
803.455	46.44
803.631	43.59
803.807	53.01
803.983	46.28
804.16	47.89
804.336	45.19
804.512	46.29
804.688	42.12
804.864	42.5
805.04	45.11
805.216	47.33
805.392	51.77
805.568	51.72
805.744	39.84
805.92	47.9
806.096	47.44
806.272	41.84
806.448	45.93
806.623	38.22
806.799	28.15
806.975	27.01
807.151	27.51
807.327	14.41
807.503	18.14
807.678	28.4
807.854	30.21
808.03	22.26
808.206	38.13
808.381	42.45
808.557	54.05
808.733	59.42
808.908	57.45
809.084	53.21
809.26	53.13
809.435	46.24
809.611	40.89
809.787	42.94
809.962	52.99
810.138	47.69
810.313	51.89
810.489	52.22
810.664	50.77
810.84	41.11
811.015	30.82
811.191	21.81
811.366	34.77
811.542	14.19
811.717	22.6
811.892	-0.78
812.068	-8.36
812.243	-31.18
812.419	-54.11
812.594	-25.87
812.769	8.44
812.944	41.4
813.12	43.58
813.295	30.01
813.47	44.76
813.645	41.12
813.821	51.79
813.996	44.41
814.171	47.71
814.346	47.4
814.521	44.19
814.697	32.33
814.872	23.02
815.047	19.52
815.222	30.68
815.397	25.54
815.572	32.41
815.747	30.23
815.922	20.35
816.097	18.31
816.272	21.63
816.447	22.51
816.622	14.45
816.797	12.08
816.972	23.11
817.147	9.76
817.322	20.03
817.496	8.26
817.671	8.35
817.846	26.76
818.021	26.1
818.196	30.22
818.371	29.87
818.545	38.45
818.72	40.33
818.895	41.14
819.069	39.11
819.244	33.82
819.419	31.05
819.594	33.2
819.768	31.4
819.943	27.87
820.117	24.03
820.292	22.92
820.467	22.03
820.641	20.9
820.816	19.3
820.99	20.97
821.165	21.94
821.339	21.9
821.514	20.38
821.688	19.19
821.863	21.17
822.037	20.97
822.212	21.32
822.386	22.02
822.56	24.18
822.735	26.09
822.909	25.77
823.084	23.63
823.258	25.11
823.432	23.68
823.606	22.42
823.781	17.09
823.955	17.63
824.129	14.69
824.303	10.94
824.478	5.73
824.652	2.25
824.826	-2.46
825	0.32
825.174	-0.71
825.348	5.61
825.523	8.68
825.697	14.14
825.871	14.2
826.045	15.07
826.219	18.16
826.393	19.9
826.567	21.74
826.741	24.35
826.915	27.92
827.089	30.31
827.263	27.33
827.437	26.61
827.611	26.71
827.784	26.81
827.958	28.04
828.132	27.48
828.306	27.87
828.48	23.7
828.654	28.79
828.827	26.59
829.001	21.13
829.175	26.57
829.349	33.93
829.522	37.02
829.696	44.22
829.87	33.91
830.044	39.98
830.217	19.49
830.391	14.71
830.565	2.17
830.738	-6.18
830.912	10.53
831.085	7.18
831.259	11.77
831.432	11.2
831.606	10.68
831.779	17.57
831.953	15.27
832.126	21.96
832.3	22.28
832.473	25.04
832.647	22.67
832.82	17.53
832.994	15.16
833.167	13.93
833.34	11.58
833.514	14.92
833.687	12.43
833.86	4.99
834.034	5.54
834.207	1.32
834.38	0.11
834.553	-2.46
834.727	-5.56
834.9	-7.32
835.073	-24.53
835.246	-33.15
835.419	-52.67
835.593	-80.61
835.766	-99.05
835.939	-45.45
836.112	-40.09
836.285	-21.71
836.458	-0.45
836.631	2.99
836.804	-12.02
836.977	15.88
837.15	39.64
837.323	46.66
837.496	52.5
837.669	52.85
837.842	63.75
838.015	42.8
838.188	19.26
838.361	17.68
838.533	29.57
838.706	32.1
838.879	25.74
839.052	18.36
839.225	24.04
839.398	29.81
839.57	40.37
839.743	25.6
839.916	26.76
840.088	41.83
840.261	55.06
840.434	47.09
840.607	52.7
840.779	64.53
840.952	53.87
841.124	55.27
841.297	43.51
841.47	22.08
841.642	28.61
841.815	25.51
841.987	-19.12
842.16	-519.61
842.332	-357.35
842.505	636.54
842.677	586.11
842.85	570.59
843.022	-6240
843.194	-845.16
843.367	110.67
843.539	160.76
843.712	76.47
843.884	34.14
844.056	39.87
844.229	26.29
844.401	-74.34
844.573	-189.16
844.745	227.59
844.918	88.57
845.09	24.03
845.262	30.05
845.434	41.05
845.606	45.48
845.779	37.44
845.951	43.4
846.123	32.54
846.295	23.44
846.467	34.76
846.639	39.9
846.811	44.7
846.983	77.14
847.155	91.97
847.327	181.05
847.499	156.19
847.671	227.33
847.843	-589.47
848.015	-512.9
848.187	572.41
848.359	2341.67
848.531	150.46
848.703	122.66
848.875	136.16
849.047	77.57
849.218	86.52
849.39	128.85
849.562	860
849.734	-28.36
849.905	-6.67
850.077	-45.14
850.249	-3.11
850.421	63.45
850.592	60.75
850.764	69.58
850.936	10.66
851.107	-6.22
851.279	-8.02
851.451	-26.55
851.622	33.03
851.794	37.9
851.965	52.9
852.137	67.58
852.308	77.38
852.48	108.9
852.651	67.33
852.823	151.52
852.994	100.35
853.166	119.06
853.337	125.68
853.509	173.21
853.68	261.11
853.851	-1146.43
854.023	298.35
854.194	230.97
854.365	-1600
854.537	-27.27
854.708	-447.62
854.879	-182.98
855.05	-35.88
855.222	61.49
855.393	170.1
855.564	96.22
855.735	64.47
855.906	51.54
856.078	58.56
856.249	70.93
856.42	82.57
856.591	90.35
856.762	92.68
856.933	96.1
857.104	63.75
857.275	50.9
857.446	33.24
857.617	36.2
857.788	133.99
857.959	73.68
858.13	216.07
858.301	137.74
858.472	191.18
858.643	192.52
858.814	86.49
858.985	109.63
859.155	195.72
859.326	147.03
859.497	156.51
859.668	105.08
859.839	116.89
860.009	108.59
860.18	116.96
860.351	131.34
860.522	118.97
860.692	133.85
860.863	80.69
861.034	54.4
861.204	55.18
861.375	57.9
861.546	48.78
861.716	41.91
861.887	15.36
862.057	34.24
862.228	12.62
862.398	43.51
862.569	32.31
862.739	82.76
862.91	110.48
863.08	308.97
863.251	194.17
863.421	208.18
863.592	117.34
863.762	-240
863.932	-261.29
864.103	-900
864.273	-117.14
864.443	584.09
864.614	125.32
864.784	266.67
864.954	-13.64
865.125	-357.58
865.295	-588.89
865.465	96.3
865.635	6.99
865.805	-40.77
865.976	-65.94
866.146	-22.74
866.316	3.41
866.486	17.18
866.656	32.57
866.826	34.32
866.996	-2.88
867.166	-9.95
867.336	-8.95
867.506	-7.02
867.676	-13.77
867.846	-15.73
868.016	-21.77
868.186	-56.93
868.356	-161.54
868.526	-398
868.696	-411.39
868.866	-45.42
869.036	-16.44
869.206	1070.59
869.376	200
869.545	-1380
869.715	-71.87
869.885	147.89
870.055	147.95
870.224	57.48
870.394	56.86
870.564	-101.41
870.734	258.26
870.903	245.13
871.073	126.49
871.243	162.5
871.412	177.31
871.582	120.22
871.751	82.66
871.921	56.61
872.091	54.29
872.26	79.37
872.43	61.36
872.599	46.83
872.769	66.41
872.938	48.16
873.108	50.56
873.277	46.79
873.446	57.6
873.616	64.84
873.785	95.94
873.955	98.17
874.124	88.41
874.293	110.97
874.463	78.46
874.632	60.94
874.801	45.54
874.971	65.06
875.14	86.88
875.309	162.16
875.478	147.79
875.647	111.47
875.817	128.87
875.986	97.89
876.155	84.51
876.324	117.66
876.493	149.12
876.662	150.64
876.831	124.34
877	131.55
877.17	96.95
877.339	91.16
877.508	97.21
877.677	68.45
877.846	83.75
878.015	95.05
878.184	62.29
878.352	61.77
878.521	37.77
878.69	31.03
878.859	55.63
879.028	38.46
879.197	39.12
879.366	33.77
879.534	40.86
879.703	40.81
879.872	37.75
880.041	33.14
880.21	32.38
880.378	39.94
880.547	43.07
880.716	38.03
880.884	41.3
881.053	42.44
881.222	47.4
881.39	48.52
881.559	45.12
881.727	42.17
881.896	38.16
882.065	34.33
882.233	34.08
882.402	35.26
882.57	33.23
882.739	35.69
882.907	33.84
883.076	33.87
883.244	36.49
883.412	43.52
883.581	52.7
883.749	65.55
883.918	71.03
884.086	70.41
884.254	68.35
884.423	73.87
884.591	53.16
884.759	61.34
884.927	53.14
885.096	56
885.264	51.48
885.432	54.67
885.6	68
885.769	68.8
885.937	81.37
886.105	90.55
886.273	95.76
886.441	116.84
886.609	84.36
886.777	112.32
886.945	107.64
887.113	135.54
887.281	118.52
887.449	106.45
887.617	119.46
887.785	117.95
887.953	89.92
888.121	90.65
888.289	124.01
888.457	149.13
888.625	179.86
888.793	205.07
888.961	164.24
889.129	127.09
889.296	187.89
889.464	190.32
889.632	59.21
889.8	1407.69
889.967	244.33
890.135	89.29
