Data from JASIL_3243_Reflection_2.txt Node
Date: Mon Nov 16 20:32:39 EST 2015
User: Geneva
Spectrometer: USB4E03002
Autoset integration time: false
Trigger mode: 4
Integration Time (sec): 1.000000E-1
Scans to average: 10
Electric dark correction enabled: false
Nonlinearity correction enabled: false
Boxcar width: 5
Stray light correction enabled: false
XAxis mode: Wavelengths
Stop averaging: false
Number of Pixels in Spectrum: 3648
>>>>>Begin Spectral Data<<<<<
177.575	81.2
177.794	-47.14
178.014	-48.19
178.233	-48.6
178.452	-138.55
178.672	-103.03
178.891	-345.28
179.11	1859.46
179.33	811.61
179.549	-3927.27
179.768	743.22
179.987	936.56
180.207	545.16
180.426	355.4
180.645	425.61
180.864	716.88
181.084	315.42
181.303	284.03
181.522	483.18
181.741	1494.37
181.96	389.74
182.179	497.4
182.398	619.56
182.618	650.42
182.837	628.15
183.056	497.62
183.275	358.7
183.494	367.91
183.713	397.78
183.932	320.33
184.151	302.19
184.37	258.66
184.589	231.16
184.808	195.59
185.027	166.3
185.246	209.27
185.465	325.67
185.684	325.26
185.903	1190.8
186.122	434.98
186.341	566.85
186.56	288.68
186.779	493.78
186.998	605.38
187.216	634.65
187.435	471.86
187.654	447.03
187.873	232.57
188.092	203.63
188.311	201.25
188.53	288.66
188.748	286.96
188.967	743.2
189.186	389.27
189.405	432.9
189.623	429.17
189.842	463.79
190.061	469.38
190.28	1242.31
190.498	-1138.75
190.717	842.86
190.936	-1801.69
191.154	-891.96
191.373	-19566.67
191.592	-11254.55
191.81	-630.46
192.029	-851.15
192.248	-250.8
192.466	-242.27
192.685	-301.83
192.904	-398.9
193.122	-268
193.341	-609.19
193.559	-601.02
193.778	-650.3
193.996	-820.61
194.215	32950
194.433	-3050
194.652	669.46
194.87	585.28
195.089	508.3
195.307	686.84
195.526	2101.69
195.744	1165.79
195.963	782.97
196.181	16275
196.399	-1072.65
196.618	5790
196.836	18966.67
197.055	-1040.98
197.273	-2072.41
197.491	-1306.67
197.71	-2158.82
197.928	1405
198.146	2526.19
198.365	-9640
198.583	512.12
198.801	696.49
199.019	1715.58
199.238	-2916.67
199.456	1153.77
199.674	511.02
199.892	413.77
200.111	498.46
200.329	530.19
200.547	425.63
200.765	380.63
200.983	427.11
201.202	345.71
201.42	512.2
201.638	376.89
201.856	461.65
202.074	1403.31
202.292	1586.87
202.51	1165.31
202.728	1819.59
202.946	-4122.5
203.165	5493.94
203.383	-1777.32
203.601	-2066.28
203.819	3950
204.037	19070
204.255	1732.99
204.473	750
204.691	1111.33
204.909	703.27
205.127	726.51
205.345	904.55
205.562	769.8
205.78	539.6
205.998	614.69
206.216	511.07
206.434	484.12
206.652	486.36
206.87	381.25
207.088	324.61
207.306	415.08
207.523	367.33
207.741	275.31
207.959	280.16
208.177	291.27
208.395	226.71
208.612	231.63
208.83	202.93
209.048	216.95
209.266	256.51
209.483	229.18
209.701	197.19
209.919	213.36
210.136	246.39
210.354	569.5
210.572	577.38
210.79	910.37
211.007	593.01
211.225	1053.49
211.442	-6061.9
211.66	-1704.17
211.878	-869.44
212.095	191.48
212.313	230.36
212.53	279.94
212.748	168.98
212.966	162.54
213.183	166.31
213.401	163.01
213.618	138.3
213.836	148.1
214.053	152.11
214.271	134.7
214.488	1137.82
214.705	577.52
214.923	469.03
215.14	492.53
215.358	349.23
215.575	527.83
215.793	512.33
216.01	741.1
216.227	281.06
216.445	243.21
216.662	260.52
216.879	251.15
217.097	215.28
217.314	238.65
217.531	311.97
217.749	365.76
217.966	420.67
218.183	363.36
218.4	419.54
218.618	529.13
218.835	489.67
219.052	373.14
219.269	314.19
219.487	499.31
219.704	319.03
219.921	236.39
220.138	198.04
220.355	181.97
220.572	198.14
220.79	215.19
221.007	233
221.224	273.56
221.441	276.52
221.658	284.23
221.875	202.56
222.092	232.28
222.309	298.55
222.526	280.24
222.743	300
222.96	383.96
223.177	210.19
223.394	227.41
223.611	171.03
223.828	171.18
224.045	214.23
224.262	206.59
224.479	123.82
224.696	121.52
224.913	157.25
225.13	120.23
225.347	101.46
225.564	89.46
225.781	78.67
225.997	87.76
226.214	82.01
226.431	72.19
226.648	61.59
226.865	60.87
227.082	51.5
227.298	43.27
227.515	40.37
227.732	37.53
227.949	34.58
228.165	35.32
228.382	30.94
228.599	25.84
228.816	23.81
229.032	27.65
229.249	25.4
229.466	24.05
229.682	24.83
229.899	23.6
230.116	26.29
230.332	29.68
230.549	30.16
230.765	31.59
230.982	34.74
231.199	37.4
231.415	39.44
231.632	45.73
231.848	52.3
232.065	60.84
232.281	64.49
232.498	69.64
232.714	72.44
232.931	70.06
233.147	66.8
233.364	70.66
233.58	67.28
233.797	68.23
234.013	66.57
234.23	65.94
234.446	57.26
234.662	53.75
234.879	47.58
235.095	48.14
235.312	53.3
235.528	53.33
235.744	55.21
235.961	53.66
236.177	53.69
236.393	54.08
236.61	53.95
236.826	59.56
237.042	59.77
237.258	60.61
237.475	51.73
237.691	48.91
237.907	51.85
238.123	46.66
238.339	50.02
238.556	46.55
238.772	43.07
238.988	37.09
239.204	35.12
239.42	35.98
239.636	34.99
239.853	34.67
240.069	28.46
240.285	27.73
240.501	28.47
240.717	25.28
240.933	21.81
241.149	19.43
241.365	20.06
241.581	19.88
241.797	19.06
242.013	20.59
242.229	20.36
242.445	22.7
242.661	22.51
242.877	21.32
243.093	23.51
243.309	26.89
243.525	29.39
243.741	30.98
243.957	33.01
244.173	32.55
244.388	31.58
244.604	31.38
244.82	28.64
245.036	28.51
245.252	27.01
245.468	23.51
245.683	20.4
245.899	20.28
246.115	19.13
246.331	17.18
246.547	16.95
246.762	15.49
246.978	15.79
247.194	16.03
247.409	15.64
247.625	15.78
247.841	17.13
248.057	18.12
248.272	16.91
248.488	18.37
248.703	19.91
248.919	20.66
249.135	24.44
249.35	23.72
249.566	24.37
249.782	24.7
249.997	25.87
250.213	23.1
250.428	21.53
250.644	24.74
250.859	23.34
251.075	20.78
251.29	21.68
251.506	19.99
251.721	19.43
251.937	20.77
252.152	20.3
252.368	19.86
252.583	22
252.798	23.93
253.014	22.38
253.229	22.74
253.445	25.07
253.66	23.61
253.875	23.89
254.091	29.35
254.306	26.64
254.521	28.75
254.737	29.9
254.952	32.32
255.167	31.77
255.383	29.62
255.598	28.79
255.813	30.2
256.028	32.62
256.244	30.72
256.459	28.3
256.674	29.29
256.889	26.27
257.104	22.49
257.32	21.45
257.535	19.3
257.75	19.23
257.965	16.94
258.18	16.66
258.395	15.25
258.61	15.8
258.826	15.47
259.041	14.31
259.256	14.85
259.471	15.36
259.686	13.76
259.901	13.75
260.116	13.18
260.331	14.52
260.546	13.43
260.761	14.02
260.976	13.65
261.191	12.22
261.406	13.58
261.621	13.52
261.836	14.9
262.05	17.02
262.265	19.58
262.48	22.75
262.695	23.13
262.91	22.41
263.125	22.11
263.34	24.06
263.555	26.23
263.769	26.85
263.984	26.37
264.199	26.03
264.414	25.39
264.629	23.38
264.843	19.47
265.058	18.75
265.273	18.15
265.488	18
265.702	18.45
265.917	19.23
266.132	15.67
266.346	15.93
266.561	15.3
266.776	14.89
266.99	14.74
267.205	16.51
267.42	15.89
267.634	17.91
267.849	16.95
268.063	15.4
268.278	16.41
268.492	17.08
268.707	16.4
268.922	17.29
269.136	16.52
269.351	15.23
269.565	14.78
269.78	14.26
269.994	12.63
270.209	13.31
270.423	12.89
270.637	10.93
270.852	11.62
271.066	12.71
271.281	12.46
271.495	11.68
271.709	13.09
271.924	14.25
272.138	14.62
272.353	15.73
272.567	14.84
272.781	14.46
272.996	14.9
273.21	14.11
273.424	14.18
273.638	13.61
273.853	14.97
274.067	14.68
274.281	13.73
274.495	13.72
274.71	13.31
274.924	13.68
275.138	14.37
275.352	12.86
275.566	14.05
275.781	13.6
275.995	13.67
276.209	15.09
276.423	15.15
276.637	13.88
276.851	14.83
277.065	14.81
277.279	15.49
277.493	14.03
277.707	13.94
277.921	14.63
278.135	14.18
278.349	14.82
278.563	14.35
278.777	15.2
278.991	15.98
279.205	15.24
279.419	14.86
279.633	15.13
279.847	16.19
280.061	16.97
280.275	18.42
280.489	18.32
280.703	17.31
280.917	17.15
281.131	15.72
281.344	15.72
281.558	15.45
281.772	15.76
281.986	15.6
282.2	15.95
282.414	14.28
282.627	12.36
282.841	12.26
283.055	13.58
283.269	12.81
283.482	12.66
283.696	12.39
283.91	12.71
284.123	12.01
284.337	11.95
284.551	10.95
284.764	11.52
284.978	9.99
285.192	10.41
285.405	10.05
285.619	10.3
285.833	11.03
286.046	10.63
286.26	10.44
286.473	9.77
286.687	10.15
286.9	10.83
287.114	11.36
287.327	13.2
287.541	11.91
287.754	10.74
287.968	9.89
288.181	9.49
288.395	9.86
288.608	10.58
288.822	12.62
289.035	12.45
289.248	12.2
289.462	12.26
289.675	12.09
289.889	12.45
290.102	11.84
290.315	12.45
290.529	11.99
290.742	12.14
290.955	12.12
291.169	11.83
291.382	10.92
291.595	11.48
291.808	11.93
292.022	12.23
292.235	13.47
292.448	13.82
292.661	13.2
292.875	14.46
293.088	14.45
293.301	13.5
293.514	11.42
293.727	12.06
293.94	11.08
294.153	11.51
294.367	11.09
294.58	9.79
294.793	10.45
295.006	11.64
295.219	11.51
295.432	11.37
295.645	10.63
295.858	10.87
296.071	10.73
296.284	10.37
296.497	8.76
296.71	9.02
296.923	9.72
297.136	8.59
297.349	8.06
297.562	6.93
297.775	7.61
297.988	8.09
298.201	9.12
298.414	8.29
298.626	8.82
298.839	9.84
299.052	8.96
299.265	8.57
299.478	10.13
299.691	10.26
299.903	11.19
300.116	11.42
300.329	11.1
300.542	10.55
300.755	12.66
300.967	12.71
301.18	12.42
301.393	12.58
301.605	13.22
301.818	12.85
302.031	14.26
302.243	14.6
302.456	12.84
302.669	13.78
302.881	13.97
303.094	13.04
303.307	13.71
303.519	14.75
303.732	14.92
303.944	14.15
304.157	14.17
304.37	12.99
304.582	12.29
304.795	12.87
305.007	12.78
305.22	12.87
305.432	12.81
305.645	12.72
305.857	11.71
306.069	12.88
306.282	12.74
306.494	13.78
306.707	13.86
306.919	14.49
307.132	13.84
307.344	14.12
307.556	14.62
307.769	14.49
307.981	13.16
308.193	13.46
308.406	12.88
308.618	13.55
308.83	13.06
309.043	12.74
309.255	14.18
309.467	13.83
309.679	12.98
309.892	12.58
310.104	12.33
310.316	13.29
310.528	13.04
310.74	11.78
310.953	11.41
311.165	11.7
311.377	11.53
311.589	11.12
311.801	12.3
312.013	13.23
312.225	13.73
312.437	13.42
312.649	13.56
312.862	14.63
313.074	14.69
313.286	14.65
313.498	15.01
313.71	15.01
313.922	14.9
314.134	14.97
314.346	13.9
314.558	13.52
314.77	14.43
314.982	15.34
315.193	15.18
315.405	16.44
315.617	16.48
315.829	16.33
316.041	17.17
316.253	17.49
316.465	17.65
316.677	17.38
316.888	17.86
317.1	16.6
317.312	15.57
317.524	15.04
317.736	16.91
317.947	17.71
318.159	17.87
318.371	17.95
318.583	16.49
318.794	16.17
319.006	17.09
319.218	15.79
319.43	16.4
319.641	17.8
319.853	18.52
320.064	16.94
320.276	16.24
320.488	15.42
320.699	15.2
320.911	15.63
321.123	17.57
321.334	19.57
321.546	21.66
321.757	22.55
321.969	20.61
322.18	19.63
322.392	19.07
322.603	17.97
322.815	17.45
323.026	16.42
323.238	16.6
323.449	14.21
323.661	12.59
323.872	12.33
324.083	11.32
324.295	11.39
324.506	12.49
324.718	11.53
324.929	12.25
325.14	13.12
325.352	14.32
325.563	14.33
325.774	14.14
325.986	14.05
326.197	13.16
326.408	13.85
326.62	13.83
326.831	13.29
327.042	14.99
327.253	15.02
327.464	16.48
327.676	15.45
327.887	15.61
328.098	16.67
328.309	17.22
328.52	17.06
328.732	16.35
328.943	16.66
329.154	16.58
329.365	16.45
329.576	18.65
329.787	16.04
329.998	17.26
330.209	15.32
330.42	14.03
330.631	14.13
330.842	13.96
331.053	14.79
331.264	14.29
331.475	13.99
331.686	14.08
331.897	12.27
332.108	13.79
332.319	12.96
332.53	13.82
332.741	14.6
332.952	14.07
333.163	14.4
333.374	13.88
333.585	13.92
333.795	14.68
334.006	14.13
334.217	13.41
334.428	12.99
334.639	13.09
334.849	12.75
335.06	12.45
335.271	13.12
335.482	15.33
335.692	15.06
335.903	15.52
336.114	15.65
336.325	15.51
336.535	15.38
336.746	15.94
336.957	16.31
337.167	17.75
337.378	18.61
337.589	17.42
337.799	16.83
338.01	18.97
338.22	18.46
338.431	18.32
338.642	18.47
338.852	19.16
339.063	19.14
339.273	18.8
339.484	18.52
339.694	18.04
339.905	19.03
340.115	17.93
340.326	16.54
340.536	17.18
340.746	16.31
340.957	15.78
341.167	15.76
341.378	15.67
341.588	15.06
341.799	14.39
342.009	14.14
342.219	14.38
342.43	14.34
342.64	14.86
342.85	14.95
343.061	14.22
343.271	14.66
343.481	13.87
343.691	12.6
343.902	13.13
344.112	13.25
344.322	12.82
344.532	12.72
344.743	13.16
344.953	13.12
345.163	13.03
345.373	14
345.583	14.55
345.793	15.52
346.004	16.01
346.214	15.62
346.424	15.84
346.634	16.08
346.844	15.41
347.054	15.98
347.264	16.11
347.474	16.81
347.684	17.3
347.894	16.2
348.104	16.46
348.314	16.42
348.524	18.23
348.734	17.72
348.944	17.4
349.154	17.58
349.364	16.44
349.574	14.75
349.784	13.77
349.994	13.27
350.204	13.82
350.413	13.23
350.623	12.56
350.833	10.91
351.043	10.81
351.253	11.69
351.463	11.4
351.672	11.53
351.882	12.61
352.092	13.41
352.302	13.37
352.511	13.21
352.721	13.21
352.931	14.04
353.141	14.76
353.35	14.26
353.56	14.31
353.77	14.13
353.979	14.15
354.189	13.75
354.399	13.29
354.608	13.55
354.818	13.35
355.027	12.64
355.237	11.7
355.447	11.15
355.656	11.22
355.866	10.3
356.075	10.67
356.285	10.51
356.494	10.5
356.704	9.96
356.913	8.98
357.123	9.12
357.332	8.78
357.542	9.42
357.751	8.91
357.96	10.12
358.17	10.39
358.379	10.41
358.589	10.17
358.798	10.56
359.007	10.36
359.217	10.15
359.426	9.74
359.635	10.69
359.845	10.16
360.054	10.4
360.263	9.5
360.472	9.44
360.682	8.65
360.891	8.95
361.1	8.61
361.309	8.67
361.519	9.28
361.728	9.98
361.937	9.64
362.146	10.01
362.355	10.53
362.564	10.68
362.774	11
362.983	11.55
363.192	11.79
363.401	11.98
363.61	12.35
363.819	12.01
364.028	11.11
364.237	11.35
364.446	11.16
364.655	10.76
364.864	11.34
365.073	11.33
365.282	11.66
365.491	11.59
365.7	11.88
365.909	11.89
366.118	12.34
366.327	12.96
366.536	13.29
366.745	13.34
366.954	13.93
367.162	13.8
367.371	14.2
367.58	13.83
367.789	13.59
367.998	13.1
368.207	12.85
368.415	13.2
368.624	12.86
368.833	13.57
369.042	14.22
369.25	14.25
369.459	13.63
369.668	12.98
369.877	12.93
370.085	13.44
370.294	13.6
370.503	14.17
370.711	13.64
370.92	13.72
371.129	14.26
371.337	13.87
371.546	13.03
371.754	13.48
371.963	13.83
372.171	14.44
372.38	14.21
372.589	14.54
372.797	13.53
373.006	14.19
373.214	14.26
373.423	12.84
373.631	13
373.84	12.62
374.048	11.63
374.256	11.42
374.465	11.03
374.673	10.59
374.882	10.1
375.09	9.66
375.298	9.71
375.507	9.13
375.715	8.02
375.923	6.8
376.132	6.26
376.34	6.93
376.548	7.19
376.757	7.55
376.965	7.66
377.173	7.9
377.381	8.67
377.59	8.39
377.798	8.52
378.006	9.59
378.214	10.54
378.423	11.78
378.631	11.27
378.839	10.61
379.047	10.79
379.255	10.84
379.463	10.62
379.671	10.99
379.879	10.55
380.088	11.13
380.296	11.4
380.504	11.24
380.712	10.74
380.92	11.29
381.128	11.83
381.336	11.1
381.544	11.69
381.752	11.18
381.96	11.01
382.168	11.04
382.376	10.93
382.584	10.53
382.791	10.23
382.999	10.72
383.207	10.16
383.415	10.06
383.623	9.96
383.831	9.28
384.039	10.14
384.247	9.95
384.454	10.56
384.662	10.13
384.87	9.37
385.078	9.47
385.285	8.92
385.493	9.62
385.701	8.99
385.909	8.79
386.116	8.81
386.324	8.59
386.532	8.66
386.739	8.27
386.947	8.17
387.155	8.89
387.362	8.5
387.57	9.1
387.778	9.12
387.985	9.3
388.193	9.47
388.4	9.45
388.608	9.45
388.816	9.44
389.023	9.05
389.231	9.61
389.438	9.09
389.646	9.85
389.853	9.64
390.061	9.2
390.268	9.15
390.475	8.98
390.683	8.77
390.89	8.93
391.098	8.32
391.305	8.73
391.512	7.89
391.72	7.8
391.927	7.78
392.135	7.82
392.342	7.8
392.549	8.44
392.756	9.02
392.964	9.37
393.171	9.09
393.378	10.03
393.586	10.04
393.793	9.93
394	10.36
394.207	10.13
394.414	10.19
394.622	10.67
394.829	9.82
395.036	9.32
395.243	9.17
395.45	9.78
395.657	9.83
395.864	9.93
396.072	10.84
396.279	10.86
396.486	11.55
396.693	11.93
396.9	12.1
397.107	12.35
397.314	12.62
397.521	12.97
397.728	12.47
397.935	11.67
398.142	11.59
398.349	11.3
398.556	10.99
398.763	10.54
398.97	10.27
399.177	9.72
399.383	10.32
399.59	10.5
399.797	9.89
400.004	10.31
400.211	10.45
400.418	10.57
400.625	10.82
400.831	10.84
401.038	10.29
401.245	10.16
401.452	9.85
401.658	9.66
401.865	9.36
402.072	9.27
402.279	8.48
402.485	8.27
402.692	7.76
402.899	7.52
403.105	7.65
403.312	8.42
403.519	8.15
403.725	7.96
403.932	7.73
404.138	7.67
404.345	8.18
404.552	8.2
404.758	8.41
404.965	8.48
405.171	8.7
405.378	8.54
405.584	7.81
405.791	7.85
405.997	8.12
406.204	8.16
406.41	8.4
406.617	7.82
406.823	8.09
407.029	8.34
407.236	7.93
407.442	7.93
407.649	8.12
407.855	8.91
408.061	8.94
408.268	9.06
408.474	9.16
408.68	8.4
408.887	8.62
409.093	8.88
409.299	8.85
409.505	9.41
409.712	8.96
409.918	9.21
410.124	8.52
410.33	8.47
410.537	8.42
410.743	8.34
410.949	9.18
411.155	9.05
411.361	9.02
411.567	8.8
411.773	8.5
411.98	8.35
412.186	7.52
412.392	7.51
412.598	7.44
412.804	7.59
413.01	7.49
413.216	7.52
413.422	8.07
413.628	7.41
413.834	7.06
414.04	7.42
414.246	8.17
414.452	8.71
414.658	8.89
414.864	8.91
415.07	9.01
415.275	9.5
415.481	9.04
415.687	8.44
415.893	8.6
416.099	8.75
416.305	8.83
416.511	8.35
416.716	7.88
416.922	8.04
417.128	7.96
417.334	7.59
417.539	6.91
417.745	7.32
417.951	7.26
418.157	7.02
418.362	7.01
418.568	6.8
418.774	6.66
418.979	6.94
419.185	6.45
419.391	6.32
419.596	6.32
419.802	6.35
420.008	6.12
420.213	8.38
420.419	8.57
420.624	8.38
420.83	8.19
421.035	8.28
421.241	7.89
421.446	8.05
421.652	7.96
421.857	7.78
422.063	7.82
422.268	7.7
422.474	5.51
422.679	5.36
422.885	5.4
423.09	5.35
423.295	5.26
423.501	5.46
423.706	5.44
423.911	5.54
424.117	5.64
424.322	5.72
424.527	5.65
424.733	5.55
424.938	5.71
425.143	5.74
425.349	5.84
425.554	6.02
425.759	6.03
425.964	5.88
426.169	5.68
426.375	5.84
426.58	5.76
426.785	5.65
426.99	5.84
427.195	5.71
427.4	5.52
427.605	5.62
427.811	5.39
428.016	5.59
428.221	6.44
428.426	6.94
428.631	7.03
428.836	6.98
429.041	7.48
429.246	7.84
429.451	7.9
429.656	8.2
429.861	7.83
430.066	8.05
430.271	8.22
430.476	7.55
430.681	7.38
430.886	7.08
431.09	7.18
431.295	6.91
431.5	6.42
431.705	6.27
431.91	5.68
432.115	5.9
432.32	5.86
432.524	5.55
432.729	5.47
432.934	5.2
433.139	5.07
433.343	5.2
433.548	5.03
433.753	4.92
433.958	5.24
434.162	5.59
434.367	5.69
434.572	5.78
434.776	5.62
434.981	5.95
435.186	6.31
435.39	6.69
435.595	6.57
435.799	6.64
436.004	6.86
436.209	6.34
436.413	6.25
436.618	6.38
436.822	6.33
437.027	6.57
437.231	5.95
437.436	5.77
437.64	5.55
437.845	5.37
438.049	5.36
438.253	5.59
438.458	5.59
438.662	5.61
438.867	5.36
439.071	5.45
439.275	5.31
439.48	5.69
439.684	5.86
439.888	5.69
440.093	5.99
440.297	5.94
440.501	5.95
440.706	6.21
440.91	6.47
441.114	6.56
441.318	6.64
441.523	6.98
441.727	6.92
441.931	6.74
442.135	6.73
442.339	6.71
442.543	6.9
442.748	6.86
442.952	6.72
443.156	6.43
443.36	6.27
443.564	6.25
443.768	5.49
443.972	5.68
444.176	5.81
444.38	6.18
444.584	6.02
444.788	5.75
444.992	5.65
445.196	5.71
445.4	5.75
445.604	5.7
445.808	5.62
446.012	5.94
446.216	5.58
446.42	5.35
446.624	5.47
446.828	5.35
447.032	5.49
447.235	5.58
447.439	5.38
447.643	5.33
447.847	5.64
448.051	5.78
448.254	5.8
448.458	5.83
448.662	5.95
448.866	6.03
449.069	6.04
449.273	6.02
449.477	5.74
449.681	6.1
449.884	6.06
450.088	6.04
450.292	5.86
450.495	5.97
450.699	6.26
450.902	6.48
451.106	5.98
451.31	6.26
451.513	6.42
451.717	6.51
451.92	6.56
452.124	6.47
452.327	6.22
452.531	6.41
452.734	6.52
452.938	6.53
453.141	6.55
453.345	6.73
453.548	6.41
453.752	6.79
453.955	7.34
454.158	6.76
454.362	6.97
454.565	7.07
454.769	6.79
454.972	6.8
455.175	6.9
455.379	6.59
455.582	6.35
455.785	6.61
455.988	5.99
456.192	5.56
456.395	5.93
456.598	6
456.801	5.88
457.005	5.72
457.208	5.87
457.411	5.67
457.614	5.96
457.817	6.27
458.021	6.21
458.224	6.16
458.427	6.06
458.63	6.1
458.833	6.03
459.036	5.93
459.239	5.79
459.442	5.51
459.645	5.46
459.848	5.53
460.051	5.4
460.254	5.26
460.457	5.21
460.66	5.11
460.863	4.85
461.066	4.71
461.269	5.03
461.472	5.08
461.675	5.03
461.878	5.41
462.081	5.22
462.284	5.26
462.486	5.53
462.689	6.06
462.892	6.3
463.095	6.62
463.298	6.84
463.5	6.64
463.703	6.72
463.906	6.95
464.109	6.61
464.311	6.83
464.514	6.91
464.717	6.74
464.92	6.28
465.122	6.64
465.325	6.46
465.528	6.38
465.73	6.34
465.933	6.62
466.135	6.58
466.338	6.61
466.541	6.45
466.743	6.36
466.946	6.49
467.148	6.67
467.351	6.39
467.553	6.72
467.756	6.92
467.958	7.06
468.161	6.93
468.363	6.82
468.566	6.82
468.768	6.66
468.971	6.43
469.173	6.11
469.375	6.04
469.578	5.87
469.78	5.58
469.983	5.52
470.185	5.78
470.387	5.8
470.59	5.86
470.792	5.83
470.994	5.83
471.196	6.08
471.399	6.83
471.601	6.76
471.803	6.58
472.005	6.61
472.208	6.39
472.41	5.76
472.612	5.83
472.814	5.86
473.016	6.04
473.218	6.15
473.421	6.4
473.623	5.64
473.825	5.69
474.027	6.05
474.229	6.19
474.431	6.29
474.633	6.68
474.835	6.7
475.037	6.79
475.239	6.6
475.441	6.6
475.643	6.52
475.845	6.66
476.047	6.54
476.249	6.21
476.451	6.09
476.653	5.95
476.855	5.75
477.057	5.69
477.258	5.49
477.46	5.43
477.662	5.39
477.864	5.17
478.066	5.29
478.268	5.16
478.469	4.99
478.671	4.98
478.873	5.02
479.075	5.24
479.276	5.12
479.478	5.22
479.68	5.23
479.882	5.29
480.083	5.28
480.285	5.26
480.487	5.51
480.688	5.92
480.89	5.83
481.091	5.79
481.293	5.53
481.495	5.29
481.696	5.15
481.898	5.08
482.099	5.14
482.301	5.1
482.502	4.92
482.704	4.72
482.905	4.51
483.107	4.46
483.308	4.38
483.51	4.26
483.711	4.34
483.913	4.27
484.114	4.31
484.315	4.16
484.517	4.1
484.718	4.11
484.92	4.09
485.121	4.09
485.322	4.17
485.524	4.12
485.725	4.21
485.926	4.08
486.127	4.07
486.329	4
486.53	3.98
486.731	3.95
486.932	4.04
487.134	4.17
487.335	4.27
487.536	4.09
487.737	4.24
487.938	4.28
488.139	4.35
488.341	4.41
488.542	4.4
488.743	4.51
488.944	4.61
489.145	4.49
489.346	4.58
489.547	4.5
489.748	4.6
489.949	4.54
490.15	4.56
490.351	4.5
490.552	4.67
490.753	4.77
490.954	4.63
491.155	4.68
491.356	4.87
491.557	4.75
491.758	4.79
491.959	4.76
492.159	4.87
492.36	4.78
492.561	4.94
492.762	4.85
492.963	4.85
493.164	5.01
493.364	4.88
493.565	4.97
493.766	4.97
493.967	5
494.167	5.05
494.368	4.96
494.569	5.03
494.769	5.16
494.97	5.26
495.171	5.35
495.371	5.57
495.572	5.7
495.773	5.41
495.973	5.58
496.174	5.53
496.375	5.9
496.575	5.89
496.776	5.75
496.976	5.37
497.177	5.29
497.377	5.29
497.578	5.25
497.778	5.3
497.979	5.47
498.179	5.22
498.38	5.12
498.58	5.2
498.78	5.05
498.981	5.3
499.181	5.83
499.382	5.82
499.582	5.59
499.782	5.32
499.983	5.34
500.183	5.27
500.383	5.32
500.584	5.33
500.784	5.09
500.984	5.44
501.184	5.32
501.385	5.23
501.585	5.29
501.785	5.52
501.985	5.83
502.185	6.14
502.386	6.09
502.586	6.15
502.786	6.39
502.986	6.39
503.186	6.29
503.386	6.52
503.586	6.21
503.786	6.34
503.987	6.27
504.187	6.1
504.387	5.96
504.587	5.82
504.787	5.98
504.987	5.99
505.187	6
505.387	5.9
505.587	5.76
505.786	5.96
505.986	5.96
506.186	5.97
506.386	6.07
506.586	6.04
506.786	6.19
506.986	6.1
507.186	6.14
507.386	6.15
507.585	6.4
507.785	6.5
507.985	6.6
508.185	6.26
508.384	6.25
508.584	6.16
508.784	6.02
508.984	5.84
509.183	6
509.383	5.96
509.583	5.95
509.782	5.92
509.982	6.24
510.182	6.1
510.381	6.36
510.581	6.58
510.781	6.34
510.98	6.25
511.18	6.51
511.379	6.51
511.579	6.37
511.778	6.36
511.978	6.21
512.177	5.74
512.377	5.79
512.576	5.82
512.776	5.75
512.975	5.9
513.175	6.15
513.374	6.07
513.573	5.99
513.773	6.1
513.972	6.16
514.172	6.18
514.371	6.66
514.57	6.6
514.77	6.54
514.969	6.5
515.168	6.76
515.367	6.81
515.567	7.05
515.766	7.16
515.965	7.36
516.164	7.25
516.364	7.21
516.563	7.07
516.762	7.11
516.961	7.08
517.16	7.1
517.359	6.87
517.559	6.73
517.758	6.74
517.957	6.74
518.156	6.67
518.355	6.71
518.554	6.99
518.753	6.67
518.952	6.69
519.151	6.76
519.35	6.64
519.549	6.73
519.748	6.84
519.947	6.73
520.146	6.85
520.345	6.84
520.544	6.85
520.743	6.76
520.942	7.08
521.141	7.21
521.339	7.47
521.538	7.61
521.737	7.69
521.936	7.55
522.135	7.33
522.333	7.36
522.532	7.21
522.731	7.25
522.93	7.06
523.129	6.92
523.327	7.02
523.526	6.79
523.725	7.05
523.923	6.96
524.122	6.93
524.321	7.14
524.519	7.05
524.718	7.2
524.917	7.25
525.115	7.32
525.314	7.51
525.512	7.51
525.711	7.39
525.909	7.17
526.108	7.19
526.306	7.3
526.505	7.24
526.703	7.09
526.902	6.97
527.1	6.88
527.299	6.82
527.497	6.63
527.696	6.54
527.894	6.66
528.092	6.73
528.291	6.7
528.489	6.65
528.688	6.65
528.886	6.7
529.084	6.72
529.283	6.81
529.481	6.74
529.679	6.84
529.877	6.86
530.076	6.82
530.274	6.84
530.472	7.04
530.67	7.22
530.869	7.33
531.067	7.39
531.265	7.39
531.463	7.25
531.661	7.5
531.859	7.5
532.057	7.4
532.255	7.53
532.454	7.38
532.652	7.24
532.85	7.13
533.048	7.07
533.246	7.11
533.444	7.31
533.642	7.53
533.84	7.57
534.038	7.68
534.236	7.91
534.434	7.9
534.632	8.17
534.83	8.38
535.027	8.43
535.225	8.54
535.423	8.76
535.621	8.9
535.819	8.82
536.017	8.59
536.215	8.49
536.412	8.45
536.61	8.54
536.808	8.56
537.006	8.66
537.203	9.08
537.401	9.17
537.599	8.97
537.797	8.89
537.994	8.73
538.192	9.17
538.39	9.6
538.587	9.76
538.785	9.77
538.983	9.81
539.18	9.84
539.378	9.59
539.575	9.43
539.773	9.4
539.97	9.3
540.168	9.43
540.366	9.35
540.563	9.22
540.761	9.11
540.958	9.17
541.155	9.07
541.353	9.02
541.55	8.93
541.748	9.11
541.945	9.27
542.143	9.25
542.34	9.49
542.537	9.33
542.735	9.2
542.932	9.35
543.129	9.18
543.327	9.36
543.524	9.37
543.721	9.53
543.919	9.72
544.116	9.82
544.313	10.03
544.51	9.94
544.708	10.37
544.905	10.71
545.102	10.91
545.299	11.31
545.496	11.3
545.693	11.32
545.891	11.3
546.088	11.5
546.285	11.52
546.482	11.56
546.679	11.51
546.876	11.46
547.073	11.33
547.27	11.24
547.467	10.9
547.664	11.07
547.861	11.16
548.058	11.3
548.255	10.99
548.452	11.12
548.649	11.19
548.846	11.32
549.043	11.41
549.24	11.9
549.437	12.08
549.633	12.43
549.83	12.54
550.027	12.69
550.224	12.67
550.421	12.91
550.618	12.89
550.814	12.8
551.011	12.85
551.208	12.65
551.405	12.59
551.601	12.34
551.798	12.33
551.995	12
552.191	12.05
552.388	12.37
552.585	12.39
552.781	12.45
552.978	12.76
553.175	12.76
553.371	12.95
553.568	12.92
553.764	13.39
553.961	13.73
554.157	14.32
554.354	14.33
554.55	14.22
554.747	14.47
554.943	14.21
555.14	14.17
555.336	14.67
555.533	14.83
555.729	14.84
555.926	14.93
556.122	14.8
556.318	14.73
556.515	14.84
556.711	14.94
556.907	14.75
557.104	15.11
557.3	15.08
557.496	14.83
557.693	15.19
557.889	15.65
558.085	15.83
558.281	16.28
558.478	15.94
558.674	16.41
558.87	16.28
559.066	16.46
559.262	16.47
559.459	16.59
559.655	16.67
559.851	16.84
560.047	16.66
560.243	16.47
560.439	16.45
560.635	16.69
560.831	16.4
561.027	16.68
561.223	16.62
561.419	17.17
561.615	17.34
561.811	17.47
562.007	17.29
562.203	17.37
562.399	17.47
562.595	17.38
562.791	17.37
562.987	17.8
563.183	18.02
563.379	18.34
563.575	18.1
563.771	18.02
563.966	18.09
564.162	17.97
564.358	17.89
564.554	17.69
564.75	17.6
564.945	17.62
565.141	17.15
565.337	17.05
565.533	16.94
565.728	16.75
565.924	16.97
566.12	17
566.315	16.92
566.511	16.76
566.707	17.07
566.902	17.12
567.098	17.39
567.293	17.61
567.489	17.45
567.684	17.56
567.88	17.85
568.076	17.92
568.271	17.72
568.467	17.9
568.662	18.18
568.858	18.03
569.053	18.14
569.248	18.06
569.444	18.29
569.639	18.54
569.835	18.06
570.03	18.02
570.225	17.91
570.421	18.18
570.616	18.23
570.812	18.4
571.007	18.54
571.202	18.63
571.397	18.9
571.593	19.08
571.788	19.17
571.983	19.62
572.178	19.81
572.374	19.86
572.569	19.74
572.764	20.21
572.959	20.46
573.154	20.52
573.35	20.72
573.545	20.76
573.74	20.41
573.935	20.27
574.13	20.3
574.325	20.32
574.52	20.51
574.715	21.05
574.91	20.55
575.105	20.43
575.3	20.62
575.495	20.43
575.69	20.59
575.885	21.05
576.08	21.7
576.275	22.03
576.47	22.33
576.665	22.28
576.86	22.15
577.055	22.71
577.25	22.85
577.444	22.59
577.639	22.89
577.834	22.75
578.029	22.37
578.224	21.91
578.418	21.75
578.613	21.91
578.808	22.47
579.003	22.68
579.197	22.44
579.392	22.29
579.587	22.69
579.781	22.54
579.976	22.93
580.171	23.39
580.365	23.32
580.56	23.5
580.755	23.04
580.949	22.8
581.144	22.74
581.338	22.72
581.533	22.71
581.727	22.55
581.922	22.78
582.116	22.65
582.311	22.22
582.505	22.89
582.7	22.46
582.894	22.92
583.089	22.44
583.283	22.49
583.478	22.77
583.672	22.84
583.866	23.06
584.061	22.82
584.255	22.7
584.449	23.13
584.644	22.84
584.838	23.35
585.032	23.18
585.226	24.11
585.421	24.29
585.615	24.6
585.809	24.82
586.003	24.6
586.198	24.86
586.392	24.99
586.586	24.91
586.78	25.13
586.974	24.94
587.168	24.68
587.363	23.91
587.557	23.6
587.751	23.16
587.945	23.24
588.139	23.85
588.333	23.79
588.527	23.23
588.721	23.45
588.915	23.37
589.109	23.5
589.303	23.67
589.497	23.88
589.691	24.44
589.885	24.24
590.079	24.22
590.273	23.98
590.466	24.24
590.66	24.95
590.854	24.91
591.048	24.84
591.242	24.95
591.436	25.01
591.629	24.53
591.823	24.03
592.017	24.75
592.211	25.14
592.404	25.11
592.598	24.7
592.792	24.15
592.986	24.36
593.179	24.45
593.373	24.23
593.567	24.58
593.76	25.27
593.954	25.31
594.147	25.1
594.341	24.79
594.535	25.29
594.728	25.49
594.922	25.69
595.115	25.14
595.309	24.97
595.502	25.09
595.696	24.82
595.889	24.82
596.083	24.88
596.276	24.82
596.47	24.96
596.663	24.19
596.856	24.34
597.05	24.57
597.243	25.02
597.437	25.48
597.63	25.67
597.823	25.74
598.017	25.67
598.21	25.53
598.403	25.63
598.596	25.71
598.79	25.87
598.983	26.02
599.176	26.05
599.369	26.15
599.563	25.67
599.756	25.55
599.949	25.58
600.142	25.7
600.335	26.02
600.528	26.66
600.722	26.36
600.915	26.32
601.108	26.39
601.301	26.03
601.494	25.94
601.687	26.22
601.88	25.91
602.073	26.17
602.266	26.05
602.459	26.23
602.652	25.67
602.845	25.8
603.038	25.77
603.231	25.72
603.424	26.03
603.617	26.06
603.809	26.05
604.002	26.12
604.195	26.01
604.388	26.22
604.581	26.02
604.774	26.1
604.966	25.72
605.159	26
605.352	25.79
605.545	25.76
605.737	25.34
605.93	25.54
606.123	26.15
606.316	26.13
606.508	26.19
606.701	26.48
606.894	26.6
607.086	26.87
607.279	26.97
607.471	27
607.664	26.74
607.857	27.6
608.049	27.28
608.242	26.98
608.434	27.26
608.627	27.16
608.819	26.94
609.012	27.01
609.204	27.16
609.397	27.18
609.589	27.32
609.782	27.56
609.974	27.4
610.166	27.35
610.359	26.72
610.551	26.39
610.743	26.34
610.936	26.61
611.128	26.43
611.32	26.37
611.513	26.02
611.705	25.9
611.897	25.95
612.09	25.72
612.282	26.06
612.474	26.92
612.666	26.91
612.858	27.13
613.051	26.61
613.243	26.7
613.435	27.1
613.627	27.85
613.819	28.3
614.011	29.04
614.203	29.21
614.395	29.12
614.588	28.73
614.78	29.45
614.972	29.74
615.164	30.08
615.356	30.59
615.548	30.27
615.74	29.99
615.932	29.65
616.124	28.77
616.315	28.99
616.507	29.11
616.699	29.06
616.891	28.8
617.083	28.35
617.275	28.19
617.467	27.75
617.659	28.15
617.85	28.48
618.042	28.71
618.234	29.05
618.426	28.37
618.618	28.21
618.809	28.52
619.001	28.33
619.193	28.05
619.384	28.82
619.576	28.84
619.768	28.93
619.959	28.05
620.151	27.78
620.343	27.92
620.534	28.36
620.726	27.53
620.917	27.7
621.109	27.9
621.301	28.64
621.492	28.35
621.684	28.65
621.875	28.57
622.067	29.16
622.258	29.34
622.45	29.62
622.641	29.87
622.832	30.69
623.024	30.11
623.215	29.52
623.407	28.73
623.598	28.81
623.789	28.43
623.981	28.56
624.172	28.29
624.363	28.28
624.555	28.11
624.746	27.63
624.937	27.55
625.129	28.31
625.32	28.48
625.511	28.84
625.702	28.27
625.893	28.36
626.085	27.8
626.276	28.14
626.467	28.01
626.658	28.56
626.849	28.66
627.04	28.76
627.231	28.61
627.422	29.33
627.614	29.67
627.805	29.6
627.996	29.85
628.187	29.84
628.378	30.28
628.569	30.71
628.76	30.28
628.951	30.04
629.142	30.34
629.332	30.22
629.523	29.63
629.714	29.98
629.905	30.6
630.096	30.37
630.287	31.19
630.478	30.88
630.669	30.7
630.859	30.54
631.05	31.4
631.241	31.36
631.432	31.48
631.623	31.77
631.813	31.24
632.004	30.92
632.195	30.65
632.385	30.39
632.576	30.37
632.767	30.26
632.957	30.43
633.148	30.14
633.339	29.96
633.529	29.87
633.72	29.5
633.91	29.95
634.101	30.12
634.292	31.1
634.482	30.99
634.673	30.7
634.863	31.19
635.054	30.85
635.244	30.86
635.435	31.42
635.625	31.3
635.815	31.67
636.006	31.61
636.196	31.72
636.387	31.19
636.577	31.3
636.767	31.4
636.958	31.09
637.148	31.54
637.338	32.24
637.529	31.74
637.719	32.42
637.909	32.25
638.099	31.97
638.29	31.8
638.48	32.39
638.67	32.4
638.86	32.65
639.05	32.44
639.241	32.59
639.431	32.33
639.621	32.82
639.811	32.46
640.001	32.69
640.191	32.52
640.381	32.82
640.571	32
640.761	31.93
640.951	32.26
641.141	32.74
641.331	32.48
641.521	32.47
641.711	32.21
641.901	31.92
642.091	31.61
642.281	31.83
642.471	31.33
642.661	31.38
642.851	31.35
643.041	31.11
643.231	31.13
643.42	31.55
643.61	31.54
643.8	32.18
643.99	32.12
644.18	32.57
644.369	32.72
644.559	33.4
644.749	33.77
644.939	34.09
645.128	34.18
645.318	33.49
645.508	32.67
645.697	32.99
645.887	31.95
646.076	32.08
646.266	32
646.456	31.16
646.645	30.75
646.835	30.11
647.024	29.44
647.214	29.25
647.403	29.78
647.593	30.47
647.782	29.27
647.972	29.78
648.161	29.98
648.351	30.3
648.54	31.47
648.73	32.21
648.919	32.46
649.108	33.05
649.298	33.12
649.487	33.05
649.677	33.03
649.866	33.83
650.055	34.58
650.244	34.72
650.434	33.48
650.623	33.73
650.812	33.48
651.002	33.78
651.191	34.27
651.38	34.44
651.569	34.91
651.758	34.86
651.947	34.71
652.137	34.18
652.326	33.93
652.515	34.39
652.704	34.19
652.893	34.05
653.082	33.79
653.271	33.52
653.46	33.3
653.649	32.68
653.838	32.73
654.027	32.6
654.216	32.49
654.405	32.72
654.594	33.64
654.783	33.82
654.972	33.31
655.161	34.05
655.35	33.26
655.539	32.78
655.728	33.3
655.916	33.91
656.105	34.48
656.294	33.96
656.483	34.11
656.672	33.13
656.86	31.97
657.049	32.35
657.238	31.45
657.427	31.67
657.615	31.36
657.804	31.27
657.993	30.08
658.181	29.06
658.37	29.76
658.559	29.83
658.747	29.8
658.936	30.46
659.125	30.48
659.313	31.23
659.502	31.48
659.69	31.91
659.879	31.78
660.067	32.24
660.256	32.89
660.444	32.48
660.633	31.99
660.821	32.74
661.01	32.32
661.198	32.39
661.387	32.21
661.575	32.1
661.763	32.34
661.952	32.41
662.14	32.36
662.328	32.07
662.517	32.29
662.705	32.56
662.893	32.08
663.082	32.16
663.27	31.67
663.458	30.58
663.646	30.91
663.834	31.39
664.023	31.43
664.211	31.31
664.399	31.57
664.587	30.88
664.775	30.62
664.963	31.61
665.152	31.87
665.34	31.92
665.528	32.18
665.716	32.82
665.904	32.92
666.092	32.98
666.28	34.09
666.468	34.19
666.656	34.75
666.844	35.81
667.032	34.89
667.22	34.72
667.408	35.16
667.596	35.96
667.784	36.22
667.971	36.36
668.159	35.82
668.347	34.83
668.535	34.97
668.723	35.12
668.911	35.06
669.098	35.82
669.286	36.58
669.474	36.77
669.662	37.85
669.849	37.43
670.037	36.93
670.225	37.47
670.413	37.67
670.6	37.33
670.788	37.31
670.976	37.29
671.163	36.87
671.351	36.66
671.538	36.11
671.726	35.34
671.913	34.99
672.101	34.64
672.289	34.93
672.476	34.63
672.664	35.02
672.851	34.72
673.039	34.16
673.226	33.8
673.413	34.07
673.601	34.61
673.788	34.11
673.976	33.75
674.163	34.37
674.35	33.6
674.538	34.29
674.725	34.72
674.912	35.58
675.1	35.61
675.287	35.78
675.474	35.46
675.662	35.01
675.849	35.49
676.036	34.98
676.223	35.2
676.411	35.95
676.598	34.99
676.785	34.92
676.972	35.26
677.159	36
677.346	36.74
677.533	35.75
677.721	36.21
677.908	35.71
678.095	36.44
678.282	36.12
678.469	35.48
678.656	35.74
678.843	35.42
679.03	34.3
679.217	33.55
679.404	33.23
679.591	33.77
679.778	33.94
679.964	33.71
680.151	33.6
680.338	33.23
680.525	33.18
680.712	33.02
680.899	32.56
681.086	32.99
681.272	33.26
681.459	33.35
681.646	33.46
681.833	32.99
682.02	33.42
682.206	33.83
682.393	34.1
682.58	33.76
682.766	34.59
682.953	35.58
683.14	35.81
683.326	36.43
683.513	35.82
683.7	35.91
683.886	35.97
684.073	36.16
684.259	36.18
684.446	36.33
684.632	37.47
684.819	37.5
685.005	37.27
685.192	36.63
685.378	36.2
685.565	36.58
685.751	35.73
685.938	35.74
686.124	35.59
686.31	35.2
686.497	35.36
686.683	35.43
686.87	36.14
687.056	35.72
687.242	36.09
687.429	36.23
687.615	35.28
687.801	36.06
687.987	36.38
688.174	36.2
688.36	36.85
688.546	36.56
688.732	36.46
688.918	35.79
689.105	36.75
689.291	37.29
689.477	37.31
689.663	38.21
689.849	38.39
690.035	38.6
690.221	38.01
690.407	37.84
690.593	38.4
690.779	38.22
690.965	37.94
691.151	37.09
691.337	37.26
691.523	36.85
691.709	36.09
691.895	36.88
692.081	37.19
692.267	38.22
692.453	38.18
692.639	37.68
692.825	37.8
693.011	38.38
693.196	39.53
693.382	39.5
693.568	40.12
693.754	40.78
693.94	40.15
694.125	39.53
694.311	39.34
694.497	38.72
694.682	39.19
694.868	40.28
695.054	40.06
695.239	38.95
695.425	37.84
695.611	37.45
695.796	37.9
695.982	37.64
696.168	37.48
696.353	37.8
696.539	37.59
696.724	37.33
696.91	36.01
697.095	35.45
697.281	35.42
697.466	35.79
697.652	35.94
697.837	35.47
698.023	35.59
698.208	34.99
698.393	34.32
698.579	34.4
698.764	34.03
698.949	34.46
699.135	34.92
699.32	34.65
699.505	34.6
699.691	33.8
699.876	33.88
700.061	33.41
700.246	34.02
700.432	34.07
700.617	34.41
700.802	34.42
700.987	34.82
701.172	35.3
701.358	37.12
701.543	37.4
701.728	38.41
701.913	38.6
702.098	39.15
702.283	40.62
702.468	41.59
702.653	42.25
702.838	43.45
703.023	42.93
703.208	42.31
703.393	42.78
703.578	43.14
703.763	44.11
703.948	44.06
704.133	44.82
704.318	44.98
704.503	44.98
704.688	44.26
704.873	43.4
705.057	43.62
705.242	42.77
705.427	40.75
705.612	41.35
705.797	40.54
705.981	41.78
706.166	40.12
706.351	37.76
706.536	37.87
706.72	37.95
706.905	38.69
707.09	39.12
707.274	40.73
707.459	41.79
707.644	40.66
707.828	41.16
708.013	39.85
708.197	40.41
708.382	41.3
708.567	41.13
708.751	41.17
708.936	41.12
709.12	40.37
709.305	40.17
709.489	40.09
709.673	40.13
709.858	40.26
710.042	40.45
710.227	40.68
710.411	41.92
710.596	42.04
710.78	43.28
710.964	41.66
711.149	42.03
711.333	41.32
711.517	40.81
711.702	41.15
711.886	40.03
712.07	41.1
712.254	41.11
712.438	40.18
712.623	40.6
712.807	39.47
712.991	40.86
713.175	40.56
713.359	40.66
713.544	39.72
713.728	39.57
713.912	40.61
714.096	40.22
714.28	40.29
714.464	39.89
714.648	39.47
714.832	39.75
715.016	39.54
715.2	39.13
715.384	38.63
715.568	39.3
715.752	39.57
715.936	39.38
716.12	39.32
716.304	38.44
716.488	38.8
716.671	38.95
716.855	38.6
717.039	38.74
717.223	39.11
717.407	40.9
717.59	41.61
717.774	41.98
717.958	40.53
718.142	40.71
718.325	42.03
718.509	41.6
718.693	41.16
718.877	42.61
719.06	43.67
719.244	44.22
719.428	43.22
719.611	43.6
719.795	43.54
719.978	45.52
720.162	44.92
720.345	44.97
720.529	46.36
720.713	46.67
720.896	44.95
721.08	44.61
721.263	45.86
721.446	46.83
721.63	47.08
721.813	46.24
721.997	46.82
722.18	47.38
722.364	47.65
722.547	47.48
722.73	48.66
722.914	49.74
723.097	51.71
723.28	51.56
723.464	51.42
723.647	49.83
723.83	50.01
724.013	49.98
724.197	49.32
724.38	48.62
724.563	48.76
724.746	48.52
724.929	48.19
725.112	45.86
725.296	45.12
725.479	44.02
725.662	44.38
725.845	44.13
726.028	44.12
726.211	44.39
726.394	44.53
726.577	43.27
726.76	42.61
726.943	41.83
727.126	41.9
727.309	41.8
727.492	43.05
727.675	42.67
727.858	43.09
728.041	42.06
728.224	41.96
728.407	41.91
728.589	42.85
728.772	41.87
728.955	42.37
729.138	43.38
729.321	43.22
729.503	42.51
729.686	42.77
729.869	42.67
730.052	42.58
730.234	43
730.417	43.24
730.6	42.93
730.782	44
730.965	43.25
731.148	41.84
731.33	41.26
731.513	41.55
731.695	41.4
731.878	41.82
732.061	41.6
732.243	40.32
732.426	40.05
732.608	40.55
732.791	40.8
732.973	41.81
733.156	42.42
733.338	42.97
733.52	42.13
733.703	42.19
733.885	42.33
734.068	42.44
734.25	43.35
734.432	44.76
734.615	43.03
734.797	41.91
734.979	39.44
735.162	39.9
735.344	40.71
735.526	40.64
735.708	42.15
735.891	41.9
736.073	43.1
736.255	44.65
736.437	43.97
736.619	45.41
736.802	46.22
736.984	47.06
737.166	47.07
737.348	47.48
737.53	47.34
737.712	47.36
737.894	47.07
738.076	45.3
738.258	45.75
738.44	45.57
738.622	45.66
738.804	45.17
738.986	46.59
739.168	47.1
739.35	44.94
739.532	44.62
739.714	44.18
739.896	43.37
740.078	44.99
740.259	43.26
740.441	44.47
740.623	43.42
740.805	43.45
740.987	43.21
741.168	41.65
741.35	44.1
741.532	45.64
741.714	44.54
741.895	44.68
742.077	41.62
742.259	41.55
742.44	39.85
742.622	41.55
742.804	42.42
742.985	42.4
743.167	42.82
743.348	43.28
743.53	41.96
743.711	42.71
743.893	43.08
744.075	47.04
744.256	48.43
744.438	49.02
744.619	49.62
744.8	50.52
744.982	52.46
745.163	55.06
745.345	52.17
745.526	53.88
745.707	54.48
745.889	54.36
746.07	54.95
746.252	52.55
746.433	53.78
746.614	52.82
746.795	50.75
746.977	51.36
747.158	51.06
747.339	52.15
747.52	50.8
747.702	50.7
747.883	52.55
748.064	50.81
748.245	52.99
748.426	51.36
748.607	50.55
748.788	54.98
748.97	53.35
749.151	54.17
749.332	53.6
749.513	56.16
749.694	55.65
749.875	56.6
750.056	57.25
750.237	55.07
750.418	58.23
750.599	60
750.78	55.05
750.96	55.46
751.141	52.79
751.322	54.81
751.503	52.3
751.684	53.39
751.865	51.44
752.046	50.82
752.226	50.78
752.407	48.23
752.588	47.96
752.769	50.65
752.949	51.57
753.13	51.6
753.311	50.88
753.492	51.65
753.672	51.16
753.853	51.9
754.034	52.15
754.214	50.29
754.395	52.95
754.575	51.18
754.756	49.4
754.937	50.22
755.117	52.32
755.298	51.27
755.478	52.42
755.659	51.96
755.839	51.9
756.02	52.33
756.2	56.55
756.381	52.94
756.561	53.55
756.741	54.88
756.922	54.1
757.102	54.92
757.283	57.44
757.463	55.61
757.643	58.5
757.823	56.69
758.004	55.92
758.184	54.48
758.364	54.95
758.545	54.41
758.725	55.96
758.905	54.33
759.085	52.92
759.265	50.14
759.446	49.59
759.626	47.38
759.806	47.74
759.986	46.76
760.166	48.19
760.346	49.85
760.526	48.85
760.706	48.46
760.886	48.1
761.066	49.17
761.246	49.96
761.426	50.07
761.606	48.79
761.786	46.69
761.966	48.36
762.146	48.66
762.326	46.45
762.506	45.44
762.686	43.87
762.866	43.85
763.046	42.25
763.225	42.15
763.405	41.51
763.585	41.18
763.765	43.5
763.945	42.4
764.124	42.34
764.304	43.15
764.484	45.45
764.664	46.08
764.843	47.09
765.023	48.06
765.203	45.88
765.382	48.87
765.562	49.59
765.741	47.24
765.921	48.85
766.101	50.5
766.28	49.57
766.46	49.44
766.639	48.58
766.819	46.93
766.998	46.22
767.178	47.94
767.357	44.94
767.537	48
767.716	48.07
767.896	47.55
768.075	42.95
768.254	43.81
768.434	43.91
768.613	46.13
768.792	47.96
768.972	47.48
769.151	50.52
769.33	52
769.51	48.85
769.689	52.69
769.868	52.69
770.047	52.79
770.226	52.05
770.406	48.77
770.585	46.64
770.764	48.77
770.943	49.22
771.122	47.97
771.301	47.58
771.48	48.99
771.66	51.79
771.839	55.65
772.018	59.38
772.197	62
772.376	65.46
772.555	68.6
772.734	65.24
772.913	64.6
773.092	63.29
773.271	64.27
773.449	64.36
773.628	61.73
773.807	59.86
773.986	56.1
774.165	53.73
774.344	55.53
774.523	51.67
774.701	55.42
774.88	57.71
775.059	56.12
775.238	58.23
775.417	59.36
775.595	61.76
775.774	61.78
775.953	66.42
776.131	67.37
776.31	63.06
776.489	65.67
776.667	62.17
776.846	61.13
777.025	62.25
777.203	62.94
777.382	62.11
777.56	59.94
777.739	59.1
777.917	60.09
778.096	60.06
778.274	64.76
778.453	63.73
778.631	66.33
778.81	67.7
778.988	70.25
779.166	68.23
779.345	70.16
779.523	72.66
779.702	73.52
779.88	73.28
780.058	71.69
780.237	70.82
780.415	73.04
780.593	73.48
780.771	74.39
780.95	76.23
781.128	75.9
781.306	73.1
781.484	71.24
781.662	73.42
781.841	70.57
782.019	72.31
782.197	69.3
782.375	65.59
782.553	61.89
782.731	61.65
782.909	61.59
783.087	61.46
783.265	65
783.443	64.91
783.621	63.53
783.799	65.08
783.977	65.98
784.155	69.93
784.333	71.03
784.511	72.85
784.689	74.58
784.867	71.14
785.045	74.26
785.223	71.23
785.4	71.22
785.578	69.83
785.756	63.09
785.934	64.21
786.112	59.63
786.289	56.93
786.467	58.49
786.645	56.3
786.823	58.93
787	57.79
787.178	60.26
787.356	60.08
787.533	60.39
787.711	61.71
787.889	60.27
788.066	59.69
788.244	63.95
788.421	64.99
788.599	66.15
788.776	64.51
788.954	63.73
789.131	60.7
789.309	60.77
789.486	60.85
789.664	65.85
789.841	67.7
790.019	72.77
790.196	69.85
790.373	65.67
790.551	65.4
790.728	66.9
790.906	68.05
791.083	67.65
791.26	63.75
791.437	60.24
791.615	60.46
791.792	55.05
791.969	52.5
792.146	56.71
792.324	57.04
792.501	60.18
792.678	58.74
792.855	55.53
793.032	57.9
793.209	62.97
793.387	62.8
793.564	64.09
793.741	68.57
793.918	68.6
794.095	68.64
794.272	71.38
794.449	68.02
794.626	69.52
794.803	73.01
794.98	69.37
795.157	69.49
795.334	70.74
795.511	64.67
795.688	62.2
795.864	61.32
796.041	60.79
796.218	61.5
796.395	59.34
796.572	61.44
796.749	59.72
796.925	62.1
797.102	57.03
797.279	57.83
797.456	59.45
797.632	61.23
797.809	65.89
797.986	66.79
798.162	63.6
798.339	66.13
798.516	63.4
798.692	66.95
798.869	73.27
799.046	80.13
799.222	76.09
799.399	78.97
799.575	78.76
799.752	73.95
799.928	71.47
800.105	71.52
800.281	72.46
800.458	71.74
800.634	66.91
800.811	63.42
800.987	66.46
801.163	68.23
801.34	68.58
801.516	68.76
801.692	69.06
801.869	71.69
802.045	70.82
802.221	68.97
802.398	68.95
802.574	69.83
802.75	70.19
802.926	68.46
803.103	72.24
803.279	68.49
803.455	69.05
803.631	73.89
803.807	75.38
803.983	81.65
804.16	84.36
804.336	87.09
804.512	90.76
804.688	95.76
804.864	95.37
805.04	94.15
805.216	96.17
805.392	99.84
805.568	95.69
805.744	90.71
805.92	86.81
806.096	89.92
806.272	88.86
806.448	86.62
806.623	85.65
806.799	84.84
806.975	78.68
807.151	79.83
807.327	83.4
807.503	83.02
807.678	85.35
807.854	89.06
808.03	81.89
808.206	83.73
808.381	79.78
808.557	72.6
808.733	75.96
808.908	82.51
809.084	82.11
809.26	77.55
809.435	79.76
809.611	82.86
809.787	77.16
809.962	84.96
810.138	82.48
810.313	94.26
810.489	93.69
810.664	92.38
810.84	84.3
811.015	81.43
811.191	83.27
811.366	84.93
811.542	84.18
811.717	86.38
811.892	78.39
812.068	79.49
812.243	73.1
812.419	73.51
812.594	68.53
812.769	74.63
812.944	80.34
813.12	74.13
813.295	69.77
813.47	67.51
813.645	72.4
813.821	79.42
813.996	85.91
814.171	90.65
814.346	96.09
814.521	99.68
814.697	105.18
814.872	103.22
815.047	109.72
815.222	108.82
815.397	106.12
815.572	105.8
815.747	104.48
815.922	96.05
816.097	87.5
816.272	89.69
816.447	84.45
816.622	76.99
816.797	75.36
816.972	70.87
817.147	70.05
817.322	68.18
817.496	67.96
817.671	66.04
817.846	65.28
818.021	67.82
818.196	62.85
818.371	66.24
818.545	67.66
818.72	69.28
818.895	69.06
819.069	65.14
819.244	67.22
819.419	65.77
819.594	60.47
819.768	60.21
819.943	56.25
820.117	54.53
820.292	52.59
820.467	50.31
820.641	48.26
820.816	46.34
820.99	45.41
821.165	44.19
821.339	42.15
821.514	41
821.688	40.2
821.863	40.57
822.037	40.11
822.212	38.91
822.386	38.79
822.56	38.23
822.735	37.99
822.909	38.48
823.084	37.82
823.258	37.77
823.432	39.23
823.606	38.76
823.781	38.75
823.955	39.8
824.129	40.87
824.303	40.21
824.478	39.51
824.652	39.35
824.826	41.7
825	43.32
825.174	44.23
825.348	44.54
825.523	44.18
825.697	43.21
825.871	41.54
826.045	40.97
826.219	42.91
826.393	44.33
826.567	43.74
826.741	43.08
826.915	40.83
827.089	40.17
827.263	40.14
827.437	43.08
827.611	44.7
827.784	45.66
827.958	47.75
828.132	48.46
828.306	50.73
828.48	54.2
828.654	54.41
828.827	57.58
829.001	57.67
829.175	58.34
829.349	58.26
829.522	60.44
829.696	58.72
829.87	61.28
830.044	65.21
830.217	66.94
830.391	70.2
830.565	71.44
830.738	75.72
830.912	78.75
831.085	82.68
831.259	80.31
831.432	82.48
831.606	94.03
831.779	87.76
831.953	84.34
832.126	76.49
832.3	72.54
832.473	69.04
832.647	70.09
832.82	67.84
832.994	65.58
833.167	64.35
833.34	58.49
833.514	55.22
833.687	57.66
833.86	56.38
834.034	58.9
834.207	56.51
834.38	55.8
834.553	51.78
834.727	54.45
834.9	54.3
835.073	58.51
835.246	61.28
835.419	63.38
835.593	64.93
835.766	64.23
835.939	64.94
836.112	69.86
836.285	71.47
836.458	76.44
836.631	77.81
836.804	79.92
836.977	77.69
837.15	79.26
837.323	76.59
837.496	74.71
837.669	78.06
837.842	78.9
838.015	77.28
838.188	78.37
838.361	78.89
838.533	79.74
838.706	81.07
838.879	88.6
839.052	94.59
839.225	101.63
839.398	92.85
839.57	96.06
839.743	96
839.916	100
840.088	99.78
840.261	101.08
840.434	101.78
840.607	98.1
840.779	94.73
840.952	91.55
841.124	82.23
841.297	99.73
841.47	96.86
841.642	97.91
841.815	103.93
841.987	110.58
842.16	108.4
842.332	118.85
842.505	120.21
842.677	111.6
842.85	126.73
843.022	141.7
843.194	143.68
843.367	147.48
843.539	145.4
843.712	118.91
843.884	117.5
844.056	130.38
844.229	118.83
844.401	134.42
844.573	139.9
844.745	141.57
844.918	150.76
845.09	142.28
845.262	157.48
845.434	160.58
845.606	182.72
845.779	173.71
845.951	174.48
846.123	167.32
846.295	160.14
846.467	169.09
846.639	159.2
846.811	154.9
846.983	152.81
847.155	152.62
847.327	139.61
847.499	143.49
847.671	180.37
847.843	166.63
848.015	236.06
848.187	225.84
848.359	216.12
848.531	225.07
848.703	214.78
848.875	253.9
849.047	237.24
849.218	331.77
849.39	327.2
849.562	273.65
849.734	258.95
849.905	205.86
850.077	236.14
850.249	338.03
850.421	364.34
850.592	331.04
850.764	285.45
850.936	253.7
851.107	273.45
851.279	297.47
851.451	243.55
851.622	233.38
851.794	197.74
851.965	173.13
852.137	153.85
852.308	150.7
852.48	161.93
852.651	158.79
852.823	157.84
852.994	144.08
853.166	136.07
853.337	138.7
853.509	158.85
853.68	206.3
853.851	206.97
854.023	242.59
854.194	219.74
854.365	231.72
854.537	245.02
854.708	348.58
854.879	556.92
855.05	458.99
855.222	364.82
855.393	234.91
855.564	265.26
855.735	237.64
855.906	199.19
856.078	231.07
856.249	274.4
856.42	243.04
856.591	217.38
856.762	211.36
856.933	252.89
857.104	299.57
857.275	302.7
857.446	174.56
857.617	181.87
857.788	181.83
857.959	161.76
858.13	144.13
858.301	169.59
858.472	200
858.643	215.15
858.814	273.4
858.985	256.58
859.155	279.87
859.326	387.81
859.497	383.49
859.668	337.94
859.839	579.63
860.009	397.94
860.18	293.64
860.351	243.43
860.522	231.15
860.692	175.8
860.863	192.29
861.034	177.05
861.204	155.59
861.375	163.06
861.546	157.21
861.716	147.31
861.887	142.67
862.057	167.73
862.228	140.72
862.398	139.33
862.569	144.47
862.739	128.88
862.91	121.47
863.08	156.21
863.251	139.67
863.421	138.92
863.592	149.22
863.762	169.62
863.932	132.62
864.103	139.61
864.273	138.41
864.443	151.26
864.614	138.92
864.784	151.19
864.954	133.91
865.125	163.3
865.295	189.11
865.465	184.48
865.635	222.01
865.805	218.29
865.976	246.14
866.146	253.27
866.316	290.94
866.486	426.96
866.656	302.17
866.826	325.2
866.996	268.6
867.166	251.14
867.336	251.3
867.506	186.55
867.676	187.41
867.846	164.02
868.016	176.2
868.186	167.27
868.356	164.63
868.526	187.68
868.696	191.76
868.866	226.23
869.036	227.08
869.206	203.2
869.376	243.76
869.545	244.55
869.715	279.85
869.885	311.61
870.055	330.33
870.224	345.32
870.394	507.94
870.564	404
870.734	390.4
870.903	343.76
871.073	363.77
871.243	273.74
871.412	295.93
871.582	262.68
871.751	241.3
871.921	252.48
872.091	233.97
872.26	206.98
872.43	156.58
872.599	165.12
872.769	177.89
872.938	181.78
873.108	254.72
873.277	262.84
873.446	293.37
873.616	275.59
873.785	290.58
873.955	388.44
874.124	288.35
874.293	790.26
874.463	856.29
874.632	1109.85
874.801	1281.51
874.971	395.41
875.14	412.41
875.309	288.44
875.478	259.52
875.647	234.27
875.817	183.3
875.986	200.4
876.155	189.47
876.324	195.05
876.493	165.43
876.662	143.18
876.831	154.11
877	138
877.17	169.55
877.339	204.98
877.508	164.53
877.677	184.43
877.846	214.37
878.015	193.32
878.184	167.11
878.352	161.19
878.521	166.87
878.69	175.21
878.859	158.37
879.028	154.42
879.197	135.28
879.366	149.85
879.534	151.92
879.703	132.6
879.872	123
880.041	120.78
880.21	117.23
880.378	113.75
880.547	101.2
880.716	104.03
880.884	93.44
881.053	87
881.222	82.18
881.39	75.01
881.559	70.9
881.727	64.34
881.896	64.55
882.065	62.65
882.233	60.99
882.402	60.3
882.57	58.08
882.739	56.12
882.907	58.97
883.076	60.71
883.244	63.36
883.412	63.86
883.581	64.89
883.749	63.52
883.918	66.54
884.086	67.61
884.254	71.34
884.423	74.61
884.591	80.38
884.759	80.46
884.927	79.04
885.096	75.92
885.264	80.15
885.432	90.35
885.6	92
885.769	97.33
885.937	102.9
886.105	93
886.273	88.87
886.441	90.08
886.609	93.87
886.777	95.87
886.945	113.12
887.113	113.65
887.281	117.36
887.449	132.77
887.617	129.3
887.785	143.02
887.953	169.58
888.121	173.91
888.289	191.56
888.457	236.88
888.625	311.25
888.793	211.62
888.961	229.66
889.129	187.62
889.296	186.58
889.464	202.79
889.632	176.17
889.8	180.39
889.967	198.31
890.135	197.79
