Data from JASIL_3206_Reflection_01.txt Node
Date: Fri Nov 13 14:23:07 EST 2015
User: Geneva
Spectrometer: USB4E03002
Autoset integration time: false
Trigger mode: 4
Integration Time (sec): 1.000000E-1
Scans to average: 10
Electric dark correction enabled: false
Nonlinearity correction enabled: false
Boxcar width: 5
Stray light correction enabled: false
XAxis mode: Wavelengths
Stop averaging: false
Number of Pixels in Spectrum: 3648
>>>>>Begin Spectral Data<<<<<
177.575	106.58
177.794	109.38
178.014	123.37
178.233	126.54
178.452	127.57
178.672	135.86
178.891	140.78
179.11	154.44
179.33	146.31
179.549	158.99
179.768	171.79
179.987	164.64
180.207	171.36
180.426	171.55
180.645	188.02
180.864	184.54
181.084	188.56
181.303	188.58
181.522	181.42
181.741	201.85
181.96	187.26
182.179	171.79
182.398	187.92
182.618	181.97
182.837	164.62
183.056	158.72
183.275	161.69
183.494	158.28
183.713	162.42
183.932	156.61
184.151	155.61
184.37	149.97
184.589	150.58
184.808	155.35
185.027	165.29
185.246	182.34
185.465	186.71
185.684	186.85
185.903	176.22
186.122	171.19
186.341	172.43
186.56	173.87
186.779	171.23
186.998	172.45
187.216	160.42
187.435	142.07
187.654	145.36
187.873	138.64
188.092	138.3
188.311	132.45
188.53	132.13
188.748	126.66
188.967	121.49
189.186	122.61
189.405	118.89
189.623	114.58
189.842	129.71
190.061	120.26
190.28	122.25
190.498	128.35
190.717	133.23
190.936	122.11
191.154	131.68
191.373	135.41
191.592	138.22
191.81	136.59
192.029	137.45
192.248	135.91
192.466	140.26
192.685	139.69
192.904	137.19
193.122	141.07
193.341	150.52
193.559	143.44
193.778	145.2
193.996	138.9
194.215	137.33
194.433	141.97
194.652	139.42
194.87	143.09
195.089	142.51
195.307	137.06
195.526	153.75
195.744	158.11
195.963	159.04
196.181	151.21
196.399	161.65
196.618	164.64
196.836	162.34
197.055	162.97
197.273	155.74
197.491	162.41
197.71	175.56
197.928	164.95
198.146	166.67
198.365	174.01
198.583	181.22
198.801	169.93
199.019	173.88
199.238	189.62
199.456	191.09
199.674	187.85
199.892	180.74
200.111	168.06
200.329	167.91
200.547	164.14
200.765	160.2
200.983	150.11
201.202	145.43
201.42	140.95
201.638	123.38
201.856	122.71
202.074	129.88
202.292	123.97
202.51	119.28
202.728	118.16
202.946	123.07
203.165	121.85
203.383	126.68
203.601	130.95
203.819	137.42
204.037	142.94
204.255	139.1
204.473	134.27
204.691	144.41
204.909	165.68
205.127	164.27
205.345	177.89
205.562	174.89
205.78	159.65
205.998	150.64
206.216	134.52
206.434	140.15
206.652	138.55
206.87	142.87
207.088	142.55
207.306	130.12
207.523	130.6
207.741	124.41
207.959	127.2
208.177	130.49
208.395	135.76
208.612	146.59
208.83	121.78
209.048	119.56
209.266	121.33
209.483	123.33
209.701	126.47
209.919	114.71
210.136	119.48
210.354	124.6
210.572	129.04
210.79	132.65
211.007	126.04
211.225	144.65
211.442	144.11
211.66	136.89
211.878	138.19
212.095	78
212.313	84.25
212.53	82.97
212.748	78.6
212.966	77.38
213.183	80.4
213.401	76.74
213.618	82.33
213.836	84.31
214.053	85.16
214.271	82.44
214.488	149.46
214.705	157.09
214.923	156.54
215.14	149.18
215.358	152.96
215.575	135.05
215.793	150.63
216.01	152.34
216.227	147.25
216.445	135.29
216.662	123.7
216.879	110.75
217.097	109.74
217.314	116.87
217.531	133.5
217.749	144.56
217.966	156.12
218.183	160.28
218.4	156.99
218.618	163.19
218.835	203.64
219.052	202.53
219.269	211.43
219.487	200.55
219.704	189.53
219.921	193.14
220.138	187.87
220.355	181.07
220.572	159.68
220.79	145.65
221.007	144.43
221.224	129.77
221.441	134.98
221.658	140
221.875	138.66
222.092	122
222.309	117.97
222.526	114.78
222.743	116.36
222.96	117.8
223.177	119.11
223.394	117.67
223.611	124.8
223.828	128.05
224.045	120.59
224.262	115.6
224.479	126.17
224.696	130.7
224.913	131.61
225.13	127.44
225.347	133.33
225.564	133.78
225.781	134.48
225.997	126.68
226.214	121
226.431	120.27
226.648	129.54
226.865	124.26
227.082	113.53
227.298	110.4
227.515	110.09
227.732	103.3
227.949	100
228.165	104.23
228.382	97.39
228.599	104.46
228.816	110.79
229.032	103.5
229.249	106.45
229.466	107.64
229.682	101.48
229.899	104.82
230.116	115.53
230.332	118.12
230.549	105.55
230.765	121.07
230.982	104.9
231.199	99.43
231.415	103.82
231.632	111.7
231.848	113.66
232.065	120.06
232.281	121.06
232.498	118.46
232.714	113.58
232.931	122.67
233.147	113.49
233.364	118.72
233.58	125.19
233.797	129.04
234.013	113.09
234.23	109.94
234.446	113.05
234.662	109.14
234.879	99.3
235.095	104.34
235.312	96.93
235.528	99.47
235.744	97.45
235.961	92.29
236.177	87.84
236.393	95.74
236.61	100.96
236.826	96.81
237.042	99.68
237.258	101.49
237.475	102.95
237.691	108.39
237.907	109.45
238.123	116.09
238.339	110.83
238.556	109.24
238.772	102
238.988	105.52
239.204	112.68
239.42	110.26
239.636	104.13
239.853	96.64
240.069	93.37
240.285	91.87
240.501	87.48
240.717	86.66
240.933	86.14
241.149	87.07
241.365	78.11
241.581	72.58
241.797	74.96
242.013	78.79
242.229	80.97
242.445	79.63
242.661	79.97
242.877	81.11
243.093	80
243.309	81.35
243.525	81.54
243.741	83.09
243.957	85.16
244.173	77.33
244.388	74.65
244.604	69.78
244.82	68.11
245.036	62.62
245.252	60.59
245.468	58.05
245.683	53.67
245.899	48.84
246.115	48.04
246.331	44.16
246.547	44.88
246.762	46.55
246.978	48.64
247.194	49.17
247.409	52.77
247.625	51.57
247.841	51.58
248.057	54.79
248.272	58.28
248.488	58.59
248.703	60.82
248.919	62.72
249.135	63.59
249.35	65.2
249.566	67.51
249.782	67.86
249.997	69.8
250.213	68.89
250.428	66.4
250.644	66.13
250.859	65.83
251.075	63.93
251.29	65
251.506	60.6
251.721	60.66
251.937	61.27
252.152	59.61
252.368	59.76
252.583	62.7
252.798	66.66
253.014	68.02
253.229	67.06
253.445	71.31
253.66	72.79
253.875	77.61
254.091	79.05
254.306	76.3
254.521	78.42
254.737	79.92
254.952	82.79
255.167	79.32
255.383	82.42
255.598	82.48
255.813	80.05
256.028	76.02
256.244	78.28
256.459	77.18
256.674	75.61
256.889	72.66
257.104	69.76
257.32	66.63
257.535	61.61
257.75	54.47
257.965	55.58
258.18	54.44
258.395	54.63
258.61	50.84
258.826	48.81
259.041	47.48
259.256	44.85
259.471	43.02
259.686	42.1
259.901	44.45
260.116	45.84
260.331	46.25
260.546	47.68
260.761	47.35
260.976	49
261.191	51.21
261.406	53.5
261.621	59.79
261.836	64.55
262.05	65.32
262.265	66.15
262.48	69.17
262.695	69.2
262.91	67.77
263.125	69.07
263.34	74.25
263.555	75.51
263.769	72.69
263.984	70.15
264.199	67.3
264.414	68.4
264.629	69.51
264.843	66.18
265.058	64.47
265.273	63.34
265.488	59.57
265.702	56.55
265.917	54.77
266.132	55.72
266.346	54.43
266.561	55.73
266.776	55.5
266.99	57.18
267.205	57.95
267.42	57.64
267.634	57.96
267.849	58.26
268.063	56.51
268.278	55.45
268.492	55.11
268.707	58.34
268.922	58.53
269.136	60.09
269.351	54.67
269.565	52.06
269.78	51.71
269.994	51.06
270.209	50.8
270.423	51.69
270.637	50.07
270.852	49.57
271.066	47.55
271.281	46.09
271.495	43.1
271.709	42.94
271.924	41.88
272.138	42.91
272.353	40.57
272.567	39.63
272.781	38.97
272.996	42.47
273.21	42.71
273.424	41.34
273.638	39.8
273.853	40.88
274.067	41.52
274.281	43.5
274.495	45.26
274.71	48.03
274.924	51.5
275.138	54.87
275.352	54.99
275.566	53.65
275.781	54.04
275.995	56.2
276.209	58.14
276.423	58.96
276.637	59.92
276.851	57.38
277.065	55.21
277.279	53.9
277.493	51.04
277.707	48.82
277.921	49.73
278.135	50.69
278.349	52.66
278.563	52.06
278.777	51.57
278.991	49.53
279.205	49.06
279.419	49.91
279.633	49
279.847	49.65
280.061	50.15
280.275	51.69
280.489	51.41
280.703	49.72
280.917	48.75
281.131	46.2
281.344	48.12
281.558	49.31
281.772	49.99
281.986	51.21
282.2	50.7
282.414	47.17
282.627	45.82
282.841	48.86
283.055	46.93
283.269	44.93
283.482	46.64
283.696	43.37
283.91	43.16
284.123	42.52
284.337	41.26
284.551	39.28
284.764	39.59
284.978	38.96
285.192	37.03
285.405	37.13
285.619	36.83
285.833	36.57
286.046	36.82
286.26	34.84
286.473	34.61
286.687	36.13
286.9	37.23
287.114	37.41
287.327	38.37
287.541	36.79
287.754	37.31
287.968	40.08
288.181	40.7
288.395	40.79
288.608	40.32
288.822	41.62
289.035	40.01
289.248	38.37
289.462	40.26
289.675	39.32
289.889	39.69
290.102	38.61
290.315	38.52
290.529	38.43
290.742	39.09
290.955	42
291.169	42.11
291.382	42.95
291.595	46.83
291.808	46.77
292.022	48.22
292.235	47.98
292.448	50.55
292.661	49.32
292.875	49.35
293.088	50.36
293.301	51.79
293.514	47.28
293.727	46.81
293.94	45.67
294.153	44.96
294.367	43.37
294.58	43.65
294.793	42.8
295.006	42.09
295.219	41.68
295.432	41.48
295.645	39.39
295.858	39.45
296.071	37.7
296.284	35.54
296.497	36.46
296.71	35.52
296.923	36.61
297.136	36.5
297.349	36.63
297.562	37.65
297.775	37.74
297.988	37.47
298.201	39.79
298.414	40.47
298.626	41.9
298.839	41.13
299.052	42.9
299.265	42.87
299.478	43.94
299.691	44.8
299.903	43.64
300.116	43.58
300.329	43.54
300.542	43.33
300.755	45.17
300.967	45.72
301.18	45.97
301.393	47.3
301.605	45.74
301.818	45.81
302.031	46.25
302.243	46.13
302.456	47.57
302.669	48.4
302.881	49.8
303.094	49.05
303.307	49.6
303.519	51.44
303.732	52.68
303.944	53.24
304.157	52.13
304.37	51.55
304.582	54.45
304.795	55.06
305.007	56.52
305.22	54.49
305.432	55.6
305.645	55.45
305.857	52.65
306.069	49.94
306.282	49.24
306.494	49.91
306.707	50.28
306.919	47.6
307.132	44.92
307.344	42.87
307.556	43.7
307.769	41.59
307.981	40.5
308.193	41.96
308.406	40.9
308.618	40.68
308.83	39.77
309.043	40.69
309.255	41.37
309.467	40.28
309.679	39.72
309.892	38.69
310.104	40.52
310.316	42.19
310.528	40.68
310.74	39.88
310.953	40.1
311.165	40.64
311.377	40.15
311.589	39.49
311.801	40.73
312.013	45.29
312.225	46.07
312.437	45.45
312.649	43.65
312.862	44.44
313.074	45.74
313.286	45.6
313.498	46.69
313.71	47.72
313.922	47.66
314.134	49.6
314.346	44.87
314.558	44.12
314.77	43.17
314.982	44.89
315.193	45.01
315.405	45.83
315.617	45.62
315.829	46.02
316.041	43.44
316.253	43.81
316.465	43.15
316.677	45.57
316.888	49.41
317.1	50.38
317.312	47.79
317.524	48.53
317.736	48.21
317.947	51.34
318.159	50.6
318.371	51.14
318.583	51
318.794	51.37
319.006	52.18
319.218	50.28
319.43	52.35
319.641	53.92
319.853	54.24
320.064	55.51
320.276	55.15
320.488	55.18
320.699	52.6
320.911	55.09
321.123	54.81
321.334	51.98
321.546	54.9
321.757	54.57
321.969	54.19
322.18	54.24
322.392	54.06
322.603	51.18
322.815	52.54
323.026	57.72
323.238	55.92
323.449	55.39
323.661	55.82
323.872	52.44
324.083	51.47
324.295	51.71
324.506	51.56
324.718	52.55
324.929	53.12
325.14	52.95
325.352	52.52
325.563	53.61
325.774	53.21
325.986	54.06
326.197	54.1
326.408	53.42
326.62	54.7
326.831	53.97
327.042	54.18
327.253	57.51
327.464	57.19
327.676	55.96
327.887	56.3
328.098	57.48
328.309	57.44
328.52	63.07
328.732	64.75
328.943	66.38
329.154	67.42
329.365	67.23
329.576	67.62
329.787	70.26
329.998	73.87
330.209	73.34
330.42	73.96
330.631	74.06
330.842	71.72
331.053	74.48
331.264	73.12
331.475	73.26
331.686	73.51
331.897	74.66
332.108	74.14
332.319	72.56
332.53	73.31
332.741	74.94
332.952	74.85
333.163	75.26
333.374	74.57
333.585	74.23
333.795	76.71
334.006	77.49
334.217	76.31
334.428	77.49
334.639	78.01
334.849	76.64
335.06	74.15
335.271	75.92
335.482	75.35
335.692	73.53
335.903	75.55
336.114	73.92
336.325	73.93
336.535	72.12
336.746	71.07
336.957	71.31
337.167	74.04
337.378	75.14
337.589	74.06
337.799	74.19
338.01	75.27
338.22	74.4
338.431	75.71
338.642	77.25
338.852	77.44
339.063	79.03
339.273	78.94
339.484	76.73
339.694	76.17
339.905	75.49
340.115	76.48
340.326	77.9
340.536	76.6
340.746	75.51
340.957	72.9
341.167	73.41
341.378	71.05
341.588	72.59
341.799	73.35
342.009	73.04
342.219	74.27
342.43	72.25
342.64	70.16
342.85	71.47
343.061	72.06
343.271	73.63
343.481	74.81
343.691	75.63
343.902	74.29
344.112	73.3
344.322	74.61
344.532	74.39
344.743	75.33
344.953	75.62
345.163	76.89
345.373	75.14
345.583	74.4
345.793	73.7
346.004	74.56
346.214	73.78
346.424	74.51
346.634	74.1
346.844	74.95
347.054	73.39
347.264	74.01
347.474	71.92
347.684	72.93
347.894	70.8
348.104	70.66
348.314	69.83
348.524	70.4
348.734	71.31
348.944	70.03
349.154	68.6
349.364	70.42
349.574	69.86
349.784	71.72
349.994	73
350.204	74.4
350.413	74.86
350.623	72.17
350.833	70.47
351.043	69.46
351.253	69.16
351.463	70.57
351.672	69.73
351.882	69.88
352.092	67.45
352.302	66.7
352.511	66
352.721	64.1
352.931	64.51
353.141	65.49
353.35	65.22
353.56	66.69
353.77	66.36
353.979	64.93
354.189	65.11
354.399	68.16
354.608	68.47
354.818	69.98
355.027	71.38
355.237	72.28
355.447	72.21
355.656	73.66
355.866	72.01
356.075	71.24
356.285	72.67
356.494	72.15
356.704	71.15
356.913	68.84
357.123	67.7
357.332	66.65
357.542	66
357.751	66.43
357.96	65.19
358.17	65.24
358.379	64.56
358.589	63.89
358.798	63.51
359.007	62.04
359.217	62.79
359.426	62.34
359.635	62.17
359.845	62.58
360.054	61.68
360.263	61.23
360.472	62.11
360.682	61.61
360.891	60.97
361.1	61.36
361.309	61.63
361.519	61.75
361.728	62.39
361.937	62.7
362.146	61.95
362.355	61.52
362.564	61.94
362.774	61.27
362.983	61.9
363.192	64
363.401	64.33
363.61	63.39
363.819	64.29
364.028	64.48
364.237	63.94
364.446	64.66
364.655	64.69
364.864	65.24
365.073	65.58
365.282	65.94
365.491	63.87
365.7	62.64
365.909	62.81
366.118	63.06
366.327	62.83
366.536	63.32
366.745	63.76
366.954	64.64
367.162	63.44
367.371	62.49
367.58	63.37
367.789	64.25
367.998	64.26
368.207	64.57
368.415	63.11
368.624	62.16
368.833	61.87
369.042	60.5
369.25	60.81
369.459	61.59
369.668	62.49
369.877	61.18
370.085	60.66
370.294	60.91
370.503	60.7
370.711	60.05
370.92	60.68
371.129	60.45
371.337	60
371.546	57.4
371.754	56.68
371.963	56.1
372.171	56.24
372.38	56.64
372.589	56.52
372.797	56.33
373.006	57.77
373.214	55.87
373.423	55.63
373.631	56.94
373.84	59.49
374.048	59.45
374.256	59.42
374.465	59.62
374.673	58.95
374.882	59.12
375.09	58.62
375.298	57.49
375.507	58.13
375.715	58.81
375.923	58.26
376.132	57.53
376.34	58.13
376.548	56.64
376.757	55.19
376.965	53.89
377.173	53.84
377.381	54.96
377.59	55.05
377.798	55.46
378.006	54.52
378.214	54.83
378.423	55.3
378.631	54.92
378.839	57.25
379.047	58.71
379.255	60.07
379.463	58.62
379.671	58.96
379.879	58.61
380.088	58.11
380.296	60.01
380.504	61.21
380.712	59.98
380.92	59.48
381.128	57.52
381.336	56.84
381.544	57.24
381.752	58.36
381.96	57.76
382.168	59.47
382.376	60.42
382.584	59.18
382.791	59.01
382.999	59.12
383.207	58.12
383.415	59.04
383.623	59.51
383.831	59.32
384.039	59.32
384.247	59.47
384.454	58.52
384.662	57.94
384.87	57.77
385.078	56.91
385.285	57.4
385.493	58.26
385.701	58.67
385.909	58.14
386.116	58.08
386.324	57.79
386.532	58.47
386.739	58.49
386.947	58.89
387.155	58.9
387.362	58.69
387.57	58.26
387.778	56.84
387.985	56.34
388.193	56.56
388.4	55.71
388.608	55.3
388.816	53.4
389.023	52.32
389.231	52.41
389.438	51.79
389.646	51.49
389.853	51.65
390.061	53.16
390.268	52.11
390.475	51.14
390.683	49.99
390.89	49.96
391.098	50.24
391.305	50.5
391.512	50.08
391.72	50.59
391.927	49.9
392.135	49.2
392.342	48.56
392.549	50.37
392.756	50.38
392.964	51.46
393.171	51.71
393.378	51.42
393.586	52.06
393.793	51.2
394	49.71
394.207	49.89
394.414	50.09
394.622	50.01
394.829	48.73
395.036	48.65
395.243	49.04
395.45	48.81
395.657	49
395.864	49.59
396.072	49.69
396.279	50
396.486	49.45
396.693	50.06
396.9	49.58
397.107	49.64
397.314	50.57
397.521	50.36
397.728	49.18
397.935	48.35
398.142	46.32
398.349	46.92
398.556	47.46
398.763	48.95
398.97	47.89
399.177	49.45
399.383	48.28
399.59	48.17
399.797	48.09
400.004	48.94
400.211	49.45
400.418	50.65
400.625	50.8
400.831	51.22
401.038	50.26
401.245	50.88
401.452	50.41
401.658	51.37
401.865	50.66
402.072	50.59
402.279	51.27
402.485	50.33
402.692	49.74
402.899	49.76
403.105	48.16
403.312	48.38
403.519	48.03
403.725	47.79
403.932	48.12
404.138	48.53
404.345	48.71
404.552	48.21
404.758	48.38
404.965	47.61
405.171	47.07
405.378	48.11
405.584	48.08
405.791	47.9
405.997	48
406.204	46.83
406.41	46.73
406.617	46.29
406.823	45.4
407.029	46.09
407.236	46.13
407.442	46
407.649	46.74
407.855	45.15
408.061	44.86
408.268	44.54
408.474	46.11
408.68	45.7
408.887	46.31
409.093	47.17
409.299	46.91
409.505	47.16
409.712	46.94
409.918	45.99
410.124	47.68
410.33	47.77
410.537	47.36
410.743	46.67
410.949	48.07
411.155	47.73
411.361	47.75
411.567	47.44
411.773	47.88
411.98	48.48
412.186	48.45
412.392	48.36
412.598	49.15
412.804	50.13
413.01	49.69
413.216	48.75
413.422	48.46
413.628	47.97
413.834	48.4
414.04	48.27
414.246	47.38
414.452	47.45
414.658	46.21
414.864	44.94
415.07	44.38
415.275	43.93
415.481	43.14
415.687	43.37
415.893	43.16
416.099	43.14
416.305	42.72
416.511	42.3
416.716	41.63
416.922	41.84
417.128	42.07
417.334	41.83
417.539	42.15
417.745	42.27
417.951	41.51
418.157	40.97
418.362	40.41
418.568	40.11
418.774	39.71
418.979	39.81
419.185	39.75
419.391	39.96
419.596	40.09
419.802	39.89
420.008	39.28
420.213	38.67
420.419	39.26
420.624	39.32
420.83	39.47
421.035	39.54
421.241	39.6
421.446	38.96
421.652	38.42
421.857	37.49
422.063	37.25
422.268	37.79
422.474	38.41
422.679	38.36
422.885	38.81
423.09	38.47
423.295	38.7
423.501	38.54
423.706	39.01
423.911	38.58
424.117	38.69
424.322	38.87
424.527	38.92
424.733	39.02
424.938	38.65
425.143	38.25
425.349	38.64
425.554	38.43
425.759	38.63
425.964	38.7
426.169	39.03
426.375	39.96
426.58	40.34
426.785	40.28
426.99	40.59
427.195	40.6
427.4	40.56
427.605	40.07
427.811	40.93
428.016	40.09
428.221	40.26
428.426	40.27
428.631	39.58
428.836	39.24
429.041	39.24
429.246	39.06
429.451	39.51
429.656	39.41
429.861	40.29
430.066	40.08
430.271	41.76
430.476	42.12
430.681	42.41
430.886	42.32
431.09	41.58
431.295	41.23
431.5	41.34
431.705	41.09
431.91	41.24
432.115	40.9
432.32	40.21
432.524	39.07
432.729	38.9
432.934	38.98
433.139	39.28
433.343	39.38
433.548	39.32
433.753	38.86
433.958	38.32
434.162	37.68
434.367	37.23
434.572	37.84
434.776	37.84
434.981	37.23
435.186	36.99
435.39	36.57
435.595	37.6
435.799	37.35
436.004	37.14
436.209	37.94
436.413	38.17
436.618	38.17
436.822	37.97
437.027	37.53
437.231	37.49
437.436	37.25
437.64	36.96
437.845	36.43
438.049	36.51
438.253	36.94
438.458	36.56
438.662	36.44
438.867	36.27
439.071	36.65
439.275	36.88
439.48	36.92
439.684	37.17
439.888	37.66
440.093	37.4
440.297	37.38
440.501	37.43
440.706	37.26
440.91	37.17
441.114	37.4
441.318	37.22
441.523	37.46
441.727	37.4
441.931	37.52
442.135	37
442.339	37.08
442.543	37.49
442.748	37
442.952	37.05
443.156	37.64
443.36	37.74
443.564	37.37
443.768	37.6
443.972	38.39
444.176	38.05
444.38	38.14
444.584	37.89
444.788	37.18
444.992	37.43
445.196	37.08
445.4	36.68
445.604	36.09
445.808	35.98
446.012	35.86
446.216	35.09
446.42	35.02
446.624	35.12
446.828	35.5
447.032	35.75
447.235	35.57
447.439	35.53
447.643	35.4
447.847	35.47
448.051	35.75
448.254	35.45
448.458	35.51
448.662	35.67
448.866	35.55
449.069	35.23
449.273	34.97
449.477	34.68
449.681	35.17
449.884	35.47
450.088	35.79
450.292	35.37
450.495	35.84
450.699	36.53
450.902	36.88
451.106	36.96
451.31	37.25
451.513	37.26
451.717	37.21
451.92	37.1
452.124	37.15
452.327	37.3
452.531	37.16
452.734	37.13
452.938	36.46
453.141	36.52
453.345	35.9
453.548	35.35
453.752	35.7
453.955	35.86
454.158	36.55
454.362	36.35
454.565	36.54
454.769	36.96
454.972	36.74
455.175	37.39
455.379	37.25
455.582	38.27
455.785	38.24
455.988	38.35
456.192	38.35
456.395	37.1
456.598	37.32
456.801	36.93
457.005	36.65
457.208	36.39
457.411	35.9
457.614	34.88
457.817	34.57
458.021	34.28
458.224	33.83
458.427	33.93
458.63	34.1
458.833	33.84
459.036	34.09
459.239	34.59
459.442	34.7
459.645	34.78
459.848	34.96
460.051	35.07
460.254	35.15
460.457	35.21
460.66	35.32
460.863	35.34
461.066	35.67
461.269	35.57
461.472	35.2
461.675	34.72
461.878	34.32
462.081	34.79
462.284	34.68
462.486	34.68
462.689	34.8
462.892	34.47
463.095	35.49
463.298	35.57
463.5	36.13
463.703	35.74
463.906	36.47
464.109	36.5
464.311	37
464.514	37.32
464.717	37.81
464.92	38.15
465.122	38.1
465.325	37.8
465.528	37.55
465.73	36.75
465.933	37.13
466.135	36.84
466.338	37.23
466.541	36.95
466.743	36.04
466.946	36.34
467.148	35.85
467.351	36.35
467.553	35.74
467.756	35.83
467.958	35.35
468.161	34.93
468.363	34.62
468.566	34.24
468.768	34.15
468.971	35.25
469.173	34.86
469.375	35.19
469.578	34.64
469.78	35.11
469.983	35.63
470.185	36.5
470.387	37.01
470.59	37.5
470.792	37.33
470.994	37.12
471.196	36.88
471.399	37.06
471.601	37.35
471.803	37.16
472.005	36.67
472.208	35.74
472.41	35.55
472.612	35.34
472.814	34.87
473.016	36.24
473.218	36.67
473.421	35.93
473.623	35.87
473.825	36.23
474.027	36.5
474.229	36.64
474.431	37.18
474.633	36.99
474.835	37.27
475.037	37.14
475.239	36.24
475.441	35.63
475.643	35.76
475.845	35.62
476.047	34.92
476.249	35.09
476.451	35.19
476.653	34.75
476.855	34.68
477.057	34.69
477.258	34.94
477.46	34.71
477.662	35.03
477.864	35.1
478.066	35.09
478.268	35.13
478.469	34.88
478.671	34.78
478.873	34.74
479.075	34.98
479.276	35.04
479.478	34.99
479.68	34.64
479.882	34.61
480.083	34.39
480.285	34.14
480.487	33.84
480.688	33.68
480.89	33.54
481.091	33.24
481.293	32.86
481.495	32.19
481.696	31.94
481.898	31.78
482.099	31.37
482.301	31.13
482.502	31.05
482.704	30.95
482.905	30.75
483.107	30.51
483.308	30.49
483.51	30.41
483.711	30.46
483.913	30.31
484.114	30.24
484.315	30.27
484.517	30.4
484.718	30.42
484.92	30.28
485.121	30.46
485.322	30.56
485.524	30.69
485.725	30.61
485.926	30.59
486.127	30.77
486.329	30.94
486.53	30.99
486.731	31.01
486.932	30.85
487.134	30.82
487.335	30.69
487.536	30.69
487.737	30.72
487.938	30.87
488.139	31.11
488.341	31.17
488.542	31.3
488.743	31.38
488.944	31.44
489.145	31.55
489.346	31.67
489.547	31.79
489.748	31.85
489.949	32.19
490.15	32.2
490.351	31.85
490.552	31.88
490.753	31.81
490.954	31.67
491.155	31.56
491.356	31.63
491.557	31.89
491.758	32.12
491.959	32.04
492.159	31.62
492.36	31.77
492.561	31.95
492.762	32.24
492.963	32.4
493.164	32.84
493.364	33.21
493.565	33.13
493.766	33.6
493.967	33.54
494.167	33.96
494.368	34.4
494.569	34.34
494.769	34.65
494.97	34.45
495.171	34.57
495.371	34.38
495.572	33.85
495.773	33.73
495.973	33.43
496.174	33.21
496.375	33.2
496.575	33.21
496.776	33.26
496.976	32.98
497.177	32.66
497.377	32.51
497.578	32.67
497.778	32.86
497.979	33.29
498.179	33.13
498.38	33.34
498.58	33.51
498.78	33.49
498.981	33.47
499.181	33.71
499.382	34.11
499.582	34.37
499.782	34.57
499.983	34.79
500.183	34.71
500.383	34.86
500.584	34.85
500.784	34.59
500.984	34.45
501.184	34.87
501.385	34.94
501.585	34.82
501.785	34.7
501.985	34.54
502.185	34.27
502.386	34.51
502.586	34.13
502.786	34
502.986	34.02
503.186	33.74
503.386	33.28
503.586	32.54
503.786	32.56
503.987	32.03
504.187	31.79
504.387	32.36
504.587	32.29
504.787	32.71
504.987	33.2
505.187	33.54
505.387	33.86
505.587	34.42
505.786	34.75
505.986	34.65
506.186	34.71
506.386	34.94
506.586	34.64
506.786	34.68
506.986	34.68
507.186	34.29
507.386	34.43
507.585	34.4
507.785	34.23
507.985	34.71
508.185	34.99
508.384	35.27
508.584	34.87
508.784	34.76
508.984	34.95
509.183	34.5
509.383	34.48
509.583	34.55
509.782	34.72
509.982	34.47
510.182	34.29
510.381	34.09
510.581	34.25
510.781	34.56
510.98	34.9
511.18	34.72
511.379	35.09
511.579	34.88
511.778	34.47
511.978	34.46
512.177	34.33
512.377	34.15
512.576	34.1
512.776	33.81
512.975	33.77
513.175	33.73
513.374	34.09
513.573	34.53
513.773	34.98
513.972	35.33
514.172	35.19
514.371	35.57
514.57	36.02
514.77	36.42
514.969	36.73
515.168	36.98
515.367	36.84
515.567	36.21
515.766	35.36
515.965	35.55
516.164	35.59
516.364	35.63
516.563	35.68
516.762	35.43
516.961	35.4
517.16	35.18
517.359	35.06
517.559	35.39
517.758	35.45
517.957	35.76
518.156	35.59
518.355	35.14
518.554	35.23
518.753	34.93
518.952	34.91
519.151	35.07
519.35	35.34
519.549	35.61
519.748	35.53
519.947	35.7
520.146	35.7
520.345	35.74
520.544	36.11
520.743	36.43
520.942	36.91
521.141	36.7
521.339	36.64
521.538	36.64
521.737	36.45
521.936	36.6
522.135	36.75
522.333	36.96
522.532	36.92
522.731	36.76
522.93	36.54
523.129	36.23
523.327	36.63
523.526	36.51
523.725	36.68
523.923	36.34
524.122	36.21
524.321	36.13
524.519	36.42
524.718	36.57
524.917	36.69
525.115	36.65
525.314	36.64
525.512	36.71
525.711	36.75
525.909	36.54
526.108	36.5
526.306	36.63
526.505	36.59
526.703	36.23
526.902	36.07
527.1	35.84
527.299	35.78
527.497	35.82
527.696	35.53
527.894	35.45
528.092	35.5
528.291	35.76
528.489	35.73
528.688	35.81
528.886	36.02
529.084	36.31
529.283	36.74
529.481	37.1
529.679	37.5
529.877	38.18
530.076	38.24
530.274	38.33
530.472	38.32
530.67	38.31
530.869	38.16
531.067	38.19
531.265	38.08
531.463	37.93
531.661	37.46
531.859	37.15
532.057	36.95
532.255	37.37
532.454	37.64
532.652	37.91
532.85	38.24
533.048	38.44
533.246	38.58
533.444	38.79
533.642	38.89
533.84	39.5
534.038	39.71
534.236	39.93
534.434	40.13
534.632	40.35
534.83	40.34
535.027	40.03
535.225	40.59
535.423	40.63
535.621	40.43
535.819	40.17
536.017	40.12
536.215	40.5
536.412	40.54
536.61	40.66
536.808	40.76
537.006	41.17
537.203	41.83
537.401	41.37
537.599	41.81
537.797	42.33
537.994	43.36
538.192	43.91
538.39	43.84
538.587	43.72
538.785	43.9
538.983	44.23
539.18	44.17
539.378	43.73
539.575	44.11
539.773	43.61
539.97	43.52
540.168	43.35
540.366	42.9
540.563	42.81
540.761	42.93
540.958	43.04
541.155	42.85
541.353	42.79
541.55	43
541.748	43.07
541.945	43.13
542.143	43.13
542.34	43.27
542.537	43.4
542.735	43.58
542.932	43.97
543.129	44.12
543.327	44.39
543.524	44.83
543.721	45.07
543.919	45.23
544.116	45.46
544.313	45.84
544.51	45.72
544.708	46.15
544.905	46.38
545.102	46.39
545.299	45.98
545.496	45.98
545.693	45.75
545.891	45.76
546.088	45.79
546.285	46.02
546.482	46.13
546.679	46.75
546.876	46.96
547.073	46.94
547.27	46.85
547.467	47.44
547.664	47.41
547.861	47.66
548.058	47.83
548.255	48.07
548.452	48.48
548.649	49.32
548.846	49.73
549.043	49.4
549.24	49.35
549.437	49.7
549.633	49.58
549.83	50.3
550.027	50.34
550.224	50.56
550.421	50.66
550.618	51.28
550.814	50.4
551.011	49.59
551.208	50.27
551.405	50.91
551.601	50.89
551.798	50.86
551.995	50.29
552.191	50.33
552.388	50
552.585	50.19
552.781	49.72
552.978	50.06
553.175	50.69
553.371	50.73
553.568	50.55
553.764	50.89
553.961	51.18
554.157	51.82
554.354	52.11
554.55	52.27
554.747	52.65
554.943	53.51
555.14	53.87
555.336	53.75
555.533	53.75
555.729	54.13
555.926	53.94
556.122	53.88
556.318	53.61
556.515	53.46
556.711	53.54
556.907	53.72
557.104	53.23
557.3	52.98
557.496	53.04
557.693	52.99
557.889	52.97
558.085	52.95
558.281	53.25
558.478	53.66
558.674	54
558.87	54.36
559.066	53.33
559.262	53.41
559.459	53.39
559.655	53.43
559.851	53.59
560.047	53.79
560.243	53.8
560.439	54.24
560.635	54.67
560.831	54.41
561.027	54.4
561.223	54.99
561.419	55.26
561.615	55.14
561.811	55.4
562.007	55.73
562.203	56.11
562.399	56.26
562.595	56.98
562.791	56.17
562.987	56.09
563.183	55.71
563.379	55.72
563.575	55.59
563.771	56.16
563.966	55.91
564.162	55.72
564.358	55.9
564.554	56.15
564.75	54.24
564.945	54.8
565.141	55.55
565.337	55.9
565.533	56.27
565.728	56.17
565.924	55.48
566.12	55.53
566.315	55.57
566.511	55.43
566.707	55.64
566.902	56.39
567.098	56.7
567.293	56.66
567.489	56.56
567.684	56.93
567.88	57.08
568.076	57.33
568.271	57.57
568.467	57.21
568.662	57.12
568.858	56.84
569.053	57.11
569.248	57.04
569.444	55.94
569.639	56.65
569.835	55.94
570.03	56.15
570.225	56.96
570.421	56.88
570.616	57.45
570.812	57.43
571.007	57.5
571.202	57.14
571.397	56.93
571.593	57.12
571.788	56.73
571.983	56.96
572.178	57.43
572.374	56.8
572.569	56.69
572.764	57.04
572.959	56.78
573.154	56.78
573.35	56.86
573.545	57.08
573.74	57.69
573.935	57.97
574.13	57.68
574.325	56.75
574.52	57.08
574.715	57.11
574.91	55.94
575.105	56.17
575.3	56.66
575.495	56.61
575.69	57.03
575.885	57.2
576.08	56.98
576.275	57.7
576.47	58.05
576.665	58.14
576.86	58.67
577.055	58.92
577.25	59.16
577.444	59.27
577.639	60.08
577.834	59.99
578.029	60.1
578.224	60.48
578.418	60.37
578.613	59.36
578.808	59.14
579.003	58.96
579.197	59.58
579.392	59.52
579.587	59.06
579.781	59.17
579.976	59.49
580.171	59.36
580.365	59.67
580.56	59.38
580.755	61.09
580.949	61.39
581.144	61.16
581.338	61.4
581.533	61.44
581.727	61.22
581.922	60.95
582.116	60.5
582.311	60.72
582.505	60.11
582.7	59.7
582.894	59.11
583.089	58.61
583.283	59.26
583.478	59.21
583.672	58.97
583.866	59.66
584.061	59.68
584.255	59.57
584.449	59.88
584.644	60.07
584.838	60.93
585.032	60.89
585.226	61.33
585.421	60.45
585.615	60.03
585.809	60.59
586.003	60.2
586.198	60.01
586.392	59.93
586.586	60.05
586.78	59.99
586.974	59.48
587.168	60.2
587.363	60.21
587.557	60.78
587.751	60.55
587.945	60.46
588.139	60.66
588.333	60.42
588.527	60.61
588.721	59.45
588.915	59.65
589.109	59.71
589.303	59.22
589.497	59.27
589.691	59.07
589.885	60.05
590.079	60.11
590.273	59.75
590.466	60.79
590.66	60.23
590.854	61.37
591.048	61.45
591.242	61.44
591.436	61.89
591.629	62.27
591.823	62.81
592.017	62.21
592.211	62.05
592.404	62.53
592.598	61.78
592.792	61.77
592.986	61.71
593.179	61.74
593.373	61.92
593.567	61.98
593.76	61.67
593.954	60.88
594.147	61.21
594.341	61.31
594.535	60.86
594.728	60.65
594.922	60.95
595.115	60.08
595.309	59.88
595.502	59.59
595.696	59.18
595.889	59.02
596.083	59.19
596.276	58.82
596.47	58.5
596.663	58.54
596.856	58.49
597.05	58.29
597.243	58.47
597.437	58.24
597.63	58.42
597.823	58.31
598.017	57.95
598.21	58.35
598.403	59.15
598.596	59.41
598.79	59.76
598.983	59.71
599.176	59.66
599.369	60.56
599.563	61.37
599.756	61.82
599.949	61.91
600.142	63.06
600.335	62.6
600.528	62.15
600.722	62.26
600.915	62.22
601.108	62.41
601.301	63.06
601.494	62.66
601.687	61.82
601.88	61.17
602.073	61.43
602.266	61.33
602.459	61.58
602.652	60.96
602.845	60.25
603.038	60.66
603.231	61.25
603.424	60.97
603.617	60.6
603.809	60.64
604.002	60.75
604.195	59.98
604.388	59.53
604.581	59.91
604.774	60.96
604.966	61.33
605.159	60.89
605.352	60.46
605.545	60.8
605.737	61.3
605.93	61.62
606.123	61.77
606.316	63.13
606.508	63.61
606.701	63.04
606.894	62.27
607.086	62.41
607.279	63.03
607.471	63.37
607.664	62.66
607.857	62.21
608.049	61.95
608.242	61.59
608.434	60.33
608.627	59.54
608.819	59.61
609.012	59.25
609.204	59.76
609.397	58.9
609.589	58.68
609.782	58.99
609.974	59.18
610.166	59.69
610.359	60.35
610.551	60.28
610.743	60.98
610.936	61.64
611.128	62.55
611.32	62.37
611.513	62.5
611.705	62.87
611.897	63.09
612.09	63.22
612.282	62.99
612.474	63.49
612.666	64.56
612.858	64.37
613.051	62.96
613.243	62.64
613.435	63.69
613.627	63.98
613.819	63.82
614.011	63.87
614.203	64.02
614.395	63.76
614.588	62.84
614.78	62.94
614.972	63.17
615.164	64.18
615.356	64.32
615.548	63.58
615.74	64.12
615.932	63.48
616.124	63.08
616.315	62.53
616.507	63.23
616.699	63.41
616.891	63.72
617.083	63.91
617.275	63.52
617.467	63.66
617.659	63.64
617.85	63.63
618.042	64.01
618.234	64.52
618.426	64.57
618.618	64.76
618.809	64.08
619.001	63.74
619.193	63.48
619.384	63.31
619.576	62.63
619.768	61.86
619.959	62.06
620.151	61.9
620.343	62.17
620.534	62.81
620.726	62.28
620.917	63.53
621.109	63.53
621.301	63.63
621.492	63.78
621.684	65.19
621.875	65.85
622.067	64.74
622.258	64.79
622.45	63.57
622.641	63.73
622.832	63.41
623.024	63.36
623.215	62.72
623.407	62.9
623.598	63.98
623.789	62.18
623.981	61.8
624.172	62.74
624.363	62.58
624.555	62.75
624.746	62.54
624.937	62.59
625.129	62.68
625.32	63.15
625.511	63.49
625.702	62.29
625.893	62.77
626.085	63.24
626.276	62.94
626.467	62.41
626.658	62.85
626.849	63.04
627.04	63.61
627.231	63.67
627.422	63.81
627.614	63.87
627.805	64.11
627.996	64.86
628.187	63.87
628.378	63.83
628.569	64.57
628.76	65.11
628.951	64.74
629.142	63.95
629.332	64.12
629.523	63.96
629.714	64.43
629.905	64.83
630.096	63.89
630.287	63.98
630.478	64.24
630.669	64.72
630.859	64.29
631.05	64.29
631.241	64.51
631.432	63.84
631.623	63.85
631.813	62
632.004	62.55
632.195	62.66
632.385	63.13
632.576	62.1
632.767	61.4
632.957	60.9
633.148	61.38
633.339	62.21
633.529	61.96
633.72	61.68
633.91	62.11
634.101	61.78
634.292	62.42
634.482	63
634.673	64.44
634.863	64.78
635.054	65.61
635.244	65.23
635.435	64.44
635.625	64.56
635.815	64.21
636.006	64.1
636.196	64.24
636.387	63.39
636.577	62.12
636.767	63.26
636.958	63.61
637.148	62.83
637.338	61.75
637.529	62.1
637.719	62.36
637.909	63.37
638.099	63.89
638.29	63.82
638.48	63.69
638.67	64.17
638.86	61.79
639.05	60.69
639.241	61.03
639.431	62.67
639.621	63.67
639.811	64.39
640.001	64.23
640.191	63.66
640.381	63.18
640.571	63.95
640.761	64.78
640.951	65.32
641.141	65.85
641.331	66.91
641.521	66.77
641.711	66.16
641.901	65.73
642.091	67.31
642.281	67.56
642.471	67.17
642.661	67.41
642.851	67.02
643.041	66.43
643.231	66.53
643.42	65.34
643.61	64.59
643.8	63.61
643.99	64.36
644.18	63.26
644.369	64.19
644.559	65.38
644.749	64.91
644.939	64.77
645.128	65.66
645.318	66.01
645.508	67.02
645.697	66.38
645.887	67.1
646.076	65.24
646.266	65.39
646.456	64.89
646.645	64.75
646.835	64.69
647.024	64.28
647.214	64.27
647.403	64.19
647.593	63.57
647.782	64.63
647.972	64.57
648.161	65.46
648.351	64.88
648.54	64.35
648.73	64.47
648.919	63.91
649.108	63.71
649.298	64.12
649.487	64.36
649.677	63.57
649.866	63.04
650.055	62.74
650.244	62.86
650.434	62.22
650.623	63.09
650.812	63.52
651.002	64.07
651.191	64.58
651.38	65.35
651.569	64.99
651.758	65.14
651.947	65.11
652.137	65.3
652.326	65.5
652.515	66.57
652.704	65.97
652.893	65.43
653.082	65.7
653.271	66.58
653.46	65.19
653.649	66.04
653.838	66.48
654.027	68.14
654.216	69.43
654.405	68.92
654.594	69.1
654.783	69.38
654.972	68.39
655.161	68.97
655.35	68.39
655.539	68.6
655.728	67.94
655.916	67.72
656.105	66.76
656.294	65.32
656.483	65.27
656.672	64.29
656.86	63.85
657.049	64.75
657.238	63.5
657.427	64.12
657.615	64.51
657.804	63.51
657.993	63.35
658.181	63.6
658.37	63.17
658.559	63.21
658.747	64.13
658.936	64.21
659.125	61.99
659.313	61.92
659.502	60.98
659.69	60.23
659.879	61.42
660.067	61.33
660.256	60.61
660.444	61.65
660.633	61.91
660.821	61.58
661.01	62.19
661.198	63.84
661.387	64.76
661.575	65.19
661.763	65.63
661.952	65
662.14	65.51
662.328	66.17
662.517	65.18
662.705	65.21
662.893	64.95
663.082	64.25
663.27	65.45
663.458	65.66
663.646	65.16
663.834	65.78
664.023	67.04
664.211	67.6
664.399	66.97
664.587	67.01
664.775	66.97
664.963	67.95
665.152	67.76
665.34	66.99
665.528	67.86
665.716	69.74
665.904	70.25
666.092	69.76
666.28	70.59
666.468	71.2
666.656	71.68
666.844	71.61
667.032	71.71
667.22	72.13
667.408	73.15
667.596	71.81
667.784	70.46
667.971	70.16
668.159	69.58
668.347	68.99
668.535	68.64
668.723	70.22
668.911	70.69
669.098	70.43
669.286	70.13
669.474	68.18
669.662	69.29
669.849	69.43
670.037	69.38
670.225	69.41
670.413	69.46
670.6	70.53
670.788	68.69
670.976	68.05
671.163	67.53
671.351	68.16
671.538	69.75
671.726	68.8
671.913	68.32
672.101	67.91
672.289	67.51
672.476	67.74
672.664	66.72
672.851	67.23
673.039	67.06
673.226	68.05
673.413	67.53
673.601	66.87
673.788	66.73
673.976	66.52
674.163	66.27
674.35	67.09
674.538	65.9
674.725	66.26
674.912	66.22
675.1	67.53
675.287	67.09
675.474	67.72
675.662	67.73
675.849	68.66
676.036	69.07
676.223	69.24
676.411	69
676.598	69.76
676.785	70.26
676.972	70.37
677.159	69.67
677.346	68.36
677.533	67.9
677.721	67.12
677.908	66.9
678.095	67.13
678.282	67.51
678.469	66.66
678.656	66.11
678.843	65.69
679.03	64.75
679.217	64.59
679.404	65.78
679.591	65.82
679.778	67.19
679.964	66.33
680.151	67.48
680.338	66.98
680.525	67.28
680.712	66.74
680.899	67.23
681.086	66.91
681.272	67
681.459	67.2
681.646	67.52
681.833	67.1
682.02	67.84
682.206	66.92
682.393	66.98
682.58	67.05
682.766	68.9
682.953	68.34
683.14	70.87
683.326	70.02
683.513	69.38
683.7	69.61
683.886	69.66
684.073	70.32
684.259	69.85
684.446	71.1
684.632	71.49
684.819	70.82
685.005	70.13
685.192	69.24
685.378	70.61
685.565	70.15
685.751	70.59
685.938	69.93
686.124	68.02
686.31	68.6
686.497	66.76
686.683	66.4
686.87	66.39
687.056	66.79
687.242	66.75
687.429	66.08
687.615	65.99
687.801	64.77
687.987	64.81
688.174	65.66
688.36	65.22
688.546	66.17
688.732	66.52
688.918	66.38
689.105	66.88
689.291	66.48
689.477	67.47
689.663	67.46
689.849	68.39
690.035	69.17
690.221	69.54
690.407	69.81
690.593	70.41
690.779	71.48
690.965	70.4
691.151	70.42
691.337	70.51
691.523	69.84
691.709	71.23
691.895	70.54
692.081	69.29
692.267	68.4
692.453	67.29
692.639	66.57
692.825	66.09
693.011	67.67
693.196	68.34
693.382	69.08
693.568	70.09
693.754	69.32
693.94	70.76
694.125	71.93
694.311	72.56
694.497	73.4
694.682	73.68
694.868	73.63
695.054	73.6
695.239	72.16
695.425	71.36
695.611	68.83
695.796	68.19
695.982	67.83
696.168	67.85
696.353	68.03
696.539	68.87
696.724	68.47
696.91	67.45
697.095	67.34
697.281	66.46
697.466	65.31
697.652	65.93
697.837	66.75
698.023	66.25
698.208	65.01
698.393	65.14
698.579	64.25
698.764	63.93
698.949	63.98
699.135	63.63
699.32	64.85
699.505	65.34
699.691	65.6
699.876	64.68
700.061	64.49
700.246	65.23
700.432	65.3
700.617	66.07
700.802	67.15
700.987	68.02
701.172	69.43
701.358	70.78
701.543	71.7
701.728	71.41
701.913	70.78
702.098	72.51
702.283	74.46
702.468	74.22
702.653	73.92
702.838	71.73
703.023	72.96
703.208	72.14
703.393	69.45
703.578	68.95
703.763	71.15
703.948	74.01
704.133	72.43
704.318	71.07
704.503	71.79
704.688	74.29
704.873	76.32
705.057	74.92
705.242	74.12
705.427	76.46
705.612	76.88
705.797	73.87
705.981	74.59
706.166	75.79
706.351	76.56
706.536	77.22
706.72	75.45
706.905	75.22
707.09	75.09
707.274	75.95
707.459	75.26
707.644	76.88
707.828	78.73
708.013	74.21
708.197	73.09
708.382	72.64
708.567	72.74
708.751	72.92
708.936	72.14
709.12	72.05
709.305	70.18
709.489	68.5
709.673	67.08
709.858	67.78
710.042	71.35
710.227	71.49
710.411	71.29
710.596	69.43
710.78	68.19
710.964	69.52
711.149	71.31
711.333	72.12
711.517	73
711.702	72.51
711.886	71.87
712.07	70.17
712.254	70.16
712.438	71.16
712.623	71.42
712.807	72.5
712.991	71.7
713.175	71.28
713.359	72.12
713.544	71.75
713.728	71.06
713.912	70.79
714.096	71.92
714.28	70.27
714.464	68.62
714.648	69.44
714.832	68.18
715.016	67.23
715.2	65.43
715.384	64.75
715.568	65.82
715.752	66.33
715.936	67.43
716.12	66.95
716.304	69.5
716.488	70.76
716.671	70.87
716.855	71.44
717.039	71.41
717.223	72.52
717.407	71.75
717.59	71.55
717.774	72.26
717.958	70.05
718.142	70.88
718.325	69.46
718.509	70.34
718.693	69.8
718.877	71.13
719.06	73.03
719.244	72.34
719.428	75.33
719.611	76.31
719.795	76.56
719.978	76.9
720.162	75.25
720.345	75.84
720.529	75.06
720.713	73.79
720.896	72.89
721.08	72.63
721.263	73.26
721.446	72.34
721.63	71.17
721.813	70.73
721.997	70.3
722.18	71.95
722.364	74.45
722.547	75.06
722.73	78.72
722.914	76.46
723.097	76.47
723.28	75.27
723.464	75.06
723.647	76.1
723.83	75.81
724.013	77.06
724.197	75.68
724.38	75.22
724.563	74.13
724.746	72.71
724.929	74.47
725.112	75.31
725.296	75.5
725.479	75.47
725.662	74.12
725.845	74.4
726.028	73.2
726.211	72.49
726.394	69.36
726.577	69.69
726.76	70.16
726.943	70.43
727.126	70.05
727.309	70.17
727.492	70.09
727.675	69.92
727.858	68.79
728.041	71.9
728.224	72.28
728.407	72.28
728.589	71.99
728.772	71.87
728.955	71.3
729.138	68.91
729.321	68.07
729.503	68.99
729.686	70.01
729.869	70.4
730.052	67.88
730.234	68.14
730.417	69.39
730.6	69.01
730.782	68.28
730.965	69.41
731.148	72.58
731.33	72.98
731.513	71.64
731.695	70.71
731.878	72.87
732.061	72.06
732.243	71.88
732.426	70.8
732.608	71.13
732.791	71.93
732.973	71.69
733.156	68.86
733.338	69.62
733.52	69.61
733.703	70.45
733.885	69.88
734.068	72.03
734.25	72.57
734.432	74.38
734.615	73.98
734.797	74.69
734.979	74.87
735.162	76.83
735.344	77.76
735.526	78.48
735.708	77.75
735.891	77.02
736.073	74.96
736.255	75.87
736.437	74.34
736.619	75.11
736.802	74.74
736.984	73.89
737.166	73.8
737.348	73.29
737.53	73.06
737.712	76
737.894	76.23
738.076	76.76
738.258	77.43
738.44	81.1
738.622	83.14
738.804	81.49
738.986	83.25
739.168	83.84
739.35	85.22
739.532	86.86
739.714	84.31
739.896	84.51
740.078	88.16
740.259	87.38
740.441	84.79
740.623	84.35
740.805	84.38
740.987	83.23
741.168	81.05
741.35	81.61
741.532	80.68
741.714	78.9
741.895	79.57
742.077	76.34
742.259	78
742.44	79.77
742.622	77.26
742.804	79.84
742.985	79.38
743.167	81.39
743.348	79.31
743.53	79.75
743.711	82.7
743.893	83.61
744.075	84.44
744.256	79.67
744.438	80.01
744.619	80.42
744.8	79.63
744.982	78.72
745.163	78.09
745.345	79.07
745.526	79.39
745.707	79.31
745.889	77.01
746.07	79.69
746.252	83.57
746.433	83.66
746.614	83.86
746.795	83.35
746.977	83.05
747.158	83.02
747.339	83.5
747.52	82.12
747.702	82.66
747.883	82.47
748.064	81.33
748.245	80.55
748.426	78.3
748.607	79.66
748.788	78.21
748.97	81.08
749.151	83.25
749.332	83.83
749.513	84.56
749.694	83.95
749.875	88.7
750.056	86.83
750.237	86.11
750.418	86.97
750.599	85.28
750.78	86.9
750.96	84.35
751.141	83.42
751.322	80.95
751.503	81.46
751.684	81.29
751.865	76.49
752.046	77.06
752.226	75.72
752.407	77.57
752.588	79.13
752.769	80.57
752.949	80.31
753.13	78.93
753.311	76.53
753.492	77.33
753.672	77.51
753.853	78.52
754.034	76.88
754.214	77.45
754.395	73.93
754.575	75.74
754.756	75.11
754.937	75.23
755.117	76.31
755.298	76.62
755.478	75.4
755.659	74.36
755.839	75.02
756.02	75.67
756.2	78.09
756.381	79.23
756.561	77.93
756.741	78.43
756.922	79.32
757.102	76.71
757.283	79.94
757.463	80.93
757.643	81.73
757.823	82.87
758.004	81.46
758.184	79.86
758.364	80.1
758.545	79.47
758.725	79.08
758.905	80.69
759.085	83.61
759.265	82
759.446	78.31
759.626	77.48
759.806	76.81
759.986	80.14
760.166	80.7
760.346	80.52
760.526	81.38
760.706	80.49
760.886	78.17
761.066	77.24
761.246	77.7
761.426	79.86
761.606	79.09
761.786	76.99
761.966	75.19
762.146	74.81
762.326	75.12
762.506	72.1
762.686	71.85
762.866	70.09
763.046	70.6
763.225	72.32
763.405	72.92
763.585	75.22
763.765	74.78
763.945	74.53
764.124	73.07
764.304	73.63
764.484	75.67
764.664	76.44
764.843	78.49
765.023	79.35
765.203	78.04
765.382	77.64
765.562	76.1
765.741	79.13
765.921	80.97
766.101	83.28
766.28	82.55
766.46	83.4
766.639	83.34
766.819	84.75
766.998	84.39
767.178	83.72
767.357	83.21
767.537	85.63
767.716	84.15
767.896	82.66
768.075	82.97
768.254	80.92
768.434	80.49
768.613	78.38
768.792	78.66
768.972	78.54
769.151	76.49
769.33	75.44
769.51	74.77
769.689	76.42
769.868	78.32
770.047	78.02
770.226	79.09
770.406	80.28
770.585	86.03
770.764	86.61
770.943	86.85
771.122	90.72
771.301	92.12
771.48	91.11
771.66	93.53
771.839	91.84
772.018	91.61
772.197	95.27
772.376	95.42
772.555	93.22
772.734	91.83
772.913	90.13
773.092	88.54
773.271	89.79
773.449	87.88
773.628	83.68
773.807	82.03
773.986	82.82
774.165	81.39
774.344	81.29
774.523	81.1
774.701	83.1
774.88	85.96
775.059	84.16
775.238	83.16
775.417	83.99
775.595	86.89
775.774	89.5
775.953	86.36
776.131	85.13
776.31	84.78
776.489	83.44
776.667	80.79
776.846	79.45
777.025	78.55
777.203	79.85
777.382	79.4
777.56	77.24
777.739	76.04
777.917	79.37
778.096	79.51
778.274	79.54
778.453	77.67
778.631	80.45
778.81	79.1
778.988	81.48
779.166	82.84
779.345	83.89
779.523	83.57
779.702	84.74
779.88	86.39
780.058	89.5
780.237	93.1
780.415	96.79
780.593	94.93
780.771	93.56
780.95	95.93
781.128	92.73
781.306	94.24
781.484	100.12
781.662	99.02
781.841	93.8
782.019	91.36
782.197	87.12
782.375	86.77
782.553	87.33
782.731	88.31
782.909	85.44
783.087	88.82
783.265	85.91
783.443	78.19
783.621	76.64
783.799	79.8
783.977	80.39
784.155	82.02
784.333	82.07
784.511	81.51
784.689	81.73
784.867	81.12
785.045	79.02
785.223	81.13
785.4	85.13
785.578	88.41
785.756	88.56
785.934	90.04
786.112	93.33
786.289	92.98
786.467	94.16
786.645	95.33
786.823	95.8
787	94.8
787.178	97.44
787.356	97.03
787.533	97.52
787.711	95.34
787.889	92.2
788.066	88.2
788.244	87.13
788.421	88.26
788.599	88.65
788.776	89.32
788.954	88.84
789.131	87.89
789.309	87.85
789.486	88.66
789.664	88.88
789.841	90.97
790.019	88.05
790.196	88.52
790.373	88.96
790.551	87.34
790.728	89.75
790.906	91.95
791.083	83.5
791.26	80.22
791.437	80.13
791.615	82.2
791.792	82.15
791.969	84.87
792.146	86.8
792.324	82.94
792.501	87.4
792.678	84.6
792.855	83.18
793.032	90.78
793.209	91.48
793.387	93.87
793.564	93.98
793.741	90.62
793.918	90.76
794.095	90.66
794.272	93.85
794.449	88.48
794.626	87.88
794.803	85.86
794.98	85.25
795.157	87.38
795.334	85.61
795.511	85.7
795.688	86.43
795.864	86.01
796.041	84.52
796.218	83.76
796.395	87.51
796.572	87.27
796.749	88.91
796.925	89.99
797.102	88.5
797.279	85.24
797.456	81.53
797.632	84.71
797.809	85.66
797.986	84.53
798.162	86.73
798.339	83.71
798.516	85.7
798.692	88.04
798.869	86.71
799.046	86.77
799.222	87.06
799.399	88.91
799.575	88.35
799.752	88.28
799.928	88.62
800.105	87.52
800.281	86.92
800.458	85.33
800.634	82.69
800.811	82.9
800.987	82.07
801.163	85.2
801.34	84.75
801.516	85.59
801.692	82.67
801.869	84.79
802.045	85.34
802.221	92.04
802.398	94.32
802.574	99.58
802.75	100.37
802.926	103.75
803.103	99.63
803.279	102.07
803.455	102.37
803.631	109.4
803.807	110.53
803.983	113.3
804.16	110.26
804.336	112.67
804.512	104.55
804.688	104.69
804.864	101.12
805.04	100.68
805.216	102.59
805.392	99.7
805.568	96.95
805.744	97.36
805.92	97.18
806.096	95.38
806.272	92.47
806.448	99.83
806.623	95.84
806.799	97.73
806.975	98.28
807.151	95.83
807.327	98.89
807.503	96.11
807.678	95.16
807.854	94.93
808.03	94.14
808.206	96.59
808.381	96.22
808.557	96.2
808.733	100.83
808.908	97.64
809.084	94.92
809.26	92.22
809.435	93.03
809.611	94.02
809.787	88.63
809.962	89.13
810.138	90.18
810.313	89.13
810.489	91.74
810.664	87.85
810.84	87.16
811.015	92.46
811.191	92.15
811.366	93.31
811.542	92.88
811.717	93.63
811.892	89.58
812.068	88.29
812.243	86.85
812.419	90.58
812.594	91.57
812.769	93.25
812.944	89.21
813.12	90.03
813.295	93.49
813.47	92.12
813.645	96.05
813.821	105.5
813.996	104.14
814.171	105.45
814.346	101.91
814.521	105.1
814.697	107.7
814.872	106.59
815.047	107.44
815.222	104.15
815.397	106.35
815.572	107.36
815.747	98.36
815.922	95.34
816.097	94.72
816.272	92.69
816.447	89.33
816.622	93.43
816.797	91.04
816.972	93.07
817.147	92.76
817.322	92.64
817.496	92.9
817.671	94.25
817.846	96.51
818.021	97.44
818.196	96.53
818.371	95.95
818.545	92.66
818.72	94.36
818.895	90.22
819.069	89.18
819.244	86.58
819.419	83.75
819.594	83.19
819.768	80.59
819.943	78.42
820.117	76.99
820.292	75.71
820.467	73.7
820.641	73.05
820.816	71.61
820.99	69.38
821.165	67.56
821.339	65.66
821.514	65.12
821.688	63.67
821.863	62.86
822.037	62.5
822.212	62.43
822.386	61.97
822.56	61.27
822.735	61.67
822.909	62.63
823.084	63.87
823.258	65.06
823.432	66.57
823.606	67.64
823.781	69.32
823.955	69.39
824.129	70.92
824.303	72.45
824.478	72.47
824.652	72.45
824.826	70.57
825	70.52
825.174	70.91
825.348	70.11
825.523	72.74
825.697	74.08
825.871	73.46
826.045	71.15
826.219	70.49
826.393	72.87
826.567	72.56
826.741	74.8
826.915	74.05
827.089	74.69
827.263	75.06
827.437	74.91
827.611	73.92
827.784	77.33
827.958	77.4
828.132	78.34
828.306	77.83
828.48	80.41
828.654	81.06
828.827	80.58
829.001	83.01
829.175	85.4
829.349	89.37
829.522	87.06
829.696	88.89
829.87	92.93
830.044	94.17
830.217	96.64
830.391	97.33
830.565	102.06
830.738	107.07
830.912	104.01
831.085	103.62
831.259	101.88
831.432	104.65
831.606	99.34
831.779	94.53
831.953	94.17
832.126	93.34
832.3	91.1
832.473	87.19
832.647	84.51
832.82	81.81
832.994	80.37
833.167	75.6
833.34	74.63
833.514	74.23
833.687	76.41
833.86	74.53
834.034	74.34
834.207	74.87
834.38	74.82
834.553	74.43
834.727	76.07
834.9	78.27
835.073	80.48
835.246	83.07
835.419	85.07
835.593	83.33
835.766	83.23
835.939	84.31
836.112	85.93
836.285	89.73
836.458	89.61
836.631	90.61
836.804	89.19
836.977	94.05
837.15	91.22
837.323	97.74
837.496	112.09
837.669	122.91
837.842	116.89
838.015	120.01
838.188	117.94
838.361	121.06
838.533	119.87
838.706	119.23
838.879	117.15
839.052	118.88
839.225	111.92
839.398	107.76
839.57	106.5
839.743	106.38
839.916	108.07
840.088	105.78
840.261	102.6
840.434	104.47
840.607	102.26
840.779	103.52
840.952	101.09
841.124	104.36
841.297	102.03
841.47	102.49
841.642	107.47
841.815	101.03
841.987	105.6
842.16	108.09
842.332	108.98
842.505	110.58
842.677	114.88
842.85	122.08
843.022	116.04
843.194	119.71
843.367	113.83
843.539	111.18
843.712	114.95
843.884	112.46
844.056	118.97
844.229	117.98
844.401	121.51
844.573	111.01
844.745	108.88
844.918	110.63
845.09	101.36
845.262	105.26
845.434	107.32
845.606	104.75
845.779	105.01
845.951	99.86
846.123	101.1
846.295	96.59
846.467	100.27
846.639	97.81
846.811	103.78
846.983	113.01
847.155	120.49
847.327	119.08
847.499	130.68
847.671	129.48
847.843	127.15
848.015	119.59
848.187	118.16
848.359	122.65
848.531	129.55
848.703	127.66
848.875	121.63
849.047	113.31
849.218	114.81
849.39	110.53
849.562	105.28
849.734	102.81
849.905	107.77
850.077	105.49
850.249	102.97
850.421	103.53
850.592	100.03
850.764	100.86
850.936	99.75
851.107	96.32
851.279	95.84
851.451	105.8
851.622	111.09
851.794	108.69
851.965	113.8
852.137	104.39
852.308	103.47
852.48	103.02
852.651	102.38
852.823	104.76
852.994	107.24
853.166	105.42
853.337	101.35
853.509	100.07
853.68	97.12
853.851	98.84
854.023	107.72
854.194	105.81
854.365	110.2
854.537	115.82
854.708	112.51
854.879	112.05
855.05	110.98
855.222	107.29
855.393	111.29
855.564	118.33
855.735	120.26
855.906	119.55
856.078	123.85
856.249	126.81
856.42	130.5
856.591	132.42
856.762	140.44
856.933	143.9
857.104	162.96
857.275	150.85
857.446	146.97
857.617	141.39
857.788	139.62
857.959	141.05
858.13	131
858.301	120.23
858.472	119.43
858.643	108.08
858.814	107.81
858.985	105.16
859.155	111.68
859.326	112.14
859.497	118.35
859.668	121.83
859.839	119.34
860.009	120.82
860.18	120.68
860.351	126.25
860.522	134.31
860.692	147.68
860.863	132.81
861.034	132.92
861.204	141.42
861.375	133.75
861.546	125.95
861.716	126.47
861.887	127.06
862.057	127.92
862.228	125
862.398	123.36
862.569	108.8
862.739	115.87
862.91	107.98
863.08	102.92
863.251	106.76
863.421	107.77
863.592	102.74
863.762	104.92
863.932	107.11
864.103	109.55
864.273	110.38
864.443	121.49
864.614	121.65
864.784	130.73
864.954	126.93
865.125	120.11
865.295	124.59
865.465	129.62
865.635	131.99
865.805	131.93
865.976	127.38
866.146	132.03
866.316	122.91
866.486	124.49
866.656	125.74
866.826	128.31
866.996	134.96
867.166	136.99
867.336	137.98
867.506	128.02
867.676	122.33
867.846	117.35
868.016	112.56
868.186	118.38
868.356	111.93
868.526	107.39
868.696	105.38
868.866	104.75
869.036	100.72
869.206	98.89
869.376	99.85
869.545	98.67
869.715	106.43
869.885	112.2
870.055	105.23
870.224	106.76
870.394	114.2
870.564	116.07
870.734	114.03
870.903	117.79
871.073	117.68
871.243	120.45
871.412	125.81
871.582	131.65
871.751	123.38
871.921	128.3
872.091	132.8
872.26	129.25
872.43	131.13
872.599	140.22
872.769	130.65
872.938	129.05
873.108	130.38
873.277	131.1
873.446	120.52
873.616	119.06
873.785	118.24
873.955	123.2
874.124	125.5
874.293	127.9
874.463	123.2
874.632	128.54
874.801	127.64
874.971	127.62
875.14	120.71
875.309	128.55
875.478	130.11
875.647	120.58
875.817	115.67
875.986	112.84
876.155	114.43
876.324	114.36
876.493	114.92
876.662	116.29
876.831	108.51
877	112.07
877.17	112.31
877.339	114.34
877.508	122.22
877.677	123.73
877.846	119.58
878.015	108.02
878.184	112.82
878.352	110.37
878.521	113.61
878.69	119.32
878.859	110.86
879.028	109.76
879.197	109.43
879.366	106
879.534	101.97
879.703	104.44
879.872	107.94
880.041	101.54
880.21	98.7
880.378	93.81
880.547	88.76
880.716	90.72
880.884	84.37
881.053	82.47
881.222	78.52
881.39	76.22
881.559	75.01
881.727	73.98
881.896	73.99
882.065	73.79
882.233	74.43
882.402	76.6
882.57	77.75
882.739	78.77
882.907	78.93
883.076	79.98
883.244	80.26
883.412	82.41
883.581	83.71
883.749	82.94
883.918	84.38
884.086	84.37
884.254	85.28
884.423	84.45
884.591	88.1
884.759	90.83
884.927	92.42
885.096	98.17
885.264	98.01
885.432	105.93
885.6	106.85
885.769	105.54
885.937	104.99
886.105	104.51
886.273	107.22
886.441	110.95
886.609	113.88
886.777	116.7
886.945	118.19
887.113	116.15
887.281	107.17
887.449	112.72
887.617	111.96
887.785	118.73
887.953	117.24
888.121	121.06
888.289	119.07
888.457	115.01
888.625	119.62
888.793	111.44
888.961	113.88
889.129	118.07
889.296	124.49
889.464	131.2
889.632	129.57
889.8	127.05
889.967	125.18
890.135	122.56
