Data from JASIL_2907_Reflection_1.txt Node
Date: Sat Nov 07 20:22:21 EST 2015
User: Geneva
Spectrometer: USB4E03002
Autoset integration time: false
Trigger mode: 4
Integration Time (sec): 1.000000E-1
Scans to average: 10
Electric dark correction enabled: true
Nonlinearity correction enabled: false
Boxcar width: 5
Stray light correction enabled: false
XAxis mode: Wavelengths
Stop averaging: false
Number of Pixels in Spectrum: 3648
>>>>>Begin Spectral Data<<<<<
177.575	123.55
177.794	166.98
178.014	129.54
178.233	122.34
178.452	115.26
178.672	213.75
178.891	431.4
179.11	212.52
179.33	157.97
179.549	155.3
179.768	127.25
179.987	98.52
180.207	124.04
180.426	114.21
180.645	113.37
180.864	108.42
181.084	126.39
181.303	124.63
181.522	118.09
181.741	115.46
181.96	112.84
182.179	116.27
182.398	136.66
182.618	111.37
182.837	104.77
183.056	80.53
183.275	81.3
183.494	71.26
183.713	70.27
183.932	64.64
184.151	65.12
184.37	61
184.589	73.47
184.808	69.99
185.027	73.72
185.246	76.37
185.465	89.12
185.684	89.86
185.903	101.04
186.122	115.75
186.341	116.99
186.56	125.97
186.779	144.04
186.998	136.13
187.216	129.35
187.435	126.4
187.654	118.23
187.873	126.22
188.092	139.07
188.311	117.1
188.53	104.3
188.748	93.48
188.967	95.77
189.186	91.23
189.405	92.86
189.623	99.27
189.842	104.78
190.061	115.48
190.28	104.14
190.498	90.17
190.717	93.65
190.936	100.76
191.154	109.58
191.373	108.54
191.592	101.21
191.81	107.17
192.029	92.84
192.248	85.49
192.466	84.13
192.685	88.19
192.904	92.09
193.122	89.86
193.341	82.43
193.559	79.7
193.778	83.15
193.996	83.75
194.215	85.41
194.433	97.41
194.652	95.56
194.87	94.03
195.089	92.26
195.307	100.62
195.526	105.07
195.744	102.5
195.963	103.58
196.181	96.74
196.399	91.83
196.618	91.44
196.836	95.14
197.055	97.47
197.273	99.6
197.491	102.11
197.71	98.73
197.928	92.16
198.146	92.99
198.365	87.43
198.583	76.24
198.801	85.28
199.019	73.95
199.238	69.93
199.456	66.77
199.674	66.35
199.892	63.5
200.111	65.32
200.329	73.73
200.547	69.17
200.765	67.26
200.983	82.26
201.202	82.09
201.42	98.92
201.638	90.22
201.856	91.39
202.074	85.54
202.292	82.84
202.51	78.21
202.728	88.41
202.946	94.19
203.165	100.94
203.383	96.98
203.601	92.46
203.819	80.75
204.037	85.8
204.255	84.46
204.473	80.72
204.691	78.82
204.909	80.01
205.127	68.81
205.345	70.4
205.562	73.92
205.78	75
205.998	76.55
206.216	83.43
206.434	80.62
206.652	87.3
206.87	95.33
207.088	87.58
207.306	89.06
207.523	91.7
207.741	89.24
207.959	84.46
208.177	85.28
208.395	83.28
208.612	81.23
208.83	82.99
209.048	79.03
209.266	73.59
209.483	80.41
209.701	75.79
209.919	76.38
210.136	71.9
210.354	74.05
210.572	70.99
210.79	74.37
211.007	77.23
211.225	78.2
211.442	72.97
211.66	74.46
211.878	74.55
212.095	67.54
212.313	64.61
212.53	63.9
212.748	57.78
212.966	67.02
213.183	63.69
213.401	61.62
213.618	56.13
213.836	58.14
214.053	58.2
214.271	62.92
214.488	69.4
214.705	62.29
214.923	64.15
215.14	60.79
215.358	51.91
215.575	50.53
215.793	48.52
216.01	56.14
216.227	59.1
216.445	62.39
216.662	56.75
216.879	58.16
217.097	63.33
217.314	60.51
217.531	66.64
217.749	71.34
217.966	71.54
218.183	71.8
218.4	58.05
218.618	58.59
218.835	54.2
219.052	55.98
219.269	59.1
219.487	56.98
219.704	56.52
219.921	52.4
220.138	51.89
220.355	47.9
220.572	48.83
220.79	53.12
221.007	49.46
221.224	49.92
221.441	48.07
221.658	47.4
221.875	46.31
222.092	46.5
222.309	47.61
222.526	44.27
222.743	49.36
222.96	47.43
223.177	43.92
223.394	42.62
223.611	43.94
223.828	44.32
224.045	40.92
224.262	39.77
224.479	38.43
224.696	37.31
224.913	38.22
225.13	32.2
225.347	31.59
225.564	31.89
225.781	30.33
225.997	26.78
226.214	24.42
226.431	22.68
226.648	21.14
226.865	20.55
227.082	19.61
227.298	17.38
227.515	18.5
227.732	18.19
227.949	18.12
228.165	17.95
228.382	17.88
228.599	17.97
228.816	18.26
229.032	18.63
229.249	18.9
229.466	19.53
229.682	20.55
229.899	20.35
230.116	20.16
230.332	19.22
230.549	19.94
230.765	20.82
230.982	20.12
231.199	20.39
231.415	20.25
231.632	19.22
231.848	18.57
232.065	18.32
232.281	18.82
232.498	19.25
232.714	19.9
232.931	20.54
233.147	20.86
233.364	21.79
233.58	20.86
233.797	22.04
234.013	23.53
234.23	23.24
234.446	22.46
234.662	21.57
234.879	20.85
235.095	20.78
235.312	19.6
235.528	19.52
235.744	19.01
235.961	20.28
236.177	19.26
236.393	18.68
236.61	20.48
236.826	21.45
237.042	21.49
237.258	21.74
237.475	21.8
237.691	22.26
237.907	21.56
238.123	21.63
238.339	21.12
238.556	20.24
238.772	20.05
238.988	19.28
239.204	19.11
239.42	19.35
239.636	19.4
239.853	18.81
240.069	18.35
240.285	17.99
240.501	17.44
240.717	17.31
240.933	17.13
241.149	16.61
241.365	15.94
241.581	15.97
241.797	15.67
242.013	15.24
242.229	15.39
242.445	15.06
242.661	14.75
242.877	15.03
243.093	14.92
243.309	14.91
243.525	15.12
243.741	15.58
243.957	14.91
244.173	14.93
244.388	15.12
244.604	14.48
244.82	13.81
245.036	13.79
245.252	13.53
245.468	13.24
245.683	13.22
245.899	12.91
246.115	12.79
246.331	12.82
246.547	12.58
246.762	12.65
246.978	12.82
247.194	13.16
247.409	13.23
247.625	13.29
247.841	13.23
248.057	13.43
248.272	13.57
248.488	13.54
248.703	13.68
248.919	14.36
249.135	13.96
249.35	13.4
249.566	13.49
249.782	13.21
249.997	12.99
250.213	13.15
250.428	12.57
250.644	12.72
250.859	12.59
251.075	12.67
251.29	11.8
251.506	12.32
251.721	12.4
251.937	12.29
252.152	12.51
252.368	12.78
252.583	12.78
252.798	13.15
253.014	12.92
253.229	12.77
253.445	12.59
253.66	13.45
253.875	12.83
254.091	13.12
254.306	13.11
254.521	12.97
254.737	12.98
254.952	12.34
255.167	11.9
255.383	11.84
255.598	11.8
255.813	11.42
256.028	11.24
256.244	11.02
256.459	11.01
256.674	10.5
256.889	10.04
257.104	9.66
257.32	10.23
257.535	10.28
257.75	10
257.965	10.22
258.18	10.24
258.395	9.95
258.61	9.97
258.826	9.71
259.041	9.86
259.256	9.88
259.471	9.75
259.686	9.66
259.901	9.68
260.116	9.91
260.331	9.66
260.546	9.81
260.761	10.02
260.976	10.04
261.191	10.18
261.406	10.22
261.621	10.37
261.836	10.72
262.05	10.18
262.265	9.94
262.48	9.57
262.695	9.78
262.91	9.68
263.125	9.7
263.34	10.15
263.555	10.47
263.769	10.6
263.984	10.88
264.199	11.08
264.414	11.47
264.629	11.73
264.843	11.95
265.058	11.75
265.273	11.3
265.488	11.12
265.702	10.87
265.917	10.94
266.132	10.6
266.346	10.49
266.561	10.38
266.776	10.45
266.99	10.11
267.205	10.23
267.42	10.49
267.634	10.64
267.849	10.81
268.063	10.82
268.278	10.95
268.492	11.2
268.707	10.83
268.922	10.7
269.136	10.55
269.351	10.42
269.565	10.31
269.78	10.09
269.994	10.01
270.209	9.8
270.423	9.67
270.637	9.26
270.852	9.01
271.066	9.25
271.281	9.28
271.495	9.38
271.709	9.63
271.924	9.36
272.138	9.46
272.353	9.69
272.567	9.56
272.781	9.4
272.996	9.48
273.21	9.7
273.424	9.45
273.638	9.29
273.853	9.13
274.067	9.01
274.281	9.23
274.495	9.12
274.71	8.94
274.924	8.95
275.138	9.18
275.352	9.23
275.566	9.12
275.781	9.35
275.995	9.49
276.209	9.73
276.423	9.73
276.637	9.82
276.851	9.71
277.065	9.5
277.279	9.5
277.493	9.64
277.707	9.7
277.921	9.78
278.135	9.41
278.349	9.28
278.563	9.12
278.777	9.1
278.991	9.02
279.205	9.02
279.419	9.18
279.633	9.43
279.847	9.5
280.061	9.4
280.275	9.06
280.489	9.51
280.703	9.51
280.917	9.43
281.131	9.43
281.344	9.3
281.558	9.16
281.772	9.13
281.986	8.77
282.2	8.63
282.414	8.46
282.627	8.56
282.841	8.39
283.055	8.53
283.269	8.52
283.482	8.4
283.696	8.39
283.91	8.4
284.123	8.23
284.337	8.36
284.551	8.04
284.764	8.25
284.978	8.21
285.192	8.06
285.405	7.94
285.619	7.97
285.833	8.12
286.046	8.03
286.26	8.14
286.473	8.16
286.687	8.07
286.9	8.42
287.114	8.39
287.327	8.42
287.541	8.46
287.754	8.48
287.968	8.48
288.181	8.4
288.395	8.56
288.608	8.68
288.822	8.69
289.035	8.79
289.248	8.65
289.462	8.85
289.675	8.76
289.889	8.83
290.102	8.7
290.315	8.72
290.529	8.76
290.742	8.82
290.955	8.76
291.169	8.73
291.382	8.83
291.595	8.91
291.808	8.59
292.022	8.54
292.235	8.8
292.448	8.87
292.661	8.74
292.875	8.6
293.088	8.48
293.301	8.38
293.514	8.29
293.727	8.27
293.94	8.22
294.153	8.06
294.367	8.19
294.58	7.75
294.793	7.85
295.006	8.02
295.219	8.3
295.432	8.23
295.645	8.26
295.858	8.38
296.071	8.23
296.284	8.17
296.497	8.37
296.71	8.33
296.923	8.63
297.136	8.5
297.349	8.61
297.562	8.47
297.775	8.63
297.988	8.67
298.201	8.75
298.414	8.93
298.626	8.89
298.839	8.7
299.052	8.87
299.265	8.86
299.478	8.83
299.691	8.77
299.903	8.6
300.116	8.56
300.329	8.56
300.542	8.53
300.755	8.63
300.967	8.82
301.18	8.88
301.393	8.82
301.605	8.73
301.818	9.03
302.031	9.01
302.243	9.13
302.456	9.21
302.669	9.3
302.881	9.51
303.094	9.41
303.307	9.37
303.519	9.46
303.732	9.56
303.944	9.5
304.157	9.64
304.37	9.68
304.582	9.74
304.795	9.75
305.007	9.78
305.22	9.74
305.432	9.68
305.645	9.71
305.857	9.85
306.069	9.61
306.282	9.74
306.494	9.68
306.707	9.63
306.919	9.67
307.132	9.59
307.344	9.54
307.556	9.61
307.769	9.77
307.981	9.73
308.193	9.65
308.406	9.94
308.618	9.74
308.83	9.49
309.043	9.38
309.255	9.37
309.467	9.36
309.679	9.35
309.892	9.13
310.104	9.05
310.316	9.04
310.528	9.13
310.74	9.04
310.953	9.07
311.165	9.29
311.377	9.3
311.589	9.31
311.801	9.37
312.013	9.33
312.225	9.45
312.437	9.74
312.649	9.93
312.862	9.68
313.074	9.41
313.286	9.61
313.498	9.4
313.71	9.63
313.922	9.74
314.134	9.76
314.346	9.82
314.558	9.99
314.77	9.71
314.982	9.61
315.193	9.64
315.405	9.93
315.617	9.75
315.829	9.78
316.041	9.94
316.253	9.89
316.465	9.88
316.677	9.88
316.888	9.76
317.1	10.15
317.312	10.28
317.524	10.53
317.736	10.66
317.947	10.74
318.159	10.85
318.371	10.48
318.583	10.28
318.794	10.07
319.006	10.17
319.218	10.4
319.43	9.99
319.641	9.94
319.853	10.12
320.064	10.15
320.276	10.23
320.488	10.08
320.699	10.16
320.911	10.43
321.123	11.07
321.334	11.09
321.546	10.99
321.757	11.14
321.969	11.4
322.18	11.23
322.392	11.04
322.603	11.1
322.815	11.27
323.026	11.27
323.238	11.15
323.449	10.72
323.661	10.69
323.872	10.82
324.083	10.8
324.295	10.74
324.506	10.94
324.718	11.12
324.929	11.23
325.14	11.44
325.352	11.65
325.563	12.03
325.774	12.33
325.986	12.53
326.197	12.59
326.408	12.87
326.62	12.77
326.831	12.76
327.042	12.84
327.253	12.97
327.464	13.23
327.676	13.49
327.887	13.48
328.098	13.63
328.309	13.76
328.52	13.98
328.732	13.89
328.943	14.39
329.154	14.61
329.365	14.95
329.576	15.19
329.787	15.06
329.998	15.06
330.209	15
330.42	15.23
330.631	15.37
330.842	15.28
331.053	15.54
331.264	15.53
331.475	15.64
331.686	15.56
331.897	15.73
332.108	15.81
332.319	15.74
332.53	16.05
332.741	15.87
332.952	16.15
333.163	16.22
333.374	16.4
333.585	16.38
333.795	16.47
334.006	16.53
334.217	16.34
334.428	16.46
334.639	16.74
334.849	16.54
335.06	16.71
335.271	16.54
335.482	16.68
335.692	16.54
335.903	16.6
336.114	16.66
336.325	16.67
336.535	16.91
336.746	16.97
336.957	16.94
337.167	17.04
337.378	17.12
337.589	17.22
337.799	17.23
338.01	17.17
338.22	17.12
338.431	16.92
338.642	16.96
338.852	16.69
339.063	16.43
339.273	16.27
339.484	16.2
339.694	16.1
339.905	16.03
340.115	16
340.326	16.04
340.536	15.9
340.746	15.95
340.957	15.93
341.167	16.24
341.378	16.47
341.588	16.56
341.799	16.58
342.009	16.59
342.219	16.42
342.43	16.43
342.64	16.28
342.85	16.31
343.061	16.14
343.271	16.28
343.481	16.06
343.691	15.82
343.902	15.73
344.112	15.75
344.322	15.66
344.532	15.73
344.743	15.55
344.953	15.51
345.163	15.4
345.373	15.61
345.583	15.53
345.793	15.43
346.004	15.55
346.214	15.6
346.424	15.66
346.634	15.65
346.844	15.73
347.054	15.86
347.264	15.98
347.474	16.2
347.684	16.05
347.894	16.01
348.104	16.08
348.314	16.08
348.524	15.95
348.734	15.8
348.944	15.83
349.154	15.79
349.364	15.67
349.574	15.51
349.784	15.46
349.994	15.43
350.204	15.27
350.413	15.15
350.623	14.92
350.833	15.01
351.043	14.85
351.253	14.71
351.463	14.62
351.672	14.69
351.882	14.79
352.092	14.66
352.302	14.6
352.511	14.76
352.721	14.75
352.931	14.8
353.141	14.76
353.35	15.07
353.56	15.11
353.77	15.09
353.979	15.11
354.189	15.06
354.399	15.06
354.608	15.01
354.818	14.82
355.027	14.88
355.237	14.89
355.447	14.8
355.656	14.58
355.866	14.46
356.075	14.41
356.285	14.31
356.494	14.35
356.704	14.3
356.913	14.38
357.123	14.36
357.332	14.22
357.542	14.3
357.751	14.26
357.96	14.29
358.17	14.25
358.379	14.17
358.589	14.18
358.798	14.05
359.007	14.07
359.217	14.02
359.426	14.05
359.635	14.1
359.845	14.07
360.054	14.05
360.263	13.94
360.472	14.08
360.682	14.06
360.891	13.88
361.1	13.84
361.309	13.79
361.519	13.73
361.728	13.72
361.937	13.68
362.146	13.63
362.355	13.59
362.564	13.56
362.774	13.49
362.983	13.42
363.192	13.57
363.401	13.7
363.61	13.67
363.819	13.71
364.028	13.64
364.237	13.55
364.446	13.48
364.655	13.5
364.864	13.6
365.073	13.67
365.282	13.81
365.491	13.66
365.7	13.62
365.909	13.66
366.118	13.67
366.327	13.64
366.536	13.75
366.745	13.78
366.954	13.9
367.162	13.94
367.371	13.76
367.58	13.64
367.789	13.72
367.998	13.77
368.207	13.74
368.415	13.81
368.624	13.78
368.833	13.74
369.042	13.76
369.25	13.63
369.459	13.58
369.668	13.62
369.877	13.58
370.085	13.49
370.294	13.35
370.503	13.27
370.711	13.2
370.92	13.22
371.129	13.19
371.337	13.05
371.546	13
371.754	12.92
371.963	12.84
372.171	12.88
372.38	12.91
372.589	12.93
372.797	13.02
373.006	13.02
373.214	13.01
373.423	12.96
373.631	12.97
373.84	12.92
374.048	12.83
374.256	12.79
374.465	12.77
374.673	12.76
374.882	12.76
375.09	12.69
375.298	12.55
375.507	12.39
375.715	12.36
375.923	12.28
376.132	12.34
376.34	12.35
376.548	12.35
376.757	12.29
376.965	12.27
377.173	12.21
377.381	12.27
377.59	12.34
377.798	12.35
378.006	12.33
378.214	12.35
378.423	12.18
378.631	12.1
378.839	12.12
379.047	12.14
379.255	12.06
379.463	12.13
379.671	12.03
379.879	12
380.088	12.05
380.296	12
380.504	11.98
380.712	12.1
380.92	12.17
381.128	12.13
381.336	11.94
381.544	11.89
381.752	11.76
381.96	11.71
382.168	11.58
382.376	11.53
382.584	11.61
382.791	11.65
382.999	11.65
383.207	11.55
383.415	11.6
383.623	11.67
383.831	11.68
384.039	11.66
384.247	11.65
384.454	11.68
384.662	11.55
384.87	11.56
385.078	11.49
385.285	11.26
385.493	11.26
385.701	11.1
385.909	11.08
386.116	11.07
386.324	11
386.532	10.92
386.739	10.83
386.947	10.87
387.155	10.8
387.362	10.8
387.57	10.96
387.778	10.94
387.985	10.96
388.193	10.92
388.4	10.99
388.608	11.07
388.816	11.08
389.023	11.1
389.231	11.13
389.438	11.1
389.646	11.02
389.853	10.92
390.061	10.91
390.268	10.85
390.475	10.85
390.683	10.8
390.89	10.71
391.098	10.65
391.305	10.71
391.512	10.62
391.72	10.54
391.927	10.5
392.135	10.51
392.342	10.45
392.549	10.58
392.756	10.52
392.964	10.41
393.171	10.36
393.378	10.38
393.586	10.26
393.793	10.32
394	10.38
394.207	10.38
394.414	10.39
394.622	10.45
394.829	10.34
395.036	10.39
395.243	10.38
395.45	10.39
395.657	10.42
395.864	10.47
396.072	10.44
396.279	10.38
396.486	10.33
396.693	10.25
396.9	10.15
397.107	10.09
397.314	10.08
397.521	10.09
397.728	10.06
397.935	10.09
398.142	9.98
398.349	9.9
398.556	9.86
398.763	9.85
398.97	9.89
399.177	9.93
399.383	10
399.59	9.94
399.797	9.97
400.004	9.92
400.211	9.84
400.418	9.87
400.625	9.92
400.831	9.94
401.038	9.95
401.245	9.93
401.452	9.95
401.658	9.88
401.865	9.84
402.072	9.82
402.279	9.93
402.485	9.85
402.692	9.77
402.899	9.76
403.105	9.75
403.312	9.78
403.519	9.78
403.725	9.71
403.932	9.76
404.138	9.75
404.345	9.7
404.552	9.64
404.758	9.72
404.965	9.75
405.171	9.68
405.378	9.61
405.584	9.63
405.791	9.52
405.997	9.59
406.204	9.62
406.41	9.63
406.617	9.64
406.823	9.55
407.029	9.49
407.236	9.54
407.442	9.58
407.649	9.7
407.855	9.64
408.061	9.77
408.268	9.74
408.474	9.58
408.68	9.54
408.887	9.53
409.093	9.61
409.299	9.64
409.505	9.62
409.712	9.6
409.918	9.54
410.124	9.5
410.33	9.47
410.537	9.39
410.743	9.42
410.949	9.4
411.155	9.5
411.361	9.52
411.567	9.55
411.773	9.52
411.98	9.53
412.186	9.61
412.392	9.67
412.598	9.6
412.804	9.57
413.01	9.61
413.216	9.66
413.422	9.61
413.628	9.5
413.834	9.37
414.04	9.42
414.246	9.4
414.452	9.31
414.658	9.33
414.864	9.3
415.07	9.26
415.275	9.23
415.481	9.2
415.687	9.14
415.893	9.2
416.099	9.23
416.305	9.12
416.511	9.13
416.716	9.03
416.922	8.93
417.128	8.96
417.334	8.99
417.539	8.94
417.745	8.88
417.951	8.85
418.157	8.81
418.362	8.75
418.568	8.78
418.774	8.75
418.979	8.8
419.185	8.83
419.391	8.8
419.596	8.8
419.802	8.82
420.008	8.79
420.213	8.57
420.419	8.58
420.624	8.6
420.83	8.59
421.035	8.6
421.241	8.58
421.446	8.56
421.652	8.56
421.857	8.55
422.063	8.51
422.268	8.57
422.474	8.78
422.679	8.75
422.885	8.75
423.09	8.71
423.295	8.67
423.501	8.67
423.706	8.7
423.911	8.66
424.117	8.64
424.322	8.68
424.527	8.66
424.733	8.63
424.938	8.65
425.143	8.64
425.349	8.63
425.554	8.67
425.759	8.65
425.964	8.63
426.169	8.66
426.375	8.66
426.58	8.66
426.785	8.67
426.99	8.71
427.195	8.77
427.4	8.75
427.605	8.87
427.811	8.85
428.016	8.93
428.221	8.96
428.426	8.93
428.631	8.92
428.836	8.91
429.041	8.9
429.246	8.93
429.451	8.87
429.656	8.94
429.861	8.87
430.066	8.87
430.271	8.82
430.476	8.79
430.681	8.81
430.886	8.82
431.09	8.83
431.295	8.78
431.5	8.75
431.705	8.69
431.91	8.67
432.115	8.65
432.32	8.64
432.524	8.65
432.729	8.64
432.934	8.63
433.139	8.66
433.343	8.66
433.548	8.77
433.753	8.79
433.958	8.86
434.162	8.86
434.367	8.83
434.572	8.85
434.776	8.85
434.981	8.86
435.186	8.89
435.39	8.85
435.595	8.85
435.799	8.78
436.004	8.74
436.209	8.68
436.413	8.63
436.618	8.63
436.822	8.6
437.027	8.55
437.231	8.58
437.436	8.56
437.64	8.51
437.845	8.5
438.049	8.52
438.253	8.5
438.458	8.53
438.662	8.57
438.867	8.62
439.071	8.63
439.275	8.66
439.48	8.62
439.684	8.6
439.888	8.63
440.093	8.63
440.297	8.6
440.501	8.62
440.706	8.58
440.91	8.58
441.114	8.56
441.318	8.53
441.523	8.55
441.727	8.55
441.931	8.56
442.135	8.56
442.339	8.55
442.543	8.6
442.748	8.58
442.952	8.57
443.156	8.57
443.36	8.59
443.564	8.6
443.768	8.55
443.972	8.55
444.176	8.53
444.38	8.55
444.584	8.53
444.788	8.46
444.992	8.44
445.196	8.46
445.4	8.42
445.604	8.39
445.808	8.39
446.012	8.39
446.216	8.37
446.42	8.4
446.624	8.38
446.828	8.37
447.032	8.4
447.235	8.42
447.439	8.44
447.643	8.48
447.847	8.51
448.051	8.51
448.254	8.53
448.458	8.54
448.662	8.55
448.866	8.56
449.069	8.56
449.273	8.59
449.477	8.61
449.681	8.61
449.884	8.59
450.088	8.58
450.292	8.54
450.495	8.52
450.699	8.61
450.902	8.58
451.106	8.61
451.31	8.66
451.513	8.61
451.717	8.57
451.92	8.55
452.124	8.56
452.327	8.54
452.531	8.58
452.734	8.57
452.938	8.51
453.141	8.54
453.345	8.51
453.548	8.49
453.752	8.5
453.955	8.52
454.158	8.54
454.362	8.54
454.565	8.61
454.769	8.62
454.972	8.71
455.175	8.73
455.379	8.7
455.582	8.66
455.785	8.62
455.988	8.61
456.192	8.59
456.395	8.53
456.598	8.56
456.801	8.51
457.005	8.47
457.208	8.4
457.411	8.39
457.614	8.38
457.817	8.39
458.021	8.4
458.224	8.39
458.427	8.43
458.63	8.46
458.833	8.41
459.036	8.39
459.239	8.4
459.442	8.38
459.645	8.36
459.848	8.36
460.051	8.38
460.254	8.43
460.457	8.43
460.66	8.41
460.863	8.43
461.066	8.45
461.269	8.46
461.472	8.51
461.675	8.51
461.878	8.52
462.081	8.51
462.284	8.47
462.486	8.39
462.689	8.47
462.892	8.44
463.095	8.41
463.298	8.45
463.5	8.49
463.703	8.44
463.906	8.45
464.109	8.53
464.311	8.53
464.514	8.59
464.717	8.62
464.92	8.61
465.122	8.67
465.325	8.64
465.528	8.64
465.73	8.64
465.933	8.64
466.135	8.59
466.338	8.53
466.541	8.5
466.743	8.44
466.946	8.44
467.148	8.44
467.351	8.39
467.553	8.4
467.756	8.38
467.958	8.37
468.161	8.38
468.363	8.42
468.566	8.43
468.768	8.52
468.971	8.59
469.173	8.59
469.375	8.56
469.578	8.47
469.78	8.5
469.983	8.51
470.185	8.51
470.387	8.53
470.59	8.56
470.792	8.59
470.994	8.55
471.196	8.51
471.399	8.51
471.601	8.49
471.803	8.56
472.005	8.53
472.208	8.51
472.41	8.48
472.612	8.43
472.814	8.49
473.016	8.48
473.218	8.49
473.421	8.48
473.623	8.5
473.825	8.49
474.027	8.53
474.229	8.57
474.431	8.55
474.633	8.59
474.835	8.61
475.037	8.53
475.239	8.49
475.441	8.49
475.643	8.5
475.845	8.47
476.047	8.48
476.249	8.5
476.451	8.45
476.653	8.39
476.855	8.39
477.057	8.36
477.258	8.38
477.46	8.39
477.662	8.39
477.864	8.4
478.066	8.39
478.268	8.39
478.469	8.35
478.671	8.38
478.873	8.39
479.075	8.38
479.276	8.4
479.478	8.42
479.68	8.37
479.882	8.37
480.083	8.37
480.285	8.38
480.487	8.36
480.688	8.35
480.89	8.38
481.091	8.38
481.293	8.39
481.495	8.36
481.696	8.33
481.898	8.34
482.099	8.29
482.301	8.26
482.502	8.23
482.704	8.19
482.905	8.2
483.107	8.16
483.308	8.14
483.51	8.11
483.711	8.11
483.913	8.11
484.114	8.09
484.315	8.1
484.517	8.1
484.718	8.13
484.92	8.15
485.121	8.15
485.322	8.16
485.524	8.18
485.725	8.18
485.926	8.18
486.127	8.18
486.329	8.18
486.53	8.19
486.731	8.19
486.932	8.18
487.134	8.17
487.335	8.17
487.536	8.18
487.737	8.16
487.938	8.17
488.139	8.18
488.341	8.18
488.542	8.22
488.743	8.2
488.944	8.22
489.145	8.21
489.346	8.24
489.547	8.26
489.748	8.25
489.949	8.27
490.15	8.28
490.351	8.27
490.552	8.28
490.753	8.26
490.954	8.24
491.155	8.25
491.356	8.27
491.557	8.26
491.758	8.25
491.959	8.28
492.159	8.27
492.36	8.28
492.561	8.3
492.762	8.3
492.963	8.32
493.164	8.4
493.364	8.41
493.565	8.46
493.766	8.5
493.967	8.51
494.167	8.55
494.368	8.58
494.569	8.55
494.769	8.59
494.97	8.61
495.171	8.6
495.371	8.57
495.572	8.53
495.773	8.5
495.973	8.51
496.174	8.53
496.375	8.51
496.575	8.53
496.776	8.58
496.976	8.57
497.177	8.58
497.377	8.61
497.578	8.64
497.778	8.69
497.979	8.69
498.179	8.69
498.38	8.72
498.58	8.72
498.78	8.73
498.981	8.75
499.181	8.76
499.382	8.76
499.582	8.72
499.782	8.73
499.983	8.75
500.183	8.77
500.383	8.79
500.584	8.76
500.784	8.77
500.984	8.8
501.184	8.77
501.385	8.82
501.585	8.84
501.785	8.86
501.985	8.9
502.185	8.94
502.386	8.95
502.586	8.96
502.786	8.95
502.986	8.98
503.186	8.97
503.386	9
503.586	8.99
503.786	8.99
503.987	9.04
504.187	9.03
504.387	9.02
504.587	9
504.787	9.01
504.987	9.04
505.187	9.05
505.387	9.05
505.587	9.12
505.786	9.16
505.986	9.19
506.186	9.22
506.386	9.24
506.586	9.22
506.786	9.26
506.986	9.26
507.186	9.28
507.386	9.29
507.585	9.32
507.785	9.34
507.985	9.31
508.185	9.35
508.384	9.32
508.584	9.35
508.784	9.37
508.984	9.41
509.183	9.49
509.383	9.5
509.583	9.51
509.782	9.54
509.982	9.55
510.182	9.59
510.381	9.58
510.581	9.65
510.781	9.66
510.98	9.74
511.18	9.75
511.379	9.7
511.579	9.8
511.778	9.85
511.978	9.88
512.177	9.89
512.377	9.95
512.576	10.01
512.776	10.04
512.975	10.12
513.175	10.11
513.374	10.19
513.573	10.26
513.773	10.27
513.972	10.31
514.172	10.37
514.371	10.43
514.57	10.47
514.77	10.51
514.969	10.53
515.168	10.52
515.367	10.55
515.567	10.55
515.766	10.56
515.965	10.57
516.164	10.61
516.364	10.64
516.563	10.66
516.762	10.64
516.961	10.66
517.16	10.72
517.359	10.73
517.559	10.76
517.758	10.79
517.957	10.82
518.156	10.85
518.355	10.85
518.554	10.9
518.753	10.95
518.952	10.99
519.151	11.04
519.35	11.06
519.549	11.15
519.748	11.21
519.947	11.27
520.146	11.35
520.345	11.4
520.544	11.48
520.743	11.52
520.942	11.58
521.141	11.63
521.339	11.69
521.538	11.76
521.737	11.77
521.936	11.84
522.135	11.91
522.333	11.96
522.532	12.07
522.731	12.1
522.93	12.11
523.129	12.17
523.327	12.26
523.526	12.32
523.725	12.39
523.923	12.46
524.122	12.5
524.321	12.5
524.519	12.56
524.718	12.59
524.917	12.65
525.115	12.75
525.314	12.78
525.512	12.82
525.711	12.85
525.909	12.89
526.108	12.92
526.306	12.97
526.505	13.01
526.703	13.04
526.902	13.09
527.1	13.12
527.299	13.15
527.497	13.2
527.696	13.23
527.894	13.26
528.092	13.29
528.291	13.33
528.489	13.37
528.688	13.42
528.886	13.46
529.084	13.5
529.283	13.56
529.481	13.61
529.679	13.67
529.877	13.74
530.076	13.83
530.274	13.9
530.472	13.99
530.67	14.05
530.869	14.1
531.067	14.18
531.265	14.2
531.463	14.3
531.661	14.36
531.859	14.41
532.057	14.46
532.255	14.48
532.454	14.55
532.652	14.6
532.85	14.64
533.048	14.71
533.246	14.78
533.444	14.86
533.642	14.9
533.84	14.96
534.038	15.02
534.236	15.09
534.434	15.17
534.632	15.22
534.83	15.29
535.027	15.36
535.225	15.41
535.423	15.47
535.621	15.51
535.819	15.53
536.017	15.58
536.215	15.59
536.412	15.6
536.61	15.67
536.808	15.71
537.006	15.72
537.203	15.79
537.401	15.86
537.599	15.9
537.797	15.96
537.994	15.98
538.192	16.03
538.39	16.14
538.587	16.19
538.785	16.21
538.983	16.26
539.18	16.29
539.378	16.3
539.575	16.31
539.773	16.3
539.97	16.31
540.168	16.38
540.366	16.39
540.563	16.42
540.761	16.45
540.958	16.5
541.155	16.52
541.353	16.56
541.55	16.62
541.748	16.67
541.945	16.71
542.143	16.77
542.34	16.83
542.537	16.86
542.735	16.89
542.932	16.91
543.129	16.93
543.327	16.99
543.524	17.04
543.721	17.08
543.919	17.11
544.116	17.17
544.313	17.24
544.51	17.24
544.708	17.3
544.905	17.33
545.102	17.43
545.299	17.46
545.496	17.48
545.693	17.49
545.891	17.56
546.088	17.6
546.285	17.65
546.482	17.65
546.679	17.68
546.876	17.68
547.073	17.73
547.27	17.73
547.467	17.78
547.664	17.87
547.861	17.92
548.058	17.93
548.255	18.01
548.452	18.02
548.649	18.1
548.846	18.17
549.043	18.27
549.24	18.27
549.437	18.31
549.633	18.35
549.83	18.34
550.027	18.32
550.224	18.36
550.421	18.31
550.618	18.29
550.814	18.32
551.011	18.3
551.208	18.23
551.405	18.28
551.601	18.29
551.798	18.32
551.995	18.32
552.191	18.38
552.388	18.36
552.585	18.41
552.781	18.46
552.978	18.44
553.175	18.51
553.371	18.6
553.568	18.63
553.764	18.67
553.961	18.72
554.157	18.71
554.354	18.75
554.55	18.8
554.747	18.79
554.943	18.87
555.14	18.87
555.336	18.86
555.533	18.89
555.729	18.94
555.926	18.94
556.122	18.92
556.318	19
556.515	19.04
556.711	19.03
556.907	19.07
557.104	19.09
557.3	19.1
557.496	19.15
557.693	19.13
557.889	19.13
558.085	19.16
558.281	19.26
558.478	19.21
558.674	19.22
558.87	19.21
559.066	19.22
559.262	19.14
559.459	19.21
559.655	19.18
559.851	19.2
560.047	19.25
560.243	19.3
560.439	19.26
560.635	19.35
560.831	19.38
561.027	19.45
561.223	19.5
561.419	19.57
561.615	19.6
561.811	19.65
562.007	19.68
562.203	19.65
562.399	19.63
562.595	19.61
562.791	19.64
562.987	19.6
563.183	19.6
563.379	19.6
563.575	19.6
563.771	19.62
563.966	19.62
564.162	19.67
564.358	19.66
564.554	19.63
564.75	19.65
564.945	19.68
565.141	19.71
565.337	19.68
565.533	19.7
565.728	19.73
565.924	19.72
566.12	19.73
566.315	19.74
566.511	19.79
566.707	19.81
566.902	19.84
567.098	19.85
567.293	19.83
567.489	19.89
567.684	19.87
567.88	19.86
568.076	19.9
568.271	19.98
568.467	19.96
568.662	19.96
568.858	19.97
569.053	19.97
569.248	19.98
569.444	20.03
569.639	20.03
569.835	20.06
570.03	20.13
570.225	20.1
570.421	20.11
570.616	20.14
570.812	20.14
571.007	20.14
571.202	20.14
571.397	20.11
571.593	20.07
571.788	20.1
571.983	20.13
572.178	20.08
572.374	20.14
572.569	20.07
572.764	20.03
572.959	20
573.154	20.04
573.35	20.05
573.545	20.1
573.74	20.13
573.935	20.16
574.13	20.14
574.325	20.16
574.52	20.16
574.715	20.2
574.91	20.22
575.105	20.3
575.3	20.33
575.495	20.37
575.69	20.36
575.885	20.42
576.08	20.42
576.275	20.48
576.47	20.5
576.665	20.44
576.86	20.48
577.055	20.46
577.25	20.41
577.444	20.37
577.639	20.37
577.834	20.34
578.029	20.34
578.224	20.26
578.418	20.27
578.613	20.29
578.808	20.3
579.003	20.27
579.197	20.33
579.392	20.36
579.587	20.4
579.781	20.35
579.976	20.44
580.171	20.42
580.365	20.47
580.56	20.47
580.755	20.45
580.949	20.53
581.144	20.54
581.338	20.56
581.533	20.59
581.727	20.56
581.922	20.56
582.116	20.49
582.311	20.41
582.505	20.48
582.7	20.44
582.894	20.48
583.089	20.45
583.283	20.47
583.478	20.52
583.672	20.48
583.866	20.49
584.061	20.56
584.255	20.62
584.449	20.67
584.644	20.6
584.838	20.66
585.032	20.7
585.226	20.74
585.421	20.76
585.615	20.75
585.809	20.78
586.003	20.81
586.198	20.75
586.392	20.77
586.586	20.78
586.78	20.8
586.974	20.8
587.168	20.68
587.363	20.64
587.557	20.62
587.751	20.56
587.945	20.61
588.139	20.71
588.333	20.79
588.527	20.79
588.721	20.84
588.915	20.88
589.109	20.86
589.303	20.98
589.497	21.01
589.691	20.97
589.885	21.03
590.079	21.04
590.273	21
590.466	21.04
590.66	21
590.854	21.01
591.048	20.98
591.242	20.94
591.436	20.92
591.629	20.92
591.823	20.99
592.017	21.01
592.211	20.98
592.404	20.94
592.598	20.8
592.792	20.82
592.986	20.78
593.179	20.78
593.373	20.79
593.567	20.77
593.76	20.77
593.954	20.79
594.147	20.79
594.341	20.76
594.535	20.81
594.728	20.9
594.922	20.92
595.115	20.93
595.309	20.95
595.502	21.02
595.696	21.06
595.889	21.1
596.083	21.08
596.276	21.08
596.47	21.13
596.663	21.18
596.856	21.18
597.05	21.19
597.243	21.2
597.437	21.26
597.63	21.24
597.823	21.32
598.017	21.25
598.21	21.28
598.403	21.28
598.596	21.27
598.79	21.2
598.983	21.22
599.176	21.21
599.369	21.22
599.563	21.2
599.756	21.22
599.949	21.14
600.142	21.14
600.335	21.13
600.528	21.11
600.722	21.14
600.915	21.17
601.108	21.14
601.301	21.17
601.494	21.27
601.687	21.22
601.88	21.22
602.073	21.19
602.266	21.22
602.459	21.26
602.652	21.25
602.845	21.25
603.038	21.22
603.231	21.25
603.424	21.19
603.617	21.18
603.809	21.2
604.002	21.23
604.195	21.32
604.388	21.3
604.581	21.29
604.774	21.31
604.966	21.26
605.159	21.29
605.352	21.29
605.545	21.35
605.737	21.29
605.93	21.31
606.123	21.28
606.316	21.21
606.508	21.28
606.701	21.35
606.894	21.33
607.086	21.45
607.279	21.47
607.471	21.48
607.664	21.43
607.857	21.49
608.049	21.49
608.242	21.51
608.434	21.47
608.627	21.41
608.819	21.37
609.012	21.41
609.204	21.42
609.397	21.41
609.589	21.4
609.782	21.5
609.974	21.5
610.166	21.55
610.359	21.6
610.551	21.6
610.743	21.65
610.936	21.66
611.128	21.6
611.32	21.58
611.513	21.57
611.705	21.57
611.897	21.54
612.09	21.53
612.282	21.45
612.474	21.43
612.666	21.53
612.858	21.54
613.051	21.56
613.243	21.58
613.435	21.62
613.627	21.7
613.819	21.75
614.011	21.9
614.203	21.89
614.395	21.95
614.588	21.89
614.78	21.87
614.972	21.94
615.164	21.97
615.356	22.04
615.548	22
615.74	22.01
615.932	21.96
616.124	21.77
616.315	21.78
616.507	21.8
616.699	21.81
616.891	21.78
617.083	21.79
617.275	21.83
617.467	21.86
617.659	21.86
617.85	21.8
618.042	21.88
618.234	21.87
618.426	21.93
618.618	22.02
618.809	22.02
619.001	22.06
619.193	22.07
619.384	22.07
619.576	22.03
619.768	22.11
619.959	22.12
620.151	22.1
620.343	22.18
620.534	22.16
620.726	22.06
620.917	22.1
621.109	22.09
621.301	22
621.492	21.94
621.684	21.99
621.875	21.88
622.067	21.88
622.258	21.9
622.45	21.88
622.641	21.83
622.832	21.83
623.024	21.78
623.215	21.85
623.407	21.9
623.598	21.88
623.789	21.84
623.981	21.87
624.172	21.88
624.363	21.81
624.555	21.82
624.746	21.91
624.937	21.92
625.129	21.96
625.32	21.96
625.511	22
625.702	21.96
625.893	21.92
626.085	21.91
626.276	21.87
626.467	21.93
626.658	21.98
626.849	21.99
627.04	21.99
627.231	22.02
627.422	21.96
627.614	21.85
627.805	21.89
627.996	21.89
628.187	21.9
628.378	21.88
628.569	21.82
628.76	21.78
628.951	21.69
629.142	21.69
629.332	21.73
629.523	21.75
629.714	21.8
629.905	21.84
630.096	21.86
630.287	21.86
630.478	21.9
630.669	21.95
630.859	21.95
631.05	21.9
631.241	21.94
631.432	21.9
631.623	21.97
631.813	21.99
632.004	21.92
632.195	21.91
632.385	21.95
632.576	21.99
632.767	21.96
632.957	21.92
633.148	22.02
633.339	21.98
633.529	21.96
633.72	21.82
633.91	21.8
634.101	21.79
634.292	21.85
634.482	21.82
634.673	21.86
634.863	21.94
635.054	22.01
635.244	21.96
635.435	22
635.625	22
635.815	21.99
636.006	22.02
636.196	22.07
636.387	22.02
636.577	22.01
636.767	21.94
636.958	22.03
637.148	22.1
637.338	22.22
637.529	22.11
637.719	22.08
637.909	22.2
638.099	22.25
638.29	22.25
638.48	22.31
638.67	22.36
638.86	22.38
639.05	22.36
639.241	22.19
639.431	22.05
639.621	22.09
639.811	22.16
640.001	22.14
640.191	22.02
640.381	21.96
640.571	21.93
640.761	21.84
640.951	21.79
641.141	21.65
641.331	21.69
641.521	21.76
641.711	21.75
641.901	21.66
642.091	21.59
642.281	21.63
642.471	21.71
642.661	21.69
642.851	21.83
643.041	21.9
643.231	21.92
643.42	21.91
643.61	21.96
643.8	22.07
643.99	22.12
644.18	22.2
644.369	22.24
644.559	22.28
644.749	22.23
644.939	22.15
645.128	22.17
645.318	22.24
645.508	22.26
645.697	22.15
645.887	22.1
646.076	22.17
646.266	22.14
646.456	22.17
646.645	22.11
646.835	22.13
647.024	22.1
647.214	22.13
647.403	22.04
647.593	22.02
647.782	22.11
647.972	22.18
648.161	22.09
648.351	22.14
648.54	22.11
648.73	22.13
648.919	22.23
649.108	22.17
649.298	22.15
649.487	22.2
649.677	22.15
649.866	22.19
650.055	22.14
650.244	22.14
650.434	22.15
650.623	22.14
650.812	22.14
651.002	22.06
651.191	22.15
651.38	22.13
651.569	22.12
651.758	22.13
651.947	22.15
652.137	22.13
652.326	22.1
652.515	22.06
652.704	22.12
652.893	22.16
653.082	22.19
653.271	22.18
653.46	22.17
653.649	22.2
653.838	22.27
654.027	22.25
654.216	22.27
654.405	22.41
654.594	22.41
654.783	22.38
654.972	22.29
655.161	22.35
655.35	22.35
655.539	22.38
655.728	22.48
655.916	22.46
656.105	22.44
656.294	22.5
656.483	22.4
656.672	22.46
656.86	22.39
657.049	22.46
657.238	22.39
657.427	22.44
657.615	22.35
657.804	22.28
657.993	22.33
658.181	22.31
658.37	22.24
658.559	22.31
658.747	22.21
658.936	22.27
659.125	22.22
659.313	22.18
659.502	22.19
659.69	22.22
659.879	22.19
660.067	22.15
660.256	22.13
660.444	22.15
660.633	22.1
660.821	22.23
661.01	22.24
661.198	22.27
661.387	22.33
661.575	22.29
661.763	22.42
661.952	22.42
662.14	22.41
662.328	22.39
662.517	22.36
662.705	22.23
662.893	22.23
663.082	22.35
663.27	22.35
663.458	22.4
663.646	22.39
663.834	22.33
664.023	22.27
664.211	22.35
664.399	22.39
664.587	22.33
664.775	22.42
664.963	22.35
665.152	22.25
665.34	22.23
665.528	22.2
665.716	22.26
665.904	22.14
666.092	22.24
666.28	22.12
666.468	22.05
666.656	22.09
666.844	22.18
667.032	22.18
667.22	22.09
667.408	22.12
667.596	22.24
667.784	22.18
667.971	22.2
668.159	22.15
668.347	22.19
668.535	22.2
668.723	22.25
668.911	22.29
669.098	22.23
669.286	22.23
669.474	22.24
669.662	22.05
669.849	22.1
670.037	22.17
670.225	22.15
670.413	22.19
670.6	22.22
670.788	22.18
670.976	22.13
671.163	22.14
671.351	22.11
671.538	22.02
671.726	22.12
671.913	22.08
672.101	22.06
672.289	22.08
672.476	21.97
672.664	22.01
672.851	22.08
673.039	22.08
673.226	22.11
673.413	22.11
673.601	22.1
673.788	22.1
673.976	22.05
674.163	22.14
674.35	22.2
674.538	22.24
674.725	22.17
674.912	22.13
675.1	22.14
675.287	22.28
675.474	22.31
675.662	22.36
675.849	22.36
676.036	22.43
676.223	22.37
676.411	22.25
676.598	22.23
676.785	22.32
676.972	22.38
677.159	22.35
677.346	22.17
677.533	22.23
677.721	22.25
677.908	22.16
678.095	22.12
678.282	22.13
678.469	22.23
678.656	22.41
678.843	22.4
679.03	22.56
679.217	22.54
679.404	22.55
679.591	22.48
679.778	22.59
679.964	22.74
680.151	22.77
680.338	22.77
680.525	22.76
680.712	22.76
680.899	22.75
681.086	22.6
681.272	22.61
681.459	22.67
681.646	22.73
681.833	22.69
682.02	22.58
682.206	22.67
682.393	22.72
682.58	22.74
682.766	22.77
682.953	22.88
683.14	22.92
683.326	22.89
683.513	23.03
683.7	23.09
683.886	23.02
684.073	23.12
684.259	23.06
684.446	23.13
684.632	23.21
684.819	23.01
685.005	22.89
685.192	22.8
685.378	22.86
685.565	22.77
685.751	22.65
685.938	22.62
686.124	22.73
686.31	22.63
686.497	22.5
686.683	22.38
686.87	22.51
687.056	22.57
687.242	22.59
687.429	22.62
687.615	22.72
687.801	22.81
687.987	22.92
688.174	22.74
688.36	22.8
688.546	22.82
688.732	22.76
688.918	22.61
689.105	22.57
689.291	22.55
689.477	22.57
689.663	22.52
689.849	22.45
690.035	22.57
690.221	22.58
690.407	22.71
690.593	22.76
690.779	22.87
690.965	22.98
691.151	22.92
691.337	23.03
691.523	23.05
691.709	23.09
691.895	23.12
692.081	22.98
692.267	23.06
692.453	22.89
692.639	23.02
692.825	23.05
693.011	23.05
693.196	23.21
693.382	23.03
693.568	22.94
693.754	22.88
693.94	22.86
694.125	22.8
694.311	22.71
694.497	22.74
694.682	22.64
694.868	22.6
695.054	22.51
695.239	22.43
695.425	22.49
695.611	22.55
695.796	22.53
695.982	22.44
696.168	22.43
696.353	22.42
696.539	22.44
696.724	22.36
696.91	22.37
697.095	22.44
697.281	22.46
697.466	22.5
697.652	22.51
697.837	22.49
698.023	22.57
698.208	22.64
698.393	22.73
698.579	22.69
698.764	22.7
698.949	22.69
699.135	22.67
699.32	22.62
699.505	22.6
699.691	22.56
699.876	22.49
700.061	22.51
700.246	22.49
700.432	22.42
700.617	22.36
700.802	22.31
700.987	22.39
701.172	22.14
701.358	22.08
701.543	22.23
701.728	22.23
701.913	22.4
702.098	22.44
702.283	22.49
702.468	22.48
702.653	22.62
702.838	22.8
703.023	22.76
703.208	23.04
703.393	23.14
703.578	23.09
703.763	23.11
703.948	23.11
704.133	23.13
704.318	23.1
704.503	23.23
704.688	23.32
704.873	23.11
705.057	23
705.242	22.9
705.427	22.68
705.612	22.55
705.797	22.57
705.981	22.55
706.166	22.51
706.351	22.26
706.536	22.1
706.72	22.07
706.905	22.25
707.09	22.41
707.274	22.47
707.459	22.71
707.644	22.86
707.828	22.84
708.013	22.8
708.197	22.75
708.382	23.12
708.567	23.19
708.751	23.18
708.936	23
709.12	22.91
709.305	23.04
709.489	23.05
709.673	23.05
709.858	23.04
710.042	23.03
710.227	23.14
710.411	23.11
710.596	23.03
710.78	22.99
710.964	23.18
711.149	23.25
711.333	23.17
711.517	23.12
711.702	23.16
711.886	23.13
712.07	23.16
712.254	23.13
712.438	22.96
712.623	23.08
712.807	23.16
712.991	23.08
713.175	23.14
713.359	23.17
713.544	23.19
713.728	22.95
713.912	23.05
714.096	23.13
714.28	23.24
714.464	23.27
714.648	23.22
714.832	23.24
715.016	23.32
715.2	23.21
715.384	23.37
715.568	23.41
715.752	23.4
715.936	23.39
716.12	23.37
716.304	23.26
716.488	23.23
716.671	23.27
716.855	23.3
717.039	23.35
717.223	23.45
717.407	23.41
717.59	23.51
717.774	23.72
717.958	23.78
718.142	23.75
718.325	23.72
718.509	23.83
718.693	23.67
718.877	23.53
719.06	23.51
719.244	23.52
719.428	23.43
719.611	23.32
719.795	23.13
719.978	23.21
720.162	23.15
720.345	23.22
720.529	23.18
720.713	23.29
720.896	23.33
721.08	23.23
721.263	23.24
721.446	23.27
721.63	23.35
721.813	23.45
721.997	23.31
722.18	23.36
722.364	23.36
722.547	23.36
722.73	23.24
722.914	23.25
723.097	23.32
723.28	23.29
723.464	23.2
723.647	23.37
723.83	23.63
724.013	23.55
724.197	23.89
724.38	23.9
724.563	23.95
724.746	24.1
724.929	24.22
725.112	24.35
725.296	24.26
725.479	24.29
725.662	24.21
725.845	24.04
726.028	23.95
726.211	23.66
726.394	23.65
726.577	23.44
726.76	23.22
726.943	23.15
727.126	23.17
727.309	23.23
727.492	23.27
727.675	23.18
727.858	23.07
728.041	23.29
728.224	23.5
728.407	23.29
728.589	23.53
728.772	23.72
728.955	23.78
729.138	23.65
729.321	23.65
729.503	23.77
729.686	23.77
729.869	23.73
730.052	23.6
730.234	23.3
730.417	23.52
730.6	23.5
730.782	23.4
730.965	23.27
731.148	23.37
731.33	23.26
731.513	23.11
731.695	23.1
731.878	23.25
732.061	23.12
732.243	23.35
732.426	23.34
732.608	23.33
732.791	23.33
732.973	23.41
733.156	23.34
733.338	23.19
733.52	23.26
733.703	23.32
733.885	23.34
734.068	23.42
734.25	23.36
734.432	23.19
734.615	23.15
734.797	23.02
734.979	22.8
735.162	22.72
735.344	23.1
735.526	23.07
735.708	22.9
735.891	23.03
736.073	23.07
736.255	22.88
736.437	23
736.619	23.01
736.802	23.3
736.984	23.45
737.166	23.7
737.348	23.8
737.53	23.79
737.712	23.88
737.894	23.8
738.076	23.84
738.258	23.99
738.44	24.1
738.622	24.06
738.804	24.1
738.986	24.17
739.168	23.98
739.35	23.79
739.532	23.72
739.714	23.96
739.896	23.81
740.078	23.92
740.259	23.88
740.441	23.88
740.623	23.89
740.805	24.01
740.987	24.08
741.168	23.86
741.35	23.85
741.532	24.05
741.714	23.84
741.895	24.08
742.077	24.05
742.259	24.16
742.44	24.01
742.622	24.13
742.804	23.92
742.985	23.92
743.167	24.11
743.348	24.14
743.53	23.81
743.711	23.69
743.893	23.62
744.075	23.53
744.256	23.54
744.438	23.59
744.619	23.66
744.8	23.73
744.982	23.61
745.163	23.38
745.345	23.41
745.526	23.72
745.707	23.97
745.889	23.81
746.07	23.91
746.252	23.96
746.433	24.03
746.614	23.87
746.795	23.54
746.977	23.67
747.158	24.13
747.339	23.98
747.52	23.96
747.702	23.71
747.883	23.71
748.064	23.97
748.245	23.84
748.426	23.7
748.607	23.72
748.788	24.03
748.97	23.95
749.151	23.68
749.332	23.98
749.513	23.75
749.694	24.04
749.875	24.25
750.056	23.98
750.237	23.8
750.418	23.96
750.599	23.95
750.78	24.14
750.96	24.14
751.141	24.01
751.322	23.93
751.503	24.07
751.684	24.08
751.865	23.79
752.046	23.66
752.226	24.08
752.407	24.12
752.588	24.11
752.769	24.1
752.949	23.97
753.13	24.26
753.311	24.01
753.492	24.06
753.672	24.39
753.853	24.78
754.034	24.92
754.214	24.65
754.395	24.43
754.575	24.52
754.756	24.23
754.937	24.18
755.117	24.1
755.298	24.54
755.478	24.27
755.659	23.6
755.839	23.2
756.02	23.28
756.2	23.14
756.381	23
756.561	22.94
756.741	23.43
756.922	23.57
757.102	23.51
757.283	23.43
757.463	23.76
757.643	24.11
757.823	24.18
758.004	23.85
758.184	23.95
758.364	24.44
758.545	24.41
758.725	24.17
758.905	24.24
759.085	24.19
759.265	24.28
759.446	23.86
759.626	24.02
759.806	24.14
759.986	24.35
760.166	24.49
760.346	24.39
760.526	24.51
760.706	24.58
760.886	24.44
761.066	24.66
761.246	24.35
761.426	24.76
761.606	24.47
761.786	24.35
761.966	24.28
762.146	24.28
762.326	24.31
762.506	24.41
762.686	24.37
762.866	24.44
763.046	24.21
763.225	24.15
763.405	23.97
763.585	23.95
763.765	23.87
763.945	23.78
764.124	23.74
764.304	23.69
764.484	23.48
764.664	23.32
764.843	23.3
765.023	23.34
765.203	23.36
765.382	23.28
765.562	23.31
765.741	23.35
765.921	23.48
766.101	23.56
766.28	23.46
766.46	23.5
766.639	23.64
766.819	23.79
766.998	23.99
767.178	24.05
767.357	24.17
767.537	24.18
767.716	24.3
767.896	24.09
768.075	23.82
768.254	23.45
768.434	23.77
768.613	23.87
768.792	23.6
768.972	23.5
769.151	23.44
769.33	23.33
769.51	23.63
769.689	23.86
769.868	24.42
770.047	25.06
770.226	25.61
770.406	25.26
770.585	25.07
770.764	25.25
770.943	25.29
771.122	25.33
771.301	25.85
771.48	25.6
771.66	25.38
771.839	24.93
772.018	24.49
772.197	24.49
772.376	24.67
772.555	24.5
772.734	24.4
772.913	24.42
773.092	24.05
773.271	23.32
773.449	23.36
773.628	23.86
773.807	24.09
773.986	23.85
774.165	23.67
774.344	23.6
774.523	23.62
774.701	23.72
774.88	23.8
775.059	24.16
775.238	24.56
775.417	24.44
775.595	24.05
775.774	24.07
775.953	24.37
776.131	24.16
776.31	24.02
776.489	23.93
776.667	23.7
776.846	23
777.025	23.06
777.203	22.9
777.382	23.39
777.56	23.28
777.739	23.47
777.917	22.9
778.096	22.94
778.274	23.23
778.453	23.61
778.631	24.11
778.81	24.52
778.988	24.58
779.166	24.21
779.345	23.94
779.523	23.95
779.702	23.99
779.88	24.59
780.058	24.71
780.237	24.48
780.415	24.58
780.593	24.42
780.771	24.82
780.95	25.33
781.128	25.68
781.306	25.51
781.484	25.75
781.662	24.99
781.841	25.13
782.019	25.39
782.197	25.58
782.375	25.66
782.553	26.01
782.731	25.95
782.909	25.47
783.087	26.11
783.265	26.58
783.443	26.18
783.621	26.83
783.799	26.94
783.977	26.91
784.155	26.55
784.333	26.77
784.511	25.72
784.689	25.85
784.867	25.97
785.045	25.47
785.223	24.89
785.4	24.94
785.578	24.88
785.756	24.02
785.934	23.87
786.112	24.32
786.289	23.96
786.467	24.15
786.645	23.61
786.823	23.6
787	24.15
787.178	24.09
787.356	24.16
787.533	24.24
787.711	24.67
787.889	24.69
788.066	24.78
788.244	24.86
788.421	25.4
788.599	25.64
788.776	25.6
788.954	25.27
789.131	25.79
789.309	25.62
789.486	25.5
789.664	25.63
789.841	25.91
790.019	25.56
790.196	25.36
790.373	24.87
790.551	24.96
790.728	25.07
790.906	25.24
791.083	24.43
791.26	24.6
791.437	24.89
791.615	24.42
791.792	24.35
791.969	24.39
792.146	24.51
792.324	24.92
792.501	25.27
792.678	25.36
792.855	24.75
793.032	25.43
793.209	25.76
793.387	25.56
793.564	26.18
793.741	26.05
793.918	26.06
794.095	25.57
794.272	25.28
794.449	24.26
794.626	24.12
794.803	24.6
794.98	24.2
795.157	24.09
795.334	24.03
795.511	23.59
795.688	23.76
795.864	23.4
796.041	23.51
796.218	24.26
796.395	24.81
796.572	24.57
796.749	24.15
796.925	24.76
797.102	24.72
797.279	24.73
797.456	24.86
797.632	24.75
797.809	25.59
797.986	26.15
798.162	25.27
798.339	25.13
798.516	25.96
798.692	26.31
798.869	25.43
799.046	25.26
799.222	25.37
799.399	25.5
799.575	24.97
799.752	24.73
799.928	24.68
800.105	25.25
800.281	25.05
800.458	24.55
800.634	24.3
800.811	24.31
800.987	24.52
801.163	24.42
801.34	24.64
801.516	24.94
801.692	25.21
801.869	25.18
802.045	25.1
802.221	25.27
802.398	25.15
802.574	25.81
802.75	26.54
802.926	26.74
803.103	27.09
803.279	26.74
803.455	27.04
803.631	26.41
803.807	26.79
803.983	27.69
804.16	28.32
804.336	28.65
804.512	28.5
804.688	28.14
804.864	28.32
805.04	28.28
805.216	28.79
805.392	29.3
805.568	29.34
805.744	29.03
805.92	28.67
806.096	28.32
806.272	28.21
806.448	28.03
806.623	28.77
806.799	28.45
806.975	28.76
807.151	28.22
807.327	27.18
807.503	26.88
807.678	26.78
807.854	26.32
808.03	26.44
808.206	26.75
808.381	26.95
808.557	26.46
808.733	26.65
808.908	25.67
809.084	26.55
809.26	27.13
809.435	27.14
809.611	27.08
809.787	27.08
809.962	26.96
810.138	26.97
810.313	26.6
810.489	26.42
810.664	26.31
810.84	26.36
811.015	26.97
811.191	26.85
811.366	27.51
811.542	27.87
811.717	27.98
811.892	29.18
812.068	28.82
812.243	29.22
812.419	29.53
812.594	29.23
812.769	29.87
812.944	29
813.12	29.1
813.295	28.95
813.47	28.95
813.645	29.07
813.821	28.04
813.996	28.34
814.171	28.31
814.346	27.84
814.521	28.53
814.697	28.7
814.872	28.3
815.047	28.31
815.222	28.68
815.397	27.48
815.572	26.8
815.747	26.93
815.922	27.14
816.097	26.9
816.272	27.56
816.447	27.26
816.622	27.06
816.797	26.89
816.972	26.83
817.147	25.96
817.322	26.22
817.496	26.25
817.671	26.23
817.846	25.57
818.021	25.54
818.196	25.83
818.371	25.65
818.545	25.71
818.72	26.29
818.895	25.92
819.069	26.05
819.244	26.74
819.419	26.67
819.594	26.32
819.768	26
819.943	25.35
820.117	24.99
820.292	24.76
820.467	24.82
820.641	24.4
820.816	24.49
820.99	24.49
821.165	24.29
821.339	24.22
821.514	24.36
821.688	24.32
821.863	24.24
822.037	24.1
822.212	24.18
822.386	24.08
822.56	24.07
822.735	24.15
822.909	24.13
823.084	24.03
823.258	23.99
823.432	23.75
823.606	23.89
823.781	24.19
823.955	24.36
824.129	24.32
824.303	24.14
824.478	24.3
824.652	24.01
824.826	23.8
825	24.02
825.174	24.05
825.348	24.06
825.523	23.75
825.697	23.88
825.871	23.93
826.045	24.01
826.219	24.18
826.393	24.27
826.567	24.47
826.741	24.83
826.915	24.6
827.089	24.74
827.263	25
827.437	25.27
827.611	25.18
827.784	25.23
827.958	25.35
828.132	25.36
828.306	25.2
828.48	25.28
828.654	24.95
828.827	25.15
829.001	25.09
829.175	24.75
829.349	25.09
829.522	24.67
829.696	24.95
829.87	25.1
830.044	25.92
830.217	26.22
830.391	26.06
830.565	26.05
830.738	26.82
830.912	26.32
831.085	26.46
831.259	26.47
831.432	26.97
831.606	26.89
831.779	26.07
831.953	25.41
832.126	25.73
832.3	25.47
832.473	25.79
832.647	25.21
832.82	25.33
832.994	25.22
833.167	24.9
833.34	25
833.514	25.07
833.687	25.25
833.86	25.22
834.034	24.96
834.207	25.09
834.38	25.04
834.553	25.35
834.727	25.56
834.9	25.62
835.073	26.03
835.246	26.3
835.419	26.23
835.593	26.66
835.766	26.85
835.939	27
836.112	26.99
836.285	27.17
836.458	27.62
836.631	27.98
836.804	28.38
836.977	27
837.15	26.78
837.323	26.38
837.496	26.38
837.669	25.91
837.842	26.58
838.015	27.67
838.188	27.14
838.361	26.43
838.533	25.82
838.706	26.49
838.879	28.3
839.052	27.34
839.225	28.49
839.398	28.8
839.57	29.99
839.743	29.68
839.916	28.64
840.088	29.72
840.261	29.92
840.434	30.46
840.607	30.26
840.779	31.01
840.952	32.11
841.124	30.6
841.297	31.21
841.47	31.57
841.642	30.87
841.815	31.91
841.987	31.35
842.16	31.17
842.332	32
842.505	32.23
842.677	30.46
842.85	28.93
843.022	29.55
843.194	29.33
843.367	28.05
843.539	29.08
843.712	29.77
843.884	30.52
844.056	33.88
844.229	35.28
844.401	34.95
844.573	34.38
844.745	37.18
844.918	37.17
845.09	35.83
845.262	36.14
845.434	36.94
845.606	35.69
845.779	35.38
845.951	31.97
846.123	30.54
846.295	29.98
846.467	31.87
846.639	31.45
846.811	31.91
846.983	31.2
847.155	31.37
847.327	30.88
847.499	31.02
847.671	31.83
847.843	32.37
848.015	30.68
848.187	32.66
848.359	30.2
848.531	29.88
848.703	29.81
848.875	30.88
849.047	30.45
849.218	31.48
849.39	30.66
849.562	29.43
849.734	29.93
849.905	31.38
850.077	30.56
850.249	30.49
850.421	27.78
850.592	26.59
850.764	27.96
850.936	30.22
851.107	29.74
851.279	29.31
851.451	28.68
851.622	27.89
851.794	27.93
851.965	28.71
852.137	29.89
852.308	32.14
852.48	34.82
852.651	33.39
852.823	34.06
852.994	33.44
853.166	36.79
853.337	37.76
853.509	37.69
853.68	38.04
853.851	37.59
854.023	38.6
854.194	38.89
854.365	37.68
854.537	37.72
854.708	35.02
854.879	35.8
855.05	33.41
855.222	33.96
855.393	33.93
855.564	31.77
855.735	30.14
855.906	28.77
856.078	27.85
856.249	27.66
856.42	27.12
856.591	29.19
856.762	28.08
856.933	28.15
857.104	27.81
857.275	28.18
857.446	30.79
857.617	32.77
857.788	34.84
857.959	37.28
858.13	38.16
858.301	40.75
858.472	37.04
858.643	38.57
858.814	40.68
858.985	42.87
859.155	44.85
859.326	45.55
859.497	45.07
859.668	43.43
859.839	45.52
860.009	45.18
860.18	44.3
860.351	45.57
860.522	44.74
860.692	42.05
860.863	40.37
861.034	39.59
861.204	37.76
861.375	37.66
861.546	37.67
861.716	33.51
861.887	35.24
862.057	34.79
862.228	34.54
862.398	33.81
862.569	34.8
862.739	35.96
862.91	35.21
863.08	35.28
863.251	35.38
863.421	35.9
863.592	38.1
863.762	37.42
863.932	36.59
864.103	38.03
864.273	38.07
864.443	39.14
864.614	39.54
864.784	40.05
864.954	40.83
865.125	42.8
865.295	43.61
865.465	43.05
865.635	39.98
865.805	40.35
865.976	40.65
866.146	41.13
866.316	39.39
866.486	38.08
866.656	37.99
866.826	36.76
866.996	34.18
867.166	33.35
867.336	31.82
867.506	34.59
867.676	36.89
867.846	36.35
868.016	36.21
868.186	37.16
868.356	37.05
868.526	35.7
868.696	35.62
868.866	37.46
869.036	37.41
869.206	38.12
869.376	38.29
869.545	35.26
869.715	35.31
869.885	35.41
870.055	33.5
870.224	32.86
870.394	34.96
870.564	35.55
870.734	33.04
870.903	33.67
871.073	31.32
871.243	31.38
871.412	33.68
871.582	34.55
871.751	34.71
871.921	37.23
872.091	37.72
872.26	36.35
872.43	36.04
872.599	35.71
872.769	35.93
872.938	38.03
873.108	39.01
873.277	37.76
873.446	36.51
873.616	35.3
873.785	34.26
873.955	35.48
874.124	36.05
874.293	35.66
874.463	38.67
874.632	38.2
874.801	37.41
874.971	36.25
875.14	35.08
875.309	34.5
875.478	36.51
875.647	36.27
875.817	33.03
875.986	33.67
876.155	34.66
876.324	32.93
876.493	34.34
876.662	35.92
876.831	35.92
877	35.91
877.17	36.27
877.339	35.65
877.508	36.9
877.677	39.52
877.846	37.13
878.015	37.71
878.184	38.55
878.352	35.43
878.521	32.75
878.69	33.42
878.859	33.23
879.028	33.18
879.197	32.16
879.366	30.79
879.534	29.92
879.703	29.56
879.872	28.46
880.041	28.81
880.21	28.55
880.378	28.56
880.547	27.64
880.716	27.33
880.884	27.11
881.053	26.79
881.222	26.72
881.39	26.26
881.559	26.8
881.727	27
881.896	26.63
882.065	26.93
882.233	26.66
882.402	26.63
882.57	26.87
882.739	26.66
882.907	26.75
883.076	26.55
883.244	26.49
883.412	26.45
883.581	26.26
883.749	26.17
883.918	26.01
884.086	26.99
884.254	27.58
884.423	28.27
884.591	29.59
884.759	30.04
884.927	30.52
885.096	31.55
885.264	33.3
885.432	33.98
885.6	33.22
885.769	32.14
885.937	32.98
886.105	34.69
886.273	33.86
886.441	31.69
886.609	31.4
886.777	32.65
886.945	32.84
887.113	31.47
887.281	30.08
887.449	31.32
887.617	34.28
887.785	33.86
887.953	32.42
888.121	32.3
888.289	33.39
888.457	36.25
888.625	35.52
888.793	36.83
888.961	35.64
889.129	38.25
889.296	41.58
889.464	41.81
889.632	41.37
889.8	40.58
889.967	42.04
890.135	45.08
