Data from JASIL_2989_Reflection_03.txt Node
Date: Mon Nov 09 09:39:31 EST 2015
User: Geneva
Spectrometer: USB4E03002
Autoset integration time: false
Trigger mode: 4
Integration Time (sec): 1.000000E-1
Scans to average: 10
Electric dark correction enabled: false
Nonlinearity correction enabled: false
Boxcar width: 5
Stray light correction enabled: false
XAxis mode: Wavelengths
Stop averaging: false
Number of Pixels in Spectrum: 3648
>>>>>Begin Spectral Data<<<<<
177.575	-277.25
177.794	-263.27
178.014	-1257.69
178.233	-2074.07
178.452	918.59
178.672	3486.36
178.891	952.94
179.11	536.59
179.33	628.43
179.549	636.96
179.768	471.24
179.987	551.04
180.207	674.24
180.426	1105.56
180.645	1261.07
180.864	-1596.3
181.084	8257.89
181.303	-1104.1
181.522	-698.36
181.741	-1391.84
181.96	-589.66
182.179	-614.78
182.398	-2404.84
182.618	667.97
182.837	737.26
183.056	1334.92
183.275	1360
183.494	1219.74
183.713	928.23
183.932	871.43
184.151	730.92
184.37	357.04
184.589	629.84
184.808	638.69
185.027	1572.03
185.246	3538.33
185.465	993.33
185.684	1071.08
185.903	909.28
186.122	661.64
186.341	1243.82
186.56	970.9
186.779	-5895
186.998	1482.91
187.216	-15213.33
187.435	2821.95
187.654	1444
187.873	-2333.33
188.092	-12312.5
188.311	-2567.11
188.53	-1418.62
188.748	-1246.41
188.967	-990.66
189.186	-1101.32
189.405	-1895.35
189.623	-2489.06
189.842	-742.33
190.061	-494.46
190.28	-440.91
190.498	-586.17
190.717	-815.89
190.936	-622.39
191.154	-561.17
191.373	-488.57
191.592	-386.54
191.81	-365.27
192.029	-401.32
192.248	-583.5
192.466	-1134.36
192.685	1270.2
192.904	1564.1
193.122	1496.64
193.341	3842.5
193.559	4451.43
193.778	-1361.61
193.996	1362.96
194.215	1533.33
194.433	965.41
194.652	-3348.72
194.87	-5185.19
195.089	-1283.33
195.307	-698.73
195.526	-341.46
195.744	-677.41
195.963	-1535.11
196.181	-2440
196.399	-511.27
196.618	-656.54
196.836	15841.67
197.055	2802.9
197.273	-3824.44
197.491	3310.87
197.71	1332.35
197.928	460
198.146	611.16
198.365	461.22
198.583	472.67
198.801	313.47
199.019	371.59
199.238	566.11
199.456	488.85
199.674	685.96
199.892	658.96
200.111	823.11
200.329	980
200.547	1230.32
200.765	-14909.09
200.983	2931.15
201.202	-9405.56
201.42	1824.49
201.638	-1003.47
201.856	-1020.69
202.074	7565.38
202.292	-1978.41
202.51	6100
202.728	-3938.3
202.946	1573.53
203.165	1831.93
203.383	976.74
203.601	732.63
203.819	7476
204.037	1438.64
204.255	955.72
204.473	2083.53
204.691	4894.59
204.909	-5420.59
205.127	-2722.22
205.345	-4612.12
205.562	-4377.14
205.78	-566.94
205.998	-620.75
206.216	-1477.67
206.434	-1604.08
206.652	-636.63
206.87	-579.66
207.088	-486.3
207.306	-828.23
207.523	-1030.17
207.741	-694.34
207.959	-2461.54
208.177	-1737.17
208.395	-705.6
208.612	-511.78
208.83	-687.68
209.048	-2145.35
209.266	-5670.97
209.483	5005.71
209.701	-7871.43
209.919	1268.7
210.136	-27083.33
210.354	-1288.71
210.572	-4165.79
210.79	940.7
211.007	647.58
211.225	469.01
211.442	822.16
211.66	528.95
211.878	786.19
212.095	1183.33
212.313	2154.55
212.53	1316.41
212.748	2863.79
212.966	650.17
213.183	1447.15
213.401	2028.12
213.618	-2634.72
213.836	-1663.64
214.053	-555.63
214.271	-1047.47
214.488	-815.05
214.705	-492.05
214.923	-953.45
215.14	2236.49
215.358	-1034.84
215.575	-4364.1
215.793	-1717.98
216.01	3531.91
216.227	795.81
216.445	520.56
216.662	513.04
216.879	562.26
217.097	466.58
217.314	534.78
217.531	548.44
217.749	501.81
217.966	588.89
218.183	398.78
218.4	412.68
218.618	515.87
218.835	787.39
219.052	757.74
219.269	466.32
219.487	427.71
219.704	513.59
219.921	658.46
220.138	562.63
220.355	454.61
220.572	513.1
220.79	418.2
221.007	377.9
221.224	336.38
221.441	292.84
221.658	450.93
221.875	692.5
222.092	395.01
222.309	483.67
222.526	564.43
222.743	4278.95
222.96	5106.45
223.177	-2568.75
223.394	-779.5
223.611	-1123.68
223.828	-636.47
224.045	-1355.74
224.262	1570.37
224.479	-4931.25
224.696	-3310.42
224.913	-41050
225.13	964.53
225.347	815.24
225.564	650.96
225.781	409.85
225.997	265.3
226.214	228.91
226.431	201.94
226.648	194.99
226.865	160.68
227.082	126.89
227.298	112.88
227.515	113.04
227.732	106.86
227.949	106.8
228.165	104.34
228.382	116.14
228.599	113.17
228.816	106.85
229.032	118.68
229.249	130.25
229.466	137.17
229.682	153.24
229.899	141.48
230.116	168.13
230.332	205.04
230.549	270.83
230.765	327.43
230.982	241.47
231.199	381.6
231.415	235.74
231.632	241.05
231.848	285.06
232.065	254.19
232.281	239.37
232.498	194.98
232.714	166.77
232.931	175.45
233.147	168.71
233.364	172.95
233.58	150.86
233.797	173.32
234.013	181.24
234.23	167.55
234.446	156
234.662	182.08
234.879	226.81
235.095	212.39
235.312	182.35
235.528	165.16
235.744	176.69
235.961	165.54
236.177	149.34
236.393	146.87
236.61	158.67
236.826	168.9
237.042	155.67
237.258	148.6
237.475	156.67
237.691	152.27
237.907	169.45
238.123	166.71
238.339	181.42
238.556	201.98
238.772	189.84
238.988	163.07
239.204	147.74
239.42	146.03
239.636	138.6
239.853	129.56
240.069	115.31
240.285	100.62
240.501	94.33
240.717	82.08
240.933	73.59
241.149	69.92
241.365	69.06
241.581	71.59
241.797	65.02
242.013	61.88
242.229	63.86
242.445	61.93
242.661	64.43
242.877	71.58
243.093	80.14
243.309	77.68
243.525	77.83
243.741	79.05
243.957	77.52
244.173	78.62
244.388	73.45
244.604	63.89
244.82	63.54
245.036	59.48
245.252	51.97
245.468	46.27
245.683	46.57
245.899	47.18
246.115	44.26
246.331	41.18
246.547	38.54
246.762	40.07
246.978	40.16
247.194	41.63
247.409	42.57
247.625	45.85
247.841	53.13
248.057	57.94
248.272	63.06
248.488	70.76
248.703	80.28
248.919	91.1
249.135	92.93
249.35	102.11
249.566	102.69
249.782	98.57
249.997	95.95
250.213	79.44
250.428	80.04
250.644	78.6
250.859	73.95
251.075	74.47
251.29	74.74
251.506	83.74
251.721	85.19
251.937	84.62
252.152	86.66
252.368	89.55
252.583	104.58
252.798	112.91
253.014	123.67
253.229	135.92
253.445	125.26
253.66	118.27
253.875	110.63
254.091	102.16
254.306	99.64
254.521	99.85
254.737	106.48
254.952	108.72
255.167	104.88
255.383	93.52
255.598	90.15
255.813	82.91
256.028	79.48
256.244	69.92
256.459	66.53
256.674	64.76
256.889	55.85
257.104	47.32
257.32	44
257.535	38.1
257.75	35.24
257.965	32.18
258.18	33.46
258.395	32.6
258.61	32.19
258.826	31.44
259.041	30.64
259.256	32.24
259.471	30.63
259.686	29.12
259.901	33.77
260.116	36.51
260.331	38.52
260.546	41.77
260.761	45.13
260.976	49.83
261.191	54.03
261.406	55.08
261.621	57.77
261.836	66.3
262.05	69.24
262.265	67.22
262.48	66.3
262.695	67.5
262.91	65.18
263.125	62.72
263.34	63.22
263.555	61.24
263.769	57.27
263.984	55.01
264.199	51.86
264.414	53.31
264.629	53.14
264.843	52.34
265.058	49.93
265.273	53.59
265.488	51.71
265.702	51.11
265.917	51.62
266.132	55.79
266.346	56.68
266.561	56.57
266.776	59.23
266.99	58.36
267.205	58.09
267.42	60.29
267.634	60.61
267.849	59.39
268.063	59.08
268.278	55.53
268.492	59.32
268.707	54.91
268.922	53.51
269.136	51.45
269.351	50.47
269.565	49.38
269.78	50.2
269.994	46.47
270.209	50.91
270.423	50.03
270.637	50.55
270.852	46.54
271.066	50.44
271.281	50.65
271.495	50.12
271.709	48.29
271.924	49.93
272.138	50.18
272.353	50.69
272.567	47.73
272.781	47.77
272.996	46.02
273.21	44.25
273.424	40.96
273.638	41.85
273.853	42.88
274.067	41.81
274.281	41.32
274.495	39.74
274.71	40.12
274.924	43.24
275.138	41.31
275.352	40.67
275.566	43.09
275.781	44.47
275.995	43.86
276.209	41.87
276.423	48.07
276.637	50.49
276.851	52.27
277.065	54.75
277.279	49.71
277.493	50.52
277.707	53.44
277.921	50.08
278.135	52.08
278.349	52.63
278.563	53.87
278.777	49.99
278.991	48.44
279.205	46.21
279.419	44.38
279.633	44.66
279.847	44.9
280.061	42.72
280.275	45.38
280.489	43.31
280.703	43.15
280.917	41.05
281.131	40.75
281.344	38.73
281.558	38.06
281.772	36.69
281.986	37.77
282.2	38.95
282.414	39.21
282.627	37.42
282.841	36.46
283.055	36.55
283.269	37.05
283.482	35.82
283.696	36.12
283.91	35.45
284.123	33.34
284.337	32.63
284.551	31.47
284.764	32.06
284.978	33.34
285.192	34.24
285.405	34.41
285.619	34.93
285.833	36.85
286.046	37.73
286.26	38.73
286.473	39.47
286.687	39.03
286.9	39.33
287.114	39.29
287.327	36.23
287.541	35.86
287.754	36.14
287.968	34.52
288.181	33.92
288.395	34.16
288.608	34.87
288.822	36.5
289.035	36.9
289.248	37.74
289.462	38.45
289.675	40.73
289.889	39.81
290.102	38.55
290.315	40.18
290.529	39.93
290.742	38.2
290.955	40.12
291.169	40.37
291.382	42
291.595	40.37
291.808	41.03
292.022	40.76
292.235	39.91
292.448	40.23
292.661	41.08
292.875	39.88
293.088	40.04
293.301	35.33
293.514	33.79
293.727	31.93
293.94	29.85
294.153	28.88
294.367	28.64
294.58	30.28
294.793	28.97
295.006	29.07
295.219	28.77
295.432	29.75
295.645	31.49
295.858	29.69
296.071	26.96
296.284	28.92
296.497	29.16
296.71	29.01
296.923	28.16
297.136	28.01
297.349	28.37
297.562	28.59
297.775	28.14
297.988	27.97
298.201	31.48
298.414	36.86
298.626	36.9
298.839	35.03
299.052	36.32
299.265	38.74
299.478	37.74
299.691	37.48
299.903	37.6
300.116	36.37
300.329	37.8
300.542	37.67
300.755	37.76
300.967	38.89
301.18	42.91
301.393	44.33
301.605	43.52
301.818	45.89
302.031	44.01
302.243	45.26
302.456	47.46
302.669	48.27
302.881	48.64
303.094	49.3
303.307	47.46
303.519	43.56
303.732	41.44
303.944	43.13
304.157	42.53
304.37	43.61
304.582	41.66
304.795	43.94
305.007	43.28
305.22	40.86
305.432	40.51
305.645	41.86
305.857	48.01
306.069	47.31
306.282	47.21
306.494	45.88
306.707	46.82
306.919	46.6
307.132	43.34
307.344	42.53
307.556	44.08
307.769	41.72
307.981	41.15
308.193	36.42
308.406	36.09
308.618	32.79
308.83	33.18
309.043	31.48
309.255	31.35
309.467	28.65
309.679	26.77
309.892	27.02
310.104	25.77
310.316	27.3
310.528	28.18
310.74	29.14
310.953	32.46
311.165	33.11
311.377	36.27
311.589	37.39
311.801	41.61
312.013	43.54
312.225	44.92
312.437	47.95
312.649	47.5
312.862	47.92
313.074	47
313.286	43.02
313.498	40.99
313.71	38.3
313.922	38.25
314.134	36.93
314.346	35.59
314.558	34.26
314.77	31
314.982	32.72
315.193	34.6
315.405	35.77
315.617	37.23
315.829	38.34
316.041	39.59
316.253	39.64
316.465	41.92
316.677	45.53
316.888	46.41
317.1	45.71
317.312	43.67
317.524	42.07
317.736	38.73
317.947	39.74
318.159	41.31
318.371	43.5
318.583	44.2
318.794	43.94
319.006	42.96
319.218	40.69
319.43	43.26
319.641	43.9
319.853	41.35
320.064	47
320.276	51.46
320.488	52.44
320.699	50.75
320.911	51.55
321.123	54.11
321.334	55.84
321.546	58.41
321.757	57.53
321.969	58.4
322.18	59.07
322.392	56.16
322.603	52.39
322.815	50.55
323.026	46.77
323.238	45.99
323.449	42.58
323.661	41.03
323.872	37.9
324.083	38.19
324.295	37.79
324.506	36.39
324.718	37
324.929	35.76
325.14	37.41
325.352	40.82
325.563	39.82
325.774	39.01
325.986	41.3
326.197	41.32
326.408	39.83
326.62	40.75
326.831	41.8
327.042	41.24
327.253	42.96
327.464	42.85
327.676	40.11
327.887	40.18
328.098	39.16
328.309	33.45
328.52	32.99
328.732	36.1
328.943	36.1
329.154	38.55
329.365	38.92
329.576	38.06
329.787	39.45
329.998	43.31
330.209	44.6
330.42	47.77
330.631	48.03
330.842	47.29
331.053	44.53
331.264	42.8
331.475	43.58
331.686	42.33
331.897	41.91
332.108	41.15
332.319	42.09
332.53	41.14
332.741	41.03
332.952	43.83
333.163	47.12
333.374	47.31
333.585	49.18
333.795	48.22
334.006	48.7
334.217	47.62
334.428	47.03
334.639	45.16
334.849	47.26
335.06	46.97
335.271	43.31
335.482	42.3
335.692	41.45
335.903	40.89
336.114	40.08
336.325	41.83
336.535	41.54
336.746	42.02
336.957	41.19
337.167	39.39
337.378	40.31
337.589	42.49
337.799	43.45
338.01	48.41
338.22	48.4
338.431	50.36
338.642	48.89
338.852	51.21
339.063	49.52
339.273	50.6
339.484	51.8
339.694	47.3
339.905	46.28
340.115	45.31
340.326	39.05
340.536	40.48
340.746	39.72
340.957	41.52
341.167	42.22
341.378	42.17
341.588	39.09
341.799	38.98
342.009	40.18
342.219	41.82
342.43	42.56
342.64	45.18
342.85	43.96
343.061	42.11
343.271	41.55
343.481	40.57
343.691	41.83
343.902	42.84
344.112	43.14
344.322	44.84
344.532	43.34
344.743	43.08
344.953	44.08
345.163	41.58
345.373	41.34
345.583	40.3
345.793	40
346.004	40.48
346.214	40.61
346.424	38.2
346.634	37.27
346.844	38.33
347.054	34.68
347.264	33.5
347.474	38.06
347.684	39.73
347.894	39.41
348.104	39.82
348.314	38.04
348.524	37.01
348.734	38.86
348.944	38.85
349.154	37.55
349.364	40.27
349.574	40.97
349.784	39.66
349.994	40.3
350.204	41.75
350.413	41.55
350.623	41.98
350.833	41.22
351.043	41.65
351.253	42.83
351.463	43.86
351.672	44.89
351.882	42.95
352.092	42.41
352.302	41.66
352.511	40.52
352.721	38.43
352.931	37.33
353.141	39.15
353.35	36.85
353.56	36.02
353.77	34.97
353.979	33.79
354.189	34.44
354.399	34.21
354.608	31.93
354.818	31.58
355.027	30.17
355.237	30.56
355.447	30.46
355.656	30.67
355.866	28.61
356.075	30.32
356.285	30.91
356.494	32.06
356.704	32.37
356.913	35.89
357.123	35.42
357.332	38.11
357.542	38.06
357.751	37.89
357.96	39.42
358.17	39.25
358.379	38.53
358.589	37.58
358.798	37.34
359.007	36.84
359.217	34.26
359.426	34.68
359.635	32.74
359.845	31.66
360.054	29.39
360.263	27.37
360.472	28.6
360.682	28.68
360.891	28.37
361.1	26.73
361.309	26.46
361.519	27.58
361.728	27.02
361.937	28.41
362.146	28.42
362.355	29.02
362.564	30.12
362.774	28.47
362.983	27.65
363.192	27.28
363.401	28.76
363.61	26.77
363.819	25.39
364.028	25.58
364.237	23
364.446	22.26
364.655	22.96
364.864	22.77
365.073	23.67
365.282	23.66
365.491	23.96
365.7	23.98
365.909	26.77
366.118	27.74
366.327	26.14
366.536	27.17
366.745	28.11
366.954	28.95
367.162	30.23
367.371	30.39
367.58	30.67
367.789	30.98
367.998	30.5
368.207	28.2
368.415	28.28
368.624	30.1
368.833	30.86
369.042	31.95
369.25	32.02
369.459	29.94
369.668	30.33
369.877	30.07
370.085	30.48
370.294	29.74
370.503	32.17
370.711	32
370.92	30.7
371.129	31
371.337	30.09
371.546	29.62
371.754	29.93
371.963	29.42
372.171	29.62
372.38	29.5
372.589	30.29
372.797	29.25
373.006	28.87
373.214	29.76
373.423	28.84
373.631	28.84
373.84	29.03
374.048	29.47
374.256	28.61
374.465	28.82
374.673	27.45
374.882	26.45
375.09	26.34
375.298	26.95
375.507	28.02
375.715	27.61
375.923	26.97
376.132	26.41
376.34	26.8
376.548	27.41
376.757	26.38
376.965	26.3
377.173	28.46
377.381	28.23
377.59	28.22
377.798	27.97
378.006	28.3
378.214	28.63
378.423	29.49
378.631	29.23
378.839	28.53
379.047	27.86
379.255	27.63
379.463	26.07
379.671	25.39
379.879	24.6
380.088	23.54
380.296	23.13
380.504	24.16
380.712	23.44
380.92	22.87
381.128	23.51
381.336	25.52
381.544	26.64
381.752	26.27
381.96	24.23
382.168	23.84
382.376	24.13
382.584	26.01
382.791	25.43
382.999	24.82
383.207	24.82
383.415	24.42
383.623	25.17
383.831	25.26
384.039	25.47
384.247	26.69
384.454	27.34
384.662	26.33
384.87	23.94
385.078	23.85
385.285	22.98
385.493	23.5
385.701	23.72
385.909	21.86
386.116	21.55
386.324	20.9
386.532	21.57
386.739	21.47
386.947	22.44
387.155	23.83
387.362	23.54
387.57	24.46
387.778	24.39
387.985	24.33
388.193	24.01
388.4	24.1
388.608	25.82
388.816	26.46
389.023	25.97
389.231	24.54
389.438	24.21
389.646	24.4
389.853	24.23
390.061	23.16
390.268	22.18
390.475	22.27
390.683	22.21
390.89	21.05
391.098	20.45
391.305	20.97
391.512	21.63
391.72	21.87
391.927	21.15
392.135	20.77
392.342	21.36
392.549	22.59
392.756	24.22
392.964	24.12
393.171	24.54
393.378	25.34
393.586	24.44
393.793	24.97
394	24.71
394.207	24.39
394.414	25.95
394.622	26.73
394.829	25.9
395.036	24.39
395.243	23.88
395.45	23.7
395.657	23.64
395.864	24.3
396.072	23.4
396.279	22.29
396.486	23.64
396.693	23.17
396.9	22.51
397.107	23.58
397.314	23.13
397.521	23.15
397.728	23.4
397.935	22.57
398.142	22.6
398.349	22.8
398.556	23.08
398.763	22.34
398.97	21.23
399.177	21.42
399.383	21.96
399.59	22.07
399.797	21.95
400.004	21.11
400.211	22.18
400.418	22
400.625	21.92
400.831	22.11
401.038	22.22
401.245	22.77
401.452	23.04
401.658	21.29
401.865	21.16
402.072	21.73
402.279	22.56
402.485	22.28
402.692	21.11
402.899	21.24
403.105	21.79
403.312	22.9
403.519	23.53
403.725	22.67
403.932	23.02
404.138	23.12
404.345	23.28
404.552	22.35
404.758	22.15
404.965	23.13
405.171	23.21
405.378	23.23
405.584	22.38
405.791	22.14
405.997	22.4
406.204	22.47
406.41	22.78
406.617	23.45
406.823	23.96
407.029	23.09
407.236	22.45
407.442	22.34
407.649	22.28
407.855	21.98
408.061	21.08
408.268	20.98
408.474	21.24
408.68	21.01
408.887	19.79
409.093	19.89
409.299	21.05
409.505	21.42
409.712	21.26
409.918	21.51
410.124	21.88
410.33	22.72
410.537	22.21
410.743	21.67
410.949	21.87
411.155	22.03
411.361	21.58
411.567	21.86
411.773	21.74
411.98	21.44
412.186	20.81
412.392	21.77
412.598	22.06
412.804	22.29
413.01	23.28
413.216	23.48
413.422	23.63
413.628	24.24
413.834	23.33
414.04	22.74
414.246	22.6
414.452	22.91
414.658	21.28
414.864	20.74
415.07	20.96
415.275	19.67
415.481	18.36
415.687	18.23
415.893	17.95
416.099	17.65
416.305	18.02
416.511	17.82
416.716	16.93
416.922	17.41
417.128	17.97
417.334	17.61
417.539	17.66
417.745	17.55
417.951	17.06
418.157	17.4
418.362	16.84
418.568	16.43
418.774	15.95
418.979	16.26
419.185	15.55
419.391	14.78
419.596	14.85
419.802	15.2
420.008	15.89
420.213	20.36
420.419	19.99
420.624	20.46
420.83	21.33
421.035	22.07
421.241	22.28
421.446	22.61
421.652	23.02
421.857	22.79
422.063	22.36
422.268	22.32
422.474	18.19
422.679	17.71
422.885	17.69
423.09	17.13
423.295	16.41
423.501	16.3
423.706	16.69
423.911	16.44
424.117	16.81
424.322	17.05
424.527	16.99
424.733	16.4
424.938	16.69
425.143	16.9
425.349	17.18
425.554	18.64
425.759	19.32
425.964	19.33
426.169	19.22
426.375	19.09
426.58	19.39
426.785	19.61
426.99	19.86
427.195	20.22
427.4	20.2
427.605	19.69
427.811	18.49
428.016	17.33
428.221	16.89
428.426	17.68
428.631	17.6
428.836	17.08
429.041	17.06
429.246	17.83
429.451	17.63
429.656	17.51
429.861	18.02
430.066	18.16
430.271	18.24
430.476	17.8
430.681	17.4
430.886	17.92
431.09	18.7
431.295	17.77
431.5	17.33
431.705	16.81
431.91	16.89
432.115	16.57
432.32	16.98
432.524	16.81
432.729	17.59
432.934	17.19
433.139	17.26
433.343	16.83
433.548	17.3
433.753	17.37
433.958	17.11
434.162	16.79
434.367	16.98
434.572	16.82
434.776	16.83
434.981	16.91
435.186	17.1
435.39	16.26
435.595	16.06
435.799	16.38
436.004	16.42
436.209	17.46
436.413	17.27
436.618	17.7
436.822	18.01
437.027	18.25
437.231	17.8
437.436	18.14
437.64	18.27
437.845	18.02
438.049	17.35
438.253	17.77
438.458	17.68
438.662	18.06
438.867	17.54
439.071	17.62
439.275	17.4
439.48	17.47
439.684	17.23
439.888	17.37
440.093	17.48
440.297	17.64
440.501	17.21
440.706	16.51
440.91	15.97
441.114	15.97
441.318	15.33
441.523	15.65
441.727	16.03
441.931	16.21
442.135	16.51
442.339	16.28
442.543	16.61
442.748	16.43
442.952	16.75
443.156	17.28
443.36	17.61
443.564	17.46
443.768	17.11
443.972	16.78
444.176	16.08
444.38	15.52
444.584	15.95
444.788	16.17
444.992	16.37
445.196	16.44
445.4	16.03
445.604	15.63
445.808	15.96
446.012	15.69
446.216	15.22
446.42	15.27
446.624	15.82
446.828	15.55
447.032	15.12
447.235	15.13
447.439	15.19
447.643	15.68
447.847	16.41
448.051	16.07
448.254	16.79
448.458	17.45
448.662	17.57
448.866	17.42
449.069	17.46
449.273	18.24
449.477	18.37
449.681	18.38
449.884	18.63
450.088	17.95
450.292	18.12
450.495	18.21
450.699	17.98
450.902	17.74
451.106	17.61
451.31	17.77
451.513	17.27
451.717	17.26
451.92	18
452.124	17.98
452.327	18
452.531	18.86
452.734	19.07
452.938	18.8
453.141	19.85
453.345	20.16
453.548	20.04
453.752	20.1
453.955	20.2
454.158	19.66
454.362	19.29
454.565	19.15
454.769	18.87
454.972	18.01
455.175	18.9
455.379	18.43
455.582	18.49
455.785	18.81
455.988	18.74
456.192	18.14
456.395	17.92
456.598	17.78
456.801	17.91
457.005	17.23
457.208	17.43
457.411	16.51
457.614	16.49
457.817	15.71
458.021	15.36
458.224	15.39
458.427	15.67
458.63	15.88
458.833	15.96
459.036	15.89
459.239	16.12
459.442	16.2
459.645	16.88
459.848	16.73
460.051	17.15
460.254	17.58
460.457	17.15
460.66	17.62
460.863	17.3
461.066	16.44
461.269	16.38
461.472	16.46
461.675	16.33
461.878	15.81
462.081	15.83
462.284	15.74
462.486	15.85
462.689	16.61
462.892	15.97
463.095	16.18
463.298	17.1
463.5	17.09
463.703	17.43
463.906	18.16
464.109	18.04
464.311	18.97
464.514	18.92
464.717	18.83
464.92	18.9
465.122	19.52
465.325	19.41
465.528	19.19
465.73	18.93
465.933	18.5
466.135	18.77
466.338	19.02
466.541	18.52
466.743	18.72
466.946	18.92
467.148	18.97
467.351	18.47
467.553	19.02
467.756	19.53
467.958	19.83
468.161	19.83
468.363	19.34
468.566	19.47
468.768	19.41
468.971	19.43
469.173	19.38
469.375	19.48
469.578	18.88
469.78	17.85
469.983	17.99
470.185	18.13
470.387	18.02
470.59	17.31
470.792	16.88
470.994	16.73
471.196	16.82
471.399	17.01
471.601	16.59
471.803	16.69
472.005	17.02
472.208	16.95
472.41	16.68
472.612	17.01
472.814	17.63
473.016	17.7
473.218	17.84
473.421	17.43
473.623	16.45
473.825	17.18
474.027	17.2
474.229	17.33
474.431	17.3
474.633	17.04
474.835	16.82
475.037	16.3
475.239	16.15
475.441	16.56
475.643	16.7
475.845	16.45
476.047	15.39
476.249	15.98
476.451	16.04
476.653	16.03
476.855	16.64
477.057	16.07
477.258	16.25
477.46	16.45
477.662	16.13
477.864	16.36
478.066	17.21
478.268	17.71
478.469	17.12
478.671	16.66
478.873	16.26
479.075	15.77
479.276	16.07
479.478	16.25
479.68	16.08
479.882	16.14
480.083	15.59
480.285	15.23
480.487	14.77
480.688	14.87
480.89	15.02
481.091	14.98
481.293	14.99
481.495	14.53
481.696	14.24
481.898	14.21
482.099	13.82
482.301	13.69
482.502	13.44
482.704	13.44
482.905	13.28
483.107	13.25
483.308	13.08
483.51	13.04
483.711	13.11
483.913	13.2
484.114	13.05
484.315	13.15
484.517	13.44
484.718	13.67
484.92	13.81
485.121	14.04
485.322	13.93
485.524	14.18
485.725	14.06
485.926	13.99
486.127	13.76
486.329	13.86
486.53	14.09
486.731	13.91
486.932	13.76
487.134	13.79
487.335	13.6
487.536	13.71
487.737	13.67
487.938	13.91
488.139	13.84
488.341	13.96
488.542	13.7
488.743	13.6
488.944	13.44
489.145	13.75
489.346	13.4
489.547	13.44
489.748	13.22
489.949	13.06
490.15	12.88
490.351	13.05
490.552	13.15
490.753	13.26
490.954	13.18
491.155	13.43
491.356	13.43
491.557	13.73
491.758	14.17
491.959	14.34
492.159	14.59
492.36	14.65
492.561	14.73
492.762	14.69
492.963	15.41
493.164	15.59
493.364	15.44
493.565	15.38
493.766	15.36
493.967	15.34
494.167	15.38
494.368	15.39
494.569	15.58
494.769	16.27
494.97	16.44
495.171	16.26
495.371	15.92
495.572	16.25
495.773	16.02
495.973	16.07
496.174	16.1
496.375	16.1
496.575	15.9
496.776	16.26
496.976	15.95
497.177	15.57
497.377	15.84
497.578	15.99
497.778	16.12
497.979	16.64
498.179	16.76
498.38	16.68
498.58	16.68
498.78	17.13
498.981	16.98
499.181	16.87
499.382	17.38
499.582	16.84
499.782	17.11
499.983	17.17
500.183	16.97
500.383	17.33
500.584	17.33
500.784	17.53
500.984	17.61
501.184	17.57
501.385	17.29
501.585	17.24
501.785	17.52
501.985	18.12
502.185	17.74
502.386	17.95
502.586	17.42
502.786	17.06
502.986	17.38
503.186	17.61
503.386	17.56
503.586	17.62
503.786	17.6
503.987	17.25
504.187	16.75
504.387	16.87
504.587	17.01
504.787	17.7
504.987	18.23
505.187	18.2
505.387	17.72
505.587	17.91
505.786	18.5
505.986	18.66
506.186	18.95
506.386	19.27
506.586	19.74
506.786	19.42
506.986	19.1
507.186	18.89
507.386	18.62
507.585	18.8
507.785	18.85
507.985	18.5
508.185	18.63
508.384	18.32
508.584	17.67
508.784	17.35
508.984	17.46
509.183	17.41
509.383	17.53
509.583	17.79
509.782	17.66
509.982	17.54
510.182	17.95
510.381	17.8
510.581	17.7
510.781	17.91
510.98	18.01
511.18	17.62
511.379	17.55
511.579	16.78
511.778	16.62
511.978	16.46
512.177	16.79
512.377	16.63
512.576	17.26
512.776	17.72
512.975	17.73
513.175	17.37
513.374	18.21
513.573	18.92
513.773	19.94
513.972	20.1
514.172	20.34
514.371	20.58
514.57	20.11
514.77	19.46
514.969	19.58
515.168	19.58
515.367	19.83
515.567	19.52
515.766	18.67
515.965	18.16
516.164	18.1
516.364	18.26
516.563	18.11
516.762	18.47
516.961	18.66
517.16	18.16
517.359	18.25
517.559	18.22
517.758	18.29
517.957	18.54
518.156	18.9
518.355	19.21
518.554	19.02
518.753	18.59
518.952	18.74
519.151	18.6
519.35	19.1
519.549	19.17
519.748	19.37
519.947	19.18
520.146	19.48
520.345	19.63
520.544	19.4
520.743	19.37
520.942	19.69
521.141	19.51
521.339	19.82
521.538	19.81
521.737	19.67
521.936	20.03
522.135	20.1
522.333	20.43
522.532	20.21
522.731	20.49
522.93	20.89
523.129	20.87
523.327	20.63
523.526	20.77
523.725	20.89
523.923	20.73
524.122	20.28
524.321	20.5
524.519	20.02
524.718	20.48
524.917	20.57
525.115	20.4
525.314	20.55
525.512	20.71
525.711	20.34
525.909	20.27
526.108	20.27
526.306	20.03
526.505	19.68
526.703	19.57
526.902	19.17
527.1	18.8
527.299	18.69
527.497	18.47
527.696	18.37
527.894	18.3
528.092	18.18
528.291	18.18
528.489	18.34
528.688	18.6
528.886	18.48
529.084	18.8
529.283	19.22
529.481	19.45
529.679	19.65
529.877	20.02
530.076	20.34
530.274	20.55
530.472	20.49
530.67	20.73
530.869	20.55
531.067	20.89
531.265	20.57
531.463	20.55
531.661	20.27
531.859	20.26
532.057	20.34
532.255	20.09
532.454	20.01
532.652	20.29
532.85	20.35
533.048	20.37
533.246	20.29
533.444	20.23
533.642	20.11
533.84	20.54
534.038	20.85
534.236	20.26
534.434	20.39
534.632	20.39
534.83	20.53
535.027	20.57
535.225	20.74
535.423	20.72
535.621	20.99
535.819	20.98
536.017	20.98
536.215	20.8
536.412	21.08
536.61	21.25
536.808	21.47
537.006	21.52
537.203	21.36
537.401	21.63
537.599	21.72
537.797	21.61
537.994	21.49
538.192	21.77
538.39	21.69
538.587	21.55
538.785	21.6
538.983	21.23
539.18	20.79
539.378	20.62
539.575	20.32
539.773	20.28
539.97	20.37
540.168	20.45
540.366	20.22
540.563	20.09
540.761	20.29
540.958	20.13
541.155	20.15
541.353	20.22
541.55	20.12
541.748	20.23
541.945	20.27
542.143	20.42
542.34	20.49
542.537	20.53
542.735	20.7
542.932	20.47
543.129	20.64
543.327	20.94
543.524	21.04
543.721	21.29
543.919	21.48
544.116	21.37
544.313	21.07
544.51	21.18
544.708	21.14
544.905	21.21
545.102	21.99
545.299	22
545.496	21.62
545.693	21.95
545.891	22.21
546.088	21.96
546.285	22.15
546.482	21.88
546.679	21.79
546.876	21.86
547.073	22
547.27	21.86
547.467	22.27
547.664	22.56
547.861	22.35
548.058	21.79
548.255	22.13
548.452	22.77
548.649	23.65
548.846	24.31
549.043	24.25
549.24	24.27
549.437	23.44
549.633	23.1
549.83	23.93
550.027	24.14
550.224	24.38
550.421	24.55
550.618	24.08
550.814	24.11
551.011	23.7
551.208	24.1
551.405	24.01
551.601	24.74
551.798	24.62
551.995	24.49
552.191	25.09
552.388	25.18
552.585	24.56
552.781	24.22
552.978	24.07
553.175	23.87
553.371	23.84
553.568	24.18
553.764	23.71
553.961	23.76
554.157	23.57
554.354	23.15
554.55	23.14
554.747	22.95
554.943	23.73
555.14	23.54
555.336	23.43
555.533	23.47
555.729	23.55
555.926	23.41
556.122	23.78
556.318	23.59
556.515	23.68
556.711	23.76
556.907	24.8
557.104	25.44
557.3	25.52
557.496	25.69
557.693	25.8
557.889	25.01
558.085	25.27
558.281	25.2
558.478	25.28
558.674	24.9
558.87	25.3
559.066	24.62
559.262	23.54
559.459	23.44
559.655	23.74
559.851	23.76
560.047	24.7
560.243	25
560.439	25.43
560.635	25.13
560.831	25.2
561.027	24.89
561.223	25.67
561.419	25.66
561.615	26.33
561.811	26.07
562.007	25.93
562.203	25.61
562.399	26.1
562.595	25.67
562.791	26.37
562.987	26.45
563.183	27.03
563.379	26.65
563.575	27.15
563.771	26.95
563.966	26.46
564.162	26.93
564.358	26.73
564.554	26.48
564.75	26.42
564.945	26.04
565.141	26.03
565.337	25.52
565.533	25.13
565.728	25.27
565.924	24.97
566.12	25.41
566.315	25.05
566.511	25.19
566.707	24.9
566.902	24.99
567.098	25.02
567.293	24.88
567.489	25.07
567.684	25.77
567.88	24.82
568.076	24.84
568.271	25.24
568.467	25.28
568.662	25.44
568.858	25.5
569.053	25.2
569.248	25.05
569.444	25.08
569.639	24.77
569.835	24.16
570.03	24.67
570.225	24.62
570.421	24.34
570.616	24.48
570.812	24.34
571.007	24.31
571.202	24.41
571.397	24.16
571.593	24.01
571.788	24.37
571.983	24.4
572.178	24.28
572.374	24.23
572.569	24.23
572.764	24.09
572.959	23.53
573.154	23.35
573.35	23.13
573.545	22.98
573.74	22.51
573.935	22.6
574.13	22.74
574.325	22.84
574.52	23.16
574.715	23.52
574.91	23.02
575.105	24
575.3	24.08
575.495	24.28
575.69	25.55
575.885	26.25
576.08	25.89
576.275	25.87
576.47	26.21
576.665	25.97
576.86	25.87
577.055	26.78
577.25	26.31
577.444	26.37
577.639	26.53
577.834	25.71
578.029	25.37
578.224	26.24
578.418	26.8
578.613	27.31
578.808	27.51
579.003	27.67
579.197	27.4
579.392	27.99
579.587	28.58
579.781	28.59
579.976	29.41
580.171	29.88
580.365	28.87
580.56	27.99
580.755	27.68
580.949	27.71
581.144	27.25
581.338	27.09
581.533	27.07
581.727	26.67
581.922	27.38
582.116	27.18
582.311	27.77
582.505	28.26
582.7	28.32
582.894	28.31
583.089	28.91
583.283	28.12
583.478	27.59
583.672	26.86
583.866	26.49
584.061	25.47
584.255	24.75
584.449	24.17
584.644	24.28
584.838	23.84
585.032	23.46
585.226	22.8
585.421	23.74
585.615	24.4
585.809	24.8
586.003	25.2
586.198	25.77
586.392	26.72
586.586	26.66
586.78	26.64
586.974	27.54
587.168	27.23
587.363	27.43
587.557	27.8
587.751	27.39
587.945	27.9
588.139	27.69
588.333	27.76
588.527	27.26
588.721	27.37
588.915	27.35
589.109	27.69
589.303	27.86
589.497	27.93
589.691	27.48
589.885	28.11
590.079	27.57
590.273	27.4
590.466	26.56
590.66	26.28
590.854	25.39
591.048	25.61
591.242	25.47
591.436	25.52
591.629	24.89
591.823	24.71
592.017	24.48
592.211	24.22
592.404	24.65
592.598	25.56
592.792	24.96
592.986	25.48
593.179	25.17
593.373	24.16
593.567	24.32
593.76	25.13
593.954	25.7
594.147	26.1
594.341	26.15
594.535	26.76
594.728	27.07
594.922	27.96
595.115	28.36
595.309	28.7
595.502	29.41
595.696	29.27
595.889	29.02
596.083	28.74
596.276	28.31
596.47	28.91
596.663	28.77
596.856	28.32
597.05	27.98
597.243	27.53
597.437	27.34
597.63	27.49
597.823	27.9
598.017	27.27
598.21	27.64
598.403	27.63
598.596	27.74
598.79	27.67
598.983	28.28
599.176	28.87
599.369	29.87
599.563	30
599.756	29.92
599.949	30.28
600.142	31.17
600.335	31.07
600.528	31.45
600.722	31.75
600.915	32.05
601.108	31.39
601.301	30.92
601.494	30
601.687	30.09
601.88	30.5
602.073	29.58
602.266	29.37
602.459	28.91
602.652	28.36
602.845	27.6
603.038	26.79
603.231	27.46
603.424	26.86
603.617	26.97
603.809	26.68
604.002	26.63
604.195	27.17
604.388	26.51
604.581	26.89
604.774	27.52
604.966	27.61
605.159	27.67
605.352	26.41
605.545	27.08
605.737	27.25
605.93	27.4
606.123	27.4
606.316	26.77
606.508	27.38
606.701	27.67
606.894	27.15
607.086	27.67
607.279	27.93
607.471	28.61
607.664	28.78
607.857	28.49
608.049	28.99
608.242	28.55
608.434	28.66
608.627	28.75
608.819	28.09
609.012	27.8
609.204	27.13
609.397	27.8
609.589	27.61
609.782	27.29
609.974	28.55
610.166	27.98
610.359	27.9
610.551	28.34
610.743	28.4
610.936	29.05
611.128	29.81
611.32	30.45
611.513	30.58
611.705	31.4
611.897	31.95
612.09	31.02
612.282	31.46
612.474	32.7
612.666	33.51
612.858	34.03
613.051	33.57
613.243	33.89
613.435	34.2
613.627	33.01
613.819	32.66
614.011	33.72
614.203	34
614.395	34.08
614.588	33.2
614.78	31.86
614.972	31.96
615.164	32.42
615.356	31.44
615.548	30.48
615.74	31.27
615.932	31.51
616.124	30.44
616.315	29.98
616.507	29.75
616.699	29.82
616.891	30.3
617.083	29.39
617.275	29.17
617.467	30.5
617.659	30.47
617.85	30.15
618.042	29.81
618.234	30.01
618.426	30.27
618.618	30.84
618.809	30.35
619.001	29.21
619.193	30.1
619.384	30.28
619.576	30.41
619.768	31.25
619.959	30.6
620.151	31.31
620.343	32.38
620.534	33.31
620.726	33.45
620.917	34.02
621.109	35.36
621.301	35.19
621.492	35.53
621.684	34
621.875	33.58
622.067	34.2
622.258	32.66
622.45	32.49
622.641	31.09
622.832	31.19
623.024	31.72
623.215	32.07
623.407	31.4
623.598	31.11
623.789	30.86
623.981	30.84
624.172	30.88
624.363	31.08
624.555	30.86
624.746	30.7
624.937	29.28
625.129	28.76
625.32	27.69
625.511	27.69
625.702	26.8
625.893	27.83
626.085	27.48
626.276	27.57
626.467	28
626.658	26.93
626.849	27.48
627.04	27.99
627.231	28.38
627.422	28.73
627.614	28.41
627.805	28.75
627.996	28.25
628.187	28.1
628.378	27.45
628.569	27.77
628.76	28.88
628.951	29.76
629.142	29.3
629.332	29.47
629.523	29.88
629.714	29.79
629.905	30.78
630.096	30.67
630.287	31.1
630.478	32.61
630.669	32.61
630.859	31.32
631.05	29.89
631.241	30.21
631.432	29.22
631.623	28.88
631.813	30.16
632.004	28.95
632.195	28.86
632.385	28.55
632.576	27.35
632.767	27.16
632.957	28.43
633.148	29.42
633.339	29.09
633.529	29.83
633.72	29.19
633.91	28.54
634.101	28.97
634.292	30.24
634.482	30.27
634.673	30.13
634.863	30.16
635.054	29.33
635.244	29.58
635.435	30.51
635.625	30.26
635.815	30.42
636.006	31.28
636.196	31.13
636.387	30.23
636.577	31.03
636.767	31.84
636.958	32.35
637.148	32.34
637.338	31.33
637.529	31.46
637.719	31.45
637.909	32.58
638.099	30.89
638.29	31.72
638.48	31.71
638.67	31.49
638.86	32.37
639.05	31.38
639.241	32.89
639.431	33.03
639.621	32.43
639.811	32.45
640.001	32.61
640.191	33.95
640.381	33.69
640.571	34.73
640.761	34.83
640.951	33.43
641.141	34.88
641.331	33.51
641.521	33.39
641.711	34.33
641.901	34.9
642.091	35.23
642.281	34.36
642.471	34.07
642.661	34.48
642.851	34.62
643.041	35.15
643.231	34.31
643.42	35.72
643.61	37.57
643.8	36.58
643.99	35.53
644.18	35.63
644.369	36.11
644.559	36.63
644.749	33.85
644.939	33.12
645.128	32.07
645.318	31.69
645.508	30.08
645.697	29.26
645.887	29.18
646.076	29.2
646.266	28.06
646.456	28.46
646.645	28.07
646.835	29.49
647.024	28.65
647.214	29.92
647.403	29.94
647.593	30.35
647.782	30.71
647.972	29.68
648.161	31.13
648.351	31.34
648.54	30.82
648.73	31.83
648.919	32.22
649.108	34.36
649.298	33.58
649.487	34
649.677	34.79
649.866	34.02
650.055	35.63
650.244	35.07
650.434	35.58
650.623	35.41
650.812	34.73
651.002	34.41
651.191	33.51
651.38	32.49
651.569	33.27
651.758	32.39
651.947	32.37
652.137	33.05
652.326	33.49
652.515	33.65
652.704	33.43
652.893	34.44
653.082	35.16
653.271	35.38
653.46	36.96
653.649	36.79
653.838	36.72
654.027	36.57
654.216	35.82
654.405	36
654.594	35.81
654.783	37.82
654.972	36.17
655.161	36.17
655.35	35.54
655.539	33.84
655.728	33.9
655.916	35.08
656.105	34.61
656.294	34.53
656.483	33.12
656.672	32.62
656.86	31.13
657.049	31.73
657.238	31.06
657.427	32.11
657.615	32.77
657.804	31.44
657.993	30.11
658.181	30.44
658.37	30.64
658.559	30.63
658.747	30.94
658.936	31.7
659.125	32.84
659.313	32.89
659.502	32.66
659.69	33.03
659.879	34.42
660.067	35.52
660.256	36.53
660.444	35.79
660.633	36.41
660.821	37.09
661.01	37.41
661.198	36.99
661.387	36.72
661.575	37.17
661.763	37.81
661.952	37.11
662.14	36.8
662.328	35.7
662.517	36.42
662.705	37.27
662.893	36.56
663.082	35.87
663.27	35.36
663.458	36.09
663.646	35.27
663.834	36.21
664.023	35.73
664.211	36.73
664.399	39.05
664.587	39.3
664.775	38.52
664.963	37.32
665.152	36.94
665.34	37
665.528	37.05
665.716	37.57
665.904	35.87
666.092	36.84
666.28	35.53
666.468	32.78
666.656	31.56
666.844	31.71
667.032	33.46
667.22	34.37
667.408	34.12
667.596	34.6
667.784	33.5
667.971	34.98
668.159	33.56
668.347	35.9
668.535	36.93
668.723	38.36
668.911	38.17
669.098	38.7
669.286	39
669.474	40.23
669.662	40.57
669.849	42.56
670.037	42.28
670.225	45.16
670.413	43.65
670.6	43.68
670.788	43.23
670.976	43.74
671.163	42.64
671.351	42.37
671.538	42.11
671.726	41.19
671.913	39.38
672.101	39.24
672.289	36.92
672.476	36.56
672.664	36.64
672.851	38.12
673.039	37.77
673.226	38.13
673.413	37.37
673.601	37.55
673.788	36.65
673.976	38.08
674.163	38.39
674.35	39.52
674.538	39.31
674.725	38.13
674.912	38.52
675.1	38.48
675.287	38.75
675.474	38.77
675.662	37.79
675.849	38.66
676.036	37.52
676.223	37.35
676.411	38.63
676.598	38.59
676.785	39.12
676.972	38.26
677.159	38.78
677.346	37.94
677.533	38.41
677.721	38.01
677.908	37.32
678.095	37.29
678.282	36.1
678.469	34.26
678.656	33.44
678.843	33.64
679.03	33.1
679.217	32.61
679.404	31.83
679.591	31.43
679.778	30.62
679.964	31.39
680.151	30.99
680.338	31.46
680.525	31.73
680.712	32.4
680.899	32.23
681.086	31.94
681.272	32.49
681.459	33.34
681.646	33.48
681.833	34.69
682.02	33.43
682.206	34.18
682.393	34.27
682.58	34.15
682.766	34.36
682.953	35
683.14	35.65
683.326	36.47
683.513	36.76
683.7	38.49
683.886	38.08
684.073	38.85
684.259	39.6
684.446	38.44
684.632	38.52
684.819	39.56
685.005	39.28
685.192	38.57
685.378	36.59
685.565	36.59
685.751	34.77
685.938	35.71
686.124	35.64
686.31	34.75
686.497	35.74
686.683	35.45
686.87	35
687.056	34.31
687.242	35
687.429	35.48
687.615	35.32
687.801	36.67
687.987	36.46
688.174	37.13
688.36	37.66
688.546	37.49
688.732	39.45
688.918	38.89
689.105	39.55
689.291	38.57
689.477	40.14
689.663	40.5
689.849	39.95
690.035	40.13
690.221	41.65
690.407	42.44
690.593	43.49
690.779	42.05
690.965	43.19
691.151	43.23
691.337	44.74
691.523	45.56
691.709	44.64
691.895	45.47
692.081	47.02
692.267	45.63
692.453	44.31
692.639	44.13
692.825	42.27
693.011	41.07
693.196	43.9
693.382	41.78
693.568	38.88
693.754	38.95
693.94	37.56
694.125	35.99
694.311	34.26
694.497	36.02
694.682	37.37
694.868	38.67
695.054	37.5
695.239	36.48
695.425	36.62
695.611	36.99
695.796	38.43
695.982	37.67
696.168	37.22
696.353	39.26
696.539	36.76
696.724	35.31
696.91	36.49
697.095	37.51
697.281	36.31
697.466	36.58
697.652	36.61
697.837	36.23
698.023	36.1
698.208	36.08
698.393	35.11
698.579	35.84
698.764	35.84
698.949	35.77
699.135	35.86
699.32	36.4
699.505	37.6
699.691	37.48
699.876	37.88
700.061	40.52
700.246	41.28
700.432	42.09
700.617	42.06
700.802	42.2
700.987	42.14
701.172	42.18
701.358	41.98
701.543	41.55
701.728	42.74
701.913	42.25
702.098	40.6
702.283	39.85
702.468	40.24
702.653	42.43
702.838	43.11
703.023	42.95
703.208	44.44
703.393	45.03
703.578	44.17
703.763	42.46
703.948	43.9
704.133	45.15
704.318	46.89
704.503	47.52
704.688	47.8
704.873	47.55
705.057	49.32
705.242	48.7
705.427	49.17
705.612	48.9
705.797	50.22
705.981	49.21
706.166	49.99
706.351	48.68
706.536	48.11
706.72	49.38
706.905	50.06
707.09	48.58
707.274	50.74
707.459	50.05
707.644	51.13
707.828	49.32
708.013	47.78
708.197	45.26
708.382	44.27
708.567	45.86
708.751	43.42
708.936	41.29
709.12	40.27
709.305	37.17
709.489	38.04
709.673	37.64
709.858	38.56
710.042	39.91
710.227	40.78
710.411	40.6
710.596	38.96
710.78	38.53
710.964	41.71
711.149	42.57
711.333	40.76
711.517	38.33
711.702	39.68
711.886	38.27
712.07	39.71
712.254	38.21
712.438	39.32
712.623	39.34
712.807	40.94
712.991	39.34
713.175	37.32
713.359	39.99
713.544	42.98
713.728	41.77
713.912	44.12
714.096	42.39
714.28	43.77
714.464	45.48
714.648	45.77
714.832	44.6
715.016	45.62
715.2	47.54
715.384	47.44
715.568	45.3
715.752	44.54
715.936	45.54
716.12	45.68
716.304	44.82
716.488	41.74
716.671	43.85
716.855	43.73
717.039	43.27
717.223	42.1
717.407	44.52
717.59	46.78
717.774	47.67
717.958	45.2
718.142	46.29
718.325	48.38
718.509	49.95
718.693	46.45
718.877	46.49
719.06	46.87
719.244	49.03
719.428	47.03
719.611	45.49
719.795	46.35
719.978	49.32
720.162	48.67
720.345	46.24
720.529	48.05
720.713	48.67
720.896	47.93
721.08	47.17
721.263	43.96
721.446	42.64
721.63	44.62
721.813	43.27
721.997	40.69
722.18	42.16
722.364	43.07
722.547	43.08
722.73	44.18
722.914	44.63
723.097	43.15
723.28	46.92
723.464	46.34
723.647	44.6
723.83	45.68
724.013	45.86
724.197	44.62
724.38	44.55
724.563	42.43
724.746	43.08
724.929	44.72
725.112	44.29
725.296	43.33
725.479	43.75
725.662	41.93
725.845	41.35
726.028	43.72
726.211	43.26
726.394	43.12
726.577	43.69
726.76	42.63
726.943	42.91
727.126	44.42
727.309	42.91
727.492	43.26
727.675	44.78
727.858	46.34
728.041	44.07
728.224	44.98
728.407	47.44
728.589	49.23
728.772	50.59
728.955	52.29
729.138	52.02
729.321	49.81
729.503	49.36
729.686	50.83
729.869	48.46
730.052	49.73
730.234	52.06
730.417	49.84
730.6	46.64
730.782	42.92
730.965	40.53
731.148	39.7
731.33	43.2
731.513	43.39
731.695	44.11
731.878	44.87
732.061	46.55
732.243	44.27
732.426	45.03
732.608	46.5
732.791	49.7
732.973	49.43
733.156	52
733.338	53.04
733.52	54.74
733.703	53.6
733.885	53.68
734.068	51.82
734.25	52.6
734.432	51.49
734.615	50.13
734.797	50.51
734.979	51.54
735.162	53.76
735.344	51.6
735.526	50.67
735.708	50.82
735.891	52.37
736.073	51.34
736.255	51.43
736.437	53.01
736.619	53.48
736.802	51.84
736.984	52.68
737.166	49.52
737.348	53.6
737.53	53.3
737.712	55.27
737.894	52.27
738.076	53.38
738.258	53.5
738.44	53.54
738.622	55.65
738.804	56.31
738.986	55.37
739.168	57.05
739.35	55.25
739.532	56.75
739.714	58.48
739.896	59.54
740.078	60.66
740.259	61.01
740.441	61.03
740.623	58.4
740.805	58.22
740.987	57.47
741.168	58.99
741.35	56.45
741.532	56.26
741.714	55.04
741.895	57.23
742.077	57.52
742.259	54.43
742.44	58.19
742.622	60.63
742.804	61.96
742.985	65.41
743.167	63.19
743.348	65.29
743.53	67.94
743.711	62.8
743.893	65.04
744.075	63.46
744.256	65.84
744.438	62.74
744.619	61.7
744.8	63.19
744.982	61.39
745.163	64.29
745.345	62.51
745.526	61.41
745.707	62.5
745.889	65.28
746.07	63.56
746.252	68.17
746.433	65.91
746.614	63.31
746.795	60.05
746.977	61.78
747.158	59.5
747.339	60.64
747.52	57.89
747.702	63.43
747.883	57.14
748.064	59.34
748.245	52.83
748.426	55.39
748.607	58.24
748.788	59.15
748.97	59.21
749.151	61.21
749.332	62.33
749.513	69.44
749.694	66.27
749.875	70.33
750.056	70.45
750.237	74.24
750.418	73.14
750.599	71.73
750.78	71.82
750.96	68.59
751.141	64.95
751.322	65.23
751.503	59.71
751.684	56.72
751.865	52.83
752.046	58.98
752.226	59.86
752.407	64.24
752.588	64.38
752.769	66.29
752.949	70.41
753.13	68.98
753.311	68.77
753.492	69.54
753.672	71.18
753.853	74.28
754.034	70.09
754.214	68.74
754.395	66.44
754.575	66.27
754.756	68.17
754.937	66.97
755.117	72.42
755.298	69.95
755.478	69.49
755.659	68.57
755.839	69.14
756.02	71.01
756.2	69.73
756.381	69
756.561	73.51
756.741	68.48
756.922	67.4
757.102	67.13
757.283	70.38
757.463	72.11
757.643	74.44
757.823	72.34
758.004	68.87
758.184	70.76
758.364	70.34
758.545	66.35
758.725	65.99
758.905	64.76
759.085	64.9
759.265	65.23
759.446	61.44
759.626	57.71
759.806	54.28
759.986	50.96
760.166	52.64
760.346	51.26
760.526	51.11
760.706	51.94
760.886	51.88
761.066	48.54
761.246	46.22
761.426	47.35
761.606	47.03
761.786	47.26
761.966	47.51
762.146	44.61
762.326	46.21
762.506	46.46
762.686	45.68
762.866	45.5
763.046	47.23
763.225	46.33
763.405	45.42
763.585	46.71
763.765	49.81
763.945	52.28
764.124	54.21
764.304	51.22
764.484	53.49
764.664	55.95
764.843	57.07
765.023	61.14
765.203	63.3
765.382	62.62
765.562	65.89
765.741	63.2
765.921	64.61
766.101	64.87
766.28	69.19
766.46	68.6
766.639	69.43
766.819	70.19
766.998	69.56
767.178	73.53
767.357	81.23
767.537	77.22
767.716	81.49
767.896	83.92
768.075	83.73
768.254	84.07
768.434	86.32
768.613	84.48
768.792	85.23
768.972	78.66
769.151	74.89
769.33	70.66
769.51	74.01
769.689	68.95
769.868	64.95
770.047	69.12
770.226	67.93
770.406	68.48
770.585	69.86
770.764	68.96
770.943	72.8
771.122	73.03
771.301	71.62
771.48	72.67
771.66	77.44
771.839	76.69
772.018	74.61
772.197	77.45
772.376	84.79
772.555	92.83
772.734	98.06
772.913	99.47
773.092	103.1
773.271	97.06
773.449	99.49
773.628	97.7
773.807	97.73
773.986	95.09
774.165	94.78
774.344	88.43
774.523	84.77
774.701	79.5
774.88	80.16
775.059	81.18
775.238	93.57
775.417	91.07
775.595	91.63
775.774	94.88
775.953	97.14
776.131	97.62
776.31	96.44
776.489	87.18
776.667	88.72
776.846	86.89
777.025	82.72
777.203	78.21
777.382	76.64
777.56	80.23
777.739	78.61
777.917	82.08
778.096	82.59
778.274	83.89
778.453	98.86
778.631	103.73
778.81	99.68
778.988	102.88
779.166	98.75
779.345	99.14
779.523	97.99
779.702	99.63
779.88	95.62
780.058	94.2
780.237	95.21
780.415	85.27
780.593	79.36
780.771	82.86
780.95	84.18
781.128	89.83
781.306	90.6
781.484	95.01
781.662	96.1
781.841	102.53
782.019	102.54
782.197	100
782.375	107.56
782.553	122.9
782.731	120.28
782.909	127
783.087	126.54
783.265	130.89
783.443	120.43
783.621	137.71
783.799	125.57
783.977	130.17
784.155	126.21
784.333	133.01
784.511	121.35
784.689	116.15
784.867	111.07
785.045	106.79
785.223	100.14
785.4	102.79
785.578	88.72
785.756	87.96
785.934	94.56
786.112	96.39
786.289	81.29
786.467	83.27
786.645	86.84
786.823	83.33
787	79.95
787.178	82.23
787.356	84.22
787.533	83.57
787.711	90.91
787.889	80.91
788.066	86.83
788.244	97.75
788.421	91.99
788.599	85.13
788.776	88.95
788.954	90.37
789.131	86.23
789.309	79.92
789.486	78.01
789.664	76.41
789.841	79.04
790.019	76.05
790.196	78.16
790.373	81.99
790.551	89.84
790.728	85.23
790.906	86.92
791.083	98.36
791.26	107.12
791.437	115.35
791.615	120.24
791.792	127.91
791.969	146.33
792.146	147.85
792.324	134.94
792.501	137.16
792.678	144.39
792.855	149.02
793.032	136.47
793.209	134.37
793.387	131.3
793.564	120.03
793.741	103.53
793.918	94.01
794.095	89.49
794.272	96.95
794.449	87.89
794.626	91.56
794.803	90.01
794.98	96.3
795.157	93.38
795.334	92.88
795.511	98.77
795.688	113.76
795.864	116.11
796.041	116
796.218	112.51
796.395	124.14
796.572	128.78
796.749	144.54
796.925	137.84
797.102	144.86
797.279	149.03
797.456	146.28
797.632	133.91
797.809	129.05
797.986	135.61
798.162	149.03
798.339	134.43
798.516	123.33
798.692	112.97
798.869	121.69
799.046	116.72
799.222	126.85
799.399	124.3
799.575	124.93
799.752	132.46
799.928	135.66
800.105	130.02
800.281	139.05
800.458	151.5
800.634	176.46
800.811	160.97
800.987	167.03
801.163	152.99
801.34	163.89
801.516	163.91
801.692	159.41
801.869	158.8
802.045	159.53
802.221	137.45
802.398	127.91
802.574	114.71
802.75	121.99
802.926	121.65
803.103	111.89
803.279	106.59
803.455	108.16
803.631	100.53
803.807	108.16
803.983	111.72
804.16	129.71
804.336	141.47
804.512	123.2
804.688	118.79
804.864	125.53
805.04	135.81
805.216	144.41
805.392	157.73
805.568	169.86
805.744	154.28
805.92	132.42
806.096	116.8
806.272	118.92
806.448	120.39
806.623	129.59
806.799	127.81
806.975	130.58
807.151	132.51
807.327	117.56
807.503	118.65
807.678	123.42
807.854	132.78
808.03	155.01
808.206	128.01
808.381	130.78
808.557	122.25
808.733	113.17
808.908	117.69
809.084	116.71
809.26	126.37
809.435	127.83
809.611	119.46
809.787	120.39
809.962	115.37
810.138	125.14
810.313	137.76
810.489	145.3
810.664	143.14
810.84	137.59
811.015	146.35
811.191	134.58
811.366	145
811.542	155.67
811.717	174.53
811.892	185.3
812.068	197.56
812.243	192.34
812.419	201.4
812.594	222.85
812.769	221.27
812.944	214.85
813.12	236.57
813.295	187.92
813.47	194.87
813.645	185.68
813.821	160.93
813.996	149.72
814.171	140.51
814.346	129.85
814.521	128.97
814.697	153.29
814.872	167.51
815.047	172.23
815.222	193.8
815.397	187.15
815.572	199.75
815.747	183.54
815.922	179.6
816.097	204.9
816.272	203.9
816.447	219.34
816.622	190.41
816.797	173.92
816.972	159.3
817.147	155.49
817.322	144.65
817.496	144.97
817.671	164.71
817.846	162.79
818.021	146.38
818.196	145.59
818.371	138.3
818.545	118.16
818.72	121.03
818.895	115.18
819.069	111.43
819.244	111.58
819.419	87.79
819.594	80.3
819.768	67.6
819.943	57.26
820.117	49.52
820.292	42.91
820.467	41.5
820.641	35.9
820.816	32.41
820.99	29.08
821.165	29.7
821.339	32.05
821.514	32.17
821.688	33.03
821.863	32.7
822.037	33.07
822.212	34.29
822.386	33.16
822.56	35.6
822.735	37.89
822.909	43.58
823.084	43.39
823.258	42.33
823.432	43.37
823.606	45.24
823.781	51.42
823.955	56.55
824.129	60.83
824.303	68.9
824.478	65.74
824.652	63.14
824.826	57.58
825	58.84
825.174	63.29
825.348	62.57
825.523	61.22
825.697	58.9
825.871	55.02
826.045	54.56
826.219	54.19
826.393	54.23
826.567	58.17
826.741	60.46
826.915	60.8
827.089	60.94
827.263	66.61
827.437	71.46
827.611	76.84
827.784	80.1
827.958	89.37
828.132	94.82
828.306	104.59
828.48	110.6
828.654	113.65
828.827	123.4
829.001	132.89
829.175	129.13
829.349	128.06
829.522	127.68
829.696	145.15
829.87	140.1
830.044	134.83
830.217	149.74
830.391	153.57
830.565	149.92
830.738	147.23
830.912	143.37
831.085	147.98
831.259	144.28
831.432	135.09
831.606	119.93
831.779	98.25
831.953	92
832.126	78.54
832.3	71.94
832.473	73.84
832.647	73.36
832.82	66.5
832.994	63.95
833.167	64.27
833.34	67.29
833.514	68.9
833.687	74.08
833.86	81.93
834.034	90.51
834.207	89.23
834.38	90.23
834.553	88.77
834.727	100.32
834.9	100.72
835.073	104.16
835.246	112.31
835.419	118.05
835.593	131.06
835.766	125.4
835.939	121.76
836.112	128.91
836.285	135.94
836.458	139.45
836.631	158.99
836.804	171.06
836.977	158.39
837.15	157.59
837.323	152.97
837.496	144.77
837.669	158.53
837.842	153.72
838.015	169.87
838.188	158.23
838.361	147.74
838.533	137.55
838.706	143.61
838.879	161.39
839.052	175.53
839.225	171.61
839.398	167.29
839.57	147.53
839.743	154.56
839.916	158.4
840.088	159.53
840.261	172.45
840.434	168.72
840.607	158.94
840.779	165.47
840.952	145.32
841.124	154.89
841.297	157.16
841.47	150.31
841.642	170.82
841.815	194.02
841.987	205.54
842.16	214.95
842.332	246.35
842.505	267.35
842.677	284.8
842.85	241.36
843.022	256.24
843.194	298.91
843.367	366.44
843.539	297
843.712	308.21
843.884	320.6
844.056	341.73
844.229	415.43
844.401	400.25
844.573	445.48
844.745	955.32
844.918	930.21
845.09	1247.06
845.262	10546.67
845.434	-6212.5
845.606	3318.87
845.779	7386.96
845.951	1271.64
846.123	920.99
846.295	701.66
846.467	381.48
846.639	414.69
846.811	316.15
846.983	297.63
847.155	285.8
847.327	318.31
847.499	267.05
847.671	267.77
847.843	331.21
848.015	291.4
848.187	343.24
848.359	488.58
848.531	1016.78
848.703	1333.04
848.875	614.98
849.047	405.42
849.218	512.64
849.39	564.58
849.562	373.93
849.734	393.78
849.905	501.52
850.077	671.95
850.249	319.69
850.421	207.02
850.592	232.34
850.764	331.13
850.936	339.69
851.107	332.65
851.279	274.6
851.451	339.72
851.622	235.58
851.794	220.28
851.965	202.56
852.137	274.9
852.308	306.99
852.48	372.68
852.651	291.87
852.823	345.22
852.994	340.29
853.166	398.55
853.337	356.4
853.509	344.67
853.68	365.54
853.851	421.15
854.023	425.83
854.194	476.02
854.365	313.87
854.537	318.83
854.708	194.48
854.879	184.25
855.05	148.16
855.222	149.22
855.393	195.34
855.564	168.93
855.735	155.77
855.906	162.66
856.078	174.72
856.249	172.62
856.42	197.03
856.591	365.31
856.762	354.35
856.933	707.26
857.104	534.65
857.275	471.53
857.446	579.02
857.617	476.28
857.788	279.76
857.959	285.47
858.13	348.34
858.301	284.46
858.472	262.27
858.643	295.11
858.814	329.58
858.985	337.8
859.155	251.61
859.326	265.7
859.497	373.03
859.668	607.27
859.839	539.62
860.009	694.7
860.18	878.37
860.351	714.49
860.522	811.39
860.692	942.93
860.863	1308.84
861.034	4944.74
861.204	2437.33
861.375	1309.16
861.546	11235.71
861.716	3155.1
861.887	739.07
862.057	555.63
862.228	598.6
862.398	556.29
862.569	404.97
862.739	393.94
862.91	505.44
863.08	639.45
863.251	822.61
863.421	705.06
863.592	482.04
863.762	1322.73
863.932	12484.62
864.103	1135.53
864.273	1600.99
864.443	-892.68
864.614	-779.21
864.784	-2317.74
864.954	6445.45
865.125	738.16
865.295	459.08
865.465	615.89
865.635	483.02
865.805	450.52
865.976	23000
866.146	878.62
866.316	425
866.486	381.52
866.656	526.91
866.826	717.15
866.996	651.72
867.166	695.6
867.336	875
867.506	711.74
867.676	647.78
867.846	626.59
868.016	794.51
868.186	1107.89
868.356	1673.23
868.526	950.46
868.696	565.01
868.866	714.08
869.036	1221.19
869.206	958.94
869.376	694.24
869.545	916.81
869.715	700.33
869.885	517.18
870.055	434.35
870.224	505.1
870.394	783.05
870.564	983.68
870.734	612.46
870.903	583.82
871.073	473.26
871.243	552.6
871.412	453.93
871.582	448.11
871.751	480.58
871.921	353.85
872.091	410.71
872.26	264.23
872.43	281.19
872.599	351.05
872.769	315.91
872.938	433.58
873.108	493.57
873.277	417.18
873.446	349.28
873.616	360.64
873.785	485.71
873.955	337.04
874.124	536.5
874.293	458.88
874.463	507.05
874.632	606.74
874.801	655.41
874.971	475.23
875.14	623.64
875.309	448.81
875.478	504.71
875.647	428.83
875.817	357.04
875.986	334.09
876.155	296.44
876.324	315.41
876.493	277.79
876.662	229.47
876.831	240.92
877	186.46
877.17	236.29
877.339	253.77
877.508	260.39
877.677	346.31
877.846	310.3
878.015	303.91
878.184	263.96
878.352	251.8
878.521	256.99
878.69	231.32
878.859	349.92
879.028	244.32
879.197	222.61
879.366	206.07
879.534	154.59
879.703	136.6
879.872	130.06
880.041	121.41
880.21	107
880.378	96.06
880.547	90.12
880.716	78.01
880.884	75.38
881.053	68.16
881.222	64.71
881.39	63.34
881.559	64.95
881.727	66.11
881.896	66.63
882.065	70.81
882.233	80.72
882.402	86.43
882.57	99.3
882.739	92.42
882.907	102.7
883.076	113.81
883.244	134.4
883.412	160.54
883.581	178.79
883.749	223.87
883.918	304.23
884.086	397.51
884.254	613.13
884.423	604.11
884.591	646.08
884.759	1608.57
884.927	7504.55
885.096	-4613.51
885.264	-2937.5
885.432	1300
885.6	995.93
885.769	656.87
885.937	1138.06
886.105	446.44
886.273	469.71
886.441	394.71
886.609	317.97
886.777	281.39
886.945	317.49
887.113	355.26
887.281	534.77
887.449	460.73
887.617	748.85
887.785	518.44
887.953	589.66
888.121	556.72
888.289	1790.65
888.457	9023.81
888.625	-3927.27
888.793	-5929.17
888.961	1036.94
889.129	1307.5
889.296	3372.92
889.464	794.71
889.632	926.49
889.8	1160.91
889.967	3787.1
890.135	1016.48
