Data from JASIL_3337_Reflection_1.txt Node
Date: Tue Nov 17 20:23:08 EST 2015
User: Geneva
Spectrometer: USB4E03002
Autoset integration time: false
Trigger mode: 4
Integration Time (sec): 1.000000E-1
Scans to average: 10
Electric dark correction enabled: false
Nonlinearity correction enabled: false
Boxcar width: 5
Stray light correction enabled: false
XAxis mode: Wavelengths
Stop averaging: false
Number of Pixels in Spectrum: 3648
>>>>>Begin Spectral Data<<<<<
177.575	-177.23
177.794	-347.83
178.014	-548.31
178.233	-962.26
178.452	-1076.67
178.672	-580.31
178.891	-1696.55
179.11	10310
179.33	2491.3
179.549	2482.35
179.768	-12527.27
179.987	1087.88
180.207	509.84
180.426	739.73
180.645	992.8
180.864	6376.47
181.084	665.66
181.303	415.18
181.522	590.23
181.741	510.67
181.96	896.97
182.179	4741.18
182.398	-997.4
182.618	-457.71
182.837	-427.14
183.056	-448.63
183.275	-455.56
183.494	-200.26
183.713	-182.33
183.932	-134.17
184.151	-113.69
184.37	-91.49
184.589	-116.78
184.808	-128.11
185.027	-127.49
185.246	-200.97
185.465	-189.42
185.684	-270.91
185.903	-459.87
186.122	-594.58
186.341	-1331.86
186.56	-863.1
186.779	-5248.15
186.998	-685.19
187.216	-563.89
187.435	-538.79
187.654	-519.39
187.873	-296.43
188.092	-376.28
188.311	-463.57
188.53	-278.26
188.748	-141.51
188.967	-209.76
189.186	-127.4
189.405	-317.18
189.623	-302.19
189.842	-291.34
190.061	-239.56
190.28	-185.03
190.498	-215.56
190.717	-168.21
190.936	-188.89
191.154	-410.44
191.373	-751.72
191.592	1881.4
191.81	670.87
192.029	691.58
192.248	393.63
192.466	434.25
192.685	150.11
192.904	391.09
193.122	257.14
193.341	360.08
193.559	468.93
193.778	566.85
193.996	475.36
194.215	1323.19
194.433	639.29
194.652	509.09
194.87	455.62
195.089	636.92
195.307	961.4
195.526	-586.73
195.744	-460.43
195.963	-650
196.181	-728.93
196.399	-1210.34
196.618	1375
196.836	841.84
197.055	835.81
197.273	1022.39
197.491	1243.24
197.71	634.92
197.928	509.93
198.146	511.64
198.365	2626.19
198.583	1882.54
198.801	-782.26
199.019	-264.24
199.238	-230.51
199.456	-241.6
199.674	-294.67
199.892	-231.22
200.111	-221.83
200.329	-298.12
200.547	-360.26
200.765	2864.71
200.983	-1118.8
201.202	1863.16
201.42	516.43
201.638	352.61
201.856	520.51
202.074	758.67
202.292	455.36
202.51	370.87
202.728	382.44
202.946	3164.29
203.165	1417.31
203.383	380.14
203.601	506.6
203.819	855.45
204.037	-2545.45
204.255	-3407.41
204.473	-536.36
204.691	-434.12
204.909	-324.34
205.127	-1812.5
205.345	525.45
205.562	-577.52
205.78	-79.43
205.998	-81.76
206.216	-101.28
206.434	-134.82
206.652	-140.67
206.87	-312.57
207.088	-209.05
207.306	-297.69
207.523	-243.44
207.741	-196.63
207.959	-327.03
208.177	-452.33
208.395	-458.33
208.612	-489.35
208.83	-355.73
209.048	-382.51
209.266	-343.92
209.483	-242.04
209.701	-294.54
209.919	-266.45
210.136	-267.23
210.354	-296.52
210.572	-358.39
210.79	-384
211.007	-809.15
211.225	-7320
211.442	1666.1
211.66	4448
211.878	444.19
212.095	613.09
212.313	850.85
212.53	565.4
212.748	490.04
212.966	351.01
213.183	430.35
213.401	-4766.67
213.618	-298.02
213.836	-252.9
214.053	-274.77
214.271	-146.79
214.488	-296.87
214.705	-281.59
214.923	-164.09
215.14	-64.66
215.358	-44.07
215.575	-21.32
215.793	-82.1
216.01	-285.31
216.227	-588.79
216.445	-576.39
216.662	-297.41
216.879	-274.35
217.097	-137.79
217.314	-187.16
217.531	9512.5
217.749	927.72
217.966	506.59
218.183	291.35
218.4	398.71
218.618	303.29
218.835	240.56
219.052	266.91
219.269	248.82
219.487	169.06
219.704	193.33
219.921	201.48
220.138	239.08
220.355	257.03
220.572	282.72
220.79	269.54
221.007	401.66
221.224	561.98
221.441	570.08
221.658	673.5
221.875	-3348.57
222.092	-1337.5
222.309	3936.36
222.526	800.61
222.743	688.41
222.96	750.36
223.177	2318.6
223.394	1459.21
223.611	817.48
223.828	412
224.045	296.09
224.262	240.6
224.479	250.5
224.696	430.29
224.913	805.79
225.13	730.19
225.347	701.38
225.564	376.75
225.781	220.68
225.997	187.09
226.214	196.39
226.431	149.23
226.648	141.09
226.865	106.89
227.082	87.21
227.298	80.21
227.515	73.54
227.732	70.18
227.949	60.81
228.165	56.85
228.382	46.12
228.599	45.1
228.816	59.09
229.032	61.67
229.249	67.42
229.466	67.37
229.682	63.34
229.899	69.01
230.116	75.44
230.332	80.23
230.549	81.63
230.765	87.13
230.982	79.64
231.199	70.39
231.415	65.1
231.632	59.25
231.848	52.87
232.065	43.67
232.281	26.54
232.498	25.94
232.714	30.86
232.931	38.6
233.147	39.15
233.364	45.79
233.58	44.92
233.797	48.51
234.013	48.1
234.23	76.02
234.446	84.15
234.662	128.15
234.879	181.88
235.095	138.3
235.312	119.97
235.528	127.43
235.744	141.31
235.961	180.56
236.177	158.51
236.393	239.2
236.61	171.58
236.826	169.15
237.042	118.69
237.258	130.59
237.475	130.53
237.691	166.35
237.907	115.7
238.123	102.83
238.339	97.18
238.556	102.93
238.772	88.63
238.988	81.61
239.204	71.2
239.42	72.43
239.636	59.43
239.853	52.83
240.069	45.34
240.285	46.25
240.501	41.18
240.717	36.05
240.933	33.37
241.149	31.88
241.365	32.9
241.581	31.36
241.797	33.62
242.013	31.18
242.229	33.61
242.445	34.45
242.661	30.74
242.877	33.64
243.093	39.27
243.309	39.69
243.525	34.9
243.741	36.71
243.957	36.59
244.173	29.93
244.388	31.01
244.604	30.87
244.82	31.57
245.036	31.44
245.252	30.22
245.468	26.64
245.683	23.44
245.899	20.67
246.115	18.96
246.331	18.38
246.547	21.03
246.762	19.64
246.978	19.29
247.194	18.99
247.409	17.66
247.625	16.54
247.841	17.01
248.057	20.61
248.272	26.33
248.488	26.13
248.703	26.37
248.919	29.22
249.135	33.76
249.35	36.5
249.566	39.28
249.782	41.34
249.997	42.41
250.213	45.72
250.428	43.68
250.644	40.12
250.859	37.49
251.075	35.87
251.29	28.13
251.506	26.42
251.721	24.08
251.937	20.21
252.152	21.94
252.368	20.37
252.583	21.64
252.798	19.91
253.014	16.84
253.229	18.32
253.445	27.5
253.66	34.23
253.875	30.35
254.091	28.01
254.306	27.79
254.521	19.45
254.737	19.54
254.952	14.09
255.167	16.36
255.383	16.85
255.598	29.68
255.813	22.73
256.028	18.97
256.244	24.7
256.459	28.43
256.674	32.41
256.889	33.6
257.104	30.36
257.32	29.2
257.535	25.71
257.75	25.5
257.965	18.43
258.18	17.08
258.395	13.96
258.61	12.45
258.826	9.55
259.041	6.61
259.256	5.21
259.471	5.04
259.686	4.79
259.901	4.72
260.116	4.62
260.331	6.1
260.546	8.62
260.761	12.11
260.976	13.3
261.191	14.53
261.406	18.51
261.621	19.28
261.836	22.07
262.05	24.9
262.265	28.99
262.48	27.49
262.695	30.44
262.91	29.18
263.125	28.27
263.34	30.72
263.555	31.83
263.769	32.01
263.984	33.22
264.199	32.72
264.414	30.76
264.629	28.88
264.843	30.55
265.058	27.12
265.273	22.56
265.488	21.14
265.702	23.15
265.917	24.34
266.132	23.86
266.346	25.21
266.561	25.73
266.776	23.53
266.99	20.99
267.205	19.97
267.42	17.76
267.634	18.01
267.849	19.26
268.063	14.36
268.278	14.09
268.492	13.76
268.707	10.29
268.922	8.85
269.136	9.04
269.351	11.59
269.565	12.88
269.78	14.23
269.994	16.69
270.209	15.25
270.423	15.67
270.637	13.78
270.852	15.01
271.066	17.4
271.281	18.5
271.495	17.44
271.709	16.11
271.924	14.69
272.138	15.64
272.353	14.72
272.567	17.81
272.781	15.92
272.996	16.41
273.21	13.86
273.424	11.14
273.638	8.71
273.853	10
274.067	11.5
274.281	11.61
274.495	12.57
274.71	13.89
274.924	12.29
275.138	15.97
275.352	16.88
275.566	18.03
275.781	19.26
275.995	20.13
276.209	19.97
276.423	17.77
276.637	18.74
276.851	16.03
277.065	13.63
277.279	10.82
277.493	10.58
277.707	9.42
277.921	10.41
278.135	13.26
278.349	10.53
278.563	10.41
278.777	11.67
278.991	10.72
279.205	15.05
279.419	14.66
279.633	16.45
279.847	16.14
280.061	16.12
280.275	16.68
280.489	12.52
280.703	13.55
280.917	15.65
281.131	14.56
281.344	15.17
281.558	11.39
281.772	10.91
281.986	12.03
282.2	10.69
282.414	10.37
282.627	9.61
282.841	11.6
283.055	9.48
283.269	8.24
283.482	8.78
283.696	9.05
283.91	10.48
284.123	12.11
284.337	12.29
284.551	13.96
284.764	13.15
284.978	12.21
285.192	11.46
285.405	11.49
285.619	11.22
285.833	12.16
286.046	12.54
286.26	12.08
286.473	12.12
286.687	12.03
286.9	11.07
287.114	12.19
287.327	12.23
287.541	11.38
287.754	14.78
287.968	15.63
288.181	14.1
288.395	14.35
288.608	14.34
288.822	13.51
289.035	12.95
289.248	13.28
289.462	13.29
289.675	12.79
289.889	14.22
290.102	11.99
290.315	10.67
290.529	12.19
290.742	9.95
290.955	12.39
291.169	13.25
291.382	11.69
291.595	11.93
291.808	13.91
292.022	16.54
292.235	15.75
292.448	16.55
292.661	17.86
292.875	16.97
293.088	17.31
293.301	14.14
293.514	11.82
293.727	12.65
293.94	10.9
294.153	8.29
294.367	6.63
294.58	7.32
294.793	6.26
295.006	5.84
295.219	5.69
295.432	4.87
295.645	6.27
295.858	7.74
296.071	7.51
296.284	7.67
296.497	9.3
296.71	10.03
296.923	9.56
297.136	10.17
297.349	10.58
297.562	10.97
297.775	11.46
297.988	9.56
298.201	9.86
298.414	11.17
298.626	11.74
298.839	11.62
299.052	11.4
299.265	13.72
299.478	14.67
299.691	15.09
299.903	14.82
300.116	16.02
300.329	16.02
300.542	15.32
300.755	14.14
300.967	14.6
301.18	14.39
301.393	13.65
301.605	11.47
301.818	12.47
302.031	14.08
302.243	13.9
302.456	14.01
302.669	14.97
302.881	15.54
303.094	17.4
303.307	15.91
303.519	16.43
303.732	17.19
303.944	18.39
304.157	18.82
304.37	17.22
304.582	19.22
304.795	19.88
305.007	20.51
305.22	20.17
305.432	19.33
305.645	20.21
305.857	18.77
306.069	17.71
306.282	16.28
306.494	14.41
306.707	14.6
306.919	13.41
307.132	11.37
307.344	11.19
307.556	10.8
307.769	9.98
307.981	9.18
308.193	8.96
308.406	8.76
308.618	7.73
308.83	8.4
309.043	8.25
309.255	8.4
309.467	9.93
309.679	9.91
309.892	11.46
310.104	11.76
310.316	13.98
310.528	15.14
310.74	13.88
310.953	14.27
311.165	14.75
311.377	15.47
311.589	15.15
311.801	14.29
312.013	14.24
312.225	12.83
312.437	12.59
312.649	10.59
312.862	9.55
313.074	11.1
313.286	10.87
313.498	9.79
313.71	8.86
313.922	9.63
314.134	9.39
314.346	9.89
314.558	10.98
314.77	11.32
314.982	13.37
315.193	14.18
315.405	15.73
315.617	17.83
315.829	17.85
316.041	18.69
316.253	16.37
316.465	16.96
316.677	16.21
316.888	16.94
317.1	17.51
317.312	16.81
317.524	18.78
317.736	20.35
317.947	18.08
318.159	18.31
318.371	18.59
318.583	18.51
318.794	17.64
319.006	18.99
319.218	18.31
319.43	17.1
319.641	18.33
319.853	17.63
320.064	14.66
320.276	15.86
320.488	15.89
320.699	15.31
320.911	17.34
321.123	18.06
321.334	16.82
321.546	16.61
321.757	18.36
321.969	16.7
322.18	14.44
322.392	15.64
322.603	16.12
322.815	16.43
323.026	14.94
323.238	12.57
323.449	12.24
323.661	12.96
323.872	12.35
324.083	11.9
324.295	11.45
324.506	11.77
324.718	9.99
324.929	9.63
325.14	11.16
325.352	12.48
325.563	14.23
325.774	14.66
325.986	14.55
326.197	13.81
326.408	13.5
326.62	14.97
326.831	15.72
327.042	16.34
327.253	17.15
327.464	17.18
327.676	17.19
327.887	16.93
328.098	18.03
328.309	18.85
328.52	20.02
328.732	20.43
328.943	19.53
329.154	18.57
329.365	18.73
329.576	18.56
329.787	17.63
329.998	18.88
330.209	20.15
330.42	21.26
330.631	22.02
330.842	23.25
331.053	22.1
331.264	22.72
331.475	22.62
331.686	24.8
331.897	23.68
332.108	24.38
332.319	23.75
332.53	22.75
332.741	20.88
332.952	20.53
333.163	18.64
333.374	20.16
333.585	20.39
333.795	23.42
334.006	20.95
334.217	22.54
334.428	20.74
334.639	19.33
334.849	20.13
335.06	21.29
335.271	20.52
335.482	20.03
335.692	18.79
335.903	17.08
336.114	15.72
336.325	17.1
336.535	15.57
336.746	15.98
336.957	16.4
337.167	15.5
337.378	14.45
337.589	15.09
337.799	15.06
338.01	15.23
338.22	17.35
338.431	16.86
338.642	18.95
338.852	19.54
339.063	19.22
339.273	19.08
339.484	18.46
339.694	18.21
339.905	18.56
340.115	19.88
340.326	20.07
340.536	18.91
340.746	18.85
340.957	18.45
341.167	19.24
341.378	19.85
341.588	18.85
341.799	20.42
342.009	20.89
342.219	20.07
342.43	20.49
342.64	20.27
342.85	20.03
343.061	20.32
343.271	19.72
343.481	18.26
343.691	19.03
343.902	20.12
344.112	20.16
344.322	18.78
344.532	18.23
344.743	17.58
344.953	17.35
345.163	17.81
345.373	18.16
345.583	16.49
345.793	18.39
346.004	18.65
346.214	18.41
346.424	17.82
346.634	18.96
346.844	20.52
347.054	20.94
347.264	21.6
347.474	20.96
347.684	21.17
347.894	20.4
348.104	19.16
348.314	17.81
348.524	17.68
348.734	19.14
348.944	18.82
349.154	18.19
349.364	16.22
349.574	15.99
349.784	15.68
349.994	14.34
350.204	15.63
350.413	15.01
350.623	14.96
350.833	16.71
351.043	15.83
351.253	16.68
351.463	15.78
351.672	16.69
351.882	15.37
352.092	15.7
352.302	16.85
352.511	17.2
352.721	17.43
352.931	16.59
353.141	16.08
353.35	15.83
353.56	15.03
353.77	13.92
353.979	15.02
354.189	15.68
354.399	14.68
354.608	15.12
354.818	14.4
355.027	15.24
355.237	16.3
355.447	16.39
355.656	16.46
355.866	16.22
356.075	17.94
356.285	17.39
356.494	17.68
356.704	18.97
356.913	17.45
357.123	17.21
357.332	16.33
357.542	15.51
357.751	15.35
357.96	14.59
358.17	15.27
358.379	13.98
358.589	14.75
358.798	15.66
359.007	15.85
359.217	16.96
359.426	17.39
359.635	18.18
359.845	18.38
360.054	17.11
360.263	17.25
360.472	17.77
360.682	18.84
360.891	17.9
361.1	16.68
361.309	17.02
361.519	15.88
361.728	15.81
361.937	15.47
362.146	15.82
362.355	16.57
362.564	15.92
362.774	14.83
362.983	14.37
363.192	14.79
363.401	16.03
363.61	14.6
363.819	15.75
364.028	15.69
364.237	15.16
364.446	15.32
364.655	14.48
364.864	15.23
365.073	15.61
365.282	14.98
365.491	15.03
365.7	15.71
365.909	15.8
366.118	16.11
366.327	15.67
366.536	14.91
366.745	14.85
366.954	15.64
367.162	15.98
367.371	15.7
367.58	16.33
367.789	15.68
367.998	14.52
368.207	15
368.415	15.04
368.624	15.31
368.833	16.04
369.042	15.11
369.25	14.31
369.459	14.52
369.668	14.37
369.877	14.81
370.085	14.98
370.294	14.52
370.503	14.53
370.711	13.15
370.92	13.7
371.129	14.32
371.337	13.89
371.546	14.78
371.754	14.06
371.963	13.84
372.171	11.86
372.38	11.93
372.589	12.1
372.797	12.56
373.006	12.71
373.214	11.7
373.423	10.9
373.631	11.31
373.84	9.86
374.048	10.57
374.256	11.37
374.465	13.59
374.673	13.96
374.882	13.37
375.09	12.84
375.298	13.49
375.507	13.06
375.715	13.49
375.923	13.96
376.132	14.4
376.34	13.36
376.548	13.46
376.757	13.19
376.965	12.62
377.173	13.44
377.381	12.87
377.59	12.49
377.798	13.14
378.006	12.24
378.214	12.7
378.423	13.06
378.631	13.46
378.839	12.78
379.047	12.82
379.255	13.91
379.463	13.32
379.671	14.13
379.879	14.17
380.088	13.58
380.296	15.76
380.504	14.97
380.712	14.97
380.92	15.09
381.128	15.35
381.336	14.27
381.544	12.34
381.752	12.22
381.96	11.96
382.168	11.14
382.376	12.46
382.584	11.17
382.791	10.69
382.999	10.38
383.207	9.8
383.415	10.6
383.623	10.8
383.831	11.31
384.039	11.66
384.247	11.88
384.454	12.3
384.662	11.39
384.87	11.73
385.078	12.75
385.285	12.53
385.493	14.1
385.701	13.01
385.909	13.4
386.116	13.63
386.324	12.87
386.532	12.3
386.739	13.1
386.947	12.65
387.155	12.32
387.362	11.81
387.57	11.13
387.778	9.66
387.985	8.61
388.193	8.77
388.4	8.88
388.608	9.43
388.816	10.2
389.023	9.85
389.231	10.52
389.438	10.62
389.646	11.25
389.853	12.26
390.061	12.41
390.268	13.27
390.475	12.55
390.683	12.48
390.89	12.86
391.098	13.09
391.305	12.26
391.512	12.37
391.72	11.9
391.927	11.69
392.135	11.54
392.342	11.38
392.549	11.15
392.756	11.69
392.964	11.28
393.171	11.02
393.378	10.35
393.586	10.96
393.793	10.73
394	10.43
394.207	10
394.414	10.32
394.622	10.89
394.829	10.92
395.036	10.5
395.243	10.18
395.45	10.45
395.657	10.01
395.864	9.8
396.072	10.32
396.279	10.73
396.486	10.5
396.693	10.02
396.9	9.57
397.107	9.85
397.314	9.66
397.521	10.42
397.728	9.52
397.935	9.47
398.142	10.35
398.349	9.61
398.556	9.61
398.763	10.1
398.97	10.74
399.177	10.92
399.383	11.1
399.59	11.46
399.797	11.55
400.004	12.64
400.211	12.74
400.418	12.23
400.625	12.7
400.831	12.89
401.038	12.2
401.245	12.06
401.452	12.47
401.658	12.42
401.865	12.74
402.072	12.29
402.279	11.77
402.485	12.84
402.692	12.51
402.899	11.8
403.105	11.55
403.312	11.99
403.519	11.94
403.725	11.41
403.932	11.64
404.138	11.21
404.345	11.2
404.552	11.48
404.758	11.33
404.965	11.37
405.171	12.24
405.378	12.95
405.584	13.03
405.791	12.51
405.997	12.88
406.204	12.8
406.41	13.27
406.617	13.31
406.823	11.96
407.029	11.26
407.236	11.34
407.442	10.98
407.649	10.56
407.855	10.59
408.061	11.12
408.268	10.59
408.474	10.71
408.68	9.86
408.887	10.33
409.093	11.33
409.299	11.53
409.505	11.22
409.712	11.56
409.918	11.32
410.124	10.55
410.33	10.27
410.537	10.68
410.743	9.91
410.949	10.6
411.155	9.67
411.361	8.89
411.567	8.69
411.773	9.19
411.98	8.96
412.186	9.46
412.392	10.23
412.598	9.95
412.804	9.56
413.01	9.79
413.216	9.79
413.422	9.95
413.628	11.11
413.834	10.75
414.04	10.63
414.246	9.78
414.452	9.09
414.658	8.66
414.864	9.36
415.07	9.71
415.275	9.6
415.481	9.62
415.687	10.15
415.893	9.13
416.099	9.9
416.305	9.3
416.511	9.67
416.716	9.81
416.922	9.92
417.128	9.6
417.334	9.41
417.539	9.39
417.745	9.49
417.951	9.06
418.157	9.96
418.362	9.47
418.568	9.87
418.774	9.6
418.979	9.76
419.185	9.72
419.391	9.76
419.596	9.64
419.802	9.53
420.008	8.93
420.213	9.26
420.419	8.85
420.624	9.05
420.83	8.91
421.035	9.43
421.241	9.23
421.446	9.24
421.652	9.4
421.857	9.34
422.063	9.56
422.268	9.92
422.474	9.74
422.679	9.74
422.885	9.72
423.09	9.62
423.295	9.31
423.501	9.35
423.706	9.39
423.911	9.23
424.117	9.41
424.322	9.41
424.527	9.4
424.733	9.65
424.938	9.49
425.143	9.35
425.349	9.18
425.554	9.04
425.759	8.99
425.964	8.97
426.169	8.92
426.375	9
426.58	9.08
426.785	9.02
426.99	8.55
427.195	8.91
427.4	8.93
427.605	9.76
427.811	10.12
428.016	10.03
428.221	10.07
428.426	10.3
428.631	9.85
428.836	9.61
429.041	9.64
429.246	9.7
429.451	9.68
429.656	9.8
429.861	9.27
430.066	9.32
430.271	9.74
430.476	9.86
430.681	9.39
430.886	9.61
431.09	9.66
431.295	9.68
431.5	10.05
431.705	10.13
431.91	10.17
432.115	9.85
432.32	9.56
432.524	9.13
432.729	9.12
432.934	9.01
433.139	9.2
433.343	9.25
433.548	9.14
433.753	8.91
433.958	8.78
434.162	8.78
434.367	9.17
434.572	9.15
434.776	9.5
434.981	9.45
435.186	9.46
435.39	9.24
435.595	9.13
435.799	8.95
436.004	8.81
436.209	8.86
436.413	8.58
436.618	8.42
436.822	8.85
437.027	9.06
437.231	8.69
437.436	8.97
437.64	9.05
437.845	9.43
438.049	9.7
438.253	9.74
438.458	9.7
438.662	10.02
438.867	10.14
439.071	9.88
439.275	9.74
439.48	9.86
439.684	10.1
439.888	10.23
440.093	9.94
440.297	10.15
440.501	10.26
440.706	10.48
440.91	10.2
441.114	10.45
441.318	10.46
441.523	10.43
441.727	10.51
441.931	10.78
442.135	10.72
442.339	10.68
442.543	10.33
442.748	10.41
442.952	9.78
443.156	9.5
443.36	9.38
443.564	9.15
443.768	9.28
443.972	10.06
444.176	9.78
444.38	9.72
444.584	9.7
444.788	9.54
444.992	9.37
445.196	9.45
445.4	9.55
445.604	9.29
445.808	9.25
446.012	8.92
446.216	8.29
446.42	8.3
446.624	8.19
446.828	8.31
447.032	8.46
447.235	8.48
447.439	8.59
447.643	8.59
447.847	8.85
448.051	9.19
448.254	9.32
448.458	9.53
448.662	8.94
448.866	9.03
449.069	8.89
449.273	8.91
449.477	9.33
449.681	9.24
449.884	9.58
450.088	9.19
450.292	8.97
450.495	9.17
450.699	9.16
450.902	9.58
451.106	9.69
451.31	9.49
451.513	9.43
451.717	9.12
451.92	9.12
452.124	9.44
452.327	9.86
452.531	10.24
452.734	10.2
452.938	9.76
453.141	9.67
453.345	9.41
453.548	9.46
453.752	9.61
453.955	9.69
454.158	9.72
454.362	9.19
454.565	8.82
454.769	8.5
454.972	8.44
455.175	8.9
455.379	9.15
455.582	9.22
455.785	9.38
455.988	9.05
456.192	8.68
456.395	8.44
456.598	8.67
456.801	9.18
457.005	9.04
457.208	9.22
457.411	8.84
457.614	8.56
457.817	8.66
458.021	8.57
458.224	8.5
458.427	8.82
458.63	9.02
458.833	9.19
459.036	9.03
459.239	9.13
459.442	9.1
459.645	9.49
459.848	9.42
460.051	9.27
460.254	9.65
460.457	9.87
460.66	9.67
460.863	9.74
461.066	9.56
461.269	9.41
461.472	9.65
461.675	9.59
461.878	9.33
462.081	9.64
462.284	9.76
462.486	8.79
462.689	8.51
462.892	8.63
463.095	8.79
463.298	8.44
463.5	8.87
463.703	8.81
463.906	8.76
464.109	8.7
464.311	8.78
464.514	8.8
464.717	9.26
464.92	9.48
465.122	9.62
465.325	9.46
465.528	10.05
465.73	9.67
465.933	9.57
466.135	9.58
466.338	9.88
466.541	9.71
466.743	9.94
466.946	10.15
467.148	10.44
467.351	10.4
467.553	10.63
467.756	10.41
467.958	10.68
468.161	10.69
468.363	10.47
468.566	10.07
468.768	9.83
468.971	9.89
469.173	10.34
469.375	10.3
469.578	10.38
469.78	10.05
469.983	10.26
470.185	9.97
470.387	9.96
470.59	9.94
470.792	10.19
470.994	10.52
471.196	10.5
471.399	9.7
471.601	9.57
471.803	9.18
472.005	9.26
472.208	9.18
472.41	9.29
472.612	9.12
472.814	9.6
473.016	9.51
473.218	9.56
473.421	9.13
473.623	9.36
473.825	9.1
474.027	9.29
474.229	9.82
474.431	9.51
474.633	9.47
474.835	9.39
475.037	9.16
475.239	9.18
475.441	9.47
475.643	9.91
475.845	9.9
476.047	10.07
476.249	9.92
476.451	9.18
476.653	9.44
476.855	9.62
477.057	9.8
477.258	9.56
477.46	9.55
477.662	9.29
477.864	9.14
478.066	9.42
478.268	9.62
478.469	9.67
478.671	9.85
478.873	9.56
479.075	9.25
479.276	9.24
479.478	9.15
479.68	9.39
479.882	9.21
480.083	9.15
480.285	8.91
480.487	8.88
480.688	8.96
480.89	9.03
481.091	9.14
481.293	8.97
481.495	8.74
481.696	8.84
481.898	8.61
482.099	8.57
482.301	8.44
482.502	8.42
482.704	8.25
482.905	8.1
483.107	8.06
483.308	7.89
483.51	7.94
483.711	7.87
483.913	7.91
484.114	7.91
484.315	7.82
484.517	7.82
484.718	7.77
484.92	7.93
485.121	7.96
485.322	7.86
485.524	8
485.725	8.16
485.926	8.36
486.127	8.32
486.329	8.31
486.53	8.29
486.731	8.31
486.932	8.22
487.134	8.18
487.335	8.16
487.536	8.21
487.737	8.35
487.938	8.34
488.139	8.41
488.341	8.33
488.542	8.44
488.743	8.7
488.944	8.73
489.145	8.74
489.346	8.79
489.547	9
489.748	9.08
489.949	8.89
490.15	8.82
490.351	8.65
490.552	8.61
490.753	8.52
490.954	8.55
491.155	8.58
491.356	8.69
491.557	8.54
491.758	8.62
491.959	8.61
492.159	8.71
492.36	8.81
492.561	8.96
492.762	9.04
492.963	9.19
493.164	9.13
493.364	9.25
493.565	9.39
493.766	9.6
493.967	9.32
494.167	9.33
494.368	9.12
494.569	8.85
494.769	8.82
494.97	9.05
495.171	9.18
495.371	9.11
495.572	9.18
495.773	9.33
495.973	9.28
496.174	9.45
496.375	9.52
496.575	9.84
496.776	10.06
496.976	9.92
497.177	9.85
497.377	9.71
497.578	9.8
497.778	9.6
497.979	9.78
498.179	9.77
498.38	9.81
498.58	9.97
498.78	9.88
498.981	10.31
499.181	10.39
499.382	10.23
499.582	10.26
499.782	10.52
499.983	10.77
500.183	10.51
500.383	10.92
500.584	10.97
500.784	10.87
500.984	11.07
501.184	10.53
501.385	10.81
501.585	10.92
501.785	10.79
501.985	10.57
502.185	10.65
502.386	10.4
502.586	10.26
502.786	10.39
502.986	10.17
503.186	10.21
503.386	10.25
503.586	10.22
503.786	10.63
503.987	10.88
504.187	10.93
504.387	11.25
504.587	11.41
504.787	11.37
504.987	11.28
505.187	11.67
505.387	11.65
505.587	11.73
505.786	11.7
505.986	11.56
506.186	11.45
506.386	11.85
506.586	11.59
506.786	11.59
506.986	11.61
507.186	11.76
507.386	11.78
507.585	11.91
507.785	12.05
507.985	12.35
508.185	12.54
508.384	12.85
508.584	12.78
508.784	13.06
508.984	13.33
509.183	13.43
509.383	13.51
509.583	13.58
509.782	13.46
509.982	13.75
510.182	13.73
510.381	13.8
510.581	13.79
510.781	13.98
510.98	13.86
511.18	14.17
511.379	14.21
511.579	14.13
511.778	14.4
511.978	14.6
512.177	14.26
512.377	14.23
512.576	13.92
512.776	13.76
512.975	13.37
513.175	13.47
513.374	13.44
513.573	13.53
513.773	13.49
513.972	13.38
514.172	13.57
514.371	13.43
514.57	13.85
514.77	14.17
514.969	14.25
515.168	14.53
515.367	14.77
515.567	14.55
515.766	14.85
515.965	14.96
516.164	14.75
516.364	14.72
516.563	15.07
516.762	14.95
516.961	15.04
517.16	15.24
517.359	15.13
517.559	14.8
517.758	14.87
517.957	14.67
518.156	14.81
518.355	15.08
518.554	14.95
518.753	14.96
518.952	15
519.151	14.92
519.35	15.01
519.549	15.26
519.748	15.63
519.947	15.71
520.146	15.83
520.345	16.1
520.544	15.93
520.743	16.15
520.942	16.14
521.141	16.37
521.339	16.61
521.538	16.74
521.737	16.85
521.936	17.07
522.135	17.04
522.333	17.2
522.532	17.29
522.731	17.43
522.93	17.56
523.129	17.63
523.327	17.56
523.526	17.34
523.725	16.93
523.923	17.06
524.122	16.88
524.321	16.98
524.519	16.97
524.718	16.69
524.917	16.75
525.115	16.72
525.314	16.94
525.512	16.97
525.711	16.98
525.909	17.23
526.108	17.2
526.306	17.17
526.505	17.25
526.703	17.1
526.902	17.03
527.1	17.09
527.299	17.1
527.497	17.01
527.696	17.06
527.894	17.16
528.092	17.14
528.291	17.09
528.489	17.2
528.688	17.24
528.886	17.37
529.084	17.64
529.283	17.72
529.481	17.8
529.679	18.05
529.877	18.15
530.076	18.24
530.274	18.7
530.472	18.72
530.67	18.74
530.869	18.7
531.067	18.82
531.265	18.83
531.463	18.8
531.661	18.96
531.859	18.98
532.057	18.98
532.255	19.21
532.454	18.95
532.652	18.99
532.85	18.95
533.048	19.01
533.246	19.04
533.444	18.99
533.642	18.99
533.84	19.04
534.038	19.01
534.236	18.96
534.434	18.79
534.632	18.8
534.83	19.04
535.027	19.2
535.225	19.32
535.423	19.52
535.621	19.75
535.819	19.97
536.017	19.93
536.215	20.1
536.412	20.2
536.61	20.16
536.808	20.31
537.006	20.22
537.203	20.11
537.401	20.29
537.599	20.4
537.797	20.34
537.994	20.19
538.192	20.52
538.39	20.35
538.587	20.51
538.785	20.68
538.983	20.8
539.18	21.11
539.378	21.16
539.575	20.96
539.773	20.83
539.97	21.05
540.168	21.16
540.366	20.92
540.563	20.94
540.761	20.98
540.958	20.98
541.155	21.06
541.353	20.95
541.55	21.09
541.748	21.15
541.945	21.35
542.143	21.2
542.34	21.29
542.537	21.64
542.735	21.88
542.932	21.94
543.129	22.21
543.327	22.2
543.524	22.11
543.721	22.04
543.919	22.19
544.116	21.94
544.313	22.03
544.51	22.25
544.708	22.03
544.905	21.76
545.102	21.64
545.299	21.52
545.496	21.67
545.693	21.97
545.891	22.22
546.088	22.31
546.285	22.51
546.482	22.74
546.679	22.5
546.876	22.65
547.073	22.99
547.27	23.29
547.467	23.16
547.664	23.28
547.861	23.34
548.058	23.49
548.255	23.6
548.452	23.98
548.649	23.9
548.846	24.41
549.043	24.19
549.24	24.31
549.437	24.19
549.633	24.73
549.83	24.5
550.027	24.54
550.224	24.49
550.421	24.53
550.618	24.43
550.814	24.51
551.011	24.06
551.208	24.46
551.405	24.17
551.601	24.31
551.798	24.25
551.995	24.27
552.191	24.25
552.388	24.2
552.585	24.6
552.781	24.29
552.978	24.21
553.175	24.57
553.371	24.43
553.568	24.83
553.764	24.91
553.961	24.86
554.157	25
554.354	25.35
554.55	25.45
554.747	25.01
554.943	25.84
555.14	25.89
555.336	25.62
555.533	25.49
555.729	25.61
555.926	25.37
556.122	25.8
556.318	26.27
556.515	26.43
556.711	26.54
556.907	26.49
557.104	26.23
557.3	26.89
557.496	27.38
557.693	27.36
557.889	27.11
558.085	27.35
558.281	27.46
558.478	27.18
558.674	26.99
558.87	27.35
559.066	27.77
559.262	27.51
559.459	26.8
559.655	26.95
559.851	27.13
560.047	26.97
560.243	27.1
560.439	26.54
560.635	26.42
560.831	26.57
561.027	26.38
561.223	26.47
561.419	26.4
561.615	26.79
561.811	26.31
562.007	26.38
562.203	26.18
562.399	26.19
562.595	26.27
562.791	26.56
562.987	26.35
563.183	26.27
563.379	25.69
563.575	26.05
563.771	26.04
563.966	26.17
564.162	26.3
564.358	27.02
564.554	26.93
564.75	27.05
564.945	27.31
565.141	27.79
565.337	27.96
565.533	28.49
565.728	28.64
565.924	28.98
566.12	29.32
566.315	29.26
566.511	28.78
566.707	29.17
566.902	29.85
567.098	29.24
567.293	28.98
567.489	29.35
567.684	29.09
567.88	28.84
568.076	28.57
568.271	28.48
568.467	28.63
568.662	28.87
568.858	28.77
569.053	28.05
569.248	28.35
569.444	28.45
569.639	28.16
569.835	28.62
570.03	28.64
570.225	28.84
570.421	28.75
570.616	29.03
570.812	29.27
571.007	29.49
571.202	29.92
571.397	29.96
571.593	29.73
571.788	29.96
571.983	29.78
572.178	29.91
572.374	29.51
572.569	29.62
572.764	29.5
572.959	29.46
573.154	29.11
573.35	29.2
573.545	29.16
573.74	29.49
573.935	29.09
574.13	29.15
574.325	29.03
574.52	29.29
574.715	29.78
574.91	30.07
575.105	30.25
575.3	30.32
575.495	29.96
575.69	30.25
575.885	29.97
576.08	30.06
576.275	30.66
576.47	30.85
576.665	31.23
576.86	30.8
577.055	30.91
577.25	30.61
577.444	30.97
577.639	30.97
577.834	31.1
578.029	31.5
578.224	31.33
578.418	30.83
578.613	30.96
578.808	30.91
579.003	31.03
579.197	31.03
579.392	30.88
579.587	30.87
579.781	31
579.976	30.96
580.171	30.95
580.365	30.91
580.56	30.66
580.755	30.53
580.949	30.23
581.144	29.99
581.338	29.64
581.533	30.33
581.727	30.29
581.922	30.66
582.116	30.57
582.311	31.08
582.505	31.55
582.7	31.91
582.894	32.41
583.089	32.78
583.283	32.83
583.478	33.07
583.672	32.8
583.866	32.48
584.061	32.09
584.255	32.15
584.449	31.94
584.644	32.07
584.838	31.9
585.032	31.7
585.226	31.31
585.421	31.7
585.615	31.4
585.809	31.19
586.003	31.78
586.198	32.85
586.392	33.11
586.586	32.94
586.78	32.68
586.974	32.87
587.168	32.79
587.363	32.74
587.557	32.59
587.751	33
587.945	33.42
588.139	33.07
588.333	32.34
588.527	32.36
588.721	32.5
588.915	32.88
589.109	32.61
589.303	32.24
589.497	32.57
589.691	32.3
589.885	31.92
590.079	31.73
590.273	31.78
590.466	32.05
590.66	31.89
590.854	31.76
591.048	31.76
591.242	32.13
591.436	32.69
591.629	32.8
591.823	32.9
592.017	33.33
592.211	33.69
592.404	34.14
592.598	34.13
592.792	34.3
592.986	34.3
593.179	34.17
593.373	33.79
593.567	33.37
593.76	33.47
593.954	33.93
594.147	33.95
594.341	33.74
594.535	33.33
594.728	32.8
594.922	32.35
595.115	32.24
595.309	32.32
595.502	32.52
595.696	32.81
595.889	32.96
596.083	32.66
596.276	32.61
596.47	32.7
596.663	32.94
596.856	33.31
597.05	33.58
597.243	33.49
597.437	33.56
597.63	33.77
597.823	33.66
598.017	33.46
598.21	33.64
598.403	34.06
598.596	33.97
598.79	34.47
598.983	34.43
599.176	34.41
599.369	34.8
599.563	34.68
599.756	34.55
599.949	34.57
600.142	35.03
600.335	34.65
600.528	33.89
600.722	33.87
600.915	33.3
601.108	33.32
601.301	33.51
601.494	33.6
601.687	33.76
601.88	33.99
602.073	33.64
602.266	33.66
602.459	33.79
602.652	33.91
602.845	34.01
603.038	34.06
603.231	33.84
603.424	33.58
603.617	33.62
603.809	33.8
604.002	33.86
604.195	34.04
604.388	33.64
604.581	33.86
604.774	34.16
604.966	34.23
605.159	34.19
605.352	34.49
605.545	35.14
605.737	34.99
605.93	35.54
606.123	35.07
606.316	35.38
606.508	35.38
606.701	35.11
606.894	34.85
607.086	34.79
607.279	35.49
607.471	35.68
607.664	35.13
607.857	35.11
608.049	34.39
608.242	34.34
608.434	34.57
608.627	35.37
608.819	35.47
609.012	35.67
609.204	35.44
609.397	35.34
609.589	35.29
609.782	35.3
609.974	35.62
610.166	36.28
610.359	36.6
610.551	36.87
610.743	36.45
610.936	36.6
611.128	36.74
611.32	37.55
611.513	36.65
611.705	36.72
611.897	37.31
612.09	36.77
612.282	36.39
612.474	37.04
612.666	37.23
612.858	37.27
613.051	37.58
613.243	37.04
613.435	36.99
613.627	37.31
613.819	37.23
614.011	37.24
614.203	38.13
614.395	37.65
614.588	37.79
614.78	37.65
614.972	38.32
615.164	38.17
615.356	38.97
615.548	38.6
615.74	39.1
615.932	38.77
616.124	38.62
616.315	38.31
616.507	38.46
616.699	38.07
616.891	37.45
617.083	36.79
617.275	37.57
617.467	37.5
617.659	38
617.85	38.21
618.042	39.14
618.234	38.85
618.426	38.99
618.618	38.4
618.809	38.56
619.001	38.72
619.193	38.97
619.384	38.41
619.576	37.98
619.768	37.44
619.959	37.35
620.151	36.54
620.343	37.08
620.534	36.8
620.726	37.91
620.917	37.78
621.109	38.24
621.301	38.22
621.492	38.05
621.684	37.88
621.875	38
622.067	37.64
622.258	38.16
622.45	38.22
622.641	38.69
622.832	38.57
623.024	38.06
623.215	37.54
623.407	37.06
623.598	36.99
623.789	37.38
623.981	37.63
624.172	38.2
624.363	38.11
624.555	37.62
624.746	37.23
624.937	36.95
625.129	37.28
625.32	37.42
625.511	37.37
625.702	37.29
625.893	37.61
626.085	37.31
626.276	36.69
626.467	36.66
626.658	36.79
626.849	36.84
627.04	37.42
627.231	37.88
627.422	37.83
627.614	38.24
627.805	38.22
627.996	38.01
628.187	38.12
628.378	38.73
628.569	38.52
628.76	38.62
628.951	38.82
629.142	38.08
629.332	37.59
629.523	37.89
629.714	37.5
629.905	37.67
630.096	37.64
630.287	37.64
630.478	37.38
630.669	37.92
630.859	38.14
631.05	38.21
631.241	38.16
631.432	38.56
631.623	38.72
631.813	39.02
632.004	38.64
632.195	37.97
632.385	37.81
632.576	37.71
632.767	37.09
632.957	36.69
633.148	36.48
633.339	36.19
633.529	35.67
633.72	35.23
633.91	35.46
634.101	35.89
634.292	37.51
634.482	38.06
634.673	38.27
634.863	38.68
635.054	39.14
635.244	40.17
635.435	40.87
635.625	41.44
635.815	41.42
636.006	40.63
636.196	41.39
636.387	40.47
636.577	40.41
636.767	40.31
636.958	40.13
637.148	40.49
637.338	39.6
637.529	39.74
637.719	39.38
637.909	39.71
638.099	40.65
638.29	39.46
638.48	39
638.67	39.17
638.86	39
639.05	38.87
639.241	38.56
639.431	38.06
639.621	38.55
639.811	38.45
640.001	38.67
640.191	38.37
640.381	39.24
640.571	39.69
640.761	39.68
640.951	39.66
641.141	40.25
641.331	39.58
641.521	40.2
641.711	39.89
641.901	39.44
642.091	40
642.281	38.96
642.471	39.02
642.661	39.35
642.851	38.67
643.041	38.9
643.231	39.15
643.42	39.21
643.61	39.15
643.8	39
643.99	39.14
644.18	38.42
644.369	40.01
644.559	39.8
644.749	39.58
644.939	39.97
645.128	40.58
645.318	41.02
645.508	41.56
645.697	41.55
645.887	41.87
646.076	42.83
646.266	43.42
646.456	42.64
646.645	43.4
646.835	43.83
647.024	43.9
647.214	43.22
647.403	42.36
647.593	42.02
647.782	42.46
647.972	41.8
648.161	41.33
648.351	41.71
648.54	42.39
648.73	41.98
648.919	41.3
649.108	40.48
649.298	40.22
649.487	40.4
649.677	41.06
649.866	41.13
650.055	41.48
650.244	41.78
650.434	41.09
650.623	40.87
650.812	40.34
651.002	40.63
651.191	41.39
651.38	41.73
651.569	42.25
651.758	42.12
651.947	41.39
652.137	41.14
652.326	40.84
652.515	40.58
652.704	40.43
652.893	40.09
653.082	39.53
653.271	39.91
653.46	39.36
653.649	38.48
653.838	38.35
654.027	39.1
654.216	39.07
654.405	39.65
654.594	40.25
654.783	40.4
654.972	40.92
655.161	41.27
655.35	40
655.539	41.08
655.728	41.56
655.916	41.27
656.105	41.26
656.294	41.51
656.483	39.89
656.672	39.4
656.86	39.02
657.049	38.98
657.238	39.06
657.427	39.76
657.615	39.31
657.804	38.72
657.993	39.04
658.181	39.04
658.37	38.64
658.559	39.01
658.747	39.24
658.936	39.29
659.125	39.36
659.313	38.96
659.502	38.98
659.69	38.86
659.879	39.76
660.067	39.38
660.256	38.98
660.444	39.61
660.633	40.09
660.821	39.96
661.01	39.83
661.198	40.24
661.387	40.49
661.575	40.99
661.763	41.26
661.952	40.8
662.14	41.64
662.328	41.84
662.517	41.93
662.705	41.63
662.893	41.56
663.082	42.26
663.27	41.96
663.458	42.39
663.646	41.69
663.834	40.85
664.023	41.42
664.211	40.72
664.399	41.08
664.587	40.75
664.775	40.65
664.963	41.28
665.152	41.85
665.34	42.4
665.528	42.11
665.716	42.72
665.904	43.33
666.092	42.72
666.28	43.17
666.468	42.09
666.656	42.58
666.844	43.55
667.032	42.03
667.22	41.69
667.408	40.53
667.596	40.31
667.784	40.6
667.971	41.59
668.159	41.77
668.347	40.98
668.535	41.63
668.723	41.52
668.911	40.68
669.098	41.37
669.286	41.07
669.474	41.5
669.662	41.58
669.849	40.68
670.037	41.43
670.225	41.39
670.413	41.62
670.6	41.09
670.788	40.65
670.976	41.94
671.163	42.37
671.351	42.81
671.538	43.49
671.726	44.49
671.913	45.25
672.101	44.1
672.289	44.45
672.476	45.58
672.664	46.09
672.851	45.94
673.039	46.2
673.226	45.97
673.413	45.13
673.601	44.24
673.788	43.55
673.976	42.43
674.163	42.19
674.35	42.11
674.538	41.22
674.725	41.75
674.912	41.53
675.1	40.46
675.287	40.39
675.474	40.47
675.662	40.74
675.849	40.8
676.036	41.87
676.223	41.87
676.411	41.82
676.598	41.16
676.785	41.1
676.972	41.64
677.159	41.38
677.346	41.07
677.533	40.97
677.721	40.65
677.908	39.91
678.095	39.34
678.282	39.23
678.469	37.72
678.656	38.22
678.843	37.89
679.03	38.59
679.217	38.49
679.404	39.03
679.591	39.62
679.778	39.72
679.964	40.59
680.151	41
680.338	41
680.525	42.22
680.712	42.12
680.899	41.64
681.086	41.5
681.272	42.39
681.459	42.5
681.646	41.84
681.833	42.23
682.02	42.2
682.206	42.5
682.393	42.77
682.58	43.04
682.766	46.28
682.953	46.54
683.14	46.4
683.326	45.95
683.513	46.97
683.7	47.96
683.886	47.5
684.073	48.02
684.259	47.17
684.446	47.24
684.632	47.33
684.819	43.63
685.005	44.19
685.192	43.35
685.378	43.65
685.565	42.31
685.751	41.74
685.938	42.29
686.124	40.29
686.31	40.53
686.497	40.09
686.683	40.68
686.87	41.41
687.056	40.61
687.242	40.69
687.429	41.28
687.615	41.19
687.801	41.79
687.987	41.26
688.174	42.28
688.36	42.62
688.546	43.51
688.732	42.58
688.918	42.8
689.105	43.57
689.291	44.32
689.477	43.37
689.663	44.01
689.849	43.95
690.035	44.76
690.221	45.31
690.407	45.73
690.593	45.13
690.779	44.57
690.965	44.65
691.151	44.99
691.337	45.56
691.523	47.14
691.709	47.02
691.895	46.04
692.081	46.1
692.267	46.11
692.453	46.02
692.639	46.34
692.825	46.71
693.011	45.04
693.196	45.89
693.382	45
693.568	43.11
693.754	43.57
693.94	45.48
694.125	45.49
694.311	43.81
694.497	44.33
694.682	44.14
694.868	45.14
695.054	45.94
695.239	45.34
695.425	45.48
695.611	45.58
695.796	44.12
695.982	43.76
696.168	43.7
696.353	45.16
696.539	43.97
696.724	42.95
696.91	42.49
697.095	42.67
697.281	42.22
697.466	42.18
697.652	42.34
697.837	42.75
698.023	42.48
698.208	42.22
698.393	42.13
698.579	42.56
698.764	42.83
698.949	41.98
699.135	41.99
699.32	42.77
699.505	42.51
699.691	42.27
699.876	41.54
700.061	41.23
700.246	41.6
700.432	42.49
700.617	43.12
700.802	43.43
700.987	44.54
701.172	46.12
701.358	44.23
701.543	45.41
701.728	47.49
701.913	50.3
702.098	51.25
702.283	50.85
702.468	49.17
702.653	49.04
702.838	49.81
703.023	49.1
703.208	48.13
703.393	50.56
703.578	49.26
703.763	48.13
703.948	46.67
704.133	46.75
704.318	47.24
704.503	48.39
704.688	47.72
704.873	47.11
705.057	47.19
705.242	45.9
705.427	44.73
705.612	45.44
705.797	44.97
705.981	45.71
706.166	45.64
706.351	45.76
706.536	46.3
706.72	46.97
706.905	46.18
707.09	47.68
707.274	49.16
707.459	48.94
707.644	49.09
707.828	48.22
708.013	47.44
708.197	46.13
708.382	45.65
708.567	43.78
708.751	43.22
708.936	44.19
709.12	44.1
709.305	43.13
709.489	41.42
709.673	41.19
709.858	41.98
710.042	41.14
710.227	42.12
710.411	42.92
710.596	44.17
710.78	43.86
710.964	43.59
711.149	42.27
711.333	43.5
711.517	43.31
711.702	43.79
711.886	43.84
712.07	44.55
712.254	43.68
712.438	44.2
712.623	42.98
712.807	43.04
712.991	43.98
713.175	45.5
713.359	44.25
713.544	46.8
713.728	47.79
713.912	48.91
714.096	48.99
714.28	48.46
714.464	46.75
714.648	47.78
714.832	48.41
715.016	47.65
715.2	47.07
715.384	47.51
715.568	46.59
715.752	45.13
715.936	43.17
716.12	43.03
716.304	43.36
716.488	43.77
716.671	44.68
716.855	45.87
717.039	45
717.223	46.85
717.407	47.93
717.59	49.41
717.774	49.67
717.958	51.36
718.142	52.04
718.325	52.94
718.509	54.23
718.693	53.85
718.877	52.49
719.06	53.74
719.244	52.35
719.428	52.75
719.611	50.64
719.795	48.57
719.978	48.64
720.162	47.68
720.345	47.77
720.529	45.75
720.713	43.76
720.896	42.78
721.08	44.64
721.263	44.51
721.446	43.88
721.63	44.37
721.813	45.44
721.997	44.74
722.18	47.29
722.364	48.56
722.547	49.86
722.73	51.94
722.914	52.58
723.097	52.48
723.28	52.1
723.464	51.79
723.647	52.02
723.83	52.85
724.013	54.3
724.197	51.96
724.38	51.42
724.563	51.06
724.746	50.86
724.929	50.37
725.112	49.01
725.296	48.78
725.479	47.47
725.662	49.64
725.845	48.8
726.028	48.15
726.211	46.42
726.394	46.9
726.577	47.56
726.76	46.34
726.943	46.55
727.126	46.56
727.309	45.28
727.492	45.79
727.675	44.78
727.858	45.28
728.041	44.69
728.224	45.75
728.407	43.85
728.589	42.4
728.772	43
728.955	42.97
729.138	42.63
729.321	44.07
729.503	44.3
729.686	43.88
729.869	43.97
730.052	43.95
730.234	44.77
730.417	46.88
730.6	48.07
730.782	47.36
730.965	47.66
731.148	48.63
731.33	48.43
731.513	47.93
731.695	48.25
731.878	49.38
732.061	48.97
732.243	48.66
732.426	46.87
732.608	47.03
732.791	47.94
732.973	48.17
733.156	49.36
733.338	48.99
733.52	50.01
733.703	49.75
733.885	49.36
734.068	49.98
734.25	51.08
734.432	52.44
734.615	54.32
734.797	54.56
734.979	54.73
735.162	53.04
735.344	54
735.526	55.07
735.708	55.34
735.891	54.15
736.073	54.56
736.255	53.31
736.437	52.2
736.619	48.34
736.802	46.69
736.984	48.01
737.166	48.22
737.348	48.19
737.53	47.35
737.712	47.21
737.894	48.02
738.076	47.39
738.258	48.29
738.44	47.4
738.622	49.41
738.804	52.16
738.986	50.5
739.168	49.67
739.35	50.47
739.532	50.78
739.714	51.65
739.896	54.2
740.078	54.64
740.259	53.81
740.441	56.63
740.623	56.97
740.805	55.45
740.987	55.53
741.168	55.66
741.35	56.75
741.532	57.56
741.714	57.55
741.895	54.27
742.077	54.46
742.259	55.14
742.44	54.5
742.622	54.19
742.804	54.17
742.985	54.57
743.167	55.19
743.348	51.93
743.53	51.43
743.711	49.81
743.893	51.03
744.075	52.74
744.256	51.2
744.438	51.33
744.619	52.52
744.8	52.3
744.982	52.88
745.163	54.46
745.345	55.96
745.526	55.08
745.707	57.09
745.889	56.97
746.07	56.92
746.252	59.12
746.433	59.76
746.614	58.95
746.795	62.82
746.977	63.54
747.158	64.35
747.339	65.61
747.52	65.63
747.702	65.45
747.883	66.07
748.064	67.7
748.245	66.68
748.426	65.26
748.607	65.28
748.788	61.94
748.97	61.84
749.151	61.29
749.332	63.26
749.513	62.73
749.694	62.66
749.875	61.65
750.056	56.81
750.237	58.06
750.418	58.82
750.599	58.78
750.78	56.23
750.96	54.84
751.141	53.38
751.322	51.18
751.503	52.05
751.684	51.13
751.865	49.83
752.046	52.36
752.226	49.77
752.407	48.54
752.588	50.34
752.769	53.07
752.949	51.87
753.13	49.72
753.311	46.07
753.492	44.37
753.672	44.84
753.853	48.13
754.034	46.99
754.214	48.64
754.395	48.08
754.575	46.59
754.756	47.53
754.937	47.54
755.117	49.01
755.298	52.5
755.478	53.07
755.659	52.91
755.839	52.1
756.02	53.09
756.2	53.38
756.381	55.39
756.561	55.77
756.741	54.63
756.922	56.82
757.102	56.91
757.283	56.51
757.463	59.06
757.643	58.88
757.823	58.34
758.004	56.75
758.184	55.71
758.364	55.23
758.545	56.51
758.725	56.73
758.905	55.68
759.085	58.02
759.265	58.17
759.446	56.74
759.626	57.62
759.806	58.08
759.986	58.55
760.166	59.11
760.346	59.55
760.526	56.16
760.706	55.36
760.886	53.34
761.066	50.89
761.246	50.33
761.426	49.03
761.606	47.33
761.786	44.89
761.966	45.24
762.146	45.4
762.326	44.81
762.506	44.19
762.686	44.34
762.866	45.88
763.046	44.86
763.225	43.94
763.405	44.58
763.585	44.43
763.765	46.61
763.945	46.96
764.124	46.76
764.304	45.32
764.484	45.55
764.664	45.37
764.843	45.54
765.023	48.13
765.203	49.55
765.382	48.81
765.562	49.84
765.741	49.68
765.921	48.58
766.101	48.82
766.28	51.8
766.46	55.26
766.639	55.71
766.819	56.98
766.998	57.83
767.178	58.6
767.357	58.9
767.537	61.08
767.716	61.97
767.896	63.93
768.075	65.77
768.254	65.26
768.434	63.48
768.613	65.59
768.792	65.44
768.972	62.75
769.151	64.02
769.33	63.98
769.51	62.46
769.689	63.14
769.868	64.25
770.047	63.01
770.226	63.03
770.406	62.23
770.585	60.7
770.764	58.14
770.943	59.48
771.122	58.51
771.301	62.15
771.48	62.96
771.66	61.97
771.839	60.86
772.018	60.83
772.197	64.42
772.376	67.58
772.555	67.88
772.734	69.77
772.913	69.48
773.092	71.75
773.271	67.98
773.449	71.21
773.628	71.08
773.807	72.31
773.986	75.1
774.165	70.14
774.344	69.86
774.523	68.86
774.701	70.73
774.88	73.41
775.059	71.35
775.238	70.96
775.417	67.11
775.595	66.35
775.774	65.57
775.953	60.86
776.131	64.13
776.31	62.97
776.489	60.11
776.667	62.15
776.846	62
777.025	64.46
777.203	69.07
777.382	66.55
777.56	67.65
777.739	65.45
777.917	70.34
778.096	66.96
778.274	67.74
778.453	70.83
778.631	68.52
778.81	64.84
778.988	65.69
779.166	64.76
779.345	69.32
779.523	67.76
779.702	68.66
779.88	67.12
780.058	66.4
780.237	65.45
780.415	67.49
780.593	64.63
780.771	67.96
780.95	61.69
781.128	62.75
781.306	62.48
781.484	67.09
781.662	69.51
781.841	66.88
782.019	70.69
782.197	71.82
782.375	71.06
782.553	76.78
782.731	75.9
782.909	76.62
783.087	74.27
783.265	73.78
783.443	70.57
783.621	70.29
783.799	73.39
783.977	71.88
784.155	70.18
784.333	72.9
784.511	68.72
784.689	66.91
784.867	71.36
785.045	72.44
785.223	68.55
785.4	68.61
785.578	70.6
785.756	70.61
785.934	69.81
786.112	69.32
786.289	67.73
786.467	66.24
786.645	70.43
786.823	64.77
787	60.11
787.178	61.42
787.356	60.24
787.533	53.77
787.711	53.54
787.889	51.37
788.066	50.12
788.244	51.36
788.421	52.81
788.599	49.31
788.776	50.19
788.954	55.32
789.131	57.94
789.309	58.22
789.486	59.9
789.664	60.48
789.841	65.72
790.019	69.45
790.196	68.08
790.373	66.67
790.551	68.89
790.728	73.4
790.906	67.76
791.083	61.69
791.26	60.39
791.437	61.62
791.615	61.01
791.792	60.19
791.969	61.63
792.146	58.7
792.324	60.56
792.501	63.42
792.678	64.09
792.855	66.71
793.032	74.51
793.209	79.06
793.387	80.92
793.564	79.51
793.741	79.54
793.918	77.43
794.095	81.27
794.272	82.93
794.449	78.65
794.626	76.52
794.803	77.17
794.98	72.34
795.157	70.1
795.334	69.29
795.511	69.74
795.688	65.54
795.864	66.62
796.041	63.78
796.218	61.87
796.395	64.95
796.572	63.57
796.749	65.97
796.925	67.11
797.102	66.14
797.279	64.76
797.456	65.96
797.632	66.4
797.809	66.78
797.986	66.1
798.162	63.23
798.339	62.75
798.516	65.15
798.692	63.74
798.869	63.42
799.046	62.58
799.222	66.94
799.399	62.2
799.575	64.28
799.752	61.61
799.928	65.39
800.105	68.2
800.281	64.26
800.458	61.52
800.634	61.53
800.811	62.1
800.987	62.34
801.163	57.7
801.34	61.09
801.516	59.76
801.692	64.56
801.869	63
802.045	64.36
802.221	66.3
802.398	67.25
802.574	66.87
802.75	64.32
802.926	69.13
803.103	72.55
803.279	74.07
803.455	76.4
803.631	73.72
803.807	72.44
803.983	69.24
804.16	70.83
804.336	74.21
804.512	77.7
804.688	76.43
804.864	70.89
805.04	72.55
805.216	77.16
805.392	81.17
805.568	80.79
805.744	83.2
805.92	82.09
806.096	82.79
806.272	83.21
806.448	80.18
806.623	81.65
806.799	84.1
806.975	84.29
807.151	78.5
807.327	72
807.503	70.35
807.678	66.55
807.854	70.79
808.03	72.25
808.206	66.39
808.381	70.91
808.557	73.2
808.733	69.19
808.908	73.38
809.084	75.43
809.26	81.62
809.435	81.62
809.611	87.18
809.787	87.19
809.962	84.93
810.138	88.7
810.313	80.17
810.489	86.94
810.664	87.23
810.84	85.54
811.015	83.36
811.191	81.61
811.366	85.31
811.542	87.1
811.717	86.6
811.892	89.36
812.068	92.22
812.243	101.59
812.419	92.79
812.594	101.88
812.769	102.92
812.944	104.36
813.12	107.24
813.295	104.28
813.47	102.63
813.645	100.96
813.821	95.9
813.996	92.04
814.171	84.7
814.346	85.89
814.521	81.1
814.697	82.15
814.872	87.19
815.047	84.36
815.222	80
815.397	78.74
815.572	76.32
815.747	80.13
815.922	80.66
816.097	86.89
816.272	84.13
816.447	89.49
816.622	81.66
816.797	75.56
816.972	74.6
817.147	77.24
817.322	76.48
817.496	75.39
817.671	74.46
817.846	74.4
818.021	69.25
818.196	72.07
818.371	63.79
818.545	61.58
818.72	59.9
818.895	59.49
819.069	57.68
819.244	54.58
819.419	53.45
819.594	51.03
819.768	46.78
819.943	45.6
820.117	43.36
820.292	41.59
820.467	40
820.641	37.97
820.816	37.05
820.99	35.54
821.165	33.73
821.339	32.74
821.514	31.96
821.688	31.77
821.863	31.19
822.037	30.51
822.212	30.71
822.386	30.39
822.56	29.55
822.735	29.76
822.909	30.55
823.084	31
823.258	31.47
823.432	31.75
823.606	32.28
823.781	32.86
823.955	34.23
824.129	34.51
824.303	34.7
824.478	36.68
824.652	36.59
824.826	36.62
825	37.52
825.174	37.3
825.348	36.69
825.523	36.95
825.697	36.2
825.871	34.16
826.045	35.21
826.219	36.32
826.393	35.84
826.567	36.17
826.741	34.65
826.915	32.98
827.089	34.05
827.263	35.95
827.437	36.73
827.611	37.54
827.784	40.12
827.958	39.92
828.132	39.46
828.306	40.69
828.48	42.22
828.654	44.3
828.827	48.12
829.001	49.56
829.175	52.29
829.349	55.22
829.522	56.29
829.696	56.91
829.87	58.37
830.044	62.79
830.217	64.03
830.391	66.02
830.565	70.29
830.738	68
830.912	67.05
831.085	64.22
831.259	63.77
831.432	63.5
831.606	62.32
831.779	61.11
831.953	60.15
832.126	61.55
832.3	57.77
832.473	55.96
832.647	54.36
832.82	51.85
832.994	50.58
833.167	48.63
833.34	47.76
833.514	46.6
833.687	45.21
833.86	45.4
834.034	43.37
834.207	45.67
834.38	44.21
834.553	45.11
834.727	48.13
834.9	49.52
835.073	49.78
835.246	52.35
835.419	50.49
835.593	51.53
835.766	51.53
835.939	55.67
836.112	52.56
836.285	54.61
836.458	55.28
836.631	55.92
836.804	54.94
836.977	58.34
837.15	55.81
837.323	71.7
837.496	72.37
837.669	70.42
837.842	67.75
838.015	71.64
838.188	74.05
838.361	76.92
838.533	76.33
838.706	73.97
838.879	71.1
839.052	69.14
839.225	62.62
839.398	62.07
839.57	66.5
839.743	67.71
839.916	67.19
840.088	65.36
840.261	65.23
840.434	69.14
840.607	74.94
840.779	74.82
840.952	78.02
841.124	87.24
841.297	90.46
841.47	91.56
841.642	92.85
841.815	93.49
841.987	100.59
842.16	101.78
842.332	103.97
842.505	101.34
842.677	105.26
842.85	120.09
843.022	118.61
843.194	110.33
843.367	117.59
843.539	121.69
843.712	128.87
843.884	129.53
844.056	123.8
844.229	128.67
844.401	145.26
844.573	153.44
844.745	139.16
844.918	158.76
845.09	182
845.262	178.51
845.434	191.02
845.606	186.87
845.779	179.19
845.951	170.94
846.123	160.24
846.295	156.71
846.467	166.82
846.639	172.76
846.811	174.3
846.983	170.82
847.155	169.64
847.327	150.1
847.499	158.88
847.671	170.15
847.843	170.92
848.015	161.58
848.187	150.11
848.359	153.12
848.531	164.92
848.703	140.94
848.875	166.86
849.047	166.97
849.218	166.38
849.39	157.9
849.562	170.19
849.734	201.79
849.905	212.73
850.077	225.21
850.249	192.88
850.421	167.2
850.592	189.03
850.764	166.41
850.936	138.26
851.107	132.93
851.279	131.8
851.451	109.28
851.622	106.18
851.794	110.27
851.965	115.92
852.137	122.29
852.308	126.55
852.48	123.13
852.651	120.71
852.823	129.19
852.994	133.58
853.166	143.69
853.337	172.78
853.509	184.63
853.68	176.22
853.851	163.92
854.023	152.04
854.194	135.28
854.365	147.99
854.537	131.38
854.708	145.77
854.879	133.84
855.05	130.93
855.222	113.3
855.393	115.57
855.564	112.97
855.735	131.48
855.906	142.24
856.078	148.91
856.249	121.84
856.42	129.9
856.591	122.9
856.762	134.88
856.933	138.71
857.104	132.69
857.275	119.57
857.446	115.9
857.617	99.72
857.788	87.98
857.959	83.22
858.13	91.41
858.301	82.62
858.472	89.47
858.643	75.31
858.814	83.7
858.985	108.81
859.155	124.34
859.326	141.86
859.497	165.57
859.668	304.52
859.839	315.75
860.009	228.35
860.18	284.65
860.351	259.48
860.522	230.5
860.692	183.49
860.863	155.43
861.034	142.28
861.204	138.47
861.375	132.54
861.546	123.84
861.716	116.61
861.887	125.02
862.057	133.13
862.228	136.81
862.398	136.89
862.569	168.22
862.739	187.78
862.91	175.64
863.08	172.28
863.251	175.26
863.421	162.99
863.592	189.62
863.762	180.74
863.932	155.87
864.103	174.89
864.273	185.33
864.443	149.56
864.614	138.78
864.784	136.48
864.954	141.16
865.125	147.73
865.295	151.3
865.465	162.92
865.635	174.23
865.805	173.31
865.976	167.45
866.146	140.22
866.316	170.16
866.486	215.16
866.656	223.73
866.826	246.15
866.996	240.7
867.166	303.46
867.336	239.76
867.506	164.75
867.676	147.47
867.846	141.48
868.016	157.58
868.186	135.38
868.356	126.15
868.526	128.23
868.696	114.96
868.866	107.8
869.036	108.37
869.206	105.69
869.376	114.74
869.545	120.08
869.715	122.74
869.885	122.99
870.055	121.88
870.224	110.09
870.394	116.53
870.564	140.35
870.734	131.14
870.903	143.63
871.073	152.87
871.243	153.99
871.412	168.23
871.582	147.32
871.751	144.73
871.921	165.28
872.091	202.34
872.26	149.16
872.43	131.51
872.599	143.5
872.769	133.69
872.938	150.09
873.108	142.65
873.277	129.67
873.446	135.19
873.616	134.16
873.785	139.43
873.955	142.44
874.124	159.74
874.293	157.69
874.463	153.95
874.632	151.22
874.801	142.75
874.971	148.11
875.14	175.34
875.309	172.31
875.478	148.2
875.647	121.68
875.817	117.99
875.986	119.4
876.155	121.01
876.324	114.13
876.493	99.81
876.662	97.22
876.831	95.17
877	87.31
877.17	78.92
877.339	86.2
877.508	106.93
877.677	109.72
877.846	98.42
878.015	104.27
878.184	99.61
878.352	102.15
878.521	97.8
878.69	97.37
878.859	90.42
879.028	95.27
879.197	84.86
879.366	69.77
879.534	59.1
879.703	53.9
879.872	49.02
880.041	45.72
880.21	46.5
880.378	43.9
880.547	41.43
880.716	38.72
880.884	34.68
881.053	34.11
881.222	35.41
881.39	33.72
881.559	33.23
881.727	31.6
881.896	31.35
882.065	28.83
882.233	27.9
882.402	26.96
882.57	30.57
882.739	30.4
882.907	30.56
883.076	28.66
883.244	29.34
883.412	30.08
883.581	30.82
883.749	33.22
883.918	36.29
884.086	38.83
884.254	38
884.423	37.52
884.591	38.67
884.759	42.27
884.927	46.67
885.096	52.93
885.264	60.87
885.432	64.04
885.6	62.52
885.769	67.92
885.937	71.63
886.105	89.2
886.273	96.88
886.441	102.39
886.609	108.77
886.777	102.34
886.945	104.99
887.113	101.32
887.281	104.07
887.449	106.37
887.617	104.59
887.785	106.69
887.953	98.09
888.121	102.19
888.289	110.41
888.457	105.82
888.625	116.82
888.793	109.71
888.961	115.56
889.129	109.89
889.296	120.56
889.464	127.27
889.632	123.67
889.8	138.19
889.967	119.93
890.135	108.53
