Data from JASIL_2960_Reflection_1.txt Node
Date: Sat Nov 07 21:19:11 EST 2015
User: Geneva
Spectrometer: USB4E03002
Autoset integration time: false
Trigger mode: 4
Integration Time (sec): 1.000000E-1
Scans to average: 10
Electric dark correction enabled: true
Nonlinearity correction enabled: false
Boxcar width: 5
Stray light correction enabled: false
XAxis mode: Wavelengths
Stop averaging: false
Number of Pixels in Spectrum: 3648
>>>>>Begin Spectral Data<<<<<
177.575	17
177.794	-13.22
178.014	12.11
178.233	-16.72
178.452	-35.83
178.672	63.71
178.891	55.96
179.11	61.38
179.33	35.09
179.549	-48.78
179.768	-12.08
179.987	-18.18
180.207	-258.93
180.426	470.23
180.645	183.09
180.864	175.33
181.084	133.73
181.303	132.3
181.522	112.93
181.741	109.76
181.96	104.76
182.179	86.28
182.398	91.26
182.618	84.81
182.837	82.35
183.056	70.4
183.275	92.56
183.494	99.29
183.713	135.22
183.932	190.35
184.151	368.06
184.37	147.76
184.589	102.58
184.808	83.77
185.027	78.25
185.246	69.36
185.465	60.62
185.684	66.9
185.903	60.37
186.122	51.15
186.341	44.56
186.56	29.06
186.779	25.21
186.998	31.45
187.216	47.9
187.435	37.39
187.654	29.46
187.873	42.38
188.092	24.97
188.311	4.99
188.53	23.49
188.748	46.45
188.967	41.78
189.186	70.19
189.405	59.61
189.623	40.96
189.842	72.15
190.061	75.75
190.28	68.47
190.498	74.22
190.717	58.96
190.936	-32.88
191.154	-115.45
191.373	197.84
191.592	-99.84
191.81	-89.63
192.029	20.7
192.248	-3.57
192.466	37.03
192.685	69.44
192.904	76.91
193.122	101.63
193.341	131.23
193.559	120.32
193.778	104.78
193.996	113.22
194.215	134.84
194.433	121.44
194.652	113.22
194.87	115.17
195.089	110.46
195.307	119.15
195.526	108.02
195.744	77.31
195.963	77.9
196.181	81.44
196.399	75.78
196.618	58.8
196.836	67.15
197.055	75.47
197.273	68.38
197.491	62.64
197.71	70.64
197.928	69.25
198.146	83.46
198.365	79.09
198.583	52.02
198.801	44.02
199.019	49.86
199.238	52.28
199.456	54
199.674	52.62
199.892	35.63
200.111	5.14
200.329	19.11
200.547	-1.87
200.765	7.95
200.983	10.63
201.202	29.47
201.42	29.32
201.638	21.72
201.856	15.26
202.074	22.95
202.292	34.55
202.51	35.67
202.728	22.56
202.946	14.57
203.165	-5.64
203.383	-16.68
203.601	-19.59
203.819	-12.69
204.037	-6.47
204.255	6.03
204.473	21.53
204.691	7.94
204.909	1.38
205.127	29.5
205.345	57.73
205.562	58.97
205.78	63.63
205.998	62.04
206.216	65.82
206.434	80.26
206.652	71.4
206.87	51.21
207.088	47.81
207.306	48.96
207.523	51.4
207.741	33.55
207.959	45.9
208.177	42.97
208.395	24.32
208.612	27.73
208.83	30.04
209.048	31.39
209.266	28.75
209.483	15.74
209.701	-5.38
209.919	-26.84
210.136	-25.57
210.354	2.9
210.572	25.05
210.79	39.93
211.007	33.52
211.225	30.3
211.442	23.76
211.66	26.36
211.878	34.22
212.095	92.13
212.313	91.1
212.53	93.29
212.748	87.88
212.966	102.86
213.183	103.85
213.401	97.68
213.618	94.69
213.836	103.65
214.053	104.95
214.271	97.88
214.488	38.64
214.705	30.54
214.923	30.25
215.14	26.91
215.358	18.58
215.575	18.87
215.793	25.22
216.01	24.17
216.227	23.09
216.445	15.58
216.662	17.59
216.879	18.81
217.097	22.37
217.314	10.9
217.531	16.21
217.749	12.55
217.966	14.05
218.183	8.78
218.4	-1.86
218.618	-8.62
218.835	-0.2
219.052	-7.13
219.269	-7.71
219.487	-9.17
219.704	-4.79
219.921	-6.09
220.138	4.02
220.355	2.55
220.572	2.61
220.79	5.2
221.007	10.22
221.224	12.44
221.441	15.05
221.658	12.06
221.875	14.29
222.092	11.95
222.309	10.09
222.526	5.74
222.743	5.01
222.96	1.77
223.177	3.74
223.394	0.74
223.611	0.76
223.828	3.58
224.045	7.2
224.262	7.83
224.479	10.84
224.696	11.28
224.913	12.16
225.13	13.61
225.347	14.64
225.564	15.42
225.781	16.28
225.997	15.9
226.214	14.32
226.431	13.66
226.648	13.79
226.865	13.66
227.082	13.43
227.298	13.3
227.515	13.01
227.732	12
227.949	11.11
228.165	10.87
228.382	10.16
228.599	10.33
228.816	10.78
229.032	10.34
229.249	10.46
229.466	10.63
229.682	10.39
229.899	10.63
230.116	12.11
230.332	13.93
230.549	15.07
230.765	16.7
230.982	17.59
231.199	17.27
231.415	17.63
231.632	17.01
231.848	17.07
232.065	18.34
232.281	17.75
232.498	17.29
232.714	17.1
232.931	14.94
233.147	14.51
233.364	13.62
233.58	13.81
233.797	12.84
234.013	13.62
234.23	12.7
234.446	11.56
234.662	12.76
234.879	12.74
235.095	11.47
235.312	13.29
235.528	12.95
235.744	13.2
235.961	12.92
236.177	13.9
236.393	13.6
236.61	15.55
236.826	15.51
237.042	13.91
237.258	13.72
237.475	13.91
237.691	12.73
237.907	12.93
238.123	11.99
238.339	12.59
238.556	12.71
238.772	12.59
238.988	11.49
239.204	11
239.42	11.34
239.636	11.14
239.853	11.39
240.069	11.22
240.285	10.75
240.501	10.8
240.717	10.51
240.933	10.54
241.149	10.38
241.365	10.74
241.581	10.64
241.797	10.63
242.013	10.67
242.229	10.74
242.445	10.83
242.661	10.89
242.877	11.08
243.093	10.61
243.309	10.53
243.525	10.55
243.741	10
243.957	10.7
244.173	10.59
244.388	10.07
244.604	9.74
244.82	9.93
245.036	9.59
245.252	9.57
245.468	9.78
245.683	9.62
245.899	9.69
246.115	9.79
246.331	9.62
246.547	9.26
246.762	9.37
246.978	9.39
247.194	9.14
247.409	9.26
247.625	9.03
247.841	8.72
248.057	8.78
248.272	8.65
248.488	8.33
248.703	8.07
248.919	8.62
249.135	8.43
249.35	8.54
249.566	9.02
249.782	8.76
249.997	9.28
250.213	9.46
250.428	9.44
250.644	9.18
250.859	9.03
251.075	9.14
251.29	8.48
251.506	8.36
251.721	8.17
251.937	7.57
252.152	7.77
252.368	7.73
252.583	7.9
252.798	7.61
253.014	7.53
253.229	8.22
253.445	7.58
253.66	8
253.875	8.01
254.091	7.4
254.306	8.12
254.521	7.97
254.737	7.7
254.952	7.32
255.167	7.53
255.383	8.48
255.598	8.01
255.813	8.74
256.028	8.41
256.244	8.43
256.459	8.54
256.674	8.12
256.889	8.23
257.104	8.19
257.32	7.87
257.535	7.65
257.75	6.89
257.965	6.96
258.18	6.74
258.395	7.05
258.61	6.9
258.826	6.97
259.041	6.89
259.256	6.81
259.471	6.65
259.686	6.71
259.901	6.86
260.116	7.2
260.331	7.03
260.546	7.14
260.761	6.64
260.976	6.87
261.191	6.56
261.406	6.55
261.621	6.61
261.836	6.61
262.05	6.61
262.265	5.97
262.48	5.73
262.695	5.8
262.91	5.94
263.125	6.63
263.34	6.96
263.555	7.29
263.769	7.48
263.984	7.46
264.199	7.48
264.414	7.54
264.629	7.65
264.843	7.68
265.058	7.69
265.273	7.7
265.488	7.26
265.702	6.71
265.917	6.89
266.132	6.85
266.346	6.75
266.561	6.7
266.776	6.95
266.99	7.09
267.205	6.92
267.42	6.63
267.634	6.34
267.849	6.67
268.063	6.62
268.278	6.4
268.492	6.52
268.707	6.62
268.922	6.57
269.136	6.22
269.351	6.23
269.565	6.36
269.78	6.26
269.994	6.22
270.209	6.21
270.423	6.55
270.637	6.76
270.852	6.55
271.066	6.38
271.281	6.33
271.495	6.44
271.709	6.53
271.924	6.27
272.138	6.52
272.353	6.54
272.567	6.27
272.781	6.22
272.996	6.16
273.21	6.1
273.424	6.12
273.638	6.09
273.853	6.18
274.067	5.76
274.281	5.91
274.495	5.63
274.71	5.59
274.924	5.84
275.138	5.56
275.352	5.49
275.566	5.49
275.781	5.73
275.995	5.98
276.209	5.79
276.423	5.83
276.637	5.35
276.851	5.67
277.065	5.87
277.279	5.6
277.493	5.83
277.707	5.6
277.921	6.03
278.135	6.05
278.349	5.91
278.563	6.05
278.777	5.96
278.991	6.61
279.205	6.8
279.419	6.69
279.633	6.87
279.847	6.71
280.061	7.01
280.275	6.65
280.489	6.48
280.703	6.46
280.917	6.27
281.131	6.5
281.344	6.22
281.558	5.84
281.772	5.92
281.986	5.78
282.2	6
282.414	5.87
282.627	5.82
282.841	5.78
283.055	5.78
283.269	5.71
283.482	5.58
283.696	5.6
283.91	5.85
284.123	5.74
284.337	5.66
284.551	5.47
284.764	5.36
284.978	5.48
285.192	5.4
285.405	5.42
285.619	5.69
285.833	5.68
286.046	5.74
286.26	5.67
286.473	5.56
286.687	5.74
286.9	5.71
287.114	5.58
287.327	5.81
287.541	6.01
287.754	5.98
287.968	5.64
288.181	5.75
288.395	5.93
288.608	5.72
288.822	5.87
289.035	5.92
289.248	5.75
289.462	6.01
289.675	5.78
289.889	5.64
290.102	5.8
290.315	5.88
290.529	5.72
290.742	5.7
290.955	5.77
291.169	5.86
291.382	5.7
291.595	5.85
291.808	5.84
292.022	6.24
292.235	6.48
292.448	6.43
292.661	6.63
292.875	6.94
293.088	6.72
293.301	6.9
293.514	6.76
293.727	6.64
293.94	6.83
294.153	6.79
294.367	6.6
294.58	6.45
294.793	6.32
295.006	6.24
295.219	6.32
295.432	6.63
295.645	6.66
295.858	6.48
296.071	6.57
296.284	6.51
296.497	6.56
296.71	6.53
296.923	6.67
297.136	6.84
297.349	6.87
297.562	6.71
297.775	6.43
297.988	6.45
298.201	6.69
298.414	6.77
298.626	6.77
298.839	6.75
299.052	6.82
299.265	6.62
299.478	6.49
299.691	6.37
299.903	6.4
300.116	6.41
300.329	6.38
300.542	6.23
300.755	6.2
300.967	6.26
301.18	6.37
301.393	6.34
301.605	6.2
301.818	6.21
302.031	6.39
302.243	6.32
302.456	6.59
302.669	6.51
302.881	6.76
303.094	6.77
303.307	6.89
303.519	7.02
303.732	7.04
303.944	7.29
304.157	7.25
304.37	7.49
304.582	7.76
304.795	7.65
305.007	7.79
305.22	7.71
305.432	7.71
305.645	7.7
305.857	7.74
306.069	7.69
306.282	7.68
306.494	7.89
306.707	7.53
306.919	7.54
307.132	7.53
307.344	7.47
307.556	7.5
307.769	7.6
307.981	7.59
308.193	7.5
308.406	7.38
308.618	7.52
308.83	7.29
309.043	7.29
309.255	7.23
309.467	7.29
309.679	7.42
309.892	7.51
310.104	7.42
310.316	7.32
310.528	7.14
310.74	7.27
310.953	7.26
311.165	7.35
311.377	7.32
311.589	7.25
311.801	7.19
312.013	7.21
312.225	7.07
312.437	7.19
312.649	7.33
312.862	7.42
313.074	7.46
313.286	7.41
313.498	7.52
313.71	7.86
313.922	8.04
314.134	8.07
314.346	7.8
314.558	7.92
314.77	7.73
314.982	7.37
315.193	7.52
315.405	7.39
315.617	7.22
315.829	7.06
316.041	6.86
316.253	6.7
316.465	6.65
316.677	6.84
316.888	6.83
317.1	7.06
317.312	7.59
317.524	7.4
317.736	7.33
317.947	7.57
318.159	7.87
318.371	7.91
318.583	8.06
318.794	8.28
319.006	8.28
319.218	8.18
319.43	8.18
319.641	8.21
319.853	8.53
320.064	8.77
320.276	8.9
320.488	8.71
320.699	8.86
320.911	9.04
321.123	9.03
321.334	8.94
321.546	9.02
321.757	9.06
321.969	8.83
322.18	8.69
322.392	8.59
322.603	8.32
322.815	8.42
323.026	8.34
323.238	8.06
323.449	8.08
323.661	8.1
323.872	8.26
324.083	8.06
324.295	8.03
324.506	7.86
324.718	7.95
324.929	7.98
325.14	8.23
325.352	8.35
325.563	8.58
325.774	8.37
325.986	8.44
326.197	8.33
326.408	8.6
326.62	8.71
326.831	9.01
327.042	8.94
327.253	9.14
327.464	9.01
327.676	8.82
327.887	8.77
328.098	9.04
328.309	9.09
328.52	9.31
328.732	9.52
328.943	9.51
329.154	9.73
329.365	9.8
329.576	9.96
329.787	9.77
329.998	9.76
330.209	9.81
330.42	9.73
330.631	9.68
330.842	9.62
331.053	9.45
331.264	9.38
331.475	9.12
331.686	9.25
331.897	9.19
332.108	9.28
332.319	9.35
332.53	9.26
332.741	9.13
332.952	9.08
333.163	9.18
333.374	9.23
333.585	9.22
333.795	9.24
334.006	9.16
334.217	8.98
334.428	8.97
334.639	9.12
334.849	9.13
335.06	9.33
335.271	9.4
335.482	9.3
335.692	9.3
335.903	9.43
336.114	9.4
336.325	9.5
336.535	9.57
336.746	9.49
336.957	9.42
337.167	9.51
337.378	9.41
337.589	9.46
337.799	9.48
338.01	9.33
338.22	9.31
338.431	9.28
338.642	9.1
338.852	8.93
339.063	8.93
339.273	8.9
339.484	9.02
339.694	8.98
339.905	9.09
340.115	8.88
340.326	8.76
340.536	8.63
340.746	8.66
340.957	8.71
341.167	8.77
341.378	8.85
341.588	9.02
341.799	8.72
342.009	8.6
342.219	8.37
342.43	8.5
342.64	8.37
342.85	8.3
343.061	8.32
343.271	8.39
343.481	8.49
343.691	8.39
343.902	8.1
344.112	8.22
344.322	8.42
344.532	8.46
344.743	8.45
344.953	8.49
345.163	8.66
345.373	8.55
345.583	8.55
345.793	8.38
346.004	8.43
346.214	8.56
346.424	8.59
346.634	8.67
346.844	8.75
347.054	8.73
347.264	8.98
347.474	8.87
347.684	8.8
347.894	8.77
348.104	8.77
348.314	8.86
348.524	8.81
348.734	8.76
348.944	8.54
349.154	8.43
349.364	8.36
349.574	8.07
349.784	8.17
349.994	8.32
350.204	8.06
350.413	8.07
350.623	7.91
350.833	7.83
351.043	7.74
351.253	7.8
351.463	7.81
351.672	7.66
351.882	7.89
352.092	7.74
352.302	7.64
352.511	7.73
352.721	7.58
352.931	7.69
353.141	7.61
353.35	7.59
353.56	7.56
353.77	7.72
353.979	7.96
354.189	7.73
354.399	7.87
354.608	7.79
354.818	7.94
355.027	8.07
355.237	8.05
355.447	8.17
355.656	8.23
355.866	8.24
356.075	7.95
356.285	7.76
356.494	7.81
356.704	7.69
356.913	7.71
357.123	7.56
357.332	7.47
357.542	7.46
357.751	7.39
357.96	7.39
358.17	7.35
358.379	7.5
358.589	7.58
358.798	7.66
359.007	7.64
359.217	7.64
359.426	7.72
359.635	7.74
359.845	7.61
360.054	7.54
360.263	7.56
360.472	7.57
360.682	7.48
360.891	7.43
361.1	7.41
361.309	7.38
361.519	7.39
361.728	7.44
361.937	7.45
362.146	7.5
362.355	7.58
362.564	7.49
362.774	7.43
362.983	7.35
363.192	7.45
363.401	7.22
363.61	7.22
363.819	7.21
364.028	7.07
364.237	6.99
364.446	6.91
364.655	6.8
364.864	6.87
365.073	6.99
365.282	7.05
365.491	6.99
365.7	7.17
365.909	7.14
366.118	7.14
366.327	7.12
366.536	7.13
366.745	7.2
366.954	7.3
367.162	7.14
367.371	6.93
367.58	6.87
367.789	6.75
367.998	6.73
368.207	6.86
368.415	6.94
368.624	6.94
368.833	6.91
369.042	6.88
369.25	6.82
369.459	7.01
369.668	7.06
369.877	7.06
370.085	7.08
370.294	7.03
370.503	6.84
370.711	6.71
370.92	6.63
371.129	6.65
371.337	6.6
371.546	6.55
371.754	6.35
371.963	6.41
372.171	6.4
372.38	6.29
372.589	6.41
372.797	6.52
373.006	6.5
373.214	6.5
373.423	6.45
373.631	6.37
373.84	6.46
374.048	6.5
374.256	6.39
374.465	6.38
374.673	6.37
374.882	6.2
375.09	6.17
375.298	6.12
375.507	6.12
375.715	6.17
375.923	6.1
376.132	6.06
376.34	6.01
376.548	6.03
376.757	6.06
376.965	6.14
377.173	6.24
377.381	6.21
377.59	6.15
377.798	6.09
378.006	6.09
378.214	6.25
378.423	6.24
378.631	6.25
378.839	6.2
379.047	6.13
379.255	6.09
379.463	5.95
379.671	5.79
379.879	5.87
380.088	5.92
380.296	5.91
380.504	5.86
380.712	5.76
380.92	5.85
381.128	5.8
381.336	5.85
381.544	5.86
381.752	5.89
381.96	5.9
382.168	5.86
382.376	5.87
382.584	5.78
382.791	5.77
382.999	5.72
383.207	5.63
383.415	5.62
383.623	5.62
383.831	5.45
384.039	5.47
384.247	5.59
384.454	5.73
384.662	5.74
384.87	5.74
385.078	5.67
385.285	5.8
385.493	5.72
385.701	5.81
385.909	5.83
386.116	5.93
386.324	5.96
386.532	5.86
386.739	5.66
386.947	5.5
387.155	5.46
387.362	5.53
387.57	5.47
387.778	5.56
387.985	5.53
388.193	5.49
388.4	5.57
388.608	5.47
388.816	5.44
389.023	5.57
389.231	5.65
389.438	5.74
389.646	5.66
389.853	5.67
390.061	5.55
390.268	5.46
390.475	5.41
390.683	5.32
390.89	5.31
391.098	5.36
391.305	5.31
391.512	5.21
391.72	5.15
391.927	5.06
392.135	4.92
392.342	4.95
392.549	4.97
392.756	4.92
392.964	4.94
393.171	4.94
393.378	4.99
393.586	4.94
393.793	5
394	4.93
394.207	5.02
394.414	5.17
394.622	5.22
394.829	5.19
395.036	5.24
395.243	5.19
395.45	5.24
395.657	5.1
395.864	5.04
396.072	5.11
396.279	5.22
396.486	5.12
396.693	5.13
396.9	5.09
397.107	5.03
397.314	5.04
397.521	5.09
397.728	5
397.935	5.04
398.142	5.08
398.349	4.98
398.556	4.91
398.763	4.92
398.97	4.79
399.177	4.83
399.383	4.89
399.59	4.86
399.797	4.83
400.004	4.77
400.211	4.77
400.418	4.69
400.625	4.67
400.831	4.66
401.038	4.74
401.245	4.71
401.452	4.57
401.658	4.57
401.865	4.61
402.072	4.56
402.279	4.58
402.485	4.58
402.692	4.63
402.899	4.65
403.105	4.74
403.312	4.71
403.519	4.68
403.725	4.74
403.932	4.72
404.138	4.67
404.345	4.67
404.552	4.71
404.758	4.71
404.965	4.69
405.171	4.62
405.378	4.47
405.584	4.51
405.791	4.55
405.997	4.57
406.204	4.56
406.41	4.56
406.617	4.55
406.823	4.5
407.029	4.51
407.236	4.53
407.442	4.59
407.649	4.79
407.855	4.78
408.061	4.83
408.268	4.75
408.474	4.75
408.68	4.79
408.887	4.75
409.093	4.78
409.299	4.77
409.505	4.77
409.712	4.72
409.918	4.6
410.124	4.61
410.33	4.52
410.537	4.53
410.743	4.49
410.949	4.48
411.155	4.55
411.361	4.57
411.567	4.5
411.773	4.44
411.98	4.42
412.186	4.41
412.392	4.31
412.598	4.44
412.804	4.49
413.01	4.53
413.216	4.47
413.422	4.43
413.628	4.43
413.834	4.48
414.04	4.55
414.246	4.59
414.452	4.59
414.658	4.62
414.864	4.51
415.07	4.46
415.275	4.45
415.481	4.43
415.687	4.35
415.893	4.34
416.099	4.28
416.305	4.29
416.511	4.29
416.716	4.27
416.922	4.25
417.128	4.3
417.334	4.35
417.539	4.33
417.745	4.39
417.951	4.43
418.157	4.47
418.362	4.51
418.568	4.47
418.774	4.44
418.979	4.39
419.185	4.36
419.391	4.35
419.596	4.35
419.802	4.36
420.008	4.28
420.213	4.62
420.419	4.59
420.624	4.59
420.83	4.6
421.035	4.62
421.241	4.65
421.446	4.72
421.652	4.71
421.857	4.72
422.063	4.69
422.268	4.74
422.474	4.42
422.679	4.41
422.885	4.39
423.09	4.41
423.295	4.39
423.501	4.41
423.706	4.38
423.911	4.38
424.117	4.35
424.322	4.34
424.527	4.36
424.733	4.32
424.938	4.36
425.143	4.34
425.349	4.3
425.554	4.33
425.759	4.3
425.964	4.3
426.169	4.31
426.375	4.36
426.58	4.34
426.785	4.26
426.99	4.3
427.195	4.24
427.4	4.29
427.605	4.28
427.811	4.3
428.016	4.28
428.221	4.28
428.426	4.25
428.631	4.18
428.836	4.21
429.041	4.23
429.246	4.28
429.451	4.33
429.656	4.3
429.861	4.31
430.066	4.29
430.271	4.31
430.476	4.28
430.681	4.23
430.886	4.3
431.09	4.32
431.295	4.31
431.5	4.26
431.705	4.25
431.91	4.21
432.115	4.26
432.32	4.26
432.524	4.24
432.729	4.25
432.934	4.3
433.139	4.26
433.343	4.3
433.548	4.32
433.753	4.36
433.958	4.33
434.162	4.37
434.367	4.37
434.572	4.34
434.776	4.36
434.981	4.36
435.186	4.32
435.39	4.34
435.595	4.38
435.799	4.37
436.004	4.33
436.209	4.29
436.413	4.29
436.618	4.28
436.822	4.26
437.027	4.26
437.231	4.26
437.436	4.28
437.64	4.24
437.845	4.13
438.049	4.12
438.253	4.1
438.458	4.14
438.662	4.14
438.867	4.13
439.071	4.17
439.275	4.2
439.48	4.2
439.684	4.22
439.888	4.22
440.093	4.24
440.297	4.24
440.501	4.25
440.706	4.26
440.91	4.32
441.114	4.3
441.318	4.28
441.523	4.25
441.727	4.26
441.931	4.28
442.135	4.24
442.339	4.25
442.543	4.24
442.748	4.21
442.952	4.18
443.156	4.1
443.36	4.13
443.564	4.12
443.768	4.11
443.972	4.1
444.176	4.05
444.38	4.06
444.584	4.05
444.788	4.07
444.992	4.11
445.196	4.12
445.4	4.17
445.604	4.13
445.808	4.13
446.012	4.15
446.216	4.15
446.42	4.14
446.624	4.15
446.828	4.14
447.032	4.13
447.235	4.11
447.439	4.12
447.643	4.08
447.847	4.1
448.051	4.07
448.254	4.05
448.458	4.06
448.662	4.12
448.866	4.1
449.069	4.12
449.273	4.18
449.477	4.2
449.681	4.22
449.884	4.26
450.088	4.29
450.292	4.34
450.495	4.35
450.699	4.35
450.902	4.33
451.106	4.3
451.31	4.3
451.513	4.26
451.717	4.17
451.92	4.14
452.124	4.06
452.327	4.02
452.531	4
452.734	4.02
452.938	4.01
453.141	4.01
453.345	4.07
453.548	4.1
453.752	4.12
453.955	4.18
454.158	4.2
454.362	4.23
454.565	4.2
454.769	4.18
454.972	4.18
455.175	4.14
455.379	4.11
455.582	4.08
455.785	4.04
455.988	3.99
456.192	3.98
456.395	3.94
456.598	3.93
456.801	3.96
457.005	4.01
457.208	3.97
457.411	4
457.614	4.05
457.817	4.04
458.021	4.06
458.224	4.06
458.427	4.09
458.63	4.11
458.833	4.1
459.036	4.09
459.239	4.04
459.442	4.07
459.645	4.1
459.848	4.09
460.051	4.08
460.254	4.06
460.457	4.05
460.66	4.05
460.863	4.05
461.066	4.09
461.269	4.11
461.472	4.15
461.675	4.16
461.878	4.12
462.081	4.09
462.284	4.12
462.486	4.14
462.689	4.17
462.892	4.17
463.095	4.16
463.298	4.12
463.5	4.11
463.703	4.11
463.906	4.08
464.109	4.09
464.311	4.14
464.514	4.14
464.717	4.13
464.92	4.16
465.122	4.15
465.325	4.18
465.528	4.17
465.73	4.15
465.933	4.14
466.135	4.19
466.338	4.18
466.541	4.13
466.743	4.15
466.946	4.18
467.148	4.19
467.351	4.17
467.553	4.16
467.756	4.25
467.958	4.31
468.161	4.34
468.363	4.27
468.566	4.26
468.768	4.28
468.971	4.3
469.173	4.27
469.375	4.21
469.578	4.27
469.78	4.21
469.983	4.2
470.185	4.15
470.387	4.15
470.59	4.13
470.792	4.16
470.994	4.14
471.196	4.08
471.399	4.09
471.601	4.14
471.803	4.09
472.005	4.14
472.208	4.09
472.41	4.08
472.612	4.03
472.814	4.09
473.016	4.1
473.218	4.12
473.421	4.15
473.623	4.15
473.825	4.15
474.027	4.17
474.229	4.1
474.431	4.09
474.633	4.09
474.835	4.09
475.037	4.05
475.239	4.05
475.441	4.07
475.643	4.05
475.845	4.07
476.047	4.06
476.249	4.04
476.451	4.08
476.653	4.09
476.855	4.09
477.057	4.07
477.258	4.11
477.46	4.12
477.662	4.07
477.864	4.09
478.066	4.07
478.268	4.06
478.469	4.11
478.671	4.08
478.873	3.99
479.075	3.99
479.276	4.01
479.478	4
479.68	3.95
479.882	3.98
480.083	3.98
480.285	3.95
480.487	3.95
480.688	3.93
480.89	3.96
481.091	4.01
481.293	4.03
481.495	4.04
481.696	4.02
481.898	4.03
482.099	4
482.301	4
482.502	4
482.704	4.01
482.905	4
483.107	3.98
483.308	3.97
483.51	3.96
483.711	3.95
483.913	3.96
484.114	3.96
484.315	3.97
484.517	3.97
484.718	3.97
484.92	3.97
485.121	3.98
485.322	4
485.524	4.02
485.725	4.04
485.926	4.05
486.127	4.04
486.329	4.04
486.53	4.05
486.731	4.04
486.932	4.03
487.134	4.03
487.335	4.02
487.536	4.01
487.737	3.99
487.938	3.97
488.139	3.96
488.341	3.98
488.542	3.97
488.743	3.96
488.944	3.96
489.145	3.98
489.346	3.97
489.547	4
489.748	4.01
489.949	4.01
490.15	4.01
490.351	4.03
490.552	4.03
490.753	4.02
490.954	4.01
491.155	4.01
491.356	4.01
491.557	4.02
491.758	4
491.959	4.01
492.159	4
492.36	4.03
492.561	4.02
492.762	4.02
492.963	4.03
493.164	4.04
493.364	4.06
493.565	4.06
493.766	4.09
493.967	4.07
494.167	4.1
494.368	4.13
494.569	4.12
494.769	4.1
494.97	4.11
495.171	4.15
495.371	4.18
495.572	4.19
495.773	4.23
495.973	4.2
496.174	4.23
496.375	4.22
496.575	4.24
496.776	4.26
496.976	4.31
497.177	4.32
497.377	4.32
497.578	4.33
497.778	4.33
497.979	4.34
498.179	4.37
498.38	4.38
498.58	4.39
498.78	4.41
498.981	4.41
499.181	4.39
499.382	4.38
499.582	4.39
499.782	4.44
499.983	4.46
500.183	4.46
500.383	4.48
500.584	4.48
500.784	4.57
500.984	4.55
501.184	4.55
501.385	4.59
501.585	4.6
501.785	4.62
501.985	4.6
502.185	4.58
502.386	4.54
502.586	4.53
502.786	4.57
502.986	4.52
503.186	4.58
503.386	4.61
503.586	4.62
503.786	4.63
503.987	4.67
504.187	4.67
504.387	4.73
504.587	4.78
504.787	4.8
504.987	4.82
505.187	4.82
505.387	4.81
505.587	4.83
505.786	4.89
505.986	4.85
506.186	4.85
506.386	4.93
506.586	4.9
506.786	4.95
506.986	5
507.186	4.97
507.386	5.03
507.585	5.06
507.785	5.09
507.985	5.09
508.185	5.18
508.384	5.2
508.584	5.18
508.784	5.2
508.984	5.21
509.183	5.22
509.383	5.3
509.583	5.3
509.782	5.32
509.982	5.34
510.182	5.37
510.381	5.36
510.581	5.4
510.781	5.44
510.98	5.49
511.18	5.49
511.379	5.53
511.579	5.53
511.778	5.58
511.978	5.61
512.177	5.61
512.377	5.64
512.576	5.71
512.776	5.73
512.975	5.74
513.175	5.79
513.374	5.82
513.573	5.86
513.773	5.93
513.972	5.93
514.172	5.99
514.371	6.07
514.57	6.04
514.77	6.1
514.969	6.1
515.168	6.14
515.367	6.15
515.567	6.19
515.766	6.2
515.965	6.22
516.164	6.26
516.364	6.28
516.563	6.28
516.762	6.35
516.961	6.33
517.16	6.38
517.359	6.43
517.559	6.46
517.758	6.48
517.957	6.5
518.156	6.49
518.355	6.49
518.554	6.5
518.753	6.53
518.952	6.57
519.151	6.61
519.35	6.64
519.549	6.66
519.748	6.69
519.947	6.74
520.146	6.78
520.345	6.83
520.544	6.88
520.743	6.9
520.942	6.93
521.141	6.94
521.339	6.96
521.538	6.99
521.737	7.06
521.936	7.07
522.135	7.09
522.333	7.14
522.532	7.14
522.731	7.21
522.93	7.23
523.129	7.27
523.327	7.27
523.526	7.31
523.725	7.31
523.923	7.33
524.122	7.34
524.321	7.37
524.519	7.36
524.718	7.39
524.917	7.38
525.115	7.41
525.314	7.46
525.512	7.49
525.711	7.54
525.909	7.57
526.108	7.59
526.306	7.62
526.505	7.63
526.703	7.67
526.902	7.67
527.1	7.69
527.299	7.74
527.497	7.76
527.696	7.79
527.894	7.79
528.092	7.8
528.291	7.8
528.489	7.84
528.688	7.86
528.886	7.89
529.084	7.94
529.283	7.98
529.481	8
529.679	8
529.877	8.02
530.076	8.03
530.274	8.07
530.472	8.11
530.67	8.15
530.869	8.18
531.067	8.19
531.265	8.23
531.463	8.24
531.661	8.24
531.859	8.27
532.057	8.31
532.255	8.36
532.454	8.37
532.652	8.4
532.85	8.38
533.048	8.38
533.246	8.4
533.444	8.39
533.642	8.39
533.84	8.43
534.038	8.43
534.236	8.46
534.434	8.45
534.632	8.48
534.83	8.51
535.027	8.54
535.225	8.59
535.423	8.61
535.621	8.65
535.819	8.68
536.017	8.68
536.215	8.69
536.412	8.66
536.61	8.69
536.808	8.71
537.006	8.69
537.203	8.73
537.401	8.74
537.599	8.76
537.797	8.78
537.994	8.8
538.192	8.82
538.39	8.91
538.587	8.94
538.785	8.95
538.983	8.99
539.18	9.02
539.378	9.03
539.575	9.06
539.773	9.08
539.97	9.1
540.168	9.12
540.366	9.12
540.563	9.11
540.761	9.12
540.958	9.15
541.155	9.16
541.353	9.18
541.55	9.21
541.748	9.21
541.945	9.21
542.143	9.22
542.34	9.24
542.537	9.26
542.735	9.3
542.932	9.33
543.129	9.33
543.327	9.36
543.524	9.38
543.721	9.4
543.919	9.45
544.116	9.5
544.313	9.53
544.51	9.54
544.708	9.59
544.905	9.56
545.102	9.56
545.299	9.58
545.496	9.59
545.693	9.64
545.891	9.65
546.088	9.67
546.285	9.65
546.482	9.64
546.679	9.67
546.876	9.69
547.073	9.73
547.27	9.79
547.467	9.79
547.664	9.75
547.861	9.77
548.058	9.77
548.255	9.76
548.452	9.83
548.649	9.88
548.846	9.91
549.043	9.9
549.24	9.94
549.437	9.91
549.633	9.96
549.83	10.01
550.027	10
550.224	10.02
550.421	10.03
550.618	10.03
550.814	10.02
551.011	10.05
551.208	10.1
551.405	10.13
551.601	10.17
551.798	10.19
551.995	10.22
552.191	10.22
552.388	10.18
552.585	10.22
552.781	10.24
552.978	10.28
553.175	10.26
553.371	10.23
553.568	10.23
553.764	10.19
553.961	10.19
554.157	10.21
554.354	10.22
554.55	10.31
554.747	10.33
554.943	10.34
555.14	10.31
555.336	10.33
555.533	10.34
555.729	10.36
555.926	10.42
556.122	10.45
556.318	10.48
556.515	10.45
556.711	10.43
556.907	10.41
557.104	10.4
557.3	10.35
557.496	10.42
557.693	10.44
557.889	10.45
558.085	10.47
558.281	10.47
558.478	10.4
558.674	10.44
558.87	10.41
559.066	10.45
559.262	10.46
559.459	10.52
559.655	10.48
559.851	10.49
560.047	10.49
560.243	10.45
560.439	10.43
560.635	10.52
560.831	10.53
561.027	10.57
561.223	10.56
561.419	10.59
561.615	10.59
561.811	10.6
562.007	10.6
562.203	10.59
562.399	10.64
562.595	10.66
562.791	10.61
562.987	10.65
563.183	10.65
563.379	10.71
563.575	10.7
563.771	10.72
563.966	10.75
564.162	10.75
564.358	10.74
564.554	10.74
564.75	10.81
564.945	10.83
565.141	10.82
565.337	10.82
565.533	10.81
565.728	10.86
565.924	10.86
566.12	10.85
566.315	10.9
566.511	10.9
566.707	10.87
566.902	10.83
567.098	10.84
567.293	10.85
567.489	10.87
567.684	10.86
567.88	10.82
568.076	10.83
568.271	10.83
568.467	10.78
568.662	10.83
568.858	10.86
569.053	10.87
569.248	10.9
569.444	10.88
569.639	10.91
569.835	10.91
570.03	10.94
570.225	10.94
570.421	10.99
570.616	11.04
570.812	11.08
571.007	11.12
571.202	11.11
571.397	11.15
571.593	11.14
571.788	11.14
571.983	11.18
572.178	11.22
572.374	11.25
572.569	11.24
572.764	11.23
572.959	11.23
573.154	11.22
573.35	11.24
573.545	11.22
573.74	11.23
573.935	11.25
574.13	11.25
574.325	11.22
574.52	11.18
574.715	11.14
574.91	11.1
575.105	11.08
575.3	11.1
575.495	11.11
575.69	11.09
575.885	11.11
576.08	11.07
576.275	11.01
576.47	11.01
576.665	11.08
576.86	11.15
577.055	11.21
577.25	11.25
577.444	11.25
577.639	11.22
577.834	11.25
578.029	11.28
578.224	11.27
578.418	11.34
578.613	11.35
578.808	11.36
579.003	11.36
579.197	11.36
579.392	11.32
579.587	11.27
579.781	11.36
579.976	11.33
580.171	11.28
580.365	11.3
580.56	11.28
580.755	11.32
580.949	11.34
581.144	11.33
581.338	11.34
581.533	11.32
581.727	11.34
581.922	11.29
582.116	11.35
582.311	11.4
582.505	11.4
582.7	11.45
582.894	11.49
583.089	11.42
583.283	11.37
583.478	11.34
583.672	11.42
583.866	11.42
584.061	11.44
584.255	11.44
584.449	11.4
584.644	11.44
584.838	11.43
585.032	11.33
585.226	11.36
585.421	11.4
585.615	11.4
585.809	11.37
586.003	11.34
586.198	11.34
586.392	11.3
586.586	11.39
586.78	11.4
586.974	11.44
587.168	11.53
587.363	11.47
587.557	11.55
587.751	11.59
587.945	11.58
588.139	11.65
588.333	11.66
588.527	11.7
588.721	11.68
588.915	11.68
589.109	11.62
589.303	11.56
589.497	11.6
589.691	11.56
589.885	11.59
590.079	11.64
590.273	11.65
590.466	11.69
590.66	11.74
590.854	11.71
591.048	11.67
591.242	11.69
591.436	11.7
591.629	11.78
591.823	11.75
592.017	11.75
592.211	11.72
592.404	11.73
592.598	11.69
592.792	11.69
592.986	11.72
593.179	11.74
593.373	11.77
593.567	11.73
593.76	11.65
593.954	11.64
594.147	11.68
594.341	11.67
594.535	11.72
594.728	11.76
594.922	11.76
595.115	11.74
595.309	11.77
595.502	11.79
595.696	11.82
595.889	11.86
596.083	11.86
596.276	11.77
596.47	11.78
596.663	11.73
596.856	11.68
597.05	11.65
597.243	11.63
597.437	11.65
597.63	11.64
597.823	11.67
598.017	11.66
598.21	11.63
598.403	11.66
598.596	11.68
598.79	11.71
598.983	11.76
599.176	11.76
599.369	11.75
599.563	11.65
599.756	11.61
599.949	11.61
600.142	11.65
600.335	11.72
600.528	11.71
600.722	11.72
600.915	11.74
601.108	11.76
601.301	11.78
601.494	11.87
601.687	11.9
601.88	11.88
602.073	11.88
602.266	11.84
602.459	11.82
602.652	11.84
602.845	11.81
603.038	11.8
603.231	11.78
603.424	11.72
603.617	11.69
603.809	11.72
604.002	11.78
604.195	11.76
604.388	11.8
604.581	11.76
604.774	11.75
604.966	11.83
605.159	11.8
605.352	11.83
605.545	11.92
605.737	11.96
605.93	11.96
606.123	11.9
606.316	11.97
606.508	12
606.701	12.14
606.894	12.2
607.086	12.12
607.279	12.11
607.471	12.08
607.664	12.08
607.857	12.09
608.049	12.11
608.242	12.17
608.434	12.11
608.627	12.08
608.819	12.01
609.012	12.02
609.204	12
609.397	12.06
609.589	12.11
609.782	12.02
609.974	12.04
610.166	12.06
610.359	12.07
610.551	12.07
610.743	12.09
610.936	12.1
611.128	12.1
611.32	12.18
611.513	12.17
611.705	12.15
611.897	12.2
612.09	12.12
612.282	12.1
612.474	12.07
612.666	12.16
612.858	12.15
613.051	12.19
613.243	12.15
613.435	12.15
613.627	12.19
613.819	12.18
614.011	12.18
614.203	12.2
614.395	12.17
614.588	12.18
614.78	12.18
614.972	12.17
615.164	12.09
615.356	12.1
615.548	12.04
615.74	12.06
615.932	12.05
616.124	12.06
616.315	12.07
616.507	12.03
616.699	12.01
616.891	11.99
617.083	12.05
617.275	12.14
617.467	12.12
617.659	12.06
617.85	11.96
618.042	11.95
618.234	11.99
618.426	11.94
618.618	12.08
618.809	12.16
619.001	12.11
619.193	12.08
619.384	12.12
619.576	12.2
619.768	12.34
619.959	12.41
620.151	12.44
620.343	12.41
620.534	12.5
620.726	12.43
620.917	12.39
621.109	12.39
621.301	12.37
621.492	12.28
621.684	12.17
621.875	12.11
622.067	12.04
622.258	12.08
622.45	12.13
622.641	12.18
622.832	12.19
623.024	12.2
623.215	12.27
623.407	12.27
623.598	12.35
623.789	12.35
623.981	12.35
624.172	12.43
624.363	12.45
624.555	12.46
624.746	12.46
624.937	12.46
625.129	12.41
625.32	12.36
625.511	12.37
625.702	12.35
625.893	12.42
626.085	12.45
626.276	12.47
626.467	12.39
626.658	12.39
626.849	12.35
627.04	12.34
627.231	12.37
627.422	12.49
627.614	12.54
627.805	12.52
627.996	12.5
628.187	12.5
628.378	12.4
628.569	12.49
628.76	12.46
628.951	12.38
629.142	12.41
629.332	12.43
629.523	12.33
629.714	12.34
629.905	12.36
630.096	12.27
630.287	12.33
630.478	12.4
630.669	12.41
630.859	12.43
631.05	12.52
631.241	12.48
631.432	12.53
631.623	12.56
631.813	12.51
632.004	12.46
632.195	12.56
632.385	12.44
632.576	12.42
632.767	12.37
632.957	12.37
633.148	12.38
633.339	12.36
633.529	12.31
633.72	12.3
633.91	12.26
634.101	12.34
634.292	12.26
634.482	12.34
634.673	12.28
634.863	12.28
635.054	12.26
635.244	12.23
635.435	12.24
635.625	12.24
635.815	12.2
636.006	12.26
636.196	12.26
636.387	12.25
636.577	12.27
636.767	12.33
636.958	12.33
637.148	12.3
637.338	12.27
637.529	12.31
637.719	12.28
637.909	12.34
638.099	12.33
638.29	12.29
638.48	12.48
638.67	12.42
638.86	12.42
639.05	12.44
639.241	12.51
639.431	12.6
639.621	12.58
639.811	12.65
640.001	12.61
640.191	12.52
640.381	12.5
640.571	12.41
640.761	12.46
640.951	12.48
641.141	12.51
641.331	12.47
641.521	12.42
641.711	12.42
641.901	12.34
642.091	12.41
642.281	12.56
642.471	12.55
642.661	12.51
642.851	12.54
643.041	12.52
643.231	12.49
643.42	12.48
643.61	12.42
643.8	12.43
643.99	12.59
644.18	12.48
644.369	12.45
644.559	12.56
644.749	12.52
644.939	12.45
645.128	12.37
645.318	12.37
645.508	12.4
645.697	12.5
645.887	12.46
646.076	12.39
646.266	12.46
646.456	12.46
646.645	12.38
646.835	12.42
647.024	12.4
647.214	12.4
647.403	12.31
647.593	12.36
647.782	12.39
647.972	12.35
648.161	12.29
648.351	12.28
648.54	12.24
648.73	12.27
648.919	12.37
649.108	12.43
649.298	12.51
649.487	12.56
649.677	12.51
649.866	12.49
650.055	12.59
650.244	12.64
650.434	12.6
650.623	12.6
650.812	12.55
651.002	12.5
651.191	12.46
651.38	12.44
651.569	12.57
651.758	12.61
651.947	12.55
652.137	12.52
652.326	12.52
652.515	12.57
652.704	12.6
652.893	12.66
653.082	12.65
653.271	12.79
653.46	12.76
653.649	12.74
653.838	12.7
654.027	12.75
654.216	12.71
654.405	12.75
654.594	12.77
654.783	12.74
654.972	12.83
655.161	12.87
655.35	12.84
655.539	12.88
655.728	12.76
655.916	12.68
656.105	12.73
656.294	12.74
656.483	12.65
656.672	12.66
656.86	12.69
657.049	12.58
657.238	12.5
657.427	12.47
657.615	12.53
657.804	12.57
657.993	12.58
658.181	12.49
658.37	12.51
658.559	12.54
658.747	12.6
658.936	12.63
659.125	12.71
659.313	12.74
659.502	12.74
659.69	12.71
659.879	12.7
660.067	12.75
660.256	12.84
660.444	12.94
660.633	13
660.821	12.86
661.01	12.87
661.198	12.77
661.387	12.74
661.575	12.77
661.763	12.8
661.952	12.8
662.14	12.86
662.328	12.75
662.517	12.64
662.705	12.59
662.893	12.75
663.082	12.65
663.27	12.62
663.458	12.65
663.646	12.55
663.834	12.58
664.023	12.66
664.211	12.72
664.399	12.79
664.587	12.78
664.775	12.8
664.963	12.74
665.152	12.75
665.34	12.9
665.528	12.95
665.716	13.01
665.904	12.91
666.092	12.9
666.28	12.91
666.468	13.04
666.656	12.99
666.844	12.97
667.032	12.93
667.22	12.98
667.408	12.85
667.596	12.87
667.784	12.9
667.971	12.94
668.159	12.98
668.347	12.82
668.535	12.66
668.723	12.75
668.911	12.78
669.098	12.77
669.286	12.82
669.474	12.91
669.662	12.8
669.849	12.8
670.037	12.69
670.225	12.66
670.413	12.82
670.6	12.88
670.788	12.88
670.976	12.93
671.163	12.93
671.351	12.83
671.538	12.79
671.726	12.89
671.913	12.9
672.101	13.05
672.289	13.06
672.476	13.05
672.664	13.05
672.851	12.99
673.039	12.98
673.226	12.97
673.413	13.1
673.601	13.14
673.788	13.07
673.976	13.01
674.163	12.92
674.35	12.91
674.538	12.83
674.725	12.71
674.912	12.71
675.1	12.65
675.287	12.7
675.474	12.75
675.662	12.82
675.849	12.91
676.036	12.93
676.223	13.04
676.411	13.01
676.598	13.02
676.785	13.14
676.972	13.19
677.159	13.37
677.346	13.45
677.533	13.39
677.721	13.39
677.908	13.36
678.095	13.34
678.282	13.38
678.469	13.5
678.656	13.5
678.843	13.5
679.03	13.45
679.217	13.31
679.404	13.29
679.591	13.31
679.778	13.21
679.964	13.15
680.151	13.2
680.338	13.16
680.525	13.13
680.712	13.21
680.899	13.19
681.086	13.17
681.272	13.09
681.459	13.11
681.646	13.11
681.833	13.15
682.02	13.23
682.206	13.26
682.393	13.18
682.58	13.06
682.766	13.11
682.953	13.13
683.14	13.23
683.326	13.43
683.513	13.43
683.7	13.32
683.886	13.31
684.073	13.2
684.259	13.21
684.446	13.24
684.632	13.35
684.819	13.14
685.005	13.19
685.192	13.23
685.378	13.17
685.565	13.14
685.751	13.17
685.938	13.06
686.124	13.13
686.31	13
686.497	13.05
686.683	13.11
686.87	13.19
687.056	13.02
687.242	12.95
687.429	12.97
687.615	12.86
687.801	12.97
687.987	13.02
688.174	12.89
688.36	12.99
688.546	13.05
688.732	13.02
688.918	12.98
689.105	13.04
689.291	13.07
689.477	13.08
689.663	13.26
689.849	13.13
690.035	13.26
690.221	13.38
690.407	13.42
690.593	13.29
690.779	13.31
690.965	13.4
691.151	13.52
691.337	13.56
691.523	13.57
691.709	13.46
691.895	13.53
692.081	13.28
692.267	13.39
692.453	13.39
692.639	13.41
692.825	13.43
693.011	13.33
693.196	13.15
693.382	13.08
693.568	13.02
693.754	13.17
693.94	13.07
694.125	13.34
694.311	13.37
694.497	13.49
694.682	13.57
694.868	13.54
695.054	13.63
695.239	13.74
695.425	13.78
695.611	13.79
695.796	13.69
695.982	13.91
696.168	13.81
696.353	13.77
696.539	13.62
696.724	13.53
696.91	13.6
697.095	13.58
697.281	13.54
697.466	13.54
697.652	13.43
697.837	13.42
698.023	13.4
698.208	13.44
698.393	13.54
698.579	13.61
698.764	13.6
698.949	13.56
699.135	13.56
699.32	13.65
699.505	13.65
699.691	13.63
699.876	13.65
700.061	13.6
700.246	13.65
700.432	13.45
700.617	13.48
700.802	13.58
700.987	13.53
701.172	13.72
701.358	13.6
701.543	13.63
701.728	13.85
701.913	13.8
702.098	13.86
702.283	13.8
702.468	13.82
702.653	13.71
702.838	13.71
703.023	13.85
703.208	13.67
703.393	13.72
703.578	13.76
703.763	13.72
703.948	13.87
704.133	13.75
704.318	13.71
704.503	13.74
704.688	13.75
704.873	13.81
705.057	13.63
705.242	13.59
705.427	13.7
705.612	13.57
705.797	13.65
705.981	13.55
706.166	13.6
706.351	13.67
706.536	13.77
706.72	13.68
706.905	13.44
707.09	13.41
707.274	13.38
707.459	13.18
707.644	13.26
707.828	13.25
708.013	13.34
708.197	13.44
708.382	13.24
708.567	13.16
708.751	13.15
708.936	13.26
709.12	13.45
709.305	13.57
709.489	13.83
709.673	13.77
709.858	13.61
710.042	13.46
710.227	13.37
710.411	13.4
710.596	13.53
710.78	13.69
710.964	13.66
711.149	13.65
711.333	13.64
711.517	13.56
711.702	13.63
711.886	13.79
712.07	13.78
712.254	13.94
712.438	14.2
712.623	14.17
712.807	14.17
712.991	14.2
713.175	14.18
713.359	14.13
713.544	14.13
713.728	14.11
713.912	14.09
714.096	14.27
714.28	14.08
714.464	13.95
714.648	13.96
714.832	13.94
715.016	13.89
715.2	13.8
715.384	13.89
715.568	13.84
715.752	13.73
715.936	13.73
716.12	13.71
716.304	13.81
716.488	13.78
716.671	13.74
716.855	13.67
717.039	13.76
717.223	13.92
717.407	13.83
717.59	13.74
717.774	13.86
717.958	13.97
718.142	13.95
718.325	13.83
718.509	13.97
718.693	13.9
718.877	13.77
719.06	13.87
719.244	13.56
719.428	13.65
719.611	13.93
719.795	13.89
719.978	13.78
720.162	13.71
720.345	13.77
720.529	13.59
720.713	13.61
720.896	13.71
721.08	13.52
721.263	13.66
721.446	13.69
721.63	13.6
721.813	13.59
721.997	13.6
722.18	13.7
722.364	13.77
722.547	13.86
722.73	14
722.914	14.03
723.097	14.02
723.28	14.11
723.464	14.13
723.647	14.07
723.83	14.2
724.013	14.14
724.197	14.18
724.38	14.19
724.563	14.14
724.746	14.08
724.929	14
725.112	13.98
725.296	13.8
725.479	13.67
725.662	13.74
725.845	13.72
726.028	13.54
726.211	13.5
726.394	13.56
726.577	13.49
726.76	13.5
726.943	13.68
727.126	13.75
727.309	13.82
727.492	13.73
727.675	13.62
727.858	13.53
728.041	13.89
728.224	13.71
728.407	13.64
728.589	13.74
728.772	13.83
728.955	13.86
729.138	13.99
729.321	14.17
729.503	14.4
729.686	14.36
729.869	14.36
730.052	14.32
730.234	14.31
730.417	14.33
730.6	14.27
730.782	14.18
730.965	14.17
731.148	14.13
731.33	14.02
731.513	13.93
731.695	13.91
731.878	14.01
732.061	13.94
732.243	14.13
732.426	14.05
732.608	14.26
732.791	14.11
732.973	14.05
733.156	14.11
733.338	14.18
733.52	13.89
733.703	14.11
733.885	14.07
734.068	14.08
734.25	13.9
734.432	14.12
734.615	14.08
734.797	14.13
734.979	14.11
735.162	13.93
735.344	13.85
735.526	14.16
735.708	13.97
735.891	14.08
736.073	14.06
736.255	14.2
736.437	14.12
736.619	13.81
736.802	13.85
736.984	13.88
737.166	13.99
737.348	13.85
737.53	13.71
737.712	13.7
737.894	13.88
738.076	13.85
738.258	13.74
738.44	13.67
738.622	13.77
738.804	13.73
738.986	13.81
739.168	13.76
739.35	13.92
739.532	13.99
739.714	13.94
739.896	13.65
740.078	13.72
740.259	13.93
740.441	13.89
740.623	14.06
740.805	14.24
740.987	14.37
741.168	14.35
741.35	14.31
741.532	14.45
741.714	14.59
741.895	14.75
742.077	14.65
742.259	14.65
742.44	14.66
742.622	14.37
742.804	14.45
742.985	14.08
743.167	14.1
743.348	13.94
743.53	13.79
743.711	13.71
743.893	13.69
744.075	13.69
744.256	13.57
744.438	13.64
744.619	13.82
744.8	13.76
744.982	13.95
745.163	14.02
745.345	14.25
745.526	14.29
745.707	14.39
745.889	14.17
746.07	14.23
746.252	14.21
746.433	14.1
746.614	14.21
746.795	14.28
746.977	14.35
747.158	14.39
747.339	14.45
747.52	14.22
747.702	14.41
747.883	14.56
748.064	14.53
748.245	14.63
748.426	14.73
748.607	14.61
748.788	14.32
748.97	14.08
749.151	14.25
749.332	14.5
749.513	14.95
749.694	14.77
749.875	14.67
750.056	14.71
750.237	14.71
750.418	14.54
750.599	14.22
750.78	14.54
750.96	15.04
751.141	14.81
751.322	14.62
751.503	14.49
751.684	14.71
751.865	14.88
752.046	15.08
752.226	15.02
752.407	15.1
752.588	15.65
752.769	15.56
752.949	15.32
753.13	15.34
753.311	15.08
753.492	15.07
753.672	15.06
753.853	14.77
754.034	14.84
754.214	14.93
754.395	14.82
754.575	14.83
754.756	14.79
754.937	14.46
755.117	14.58
755.298	14.85
755.478	14.93
755.659	15.01
755.839	15.04
756.02	14.8
756.2	14.69
756.381	14.65
756.561	14.11
756.741	14.35
756.922	14.51
757.102	14.55
757.283	14.59
757.463	14.87
757.643	14.54
757.823	14.69
758.004	14.57
758.184	14.95
758.364	15.22
758.545	15.52
758.725	15.1
758.905	15.06
759.085	15
759.265	14.76
759.446	14.27
759.626	14.47
759.806	14.46
759.986	14.49
760.166	14.06
760.346	13.89
760.526	14
760.706	14.32
760.886	14.46
761.066	14.29
761.246	14.54
761.426	14.75
761.606	14.36
761.786	14.35
761.966	14.42
762.146	14.76
762.326	14.79
762.506	14.65
762.686	14.69
762.866	14.5
763.046	14.55
763.225	14.56
763.405	14.38
763.585	14.71
763.765	14.6
763.945	14.69
764.124	14.68
764.304	14.6
764.484	14.8
764.664	14.82
764.843	14.99
765.023	15.11
765.203	14.99
765.382	15.19
765.562	15.06
765.741	15.5
765.921	15.19
766.101	14.8
766.28	15.02
766.46	14.89
766.639	14.59
766.819	14.51
766.998	14.53
767.178	14.53
767.357	14.37
767.537	14.52
767.716	14.22
767.896	14.55
768.075	14.83
768.254	14.72
768.434	14.8
768.613	14.71
768.792	14.72
768.972	14.78
769.151	14.86
769.33	15.3
769.51	15.44
769.689	15.45
769.868	15.37
770.047	15.31
770.226	15.63
770.406	15.67
770.585	15.84
770.764	15.93
770.943	16.03
771.122	15.89
771.301	15.68
771.48	15.7
771.66	15.71
771.839	15.58
772.018	15.47
772.197	15.35
772.376	15.1
772.555	15.21
772.734	15.42
772.913	15.62
773.092	15.78
773.271	15.55
773.449	15.29
773.628	15.36
773.807	15.59
773.986	15.38
774.165	15.41
774.344	15.59
774.523	15.46
774.701	15.34
774.88	14.53
775.059	14.36
775.238	14.75
775.417	14.58
775.595	14.39
775.774	14.65
775.953	14.88
776.131	14.59
776.31	14.4
776.489	14.75
776.667	14.84
776.846	15.4
777.025	15.53
777.203	15.32
777.382	15.91
777.56	15.97
777.739	15.35
777.917	15.16
778.096	15.12
778.274	15.67
778.453	15.68
778.631	15.16
778.81	15.02
778.988	14.97
779.166	15.07
779.345	14.57
779.523	14.53
779.702	14.79
779.88	15.06
780.058	15.34
780.237	14.85
780.415	15.04
780.593	15.59
780.771	15.48
780.95	15.41
781.128	15.17
781.306	15.53
781.484	16.17
781.662	16.07
781.841	15.9
782.019	15.95
782.197	16.36
782.375	15.96
782.553	16.19
782.731	16.73
782.909	17.07
783.087	17.41
783.265	17.7
783.443	17.68
783.621	17.63
783.799	18.1
783.977	17.67
784.155	17.41
784.333	17.49
784.511	16.73
784.689	16.3
784.867	16.24
785.045	15.7
785.223	14.84
785.4	13.99
785.578	14.15
785.756	13.66
785.934	13.58
786.112	13.33
786.289	13.36
786.467	13.6
786.645	13.89
786.823	13.71
787	13.86
787.178	14.5
787.356	14.98
787.533	15.19
787.711	15.53
787.889	16.6
788.066	16.81
788.244	16.58
788.421	16.75
788.599	16.52
788.776	16.4
788.954	16.38
789.131	15.92
789.309	15.53
789.486	15.33
789.664	15.25
789.841	14.19
790.019	14.19
790.196	14.17
790.373	13.85
790.551	13.64
790.728	13.97
790.906	14.1
791.083	13.77
791.26	14.01
791.437	13.93
791.615	13.77
791.792	13.88
791.969	13.75
792.146	13.72
792.324	14.31
792.501	14.51
792.678	14.4
792.855	14.26
793.032	14.57
793.209	14.39
793.387	14.52
793.564	14.54
793.741	14.72
793.918	14.61
794.095	14.89
794.272	14.89
794.449	14.75
794.626	15.02
794.803	15.07
794.98	15.15
795.157	15.55
795.334	15.63
795.511	15.45
795.688	15.14
795.864	15.71
796.041	16.25
796.218	15.96
796.395	16.38
796.572	16.23
796.749	16.15
796.925	16.24
797.102	16.39
797.279	16.31
797.456	16.77
797.632	17.13
797.809	16.5
797.986	15.72
798.162	16.09
798.339	15.77
798.516	15.46
798.692	15.83
798.869	16.38
799.046	15.81
799.222	15.86
799.399	15.7
799.575	16.38
799.752	16.81
799.928	16.7
800.105	16.22
800.281	16.19
800.458	16.94
800.634	17.1
800.811	16.67
800.987	17.07
801.163	17.22
801.34	17.09
801.516	16.77
801.692	16.75
801.869	17.56
802.045	17.91
802.221	17.59
802.398	16.73
802.574	16.35
802.75	16.16
802.926	16.27
803.103	15.49
803.279	16.13
803.455	15.49
803.631	15.56
803.807	14.75
803.983	14.17
804.16	14.38
804.336	14.23
804.512	14.45
804.688	15.08
804.864	14.92
805.04	15.37
805.216	15.15
805.392	15.29
805.568	15.16
805.744	16.07
805.92	16.11
806.096	16.29
806.272	17.12
806.448	16.95
806.623	16.45
806.799	16.97
806.975	17.06
807.151	16.74
807.327	16.56
807.503	16.86
807.678	16.92
807.854	17.34
808.03	17.83
808.206	17.51
808.381	17.63
808.557	17.04
808.733	16.51
808.908	16.96
809.084	16.24
809.26	16.47
809.435	16.18
809.611	15.35
809.787	15.2
809.962	14.53
810.138	14.74
810.313	14.96
810.489	15.68
810.664	16.03
810.84	15.51
811.015	16.93
811.191	16.77
811.366	16.57
811.542	16.27
811.717	16.83
811.892	17.33
812.068	17.46
812.243	17.43
812.419	17.39
812.594	17.43
812.769	17.87
812.944	17.44
813.12	17.37
813.295	17.29
813.47	17.7
813.645	16.84
813.821	16.81
813.996	16.27
814.171	16.06
814.346	15.8
814.521	15.84
814.697	15.41
814.872	15.4
815.047	15.12
815.222	15.62
815.397	16.17
815.572	16.48
815.747	16.92
815.922	16.66
816.097	16.95
816.272	17.01
816.447	16.48
816.622	16.54
816.797	15.89
816.972	16.54
817.147	16.33
817.322	15.55
817.496	15.21
817.671	14.96
817.846	15.44
818.021	14.93
818.196	14.85
818.371	15.09
818.545	15.2
818.72	15.38
818.895	15.15
819.069	15.17
819.244	15.78
819.419	16.35
819.594	16.17
819.768	16.09
819.943	16.13
820.117	15.91
820.292	15.81
820.467	15.83
820.641	15.97
820.816	16.07
820.99	16.1
821.165	16.01
821.339	15.77
821.514	15.62
821.688	15.58
821.863	15.54
822.037	15.58
822.212	15.57
822.386	15.51
822.56	15.4
822.735	15.35
822.909	15.33
823.084	15.14
823.258	15.21
823.432	15.29
823.606	15.27
823.781	15.28
823.955	15.23
824.129	15.22
824.303	15.27
824.478	15.38
824.652	15.26
824.826	15.1
825	15.5
825.174	15.5
825.348	15.33
825.523	15.44
825.697	15.33
825.871	15.37
826.045	15.61
826.219	15.62
826.393	15.47
826.567	15.52
826.741	15.64
826.915	15.67
827.089	15.7
827.263	15.91
827.437	15.91
827.611	16.27
827.784	16.23
827.958	15.95
828.132	16.17
828.306	16.14
828.48	16.28
828.654	16.19
828.827	15.82
829.001	15.68
829.175	15.59
829.349	15.34
829.522	15.03
829.696	15.49
829.87	15.71
830.044	15.04
830.217	15.39
830.391	15.03
830.565	15.68
830.738	15.34
830.912	15.9
831.085	16.53
831.259	17.23
831.432	17.21
831.606	17.2
831.779	17.1
831.953	17.3
832.126	17.04
832.3	17.46
832.473	16.93
832.647	16.9
832.82	16.87
832.994	16.41
833.167	15.9
833.34	15.86
833.514	15.45
833.687	15.21
833.86	14.98
834.034	15.19
834.207	14.91
834.38	14.93
834.553	15.28
834.727	14.82
834.9	14.99
835.073	15.31
835.246	15.07
835.419	15.39
835.593	15.94
835.766	16.41
835.939	16.04
836.112	15.87
836.285	15.65
836.458	15.34
836.631	16.29
836.804	15.9
836.977	15.69
837.15	16.42
837.323	16.26
837.496	15.17
837.669	14.83
837.842	15.04
838.015	15.52
838.188	16.07
838.361	16.41
838.533	15.72
838.706	15.21
838.879	15.08
839.052	14.82
839.225	14.45
839.398	14.66
839.57	14.55
839.743	14.7
839.916	14.62
840.088	14.5
840.261	14.83
840.434	15.39
840.607	15.44
840.779	15.33
840.952	15.23
841.124	16.76
841.297	18.24
841.47	18.69
841.642	18.55
841.815	18.55
841.987	18.94
842.16	18.66
842.332	17.73
842.505	18.81
842.677	21.05
842.85	22.12
843.022	21.44
843.194	21.06
843.367	21.77
843.539	22.91
843.712	22.22
843.884	21.94
844.056	22.87
844.229	23.48
844.401	23.2
844.573	23.63
844.745	23.15
844.918	22.47
845.09	23.5
845.262	21.32
845.434	20.94
845.606	22.32
845.779	22.93
845.951	21.82
846.123	21.87
846.295	22.03
846.467	20.09
846.639	20.68
846.811	20.32
846.983	18.88
847.155	18.82
847.327	17.68
847.499	16.27
847.671	15.56
847.843	15.12
848.015	14.37
848.187	14.32
848.359	13.65
848.531	12.01
848.703	12.68
848.875	14.77
849.047	15.63
849.218	16.61
849.39	17.99
849.562	19.99
849.734	19.16
849.905	21.31
850.077	20.94
850.249	21.34
850.421	22.93
850.592	23.89
850.764	21.67
850.936	22.55
851.107	22.98
851.279	21.37
851.451	20.29
851.622	23.22
851.794	23.45
851.965	25.46
852.137	24.77
852.308	22.48
852.48	22.77
852.651	20.84
852.823	19.77
852.994	21.14
853.166	20.75
853.337	19.6
853.509	17.88
853.68	18.34
853.851	17.61
854.023	18.21
854.194	19.93
854.365	21.09
854.537	22.87
854.708	22.19
854.879	21.81
855.05	23.49
855.222	22.82
855.393	23.49
855.564	20.3
855.735	17.34
855.906	18.21
856.078	17.63
856.249	18.41
856.42	17.43
856.591	19.7
856.762	20.75
856.933	20.74
857.104	19.99
857.275	20.28
857.446	21.28
857.617	22.85
857.788	22
857.959	21.44
858.13	18.64
858.301	17.8
858.472	15.94
858.643	12.93
858.814	14.52
858.985	16.44
859.155	15.03
859.326	14.86
859.497	16.65
859.668	15.92
859.839	18.78
860.009	21.47
860.18	20.84
860.351	24.65
860.522	25.88
860.692	23.15
860.863	20.56
861.034	21.72
861.204	21.43
861.375	20.98
861.546	21.33
861.716	16.93
861.887	11.88
862.057	14.43
862.228	11.78
862.398	9.32
862.569	13.67
862.739	16.61
862.91	17.45
863.08	18.57
863.251	16.56
863.421	15.62
863.592	19.38
863.762	22.8
863.932	23.41
864.103	21.92
864.273	22.51
864.443	21.89
864.614	20.67
864.784	19.83
864.954	18.79
865.125	20.78
865.295	22.59
865.465	19.65
865.635	16.81
865.805	16.75
865.976	17.4
866.146	19.54
866.316	16.23
866.486	17.33
866.656	16.91
866.826	16.19
866.996	16.06
867.166	13.74
867.336	14.88
867.506	18.58
867.676	18.76
867.846	19.19
868.016	16.37
868.186	14.3
868.356	14.04
868.526	16.02
868.696	16.7
868.866	18.82
869.036	17.82
869.206	20.1
869.376	17.05
869.545	15.16
869.715	15.22
869.885	16.65
870.055	19.44
870.224	19.17
870.394	18.28
870.564	19.96
870.734	15.98
870.903	19.63
871.073	17.53
871.243	19.6
871.412	20.58
871.582	23.78
871.751	26.29
871.921	25.57
872.091	24.45
872.26	25.82
872.43	24.03
872.599	25.81
872.769	24.73
872.938	25.3
873.108	26.25
873.277	25.71
873.446	24.25
873.616	22.33
873.785	24.86
873.955	27.05
874.124	25.24
874.293	27.64
874.463	26.54
874.632	23.98
874.801	22.66
874.971	22.24
875.14	24.2
875.309	21.9
875.478	20.04
875.647	19.53
875.817	17.75
875.986	15.28
876.155	12.06
876.324	12.85
876.493	17.44
876.662	19.29
876.831	17.23
877	16.46
877.17	19.04
877.339	21.86
877.508	23.27
877.677	25.85
877.846	27.72
878.015	30.49
878.184	30.02
878.352	29.29
878.521	28.76
878.69	28.71
878.859	28.01
879.028	26.24
879.197	24.6
879.366	24.01
879.534	22.18
879.703	20.72
879.872	19.83
880.041	20.41
880.21	19.98
880.378	19.51
880.547	19.48
880.716	19.08
880.884	18.42
881.053	18.08
881.222	17.54
881.39	17.68
881.559	18.08
881.727	17.9
881.896	17.46
882.065	17.12
882.233	17.42
882.402	17.32
882.57	17.19
882.739	17.64
882.907	18.26
883.076	18.46
883.244	18.29
883.412	18.11
883.581	18.19
883.749	18.24
883.918	18.75
884.086	18.71
884.254	18.83
884.423	19.05
884.591	19.18
884.759	17.92
884.927	17.57
885.096	16.85
885.264	17.03
885.432	17.17
885.6	16.98
885.769	16.85
885.937	16.09
886.105	13.67
886.273	13.59
886.441	13.87
886.609	15.53
886.777	14.48
886.945	17.07
887.113	17.88
887.281	17.04
887.449	17.68
887.617	18.02
887.785	18.77
887.953	21.02
888.121	21.76
888.289	19.92
888.457	19.95
888.625	21.28
888.793	20.78
888.961	17.49
889.129	18.77
889.296	18.93
889.464	17.41
889.632	16.74
889.8	18.06
889.967	16.36
890.135	18.73
