Data from JASIL_3003_Reflection_01.txt Node
Date: Mon Nov 09 10:10:19 EST 2015
User: Geneva
Spectrometer: USB4E03002
Autoset integration time: false
Trigger mode: 4
Integration Time (sec): 1.000000E-1
Scans to average: 10
Electric dark correction enabled: false
Nonlinearity correction enabled: false
Boxcar width: 5
Stray light correction enabled: false
XAxis mode: Wavelengths
Stop averaging: false
Number of Pixels in Spectrum: 3648
>>>>>Begin Spectral Data<<<<<
177.575	-690.91
177.794	3742.86
178.014	-922.22
178.233	2368.42
178.452	446.09
178.672	2018.18
178.891	-1647.83
179.11	-305.66
179.33	3466.67
179.549	-433.33
179.768	304.55
179.987	187.02
180.207	150.2
180.426	81.01
180.645	68.72
180.864	160.28
181.084	153.7
181.303	162.71
181.522	79.78
181.741	2500
181.96	198.95
182.179	8.06
182.398	1150
182.618	123.81
182.837	74.19
183.056	87.5
183.275	120.18
183.494	100.63
183.713	144.37
183.932	102.15
184.151	365.85
184.37	63.68
184.589	-220.43
184.808	-43.18
185.027	-13.56
185.246	-225.74
185.465	1447.37
185.684	-123.85
185.903	134.72
186.122	124.7
186.341	29.67
186.56	479.31
186.779	-120.2
186.998	-697.4
187.216	-423.02
187.435	-387.91
187.654	-248.08
187.873	-503.06
188.092	-247.88
188.311	-1348.39
188.53	1470.59
188.748	-40
188.967	13.81
189.186	69.23
189.405	125
189.623	246.99
189.842	265.65
190.061	94.12
190.28	183.45
190.498	102.14
190.717	65.8
190.936	-15.13
191.154	-8.6
191.373	2.4
191.592	11.51
191.81	-16.41
192.029	-26.23
192.248	-38.04
192.466	-40.63
192.685	-29.19
192.904	-34.22
193.122	7.14
193.341	44.09
193.559	42.14
193.778	95.83
193.996	-23.17
194.215	53.97
194.433	6.21
194.652	-418.42
194.87	-231.25
195.089	-13.41
195.307	-67.79
195.526	-662.5
195.744	129.81
195.963	291.46
196.181	437.5
196.399	156.81
196.618	107.29
196.836	-420
197.055	-168.33
197.273	-262.34
197.491	613.95
197.71	161.11
197.928	385
198.146	55.56
198.365	59.13
198.583	151.61
198.801	278.18
199.019	-330.43
199.238	-7.32
199.456	-116.74
199.674	-147.73
199.892	-254.84
200.111	-173.3
200.329	-191.58
200.547	1202.5
200.765	312.84
200.983	-377
201.202	-136.93
201.42	-63.27
201.638	189.8
201.856	67.5
202.074	-2445.45
202.292	377.5
202.51	-131.82
202.728	-32.1
202.946	-221.9
203.165	-266.04
203.383	17.26
203.601	78.71
203.819	126.05
204.037	204.43
204.255	375.9
204.473	439.41
204.691	831.4
204.909	3216.67
205.127	-2826.92
205.345	-1962.16
205.562	-4642.86
205.78	-1830.3
205.998	496.52
206.216	432.43
206.434	545.33
206.652	151.63
206.87	232.8
207.088	278.91
207.306	727.5
207.523	-528.33
207.741	-124.03
207.959	-66.86
208.177	-20.33
208.395	-5.2
208.612	12.91
208.83	27.91
209.048	37.48
209.266	-0.18
209.483	41.36
209.701	28.01
209.919	36.91
210.136	-6.05
210.354	-188.41
210.572	159.18
210.79	267.05
211.007	132.12
211.225	116.74
211.442	117.54
211.66	115.22
211.878	98.17
212.095	110.15
212.313	89.74
212.53	81.75
212.748	80.99
212.966	100.28
213.183	45.92
213.401	192
213.618	-376.67
213.836	-148.61
214.053	482.76
214.271	367.33
214.488	315.87
214.705	-329.23
214.923	516.28
215.14	182.52
215.358	-180.49
215.575	557.89
215.793	30.3
216.01	-284
216.227	-618.75
216.445	88.43
216.662	75.17
216.879	29.15
217.097	42.9
217.314	56.45
217.531	68.97
217.749	84.47
217.966	88.35
218.183	48.08
218.4	36.83
218.618	36.67
218.835	51.99
219.052	-42.19
219.269	-80.77
219.487	65.52
219.704	58.02
219.921	-5.84
220.138	-26.04
220.355	-177.71
220.572	-45.48
220.79	-52.05
221.007	-93.47
221.224	-76.99
221.441	-78.24
221.658	-39.29
221.875	-59.59
222.092	-99.42
222.309	-246.47
222.526	-228.95
222.743	-196.82
222.96	-539.73
223.177	-4825
223.394	815.25
223.611	396.61
223.828	-365.69
224.045	-218.99
224.262	-150.94
224.479	-52.25
224.696	6.7
224.913	41.67
225.13	62.2
225.347	64.84
225.564	38.73
225.781	34.03
225.997	27.93
226.214	19.21
226.431	25.24
226.648	29.93
226.865	28.82
227.082	25.03
227.298	15.86
227.515	10.6
227.732	8.94
227.949	18.73
228.165	19.88
228.382	20.53
228.599	21.73
228.816	16.07
229.032	9.6
229.249	12.06
229.466	7.15
229.682	10.89
229.899	13.17
230.116	14.45
230.332	11.74
230.549	11.31
230.765	2.61
230.982	9.4
231.199	15.34
231.415	38.91
231.632	31.8
231.848	32.44
232.065	29.64
232.281	36.46
232.498	34.4
232.714	22.06
232.931	21.15
233.147	22.24
233.364	11.13
233.58	6.23
233.797	-18.91
234.013	-13.42
234.23	-4.88
234.446	-18.02
234.662	-24.44
234.879	-21.04
235.095	-6.7
235.312	-14.99
235.528	2.69
235.744	1.9
235.961	-1.68
236.177	6.41
236.393	3.16
236.61	-2.68
236.826	13.12
237.042	22.16
237.258	15.98
237.475	-0.36
237.691	2.15
237.907	-7.81
238.123	-2.66
238.339	-5.07
238.556	2.36
238.772	-8.64
238.988	-7.99
239.204	-15.22
239.42	-19.36
239.636	-16.89
239.853	-9.06
240.069	-10.07
240.285	-14.09
240.501	-11.56
240.717	-8.64
240.933	-10.76
241.149	-4.75
241.365	-5.99
241.581	-2.23
241.797	-0.98
242.013	-1.65
242.229	-7.22
242.445	-8.57
242.661	-2.76
242.877	-2.63
243.093	-8.95
243.309	-12.15
243.525	-18.67
243.741	-25.34
243.957	-24.08
244.173	-18.96
244.388	-15.08
244.604	-7.93
244.82	-3.12
245.036	-2.4
245.252	-0.21
245.468	0.57
245.683	3.43
245.899	3.45
246.115	6.61
246.331	4.8
246.547	4.58
246.762	5.29
246.978	4.82
247.194	3.76
247.409	3.84
247.625	4.72
247.841	7.92
248.057	9.27
248.272	8.36
248.488	10.43
248.703	12.36
248.919	13.07
249.135	14.35
249.35	18.61
249.566	20.33
249.782	19.54
249.997	18.82
250.213	14.82
250.428	14.32
250.644	15.83
250.859	12.45
251.075	9.42
251.29	6.75
251.506	7.69
251.721	7.24
251.937	7.08
252.152	3.67
252.368	-0.27
252.583	2.95
252.798	0.92
253.014	-0
253.229	1.16
253.445	6.9
253.66	13.83
253.875	10.12
254.091	2.21
254.306	2.55
254.521	14.81
254.737	16.1
254.952	16.99
255.167	7.74
255.383	8.38
255.598	6.2
255.813	10.44
256.028	6.38
256.244	5.74
256.459	7.54
256.674	5.54
256.889	1.66
257.104	3.87
257.32	1.33
257.535	6.25
257.75	7.66
257.965	9.61
258.18	6.51
258.395	3.76
258.61	4.78
258.826	4.1
259.041	4.37
259.256	5.86
259.471	6.05
259.686	5.53
259.901	4.71
260.116	3.43
260.331	0.94
260.546	2.68
260.761	5.99
260.976	2.91
261.191	3.54
261.406	3.77
261.621	1.42
261.836	1.14
262.05	3.24
262.265	4.59
262.48	5.84
262.695	6.48
262.91	6.4
263.125	3.47
263.34	7.78
263.555	8.74
263.769	9.16
263.984	11.25
264.199	10.19
264.414	12.19
264.629	14.07
264.843	12.27
265.058	12.99
265.273	10.3
265.488	10.66
265.702	8.25
265.917	6.48
266.132	2.68
266.346	-0.11
266.561	0.02
266.776	-3
266.99	-10.07
267.205	-9.64
267.42	-11.23
267.634	-11.54
267.849	-10.75
268.063	-8.28
268.278	-5.95
268.492	-3.69
268.707	-2.65
268.922	-4.12
269.136	-1.07
269.351	1.51
269.565	0.33
269.78	4.04
269.994	4.32
270.209	3.8
270.423	3.53
270.637	2.5
270.852	4.52
271.066	2.86
271.281	3.65
271.495	4.23
271.709	3.83
271.924	2.84
272.138	2.83
272.353	3.14
272.567	2.72
272.781	2.22
272.996	3.35
273.21	7.23
273.424	9.4
273.638	10.91
273.853	4.88
274.067	3.81
274.281	4.89
274.495	3.99
274.71	3.87
274.924	6.19
275.138	4.46
275.352	6.62
275.566	-1.06
275.781	-4.01
275.995	-4.9
276.209	-3.56
276.423	-2.37
276.637	-4.65
276.851	-3.51
277.065	-1.83
277.279	-3.09
277.493	0.71
277.707	-0.58
277.921	5.36
278.135	4.71
278.349	6.87
278.563	8.56
278.777	10.47
278.991	14.59
279.205	13.87
279.419	12.18
279.633	8.92
279.847	6.55
280.061	5.23
280.275	3.08
280.489	6.22
280.703	2.21
280.917	2.07
281.131	-2.55
281.344	-4.29
281.558	-6.96
281.772	-4.12
281.986	-4.62
282.2	-4.04
282.414	-3.36
282.627	-1.43
282.841	0.91
283.055	4.41
283.269	3.44
283.482	4.56
283.696	6.62
283.91	8.39
284.123	5.53
284.337	6.64
284.551	7.18
284.764	5.62
284.978	4.36
285.192	1.84
285.405	0.4
285.619	-0.03
285.833	1.07
286.046	-1.69
286.26	-3.6
286.473	-3.05
286.687	-3.07
286.9	-6.67
287.114	-5.92
287.327	-6.52
287.541	-6.26
287.754	-6.88
287.968	-4.29
288.181	-6.96
288.395	-4.73
288.608	-3.35
288.822	-2.14
289.035	-3.5
289.248	0.34
289.462	1.68
289.675	2.66
289.889	2.95
290.102	4.48
290.315	4.71
290.529	6.6
290.742	6.29
290.955	7.08
291.169	6.55
291.382	6.54
291.595	5.71
291.808	4.9
292.022	7.07
292.235	6.2
292.448	4.66
292.661	3.61
292.875	5.93
293.088	4.04
293.301	3
293.514	3.88
293.727	6.37
293.94	7.93
294.153	6.06
294.367	4.46
294.58	4.79
294.793	6.36
295.006	7.31
295.219	5.35
295.432	6.67
295.645	6.9
295.858	7.34
296.071	5.82
296.284	4.49
296.497	6.2
296.71	7.2
296.923	6.96
297.136	6.18
297.349	6.4
297.562	7.58
297.775	5.74
297.988	5.5
298.201	3.22
298.414	4.92
298.626	5.15
298.839	6.03
299.052	5.32
299.265	6.51
299.478	7.6
299.691	7.08
299.903	6.02
300.116	10.93
300.329	13.7
300.542	15.16
300.755	15.15
300.967	16
301.18	15.19
301.393	14.47
301.605	16.15
301.818	13.26
302.031	13.06
302.243	12.17
302.456	10.65
302.669	9.02
302.881	8.46
303.094	7.93
303.307	3.47
303.519	2.83
303.732	-0.1
303.944	-3.33
304.157	-2.61
304.37	-3.41
304.582	-0.34
304.795	-1.39
305.007	-6.23
305.22	-4.16
305.432	-2.67
305.645	1.47
305.857	2.38
306.069	5.01
306.282	6.37
306.494	4.88
306.707	5.14
306.919	6.4
307.132	8.64
307.344	12.41
307.556	8.5
307.769	6.8
307.981	5.69
308.193	4.27
308.406	5.21
308.618	4.53
308.83	7.84
309.043	9.37
309.255	4.51
309.467	3.17
309.679	1.94
309.892	5.3
310.104	6.47
310.316	7.77
310.528	8.54
310.74	7.16
310.953	7.11
311.165	6.74
311.377	5.63
311.589	7.15
311.801	6.91
312.013	6.34
312.225	7.51
312.437	5.68
312.649	4.06
312.862	4.62
313.074	4.79
313.286	1.61
313.498	1.9
313.71	1.32
313.922	2.89
314.134	2.08
314.346	6.04
314.558	3.89
314.77	6.56
314.982	8.37
315.193	5.74
315.405	6.04
315.617	9.7
315.829	7.51
316.041	7.72
316.253	7.71
316.465	8.37
316.677	4.24
316.888	4.38
317.1	1.67
317.312	-2.68
317.524	1.1
317.736	1.23
317.947	3.19
318.159	6.59
318.371	7.37
318.583	11.26
318.794	9.92
319.006	11.74
319.218	12.25
319.43	14.77
319.641	17.89
319.853	15.97
320.064	14.83
320.276	14.69
320.488	11.21
320.699	12.01
320.911	9.21
321.123	11.83
321.334	13.52
321.546	12.05
321.757	12.11
321.969	10.03
322.18	14
322.392	11.08
322.603	10.47
322.815	12.41
323.026	10.47
323.238	11.93
323.449	11.19
323.661	10.42
323.872	12.87
324.083	13.11
324.295	16.63
324.506	12.74
324.718	17.33
324.929	16.76
325.14	18.36
325.352	19.51
325.563	20.06
325.774	22.5
325.986	23.24
326.197	22.29
326.408	21.09
326.62	20.62
326.831	23.21
327.042	23.44
327.253	24.38
327.464	22.62
327.676	25.5
327.887	24.64
328.098	23.88
328.309	24.61
328.52	26.05
328.732	28.17
328.943	28.08
329.154	28.11
329.365	28.75
329.576	28.42
329.787	29.59
329.998	28.63
330.209	30.97
330.42	28.92
330.631	27.51
330.842	26.64
331.053	27.01
331.264	27.44
331.475	28.01
331.686	27.15
331.897	27.4
332.108	28.46
332.319	25.81
332.53	22.99
332.741	24.65
332.952	24.6
333.163	25.03
333.374	21.2
333.585	22.83
333.795	21.05
334.006	19.45
334.217	18.75
334.428	17.74
334.639	20.9
334.849	21.07
335.06	21.76
335.271	22.66
335.482	24.09
335.692	26.61
335.903	25.75
336.114	27.66
336.325	29.26
336.535	31.89
336.746	29.54
336.957	29.16
337.167	29.96
337.378	30.79
337.589	30.02
337.799	26.69
338.01	24.11
338.22	25.27
338.431	24.29
338.642	24.35
338.852	24.06
339.063	27.31
339.273	26.23
339.484	25.81
339.694	23.75
339.905	26.14
340.115	30.37
340.326	33.19
340.536	32.27
340.746	31.98
340.957	32.48
341.167	32.81
341.378	32.67
341.588	34.03
341.799	32.78
342.009	30.98
342.219	29.51
342.43	28.39
342.64	28.28
342.85	29.67
343.061	30.55
343.271	29.18
343.481	27.54
343.691	25.77
343.902	25.63
344.112	26.97
344.322	29.88
344.532	31.18
344.743	29.39
344.953	28.43
345.163	26.62
345.373	26.57
345.583	26.81
345.793	26.93
346.004	26.71
346.214	26.19
346.424	25.13
346.634	26.19
346.844	23.92
347.054	23.8
347.264	25.4
347.474	22.29
347.684	22.14
347.894	21.92
348.104	21.64
348.314	22.68
348.524	22.2
348.734	22.11
348.944	21.62
349.154	20.33
349.364	21.65
349.574	18.97
349.784	20.6
349.994	21.4
350.204	20.09
350.413	21.66
350.623	23.08
350.833	23.79
351.043	24.37
351.253	25.19
351.463	27.04
351.672	25.78
351.882	27.51
352.092	28.19
352.302	27.02
352.511	28.26
352.721	27.91
352.931	26.68
353.141	26.49
353.35	25.35
353.56	24.4
353.77	21.86
353.979	23.42
354.189	24.12
354.399	23.09
354.608	23.01
354.818	23.68
355.027	20.94
355.237	21.14
355.447	20.79
355.656	22.02
355.866	21.36
356.075	23.36
356.285	23.65
356.494	23.21
356.704	24.66
356.913	24.42
357.123	24.58
357.332	26.46
357.542	26
357.751	25.84
357.96	25.88
358.17	24.52
358.379	25.12
358.589	25.05
358.798	24.91
359.007	23.96
359.217	23.58
359.426	23.45
359.635	21.68
359.845	22.77
360.054	22.95
360.263	22.53
360.472	23.6
360.682	23.21
360.891	22.68
361.1	21.15
361.309	22.45
361.519	23.02
361.728	22.53
361.937	24.32
362.146	22.97
362.355	23.3
362.564	23.24
362.774	23.07
362.983	21.85
363.192	21.44
363.401	23.23
363.61	22.02
363.819	21.64
364.028	21.28
364.237	20.8
364.446	21.54
364.655	18.44
364.864	18.68
365.073	17.92
365.282	20.43
365.491	20.33
365.7	19.42
365.909	19.47
366.118	20.85
366.327	21.73
366.536	20.31
366.745	20.22
366.954	22.3
367.162	23.43
367.371	23.74
367.58	22.64
367.789	23.84
367.998	24.14
368.207	23.36
368.415	20.34
368.624	20.98
368.833	21.69
369.042	22.51
369.25	22.05
369.459	22.05
369.668	22.91
369.877	23.03
370.085	23.49
370.294	24.23
370.503	25.68
370.711	27.03
370.92	28.59
371.129	28.68
371.337	27.25
371.546	26.96
371.754	25.57
371.963	25.26
372.171	24.14
372.38	23.43
372.589	22.01
372.797	21.19
373.006	21.03
373.214	18.97
373.423	19.12
373.631	20.15
373.84	21.01
374.048	20.27
374.256	19.26
374.465	20.49
374.673	19.92
374.882	20.33
375.09	20.51
375.298	20.8
375.507	20.98
375.715	21.37
375.923	20.53
376.132	21.12
376.34	21.81
376.548	22.55
376.757	22.28
376.965	22.39
377.173	22.28
377.381	22.92
377.59	22.24
377.798	22.5
378.006	22.25
378.214	23.17
378.423	22.99
378.631	22.5
378.839	22.21
379.047	23.05
379.255	22.55
379.463	21.68
379.671	20.46
379.879	20.57
380.088	19.86
380.296	19.12
380.504	19.05
380.712	19.91
380.92	19.8
381.128	20.11
381.336	18.9
381.544	18.86
381.752	20.19
381.96	20.86
382.168	20.86
382.376	21.21
382.584	22.43
382.791	22.51
382.999	21.49
383.207	21.33
383.415	20.32
383.623	20.93
383.831	20.91
384.039	20.55
384.247	19.58
384.454	20.44
384.662	20.17
384.87	19.28
385.078	18.49
385.285	18.24
385.493	19.52
385.701	19.85
385.909	19.43
386.116	19.23
386.324	19.74
386.532	19.25
386.739	18.78
386.947	19.47
387.155	19.56
387.362	19.16
387.57	17.97
387.778	16.7
387.985	16.61
388.193	17.53
388.4	17.32
388.608	17.91
388.816	19.17
389.023	19.48
389.231	18.78
389.438	19.68
389.646	19.63
389.853	20.58
390.061	21.23
390.268	22.27
390.475	21.68
390.683	23.15
390.89	22.99
391.098	22.34
391.305	22.66
391.512	22.5
391.72	20.79
391.927	21.36
392.135	21.09
392.342	21.52
392.549	21.18
392.756	20.85
392.964	19.09
393.171	18.72
393.378	18.07
393.586	17.78
393.793	17.67
394	18.85
394.207	18.66
394.414	19
394.622	18.39
394.829	18.35
395.036	18.96
395.243	19.79
395.45	19.86
395.657	20.97
395.864	20.16
396.072	20.39
396.279	20.42
396.486	20.82
396.693	21.26
396.9	21.39
397.107	21.33
397.314	20.85
397.521	21.29
397.728	20.03
397.935	20.53
398.142	21.06
398.349	19.45
398.556	18.65
398.763	18.91
398.97	18.25
399.177	18.26
399.383	17.37
399.59	17.42
399.797	15.78
400.004	17.87
400.211	16.62
400.418	16.38
400.625	18.21
400.831	18.13
401.038	17.47
401.245	17.88
401.452	18.23
401.658	18.35
401.865	17.79
402.072	18.82
402.279	18.02
402.485	18.38
402.692	17.94
402.899	18.06
403.105	18.73
403.312	18.69
403.519	19.07
403.725	18.22
403.932	19.13
404.138	20.55
404.345	20.84
404.552	21.23
404.758	20.81
404.965	22.52
405.171	21.44
405.378	21.56
405.584	21.76
405.791	21.84
405.997	22.13
406.204	21.34
406.41	20.61
406.617	20.73
406.823	20.76
407.029	21.76
407.236	20.25
407.442	20.92
407.649	20.76
407.855	21.12
408.061	20.4
408.268	20.34
408.474	20.52
408.68	19.75
408.887	18.89
409.093	17.52
409.299	16.85
409.505	16.94
409.712	16.69
409.918	16.19
410.124	16.14
410.33	16.24
410.537	16.34
410.743	15.88
410.949	14.99
411.155	15.73
411.361	15.67
411.567	16.54
411.773	16.34
411.98	17.36
412.186	17.25
412.392	16.49
412.598	16.77
412.804	15.63
413.01	16.73
413.216	17.65
413.422	17.86
413.628	18.85
413.834	17.92
414.04	17.63
414.246	17.4
414.452	17.4
414.658	17.25
414.864	17.38
415.07	18.22
415.275	17.66
415.481	17.48
415.687	17.4
415.893	17.41
416.099	16.82
416.305	17.2
416.511	16.82
416.716	17.22
416.922	17.56
417.128	17.13
417.334	17.78
417.539	18.42
417.745	18.61
417.951	18.28
418.157	18.44
418.362	19.22
418.568	19.96
418.774	20.27
418.979	19.52
419.185	19.57
419.391	19.51
419.596	19.18
419.802	18.93
420.008	19.11
420.213	23.27
420.419	23.07
420.624	22.52
420.83	21.76
421.035	21.81
421.241	22.64
421.446	22.96
421.652	23.2
421.857	23.02
422.063	22.26
422.268	22
422.474	17.92
422.679	17.53
422.885	17.81
423.09	17.93
423.295	17.79
423.501	17.82
423.706	17.54
423.911	17.29
424.117	17.3
424.322	17.55
424.527	17.67
424.733	17.6
424.938	18.33
425.143	18.95
425.349	19.12
425.554	19.05
425.759	18.56
425.964	18.61
426.169	18.9
426.375	19.16
426.58	19.37
426.785	19.3
426.99	19.49
427.195	18.75
427.4	18.14
427.605	18.24
427.811	18.22
428.016	18.82
428.221	18.24
428.426	18.39
428.631	18.02
428.836	17.68
429.041	17.84
429.246	17.5
429.451	18.54
429.656	18.64
429.861	18.34
430.066	18.2
430.271	17.47
430.476	18.13
430.681	18.15
430.886	17.84
431.09	18.54
431.295	18.77
431.5	18.96
431.705	18.34
431.91	18.54
432.115	18.97
432.32	19.15
432.524	19.09
432.729	19.4
432.934	18.97
433.139	18.96
433.343	18.97
433.548	18.77
433.753	19
433.958	18.93
434.162	18.94
434.367	18.68
434.572	18.53
434.776	18.64
434.981	18.95
435.186	18.8
435.39	19.21
435.595	18.28
435.799	18.34
436.004	17.66
436.209	18.03
436.413	17.62
436.618	17.83
436.822	17.88
437.027	18.12
437.231	16.92
437.436	17.38
437.64	17.52
437.845	17.34
438.049	17.38
438.253	18
438.458	17.71
438.662	18.41
438.867	17.88
439.071	17.55
439.275	17.12
439.48	17.43
439.684	17.06
439.888	16.94
440.093	17.01
440.297	16.55
440.501	16.39
440.706	16.2
440.91	15.38
441.114	15.51
441.318	15.68
441.523	16.15
441.727	15.82
441.931	16.28
442.135	15.86
442.339	16.53
442.543	16.34
442.748	15.95
442.952	16.56
443.156	16.43
443.36	16.54
443.564	16.43
443.768	16.32
443.972	16.44
444.176	16.51
444.38	16.46
444.584	15.95
444.788	16.48
444.992	16.79
445.196	16.59
445.4	17.01
445.604	17.12
445.808	17.04
446.012	16.93
446.216	16.95
446.42	16.72
446.624	16.97
446.828	17.25
447.032	17.66
447.235	16.96
447.439	16.62
447.643	16.65
447.847	16.55
448.051	16.81
448.254	16.94
448.458	16.41
448.662	16.73
448.866	16.5
449.069	16.71
449.273	16.56
449.477	17.35
449.681	17.36
449.884	17.06
450.088	17.12
450.292	16.92
450.495	17.23
450.699	18.15
450.902	17.9
451.106	18.63
451.31	18.54
451.513	18.51
451.717	18.41
451.92	18.51
452.124	18.48
452.327	18.5
452.531	18.24
452.734	17.66
452.938	17.87
453.141	17.76
453.345	17.54
453.548	17.34
453.752	17.07
453.955	16.95
454.158	16.67
454.362	16.52
454.565	16.09
454.769	16.29
454.972	15.72
455.175	15.71
455.379	15.71
455.582	15.63
455.785	15.5
455.988	15.14
456.192	14.97
456.395	15.06
456.598	14.95
456.801	15.39
457.005	15.52
457.208	15.96
457.411	15.84
457.614	16
457.817	15.65
458.021	15.75
458.224	15.79
458.427	16.06
458.63	15.98
458.833	16.22
459.036	15.19
459.239	15.13
459.442	15.82
459.645	15.91
459.848	15.97
460.051	15.85
460.254	16.18
460.457	16.24
460.66	16.05
460.863	16.39
461.066	16.54
461.269	17.5
461.472	17.44
461.675	16.83
461.878	16.36
462.081	15.81
462.284	16.18
462.486	15.97
462.689	16.36
462.892	16.22
463.095	15.87
463.298	15.77
463.5	16.08
463.703	16.05
463.906	16.21
464.109	16.43
464.311	16.15
464.514	16.59
464.717	16.1
464.92	16
465.122	15.7
465.325	15.83
465.528	16.31
465.73	15.66
465.933	15.98
466.135	16.06
466.338	16.12
466.541	16.86
466.743	16.27
466.946	16.04
467.148	15.82
467.351	16.86
467.553	16.76
467.756	16.38
467.958	16.81
468.161	17.28
468.363	17.01
468.566	16.97
468.768	17.14
468.971	17.09
469.173	18.13
469.375	17.51
469.578	16.38
469.78	16.43
469.983	15.97
470.185	16.01
470.387	14.65
470.59	14.89
470.792	14.72
470.994	14
471.196	14.55
471.399	14.55
471.601	15.27
471.803	15.75
472.005	15.81
472.208	15.8
472.41	16.02
472.612	16.34
472.814	16.62
473.016	16.84
473.218	17.29
473.421	16.94
473.623	16.39
473.825	16.34
474.027	16.56
474.229	16.76
474.431	16.48
474.633	15.97
474.835	16.82
475.037	15.65
475.239	15.43
475.441	15.38
475.643	15.45
475.845	15.93
476.047	15.88
476.249	15.59
476.451	15.5
476.653	16.03
476.855	15.98
477.057	15.51
477.258	16.14
477.46	16.61
477.662	16.96
477.864	17.32
478.066	17.27
478.268	16.92
478.469	16.89
478.671	16.49
478.873	16.36
479.075	16.69
479.276	17.12
479.478	17.04
479.68	16.46
479.882	16.18
480.083	16.18
480.285	16.29
480.487	16.61
480.688	16.53
480.89	16.93
481.091	16.86
481.293	16.73
481.495	16.32
481.696	16.57
481.898	16.44
482.099	16.43
482.301	16.3
482.502	16.09
482.704	16.02
482.905	16.08
483.107	15.95
483.308	15.95
483.51	15.8
483.711	15.91
483.913	15.69
484.114	15.85
484.315	15.87
484.517	15.67
484.718	15.68
484.92	15.7
485.121	15.82
485.322	15.78
485.524	15.85
485.725	16.24
485.926	16.32
486.127	16.41
486.329	16.52
486.53	16.37
486.731	16.61
486.932	16.49
487.134	16.52
487.335	16.51
487.536	16.68
487.737	16.84
487.938	16.75
488.139	16.81
488.341	16.61
488.542	16.18
488.743	16.07
488.944	15.84
489.145	15.96
489.346	16.1
489.547	16.02
489.748	15.79
489.949	15.67
490.15	15.54
490.351	15.6
490.552	15.5
490.753	15.78
490.954	16.02
491.155	16.11
491.356	15.99
491.557	15.9
491.758	15.83
491.959	15.8
492.159	15.36
492.36	15.87
492.561	15.49
492.762	15.9
492.963	15.86
493.164	15.86
493.364	15.97
493.565	16.12
493.766	15.96
493.967	16
494.167	16.36
494.368	16.46
494.569	15.95
494.769	16.29
494.97	16.15
495.171	16.03
495.371	15.98
495.572	16.01
495.773	16.19
495.973	16.49
496.174	16.57
496.375	16.74
496.575	17.24
496.776	17.53
496.976	17.44
497.177	17.36
497.377	17.66
497.578	17.68
497.778	17.75
497.979	17.72
498.179	17.63
498.38	17.64
498.58	17.75
498.78	17.84
498.981	17.78
499.181	17.79
499.382	18.39
499.582	17.83
499.782	17.7
499.983	17.95
500.183	18.3
500.383	18.22
500.584	18.23
500.784	17.77
500.984	17.78
501.184	17.64
501.385	17.53
501.585	16.77
501.785	17.45
501.985	17.53
502.185	17.12
502.386	17.03
502.586	17.31
502.786	18.05
502.986	18.59
503.186	18.65
503.386	18.85
503.586	18.91
503.786	19.27
503.987	19.15
504.187	19.9
504.387	20.04
504.587	20.37
504.787	20.32
504.987	20.04
505.187	19.49
505.387	19.35
505.587	18.77
505.786	18.9
505.986	19.13
506.186	18.99
506.386	18.42
506.586	18.27
506.786	18.23
506.986	18.29
507.186	18.11
507.386	18.28
507.585	18.35
507.785	18.76
507.985	18.77
508.185	18.9
508.384	18.94
508.584	19.06
508.784	19.58
508.984	19.7
509.183	19.57
509.383	19.24
509.583	19.3
509.782	18.96
509.982	19.03
510.182	18.52
510.381	18.5
510.581	18.57
510.781	18.16
510.98	17.94
511.18	17.85
511.379	17.28
511.579	17.27
511.778	17.36
511.978	17.78
512.177	17.76
512.377	18.4
512.576	18.4
512.776	18.66
512.975	19.52
513.175	19.46
513.374	18.94
513.573	19.57
513.773	19.87
513.972	19.73
514.172	19.91
514.371	19.54
514.57	18.93
514.77	18.8
514.969	18.69
515.168	18.32
515.367	18.02
515.567	18.37
515.766	18.71
515.965	18.76
516.164	18.97
516.364	18.92
516.563	19.41
516.762	19.9
516.961	20.17
517.16	20.28
517.359	20.55
517.559	20.91
517.758	21.11
517.957	20.97
518.156	21.14
518.355	21.28
518.554	21.47
518.753	21.35
518.952	21.59
519.151	21.57
519.35	21.46
519.549	21.03
519.748	21.27
519.947	21.11
520.146	21.35
520.345	21.59
520.544	21.66
520.743	21.6
520.942	21.69
521.141	21.84
521.339	21.71
521.538	22.21
521.737	22.02
521.936	21.91
522.135	21.76
522.333	21.87
522.532	21.53
522.731	21.54
522.93	21.27
523.129	21.46
523.327	21.2
523.526	21.34
523.725	21.04
523.923	21.11
524.122	21.09
524.321	21.03
524.519	20.95
524.718	20.73
524.917	20.22
525.115	20.1
525.314	19.64
525.512	19.9
525.711	19.46
525.909	19.78
526.108	19.86
526.306	19.76
526.505	20.1
526.703	19.88
526.902	20.17
527.1	20.52
527.299	20.65
527.497	20.77
527.696	20.54
527.894	20.72
528.092	20.78
528.291	20.93
528.489	20.98
528.688	20.82
528.886	20.98
529.084	20.85
529.283	20.76
529.481	20.77
529.679	21.02
529.877	21.13
530.076	21.18
530.274	20.7
530.472	20.76
530.67	20.67
530.869	20.67
531.067	21.01
531.265	21.17
531.463	21
531.661	20.85
531.859	20.69
532.057	20.78
532.255	20.81
532.454	21.01
532.652	20.86
532.85	20.77
533.048	20.62
533.246	20.34
533.444	20.22
533.642	20.26
533.84	20.52
534.038	20.55
534.236	20.65
534.434	20.58
534.632	20.44
534.83	20.4
535.027	20.99
535.225	21.2
535.423	20.91
535.621	21.11
535.819	21.31
536.017	21.24
536.215	21.3
536.412	21.41
536.61	21.48
536.808	21.39
537.006	21.75
537.203	21.61
537.401	21.58
537.599	21.59
537.797	21.24
537.994	21.24
538.192	21.04
538.39	21.02
538.587	20.68
538.785	20.82
538.983	21.23
539.18	21.29
539.378	21.17
539.575	21.63
539.773	21.79
539.97	22.05
540.168	21.96
540.366	22.19
540.563	22.02
540.761	22.28
540.958	22.41
541.155	22.24
541.353	22.19
541.55	22.04
541.748	21.59
541.945	21.76
542.143	21.37
542.34	21.49
542.537	21.48
542.735	21.62
542.932	21.19
543.129	21.06
543.327	21.28
543.524	21.27
543.721	21.5
543.919	21.99
544.116	22.1
544.313	22.43
544.51	22.33
544.708	22.53
544.905	22.43
545.102	22.72
545.299	22.5
545.496	22.39
545.693	22.39
545.891	22.82
546.088	22.3
546.285	22.47
546.482	22.62
546.679	22.81
546.876	22.25
547.073	22.97
547.27	22.95
547.467	23.55
547.664	23.6
547.861	23.34
548.058	23.17
548.255	23.66
548.452	22.96
548.649	22.9
548.846	22.88
549.043	23.23
549.24	22.42
549.437	21.99
549.633	21.62
549.83	21.25
550.027	21.61
550.224	21.26
550.421	21.31
550.618	21.32
550.814	21.06
551.011	20.98
551.208	21.44
551.405	22.03
551.601	22.25
551.798	22.55
551.995	22.79
552.191	22.76
552.388	23.31
552.585	22.93
552.781	23.7
552.978	24
553.175	24.19
553.371	24.2
553.568	24.46
553.764	24.72
553.961	24.72
554.157	25.12
554.354	25.26
554.55	24.77
554.747	25.8
554.943	25.64
555.14	26.22
555.336	25.53
555.533	25.06
555.729	24.43
555.926	25.17
556.122	25.19
556.318	24.47
556.515	24.95
556.711	24.62
556.907	23.47
557.104	23.72
557.3	23.46
557.496	24.42
557.693	24.93
557.889	25.02
558.085	24.52
558.281	24.22
558.478	24.81
558.674	24.39
558.87	24.76
559.066	25.06
559.262	25.05
559.459	24.81
559.655	23.97
559.851	23.82
560.047	23.84
560.243	24.36
560.439	24.82
560.635	24.95
560.831	24.7
561.027	24.75
561.223	25.33
561.419	24.84
561.615	25.17
561.811	26.15
562.007	26.6
562.203	27.32
562.399	26.98
562.595	26.95
562.791	27.3
562.987	27.79
563.183	27.85
563.379	27.87
563.575	28.19
563.771	28.07
563.966	28.56
564.162	28.76
564.358	28.93
564.554	28.49
564.75	28.57
564.945	28.48
565.141	28.18
565.337	28.41
565.533	28.47
565.728	28.45
565.924	28.64
566.12	28.99
566.315	29.14
566.511	28.48
566.707	28.92
566.902	29.42
567.098	29.8
567.293	30.51
567.489	30.76
567.684	30.7
567.88	31.28
568.076	31.37
568.271	30.56
568.467	31.03
568.662	31.24
568.858	32.04
569.053	31.82
569.248	31.6
569.444	31.38
569.639	31.55
569.835	31.23
570.03	30.52
570.225	30.9
570.421	30.86
570.616	30.12
570.812	30.57
571.007	30.49
571.202	30.44
571.397	30.58
571.593	30.92
571.788	30.76
571.983	31.07
572.178	31.82
572.374	31.85
572.569	32.1
572.764	32.18
572.959	32.05
573.154	32.34
573.35	32.4
573.545	32.51
573.74	32.54
573.935	32.53
574.13	32.93
574.325	33.14
574.52	33.43
574.715	33.47
574.91	33.84
575.105	34.02
575.3	33.77
575.495	33.52
575.69	33.54
575.885	33.94
576.08	33.99
576.275	34.19
576.47	34.59
576.665	33.86
576.86	34.03
577.055	34.44
577.25	34.81
577.444	34.9
577.639	35.53
577.834	35.93
578.029	35.4
578.224	35.56
578.418	35.58
578.613	35.14
578.808	35.18
579.003	35.55
579.197	34.48
579.392	33.73
579.587	33.5
579.781	34.34
579.976	33.87
580.171	33.93
580.365	34.69
580.56	34.41
580.755	34.08
580.949	34.86
581.144	35.55
581.338	35.64
581.533	36.53
581.727	36.61
581.922	35.95
582.116	36.26
582.311	36.66
582.505	36.05
582.7	35.93
582.894	36.09
583.089	35.68
583.283	34.66
583.478	35.32
583.672	35.12
583.866	34.96
584.061	34.67
584.255	35.16
584.449	35.02
584.644	35.5
584.838	36.14
585.032	36.11
585.226	36.62
585.421	36.55
585.615	36.65
585.809	36.38
586.003	36.63
586.198	36.76
586.392	36.86
586.586	36.83
586.78	36.46
586.974	36.65
587.168	36.63
587.363	36.87
587.557	38.07
587.751	38.72
587.945	39.27
588.139	39.23
588.333	39.36
588.527	38.86
588.721	39.26
588.915	39.87
589.109	39.75
589.303	40.33
589.497	39.28
589.691	38
589.885	37.53
590.079	37.54
590.273	38
590.466	36.99
590.66	37.45
590.854	37.53
591.048	36.89
591.242	36.64
591.436	36.33
591.629	37.35
591.823	38.07
592.017	38.27
592.211	38.29
592.404	38.01
592.598	38.87
592.792	39.42
592.986	39.66
593.179	39.02
593.373	39.77
593.567	39.61
593.76	39.66
593.954	39.84
594.147	39.47
594.341	39.45
594.535	39.3
594.728	39.77
594.922	39.17
595.115	39.47
595.309	40.44
595.502	40.66
595.696	40.93
595.889	41.06
596.083	40.87
596.276	40.28
596.47	40.63
596.663	41.3
596.856	41.17
597.05	40.98
597.243	40.73
597.437	41.43
597.63	41.3
597.823	40.93
598.017	40.44
598.21	40.62
598.403	42.2
598.596	41.89
598.79	41.21
598.983	41.31
599.176	41.65
599.369	40.95
599.563	39.83
599.756	39.2
599.949	39.66
600.142	39.97
600.335	40.28
600.528	39.71
600.722	39.59
600.915	39.76
601.108	39.56
601.301	39.53
601.494	39.96
601.687	40.49
601.88	40.52
602.073	40.78
602.266	40.96
602.459	40.75
602.652	40.3
602.845	40.02
603.038	40.12
603.231	40.39
603.424	40.32
603.617	40.33
603.809	40.37
604.002	40.24
604.195	39.88
604.388	39.53
604.581	39.41
604.774	40.49
604.966	40.39
605.159	40.26
605.352	40.03
605.545	40.21
605.737	40.87
605.93	40.31
606.123	40.63
606.316	41.61
606.508	41.67
606.701	41.6
606.894	40.78
607.086	41.58
607.279	41.71
607.471	41.72
607.664	41.99
607.857	41.57
608.049	41.5
608.242	41.75
608.434	41.03
608.627	41.31
608.819	41.31
609.012	41.64
609.204	41.8
609.397	41.84
609.589	41.61
609.782	40.97
609.974	40.92
610.166	40.84
610.359	40.66
610.551	40.15
610.743	40.36
610.936	40.66
611.128	39.63
611.32	38.75
611.513	39.29
611.705	39.9
611.897	39.99
612.09	40.34
612.282	40.93
612.474	41.1
612.666	42.05
612.858	41
613.051	40.39
613.243	40.8
613.435	40.57
613.627	41.38
613.819	41.29
614.011	42.02
614.203	41.68
614.395	40.87
614.588	40.72
614.78	40.33
614.972	40.6
615.164	42.14
615.356	42.34
615.548	42.57
615.74	41.93
615.932	41.68
616.124	41.58
616.315	41.54
616.507	41.54
616.699	40.91
616.891	41.02
617.083	41.23
617.275	40.06
617.467	40.19
617.659	40.94
617.85	39.78
618.042	39.48
618.234	38.73
618.426	37.71
618.618	38.23
618.809	39
619.001	39.69
619.193	39.43
619.384	40.7
619.576	40.11
619.768	39.42
619.959	39.59
620.151	40.54
620.343	40.66
620.534	41.78
620.726	42.09
620.917	41.58
621.109	41.11
621.301	41.55
621.492	40.29
621.684	40.37
621.875	41.23
622.067	42.39
622.258	42.02
622.45	42.07
622.641	42.29
622.832	42.07
623.024	43.01
623.215	43.26
623.407	43.67
623.598	43.85
623.789	43.84
623.981	43.46
624.172	42.3
624.363	43.01
624.555	42.98
624.746	42.8
624.937	42.92
625.129	41.4
625.32	40.84
625.511	40.43
625.702	40.24
625.893	40.42
626.085	40.26
626.276	40.66
626.467	40.05
626.658	39.75
626.849	39.5
627.04	39.28
627.231	40.49
627.422	40.63
627.614	40.08
627.805	40.7
627.996	41.09
628.187	41.28
628.378	41.11
628.569	40.75
628.76	40.1
628.951	39.61
629.142	39.7
629.332	40.04
629.523	40.2
629.714	40.47
629.905	39.95
630.096	39.54
630.287	39.06
630.478	38.99
630.669	39.27
630.859	40.71
631.05	41.38
631.241	40.62
631.432	39.6
631.623	39.73
631.813	40.92
632.004	41.24
632.195	41.34
632.385	41.5
632.576	41.56
632.767	41.37
632.957	41.28
633.148	41.46
633.339	41.93
633.529	41.6
633.72	40.87
633.91	40.39
634.101	40.27
634.292	40.3
634.482	40.05
634.673	41.07
634.863	40.45
635.054	40.16
635.244	39.69
635.435	39.75
635.625	40.55
635.815	41.22
636.006	40.95
636.196	40.36
636.387	41.52
636.577	41.75
636.767	41.29
636.958	42.3
637.148	41.63
637.338	42.96
637.529	43.16
637.719	43.57
637.909	43.54
638.099	43.98
638.29	44.01
638.48	43.16
638.67	43.02
638.86	42.63
639.05	42.38
639.241	43.86
639.431	42.9
639.621	42.67
639.811	41.99
640.001	42.81
640.191	42.91
640.381	43.11
640.571	42.36
640.761	41.51
640.951	41.34
641.141	40.52
641.331	40.27
641.521	39.02
641.711	38.83
641.901	38.07
642.091	37.3
642.281	37.74
642.471	37.53
642.661	38.48
642.851	39.8
643.041	39.63
643.231	39.26
643.42	38.61
643.61	39.9
643.8	40.97
643.99	41.9
644.18	41.62
644.369	40.48
644.559	39.86
644.749	38.64
644.939	38.27
645.128	39.01
645.318	40.51
645.508	39.83
645.697	38.93
645.887	37.78
646.076	37.46
646.266	38
646.456	37.27
646.645	37.38
646.835	37.01
647.024	37.06
647.214	36.35
647.403	35.21
647.593	37.66
647.782	37.82
647.972	38.13
648.161	38.34
648.351	37.63
648.54	38.58
648.73	38.99
648.919	40.4
649.108	41.2
649.298	40.93
649.487	40.89
649.677	39.15
649.866	39.55
650.055	40.76
650.244	39.94
650.434	40.04
650.623	40.08
650.812	40.59
651.002	40.96
651.191	40.43
651.38	41.22
651.569	42.81
651.758	42.95
651.947	42.65
652.137	42.61
652.326	43.66
652.515	43.64
652.704	44.21
652.893	43.99
653.082	42.97
653.271	42.02
653.46	41.16
653.649	39.79
653.838	38.88
654.027	38.45
654.216	37.5
654.405	37.26
654.594	37.01
654.783	35.51
654.972	35.72
655.161	34.59
655.35	34.85
655.539	35.37
655.728	35.83
655.916	36.46
656.105	36.54
656.294	35.74
656.483	35.16
656.672	34.73
656.86	34.58
657.049	35.48
657.238	36.45
657.427	36.75
657.615	37.38
657.804	36.91
657.993	36.92
658.181	36.47
658.37	36.59
658.559	37.07
658.747	37.93
658.936	39.29
659.125	39.62
659.313	39.76
659.502	39.95
659.69	38.83
659.879	39.03
660.067	39.02
660.256	39.71
660.444	40.73
660.633	40.55
660.821	40.21
661.01	39.45
661.198	38.61
661.387	39.64
661.575	39.04
661.763	39.69
661.952	40.21
662.14	41.03
662.328	40.84
662.517	40.35
662.705	40.25
662.893	40.32
663.082	41.19
663.27	41.22
663.458	41.28
663.646	41.35
663.834	41.97
664.023	41.12
664.211	39.99
664.399	40.94
664.587	40.73
664.775	39.49
664.963	39.08
665.152	37.88
665.34	36.83
665.528	35.45
665.716	37.07
665.904	35.9
666.092	35.37
666.28	36.53
666.468	35.46
666.656	36.59
666.844	38.7
667.032	39.3
667.22	39.02
667.408	39.11
667.596	39.84
667.784	39.2
667.971	39.19
668.159	41.26
668.347	40.61
668.535	41.24
668.723	39.19
668.911	38.97
669.098	38.59
669.286	39.74
669.474	39.91
669.662	39.74
669.849	40.19
670.037	40.87
670.225	39.15
670.413	39.77
670.6	40.77
670.788	41.86
670.976	41.67
671.163	41.81
671.351	41.15
671.538	40.62
671.726	39.05
671.913	36.87
672.101	36.66
672.289	36.86
672.476	36.94
672.664	36.88
672.851	38.31
673.039	38.64
673.226	38.68
673.413	37.84
673.601	38.78
673.788	42.14
673.976	44.32
674.163	43.26
674.35	44.15
674.538	44.01
674.725	42.98
674.912	40.71
675.1	39.07
675.287	39.03
675.474	39.06
675.662	39.45
675.849	37.35
676.036	35.66
676.223	37.11
676.411	36.63
676.598	36.55
676.785	36.84
676.972	37.76
677.159	38.79
677.346	38.08
677.533	39.71
677.721	39.89
677.908	39.8
678.095	39.88
678.282	39.53
678.469	37.95
678.656	38.35
678.843	37.33
679.03	36.76
679.217	36.76
679.404	37.14
679.591	36.47
679.778	36.62
679.964	36.42
680.151	36.2
680.338	36.39
680.525	38.4
680.712	37.8
680.899	38.89
681.086	38.74
681.272	38.56
681.459	38.93
681.646	38.59
681.833	37.15
682.02	38.11
682.206	39.3
682.393	39.25
682.58	38.41
682.766	39.18
682.953	40.08
683.14	40.54
683.326	40.61
683.513	41.1
683.7	40.98
683.886	40.65
684.073	39.32
684.259	38.69
684.446	40.24
684.632	41.16
684.819	39.52
685.005	39.05
685.192	37.19
685.378	36.27
685.565	35.49
685.751	36.08
685.938	36.9
686.124	37.03
686.31	35.77
686.497	34.67
686.683	33.89
686.87	34.27
687.056	33.62
687.242	35.39
687.429	35.94
687.615	35.95
687.801	34.88
687.987	34.52
688.174	35.5
688.36	36.16
688.546	35.52
688.732	35.71
688.918	36.58
689.105	37.21
689.291	37.4
689.477	37.93
689.663	37.79
689.849	38.06
690.035	38.09
690.221	38.09
690.407	39.79
690.593	39.16
690.779	39
690.965	38.33
691.151	37.8
691.337	38.52
691.523	38.81
691.709	39.04
691.895	39.96
692.081	40.82
692.267	41.72
692.453	39.35
692.639	38.88
692.825	39.44
693.011	39.88
693.196	39.43
693.382	39.28
693.568	38.1
693.754	39.35
693.94	40.16
694.125	40.41
694.311	39.26
694.497	41.88
694.682	43.04
694.868	41.5
695.054	38.92
695.239	38.21
695.425	39.92
695.611	42.06
695.796	40.96
695.982	38.94
696.168	39.53
696.353	38.36
696.539	36.11
696.724	35.15
696.91	36.13
697.095	36.77
697.281	38.44
697.466	37.31
697.652	36.77
697.837	36.81
698.023	37.51
698.208	36.01
698.393	37.22
698.579	36.95
698.764	38.12
698.949	37.54
699.135	38.45
699.32	37.24
699.505	37.72
699.691	36.49
699.876	35.61
700.061	33.58
700.246	33.98
700.432	33.3
700.617	35.25
700.802	33.65
700.987	34.51
701.172	33.54
701.358	35.33
701.543	35.89
701.728	38.4
701.913	38.96
702.098	40.89
702.283	39.72
702.468	37.68
702.653	37.97
702.838	35.94
703.023	35.64
703.208	35.8
703.393	34.49
703.578	33.78
703.763	32.7
703.948	31.47
704.133	31.87
704.318	35.39
704.503	37.69
704.688	35.95
704.873	39.58
705.057	40.31
705.242	40.13
705.427	39.68
705.612	39.64
705.797	39.08
705.981	42.23
706.166	42.64
706.351	40.08
706.536	40.96
706.72	41.24
706.905	39.85
707.09	38.77
707.274	39.6
707.459	40.98
707.644	39.6
707.828	39.64
708.013	37.27
708.197	37.36
708.382	37.62
708.567	37.19
708.751	38.68
708.936	40.07
709.12	40.74
709.305	40.37
709.489	40.1
709.673	40.26
709.858	40.69
710.042	41.2
710.227	40.53
710.411	40.47
710.596	38.08
710.78	37.94
710.964	36.42
711.149	37.16
711.333	38.31
711.517	37.89
711.702	36.99
711.886	35.05
712.07	35.19
712.254	37.1
712.438	35
712.623	37.34
712.807	37.66
712.991	38.33
713.175	37.49
713.359	36.77
713.544	36.23
713.728	36.85
713.912	37.97
714.096	38.38
714.28	36.86
714.464	38.1
714.648	39.2
714.832	37.87
715.016	39.28
715.2	39.78
715.384	40.03
715.568	40.24
715.752	41.15
715.936	39.41
716.12	40.16
716.304	41.14
716.488	42.02
716.671	41.53
716.855	42.59
717.039	43.69
717.223	41.79
717.407	41.55
717.59	42.15
717.774	41.8
717.958	44.5
718.142	42.83
718.325	42.12
718.509	42.74
718.693	41.87
718.877	40.04
719.06	37.21
719.244	39.57
719.428	36.18
719.611	35.28
719.795	34.99
719.978	32.92
720.162	33.85
720.345	35.19
720.529	33.94
720.713	31.37
720.896	29.94
721.08	31.05
721.263	28.94
721.446	29.94
721.63	30.62
721.813	29.31
721.997	29.57
722.18	28.54
722.364	27.42
722.547	25.75
722.73	29.08
722.914	32.25
723.097	31.12
723.28	30.42
723.464	32.19
723.647	31.57
723.83	31.79
724.013	33.8
724.197	34.39
724.38	34.67
724.563	36.13
724.746	35.67
724.929	36.76
725.112	37.05
725.296	38.15
725.479	39.39
725.662	39.28
725.845	39.06
726.028	39.66
726.211	40.13
726.394	41.68
726.577	42.8
726.76	43.24
726.943	41.75
727.126	40.58
727.309	41.63
727.492	41.84
727.675	39.28
727.858	40.07
728.041	39.37
728.224	38.8
728.407	36.46
728.589	37.69
728.772	36.3
728.955	36.51
729.138	36.22
729.321	35.89
729.503	34.65
729.686	38.34
729.869	40.65
730.052	37.54
730.234	37.6
730.417	39.11
730.6	37.26
730.782	39.44
730.965	39.27
731.148	40.3
731.33	42.57
731.513	42.2
731.695	41.47
731.878	39.84
732.061	41.81
732.243	41.89
732.426	41.25
732.608	41.31
732.791	38.64
732.973	37.23
733.156	39.14
733.338	37.07
733.52	36.64
733.703	37.34
733.885	39.59
734.068	38.15
734.25	39.62
734.432	41.91
734.615	42.87
734.797	45.35
734.979	45.88
735.162	43.55
735.344	44.3
735.526	46.46
735.708	44.4
735.891	43.28
736.073	44.5
736.255	40.89
736.437	38.34
736.619	38.76
736.802	37.75
736.984	37.96
737.166	38.62
737.348	36.69
737.53	33.53
737.712	33.54
737.894	32.75
738.076	35.06
738.258	40.11
738.44	39.86
738.622	38.94
738.804	40.96
738.986	40.71
739.168	40.19
739.35	43.3
739.532	46.2
739.714	46.18
739.896	46.56
740.078	42.8
740.259	41.75
740.441	41.39
740.623	39.97
740.805	36.01
740.987	38.07
741.168	37.11
741.35	33.33
741.532	32.43
741.714	33.96
741.895	31.01
742.077	35.78
742.259	33.38
742.44	33.21
742.622	34.61
742.804	35.88
742.985	36.28
743.167	36.92
743.348	40.79
743.53	39
743.711	41.88
743.893	46.59
744.075	43.2
744.256	44.06
744.438	45.55
744.619	45.12
744.8	44.58
744.982	43.28
745.163	43.82
745.345	40.34
745.526	40.48
745.707	37.05
745.889	34.54
746.07	34.64
746.252	33.49
746.433	35.4
746.614	38.34
746.795	38.84
746.977	40.06
747.158	40.89
747.339	41.78
747.52	43.58
747.702	45.64
747.883	45.8
748.064	47.12
748.245	50.75
748.426	44.69
748.607	38.24
748.788	37.74
748.97	37.21
749.151	37.33
749.332	35.26
749.513	32.86
749.694	33.14
749.875	37.04
750.056	33.89
750.237	32.28
750.418	34.53
750.599	37.96
750.78	41.22
750.96	42.1
751.141	42.55
751.322	42.62
751.503	47.84
751.684	43.8
751.865	39.42
752.046	42.96
752.226	43.71
752.407	45.1
752.588	42.78
752.769	36.08
752.949	35.64
753.13	31.44
753.311	37.12
753.492	30.1
753.672	27.94
753.853	29.35
754.034	29.3
754.214	30.84
754.395	31.66
754.575	38.44
754.756	43.28
754.937	45.87
755.117	46.7
755.298	48.53
755.478	50.22
755.659	51.77
755.839	50.65
756.02	51.23
756.2	48.99
756.381	46.15
756.561	41.49
756.741	39.14
756.922	36.2
757.102	39.26
757.283	34.17
757.463	34.48
757.643	37.86
757.823	38.67
758.004	37.57
758.184	37.05
758.364	40.2
758.545	41.38
758.725	41.81
758.905	43.93
759.085	42.5
759.265	41.21
759.446	43.03
759.626	42.68
759.806	40.2
759.986	38.28
760.166	35.87
760.346	32.75
760.526	31.44
760.706	30.31
760.886	26.31
761.066	26.93
761.246	28.97
761.426	28.04
761.606	28.02
761.786	31.31
761.966	31.83
762.146	33.68
762.326	34.78
762.506	35.16
762.686	37.09
762.866	38.28
763.046	35.22
763.225	35.52
763.405	35.22
763.585	36.52
763.765	34.86
763.945	36.34
764.124	41.45
764.304	41.92
764.484	44.03
764.664	40.89
764.843	42.59
765.023	47.87
765.203	52.14
765.382	51.92
765.562	50.01
765.741	52.56
765.921	51.99
766.101	46.87
766.28	44.74
766.46	40.46
766.639	43.71
766.819	40.9
766.998	39.53
767.178	34
767.357	38.71
767.537	37
767.716	33.74
767.896	33.03
768.075	32.55
768.254	32.85
768.434	33.89
768.613	34.1
768.792	35.17
768.972	35.08
769.151	32.48
769.33	27.81
769.51	33.61
769.689	38.64
769.868	37.25
770.047	34.42
770.226	32.89
770.406	35.6
770.585	39.17
770.764	36.83
770.943	37.26
771.122	42.05
771.301	44.85
771.48	46.65
771.66	48.24
771.839	52.14
772.018	54.34
772.197	54.42
772.376	50.73
772.555	47.86
772.734	46
772.913	48.4
773.092	45.72
773.271	48.5
773.449	45.2
773.628	42.84
773.807	42.66
773.986	41.61
774.165	42.12
774.344	44.93
774.523	43.86
774.701	49.09
774.88	43.91
775.059	45.81
775.238	43.51
775.417	45.24
775.595	40.71
775.774	37.71
775.953	36.35
776.131	38.62
776.31	40.6
776.489	42.14
776.667	38.4
776.846	40.38
777.025	43.99
777.203	41.65
777.382	37.32
777.56	42.36
777.739	44.73
777.917	48.17
778.096	46.61
778.274	45.67
778.453	45.13
778.631	54.09
778.81	55.69
778.988	56.34
779.166	59.66
779.345	64.6
779.523	65.13
779.702	68.45
779.88	71.65
780.058	72.52
780.237	69.27
780.415	70.29
780.593	60.58
780.771	59.66
780.95	54.19
781.128	53.87
781.306	49.29
781.484	48.61
781.662	43.94
781.841	44.1
782.019	50.31
782.197	50.85
782.375	47.44
782.553	50.73
782.731	50.72
782.909	52.07
783.087	47.98
783.265	50.2
783.443	46.58
783.621	49.83
783.799	55.42
783.977	48.61
784.155	49.36
784.333	54.56
784.511	53.56
784.689	57.09
784.867	52.99
785.045	60.7
785.223	66.47
785.4	63.96
785.578	71.7
785.756	61.21
785.934	59.3
786.112	58.49
786.289	58.09
786.467	57.64
786.645	55.58
786.823	58.62
787	58.69
787.178	51
787.356	51.27
787.533	46.67
787.711	48.08
787.889	45.63
788.066	45.57
788.244	40.9
788.421	43.44
788.599	41.22
788.776	39.47
788.954	33.87
789.131	37.92
789.309	38.43
789.486	35.23
789.664	38.22
789.841	38.97
790.019	40.61
790.196	44.01
790.373	38.9
790.551	39.57
790.728	38.3
790.906	39.01
791.083	34.14
791.26	35.33
791.437	35.31
791.615	32.97
791.792	36.83
791.969	32.75
792.146	25.12
792.324	26.9
792.501	23
792.678	23.19
792.855	23.8
793.032	30.08
793.209	31.26
793.387	36.06
793.564	35.46
793.741	36.88
793.918	32.13
794.095	34.09
794.272	31.06
794.449	34.76
794.626	33.2
794.803	27.2
794.98	28.1
795.157	23.14
795.334	19.98
795.511	16.16
795.688	9.92
795.864	12.49
796.041	18.92
796.218	16.49
796.395	7.85
796.572	11.02
796.749	21.76
796.925	21.67
797.102	16.37
797.279	20.68
797.456	22.48
797.632	27.04
797.809	29.12
797.986	17.71
798.162	20.89
798.339	18.96
798.516	15.09
798.692	11.9
798.869	3.65
799.046	14.04
799.222	9.52
799.399	10.95
799.575	10.81
799.752	6.94
799.928	33.29
800.105	34.76
800.281	53.72
800.458	55.92
800.634	46.28
800.811	50.5
800.987	51.14
801.163	43.01
801.34	47.54
801.516	44.26
801.692	54.57
801.869	39.51
802.045	40.93
802.221	35.56
802.398	24.49
802.574	27.01
802.75	33.22
802.926	36.2
803.103	39.47
803.279	39.59
803.455	39.1
803.631	39.52
803.807	41.67
803.983	43.71
804.16	37.79
804.336	42.54
804.512	45.99
804.688	40.95
804.864	45.09
805.04	39.36
805.216	30.61
805.392	28.11
805.568	14.22
805.744	16.14
805.92	2.12
806.096	18.17
806.272	29.09
806.448	30.01
806.623	25.11
806.799	10.07
806.975	19.67
807.151	17.23
807.327	21.31
807.503	28.04
807.678	28.67
807.854	35.59
808.03	26.23
808.206	24.17
808.381	24.91
808.557	20.81
808.733	28.28
808.908	18.89
809.084	25.54
809.26	25.48
809.435	26.25
809.611	28.3
809.787	29.93
809.962	22.57
810.138	18.65
810.313	15.25
810.489	14
810.664	15.99
810.84	14.51
811.015	27.09
811.191	31.54
811.366	37.12
811.542	37.69
811.717	34.96
811.892	42.97
812.068	46.78
812.243	56.21
812.419	63.04
812.594	59.12
812.769	69.8
812.944	56.14
813.12	45.83
813.295	38.92
813.47	30.13
813.645	26.63
813.821	38.88
813.996	44.16
814.171	31.09
814.346	40.7
814.521	41.37
814.697	36.03
814.872	45.39
815.047	39.79
815.222	36.05
815.397	32.77
815.572	37.76
815.747	25.69
815.922	18.54
816.097	13.6
816.272	20.46
816.447	25.87
816.622	24.81
816.797	11.33
816.972	22.65
817.147	25.54
817.322	40.96
817.496	43.52
817.671	46.08
817.846	48.86
818.021	53.19
818.196	48.61
818.371	44.73
818.545	50.15
818.72	52.23
818.895	52.3
819.069	60.13
819.244	54.9
819.419	54.29
819.594	48.29
819.768	44.93
819.943	44.19
820.117	42.78
820.292	40.66
820.467	37.23
820.641	38.76
820.816	37.17
820.99	34.86
821.165	33.1
821.339	34.15
821.514	35.42
821.688	35.06
821.863	34.8
822.037	34.89
822.212	35.99
822.386	38.23
822.56	36.84
822.735	38.37
822.909	39.3
823.084	44.24
823.258	42
823.432	41.73
823.606	41.19
823.781	42.16
823.955	42.39
824.129	42.12
824.303	37.2
824.478	36.1
824.652	34.71
824.826	38.23
825	30.83
825.174	27.97
825.348	27.73
825.523	26.32
825.697	27.54
825.871	27.86
826.045	25.5
826.219	29.44
826.393	31.31
826.567	33.43
826.741	32.71
826.915	37.44
827.089	43.95
827.263	44.25
827.437	49.46
827.611	50.83
827.784	47.49
827.958	53.28
828.132	49.32
828.306	47.26
828.48	44.33
828.654	45.04
828.827	40.06
829.001	35.9
829.175	38.86
829.349	38.6
829.522	27.93
829.696	31.72
829.87	29.82
830.044	27.81
830.217	40.65
830.391	46.41
830.565	41.58
830.738	43.67
830.912	48.28
831.085	47.95
831.259	42.3
831.432	47.23
831.606	53.37
831.779	52.97
831.953	49.05
832.126	41.4
832.3	40.75
832.473	41
832.647	41.31
832.82	40.99
832.994	43.9
833.167	42.65
833.34	46.77
833.514	42.83
833.687	47.41
833.86	51.5
834.034	56.58
834.207	55.48
834.38	52.05
834.553	52.46
834.727	46.39
834.9	38.84
835.073	43.44
835.246	33.09
835.419	40.02
835.593	32.01
835.766	28.45
835.939	13.32
836.112	17.52
836.285	10.04
836.458	8.89
836.631	15.45
836.804	16.62
836.977	16.21
837.15	19.65
837.323	8.71
837.496	0.84
837.669	-11.13
837.842	7.39
838.015	17.39
838.188	28.44
838.361	7.42
838.533	4.55
838.706	0.56
838.879	14.69
839.052	26.12
839.225	39.62
839.398	29.47
839.57	39.41
839.743	36.46
839.916	38.82
840.088	31.85
840.261	46.18
840.434	42.91
840.607	46.57
840.779	20.75
840.952	0.85
841.124	4.13
841.297	14.19
841.47	8.11
841.642	-3.67
841.815	-36.91
841.987	-41.51
842.16	-87.01
842.332	-39.21
842.505	-22.06
842.677	0.5
842.85	8.96
843.022	-7.22
843.194	-30.43
843.367	-32.06
843.539	-55.92
843.712	-58.51
843.884	-23.62
844.056	-12.26
844.229	-41.14
844.401	-5.62
844.573	4.13
844.745	-7.83
844.918	-71.43
845.09	-111.03
845.262	-74.64
845.434	-67.73
845.606	-18.83
845.779	-38.85
845.951	1.41
846.123	25.48
846.295	-32.76
846.467	-9.65
846.639	-18.03
846.811	36.33
846.983	68.9
847.155	89.79
847.327	87.89
847.499	102.33
847.671	95.14
847.843	119.37
848.015	102.7
848.187	152.42
848.359	128.87
848.531	126.33
848.703	101.65
848.875	101.19
849.047	92.11
849.218	93.66
849.39	99.74
849.562	101.38
849.734	82.02
849.905	77.22
850.077	64.35
850.249	70.52
850.421	64.1
850.592	74.72
850.764	60.07
850.936	51.03
851.107	51.9
851.279	55.25
851.451	49.86
851.622	41.39
851.794	61.22
851.965	57.65
852.137	70.34
852.308	64.89
852.48	70.98
852.651	77.82
852.823	107.16
852.994	88.95
853.166	95.66
853.337	97.04
853.509	67.2
853.68	34.57
853.851	10
854.023	-115.15
854.194	50.96
854.365	22.05
854.537	56.52
854.708	42.63
854.879	25.47
855.05	40.84
855.222	84.32
855.393	174.53
855.564	147.43
855.735	147.87
855.906	139.83
856.078	108.71
856.249	154.14
856.42	94.56
856.591	89.07
856.762	101.69
856.933	90.34
857.104	68.84
857.275	66.67
857.446	75.58
857.617	65.6
857.788	53.74
857.959	56.27
858.13	55.96
858.301	85.66
858.472	118.32
858.643	83.22
858.814	69.87
858.985	94.76
859.155	87.36
859.326	83.37
859.497	95.93
859.668	101.99
859.839	112.38
860.009	122.11
860.18	124.79
860.351	99.74
860.522	121.51
860.692	165.66
860.863	125.74
861.034	128.45
861.204	205.71
861.375	385.71
861.546	1952.17
861.716	418.18
861.887	170.39
862.057	133.87
862.228	117.82
862.398	99.82
862.569	78.2
862.739	91.95
862.91	71.28
863.08	91.54
863.251	57.45
863.421	29.23
863.592	29.7
863.762	20.67
863.932	28.08
864.103	18.66
864.273	6.23
864.443	-6.4
864.614	22.52
864.784	65.68
864.954	55.13
865.125	83.76
865.295	97.37
865.465	113.73
865.635	147.06
865.805	90
865.976	99.05
866.146	86.63
866.316	98.47
866.486	132.03
866.656	210.36
866.826	313.89
866.996	126.84
867.166	168.39
867.336	270
867.506	340.13
867.676	409.74
867.846	806.49
868.016	1158.33
868.186	681.82
868.356	753.7
868.526	296.43
868.696	-236.54
868.866	-207.19
869.036	-1504.76
869.206	-324.68
869.376	185.81
869.545	58.93
869.715	62.1
869.885	51.76
870.055	50
870.224	17.59
870.394	23.86
870.564	13
870.734	16.12
870.903	22.8
871.073	26.29
871.243	17.42
871.412	15.77
871.582	2.6
871.751	11.05
871.921	-10.99
872.091	-6.75
872.26	0.42
872.43	26.87
872.599	-9.52
872.769	-9.71
872.938	-7.45
873.108	17.85
873.277	15.03
873.446	29.1
873.616	31.28
873.785	78.65
873.955	63.14
874.124	64.53
874.293	55.45
874.463	61.64
874.632	42.49
874.801	68.98
874.971	46.01
875.14	89.96
875.309	175.46
875.478	167.07
875.647	203.31
875.817	204.8
875.986	146.86
876.155	166.37
876.324	227.6
876.493	229.43
876.662	284.86
876.831	186.7
877	175.44
877.17	77.11
877.339	46.98
877.508	36.57
877.677	31.41
877.846	39.91
878.015	37.18
878.184	23.77
878.352	15.99
878.521	29.66
878.69	50.28
878.859	41.84
879.028	33.88
879.197	54.83
879.366	56.09
879.534	59.97
879.703	56.31
879.872	54.41
880.041	56.82
880.21	56.41
880.378	55.12
880.547	38.4
880.716	46.86
880.884	52.05
881.053	48.86
881.222	47.97
881.39	48.54
881.559	49.07
881.727	55.32
881.896	53.46
882.065	53.86
882.233	46.89
882.402	47.18
882.57	34.8
882.739	29.63
882.907	35.64
883.076	39.03
883.244	25.61
883.412	14.54
883.581	-18.28
883.749	-4.98
883.918	-6.61
884.086	9.31
884.254	15.59
884.423	19.09
884.591	-0.71
884.759	-9.41
884.927	-5.45
885.096	20.54
885.264	24.02
885.432	34.63
885.6	19.34
885.769	25.26
885.937	12.18
886.105	21.97
886.273	18.18
886.441	41.05
886.609	43.83
886.777	27.23
886.945	9.88
887.113	44.09
887.281	29.44
887.449	65.19
887.617	41.19
887.785	10.15
887.953	333.96
888.121	252.66
888.289	253.19
888.457	207.82
888.625	203.66
888.793	176.47
888.961	664.81
889.129	350
889.296	-4483.33
889.464	658.97
889.632	-1522.22
889.8	104.73
889.967	155.37
890.135	158.79
