Data from JASIL_2968_Reflection_1.txt Node
Date: Sat Nov 07 21:36:41 EST 2015
User: Geneva
Spectrometer: USB4E03002
Autoset integration time: false
Trigger mode: 4
Integration Time (sec): 1.000000E-1
Scans to average: 10
Electric dark correction enabled: true
Nonlinearity correction enabled: false
Boxcar width: 5
Stray light correction enabled: false
XAxis mode: Wavelengths
Stop averaging: false
Number of Pixels in Spectrum: 3648
>>>>>Begin Spectral Data<<<<<
177.575	594.38
177.794	213.26
178.014	409.26
178.233	-91.8
178.452	-27.02
178.672	18.48
178.891	58.59
179.11	107.02
179.33	126.95
179.549	104.17
179.768	263.17
179.987	272.1
180.207	126.85
180.426	-118
180.645	15.36
180.864	2.92
181.084	25.28
181.303	-9.53
181.522	-10.59
181.741	7.45
181.96	2.36
182.179	-5.01
182.398	-19.63
182.618	-14.5
182.837	-19.93
183.056	-115.13
183.275	-46.56
183.494	-55.84
183.713	-10.1
183.932	-19.71
184.151	-24.64
184.37	-13.2
184.589	0.12
184.808	59.52
185.027	36.23
185.246	25.18
185.465	46.48
185.684	38.24
185.903	25.59
186.122	24.1
186.341	16.3
186.56	22.58
186.779	24.36
186.998	30.1
187.216	6.53
187.435	8.52
187.654	27.54
187.873	24.72
188.092	-8.66
188.311	6.25
188.53	10.9
188.748	11.27
188.967	-51.85
189.186	-68.9
189.405	-75.44
189.623	-116.16
189.842	-62.56
190.061	-56.25
190.28	-78.5
190.498	-97.88
190.717	-103.42
190.936	-119.31
191.154	-201.32
191.373	-261.83
191.592	-447.97
191.81	2049.87
192.029	1266.72
192.248	2938.58
192.466	-606.6
192.685	-343.25
192.904	-159.58
193.122	-184.27
193.341	-323.29
193.559	-136.95
193.778	-69.47
193.996	-34.97
194.215	-24.19
194.433	-35.23
194.652	-29.35
194.87	-26.28
195.089	-2.16
195.307	-8.47
195.526	0.21
195.744	20.92
195.963	24.9
196.181	20.25
196.399	5.68
196.618	17.32
196.836	33.32
197.055	22.93
197.273	8.24
197.491	12.28
197.71	43.45
197.928	33.27
198.146	32.06
198.365	-17.32
198.583	5.14
198.801	29.32
199.019	-4.1
199.238	-6.37
199.456	-9.57
199.674	0.22
199.892	-7.37
200.111	-60.09
200.329	-18.97
200.547	-37.37
200.765	1.98
200.983	-36.66
201.202	-32.87
201.42	8.21
201.638	7.26
201.856	-0.51
202.074	10.14
202.292	10.16
202.51	12.72
202.728	-8.6
202.946	0.38
203.165	-16.32
203.383	-22.35
203.601	-24.16
203.819	-48.86
204.037	-12.32
204.255	-7.13
204.473	-19.44
204.691	-48.82
204.909	-62.98
205.127	-31.89
205.345	-9.76
205.562	-15.96
205.78	-15.86
205.998	-24.96
206.216	-16.82
206.434	-36.49
206.652	-37.66
206.87	-20.8
207.088	-11.78
207.306	-21.2
207.523	-22.88
207.741	-35.37
207.959	-28.78
208.177	-20.64
208.395	-40.12
208.612	-70.38
208.83	-51.52
209.048	-55.83
209.266	-95.21
209.483	-129.41
209.701	-109.42
209.919	-107
210.136	-96.93
210.354	-34.55
210.572	-16.37
210.79	1.21
211.007	2.66
211.225	1.95
211.442	12.46
211.66	22.05
211.878	20.26
212.095	17.14
212.313	21.58
212.53	22.43
212.748	10.68
212.966	12.67
213.183	15.3
213.401	14.89
213.618	19.96
213.836	13.46
214.053	1.04
214.271	2.55
214.488	-3.52
214.705	-21.16
214.923	-26.63
215.14	-16.52
215.358	-25.35
215.575	-20.68
215.793	-12.51
216.01	-32.03
216.227	-35.45
216.445	-42.75
216.662	-56.19
216.879	-50.04
217.097	-31.68
217.314	-18.5
217.531	-25.5
217.749	-24.99
217.966	-25.86
218.183	-14.73
218.4	-13.02
218.618	-13.66
218.835	1.72
219.052	8.21
219.269	8.7
219.487	10.16
219.704	7.99
219.921	12.1
220.138	14.02
220.355	8.64
220.572	4.21
220.79	2.39
221.007	5.78
221.224	6.76
221.441	4.63
221.658	-2.6
221.875	-4.24
222.092	-6.76
222.309	-7.36
222.526	-13.81
222.743	-14.6
222.96	-15.05
223.177	-5.9
223.394	-7.01
223.611	-8.64
223.828	-7.36
224.045	-1.45
224.262	-0.48
224.479	0.44
224.696	3.1
224.913	6.32
225.13	10.08
225.347	9.64
225.564	6.49
225.781	5.6
225.997	6.21
226.214	6.4
226.431	6.21
226.648	5.98
226.865	6.41
227.082	6.37
227.298	6.28
227.515	5.52
227.732	5.5
227.949	5.97
228.165	6.1
228.382	5.56
228.599	5.72
228.816	5.73
229.032	5.67
229.249	6.22
229.466	5.69
229.682	5.22
229.899	5.54
230.116	5.9
230.332	6.99
230.549	7.93
230.765	9.22
230.982	9.84
231.199	9.99
231.415	9.58
231.632	7.44
231.848	8.06
232.065	9.31
232.281	8.76
232.498	8.85
232.714	6.72
232.931	5.62
233.147	4.54
233.364	4.12
233.58	4.16
233.797	4.71
234.013	6.16
234.23	6.55
234.446	6.27
234.662	7.57
234.879	7.48
235.095	7.07
235.312	7.91
235.528	8.77
235.744	7.94
235.961	8.36
236.177	8.29
236.393	7.51
236.61	6.93
236.826	5.74
237.042	4.28
237.258	4.73
237.475	5.48
237.691	4.91
237.907	4.91
238.123	5.33
238.339	4.61
238.556	5.03
238.772	4.78
238.988	4.47
239.204	5.06
239.42	5.47
239.636	5.43
239.853	6.18
240.069	6.48
240.285	6.73
240.501	7.16
240.717	7.67
240.933	7.99
241.149	8.41
241.365	9.42
241.581	9.72
241.797	9.8
242.013	9.72
242.229	9.59
242.445	9.72
242.661	9.49
242.877	9.52
243.093	9.22
243.309	8.84
243.525	8.58
243.741	7.76
243.957	7.44
244.173	7.51
244.388	7.22
244.604	7.04
244.82	7.28
245.036	7.14
245.252	7.19
245.468	7.26
245.683	7.46
245.899	7.74
246.115	7.65
246.331	7.75
246.547	7.71
246.762	7.84
246.978	7.96
247.194	7.61
247.409	7.75
247.625	7.59
247.841	7.47
248.057	7.16
248.272	6.67
248.488	6.82
248.703	6.55
248.919	6.62
249.135	6.33
249.35	5.76
249.566	5.82
249.782	5.58
249.997	5.92
250.213	5.95
250.428	6.49
250.644	6.8
250.859	6.36
251.075	6.37
251.29	5.72
251.506	5.39
251.721	5.45
251.937	5.38
252.152	5.69
252.368	5.26
252.583	5.28
252.798	4.9
253.014	5.01
253.229	5.04
253.445	4.75
253.66	4.83
253.875	5.03
254.091	4.46
254.306	4.85
254.521	4.05
254.737	4.19
254.952	4.04
255.167	4.06
255.383	4.28
255.598	4.53
255.813	4.53
256.028	4.35
256.244	4.65
256.459	5
256.674	4.94
256.889	5.26
257.104	5.46
257.32	5.5
257.535	5.49
257.75	5.19
257.965	5.36
258.18	5.5
258.395	5.8
258.61	5.71
258.826	5.69
259.041	5.61
259.256	5.59
259.471	5.49
259.686	5.58
259.901	5.58
260.116	5.71
260.331	5.61
260.546	5.57
260.761	5.46
260.976	5.31
261.191	5.15
261.406	4.94
261.621	4.86
261.836	4.78
262.05	4.35
262.265	3.97
262.48	3.93
262.695	3.6
262.91	3.67
263.125	3.75
263.34	4.27
263.555	4.77
263.769	4.98
263.984	5.24
264.199	5.27
264.414	5.48
264.629	5.64
264.843	5.46
265.058	5.65
265.273	5.75
265.488	5.6
265.702	5.49
265.917	5.38
266.132	5.58
266.346	5.3
266.561	5.4
266.776	5.47
266.99	5.75
267.205	5.79
267.42	5.56
267.634	5.37
267.849	5.67
268.063	5.54
268.278	5.41
268.492	5.29
268.707	5.24
268.922	5.14
269.136	5.09
269.351	5.06
269.565	5
269.78	4.93
269.994	4.72
270.209	4.44
270.423	4.94
270.637	4.88
270.852	4.96
271.066	4.86
271.281	4.96
271.495	5.07
271.709	4.89
271.924	4.87
272.138	4.9
272.353	4.96
272.567	4.77
272.781	4.43
272.996	4.53
273.21	4.26
273.424	4.43
273.638	4.45
273.853	4.4
274.067	4.38
274.281	4.5
274.495	4.44
274.71	4.39
274.924	4.57
275.138	4.65
275.352	4.59
275.566	4.9
275.781	4.92
275.995	4.94
276.209	5.08
276.423	4.91
276.637	4.3
276.851	4.18
277.065	4.2
277.279	4.17
277.493	4.13
277.707	4.14
277.921	4.18
278.135	4.15
278.349	3.74
278.563	3.4
278.777	3.45
278.991	4.1
279.205	4.44
279.419	4.72
279.633	4.82
279.847	4.8
280.061	4.83
280.275	4.77
280.489	4.85
280.703	5.1
280.917	5.05
281.131	5.41
281.344	5.36
281.558	5.2
281.772	5.07
281.986	4.98
282.2	4.89
282.414	4.8
282.627	4.79
282.841	4.67
283.055	4.45
283.269	4.54
283.482	4.33
283.696	4.31
283.91	4.68
284.123	4.71
284.337	4.65
284.551	4.68
284.764	4.69
284.978	4.77
285.192	4.65
285.405	4.92
285.619	4.98
285.833	4.85
286.046	4.74
286.26	4.52
286.473	4.35
286.687	4.54
286.9	4.61
287.114	4.46
287.327	4.56
287.541	4.8
287.754	4.63
287.968	4.21
288.181	4.44
288.395	4.67
288.608	4.49
288.822	4.54
289.035	4.57
289.248	4.51
289.462	4.77
289.675	4.56
289.889	4.59
290.102	4.73
290.315	5.08
290.529	5.18
290.742	5.07
290.955	5.41
291.169	5.48
291.382	5.29
291.595	5.27
291.808	5.24
292.022	5.54
292.235	5.35
292.448	5.56
292.661	5.47
292.875	5.44
293.088	5.3
293.301	5.29
293.514	5.21
293.727	5.19
293.94	5.33
294.153	5.45
294.367	5.29
294.58	5.09
294.793	4.71
295.006	4.77
295.219	4.84
295.432	5.02
295.645	5.13
295.858	5.18
296.071	5.26
296.284	5.18
296.497	5.15
296.71	5.17
296.923	5.41
297.136	5.63
297.349	5.73
297.562	5.64
297.775	5.67
297.988	5.6
298.201	5.7
298.414	5.65
298.626	5.65
298.839	5.64
299.052	5.71
299.265	5.59
299.478	5.51
299.691	5.36
299.903	5.3
300.116	5.16
300.329	5.08
300.542	4.89
300.755	4.96
300.967	5
301.18	5.01
301.393	4.89
301.605	4.83
301.818	4.68
302.031	4.79
302.243	4.62
302.456	5.08
302.669	4.98
302.881	5.25
303.094	5.37
303.307	5.54
303.519	5.64
303.732	5.7
303.944	5.82
304.157	5.69
304.37	5.75
304.582	6.1
304.795	5.71
305.007	5.81
305.22	5.76
305.432	5.6
305.645	5.4
305.857	5.42
306.069	5.48
306.282	5.48
306.494	5.74
306.707	5.53
306.919	5.53
307.132	5.43
307.344	5.4
307.556	5.32
307.769	5.41
307.981	5.42
308.193	5.36
308.406	5.05
308.618	5.1
308.83	5
309.043	5.18
309.255	5.16
309.467	5.26
309.679	5.35
309.892	5.38
310.104	5.36
310.316	5.39
310.528	5.39
310.74	5.74
310.953	6.03
311.165	6.15
311.377	5.89
311.589	5.92
311.801	5.87
312.013	5.95
312.225	5.99
312.437	6.08
312.649	6.24
312.862	6.21
313.074	6.14
313.286	5.77
313.498	5.79
313.71	6.18
313.922	6.15
314.134	6.14
314.346	6.09
314.558	6.11
314.77	6.11
314.982	6.02
315.193	6.12
315.405	5.85
315.617	5.88
315.829	5.84
316.041	5.78
316.253	5.6
316.465	5.67
316.677	5.61
316.888	5.57
317.1	5.63
317.312	5.75
317.524	5.75
317.736	6.03
317.947	5.99
318.159	6.1
318.371	6.12
318.583	6.45
318.794	6.53
319.006	6.7
319.218	6.73
319.43	6.59
319.641	6.55
319.853	6.55
320.064	6.42
320.276	6.76
320.488	6.71
320.699	6.6
320.911	6.57
321.123	6.84
321.334	6.8
321.546	6.92
321.757	7.16
321.969	7.11
322.18	7.21
322.392	7.13
322.603	6.73
322.815	6.81
323.026	7.14
323.238	6.95
323.449	6.83
323.661	6.72
323.872	6.79
324.083	6.61
324.295	6.66
324.506	6.55
324.718	6.62
324.929	6.96
325.14	7.01
325.352	6.99
325.563	7.16
325.774	7.01
325.986	7.2
326.197	7.02
326.408	7.09
326.62	7.35
326.831	7.62
327.042	7.9
327.253	8.1
327.464	8.11
327.676	8.11
327.887	8.13
328.098	8.27
328.309	8.21
328.52	8.55
328.732	8.82
328.943	8.9
329.154	9.05
329.365	8.92
329.576	8.87
329.787	8.81
329.998	8.93
330.209	9.14
330.42	9.18
330.631	9.28
330.842	9.26
331.053	9.23
331.264	9.01
331.475	8.76
331.686	8.93
331.897	8.78
332.108	8.91
332.319	8.91
332.53	8.97
332.741	9.03
332.952	9.18
333.163	9.25
333.374	9.29
333.585	9.07
333.795	9.17
334.006	9.14
334.217	9.18
334.428	9.39
334.639	9.53
334.849	9.57
335.06	9.8
335.271	9.64
335.482	9.61
335.692	9.71
335.903	9.78
336.114	9.54
336.325	9.58
336.535	9.67
336.746	9.26
336.957	9.11
337.167	8.97
337.378	8.76
337.589	8.74
337.799	8.83
338.01	8.76
338.22	9.05
338.431	9.2
338.642	9.2
338.852	9.11
339.063	9.34
339.273	9.33
339.484	9.37
339.694	9.43
339.905	9.28
340.115	9.18
340.326	9.02
340.536	9.12
340.746	9.09
340.957	9.04
341.167	9.2
341.378	9.16
341.588	9.23
341.799	9.25
342.009	9.09
342.219	9.34
342.43	9.34
342.64	9.28
342.85	8.98
343.061	9.02
343.271	8.94
343.481	9
343.691	9.08
343.902	8.86
344.112	8.67
344.322	8.84
344.532	8.66
344.743	8.62
344.953	8.61
345.163	8.67
345.373	8.78
345.583	8.73
345.793	8.5
346.004	8.36
346.214	8.5
346.424	8.61
346.634	8.74
346.844	8.98
347.054	9.07
347.264	9.25
347.474	9.27
347.684	9.15
347.894	9.2
348.104	9.21
348.314	9.22
348.524	9.23
348.734	9.23
348.944	9.02
349.154	8.95
349.364	8.76
349.574	8.58
349.784	8.44
349.994	8.48
350.204	8.4
350.413	8.3
350.623	8.46
350.833	8.43
351.043	8.25
351.253	8.24
351.463	8.04
351.672	7.99
351.882	8.09
352.092	8.12
352.302	7.96
352.511	7.89
352.721	7.96
352.931	7.86
353.141	7.64
353.35	7.79
353.56	7.72
353.77	7.92
353.979	8.11
354.189	7.99
354.399	8
354.608	7.97
354.818	8.12
355.027	8.16
355.237	8.12
355.447	8.31
355.656	8.23
355.866	8.26
356.075	8.19
356.285	8.1
356.494	8.14
356.704	8.09
356.913	8.17
357.123	8.03
357.332	7.97
357.542	8.01
357.751	8.07
357.96	8.09
358.17	8.27
358.379	8.29
358.589	8.26
358.798	8.24
359.007	8.29
359.217	8.26
359.426	8.4
359.635	8.34
359.845	8.27
360.054	8.16
360.263	8.1
360.472	7.94
360.682	7.91
360.891	7.95
361.1	7.97
361.309	7.91
361.519	7.94
361.728	7.93
361.937	8.05
362.146	8.06
362.355	8.12
362.564	8.11
362.774	8.13
362.983	8.03
363.192	7.92
363.401	7.9
363.61	7.98
363.819	7.97
364.028	7.97
364.237	7.84
364.446	7.95
364.655	7.78
364.864	7.78
365.073	7.85
365.282	7.95
365.491	8.01
365.7	8.03
365.909	7.96
366.118	7.93
366.327	7.95
366.536	7.98
366.745	7.8
366.954	7.82
367.162	7.79
367.371	7.66
367.58	7.46
367.789	7.29
367.998	7.31
368.207	7.49
368.415	7.53
368.624	7.44
368.833	7.39
369.042	7.49
369.25	7.52
369.459	7.65
369.668	7.64
369.877	7.72
370.085	7.87
370.294	7.84
370.503	7.69
370.711	7.53
370.92	7.38
371.129	7.43
371.337	7.39
371.546	7.3
371.754	7.18
371.963	7.21
372.171	7.28
372.38	7.11
372.589	7.12
372.797	7.13
373.006	7.18
373.214	7.17
373.423	7.19
373.631	7.23
373.84	7.37
374.048	7.36
374.256	7.22
374.465	7.13
374.673	7.19
374.882	7.01
375.09	6.85
375.298	6.82
375.507	6.86
375.715	6.76
375.923	6.64
376.132	6.54
376.34	6.52
376.548	6.52
376.757	6.66
376.965	6.69
377.173	6.84
377.381	6.97
377.59	6.98
377.798	7.01
378.006	7.08
378.214	7.05
378.423	7.08
378.631	7.14
378.839	7.17
379.047	7
379.255	7.01
379.463	6.95
379.671	6.81
379.879	6.82
380.088	6.77
380.296	6.75
380.504	6.87
380.712	6.91
380.92	6.96
381.128	6.98
381.336	7.04
381.544	6.93
381.752	6.88
381.96	6.91
382.168	6.88
382.376	6.92
382.584	6.98
382.791	6.96
382.999	6.83
383.207	6.72
383.415	6.64
383.623	6.65
383.831	6.58
384.039	6.58
384.247	6.63
384.454	6.72
384.662	6.78
384.87	6.68
385.078	6.61
385.285	6.73
385.493	6.75
385.701	6.77
385.909	6.68
386.116	6.77
386.324	6.84
386.532	6.76
386.739	6.64
386.947	6.53
387.155	6.46
387.362	6.42
387.57	6.34
387.778	6.3
387.985	6.39
388.193	6.43
388.4	6.59
388.608	6.48
388.816	6.54
389.023	6.53
389.231	6.52
389.438	6.59
389.646	6.51
389.853	6.51
390.061	6.45
390.268	6.46
390.475	6.37
390.683	6.21
390.89	6.25
391.098	6.19
391.305	6.15
391.512	6.09
391.72	6.08
391.927	6.09
392.135	6.09
392.342	6.16
392.549	6.07
392.756	6.09
392.964	6.11
393.171	6.09
393.378	6.15
393.586	6.19
393.793	6.23
394	6.2
394.207	6.27
394.414	6.26
394.622	6.29
394.829	6.27
395.036	6.21
395.243	6.19
395.45	6.16
395.657	6.03
395.864	5.97
396.072	6.02
396.279	6.1
396.486	6
396.693	6.04
396.9	6.01
397.107	5.98
397.314	6.07
397.521	6.02
397.728	6.06
397.935	6.03
398.142	6.07
398.349	5.99
398.556	5.96
398.763	5.96
398.97	5.92
399.177	5.88
399.383	5.92
399.59	5.86
399.797	5.85
400.004	5.74
400.211	5.86
400.418	5.82
400.625	5.91
400.831	5.79
401.038	5.89
401.245	5.84
401.452	5.84
401.658	5.82
401.865	5.98
402.072	6.01
402.279	6.12
402.485	6.14
402.692	6.2
402.899	6.06
403.105	6.17
403.312	6.11
403.519	6.11
403.725	6.14
403.932	6.15
404.138	6.04
404.345	5.97
404.552	5.96
404.758	5.96
404.965	5.91
405.171	5.94
405.378	5.84
405.584	5.91
405.791	5.91
405.997	5.82
406.204	5.87
406.41	5.82
406.617	5.89
406.823	5.85
407.029	5.79
407.236	5.78
407.442	5.79
407.649	5.94
407.855	5.91
408.061	5.93
408.268	5.95
408.474	5.8
408.68	5.91
408.887	5.85
409.093	5.87
409.299	5.89
409.505	5.9
409.712	5.85
409.918	5.67
410.124	5.58
410.33	5.53
410.537	5.53
410.743	5.64
410.949	5.57
411.155	5.65
411.361	5.66
411.567	5.56
411.773	5.41
411.98	5.5
412.186	5.51
412.392	5.54
412.598	5.56
412.804	5.6
413.01	5.57
413.216	5.54
413.422	5.59
413.628	5.56
413.834	5.6
414.04	5.65
414.246	5.63
414.452	5.62
414.658	5.64
414.864	5.66
415.07	5.55
415.275	5.53
415.481	5.52
415.687	5.4
415.893	5.38
416.099	5.45
416.305	5.55
416.511	5.55
416.716	5.56
416.922	5.57
417.128	5.62
417.334	5.75
417.539	5.75
417.745	5.78
417.951	5.79
418.157	5.84
418.362	5.81
418.568	5.81
418.774	5.75
418.979	5.7
419.185	5.64
419.391	5.6
419.596	5.51
419.802	5.49
420.008	5.49
420.213	5.83
420.419	5.75
420.624	5.74
420.83	5.72
421.035	5.74
421.241	5.81
421.446	5.87
421.652	5.86
421.857	5.88
422.063	5.89
422.268	5.85
422.474	5.56
422.679	5.59
422.885	5.58
423.09	5.56
423.295	5.56
423.501	5.51
423.706	5.46
423.911	5.49
424.117	5.5
424.322	5.48
424.527	5.52
424.733	5.45
424.938	5.47
425.143	5.5
425.349	5.49
425.554	5.51
425.759	5.54
425.964	5.56
426.169	5.53
426.375	5.48
426.58	5.47
426.785	5.45
426.99	5.49
427.195	5.46
427.4	5.46
427.605	5.48
427.811	5.51
428.016	5.5
428.221	5.53
428.426	5.49
428.631	5.49
428.836	5.52
429.041	5.48
429.246	5.49
429.451	5.52
429.656	5.44
429.861	5.43
430.066	5.4
430.271	5.42
430.476	5.37
430.681	5.38
430.886	5.41
431.09	5.48
431.295	5.5
431.5	5.46
431.705	5.4
431.91	5.42
432.115	5.44
432.32	5.44
432.524	5.44
432.729	5.46
432.934	5.47
433.139	5.5
433.343	5.51
433.548	5.52
433.753	5.57
433.958	5.58
434.162	5.58
434.367	5.58
434.572	5.51
434.776	5.55
434.981	5.54
435.186	5.5
435.39	5.45
435.595	5.45
435.799	5.43
436.004	5.43
436.209	5.44
436.413	5.48
436.618	5.45
436.822	5.51
437.027	5.44
437.231	5.44
437.436	5.42
437.64	5.42
437.845	5.34
438.049	5.33
438.253	5.27
438.458	5.26
438.662	5.25
438.867	5.27
439.071	5.29
439.275	5.32
439.48	5.35
439.684	5.38
439.888	5.36
440.093	5.39
440.297	5.38
440.501	5.41
440.706	5.45
440.91	5.49
441.114	5.46
441.318	5.42
441.523	5.43
441.727	5.42
441.931	5.46
442.135	5.46
442.339	5.46
442.543	5.52
442.748	5.49
442.952	5.49
443.156	5.42
443.36	5.44
443.564	5.45
443.768	5.41
443.972	5.38
444.176	5.32
444.38	5.37
444.584	5.34
444.788	5.33
444.992	5.34
445.196	5.32
445.4	5.37
445.604	5.35
445.808	5.35
446.012	5.39
446.216	5.39
446.42	5.39
446.624	5.38
446.828	5.39
447.032	5.35
447.235	5.33
447.439	5.34
447.643	5.33
447.847	5.37
448.051	5.35
448.254	5.35
448.458	5.34
448.662	5.4
448.866	5.37
449.069	5.36
449.273	5.45
449.477	5.51
449.681	5.51
449.884	5.5
450.088	5.45
450.292	5.48
450.495	5.48
450.699	5.54
450.902	5.49
451.106	5.52
451.31	5.51
451.513	5.46
451.717	5.39
451.92	5.37
452.124	5.34
452.327	5.35
452.531	5.39
452.734	5.37
452.938	5.36
453.141	5.36
453.345	5.36
453.548	5.39
453.752	5.38
453.955	5.42
454.158	5.39
454.362	5.38
454.565	5.35
454.769	5.29
454.972	5.3
455.175	5.26
455.379	5.24
455.582	5.17
455.785	5.16
455.988	5.16
456.192	5.12
456.395	5.12
456.598	5.17
456.801	5.2
457.005	5.26
457.208	5.23
457.411	5.25
457.614	5.29
457.817	5.3
458.021	5.31
458.224	5.31
458.427	5.33
458.63	5.34
458.833	5.3
459.036	5.31
459.239	5.25
459.442	5.24
459.645	5.23
459.848	5.19
460.051	5.18
460.254	5.18
460.457	5.18
460.66	5.18
460.863	5.21
461.066	5.25
461.269	5.21
461.472	5.27
461.675	5.32
461.878	5.31
462.081	5.34
462.284	5.39
462.486	5.41
462.689	5.37
462.892	5.38
463.095	5.33
463.298	5.35
463.5	5.3
463.703	5.27
463.906	5.27
464.109	5.33
464.311	5.39
464.514	5.43
464.717	5.43
464.92	5.5
465.122	5.51
465.325	5.58
465.528	5.57
465.73	5.6
465.933	5.63
466.135	5.61
466.338	5.58
466.541	5.58
466.743	5.55
466.946	5.54
467.148	5.51
467.351	5.53
467.553	5.5
467.756	5.51
467.958	5.6
468.161	5.6
468.363	5.55
468.566	5.53
468.768	5.47
468.971	5.45
469.173	5.43
469.375	5.44
469.578	5.52
469.78	5.48
469.983	5.49
470.185	5.41
470.387	5.38
470.59	5.42
470.792	5.43
470.994	5.45
471.196	5.46
471.399	5.48
471.601	5.45
471.803	5.28
472.005	5.28
472.208	5.27
472.41	5.28
472.612	5.32
472.814	5.32
473.016	5.35
473.218	5.36
473.421	5.35
473.623	5.34
473.825	5.34
474.027	5.4
474.229	5.41
474.431	5.38
474.633	5.39
474.835	5.33
475.037	5.3
475.239	5.28
475.441	5.27
475.643	5.24
475.845	5.26
476.047	5.34
476.249	5.3
476.451	5.34
476.653	5.34
476.855	5.31
477.057	5.33
477.258	5.36
477.46	5.34
477.662	5.36
477.864	5.39
478.066	5.38
478.268	5.34
478.469	5.4
478.671	5.38
478.873	5.34
479.075	5.35
479.276	5.36
479.478	5.35
479.68	5.37
479.882	5.39
480.083	5.42
480.285	5.45
480.487	5.43
480.688	5.38
480.89	5.4
481.091	5.42
481.293	5.43
481.495	5.4
481.696	5.4
481.898	5.39
482.099	5.39
482.301	5.39
482.502	5.39
482.704	5.39
482.905	5.4
483.107	5.39
483.308	5.37
483.51	5.36
483.711	5.37
483.913	5.37
484.114	5.37
484.315	5.34
484.517	5.32
484.718	5.31
484.92	5.3
485.121	5.29
485.322	5.31
485.524	5.34
485.725	5.36
485.926	5.38
486.127	5.39
486.329	5.39
486.53	5.41
486.731	5.42
486.932	5.41
487.134	5.4
487.335	5.41
487.536	5.41
487.737	5.4
487.938	5.38
488.139	5.36
488.341	5.36
488.542	5.36
488.743	5.36
488.944	5.36
489.145	5.38
489.346	5.38
489.547	5.4
489.748	5.4
489.949	5.42
490.15	5.44
490.351	5.45
490.552	5.44
490.753	5.44
490.954	5.44
491.155	5.42
491.356	5.4
491.557	5.4
491.758	5.42
491.959	5.39
492.159	5.33
492.36	5.33
492.561	5.32
492.762	5.33
492.963	5.33
493.164	5.34
493.364	5.39
493.565	5.43
493.766	5.46
493.967	5.45
494.167	5.51
494.368	5.59
494.569	5.65
494.769	5.68
494.97	5.67
495.171	5.71
495.371	5.72
495.572	5.74
495.773	5.74
495.973	5.73
496.174	5.75
496.375	5.75
496.575	5.74
496.776	5.7
496.976	5.71
497.177	5.75
497.377	5.74
497.578	5.73
497.778	5.7
497.979	5.72
498.179	5.77
498.38	5.73
498.58	5.75
498.78	5.75
498.981	5.8
499.181	5.84
499.382	5.82
499.582	5.87
499.782	5.9
499.983	5.95
500.183	5.96
500.383	5.96
500.584	6.01
500.784	6.03
500.984	6.03
501.184	6.03
501.385	6
501.585	6.06
501.785	6.06
501.985	6.06
502.185	6.08
502.386	6.09
502.586	6.11
502.786	6.16
502.986	6.17
503.186	6.25
503.386	6.29
503.586	6.32
503.786	6.3
503.987	6.35
504.187	6.39
504.387	6.41
504.587	6.41
504.787	6.43
504.987	6.41
505.187	6.43
505.387	6.43
505.587	6.45
505.786	6.49
505.986	6.5
506.186	6.49
506.386	6.52
506.586	6.54
506.786	6.62
506.986	6.63
507.186	6.64
507.386	6.68
507.585	6.7
507.785	6.73
507.985	6.73
508.185	6.77
508.384	6.8
508.584	6.8
508.784	6.82
508.984	6.83
509.183	6.89
509.383	6.93
509.583	6.94
509.782	7.01
509.982	7.01
510.182	7.05
510.381	7.06
510.581	7.1
510.781	7.11
510.98	7.16
511.18	7.16
511.379	7.17
511.579	7.23
511.778	7.24
511.978	7.23
512.177	7.27
512.377	7.33
512.576	7.38
512.776	7.42
512.975	7.47
513.175	7.51
513.374	7.57
513.573	7.56
513.773	7.59
513.972	7.63
514.172	7.66
514.371	7.75
514.57	7.72
514.77	7.8
514.969	7.8
515.168	7.81
515.367	7.82
515.567	7.84
515.766	7.91
515.965	7.95
516.164	7.99
516.364	8.04
516.563	8.05
516.762	8.08
516.961	8.09
517.16	8.16
517.359	8.22
517.559	8.27
517.758	8.34
517.957	8.35
518.156	8.37
518.355	8.38
518.554	8.41
518.753	8.4
518.952	8.44
519.151	8.47
519.35	8.49
519.549	8.5
519.748	8.56
519.947	8.57
520.146	8.62
520.345	8.63
520.544	8.71
520.743	8.78
520.942	8.85
521.141	8.9
521.339	8.94
521.538	9.01
521.737	9.08
521.936	9.06
522.135	9.09
522.333	9.13
522.532	9.2
522.731	9.23
522.93	9.23
523.129	9.29
523.327	9.31
523.526	9.32
523.725	9.36
523.923	9.37
524.122	9.41
524.321	9.45
524.519	9.47
524.718	9.51
524.917	9.54
525.115	9.55
525.314	9.57
525.512	9.6
525.711	9.68
525.909	9.67
526.108	9.68
526.306	9.73
526.505	9.74
526.703	9.79
526.902	9.83
527.1	9.84
527.299	9.88
527.497	9.93
527.696	9.97
527.894	9.98
528.092	10.01
528.291	10.04
528.489	10.07
528.688	10.1
528.886	10.14
529.084	10.15
529.283	10.2
529.481	10.24
529.679	10.26
529.877	10.28
530.076	10.31
530.274	10.38
530.472	10.45
530.67	10.5
530.869	10.53
531.067	10.55
531.265	10.57
531.463	10.63
531.661	10.65
531.859	10.71
532.057	10.76
532.255	10.8
532.454	10.81
532.652	10.83
532.85	10.85
533.048	10.9
533.246	10.91
533.444	10.96
533.642	10.98
533.84	11.01
534.038	11.03
534.236	11.08
534.434	11.11
534.632	11.16
534.83	11.21
535.027	11.26
535.225	11.32
535.423	11.41
535.621	11.45
535.819	11.47
536.017	11.48
536.215	11.52
536.412	11.53
536.61	11.58
536.808	11.6
537.006	11.62
537.203	11.66
537.401	11.69
537.599	11.68
537.797	11.72
537.994	11.77
538.192	11.87
538.39	11.9
538.587	11.95
538.785	11.99
538.983	12.07
539.18	12.15
539.378	12.2
539.575	12.23
539.773	12.31
539.97	12.38
540.168	12.4
540.366	12.44
540.563	12.47
540.761	12.52
540.958	12.53
541.155	12.56
541.353	12.59
541.55	12.61
541.748	12.65
541.945	12.69
542.143	12.69
542.34	12.75
542.537	12.77
542.735	12.82
542.932	12.85
543.129	12.91
543.327	12.95
543.524	12.99
543.721	13.05
543.919	13.08
544.116	13.1
544.313	13.15
544.51	13.18
544.708	13.28
544.905	13.29
545.102	13.33
545.299	13.39
545.496	13.43
545.693	13.47
545.891	13.52
546.088	13.58
546.285	13.64
546.482	13.7
546.679	13.75
546.876	13.73
547.073	13.79
547.27	13.88
547.467	13.88
547.664	13.91
547.861	13.96
548.058	13.98
548.255	14
548.452	14
548.649	14.09
548.846	14.17
549.043	14.2
549.24	14.26
549.437	14.25
549.633	14.28
549.83	14.34
550.027	14.41
550.224	14.45
550.421	14.5
550.618	14.55
550.814	14.54
551.011	14.55
551.208	14.69
551.405	14.73
551.601	14.83
551.798	14.86
551.995	14.92
552.191	14.95
552.388	14.97
552.585	15.03
552.781	15.06
552.978	15.11
553.175	15.16
553.371	15.12
553.568	15.12
553.764	15.1
553.961	15.19
554.157	15.24
554.354	15.29
554.55	15.38
554.747	15.39
554.943	15.44
555.14	15.47
555.336	15.52
555.533	15.6
555.729	15.68
555.926	15.73
556.122	15.79
556.318	15.77
556.515	15.78
556.711	15.82
556.907	15.86
557.104	15.88
557.3	15.89
557.496	15.89
557.693	15.93
557.889	16.01
558.085	16.06
558.281	16.09
558.478	16.1
558.674	16.17
558.87	16.12
559.066	16.17
559.262	16.21
559.459	16.23
559.655	16.23
559.851	16.24
560.047	16.22
560.243	16.24
560.439	16.23
560.635	16.25
560.831	16.24
561.027	16.31
561.223	16.34
561.419	16.41
561.615	16.48
561.811	16.52
562.007	16.54
562.203	16.54
562.399	16.56
562.595	16.63
562.791	16.63
562.987	16.64
563.183	16.66
563.379	16.66
563.575	16.64
563.771	16.71
563.966	16.76
564.162	16.79
564.358	16.87
564.554	16.86
564.75	16.89
564.945	16.94
565.141	17.01
565.337	17.02
565.533	17.11
565.728	17.16
565.924	17.13
566.12	17.19
566.315	17.22
566.511	17.21
566.707	17.25
566.902	17.24
567.098	17.29
567.293	17.34
567.489	17.38
567.684	17.34
567.88	17.29
568.076	17.33
568.271	17.25
568.467	17.27
568.662	17.28
568.858	17.32
569.053	17.35
569.248	17.37
569.444	17.35
569.639	17.37
569.835	17.43
570.03	17.51
570.225	17.47
570.421	17.59
570.616	17.62
570.812	17.64
571.007	17.64
571.202	17.67
571.397	17.64
571.593	17.68
571.788	17.72
571.983	17.72
572.178	17.7
572.374	17.75
572.569	17.78
572.764	17.73
572.959	17.75
573.154	17.77
573.35	17.8
573.545	17.82
573.74	17.81
573.935	17.84
574.13	17.89
574.325	17.91
574.52	17.9
574.715	17.87
574.91	17.91
575.105	17.96
575.3	18.02
575.495	17.99
575.69	18.05
575.885	18.06
576.08	17.99
576.275	17.98
576.47	18.04
576.665	18.09
576.86	18.14
577.055	18.13
577.25	18.09
577.444	18.06
577.639	18.12
577.834	18.16
578.029	18.19
578.224	18.23
578.418	18.24
578.613	18.22
578.808	18.2
579.003	18.22
579.197	18.31
579.392	18.37
579.587	18.39
579.781	18.38
579.976	18.32
580.171	18.32
580.365	18.37
580.56	18.38
580.755	18.43
580.949	18.47
581.144	18.45
581.338	18.44
581.533	18.42
581.727	18.42
581.922	18.42
582.116	18.45
582.311	18.47
582.505	18.46
582.7	18.41
582.894	18.4
583.089	18.38
583.283	18.37
583.478	18.29
583.672	18.36
583.866	18.37
584.061	18.35
584.255	18.39
584.449	18.35
584.644	18.38
584.838	18.38
585.032	18.36
585.226	18.44
585.421	18.44
585.615	18.48
585.809	18.41
586.003	18.42
586.198	18.46
586.392	18.48
586.586	18.52
586.78	18.52
586.974	18.58
587.168	18.66
587.363	18.51
587.557	18.59
587.751	18.68
587.945	18.67
588.139	18.66
588.333	18.65
588.527	18.68
588.721	18.68
588.915	18.68
589.109	18.65
589.303	18.6
589.497	18.69
589.691	18.68
589.885	18.64
590.079	18.75
590.273	18.81
590.466	18.8
590.66	18.83
590.854	18.87
591.048	18.81
591.242	18.82
591.436	18.82
591.629	18.81
591.823	18.78
592.017	18.83
592.211	18.78
592.404	18.77
592.598	18.79
592.792	18.79
592.986	18.8
593.179	18.89
593.373	18.9
593.567	18.93
593.76	18.97
593.954	18.9
594.147	18.9
594.341	18.94
594.535	18.93
594.728	18.96
594.922	18.95
595.115	18.92
595.309	18.95
595.502	19
595.696	18.95
595.889	18.94
596.083	19
596.276	18.97
596.47	18.93
596.663	18.97
596.856	18.96
597.05	18.91
597.243	18.92
597.437	18.91
597.63	18.87
597.823	18.91
598.017	18.94
598.21	18.91
598.403	18.94
598.596	18.98
598.79	18.91
598.983	18.93
599.176	18.93
599.369	18.98
599.563	18.94
599.756	18.98
599.949	18.98
600.142	18.91
600.335	19.01
600.528	18.98
600.722	19.01
600.915	19.09
601.108	19.07
601.301	19.1
601.494	19.09
601.687	19.14
601.88	19.11
602.073	19.14
602.266	19.22
602.459	19.16
602.652	19.2
602.845	19.15
603.038	19.17
603.231	19.16
603.424	19.19
603.617	19.16
603.809	19.18
604.002	19.27
604.195	19.23
604.388	19.25
604.581	19.25
604.774	19.2
604.966	19.23
605.159	19.17
605.352	19.17
605.545	19.19
605.737	19.24
605.93	19.15
606.123	19.05
606.316	19.11
606.508	19.01
606.701	19.07
606.894	19.19
607.086	19.17
607.279	19.2
607.471	19.26
607.664	19.23
607.857	19.27
608.049	19.32
608.242	19.34
608.434	19.42
608.627	19.47
608.819	19.47
609.012	19.43
609.204	19.38
609.397	19.4
609.589	19.41
609.782	19.39
609.974	19.42
610.166	19.43
610.359	19.43
610.551	19.33
610.743	19.29
610.936	19.36
611.128	19.36
611.32	19.47
611.513	19.48
611.705	19.39
611.897	19.4
612.09	19.31
612.282	19.37
612.474	19.27
612.666	19.31
612.858	19.31
613.051	19.17
613.243	19.11
613.435	19.12
613.627	19.2
613.819	19.27
614.011	19.29
614.203	19.23
614.395	19.1
614.588	19.17
614.78	19.11
614.972	19.17
615.164	19.23
615.356	19.19
615.548	19.16
615.74	19.04
615.932	18.98
616.124	18.97
616.315	19.07
616.507	19.11
616.699	19.23
616.891	19.32
617.083	19.4
617.275	19.48
617.467	19.54
617.659	19.51
617.85	19.61
618.042	19.67
618.234	19.74
618.426	19.71
618.618	19.74
618.809	19.74
619.001	19.7
619.193	19.57
619.384	19.47
619.576	19.47
619.768	19.53
619.959	19.47
620.151	19.44
620.343	19.36
620.534	19.35
620.726	19.34
620.917	19.37
621.109	19.29
621.301	19.34
621.492	19.31
621.684	19.28
621.875	19.26
622.067	19.28
622.258	19.25
622.45	19.31
622.641	19.35
622.832	19.41
623.024	19.34
623.215	19.41
623.407	19.43
623.598	19.48
623.789	19.49
623.981	19.53
624.172	19.59
624.363	19.59
624.555	19.55
624.746	19.56
624.937	19.53
625.129	19.49
625.32	19.48
625.511	19.49
625.702	19.46
625.893	19.48
626.085	19.48
626.276	19.41
626.467	19.46
626.658	19.52
626.849	19.45
627.04	19.43
627.231	19.5
627.422	19.55
627.614	19.51
627.805	19.53
627.996	19.49
628.187	19.45
628.378	19.5
628.569	19.45
628.76	19.36
628.951	19.44
629.142	19.48
629.332	19.44
629.523	19.4
629.714	19.43
629.905	19.48
630.096	19.51
630.287	19.52
630.478	19.45
630.669	19.54
630.859	19.55
631.05	19.56
631.241	19.57
631.432	19.63
631.623	19.71
631.813	19.78
632.004	19.72
632.195	19.76
632.385	19.64
632.576	19.77
632.767	19.72
632.957	19.8
633.148	19.77
633.339	19.7
633.529	19.7
633.72	19.62
633.91	19.53
634.101	19.57
634.292	19.5
634.482	19.55
634.673	19.4
634.863	19.39
635.054	19.36
635.244	19.3
635.435	19.35
635.625	19.35
635.815	19.26
636.006	19.27
636.196	19.38
636.387	19.36
636.577	19.46
636.767	19.53
636.958	19.53
637.148	19.5
637.338	19.58
637.529	19.58
637.719	19.53
637.909	19.62
638.099	19.65
638.29	19.54
638.48	19.73
638.67	19.7
638.86	19.67
639.05	19.74
639.241	19.76
639.431	19.7
639.621	19.67
639.811	19.69
640.001	19.63
640.191	19.7
640.381	19.59
640.571	19.49
640.761	19.41
640.951	19.41
641.141	19.32
641.331	19.26
641.521	19.27
641.711	19.3
641.901	19.18
642.091	19.2
642.281	19.16
642.471	19.21
642.661	19.28
642.851	19.43
643.041	19.45
643.231	19.5
643.42	19.59
643.61	19.54
643.8	19.59
643.99	19.66
644.18	19.63
644.369	19.58
644.559	19.69
644.749	19.68
644.939	19.57
645.128	19.55
645.318	19.53
645.508	19.48
645.697	19.59
645.887	19.56
646.076	19.67
646.266	19.78
646.456	19.85
646.645	19.75
646.835	19.68
647.024	19.75
647.214	19.8
647.403	19.83
647.593	19.85
647.782	19.93
647.972	19.91
648.161	19.75
648.351	19.72
648.54	19.66
648.73	19.64
648.919	19.72
649.108	19.69
649.298	19.58
649.487	19.68
649.677	19.64
649.866	19.52
650.055	19.59
650.244	19.66
650.434	19.69
650.623	19.69
650.812	19.76
651.002	19.6
651.191	19.64
651.38	19.72
651.569	19.6
651.758	19.66
651.947	19.57
652.137	19.51
652.326	19.5
652.515	19.46
652.704	19.46
652.893	19.55
653.082	19.66
653.271	19.55
653.46	19.61
653.649	19.62
653.838	19.63
654.027	19.76
654.216	19.71
654.405	19.79
654.594	19.78
654.783	19.83
654.972	19.74
655.161	19.7
655.35	19.76
655.539	19.66
655.728	19.67
655.916	19.49
656.105	19.57
656.294	19.65
656.483	19.51
656.672	19.61
656.86	19.53
657.049	19.59
657.238	19.65
657.427	19.68
657.615	19.72
657.804	19.68
657.993	19.79
658.181	19.67
658.37	19.61
658.559	19.66
658.747	19.6
658.936	19.63
659.125	19.6
659.313	19.63
659.502	19.66
659.69	19.64
659.879	19.66
660.067	19.64
660.256	19.73
660.444	19.92
660.633	20
660.821	20.02
661.01	20.01
661.198	20.06
661.387	19.98
661.575	19.97
661.763	19.96
661.952	20.08
662.14	20.1
662.328	20.13
662.517	19.95
662.705	19.85
662.893	19.86
663.082	19.99
663.27	19.81
663.458	19.77
663.646	19.76
663.834	19.86
664.023	19.69
664.211	19.82
664.399	19.69
664.587	19.76
664.775	19.74
664.963	19.81
665.152	19.73
665.34	19.88
665.528	19.95
665.716	19.92
665.904	19.82
666.092	19.91
666.28	19.92
666.468	19.98
666.656	19.96
666.844	20.06
667.032	20.02
667.22	19.97
667.408	19.94
667.596	19.97
667.784	19.99
667.971	20.01
668.159	19.99
668.347	19.85
668.535	19.83
668.723	19.8
668.911	19.71
669.098	19.61
669.286	19.59
669.474	19.6
669.662	19.48
669.849	19.5
670.037	19.34
670.225	19.32
670.413	19.31
670.6	19.35
670.788	19.35
670.976	19.42
671.163	19.46
671.351	19.48
671.538	19.49
671.726	19.66
671.913	19.73
672.101	19.81
672.289	19.91
672.476	19.95
672.664	20.01
672.851	19.98
673.039	19.94
673.226	19.88
673.413	19.87
673.601	19.84
673.788	19.76
673.976	19.69
674.163	19.73
674.35	19.52
674.538	19.49
674.725	19.35
674.912	19.38
675.1	19.36
675.287	19.34
675.474	19.41
675.662	19.5
675.849	19.48
676.036	19.63
676.223	19.76
676.411	19.87
676.598	19.97
676.785	19.93
676.972	19.94
677.159	19.99
677.346	20.09
677.533	20.06
677.721	19.94
677.908	19.92
678.095	19.8
678.282	19.73
678.469	19.79
678.656	19.78
678.843	19.9
679.03	19.97
679.217	20.07
679.404	19.99
679.591	20.09
679.778	20.16
679.964	20.09
680.151	20.08
680.338	20.16
680.525	20.13
680.712	20.11
680.899	20.06
681.086	20.03
681.272	19.84
681.459	19.97
681.646	19.86
681.833	19.86
682.02	19.95
682.206	19.98
682.393	19.88
682.58	19.86
682.766	19.84
682.953	19.8
683.14	19.82
683.326	19.98
683.513	19.88
683.7	19.87
683.886	19.88
684.073	19.9
684.259	19.86
684.446	19.87
684.632	19.92
684.819	19.87
685.005	20.04
685.192	20.06
685.378	19.98
685.565	20.02
685.751	20.02
685.938	19.99
686.124	19.91
686.31	19.86
686.497	19.92
686.683	19.94
686.87	20.01
687.056	19.95
687.242	19.86
687.429	19.9
687.615	19.79
687.801	19.88
687.987	19.85
688.174	19.83
688.36	19.94
688.546	20.01
688.732	20.03
688.918	20.05
689.105	20.09
689.291	20.07
689.477	20.1
689.663	20.25
689.849	20.22
690.035	20.28
690.221	20.38
690.407	20.22
690.593	20.23
690.779	20.21
690.965	20.15
691.151	20.1
691.337	20.22
691.523	20.1
691.709	20.14
691.895	20.13
692.081	20.07
692.267	20.04
692.453	20.09
692.639	19.98
692.825	20.02
693.011	20
693.196	19.97
693.382	19.94
693.568	20.06
693.754	19.87
693.94	19.77
694.125	19.84
694.311	19.82
694.497	19.9
694.682	19.85
694.868	19.9
695.054	19.98
695.239	20.05
695.425	20.03
695.611	20.09
695.796	20.31
695.982	20.37
696.168	20.24
696.353	20.26
696.539	20.3
696.724	20.34
696.91	20.33
697.095	20.32
697.281	20.34
697.466	20.35
697.652	20.27
697.837	20.18
698.023	20.22
698.208	20.35
698.393	20.38
698.579	20.26
698.764	20.27
698.949	20.22
699.135	20.17
699.32	20.14
699.505	20.01
699.691	20.01
699.876	20.03
700.061	20.07
700.246	20.04
700.432	20.01
700.617	20.17
700.802	20.14
700.987	20.08
701.172	19.92
701.358	19.73
701.543	19.83
701.728	19.91
701.913	19.81
702.098	19.74
702.283	19.75
702.468	19.85
702.653	19.67
702.838	19.85
703.023	19.98
703.208	20.2
703.393	20.38
703.578	20.53
703.763	20.32
703.948	20.29
704.133	20.2
704.318	20.05
704.503	20.09
704.688	20.3
704.873	20.22
705.057	20.21
705.242	20.26
705.427	20.32
705.612	20.19
705.797	20.29
705.981	20.56
706.166	20.68
706.351	20.66
706.536	20.77
706.72	20.63
706.905	20.55
707.09	20.61
707.274	20.61
707.459	20.47
707.644	20.66
707.828	20.75
708.013	20.46
708.197	20.42
708.382	20.34
708.567	20.17
708.751	20.11
708.936	20.15
709.12	20.09
709.305	20.1
709.489	20.22
709.673	20.01
709.858	19.81
710.042	20.01
710.227	19.91
710.411	20.15
710.596	20.24
710.78	20.33
710.964	20.3
711.149	20.2
711.333	20.28
711.517	20.24
711.702	20.47
711.886	20.71
712.07	20.69
712.254	20.76
712.438	20.66
712.623	20.58
712.807	20.77
712.991	20.9
713.175	20.88
713.359	20.7
713.544	20.69
713.728	20.63
713.912	20.43
714.096	20.54
714.28	20.46
714.464	20.5
714.648	20.55
714.832	20.37
715.016	20.12
715.2	20.15
715.384	20.25
715.568	20.18
715.752	19.99
715.936	20.07
716.12	20.05
716.304	20.08
716.488	20.13
716.671	20.2
716.855	20.1
717.039	20.27
717.223	20.39
717.407	20.35
717.59	20.49
717.774	20.63
717.958	20.61
718.142	20.43
718.325	20.51
718.509	20.55
718.693	20.43
718.877	20.54
719.06	20.44
719.244	20.16
719.428	20.07
719.611	20.15
719.795	20.12
719.978	20.18
720.162	20.22
720.345	20.23
720.529	19.96
720.713	19.89
720.896	19.82
721.08	19.96
721.263	20.11
721.446	20.21
721.63	20.24
721.813	20.05
721.997	19.99
722.18	20.11
722.364	20.23
722.547	20.39
722.73	20.34
722.914	20.44
723.097	20.23
723.28	20.31
723.464	20.25
723.647	20.15
723.83	20.37
724.013	20.37
724.197	20.31
724.38	20.23
724.563	20.08
724.746	20.07
724.929	20.26
725.112	20.32
725.296	20.12
725.479	20.21
725.662	20.14
725.845	20.07
726.028	20.06
726.211	19.92
726.394	19.87
726.577	20.08
726.76	20.16
726.943	20.01
727.126	20.07
727.309	20.21
727.492	20.28
727.675	20.29
727.858	20.14
728.041	20.27
728.224	20.35
728.407	20.38
728.589	20.27
728.772	20.18
728.955	20.21
729.138	20.36
729.321	20.28
729.503	20.33
729.686	20.4
729.869	20.53
730.052	20.49
730.234	20.39
730.417	20.51
730.6	20.42
730.782	20.37
730.965	20.26
731.148	20.29
731.33	20.34
731.513	20.18
731.695	20.12
731.878	20.23
732.061	20.19
732.243	20.22
732.426	20.05
732.608	20.19
732.791	20.09
732.973	20.13
733.156	20.01
733.338	20.06
733.52	19.95
733.703	19.99
733.885	20.02
734.068	19.97
734.25	20.08
734.432	20.11
734.615	20.21
734.797	20.41
734.979	20.38
735.162	20.35
735.344	20.09
735.526	20.08
735.708	19.93
735.891	19.92
736.073	20.11
736.255	20.17
736.437	20.14
736.619	19.82
736.802	19.84
736.984	19.68
737.166	19.72
737.348	19.79
737.53	19.98
737.712	20.06
737.894	20.01
738.076	20.04
738.258	19.82
738.44	19.99
738.622	20.16
738.804	20.13
738.986	20.41
739.168	20.24
739.35	20.62
739.532	20.63
739.714	20.57
739.896	20.63
740.078	20.47
740.259	20.79
740.441	20.52
740.623	20.55
740.805	20.64
740.987	20.44
741.168	20.33
741.35	20.07
741.532	20.15
741.714	20.25
741.895	20.2
742.077	20.22
742.259	20.25
742.44	20.41
742.622	20.18
742.804	19.99
742.985	19.99
743.167	20.22
743.348	20.31
743.53	20.3
743.711	20.2
743.893	20.06
744.075	20.07
744.256	19.78
744.438	19.59
744.619	19.92
744.8	19.97
744.982	20.16
745.163	20.25
745.345	19.93
745.526	20.04
745.707	20.13
745.889	19.86
746.07	19.92
746.252	20.2
746.433	20.32
746.614	20.2
746.795	20.39
746.977	20.58
747.158	20.33
747.339	20.52
747.52	20.04
747.702	20.04
747.883	20.24
748.064	20.13
748.245	19.75
748.426	19.64
748.607	19.6
748.788	19.25
748.97	18.98
749.151	19.32
749.332	19.54
749.513	19.92
749.694	19.95
749.875	20.01
750.056	20.29
750.237	20.41
750.418	20.39
750.599	20.25
750.78	20.38
750.96	20.36
751.141	20.29
751.322	20.38
751.503	20.03
751.684	19.99
751.865	20.18
752.046	20.17
752.226	20.23
752.407	20.25
752.588	20.49
752.769	20.76
752.949	20.62
753.13	20.46
753.311	20.32
753.492	20.26
753.672	20.07
753.853	19.72
754.034	19.58
754.214	19.72
754.395	19.86
754.575	19.95
754.756	19.43
754.937	19.44
755.117	19.74
755.298	19.66
755.478	20.06
755.659	20.29
755.839	20.45
756.02	20.45
756.2	20.12
756.381	19.79
756.561	19.52
756.741	20
756.922	19.89
757.102	19.9
757.283	19.9
757.463	19.68
757.643	19.5
757.823	19.58
758.004	19.32
758.184	19.69
758.364	20.15
758.545	20.37
758.725	20.2
758.905	20.28
759.085	19.98
759.265	19.88
759.446	19.89
759.626	20.06
759.806	19.95
759.986	20.23
760.166	20
760.346	19.72
760.526	19.6
760.706	19.78
760.886	19.91
761.066	20.02
761.246	20.22
761.426	20.29
761.606	20.31
761.786	20.41
761.966	20.46
762.146	20.65
762.326	20.68
762.506	20.75
762.686	20.79
762.866	20.72
763.046	20.72
763.225	20.64
763.405	20.59
763.585	20.7
763.765	20.54
763.945	20.37
764.124	20.31
764.304	20.38
764.484	20.54
764.664	20.37
764.843	20.63
765.023	20.72
765.203	20.99
765.382	21.18
765.562	21.03
765.741	21.42
765.921	21.53
766.101	21.43
766.28	21.22
766.46	20.95
766.639	21.04
766.819	20.68
766.998	20.93
767.178	20.61
767.357	20.42
767.537	20.18
767.716	20.02
767.896	20.27
768.075	20.35
768.254	20.43
768.434	20.4
768.613	20.1
768.792	20.38
768.972	20.32
769.151	20.14
769.33	20.3
769.51	20.34
769.689	20.19
769.868	20.04
770.047	20.03
770.226	20.42
770.406	20.74
770.585	21.21
770.764	21.01
770.943	20.75
771.122	20.75
771.301	20.71
771.48	21.12
771.66	21.2
771.839	20.96
772.018	21.02
772.197	21.19
772.376	20.96
772.555	20.71
772.734	20.84
772.913	20.83
773.092	20.85
773.271	20.58
773.449	20.5
773.628	20.55
773.807	20.71
773.986	20.19
774.165	20.06
774.344	20.07
774.523	20.27
774.701	20.01
774.88	20.06
775.059	20.06
775.238	20.18
775.417	19.77
775.595	19.7
775.774	19.44
775.953	19.95
776.131	19.54
776.31	19.31
776.489	19.39
776.667	19.69
776.846	19.85
777.025	19.96
777.203	20.04
777.382	20.52
777.56	20.41
777.739	20.47
777.917	20.25
778.096	20.19
778.274	20.72
778.453	20.75
778.631	20.28
778.81	20.2
778.988	20.1
779.166	20.49
779.345	20.16
779.523	20.05
779.702	20.45
779.88	20.47
780.058	20.67
780.237	20.4
780.415	20.34
780.593	20.68
780.771	20.4
780.95	20.91
781.128	20.77
781.306	21.1
781.484	21.78
781.662	21.31
781.841	21.42
782.019	21.65
782.197	21.82
782.375	21.46
782.553	21.86
782.731	22.21
782.909	21.68
783.087	21.94
783.265	22.07
783.443	22.08
783.621	22.49
783.799	22.67
783.977	22.49
784.155	22.24
784.333	22.4
784.511	22.03
784.689	22.01
784.867	22.46
785.045	21.35
785.223	20.98
785.4	20.14
785.578	19.88
785.756	19.88
785.934	19.53
786.112	19.84
786.289	19.65
786.467	19.67
786.645	19.81
786.823	19.44
787	20.23
787.178	20.44
787.356	20.89
787.533	21
787.711	21.05
787.889	21.53
788.066	21.42
788.244	21.57
788.421	21.75
788.599	21.3
788.776	21.34
788.954	21.31
789.131	21.12
789.309	20.85
789.486	21.02
789.664	21.03
789.841	20.74
790.019	20.38
790.196	20.62
790.373	20.35
790.551	20.56
790.728	20.77
790.906	21.09
791.083	20.78
791.26	20.79
791.437	20.36
791.615	20.52
791.792	20.73
791.969	20.91
792.146	20.49
792.324	20.76
792.501	20.4
792.678	20.11
792.855	19.58
793.032	19.8
793.209	20.31
793.387	20.6
793.564	19.98
793.741	20.04
793.918	20.11
794.095	20.31
794.272	20.27
794.449	20.38
794.626	20.5
794.803	20.34
794.98	20.41
795.157	20.37
795.334	20.45
795.511	20.52
795.688	19.85
795.864	20.2
796.041	20.12
796.218	19.86
796.395	19.87
796.572	19.64
796.749	19.61
796.925	19.94
797.102	19.63
797.279	19.35
797.456	19.69
797.632	20.07
797.809	19.65
797.986	19.86
798.162	20.23
798.339	20.49
798.516	20.61
798.692	21.06
798.869	20.94
799.046	20.93
799.222	21.17
799.399	20.88
799.575	21.11
799.752	21.14
799.928	20.81
800.105	20.73
800.281	20.65
800.458	21.19
800.634	20.69
800.811	20.43
800.987	20.55
801.163	20.28
801.34	19.76
801.516	19.63
801.692	19.59
801.869	20.02
802.045	20.01
802.221	19.72
802.398	19.13
802.574	19.81
802.75	19.48
802.926	19.1
803.103	19.04
803.279	20.12
803.455	20.27
803.631	21.14
803.807	20.41
803.983	20.71
804.16	20.68
804.336	19.93
804.512	19.63
804.688	20.58
804.864	20.85
805.04	21.22
805.216	20.93
805.392	20.61
805.568	19.7
805.744	20.71
805.92	20.03
806.096	20
806.272	21
806.448	20.38
806.623	19.87
806.799	20.35
806.975	20.64
807.151	21.07
807.327	20.63
807.503	21.04
807.678	20.63
807.854	20.74
808.03	21.22
808.206	21.48
808.381	21.61
808.557	21.7
808.733	21.23
808.908	21.03
809.084	20.07
809.26	20.42
809.435	20.49
809.611	20.25
809.787	20.39
809.962	19.8
810.138	19.29
810.313	19.61
810.489	19.65
810.664	19.92
810.84	19.61
811.015	20.11
811.191	19.68
811.366	18.86
811.542	18.61
811.717	18.62
811.892	19.92
812.068	20.32
812.243	20.48
812.419	19.95
812.594	19.85
812.769	19.9
812.944	19.86
813.12	20.33
813.295	20.7
813.47	20.75
813.645	20.57
813.821	19.95
813.996	19.54
814.171	19.21
814.346	19.63
814.521	19.1
814.697	18.99
814.872	19.29
815.047	18.75
815.222	18.69
815.397	19.2
815.572	19.69
815.747	19.86
815.922	19.89
816.097	19.92
816.272	19.7
816.447	19.79
816.622	19.82
816.797	19.29
816.972	20.06
817.147	20.05
817.322	20.03
817.496	19.57
817.671	19.9
817.846	19.9
818.021	20.06
818.196	20.2
818.371	20.41
818.545	20.43
818.72	20.94
818.895	20.62
819.069	20.93
819.244	21.21
819.419	21.24
819.594	20.99
819.768	21.1
819.943	21.13
820.117	21.04
820.292	21.09
820.467	21.28
820.641	21.15
820.816	21.21
820.99	21.23
821.165	21.2
821.339	21.23
821.514	21.13
821.688	21.1
821.863	21.06
822.037	21.23
822.212	21.19
822.386	21.06
822.56	21.01
822.735	21.07
822.909	20.97
823.084	20.85
823.258	20.88
823.432	20.96
823.606	20.98
823.781	20.91
823.955	20.69
824.129	20.79
824.303	20.75
824.478	20.83
824.652	20.79
824.826	20.75
825	20.94
825.174	20.73
825.348	20.37
825.523	20.49
825.697	20.54
825.871	20.66
826.045	20.59
826.219	20.79
826.393	20.74
826.567	20.71
826.741	20.71
826.915	20.82
827.089	20.89
827.263	21.15
827.437	21.11
827.611	21.08
827.784	20.98
827.958	20.91
828.132	20.81
828.306	20.83
828.48	20.83
828.654	21.04
828.827	20.57
829.001	20.48
829.175	20.36
829.349	20.39
829.522	20.32
829.696	20.22
829.87	20.52
830.044	20.91
830.217	20.72
830.391	20.48
830.565	20.48
830.738	20.2
830.912	20.47
831.085	20.44
831.259	20.57
831.432	20.85
831.606	20.74
831.779	20.59
831.953	20.17
832.126	20.36
832.3	20.39
832.473	20.26
832.647	20.61
832.82	20.72
832.994	20.65
833.167	19.97
833.34	19.74
833.514	19.94
833.687	19.82
833.86	19.88
834.034	20.21
834.207	20.34
834.38	20.05
834.553	19.94
834.727	19.88
834.9	19.93
835.073	20.18
835.246	20.33
835.419	20.37
835.593	20.93
835.766	21.07
835.939	20.71
836.112	20.69
836.285	21.11
836.458	21.17
836.631	21.53
836.804	21.43
836.977	20.96
837.15	20.84
837.323	20.49
837.496	18.99
837.669	19.16
837.842	18.61
838.015	18.31
838.188	18.54
838.361	18.88
838.533	18.25
838.706	17.75
838.879	18.06
839.052	18.57
839.225	18.65
839.398	19.57
839.57	18.75
839.743	18.36
839.916	18.86
840.088	18.47
840.261	18.29
840.434	17.65
840.607	17.87
840.779	18.62
840.952	18.39
841.124	19.26
841.297	19.41
841.47	19.33
841.642	19.66
841.815	18.26
841.987	18.39
842.16	17.92
842.332	17.6
842.505	17.88
842.677	16.96
842.85	16.69
843.022	15.14
843.194	14.32
843.367	15.15
843.539	14.87
843.712	16.03
843.884	15.92
844.056	17.13
844.229	17.13
844.401	17.96
844.573	18.38
844.745	17.68
844.918	17.37
845.09	17.41
845.262	16.27
845.434	17.6
845.606	16.91
845.779	17.79
845.951	18.01
846.123	18.94
846.295	17.44
846.467	17.74
846.639	18.46
846.811	17.69
846.983	18.39
847.155	19.51
847.327	19.81
847.499	20.65
847.671	18.67
847.843	15.92
848.015	15.56
848.187	16.66
848.359	15.43
848.531	15.57
848.703	17.36
848.875	17.84
849.047	17.49
849.218	16.65
849.39	16.23
849.562	19.57
849.734	20.58
849.905	20.06
850.077	18.55
850.249	18.83
850.421	19.07
850.592	18.59
850.764	18.03
850.936	17.97
851.107	17.66
851.279	18.15
851.451	15.58
851.622	15.39
851.794	17.69
851.965	20.57
852.137	21.9
852.308	20.89
852.48	21.29
852.651	19.07
852.823	17.8
852.994	19.33
853.166	17.77
853.337	18.23
853.509	19.23
853.68	18.18
853.851	17.77
854.023	16.17
854.194	17.58
854.365	17.18
854.537	19.45
854.708	19.91
854.879	17.47
855.05	18.59
855.222	18.39
855.393	15.93
855.564	16.26
855.735	14.06
855.906	16.02
856.078	14.25
856.249	15.43
856.42	14.36
856.591	15.42
856.762	17.11
856.933	17.81
857.104	16.61
857.275	19.79
857.446	18.59
857.617	18.46
857.788	18.73
857.959	18.89
858.13	19.32
858.301	17.59
858.472	15.84
858.643	14.1
858.814	14.03
858.985	15.33
859.155	13.62
859.326	15.55
859.497	16.97
859.668	14
859.839	14.79
860.009	13.97
860.18	14.29
860.351	16.51
860.522	16.57
860.692	15.84
860.863	14.84
861.034	15.97
861.204	14.37
861.375	13.03
861.546	14.84
861.716	13.76
861.887	12.01
862.057	12.93
862.228	12.74
862.398	12.54
862.569	14.02
862.739	16.99
862.91	16.32
863.08	16.45
863.251	15.85
863.421	13.15
863.592	13.87
863.762	15.56
863.932	15.88
864.103	13.53
864.273	14.91
864.443	13.45
864.614	12.45
864.784	12.94
864.954	13.6
865.125	16.18
865.295	18.55
865.465	19.38
865.635	18.62
865.805	18.33
865.976	19.16
866.146	19.81
866.316	19.28
866.486	19.18
866.656	18.75
866.826	18.11
866.996	17.63
867.166	17.36
867.336	16.36
867.506	17.29
867.676	16.49
867.846	15.78
868.016	11.93
868.186	11.35
868.356	11.22
868.526	11.69
868.696	11.78
868.866	11.79
869.036	10.42
869.206	10.7
869.376	10.01
869.545	9.66
869.715	10.63
869.885	14.15
870.055	14.1
870.224	14.25
870.394	13.34
870.564	14.3
870.734	12.23
870.903	12.96
871.073	11.99
871.243	14.78
871.412	15.67
871.582	17.61
871.751	18.4
871.921	20.69
872.091	17.75
872.26	17.94
872.43	15.85
872.599	17.58
872.769	19.34
872.938	21.49
873.108	19.7
873.277	18.96
873.446	18.86
873.616	17.97
873.785	18.31
873.955	20.17
874.124	20.58
874.293	21.8
874.463	23.21
874.632	22.97
874.801	22.55
874.971	22.51
875.14	24.65
875.309	21.24
875.478	19.89
875.647	19.55
875.817	19.27
875.986	15.53
876.155	14.38
876.324	11.64
876.493	13.12
876.662	11.54
876.831	10.04
877	9.53
877.17	12.7
877.339	14.19
877.508	14.63
877.677	15.27
877.846	17.86
878.015	18.57
878.184	17.96
878.352	19.2
878.521	20.99
878.69	21.24
878.859	20.99
879.028	20.3
879.197	20.02
879.366	18.78
879.534	18.82
879.703	18.88
879.872	19.35
880.041	21.79
880.21	20.97
880.378	20.72
880.547	21.53
880.716	21.56
880.884	20.9
881.053	21.06
881.222	21.21
881.39	21.29
881.559	21.63
881.727	21.77
881.896	21.13
882.065	20.91
882.233	21
882.402	20.54
882.57	20.01
882.739	20.26
882.907	20.56
883.076	20.82
883.244	21.22
883.412	21.01
883.581	20.92
883.749	20.64
883.918	20.84
884.086	21
884.254	21.75
884.423	22.66
884.591	23.07
884.759	21.59
884.927	21.5
885.096	20.13
885.264	20.11
885.432	19.59
885.6	19.32
885.769	19.07
885.937	17.37
886.105	15.04
886.273	14.66
886.441	14.47
886.609	16.02
886.777	15.08
886.945	15.05
887.113	13.76
887.281	13.1
887.449	14.35
887.617	14.4
887.785	15.58
887.953	17.41
888.121	15.2
888.289	14.87
888.457	16.8
888.625	15.29
888.793	16.28
888.961	16.55
889.129	15.65
889.296	15.28
889.464	14.66
889.632	14.3
889.8	12.44
889.967	14.46
890.135	14.36
