Data from JASIL_2996_Reflection_02.txt Node
Date: Mon Nov 09 09:54:43 EST 2015
User: Geneva
Spectrometer: USB4E03002
Autoset integration time: false
Trigger mode: 4
Integration Time (sec): 1.000000E-1
Scans to average: 10
Electric dark correction enabled: false
Nonlinearity correction enabled: false
Boxcar width: 5
Stray light correction enabled: false
XAxis mode: Wavelengths
Stop averaging: false
Number of Pixels in Spectrum: 3648
>>>>>Begin Spectral Data<<<<<
177.575	46.62
177.794	24.26
178.014	30.5
178.233	9.53
178.452	12.76
178.672	12.16
178.891	-1.3
179.11	-31.32
179.33	-72.36
179.549	-131.42
179.768	-206.9
179.987	-142.25
180.207	-63.88
180.426	-92.48
180.645	-86.47
180.864	-102.11
181.084	-92.37
181.303	-82.71
181.522	-82.17
181.741	-67.44
181.96	-37.2
182.179	-37.12
182.398	-63.31
182.618	-60.37
182.837	-32.67
183.056	-8.57
183.275	-19.47
183.494	-9.66
183.713	5.97
183.932	17.49
184.151	30.97
184.37	-0.66
184.589	-5.37
184.808	0.92
185.027	-12.45
185.246	-58.23
185.465	-32.98
185.684	-8.16
185.903	-23.1
186.122	-40.1
186.341	-61.37
186.56	-140.06
186.779	-72.06
186.998	-32.58
187.216	-10.7
187.435	-15.19
187.654	-6.98
187.873	-23.85
188.092	-97.21
188.311	-113.7
188.53	-85.09
188.748	-33.04
188.967	-62.94
189.186	-54.94
189.405	-77.08
189.623	-82.86
189.842	-85
190.061	-113.55
190.28	-152.36
190.498	-191.63
190.717	-160.58
190.936	-171.64
191.154	-399.18
191.373	-82.13
191.592	-159.25
191.81	-100.61
192.029	-268.28
192.248	-335.81
192.466	-154.62
192.685	-127.25
192.904	-48.25
193.122	-76.15
193.341	-124.47
193.559	-180.19
193.778	-175.5
193.996	-55.13
194.215	-58.89
194.433	-85.6
194.652	-67.31
194.87	-71.91
195.089	-119.02
195.307	-155.95
195.526	-96.13
195.744	-94.29
195.963	-59.14
196.181	-84.01
196.399	-131.95
196.618	-113.93
196.836	-93.91
197.055	-97.87
197.273	-139.02
197.491	-145.48
197.71	-100
197.928	-105.31
198.146	-89.51
198.365	-152.66
198.583	-92.95
198.801	-61.17
199.019	-102.59
199.238	-115.51
199.456	-89.53
199.674	-50.74
199.892	-22.95
200.111	-103.08
200.329	-132.62
200.547	-36.01
200.765	-35.95
200.983	-146.27
201.202	-360
201.42	-300
201.638	-207.46
201.856	-766.2
202.074	1659.46
202.292	1104.88
202.51	-115.76
202.728	-57.94
202.946	-237.01
203.165	-131.42
203.383	-77.06
203.601	-183.22
203.819	-355.81
204.037	-213.52
204.255	-144.33
204.473	-55.96
204.691	-86.67
204.909	-180.77
205.127	-193.95
205.345	-224.89
205.562	-668.54
205.78	-193.36
205.998	-92.68
206.216	-124.79
206.434	-159.26
206.652	-157.24
206.87	-207.59
207.088	-241.96
207.306	-161.98
207.523	-220.23
207.741	-130.67
207.959	-69.33
208.177	-174.31
208.395	-107.42
208.612	-32.76
208.83	-32.91
209.048	-29.17
209.266	-69.01
209.483	-53.3
209.701	-19.93
209.919	-4.09
210.136	-103.32
210.354	-79.83
210.572	-22.43
210.79	-75.29
211.007	-23.04
211.225	-31.88
211.442	-32.89
211.66	-17.47
211.878	-9.39
212.095	-13.32
212.313	-11.13
212.53	11.23
212.748	9.21
212.966	9.09
213.183	8.32
213.401	0.33
213.618	6.91
213.836	12.65
214.053	15.67
214.271	13.62
214.488	23.99
214.705	15.31
214.923	-2.82
215.14	6.39
215.358	-19.81
215.575	12.85
215.793	3.27
216.01	-10.24
216.227	-20
216.445	-34.22
216.662	-31.68
216.879	-28.94
217.097	-48.48
217.314	-23.22
217.531	-79.07
217.749	-44.24
217.966	-56.28
218.183	-54.63
218.4	-162.79
218.618	-174
218.835	-170.18
219.052	-617.14
219.269	-1647.37
219.487	-523.98
219.704	-1426.98
219.921	1596.49
220.138	2112.82
220.355	1400
220.572	0
220.79	-3181.82
221.007	-558.33
221.224	-384.56
221.441	-106.69
221.658	-82.45
221.875	-81.93
222.092	-60.65
222.309	-24.78
222.526	3.8
222.743	18.34
222.96	30.51
223.177	40.59
223.394	9.05
223.611	-3.81
223.828	-86.45
224.045	-92.4
224.262	-37.08
224.479	-47.92
224.696	-52.65
224.913	-84.93
225.13	-100.72
225.347	-97.02
225.564	-84.91
225.781	-64.41
225.997	-52.3
226.214	-28.76
226.431	-8.21
226.648	-24.84
226.865	-20.59
227.082	-28.22
227.298	-36.13
227.515	-32.12
227.732	-33.4
227.949	-32.24
228.165	-24.97
228.382	-18.31
228.599	-16.86
228.816	-27.97
229.032	-35.4
229.249	-34.46
229.466	-31.44
229.682	-26.03
229.899	-23.48
230.116	-32.67
230.332	-35.32
230.549	-43.46
230.765	-96.45
230.982	-88.55
231.199	-59.48
231.415	-24.55
231.632	-24.93
231.848	-23.53
232.065	-17.92
232.281	-30.11
232.498	-21.22
232.714	-9.4
232.931	-14.27
233.147	-1.24
233.364	-5.93
233.58	-10.58
233.797	-3.69
234.013	-0.39
234.23	-2.29
234.446	1.33
234.662	16.84
234.879	20.11
235.095	15.03
235.312	16.79
235.528	6.26
235.744	7.29
235.961	9.88
236.177	-2.52
236.393	-4.05
236.61	-6.49
236.826	-17.01
237.042	-15.15
237.258	-19.58
237.475	-11.15
237.691	-10.74
237.907	3.4
238.123	-3.13
238.339	-11.11
238.556	-12.94
238.772	-24.67
238.988	-18.85
239.204	-12
239.42	-18.02
239.636	0.71
239.853	0.35
240.069	1.94
240.285	2.66
240.501	9.66
240.717	4.8
240.933	4.14
241.149	6.44
241.365	6.8
241.581	2.56
241.797	2.04
242.013	-5.81
242.229	-13.16
242.445	-11.52
242.661	-12.34
242.877	-19.14
243.093	-20.49
243.309	-23.19
243.525	-29.64
243.741	-29.7
243.957	-26.5
244.173	-17.44
244.388	-19.45
244.604	-9.92
244.82	-11.58
245.036	-12.23
245.252	-9.03
245.468	-2.67
245.683	-3.28
245.899	-2.39
246.115	-3.38
246.331	-1.13
246.547	-2.67
246.762	-1.49
246.978	-4.3
247.194	-5.34
247.409	-8.81
247.625	-10.96
247.841	-13.19
248.057	-7.81
248.272	-5.08
248.488	-1.66
248.703	-0.32
248.919	-2.61
249.135	-6.82
249.35	-3.98
249.566	1.22
249.782	4.54
249.997	6.24
250.213	1.44
250.428	-4.35
250.644	-9.6
250.859	-8.45
251.075	-11.37
251.29	-12.09
251.506	-5.04
251.721	-5.03
251.937	-6.93
252.152	-3.53
252.368	-5.72
252.583	-2.71
252.798	0.53
253.014	8.74
253.229	4.97
253.445	6.12
253.66	9.02
253.875	-0.39
254.091	-2.57
254.306	-1.97
254.521	1.08
254.737	2.94
254.952	-0.49
255.167	-3.72
255.383	-6.32
255.598	-7.16
255.813	-5.2
256.028	-4.39
256.244	-3.33
256.459	-3.42
256.674	-0.31
256.889	-2.24
257.104	-4.78
257.32	-2.58
257.535	-1.81
257.75	-2.16
257.965	-0.91
258.18	-0.93
258.395	-0.71
258.61	0.04
258.826	-0.57
259.041	-1.85
259.256	-5.34
259.471	-3.03
259.686	-1.57
259.901	-3.1
260.116	-5.05
260.331	-8.48
260.546	-7.88
260.761	-10.1
260.976	-12.18
261.191	-12.66
261.406	-14.63
261.621	-6.85
261.836	-8.32
262.05	-13.4
262.265	-12.92
262.48	-10.33
262.695	-8.86
262.91	-10.52
263.125	-12.81
263.34	-15.03
263.555	-15.52
263.769	-12.49
263.984	-17.48
264.199	-22.12
264.414	-16.45
264.629	-11.32
264.843	-12.68
265.058	-11.42
265.273	-11
265.488	-7.9
265.702	-6.41
265.917	-5.5
266.132	-6.41
266.346	-1.9
266.561	5.44
266.776	0.46
266.99	0.6
267.205	7.39
267.42	9.25
267.634	10.04
267.849	9.52
268.063	12.95
268.278	15.04
268.492	14.36
268.707	12.36
268.922	9.74
269.136	9.11
269.351	6.45
269.565	4.64
269.78	2.5
269.994	3.11
270.209	1.56
270.423	-0.37
270.637	-1.42
270.852	-1.15
271.066	-2.13
271.281	-1.41
271.495	0.9
271.709	2.93
271.924	0.14
272.138	1.03
272.353	0.21
272.567	-0.49
272.781	-0.26
272.996	-0.48
273.21	-2.56
273.424	-6.15
273.638	-11.86
273.853	-10.8
274.067	-8.3
274.281	-7.78
274.495	-7.18
274.71	-6.37
274.924	-3.7
275.138	-4.67
275.352	-2.78
275.566	-1.46
275.781	2.51
275.995	7.18
276.209	6.45
276.423	2.31
276.637	2.66
276.851	0.54
277.065	-3.21
277.279	-5.56
277.493	-4.91
277.707	-6.22
277.921	-9.99
278.135	-10.08
278.349	-15.5
278.563	-23.05
278.777	-22.4
278.991	-23.95
279.205	-23.76
279.419	-22.99
279.633	-23.02
279.847	-25.43
280.061	-26.38
280.275	-21.63
280.489	-21.08
280.703	-16.57
280.917	-11.85
281.131	-9.79
281.344	-7.88
281.558	-7.99
281.772	-7.62
281.986	-4.67
282.2	-2.82
282.414	-2.33
282.627	-2.18
282.841	-1.08
283.055	-2.2
283.269	-0.21
283.482	-2
283.696	-1.17
283.91	0.25
284.123	-1.26
284.337	-0.85
284.551	2.77
284.764	3.35
284.978	4.65
285.192	3.13
285.405	3.64
285.619	0.39
285.833	1.87
286.046	-0.55
286.26	-2.82
286.473	-1.48
286.687	-4.2
286.9	-7.25
287.114	-8.14
287.327	-9.61
287.541	-10.21
287.754	-16.76
287.968	-14.28
288.181	-17.56
288.395	-18.4
288.608	-17.32
288.822	-16.32
289.035	-15.89
289.248	-17.56
289.462	-17.51
289.675	-18.57
289.889	-19.66
290.102	-13.46
290.315	-11.54
290.529	-10.99
290.742	-8.84
290.955	-7.73
291.169	-8.82
291.382	-11.36
291.595	-13.49
291.808	-13.03
292.022	-11.89
292.235	-10.53
292.448	-11.04
292.661	-14.56
292.875	-14.77
293.088	-14.2
293.301	-11.81
293.514	-11.76
293.727	-9.24
293.94	-7.73
294.153	-6.93
294.367	-8.12
294.58	-7.07
294.793	-9.3
295.006	-8.55
295.219	-3.67
295.432	-4.23
295.645	-4.08
295.858	-2.7
296.071	-1.37
296.284	-1.35
296.497	-4.76
296.71	-3.76
296.923	-3.22
297.136	-3.07
297.349	0.49
297.562	-1.71
297.775	-1.61
297.988	-1.84
298.201	-1.16
298.414	-1.61
298.626	0.51
298.839	2.98
299.052	4.65
299.265	5.58
299.478	6.93
299.691	3.85
299.903	4.92
300.116	4.81
300.329	3.39
300.542	1.67
300.755	2.05
300.967	4.07
301.18	4.01
301.393	2.09
301.605	2.36
301.818	1.21
302.031	2.64
302.243	1.14
302.456	1.86
302.669	4.26
302.881	4.69
303.094	2.98
303.307	1.87
303.519	-0.9
303.732	-0.09
303.944	-4.71
304.157	-2.67
304.37	-3.88
304.582	-5.44
304.795	-4.65
305.007	-6.4
305.22	-7.24
305.432	-8.33
305.645	-11.47
305.857	-8.96
306.069	-6.99
306.282	-3.2
306.494	-4.96
306.707	-8.44
306.919	-8.17
307.132	-9.11
307.344	-10.2
307.556	-9.31
307.769	-5.94
307.981	-4.21
308.193	-6.15
308.406	-7.79
308.618	-6.85
308.83	-4.13
309.043	0.65
309.255	1.44
309.467	0.22
309.679	-0.69
309.892	-0.35
310.104	-0.16
310.316	-0.09
310.528	4.67
310.74	4.07
310.953	3.13
311.165	3.88
311.377	1.73
311.589	1.28
311.801	3.78
312.013	7.42
312.225	8.77
312.437	7.59
312.649	6.7
312.862	2.95
313.074	2.9
313.286	6.11
313.498	4.96
313.71	4.8
313.922	5.62
314.134	4.72
314.346	3.43
314.558	1.6
314.77	1.67
314.982	4.76
315.193	8.23
315.405	7.42
315.617	5.97
315.829	3.46
316.041	1.08
316.253	0.72
316.465	1.02
316.677	0.6
316.888	2.52
317.1	2.43
317.312	-3.15
317.524	-2.74
317.736	-0.83
317.947	-3.06
318.159	-0.83
318.371	3.34
318.583	1.47
318.794	-0.11
319.006	-0.43
319.218	-3.53
319.43	0.12
319.641	4.4
319.853	1.94
320.064	-1.73
320.276	-3.04
320.488	-4.58
320.699	-7.3
320.911	-4.77
321.123	-2.65
321.334	-2.34
321.546	-1.3
321.757	-4.99
321.969	-8.68
322.18	-7.61
322.392	-6.04
322.603	-7.87
322.815	-5.19
323.026	-2.23
323.238	-0.67
323.449	-3.24
323.661	-5.05
323.872	-8.09
324.083	-7.47
324.295	-6.65
324.506	-8.32
324.718	-6.35
324.929	-3.18
325.14	-5.62
325.352	-5.14
325.563	-3.78
325.774	-3.23
325.986	-2.56
326.197	0.12
326.408	0.4
326.62	-1.31
326.831	0.11
327.042	-2.03
327.253	-3.26
327.464	-0.24
327.676	-1.8
327.887	-4.68
328.098	-1.53
328.309	0.43
328.52	-0.71
328.732	-1.86
328.943	1.36
329.154	-2.38
329.365	-3.27
329.576	-1.59
329.787	-1.89
329.998	-5.39
330.209	-6.31
330.42	-7.76
330.631	-10.19
330.842	-10.87
331.053	-7.73
331.264	-7.96
331.475	-3.64
331.686	-0.34
331.897	1.04
332.108	-0.71
332.319	1.36
332.53	-1.36
332.741	0.17
332.952	2.88
333.163	4.54
333.374	4.66
333.585	4.55
333.795	3.96
334.006	4.11
334.217	4.21
334.428	6.03
334.639	5.75
334.849	6.4
335.06	5.23
335.271	4.85
335.482	5.45
335.692	4
335.903	5.42
336.114	5.9
336.325	6.38
336.535	4.4
336.746	3.57
336.957	4.5
337.167	5.88
337.378	6.13
337.589	4.33
337.799	4.82
338.01	4.12
338.22	3.81
338.431	1.11
338.642	-0.79
338.852	-1.75
339.063	-2.88
339.273	1.09
339.484	1.05
339.694	0.84
339.905	0.28
340.115	2.77
340.326	2.41
340.536	1.56
340.746	2.19
340.957	2.03
341.167	3.41
341.378	4.93
341.588	0.28
341.799	1.56
342.009	2.08
342.219	1.82
342.43	-2
342.64	-1.31
342.85	0.07
343.061	1.19
343.271	2.6
343.481	1.09
343.691	0.58
343.902	2.93
344.112	1.73
344.322	0.88
344.532	3.43
344.743	4.03
344.953	3.65
345.163	4.04
345.373	3.6
345.583	3.47
345.793	3.93
346.004	3.65
346.214	2.17
346.424	3.57
346.634	3.22
346.844	2.85
347.054	3.32
347.264	2.51
347.474	1.15
347.684	1.86
347.894	1.75
348.104	2.49
348.314	1.89
348.524	0.8
348.734	1.45
348.944	2.21
349.154	0.57
349.364	0.65
349.574	1.88
349.784	1.53
349.994	4.36
350.204	3.82
350.413	5.31
350.623	7.12
350.833	9.56
351.043	8.22
351.253	7.75
351.463	8.13
351.672	5.83
351.882	6.91
352.092	7.42
352.302	4.84
352.511	5.29
352.721	2.83
352.931	3.37
353.141	1.68
353.35	3.48
353.56	3.95
353.77	3.15
353.979	4.9
354.189	5.34
354.399	4.24
354.608	5.48
354.818	3.99
355.027	4.41
355.237	3.81
355.447	6.42
355.656	5.23
355.866	5.32
356.075	6.45
356.285	4.9
356.494	1.77
356.704	1.6
356.913	-0.44
357.123	0.61
357.332	-1.02
357.542	-1.08
357.751	-2.65
357.96	-3.59
358.17	-4.29
358.379	-4.69
358.589	-2.8
358.798	-1.57
359.007	-0.63
359.217	-2.15
359.426	-3
359.635	-1.44
359.845	-1.95
360.054	-4.39
360.263	-3.38
360.472	-1.55
360.682	-2.41
360.891	-1.85
361.1	-1.27
361.309	-2.04
361.519	-0.21
361.728	1.38
361.937	2.71
362.146	3.31
362.355	5.75
362.564	4.94
362.774	3.36
362.983	4.6
363.192	4.18
363.401	5.45
363.61	5.9
363.819	5.32
364.028	3.81
364.237	2.17
364.446	2.26
364.655	1.24
364.864	2.9
365.073	2.53
365.282	1.19
365.491	-0.05
365.7	-0.17
365.909	-0.79
366.118	-0.44
366.327	-0.51
366.536	1.27
366.745	0.9
366.954	3.09
367.162	3.58
367.371	3.11
367.58	4.86
367.789	6.99
367.998	7.67
368.207	9.76
368.415	9.8
368.624	9.06
368.833	7.81
369.042	6.89
369.25	5.38
369.459	3.29
369.668	4.61
369.877	3.96
370.085	3.11
370.294	2.3
370.503	1.85
370.711	1.58
370.92	3.11
371.129	2.77
371.337	3.41
371.546	3.96
371.754	3.66
371.963	2.87
372.171	1.54
372.38	0.85
372.589	0.32
372.797	-2.52
373.006	-1.86
373.214	-3.11
373.423	-1.77
373.631	-2.24
373.84	-2.48
374.048	-0.99
374.256	-0.1
374.465	1.92
374.673	1.74
374.882	1.87
375.09	4.61
375.298	4.46
375.507	5.58
375.715	4.61
375.923	5.26
376.132	5.11
376.34	4.84
376.548	4.72
376.757	4.24
376.965	3.57
377.173	4.35
377.381	3.05
377.59	2.35
377.798	2.73
378.006	1.19
378.214	0.87
378.423	1.02
378.631	0.85
378.839	-0.09
379.047	-0.22
379.255	0.78
379.463	-0.53
379.671	0.6
379.879	0.63
380.088	-1.01
380.296	-0.6
380.504	-0.08
380.712	-0.71
380.92	0.07
381.128	0.72
381.336	1.17
381.544	2.67
381.752	3.65
381.96	3.66
382.168	3.23
382.376	4.22
382.584	4.44
382.791	3.85
382.999	2.78
383.207	2.26
383.415	2.5
383.623	2.28
383.831	1.81
384.039	0.57
384.247	0.54
384.454	1.74
384.662	1.49
384.87	2.13
385.078	2.3
385.285	3.32
385.493	3.34
385.701	2.8
385.909	2.01
386.116	1.59
386.324	2.75
386.532	1.27
386.739	1.31
386.947	1.33
387.155	2.4
387.362	3.56
387.57	3.57
387.778	4.24
387.985	5.33
388.193	6.31
388.4	7.02
388.608	6.49
388.816	7.57
389.023	5.62
389.231	5.84
389.438	5.44
389.646	5.87
389.853	6.53
390.061	6.17
390.268	5.33
390.475	5.47
390.683	3.55
390.89	3.79
391.098	3.82
391.305	6.09
391.512	6.79
391.72	6.24
391.927	4.5
392.135	4.19
392.342	3.38
392.549	4.05
392.756	3.82
392.964	4.29
393.171	3.91
393.378	4.51
393.586	3.88
393.793	3.2
394	3.52
394.207	5.37
394.414	6.03
394.622	6.19
394.829	6.48
395.036	6.74
395.243	7.83
395.45	8.68
395.657	6.52
395.864	6.09
396.072	5.79
396.279	6.65
396.486	4.6
396.693	4.11
396.9	5.12
397.107	5.71
397.314	5.64
397.521	5.02
397.728	4.19
397.935	5.34
398.142	5.75
398.349	5.87
398.556	4.45
398.763	3.88
398.97	4.03
399.177	3.8
399.383	2.58
399.59	1.17
399.797	1.01
400.004	2.32
400.211	1.64
400.418	1.98
400.625	2.63
400.831	3.7
401.038	4.09
401.245	3.36
401.452	2.9
401.658	2.86
401.865	4.58
402.072	4.75
402.279	3.05
402.485	3.77
402.692	3.36
402.899	3.12
403.105	2.91
403.312	3.7
403.519	4.24
403.725	4.06
403.932	4.25
404.138	3.61
404.345	2.6
404.552	3.51
404.758	2.97
404.965	4.1
405.171	4.49
405.378	4.59
405.584	4.85
405.791	5.86
405.997	6.03
406.204	4.68
406.41	4.96
406.617	5.83
406.823	4.92
407.029	6.3
407.236	5.25
407.442	6.17
407.649	6.68
407.855	5.07
408.061	3.99
408.268	4.48
408.474	5.69
408.68	5.5
408.887	5.02
409.093	5.02
409.299	4.99
409.505	4.52
409.712	2.67
409.918	1.99
410.124	2.78
410.33	2.67
410.537	3.34
410.743	3.22
410.949	2.91
411.155	3.78
411.361	4.56
411.567	4.09
411.773	4.76
411.98	3.84
412.186	4.85
412.392	5.15
412.598	5.79
412.804	4.38
413.01	4.01
413.216	4
413.422	4.13
413.628	4.29
413.834	4.9
414.04	3.75
414.246	5.81
414.452	5.22
414.658	3.55
414.864	2.17
415.07	2.21
415.275	2.73
415.481	3.17
415.687	2.85
415.893	3.59
416.099	2.87
416.305	4.14
416.511	4.11
416.716	3.3
416.922	4.7
417.128	5.25
417.334	4.83
417.539	5.08
417.745	5.28
417.951	4.87
418.157	3.78
418.362	4.17
418.568	3.09
418.774	2.4
418.979	3.22
419.185	3.46
419.391	3.57
419.596	4.06
419.802	4.14
420.008	4.12
420.213	4.12
420.419	4.27
420.624	3.92
420.83	4.41
421.035	4.97
421.241	4.74
421.446	3.95
421.652	4.1
421.857	3.85
422.063	3.76
422.268	3.59
422.474	3.62
422.679	3.78
422.885	3.58
423.09	3.83
423.295	3.27
423.501	3.14
423.706	3.43
423.911	3.4
424.117	3.65
424.322	3.17
424.527	3.03
424.733	3.51
424.938	3.42
425.143	3.48
425.349	3.7
425.554	4.57
425.759	4.44
425.964	4.59
426.169	4.37
426.375	4.36
426.58	4.77
426.785	4.64
426.99	4.27
427.195	4.79
427.4	5.38
427.605	4.69
427.811	4.05
428.016	4.16
428.221	4.8
428.426	4.72
428.631	4.29
428.836	4.16
429.041	4.75
429.246	4.79
429.451	4.26
429.656	4.13
429.861	4.17
430.066	3.95
430.271	4.61
430.476	3.87
430.681	4.21
430.886	4.8
431.09	5.19
431.295	5.44
431.5	5.75
431.705	6.08
431.91	6.48
432.115	5.96
432.32	5.86
432.524	5.44
432.729	5.9
432.934	5.18
433.139	4.91
433.343	4.76
433.548	5.32
433.753	5.28
433.958	5.03
434.162	4.79
434.367	5.1
434.572	4.97
434.776	5.3
434.981	4.37
435.186	4.72
435.39	5.58
435.595	4.96
435.799	3.29
436.004	2.9
436.209	3.5
436.413	3.3
436.618	3.75
436.822	3.83
437.027	2.92
437.231	3.61
437.436	3.64
437.64	3.16
437.845	2.98
438.049	3.97
438.253	3.96
438.458	3.3
438.662	3.07
438.867	3.04
439.071	2.93
439.275	3.26
439.48	3.03
439.684	2.89
439.888	2.23
440.093	2.6
440.297	2.4
440.501	2.95
440.706	3.14
440.91	3.12
441.114	3.26
441.318	3.37
441.523	3.48
441.727	3.47
441.931	4.08
442.135	4.42
442.339	4.44
442.543	4.38
442.748	3.97
442.952	3.66
443.156	3.43
443.36	3.68
443.564	3.88
443.768	3.91
443.972	3.06
444.176	3.11
444.38	3.04
444.584	3.26
444.788	2.9
444.992	3.06
445.196	3.1
445.4	3.77
445.604	3.45
445.808	3.43
446.012	3.53
446.216	4.33
446.42	3.98
446.624	4
446.828	3.78
447.032	3.87
447.235	3.2
447.439	3.45
447.643	3.47
447.847	3.7
448.051	3.17
448.254	3.02
448.458	3.34
448.662	3.93
448.866	4.06
449.069	4.35
449.273	3.95
449.477	4.68
449.681	4.73
449.884	4.4
450.088	4.03
450.292	4.48
450.495	5.4
450.699	5.61
450.902	5.23
451.106	5.45
451.31	5.18
451.513	6
451.717	6.64
451.92	6.23
452.124	6.1
452.327	5.74
452.531	5.9
452.734	5.52
452.938	5.34
453.141	5.54
453.345	4.87
453.548	4.87
453.752	5.18
453.955	5.58
454.158	5.45
454.362	5.9
454.565	6.45
454.769	6.96
454.972	6.52
455.175	5.51
455.379	4.52
455.582	5.26
455.785	4.97
455.988	3.6
456.192	2.35
456.395	2.73
456.598	1.88
456.801	1.32
457.005	1.03
457.208	0.72
457.411	1.74
457.614	1.85
457.817	1.8
458.021	1.75
458.224	2.31
458.427	1.99
458.63	2
458.833	2.09
459.036	2.19
459.239	1.9
459.442	2.99
459.645	2.87
459.848	3.03
460.051	3.2
460.254	4.02
460.457	4.03
460.66	4.24
460.863	4.37
461.066	5.12
461.269	5.16
461.472	5.45
461.675	3.83
461.878	3.96
462.081	4.01
462.284	3.84
462.486	3.36
462.689	3.99
462.892	4.14
463.095	4.23
463.298	3.66
463.5	3.86
463.703	3.66
463.906	4.78
464.109	5.08
464.311	5.44
464.514	5.56
464.717	5.46
464.92	5.09
465.122	4.64
465.325	4.6
465.528	4.84
465.73	4.55
465.933	4.83
466.135	3.47
466.338	3.28
466.541	3.22
466.743	2.99
466.946	3.47
467.148	3.26
467.351	4.29
467.553	3.44
467.756	2.99
467.958	3.64
468.161	3.95
468.363	4.44
468.566	3.83
468.768	3.28
468.971	2.78
469.173	2.67
469.375	2.49
469.578	2.23
469.78	2.74
469.983	2.8
470.185	2.11
470.387	1.7
470.59	2.73
470.792	3.01
470.994	3.19
471.196	3.71
471.399	3.62
471.601	4.19
471.803	3.81
472.005	3.34
472.208	3.6
472.41	3.68
472.612	3.62
472.814	2.56
473.016	2.52
473.218	3.45
473.421	3.67
473.623	3
473.825	2.33
474.027	2.4
474.229	3.14
474.431	2.99
474.633	2.32
474.835	2.55
475.037	3.24
475.239	2.96
475.441	2.64
475.643	2.78
475.845	2.99
476.047	3.61
476.249	3.59
476.451	3.3
476.653	3.61
476.855	4.5
477.057	4.31
477.258	4.19
477.46	4.75
477.662	4.54
477.864	4.66
478.066	5.22
478.268	4.87
478.469	5.36
478.671	5.65
478.873	5.42
479.075	4.6
479.276	4.63
479.478	4.61
479.68	4.14
479.882	4.07
480.083	3.59
480.285	3.27
480.487	3.43
480.688	2.97
480.89	2.99
481.091	3.23
481.293	3.53
481.495	3.59
481.696	3.68
481.898	3.75
482.099	3.75
482.301	3.88
482.502	3.96
482.704	4.07
482.905	4.16
483.107	4.25
483.308	4.31
483.51	4.47
483.711	4.53
483.913	4.53
484.114	4.42
484.315	4.43
484.517	4.3
484.718	4.13
484.92	3.92
485.121	3.9
485.322	3.8
485.524	3.87
485.725	3.67
485.926	3.46
486.127	3.37
486.329	3.44
486.53	3.74
486.731	3.87
486.932	4.15
487.134	4.12
487.335	4.02
487.536	4.09
487.737	3.83
487.938	3.91
488.139	3.79
488.341	3.94
488.542	4.11
488.743	3.68
488.944	3.53
489.145	3.06
489.346	3.05
489.547	3.11
489.748	2.86
489.949	2.98
490.15	3.1
490.351	3.43
490.552	3.41
490.753	3.37
490.954	3.31
491.155	3.53
491.356	3.77
491.557	3.75
491.758	3.86
491.959	4.14
492.159	4
492.36	4.08
492.561	4.35
492.762	4.33
492.963	4.46
493.164	4.89
493.364	5.02
493.565	5.09
493.766	4.87
493.967	4.83
494.167	4.35
494.368	4.31
494.569	4.12
494.769	3.4
494.97	3.29
495.171	3.27
495.371	2.79
495.572	2.35
495.773	2.32
495.973	2.66
496.174	3.49
496.375	3.42
496.575	3.27
496.776	3.23
496.976	3.7
497.177	3.63
497.377	3.58
497.578	3.96
497.778	4.23
497.979	4.21
498.179	4.53
498.38	3.95
498.58	4.58
498.78	5.14
498.981	5.29
499.181	4.89
499.382	5
499.582	5.11
499.782	4.56
499.983	4.41
500.183	4.49
500.383	4.06
500.584	3.39
500.784	3.42
500.984	3.03
501.184	2.9
501.385	3.4
501.585	2.85
501.785	2.79
501.985	3.12
502.185	3.43
502.386	3.36
502.586	3.63
502.786	3.9
502.986	3.79
503.186	4.09
503.386	4.54
503.586	4.24
503.786	5.01
503.987	4.59
504.187	4.68
504.387	4.47
504.587	4.28
504.787	4.55
504.987	4.83
505.187	4.81
505.387	4.32
505.587	3.24
505.786	3.42
505.986	2.89
506.186	3
506.386	2.89
506.586	3.08
506.786	3.77
506.986	3.76
507.186	3.88
507.386	3.97
507.585	4.45
507.785	4.93
507.985	5.16
508.185	5.54
508.384	5.38
508.584	5.5
508.784	4.95
508.984	4.62
509.183	4.54
509.383	3.98
509.583	3.95
509.782	3.8
509.982	3.89
510.182	3.76
510.381	3.66
510.581	4.09
510.781	4.19
510.98	4.55
511.18	4.89
511.379	4.71
511.579	4.88
511.778	4.71
511.978	4.85
512.177	5.3
512.377	5.42
512.576	5.61
512.776	5.45
512.975	5.47
513.175	5.71
513.374	5.6
513.573	5.38
513.773	5.42
513.972	5.3
514.172	5
514.371	4.57
514.57	3.99
514.77	4.27
514.969	4.44
515.168	4.5
515.367	4.28
515.567	3.82
515.766	3.85
515.965	4.22
516.164	4.24
516.364	4.44
516.563	4.31
516.762	4.72
516.961	4.59
517.16	5.11
517.359	5.75
517.559	5.71
517.758	6.18
517.957	6.17
518.156	5.68
518.355	5.9
518.554	5.67
518.753	5.81
518.952	5.84
519.151	6.02
519.35	5.52
519.549	4.68
519.748	4.75
519.947	4.06
520.146	4.28
520.345	5
520.544	4.82
520.743	4.87
520.942	5.04
521.141	5.22
521.339	5.55
521.538	5.62
521.737	5.75
521.936	6.14
522.135	6.66
522.333	6.6
522.532	6.59
522.731	6.71
522.93	6.8
523.129	6.62
523.327	6.41
523.526	5.79
523.725	5.52
523.923	5.54
524.122	5.3
524.321	5.33
524.519	5.22
524.718	5.01
524.917	4.9
525.115	5.11
525.314	5.28
525.512	5.29
525.711	5.32
525.909	5.67
526.108	6.01
526.306	6.1
526.505	6.1
526.703	6.43
526.902	6.44
527.1	6.5
527.299	6.65
527.497	6.75
527.696	6.82
527.894	6.96
528.092	6.92
528.291	6.73
528.489	6.71
528.688	6.75
528.886	6.61
529.084	7.03
529.283	7.19
529.481	7.03
529.679	6.79
529.877	6.82
530.076	6.78
530.274	6.96
530.472	7.15
530.67	7.38
530.869	7.43
531.067	7.38
531.265	7.09
531.463	6.85
531.661	7
531.859	7.17
532.057	7.21
532.255	6.87
532.454	6.69
532.652	6.97
532.85	6.66
533.048	6.68
533.246	6.91
533.444	7.06
533.642	7.15
533.84	6.86
534.038	6.92
534.236	7.04
534.434	7.48
534.632	7.61
534.83	7.55
535.027	7.63
535.225	7.57
535.423	7.44
535.621	7.2
535.819	7.21
536.017	7.28
536.215	7.59
536.412	7.15
536.61	7.05
536.808	7.2
537.006	7.19
537.203	7.39
537.401	7.51
537.599	7.57
537.797	7.55
537.994	8.03
538.192	8.04
538.39	7.62
538.587	7.75
538.785	8
538.983	8.25
539.18	8.09
539.378	7.84
539.575	7.84
539.773	8.05
539.97	7.9
540.168	7.73
540.366	8.02
540.563	8.02
540.761	8.07
540.958	7.97
541.155	7.58
541.353	7.66
541.55	8.1
541.748	8.3
541.945	8.23
542.143	8.35
542.34	8.39
542.537	8.05
542.735	8.04
542.932	8.32
543.129	8.44
543.327	8.47
543.524	8.33
543.721	8.07
543.919	7.53
544.116	7.17
544.313	7.52
544.51	7.33
544.708	7.64
544.905	7.63
545.102	7.56
545.299	7.5
545.496	8.15
545.693	8.67
545.891	9.05
546.088	8.8
546.285	9.09
546.482	8.91
546.679	9.65
546.876	9.56
547.073	9.82
547.27	9.74
547.467	10.31
547.664	9.36
547.861	8.47
548.058	8.26
548.255	8.35
548.452	8.53
548.649	8.56
548.846	7.81
549.043	8.43
549.24	8.61
549.437	8.73
549.633	8.36
549.83	8.98
550.027	9.74
550.224	9.69
550.421	10.36
550.618	10.35
550.814	9.83
551.011	9.98
551.208	10.12
551.405	10.15
551.601	10.16
551.798	10.1
551.995	9.8
552.191	9.19
552.388	8.72
552.585	8.54
552.781	7.8
552.978	8.06
553.175	8.38
553.371	8.03
553.568	7.89
553.764	8.02
553.961	8.6
554.157	8.59
554.354	8.98
554.55	9.61
554.747	9.82
554.943	10.69
555.14	11.45
555.336	11.53
555.533	10.58
555.729	10.18
555.926	10.14
556.122	9.28
556.318	9.54
556.515	9.88
556.711	9.49
556.907	9.7
557.104	9.98
557.3	9.77
557.496	9.68
557.693	10.46
557.889	11.03
558.085	10.74
558.281	11.03
558.478	11.77
558.674	11.6
558.87	12.3
559.066	12.05
559.262	11.77
559.459	11.89
559.655	11.83
559.851	11.74
560.047	11.49
560.243	11.74
560.439	11.53
560.635	11.02
560.831	10.86
561.027	9.88
561.223	10.39
561.419	10.51
561.615	9.93
561.811	10.27
562.007	10.01
562.203	10.31
562.399	10.32
562.595	10.89
562.791	10.94
562.987	10.75
563.183	11.89
563.379	11.77
563.575	12.03
563.771	12.35
563.966	12.35
564.162	13.11
564.358	13.34
564.554	13.59
564.75	13.21
564.945	13.07
565.141	13.2
565.337	12.72
565.533	12.87
565.728	12.37
565.924	12.53
566.12	11.64
566.315	11.08
566.511	10.88
566.707	10.94
566.902	11.35
567.098	11.61
567.293	12.29
567.489	12.46
567.684	12.11
567.88	12.44
568.076	12.57
568.271	13
568.467	13.28
568.662	13.09
568.858	12.85
569.053	12.73
569.248	12.71
569.444	11.89
569.639	12.27
569.835	12.26
570.03	12.76
570.225	12.52
570.421	12.6
570.616	12.54
570.812	12.04
571.007	12.1
571.202	12.18
571.397	12.77
571.593	13.1
571.788	12.56
571.983	13.19
572.178	12.52
572.374	12.5
572.569	12.46
572.764	12.48
572.959	12.8
573.154	12.73
573.35	12.83
573.545	12.68
573.74	12.92
573.935	13.06
574.13	12.82
574.325	13
574.52	13.07
574.715	13.02
574.91	12.94
575.105	13.59
575.3	13.76
575.495	13.39
575.69	13.31
575.885	13.8
576.08	14.69
576.275	14.65
576.47	15.43
576.665	16.21
576.86	16.68
577.055	17.24
577.25	16.96
577.444	16.54
577.639	16.25
577.834	15.09
578.029	14.02
578.224	13.17
578.418	13.49
578.613	12.8
578.808	12.55
579.003	12.39
579.197	12.27
579.392	12.49
579.587	12.32
579.781	12.57
579.976	13.37
580.171	13.75
580.365	13.93
580.56	13.8
580.755	14.56
580.949	14.25
581.144	15.16
581.338	15.67
581.533	16.11
581.727	16.48
581.922	17.22
582.116	18.09
582.311	17.98
582.505	18.58
582.7	19.08
582.894	18.33
583.089	18.26
583.283	17.32
583.478	17.77
583.672	17.24
583.866	16.94
584.061	17.13
584.255	16.12
584.449	16.08
584.644	15.6
584.838	15.28
585.032	14.93
585.226	15.31
585.421	15.51
585.615	14.23
585.809	13.73
586.003	14.36
586.198	14.36
586.392	14.7
586.586	15.1
586.78	14.57
586.974	14.05
587.168	15.16
587.363	14.85
587.557	15.1
587.751	15.56
587.945	15.56
588.139	15.27
588.333	14.79
588.527	15.29
588.721	15.31
588.915	15.44
589.109	15.18
589.303	14.24
589.497	14.1
589.691	13.44
589.885	13.47
590.079	14.22
590.273	14.46
590.466	14.5
590.66	14.03
590.854	14.55
591.048	14.35
591.242	15.02
591.436	15.15
591.629	14.64
591.823	15.81
592.017	15.41
592.211	14.55
592.404	14.8
592.598	14.65
592.792	14.17
592.986	12.85
593.179	13.01
593.373	13.02
593.567	12.27
593.76	12.74
593.954	11.93
594.147	12.41
594.341	12.54
594.535	12.7
594.728	12.72
594.922	13.5
595.115	14.08
595.309	14.68
595.502	14.57
595.696	15.29
595.889	15.49
596.083	15.68
596.276	14.85
596.47	14.78
596.663	14.16
596.856	15.12
597.05	15.1
597.243	15.18
597.437	14.8
597.63	14.77
597.823	14.77
598.017	14.34
598.21	15.18
598.403	15.71
598.596	16.06
598.79	16.91
598.983	16.06
599.176	15.46
599.369	15.82
599.563	15.43
599.756	16.33
599.949	17.02
600.142	17.2
600.335	15.6
600.528	15.69
600.722	16.44
600.915	16.38
601.108	16.35
601.301	16.07
601.494	15.64
601.687	16.51
601.88	15.39
602.073	15.06
602.266	15.13
602.459	15.78
602.652	16.45
602.845	16.05
603.038	15.45
603.231	15.36
603.424	15.63
603.617	15.99
603.809	15.72
604.002	15.52
604.195	15.03
604.388	15.18
604.581	15.17
604.774	14.77
604.966	15.5
605.159	15.67
605.352	15.85
605.545	15.62
605.737	15.66
605.93	15.31
606.123	15.67
606.316	15.8
606.508	15.12
606.701	15.27
606.894	14.99
607.086	13.6
607.279	14.29
607.471	13.93
607.664	14.75
607.857	14.37
608.049	14.83
608.242	14.24
608.434	14.51
608.627	15.39
608.819	15.35
609.012	15.9
609.204	16.45
609.397	16.26
609.589	16.67
609.782	16.52
609.974	15.97
610.166	16.33
610.359	17.2
610.551	17.23
610.743	17.29
610.936	18.03
611.128	17.41
611.32	17.95
611.513	17.73
611.705	17.79
611.897	18.16
612.09	18.28
612.282	17.9
612.474	17.82
612.666	17.37
612.858	17.65
613.051	16.98
613.243	17.27
613.435	16.78
613.627	16.48
613.819	16.57
614.011	16.14
614.203	16.39
614.395	16.18
614.588	16.08
614.78	16.41
614.972	15.01
615.164	14.53
615.356	14.6
615.548	15.84
615.74	16.88
615.932	16.49
616.124	16.65
616.315	16.21
616.507	16.29
616.699	16.04
616.891	15.62
617.083	17.23
617.275	17.09
617.467	17.02
617.659	16.22
617.85	15.53
618.042	16.34
618.234	16.13
618.426	16.84
618.618	17.18
618.809	18.48
619.001	19.15
619.193	18.23
619.384	19.36
619.576	19.75
619.768	19.3
619.959	19.19
620.151	18.34
620.343	18.37
620.534	18.94
620.726	19.43
620.917	17.21
621.109	16.9
621.301	16.94
621.492	16.46
621.684	16.22
621.875	16.22
622.067	15.95
622.258	15.13
622.45	15.88
622.641	15.08
622.832	14.72
623.024	16.32
623.215	16.57
623.407	16.8
623.598	15.61
623.789	14.77
623.981	15.27
624.172	15.55
624.363	16.89
624.555	16.86
624.746	17.09
624.937	16.48
625.129	16.82
625.32	16.84
625.511	16.19
625.702	16.64
625.893	17.58
626.085	17.72
626.276	17.5
626.467	17.98
626.658	18.06
626.849	18.5
627.04	17.9
627.231	17.82
627.422	18.08
627.614	18.72
627.805	19.22
627.996	18.54
628.187	17.99
628.378	19.37
628.569	18.6
628.76	16.93
628.951	16.28
629.142	17.09
629.332	15.62
629.523	15.12
629.714	14.96
629.905	14.85
630.096	15.82
630.287	15.27
630.478	13.95
630.669	13.73
630.859	15.72
631.05	15.86
631.241	15.8
631.432	17.3
631.623	16.66
631.813	16.71
632.004	16.69
632.195	16.05
632.385	16
632.576	16.12
632.767	16.49
632.957	15.7
633.148	16.15
633.339	16.2
633.529	16.31
633.72	17.39
633.91	17.57
634.101	18.5
634.292	17.85
634.482	18.9
634.673	18.99
634.863	18.71
635.054	19.06
635.244	18.94
635.435	18.65
635.625	17.8
635.815	17.48
636.006	16.74
636.196	16.71
636.387	17.16
636.577	16.8
636.767	16.87
636.958	16.59
637.148	16.49
637.338	16.79
637.529	17.16
637.719	16.95
637.909	16.97
638.099	17.23
638.29	17.16
638.48	17.6
638.67	17.53
638.86	17.88
639.05	17.75
639.241	17.59
639.431	17.38
639.621	16.33
639.811	16.87
640.001	17.04
640.191	16.74
640.381	14.91
640.571	14.24
640.761	14.84
640.951	15.53
641.141	15.65
641.331	15.12
641.521	15.28
641.711	15.2
641.901	15.47
642.091	13.67
642.281	14.78
642.471	15.36
642.661	17.39
642.851	16.52
643.041	14.37
643.231	14.97
643.42	16.21
643.61	15.49
643.8	16.41
643.99	17.02
644.18	18.21
644.369	17.33
644.559	17.19
644.749	15.35
644.939	15.58
645.128	16.54
645.318	16.25
645.508	13.92
645.697	13.92
645.887	14.35
646.076	13.76
646.266	14.1
646.456	14.56
646.645	13.93
646.835	15.25
647.024	15.89
647.214	16.79
647.403	17.15
647.593	19.14
647.782	20.71
647.972	21.13
648.161	20.34
648.351	20.34
648.54	19.86
648.73	20.81
648.919	20.6
649.108	20.14
649.298	19.63
649.487	19.98
649.677	19.82
649.866	18.61
650.055	17.82
650.244	18.66
650.434	19.16
650.623	19.83
650.812	19.62
651.002	19.3
651.191	19.58
651.38	19.54
651.569	19.55
651.758	18.59
651.947	19.44
652.137	20.29
652.326	20.36
652.515	19.44
652.704	18.61
652.893	17.87
653.082	18.66
653.271	18.75
653.46	18.09
653.649	17.85
653.838	19.66
654.027	19.37
654.216	18.65
654.405	19.15
654.594	19.92
654.783	20.4
654.972	21.82
655.161	20.09
655.35	19.25
655.539	18.94
655.728	18.5
655.916	17.85
656.105	16.65
656.294	17.44
656.483	16.74
656.672	15.86
656.86	15.76
657.049	15.57
657.238	16.49
657.427	17.72
657.615	19.83
657.804	20.89
657.993	19.68
658.181	19.71
658.37	19.41
658.559	19.62
658.747	20.81
658.936	20.59
659.125	18.77
659.313	19.14
659.502	18.42
659.69	16.85
659.879	16.54
660.067	17.5
660.256	18.26
660.444	18
660.633	18.5
660.821	18.13
661.01	18.63
661.198	20.7
661.387	20.41
661.575	21.05
661.763	20.55
661.952	20.34
662.14	20.02
662.328	19.46
662.517	18.3
662.705	15.87
662.893	16.64
663.082	16.01
663.27	15.52
663.458	14.91
663.646	14.21
663.834	15.51
664.023	13.71
664.211	12.57
664.399	11.75
664.587	12.46
664.775	14.17
664.963	12.81
665.152	14.45
665.34	14.81
665.528	15.3
665.716	16.16
665.904	16.23
666.092	16.71
666.28	17.29
666.468	17.65
666.656	18.82
666.844	18.02
667.032	17.38
667.22	14.74
667.408	14.85
667.596	14.94
667.784	14.68
667.971	13.53
668.159	14.13
668.347	14.51
668.535	13.87
668.723	12.19
668.911	13.66
669.098	14.8
669.286	16.55
669.474	16.36
669.662	16.28
669.849	17.24
670.037	17.54
670.225	18.14
670.413	18.55
670.6	19.44
670.788	19.14
670.976	17.19
671.163	17.28
671.351	16.24
671.538	15.58
671.726	15.54
671.913	14.17
672.101	14.47
672.289	14.54
672.476	13.83
672.664	13.6
672.851	14.36
673.039	14.99
673.226	14.88
673.413	15.28
673.601	15.16
673.788	15.14
673.976	16.05
674.163	16.2
674.35	14.11
674.538	15.29
674.725	16.09
674.912	15.39
675.1	15.79
675.287	15.97
675.474	16.88
675.662	17.54
675.849	17.67
676.036	16.27
676.223	16.44
676.411	18.2
676.598	18.55
676.785	18.98
676.972	19.8
677.159	20.18
677.346	19.33
677.533	19.48
677.721	19.97
677.908	20.68
678.095	21.19
678.282	20.55
678.469	19.95
678.656	19.16
678.843	18.6
679.03	18
679.217	18.54
679.404	18.67
679.591	19.1
679.778	18.31
679.964	18.81
680.151	16.74
680.338	17.02
680.525	16.65
680.712	16.36
680.899	17.63
681.086	18.34
681.272	17.67
681.459	17.66
681.646	17.02
681.833	18.79
682.02	16.81
682.206	19.59
682.393	20.61
682.58	20.88
682.766	21.01
682.953	19.37
683.14	20.79
683.326	20.87
683.513	21.24
683.7	21
683.886	19.04
684.073	19.23
684.259	18.54
684.446	16.83
684.632	16.71
684.819	16.33
685.005	17.1
685.192	13.98
685.378	13.51
685.565	13.72
685.751	13.9
685.938	13.21
686.124	14.08
686.31	14.32
686.497	15.88
686.683	15.69
686.87	16.14
687.056	16.05
687.242	18.34
687.429	17.61
687.615	16.37
687.801	16.17
687.987	17.07
688.174	16.88
688.36	15.8
688.546	15.42
688.732	17.25
688.918	18.04
689.105	17.2
689.291	18.01
689.477	18.97
689.663	20.58
689.849	22.25
690.035	24.41
690.221	23.62
690.407	23.02
690.593	21.93
690.779	20.02
690.965	19.81
691.151	20.46
691.337	18.36
691.523	19.58
691.709	19.56
691.895	17.56
692.081	15.11
692.267	15.95
692.453	16.61
692.639	18.56
692.825	18.19
693.011	17.62
693.196	17
693.382	14.31
693.568	11.42
693.754	9.95
693.94	11.14
694.125	11.31
694.311	10.15
694.497	12.38
694.682	9.43
694.868	10.02
695.054	11.24
695.239	12.18
695.425	14.88
695.611	17.06
695.796	17.55
695.982	16.49
696.168	16.82
696.353	16.76
696.539	15.49
696.724	17.84
696.91	18.07
697.095	17.66
697.281	17.78
697.466	18.05
697.652	18.14
697.837	17.85
698.023	18.3
698.208	18.94
698.393	18.85
698.579	19.57
698.764	18.18
698.949	18.73
699.135	18.27
699.32	16.85
699.505	16.01
699.691	15.95
699.876	17.24
700.061	16.44
700.246	16.27
700.432	18.6
700.617	17.31
700.802	19.06
700.987	18.12
701.172	18.52
701.358	18.6
701.543	20.07
701.728	19.13
701.913	18.08
702.098	18.75
702.283	20.42
702.468	17.84
702.653	17.77
702.838	16.33
703.023	15.15
703.208	14.95
703.393	14.86
703.578	14.93
703.763	16.06
703.948	15.96
704.133	16.96
704.318	15.5
704.503	16.74
704.688	18.33
704.873	19.07
705.057	20.73
705.242	23.73
705.427	27.21
705.612	27.6
705.797	25.56
705.981	24.12
706.166	22.87
706.351	21.21
706.536	22.66
706.72	22.25
706.905	23.26
707.09	24.39
707.274	22.97
707.459	20.79
707.644	18.59
707.828	18.45
708.013	20.14
708.197	19.36
708.382	21.33
708.567	20.4
708.751	20.14
708.936	18.03
709.12	16.79
709.305	14.11
709.489	14.65
709.673	15.4
709.858	18.27
710.042	16.97
710.227	18.45
710.411	15.94
710.596	14.95
710.78	15.25
710.964	15.48
711.149	16.56
711.333	18.31
711.517	17.74
711.702	18.91
711.886	16.22
712.07	18.91
712.254	18.57
712.438	20.33
712.623	20.51
712.807	19.99
712.991	18.98
713.175	18.83
713.359	19.16
713.544	19.1
713.728	20.33
713.912	20.29
714.096	18.64
714.28	19.26
714.464	16.94
714.648	17.68
714.832	19.13
715.016	20.35
715.2	18.51
715.384	16.41
715.568	17
715.752	14.55
715.936	13.79
716.12	12.94
716.304	11.77
716.488	13.48
716.671	12.61
716.855	9.34
717.039	9.81
717.223	12.13
717.407	15.67
717.59	13.7
717.774	15.18
717.958	15.08
718.142	14.5
718.325	15.26
718.509	14.42
718.693	13.57
718.877	13.47
719.06	11.78
719.244	11.03
719.428	8.11
719.611	8.92
719.795	6.23
719.978	6.83
720.162	10.12
720.345	12.83
720.529	15.77
720.713	16.64
720.896	17.56
721.08	17.48
721.263	16.83
721.446	15.41
721.63	14.71
721.813	14.98
721.997	14.33
722.18	10.8
722.364	7.2
722.547	4.66
722.73	3.53
722.914	5.17
723.097	9.23
723.28	7.67
723.464	11.12
723.647	13.6
723.83	13.4
724.013	14.44
724.197	16.27
724.38	15.53
724.563	14.58
724.746	17.09
724.929	16.44
725.112	10.44
725.296	14.4
725.479	12.54
725.662	10.7
725.845	12.64
726.028	15.02
726.211	15.32
726.394	16.97
726.577	19.82
726.76	18.56
726.943	21.3
727.126	23.46
727.309	20.23
727.492	23.4
727.675	24.46
727.858	23.42
728.041	20.98
728.224	21.64
728.407	21.54
728.589	20.52
728.772	20.15
728.955	19.91
729.138	21.19
729.321	22.26
729.503	20.15
729.686	20.44
729.869	19.97
730.052	21.86
730.234	18.56
730.417	19.07
730.6	17.99
730.782	17.42
730.965	15.94
731.148	13.73
731.33	13.47
731.513	12.63
731.695	11.18
731.878	14.37
732.061	12.42
732.243	13.8
732.426	13.27
732.608	14.46
732.791	16.02
732.973	16.89
733.156	15.29
733.338	17.81
733.52	19.29
733.703	18.01
733.885	13.8
734.068	16.76
734.25	19.33
734.432	21.54
734.615	19.78
734.797	19.49
734.979	19.12
735.162	21.68
735.344	19.91
735.526	17.91
735.708	19.95
735.891	23.23
736.073	25.46
736.255	25.3
736.437	23.37
736.619	24.64
736.802	24.95
736.984	25.6
737.166	24.99
737.348	23.37
737.53	26.25
737.712	25.35
737.894	24.83
738.076	21.82
738.258	19.08
738.44	20.51
738.622	19.88
738.804	20.26
738.986	17.66
739.168	17.88
739.35	20.84
739.532	18.27
739.714	20.65
739.896	19.34
740.078	19.79
740.259	22.1
740.441	19.15
740.623	19.67
740.805	19.37
740.987	22.8
741.168	22.64
741.35	19.24
741.532	18.93
741.714	18.72
741.895	18.33
742.077	17.09
742.259	19.12
742.44	20.19
742.622	17.35
742.804	15.96
742.985	14.07
743.167	12.78
743.348	15.96
743.53	16.4
743.711	15.61
743.893	14.67
744.075	18.27
744.256	15.35
744.438	13.69
744.619	17.65
744.8	18.55
744.982	17.51
745.163	16.36
745.345	14.71
745.526	14.94
745.707	15.38
745.889	16.09
746.07	11.98
746.252	14.26
746.433	15.21
746.614	17.48
746.795	16.75
746.977	15.66
747.158	20.58
747.339	23.87
747.52	23.08
747.702	15.02
747.883	14.85
748.064	18.46
748.245	19.45
748.426	16.16
748.607	14.96
748.788	17.29
748.97	17.17
749.151	17.74
749.332	15.2
749.513	14.31
749.694	22.45
749.875	23.41
750.056	19.47
750.237	21.2
750.418	27.35
750.599	22.32
750.78	23.09
750.96	23.44
751.141	18.21
751.322	15.29
751.503	14.06
751.684	12.36
751.865	12.63
752.046	10.73
752.226	6.39
752.407	1.96
752.588	7.54
752.769	1.6
752.949	3.23
753.13	7.98
753.311	8.86
753.492	10.66
753.672	12.74
753.853	10.78
754.034	18.72
754.214	20.64
754.395	25.04
754.575	24.44
754.756	27.67
754.937	26.13
755.117	27.52
755.298	29.04
755.478	28.94
755.659	25.65
755.839	26.98
756.02	22.21
756.2	21.56
756.381	20.46
756.561	16.3
756.741	16.92
756.922	16.17
757.102	14.45
757.283	15.77
757.463	16.07
757.643	19.14
757.823	19.81
758.004	20.81
758.184	21.7
758.364	19.86
758.545	18.98
758.725	17.38
758.905	16.5
759.085	17.19
759.265	15.95
759.446	17.22
759.626	12.54
759.806	13.93
759.986	13.09
760.166	11.19
760.346	8.08
760.526	10.86
760.706	10.4
760.886	14.35
761.066	12.01
761.246	8.54
761.426	7.31
761.606	8.6
761.786	4.82
761.966	7.58
762.146	8.17
762.326	9.99
762.506	12.52
762.686	13.03
762.866	11.41
763.046	14.03
763.225	16.43
763.405	15.16
763.585	16.82
763.765	18.92
763.945	17.8
764.124	16.78
764.304	17.26
764.484	12.69
764.664	13.74
764.843	14.09
765.023	13.79
765.203	14.25
765.382	16.44
765.562	13.68
765.741	14.01
765.921	9.19
766.101	14.77
766.28	15.12
766.46	19.99
766.639	23.11
766.819	24.75
766.998	19.29
767.178	21.15
767.357	22.43
767.537	23.36
767.716	24.92
767.896	31.98
768.075	29.58
768.254	29.95
768.434	26.42
768.613	21.22
768.792	24.82
768.972	30.3
769.151	24.79
769.33	24.6
769.51	24.78
769.689	20.4
769.868	19.74
770.047	18.33
770.226	20.49
770.406	19.96
770.585	14.66
770.764	11.26
770.943	8.13
771.122	10.62
771.301	12.37
771.48	10.9
771.66	19.02
771.839	20.32
772.018	17.6
772.197	17.91
772.376	22.31
772.555	30.62
772.734	30.5
772.913	32.28
773.092	34.69
773.271	34.35
773.449	38.39
773.628	29.22
773.807	25.38
773.986	26.75
774.165	24.11
774.344	16.56
774.523	11.9
774.701	14.87
774.88	14.82
775.059	15.8
775.238	16.76
775.417	17.69
775.595	24.23
775.774	19.88
775.953	19.53
776.131	26.11
776.31	25.81
776.489	30.36
776.667	28.51
776.846	33.34
777.025	30.47
777.203	29.98
777.382	25.66
777.56	28.01
777.739	32.27
777.917	34.08
778.096	28.64
778.274	30.88
778.453	29.03
778.631	27.45
778.81	23.29
778.988	24.91
779.166	25.27
779.345	22.31
779.523	16.53
779.702	20.16
779.88	21.86
780.058	22.96
780.237	20.07
780.415	20.52
780.593	21.39
780.771	26.19
780.95	27.63
781.128	27.92
781.306	31.92
781.484	33.96
781.662	31.21
781.841	28.95
782.019	28.63
782.197	30.27
782.375	32.46
782.553	27.8
782.731	23.16
782.909	22.45
783.087	21.25
783.265	15.22
783.443	11.79
783.621	16.08
783.799	12.67
783.977	9.16
784.155	8.15
784.333	3.21
784.511	4.21
784.689	5.32
784.867	-0.3
785.045	-3.97
785.223	-2.46
785.4	2.34
785.578	0.68
785.756	5.92
785.934	11.25
786.112	9.8
786.289	11.5
786.467	11.48
786.645	8.61
786.823	14.2
787	14.58
787.178	15.07
787.356	12.25
787.533	12.18
787.711	12.45
787.889	4.28
788.066	12.25
788.244	13.03
788.421	14.35
788.599	15.6
788.776	11.47
788.954	15.33
789.131	24.67
789.309	24.72
789.486	25.44
789.664	23.07
789.841	25.25
790.019	19.25
790.196	19.75
790.373	17.96
790.551	14.44
790.728	13.87
790.906	7.23
791.083	4.57
791.26	1.79
791.437	0
791.615	-1.66
791.792	2.65
791.969	5.18
792.146	0.81
792.324	6.75
792.501	14.07
792.678	8.29
792.855	17.81
793.032	19.55
793.209	20.94
793.387	23.77
793.564	30.27
793.741	24.56
793.918	24.31
794.095	24.67
794.272	19.72
794.449	15.52
794.626	18.99
794.803	16.23
794.98	7.04
795.157	0.83
795.334	5.95
795.511	-1.92
795.688	-1.97
795.864	0.84
796.041	1.62
796.218	3.63
796.395	10.19
796.572	12.67
796.749	11.72
796.925	18.53
797.102	23.79
797.279	16.99
797.456	21.11
797.632	25.54
797.809	25.63
797.986	20.78
798.162	17.61
798.339	7.54
798.516	1.86
798.692	-3.04
798.869	-8.29
799.046	-2.6
799.222	-9.81
799.399	-19.14
799.575	-18.01
799.752	-21.17
799.928	-18.24
800.105	-6.72
800.281	4.66
800.458	4.13
800.634	4.96
800.811	9.73
800.987	9.46
801.163	5.44
801.34	11.61
801.516	3.1
801.692	1.7
801.869	15.9
802.045	16.24
802.221	7.9
802.398	17.89
802.574	15.86
802.75	7.62
802.926	5.15
803.103	14.87
803.279	11.59
803.455	14.26
803.631	7.88
803.807	-3.03
803.983	-14.75
804.16	-21.87
804.336	-30.02
804.512	-30.87
804.688	-26.39
804.864	-29.89
805.04	-39.64
805.216	-31.33
805.392	-33.59
805.568	-26.05
805.744	-21.42
805.92	-15.41
806.096	0.24
806.272	6.7
806.448	13.92
806.623	19.53
806.799	25.38
806.975	20.62
807.151	8.13
807.327	6.9
807.503	15.65
807.678	19.67
807.854	15.65
808.03	10.09
808.206	-12.27
808.381	-12.63
808.557	-20.78
808.733	-19.07
808.908	-17.05
809.084	-5.25
809.26	3.42
809.435	-1.91
809.611	-9.11
809.787	3.55
809.962	11.63
810.138	26.88
810.313	23.2
810.489	39.43
810.664	30.05
810.84	40.66
811.015	33.07
811.191	28.28
811.366	32.89
811.542	29.37
811.717	30.89
811.892	32.1
812.068	31.34
812.243	31.2
812.419	20.56
812.594	14.23
812.769	11.46
812.944	20.16
813.12	20.47
813.295	11.08
813.47	10.26
813.645	9.8
813.821	9.92
813.996	5.06
814.171	3.34
814.346	9.51
814.521	24.13
814.697	18.95
814.872	13.04
815.047	13.86
815.222	12.45
815.397	19.24
815.572	9.8
815.747	1.62
815.922	6.8
816.097	1.21
816.272	6.78
816.447	2.27
816.622	3.06
816.797	8.08
816.972	5.25
817.147	7.3
817.322	6.91
817.496	13
817.671	14.47
817.846	9.76
818.021	7.85
818.196	3.1
818.371	-0.64
818.545	3.51
818.72	-1.64
818.895	1.19
819.069	8.92
819.244	6.72
819.419	4.01
819.594	3.4
819.768	6.78
819.943	12.45
820.117	13.18
820.292	13.99
820.467	12.16
820.641	13.11
820.816	13.75
820.99	13.03
821.165	11.55
821.339	11.56
821.514	12.14
821.688	12.73
821.863	11.64
822.037	12.52
822.212	13.67
822.386	13.95
822.56	13.76
822.735	11.41
822.909	7.92
823.084	8.87
823.258	10.53
823.432	10.56
823.606	11.38
823.781	10.47
823.955	12.81
824.129	10.8
824.303	13.11
824.478	14.24
824.652	18.65
824.826	23.24
825	26.33
825.174	22.79
825.348	20.18
825.523	18.6
825.697	17.75
825.871	13.01
826.045	14.8
826.219	13.98
826.393	12.47
826.567	9.55
826.741	10.59
826.915	9.9
827.089	13.73
827.263	14.78
827.437	12.27
827.611	13.34
827.784	18.04
827.958	14.84
828.132	17.89
828.306	20.37
828.48	21.64
828.654	20.52
828.827	14.44
829.001	9.26
829.175	2.39
829.349	4.82
829.522	4.18
829.696	-4.05
829.87	-4.32
830.044	-8.5
830.217	-15.59
830.391	-19.79
830.565	-19.15
830.738	-17.46
830.912	-30.06
831.085	-15.18
831.259	-16.39
831.432	2.5
831.606	9.31
831.779	21.26
831.953	15.56
832.126	24
832.3	29.71
832.473	27.6
832.647	27.39
832.82	28.01
832.994	28.62
833.167	30.87
833.34	25.89
833.514	20.85
833.687	13.32
833.86	22.98
834.034	21.49
834.207	18.52
834.38	14.54
834.553	15.58
834.727	16.62
834.9	15.99
835.073	13.16
835.246	7.2
835.419	17.86
835.593	17.45
835.766	3.46
835.939	-7.23
836.112	-18.18
836.285	-6.88
836.458	-14.82
836.631	-1
836.804	2.9
836.977	-4.74
837.15	1.31
837.323	-17.67
837.496	-38.19
837.669	-43.73
837.842	-41.19
838.015	-26.62
838.188	-32.15
838.361	-20.62
838.533	-37.92
838.706	-42.79
838.879	-20.25
839.052	-18.98
839.225	-8.32
839.398	5.04
839.57	19.84
839.743	7.83
839.916	15.58
840.088	30.52
840.261	29.65
840.434	37.02
840.607	32.57
840.779	27.88
840.952	25.59
841.124	20.91
841.297	19
841.47	14.62
841.642	30.64
841.815	27.67
841.987	11.23
842.16	14.41
842.332	20.18
842.505	12.89
842.677	12.33
842.85	7.55
843.022	4.48
843.194	1.31
843.367	-11.06
843.539	-18.65
843.712	-14.16
843.884	-22.57
844.056	-25.61
844.229	-39.98
844.401	-58.08
844.573	-53.63
844.745	-29.57
844.918	-24.69
845.09	-31.33
845.262	-36.07
845.434	-56.52
845.606	-42.94
845.779	-74.73
845.951	-73.07
846.123	-101.53
846.295	-54.44
846.467	-66.92
846.639	-184.37
846.811	-330.11
846.983	-298.06
847.155	-359.87
847.327	-107.65
847.499	-186.1
847.671	-58.99
847.843	-115.1
848.015	-103.04
848.187	-148.07
848.359	-544.94
848.531	-609.88
848.703	-200
848.875	-416.13
849.047	-366.67
849.218	-428.81
849.39	-181.71
849.562	-609.62
849.734	-200.99
849.905	-141.86
850.077	-205.23
850.249	-110.35
850.421	-96.34
850.592	-98.1
850.764	-53.59
850.936	-12.76
851.107	-37.62
851.279	-59.73
851.451	-29
851.622	-23.4
851.794	-12.35
851.965	-4.44
852.137	4.17
852.308	2.68
852.48	-20.41
852.651	-6.02
852.823	-25.09
852.994	0.42
853.166	12.8
853.337	5.71
853.509	23.45
853.68	12.33
853.851	16.09
854.023	26.99
854.194	23.73
854.365	34.55
854.537	20.95
854.708	8.08
854.879	6.6
855.05	-0.6
855.222	-2.19
855.393	-15.41
855.564	-26.09
855.735	-29.58
855.906	-75.85
856.078	-125.14
856.249	-252.03
856.42	-203.01
856.591	-125.11
856.762	-186.55
856.933	-154.64
857.104	-94.23
857.275	-218.35
857.446	-152.11
857.617	-152.91
857.788	-110.83
857.959	-44.74
858.13	-31.1
858.301	-74.34
858.472	-76.69
858.643	-65.19
858.814	-59.49
858.985	-49.48
859.155	-24.65
859.326	-51.22
859.497	-65.24
859.668	-31.93
859.839	-42.13
860.009	-30.96
860.18	-19.06
860.351	-29.65
860.522	-41.09
860.692	-73.64
860.863	-116.53
861.034	-100.23
861.204	-86.44
861.375	-76.77
861.546	-123.17
861.716	-171.34
861.887	-131.68
862.057	-112.58
862.228	-87.77
862.398	-60.26
862.569	-42.94
862.739	-37.55
862.91	-39.88
863.08	-10.89
863.251	-8.87
863.421	21.94
863.592	18.71
863.762	5.86
863.932	16.41
864.103	13.12
864.273	14.19
864.443	4.91
864.614	14.48
864.784	15.19
864.954	6.98
865.125	-2.3
865.295	-17.34
865.465	4.94
865.635	15.7
865.805	3.27
865.976	6.12
866.146	10.81
866.316	10.2
866.486	14.3
866.656	26.76
866.826	36.54
866.996	35.03
867.166	41.71
867.336	16.1
867.506	-7.57
867.676	-9.68
867.846	-17.4
868.016	-28.35
868.186	-71.52
868.356	-192.31
868.526	-1139.58
868.696	-54000
868.866	621.18
869.036	-441.28
869.206	-738.71
869.376	-768.29
869.545	-182.78
869.715	-272.11
869.885	-347.45
870.055	-146.86
870.224	-107.79
870.394	-75.45
870.564	-92.29
870.734	-85.98
870.903	-203.02
871.073	-56.06
871.243	-85
871.412	-114.73
871.582	-51.91
871.751	-65.12
871.921	-41.88
872.091	-38.89
872.26	-26.67
872.43	-13.32
872.599	-16.26
872.769	9.25
872.938	-9.87
873.108	-26.25
873.277	-9.07
873.446	-11.53
873.616	-14.25
873.785	-6.48
873.955	-3.42
874.124	-11.97
874.293	-13.83
874.463	-10.1
874.632	-13.33
874.801	-10.82
874.971	26.15
875.14	-3.87
875.309	-6.22
875.478	-15.81
875.647	-37.1
875.817	-17.77
875.986	-25.86
876.155	-27.84
876.324	-4.29
876.493	-21.8
876.662	-1.44
876.831	-23.48
877	-13.97
877.17	-14.46
877.339	-0.11
877.508	-6
877.677	-21.58
877.846	-23.31
878.015	-15.77
878.184	-19.19
878.352	-16.22
878.521	-29.87
878.69	-28.09
878.859	-34.55
879.028	-25.62
879.197	-23.31
879.366	-19.31
879.534	-11.72
879.703	-4.09
879.872	-7.63
880.041	-12.35
880.21	-5.94
880.378	-0.57
880.547	-1.88
880.716	4.41
880.884	4.9
881.053	8.84
881.222	8.63
881.39	7.58
881.559	6.14
881.727	6.93
881.896	10.67
882.065	6.17
882.233	-4.18
882.402	-3.55
882.57	-11.5
882.739	-10.36
882.907	-18.44
883.076	-18.19
883.244	-8.97
883.412	0.26
883.581	-10.74
883.749	-11.98
883.918	-3.28
884.086	10.55
884.254	0.19
884.423	2.52
884.591	6.74
884.759	-4.17
884.927	-5.61
885.096	-20.65
885.264	-55.18
885.432	-87.36
885.6	-69.26
885.769	-58.09
885.937	-73.79
886.105	-44.1
886.273	-45.11
886.441	-59.03
886.609	-35.37
886.777	-55.76
886.945	-83.99
887.113	-130.25
887.281	-53.4
887.449	-90.68
887.617	-91.77
887.785	-89.12
887.953	-49.38
888.121	-28.63
888.289	-45.82
888.457	-27.35
888.625	-4.68
888.793	13.97
888.961	37.59
889.129	21.93
889.296	46.26
889.464	42.8
889.632	51.9
889.8	44.41
889.967	26.47
890.135	60.63
