Data from JASIL_2999_Reflection_01.txt Node
Date: Mon Nov 09 09:59:25 EST 2015
User: Geneva
Spectrometer: USB4E03002
Autoset integration time: false
Trigger mode: 4
Integration Time (sec): 1.000000E-1
Scans to average: 10
Electric dark correction enabled: false
Nonlinearity correction enabled: false
Boxcar width: 5
Stray light correction enabled: false
XAxis mode: Wavelengths
Stop averaging: false
Number of Pixels in Spectrum: 3648
>>>>>Begin Spectral Data<<<<<
177.575	29.1
177.794	6.76
178.014	2.07
178.233	-6.61
178.452	-3.48
178.672	-0.22
178.891	-2.72
179.11	-18.97
179.33	-38.4
179.549	-61.93
179.768	-113.79
179.987	-94.6
180.207	-13.09
180.426	-5.39
180.645	-10.45
180.864	-10.74
181.084	16.12
181.303	4.52
181.522	3.17
181.741	0.31
181.96	28.18
182.179	46.21
182.398	49.32
182.618	51.93
182.837	60.29
183.056	47.37
183.275	39.47
183.494	17.46
183.713	29.85
183.932	59.24
184.151	53.98
184.37	32.11
184.589	19.05
184.808	20.08
185.027	4.24
185.246	-41.05
185.465	7.05
185.684	14.47
185.903	10
186.122	6.9
186.341	-15.88
186.56	-36.75
186.779	3.66
186.998	-18.78
187.216	-2.59
187.435	2.12
187.654	23.37
187.873	-13.39
188.092	-40.56
188.311	-46.58
188.53	-29.54
188.748	-8.55
188.967	-30.99
189.186	-15.25
189.405	9.49
189.623	16.53
189.842	-5.24
190.061	20.51
190.28	15.27
190.498	9.96
190.717	17.52
190.936	-7.27
191.154	-131.97
191.373	15.73
191.592	-80
191.81	-28.57
192.029	-214.48
192.248	-187.16
192.466	-91.04
192.685	-97.68
192.904	-24.34
193.122	-67.53
193.341	-131.22
193.559	-150.24
193.778	-139.07
193.996	-27
194.215	-56.45
194.433	-14.13
194.652	-18.75
194.87	-47.16
195.089	-63.93
195.307	-137.3
195.526	-70.36
195.744	-33.25
195.963	-27.72
196.181	-80.18
196.399	-115.32
196.618	-97.49
196.836	-132.75
197.055	-90.69
197.273	-54.34
197.491	3.39
197.71	37.89
197.928	39.49
198.146	49.25
198.365	65.43
198.583	81.52
198.801	88.3
199.019	65.56
199.238	60.42
199.456	32.74
199.674	31.21
199.892	29.7
200.111	-20
200.329	-20.21
200.547	13.76
200.765	9.8
200.983	9.33
201.202	-154.78
201.42	-147.06
201.638	-50.75
201.856	-364.79
202.074	894.59
202.292	680.49
202.51	-45.32
202.728	14.29
202.946	-124.68
203.165	-97.32
203.383	-98.57
203.601	-73.08
203.819	-140.7
204.037	-56.97
204.255	-21.99
204.473	-22.47
204.691	-48.61
204.909	-126.57
205.127	-126.69
205.345	-107.42
205.562	-246.07
205.78	-82.42
205.998	-14.94
206.216	-34.76
206.434	-59.93
206.652	-54.55
206.87	16.46
207.088	10.27
207.306	0
207.523	-48.64
207.741	-50
207.959	17.07
208.177	-1.19
208.395	-30.74
208.612	7.12
208.83	25.77
209.048	55.56
209.266	-6.51
209.483	0.66
209.701	4.81
209.919	2.37
210.136	-66.78
210.354	-78.12
210.572	-84.7
210.79	-95.93
211.007	-46.32
211.225	-49.78
211.442	-61.19
211.66	-51.49
211.878	-67.91
212.095	-14.87
212.313	-7.61
212.53	11.91
212.748	10.44
212.966	15.99
213.183	13.37
213.401	7.83
213.618	12.86
213.836	21.26
214.053	26.61
214.271	24.25
214.488	38.27
214.705	35.52
214.923	24.1
215.14	21.38
215.358	2.2
215.575	22.54
215.793	24.06
216.01	21.63
216.227	18.67
216.445	-3.45
216.662	27.72
216.879	26.74
217.097	-16.92
217.314	-13.51
217.531	-62.79
217.749	-39.19
217.966	-47.77
218.183	-61.23
218.4	-199.07
218.618	-212.67
218.835	-114.68
219.052	-537.86
219.269	-1410.53
219.487	-456.14
219.704	-1247.62
219.921	1049.12
220.138	928.21
220.355	460.27
220.572	0
220.79	-1227.27
221.007	-188.64
221.224	-170.59
221.441	-34.26
221.658	-51.66
221.875	-73.49
222.092	-42.17
222.309	-20.94
222.526	-23.61
222.743	-44.27
222.96	-24.62
223.177	-12.22
223.394	-32.43
223.611	-95.34
223.828	-177.42
224.045	-155.39
224.262	-62.92
224.479	-64.9
224.696	-78.97
224.913	-109.89
225.13	-107.69
225.347	-90.08
225.564	-84.76
225.781	-55.97
225.997	-31.05
226.214	-19.22
226.431	-1.74
226.648	-10.99
226.865	1.57
227.082	2.76
227.298	-4.98
227.515	-9.26
227.732	-18.21
227.949	-15.78
228.165	-15
228.382	-10.37
228.599	-10.28
228.816	-16.92
229.032	-23.42
229.249	-29.53
229.466	-26.15
229.682	-17.37
229.899	-8.26
230.116	-6.71
230.332	-20.61
230.549	-18.76
230.765	-66.15
230.982	-58.73
231.199	-28.96
231.415	5.63
231.632	-5
231.848	1.37
232.065	6.31
232.281	-9.39
232.498	7.3
232.714	25.14
232.931	8.06
233.147	14.07
233.364	11.36
233.58	2.41
233.797	-7.61
234.013	-6.33
234.23	-14.35
234.446	-4.56
234.662	7
234.879	-9.68
235.095	-9.5
235.312	-14.96
235.528	-9.83
235.744	1.58
235.961	3.32
236.177	6.2
236.393	4.86
236.61	-3.27
236.826	-12.19
237.042	-13.45
237.258	-7.54
237.475	-8.12
237.691	-1.29
237.907	-2.25
238.123	-16.94
238.339	-21.27
238.556	-32.57
238.772	-41.16
238.988	-26.06
239.204	-21.39
239.42	-21.77
239.636	-2.41
239.853	0.09
240.069	6.86
240.285	11.98
240.501	18.78
240.717	15.04
240.933	17.18
241.149	20.11
241.365	21.85
241.581	19.79
241.797	17.25
242.013	11.14
242.229	7.62
242.445	8.09
242.661	7.16
242.877	3.3
243.093	-5.43
243.309	-10.19
243.525	-14.27
243.741	-18.52
243.957	-13.77
244.173	-6.17
244.388	-7.85
244.604	-3.94
244.82	-9.52
245.036	-9.36
245.252	-7.02
245.468	2.33
245.683	2.99
245.899	5.95
246.115	6.43
246.331	5.38
246.547	3.3
246.762	5.94
246.978	5.78
247.194	7.92
247.409	7.78
247.625	5.98
247.841	5.59
248.057	9.09
248.272	7.09
248.488	7.03
248.703	11.61
248.919	9.93
249.135	7.42
249.35	6.28
249.566	8.03
249.782	4.47
249.997	3.19
250.213	-2.36
250.428	-1.87
250.644	2.37
250.859	5.8
251.075	1.48
251.29	4.14
251.506	7.16
251.721	7.43
251.937	8.55
252.152	11.2
252.368	15.05
252.583	16.49
252.798	19.48
253.014	11.41
253.229	11.65
253.445	7.5
253.66	1.4
253.875	-6.91
254.091	-8.04
254.306	-7.98
254.521	-1.6
254.737	3.48
254.952	4.01
255.167	-2.36
255.383	-3.85
255.598	-5.79
255.813	-1.92
256.028	-1.13
256.244	-3.07
256.459	-3.77
256.674	-3.27
256.889	-4.19
257.104	-8.78
257.32	-6.13
257.535	-4.33
257.75	-1.57
257.965	-0.48
258.18	0.95
258.395	3.37
258.61	3.86
258.826	4.15
259.041	3.32
259.256	0.75
259.471	3.45
259.686	3.59
259.901	3.31
260.116	2.05
260.331	-2.72
260.546	-2.89
260.761	-6.44
260.976	-7.43
261.191	-6.37
261.406	-10.32
261.621	-4.44
261.836	-8.25
262.05	-14.48
262.265	-9.47
262.48	-7.18
262.695	-2.34
262.91	-4.83
263.125	-0.17
263.34	-3.37
263.555	-4.5
263.769	-0.79
263.984	-1.59
264.199	-5.68
264.414	-1.2
264.629	-0.63
264.843	-2.83
265.058	-5.42
265.273	-3.38
265.488	-4.2
265.702	-2.07
265.917	1.3
266.132	4.41
266.346	1.9
266.561	7.17
266.776	7.11
266.99	2.68
267.205	9.6
267.42	10.98
267.634	9.95
267.849	7.68
268.063	11.16
268.278	9.2
268.492	8.08
268.707	11.02
268.922	11.26
269.136	8.61
269.351	8.99
269.565	4.6
269.78	5.42
269.994	7.49
270.209	8.82
270.423	5.01
270.637	5.99
270.852	6.82
271.066	4.42
271.281	4.5
271.495	5.53
271.709	6.02
271.924	3.68
272.138	4.49
272.353	4.94
272.567	2
272.781	3.43
272.996	2.34
273.21	-0.77
273.424	-1.95
273.638	-6.46
273.853	-6.1
274.067	-6.59
274.281	-5.37
274.495	-7.14
274.71	-8.36
274.924	-5.07
275.138	-6.72
275.352	-2.03
275.566	-2.55
275.781	-0.3
275.995	2
276.209	3.4
276.423	3.72
276.637	3.08
276.851	4.36
277.065	2.23
277.279	0.13
277.493	1.87
277.707	-2.04
277.921	-4.92
278.135	-4.4
278.349	-6.99
278.563	-10.7
278.777	-13.5
278.991	-10.76
279.205	-10.99
279.419	-9.28
279.633	-9.43
279.847	-11.64
280.061	-15.61
280.275	-6.26
280.489	-4.82
280.703	-4.38
280.917	-2.8
281.131	1.98
281.344	3.88
281.558	3.43
281.772	3.11
281.986	4.27
282.2	3.39
282.414	5.65
282.627	3.32
282.841	4.42
283.055	4.68
283.269	5.8
283.482	3.59
283.696	0.9
283.91	-0.68
284.123	-2.83
284.337	-1.91
284.551	1.7
284.764	1.2
284.978	2.39
285.192	-1.64
285.405	-1.95
285.619	-2.83
285.833	-3.23
286.046	-5.86
286.26	-6.86
286.473	-5.75
286.687	-6.22
286.9	-6.14
287.114	-7.21
287.327	-10.17
287.541	-7.56
287.754	-7.79
287.968	-8.29
288.181	-9.45
288.395	-6.99
288.608	-8.85
288.822	-6.47
289.035	-6.79
289.248	-6.77
289.462	-5.56
289.675	-4.23
289.889	-5.42
290.102	-2.78
290.315	-0.49
290.529	-0.62
290.742	0.86
290.955	3.11
291.169	2.1
291.382	1.62
291.595	-1.94
291.808	2.05
292.022	2.1
292.235	5.05
292.448	4.51
292.661	2.92
292.875	4.94
293.088	3.26
293.301	5.65
293.514	7.43
293.727	8.8
293.94	9.9
294.153	7.61
294.367	5.38
294.58	4.21
294.793	1.84
295.006	1.56
295.219	2.15
295.432	2.59
295.645	2.71
295.858	1.54
296.071	1.51
296.284	1.47
296.497	-0.75
296.71	0.09
296.923	0.87
297.136	1.63
297.349	2.86
297.562	2.28
297.775	1.63
297.988	2.73
298.201	3.34
298.414	2.87
298.626	4.28
298.839	5.47
299.052	6.56
299.265	6.54
299.478	6.46
299.691	6.39
299.903	6.8
300.116	5.32
300.329	2.94
300.542	3.13
300.755	2.25
300.967	2.81
301.18	4.46
301.393	3.86
301.605	3.75
301.818	2.11
302.031	1.95
302.243	1.84
302.456	2.99
302.669	5.21
302.881	3.72
303.094	5.48
303.307	5.12
303.519	1.97
303.732	2.59
303.944	1.43
304.157	5.01
304.37	4.12
304.582	3.07
304.795	4.41
305.007	2.36
305.22	1.12
305.432	-0.02
305.645	-2.3
305.857	2.51
306.069	2.03
306.282	4.63
306.494	3.19
306.707	1.95
306.919	3.5
307.132	2.83
307.344	0.38
307.556	3.04
307.769	3.38
307.981	2.84
308.193	-0.19
308.406	1.74
308.618	-0.16
308.83	3.3
309.043	6.26
309.255	6.23
309.467	4.61
309.679	4.98
309.892	5.67
310.104	5.29
310.316	6.61
310.528	9.51
310.74	7.1
310.953	7.83
311.165	6.32
311.377	4.9
311.589	4.5
311.801	6.87
312.013	10.42
312.225	10.1
312.437	10.05
312.649	11.48
312.862	7.57
313.074	7.87
313.286	11.02
313.498	11.06
313.71	10.39
313.922	10.9
314.134	10.17
314.346	8.23
314.558	7.14
314.77	6.53
314.982	7.41
315.193	9.82
315.405	11.13
315.617	6.49
315.829	6.14
316.041	6.62
316.253	4.75
316.465	5.63
316.677	4.92
316.888	6.41
317.1	5.75
317.312	0.43
317.524	1.79
317.736	3.69
317.947	3.26
318.159	3.26
318.371	5.35
318.583	5.09
318.794	2.53
319.006	2.7
319.218	1.17
319.43	3.73
319.641	7.45
319.853	4.96
320.064	2.13
320.276	3.11
320.488	1.01
320.699	0.77
320.911	2.88
321.123	7.84
321.334	7.26
321.546	5.63
321.757	5.41
321.969	3.79
322.18	7.96
322.392	9.5
322.603	6.04
322.815	7.56
323.026	4.76
323.238	3.59
323.449	2.46
323.661	3.77
323.872	2.66
324.083	3.84
324.295	5.01
324.506	3.56
324.718	3.32
324.929	8.63
325.14	9.96
325.352	12.4
325.563	14.52
325.774	13.9
325.986	14.5
326.197	17.14
326.408	17.2
326.62	13.55
326.831	12.95
327.042	11.07
327.253	9.02
327.464	7.56
327.676	8.35
327.887	8.62
328.098	9.86
328.309	11.64
328.52	9.41
328.732	8.78
328.943	9.69
329.154	10.09
329.365	8.46
329.576	9.49
329.787	11.09
329.998	8.73
330.209	6.11
330.42	6.09
330.631	0.26
330.842	2.76
331.053	4.14
331.264	4.5
331.475	3.1
331.686	7.54
331.897	8.42
332.108	6.55
332.319	7.56
332.53	8.55
332.741	9.33
332.952	11.97
333.163	11.1
333.374	12.03
333.585	13.81
333.795	16.37
334.006	16.19
334.217	16.21
334.428	17.76
334.639	15.55
334.849	13.96
335.06	14.57
335.271	15.23
335.482	15.32
335.692	13.64
335.903	12.77
336.114	10.93
336.325	9.43
336.535	6.14
336.746	5.75
336.957	7.53
337.167	8.53
337.378	7.04
337.589	5.36
337.799	3.78
338.01	3.98
338.22	5.12
338.431	4
338.642	4.07
338.852	4.43
339.063	3.59
339.273	6.57
339.484	8.02
339.694	6.41
339.905	6.61
340.115	9.63
340.326	8.94
340.536	11.08
340.746	12.5
340.957	11.36
341.167	13.43
341.378	12.07
341.588	6.98
341.799	4.41
342.009	6.87
342.219	7.14
342.43	5.64
342.64	7.92
342.85	8.98
343.061	7.89
343.271	9.82
343.481	7.75
343.691	9.37
343.902	13.05
344.112	12.76
344.322	10.71
344.532	12.92
344.743	13.8
344.953	12.31
345.163	10.77
345.373	11.25
345.583	9.61
345.793	10
346.004	9.31
346.214	8
346.424	9.69
346.634	9.54
346.844	8.83
347.054	8.79
347.264	5.11
347.474	4.09
347.684	6.81
347.894	8.18
348.104	10.16
348.314	10.43
348.524	12.71
348.734	14.12
348.944	14.72
349.154	12.11
349.364	9.84
349.574	13.36
349.784	13.37
349.994	13.43
350.204	13.06
350.413	11.49
350.623	12.67
350.833	10.92
351.043	8.48
351.253	10.74
351.463	12.84
351.672	14.43
351.882	15.78
352.092	17.74
352.302	16.96
352.511	15.83
352.721	16.18
352.931	15.87
353.141	13.07
353.35	15.63
353.56	13.8
353.77	10.73
353.979	11.25
354.189	10.84
354.399	8.63
354.608	8.96
354.818	11.4
355.027	11.35
355.237	11.44
355.447	13.86
355.656	12.15
355.866	11.01
356.075	12.75
356.285	12.88
356.494	10.71
356.704	10.86
356.913	9.14
357.123	7.91
357.332	8.16
357.542	7.67
357.751	7.21
357.96	8.3
358.17	9.1
358.379	10.26
358.589	10.44
358.798	11.92
359.007	12.21
359.217	11.61
359.426	11.19
359.635	10.65
359.845	9.06
360.054	8.17
360.263	7.52
360.472	8.6
360.682	6.52
360.891	4.94
361.1	5.43
361.309	5.94
361.519	6.97
361.728	7.31
361.937	7.57
362.146	10.02
362.355	10.79
362.564	9.85
362.774	9.02
362.983	11.52
363.192	13.52
363.401	13.67
363.61	13.14
363.819	13.6
364.028	13.48
364.237	12.98
364.446	11.99
364.655	11.77
364.864	13.34
365.073	12.63
365.282	11.82
365.491	10.94
365.7	11.32
365.909	10.51
366.118	10.2
366.327	8.96
366.536	9.78
366.745	10.68
366.954	12.54
367.162	12.62
367.371	13.75
367.58	13.22
367.789	13.09
367.998	12.86
368.207	13.71
368.415	13.04
368.624	14.42
368.833	15.36
369.042	14
369.25	12.21
369.459	11.79
369.668	11.11
369.877	11.46
370.085	11.43
370.294	10.63
370.503	10.46
370.711	10.96
370.92	9.51
371.129	9.21
371.337	8.47
371.546	9.16
371.754	8.91
371.963	9.43
372.171	7.88
372.38	8.34
372.589	7.75
372.797	6.37
373.006	5.86
373.214	5.83
373.423	5.78
373.631	6.31
373.84	6.01
374.048	6.54
374.256	5.72
374.465	8.26
374.673	8.89
374.882	9.37
375.09	10.13
375.298	10.05
375.507	11.6
375.715	11.05
375.923	12.39
376.132	12.42
376.34	12.4
376.548	13.37
376.757	10.69
376.965	10.21
377.173	10.83
377.381	10.32
377.59	9.91
377.798	10.49
378.006	9.83
378.214	7.91
378.423	8.53
378.631	8.8
378.839	8.56
379.047	10.78
379.255	11.39
379.463	11.24
379.671	11.9
379.879	11.98
380.088	10.34
380.296	10.8
380.504	11.5
380.712	10.08
380.92	9.44
381.128	9.65
381.336	10.5
381.544	10.48
381.752	10.36
381.96	11.47
382.168	12.37
382.376	12.46
382.584	12.65
382.791	12.48
382.999	13.29
383.207	13
383.415	12.03
383.623	11.57
383.831	10.82
384.039	10.11
384.247	8.74
384.454	7.82
384.662	7.94
384.87	7.67
385.078	8.19
385.285	6.77
385.493	6.62
385.701	6.99
385.909	6.12
386.116	5.91
386.324	7.63
386.532	7.38
386.739	7.96
386.947	8.01
387.155	8.03
387.362	8.29
387.57	8.5
387.778	8.89
387.985	9.21
388.193	9.07
388.4	9.18
388.608	7.01
388.816	7.2
389.023	6.58
389.231	6.55
389.438	6.97
389.646	7.87
389.853	9.02
390.061	9.22
390.268	8.54
390.475	9.35
390.683	8.51
390.89	8.98
391.098	9.51
391.305	10.44
391.512	11.85
391.72	11.43
391.927	9.38
392.135	9.54
392.342	9.08
392.549	9.42
392.756	10.11
392.964	10.9
393.171	11.4
393.378	11.32
393.586	11.51
393.793	10.19
394	10.04
394.207	11.82
394.414	11.87
394.622	11.39
394.829	11.7
395.036	10.32
395.243	11.37
395.45	12.98
395.657	12.33
395.864	10.81
396.072	10.84
396.279	12.52
396.486	11.82
396.693	12
396.9	13.66
397.107	14.76
397.314	13.94
397.521	12.91
397.728	10.92
397.935	10.59
398.142	11.07
398.349	11
398.556	10.49
398.763	10.82
398.97	9.34
399.177	8.66
399.383	8.21
399.59	8.15
399.797	7.92
400.004	8.54
400.211	8.96
400.418	8.93
400.625	9.31
400.831	9.67
401.038	9.31
401.245	8.52
401.452	8.3
401.658	7.8
401.865	8.12
402.072	9.59
402.279	9
402.485	9.01
402.692	9.35
402.899	9.86
403.105	8.65
403.312	8.42
403.519	9.9
403.725	10.1
403.932	9.24
404.138	9.33
404.345	7.81
404.552	7.99
404.758	8.13
404.965	9.44
405.171	8.78
405.378	10.3
405.584	10.88
405.791	11.14
405.997	11.52
406.204	12.29
406.41	12.38
406.617	13.04
406.823	12.77
407.029	14.06
407.236	11.9
407.442	12.3
407.649	10.81
407.855	9.77
408.061	9.43
408.268	9.09
408.474	7.44
408.68	7.95
408.887	8.46
409.093	8.41
409.299	7.72
409.505	8.66
409.712	7.9
409.918	7.54
410.124	7.6
410.33	8.46
410.537	9.3
410.743	10.12
410.949	9.07
411.155	8.17
411.361	8.69
411.567	8.19
411.773	9.45
411.98	9.61
412.186	10.52
412.392	11
412.598	10.64
412.804	9.14
413.01	9.72
413.216	9.99
413.422	9.66
413.628	9.81
413.834	9.87
414.04	8.06
414.246	8.21
414.452	7.59
414.658	6.71
414.864	5.66
415.07	5.72
415.275	5.86
415.481	6.61
415.687	6.8
415.893	7.02
416.099	6.46
416.305	6.83
416.511	7.13
416.716	6.66
416.922	8.01
417.128	8.51
417.334	8.56
417.539	8.88
417.745	9.24
417.951	9.22
418.157	8.91
418.362	9.89
418.568	9.56
418.774	9.63
418.979	10.48
419.185	10.09
419.391	9.83
419.596	9.63
419.802	10.03
420.008	9.62
420.213	9.59
420.419	9.64
420.624	8.59
420.83	9.09
421.035	9.08
421.241	9.19
421.446	8.62
421.652	8.99
421.857	9.16
422.063	8.73
422.268	8.64
422.474	8.39
422.679	8.03
422.885	8.68
423.09	8.6
423.295	8.5
423.501	8.01
423.706	8.38
423.911	8.4
424.117	8.52
424.322	8.61
424.527	8.64
424.733	8.68
424.938	8.9
425.143	8.2
425.349	8.04
425.554	8.16
425.759	7.89
425.964	8.26
426.169	8.19
426.375	8.04
426.58	7.47
426.785	7.62
426.99	7.3
427.195	7.59
427.4	8.43
427.605	8.08
427.811	8.12
428.016	8.49
428.221	8.6
428.426	7.73
428.631	7.32
428.836	7.16
429.041	6.5
429.246	6.78
429.451	6.28
429.656	6.19
429.861	5.85
430.066	4.78
430.271	4.62
430.476	4.66
430.681	5
430.886	5.58
431.09	5.93
431.295	6.47
431.5	7.03
431.705	6.89
431.91	7.34
432.115	7.36
432.32	8.04
432.524	8.12
432.729	7.22
432.934	7.24
433.139	7.52
433.343	7.43
433.548	8.09
433.753	7.73
433.958	7.57
434.162	7.42
434.367	8.15
434.572	8.27
434.776	8.71
434.981	8.86
435.186	8.59
435.39	8.8
435.595	9.13
435.799	7.64
436.004	8.52
436.209	9.34
436.413	9.3
436.618	9.22
436.822	9.27
437.027	8.4
437.231	8.51
437.436	9.31
437.64	8.48
437.845	7.45
438.049	8.14
438.253	7.94
438.458	7.86
438.662	7.44
438.867	7.54
439.071	6.72
439.275	6.93
439.48	6.92
439.684	6.62
439.888	6.93
440.093	7.7
440.297	8.1
440.501	8.09
440.706	8.08
440.91	8.28
441.114	7.55
441.318	8.19
441.523	8.78
441.727	9.01
441.931	9.06
442.135	8.83
442.339	8.41
442.543	8
442.748	7.58
442.952	7.06
443.156	7.12
443.36	8.05
443.564	7.67
443.768	7.37
443.972	6.56
444.176	6.78
444.38	6.89
444.584	7.37
444.788	7.32
444.992	7.5
445.196	7.38
445.4	7.66
445.604	7.78
445.808	7.8
446.012	7.68
446.216	8.65
446.42	8.63
446.624	8.59
446.828	8.4
447.032	8.09
447.235	7.63
447.439	8.02
447.643	7.9
447.847	7.05
448.051	6.41
448.254	6.79
448.458	6.24
448.662	6.09
448.866	6.11
449.069	6.37
449.273	6.68
449.477	7.26
449.681	7.66
449.884	7.57
450.088	7.68
450.292	7.9
450.495	8.13
450.699	8.6
450.902	8.28
451.106	8.33
451.31	8.15
451.513	8.38
451.717	8.2
451.92	7.78
452.124	8.05
452.327	7.93
452.531	8.74
452.734	7.99
452.938	7.67
453.141	7.68
453.345	7.65
453.548	7.38
453.752	7.33
453.955	7.7
454.158	7.49
454.362	7.42
454.565	8.41
454.769	8.5
454.972	8.79
455.175	8.1
455.379	7.47
455.582	7.39
455.785	7.08
455.988	6.05
456.192	5.53
456.395	6.21
456.598	5.66
456.801	4.74
457.005	5
457.208	5.19
457.411	5.74
457.614	6.48
457.817	6.69
458.021	6.62
458.224	7.04
458.427	6.71
458.63	6.1
458.833	6.09
459.036	6.37
459.239	6.18
459.442	6.3
459.645	6.52
459.848	6.46
460.051	6.56
460.254	7.11
460.457	7.54
460.66	8.07
460.863	8.45
461.066	8.82
461.269	8.71
461.472	9.12
461.675	8.53
461.878	8.84
462.081	8.58
462.284	8.99
462.486	8.92
462.689	8.65
462.892	8.47
463.095	9.02
463.298	8.5
463.5	8.97
463.703	8.83
463.906	9.09
464.109	9.21
464.311	9.76
464.514	9.16
464.717	9.36
464.92	9.86
465.122	10.01
465.325	9.78
465.528	10.66
465.73	10.58
465.933	9.8
466.135	9.22
466.338	8.2
466.541	8.22
466.743	8.23
466.946	8.18
467.148	7.44
467.351	7.72
467.553	7.37
467.756	6.44
467.958	6.26
468.161	6.56
468.363	6.05
468.566	6.51
468.768	6
468.971	5.78
469.173	5.74
469.375	5.61
469.578	4.84
469.78	5.35
469.983	5.2
470.185	5.38
470.387	5.47
470.59	6.23
470.792	6.28
470.994	6.66
471.196	6.64
471.399	6.73
471.601	7.19
471.803	7.12
472.005	6.5
472.208	7.27
472.41	7.31
472.612	7.76
472.814	7.86
473.016	7.89
473.218	7.73
473.421	8.09
473.623	6.97
473.825	6.57
474.027	6.57
474.229	6.55
474.431	6.38
474.633	6.08
474.835	5.69
475.037	5.87
475.239	6.17
475.441	6.49
475.643	6.19
475.845	7.03
476.047	7.39
476.249	7.85
476.451	7.58
476.653	7.51
476.855	7.7
477.057	7.79
477.258	8.04
477.46	8.2
477.662	7.95
477.864	7.94
478.066	7.85
478.268	7.76
478.469	7.5
478.671	8.12
478.873	8.4
479.075	7.93
479.276	8.05
479.478	7.93
479.68	7.68
479.882	7.53
480.083	7.44
480.285	7.48
480.487	7.31
480.688	7.35
480.89	7.19
481.091	6.96
481.293	7.04
481.495	7.05
481.696	7.02
481.898	7.12
482.099	7.07
482.301	7.26
482.502	7.26
482.704	7.28
482.905	7.39
483.107	7.51
483.308	7.66
483.51	7.75
483.711	7.67
483.913	7.91
484.114	7.63
484.315	7.63
484.517	7.62
484.718	7.52
484.92	7.43
485.121	7.33
485.322	7.24
485.524	7.3
485.725	7.14
485.926	7.05
486.127	6.75
486.329	6.87
486.53	7.29
486.731	7.23
486.932	7.52
487.134	7.75
487.335	8.02
487.536	8
487.737	7.86
487.938	8.12
488.139	8.21
488.341	8.25
488.542	8.38
488.743	8.1
488.944	8.03
489.145	7.76
489.346	7.64
489.547	7.3
489.748	7.12
489.949	7.06
490.15	7.04
490.351	6.92
490.552	6.86
490.753	6.86
490.954	6.67
491.155	6.72
491.356	6.84
491.557	7.05
491.758	7.13
491.959	7.34
492.159	7.37
492.36	7.5
492.561	8.04
492.762	8.21
492.963	8.27
493.164	8.42
493.364	8.57
493.565	8.24
493.766	8.11
493.967	8.48
494.167	8.24
494.368	7.98
494.569	8.02
494.769	7.66
494.97	7.91
495.171	8.01
495.371	7.95
495.572	7.83
495.773	8.1
495.973	7.69
496.174	7.66
496.375	7.64
496.575	7.66
496.776	7.56
496.976	7.65
497.177	7.48
497.377	7.44
497.578	7.07
497.778	7.33
497.979	7.17
498.179	7.31
498.38	7.18
498.58	7.35
498.78	7.63
498.981	7.2
499.181	7.24
499.382	7.29
499.582	7.03
499.782	7.35
499.983	7.3
500.183	7.3
500.383	7.01
500.584	6.47
500.784	6.58
500.984	6.88
501.184	6.94
501.385	6.82
501.585	6.63
501.785	6.78
501.985	6.55
502.185	6.36
502.386	6.01
502.586	6.31
502.786	7.08
502.986	7.14
503.186	6.56
503.386	7.02
503.586	7.41
503.786	7.83
503.987	7.8
504.187	8.05
504.387	7.98
504.587	7.96
504.787	8.34
504.987	7.97
505.187	7.9
505.387	8.12
505.587	7.5
505.786	7.29
505.986	7.05
506.186	6.59
506.386	6.88
506.586	7
506.786	8.12
506.986	8.28
507.186	8.05
507.386	8.28
507.585	8.7
507.785	8.82
507.985	8.67
508.185	8.85
508.384	8.92
508.584	8.8
508.784	8.69
508.984	8.43
509.183	7.97
509.383	8.19
509.583	7.97
509.782	7.45
509.982	7.63
510.182	7.73
510.381	7.86
510.581	8.37
510.781	8.8
510.98	9
511.18	8.75
511.379	8.96
511.579	8.98
511.778	9.13
511.978	9.44
512.177	10.09
512.377	10.29
512.576	10.24
512.776	10.06
512.975	9.35
513.175	9.34
513.374	9.57
513.573	9.74
513.773	9.94
513.972	9.63
514.172	9.88
514.371	9.11
514.57	8.55
514.77	8.64
514.969	8.86
515.168	9.65
515.367	9.92
515.567	9.83
515.766	9.54
515.965	9.66
516.164	9.92
516.364	9.52
516.563	9.85
516.762	10.39
516.961	10.6
517.16	11.08
517.359	10.94
517.559	10.7
517.758	10.71
517.957	10.85
518.156	10.83
518.355	10.71
518.554	11.26
518.753	11.69
518.952	11.82
519.151	11.52
519.35	10.9
519.549	10.81
519.748	11.12
519.947	11.02
520.146	11.21
520.345	11.39
520.544	11.69
520.743	11.3
520.942	10.94
521.141	10.88
521.339	10.98
521.538	11.37
521.737	11.63
521.936	11.27
522.135	11.19
522.333	11.02
522.532	10.83
522.731	11.1
522.93	11.03
523.129	10.92
523.327	11.12
523.526	11.05
523.725	10.7
523.923	10.76
524.122	10.93
524.321	11.26
524.519	11.25
524.718	11.17
524.917	11.26
525.115	11.29
525.314	11.41
525.512	11.32
525.711	11.1
525.909	11.39
526.108	11.5
526.306	11.35
526.505	11.2
526.703	11.43
526.902	11.61
527.1	11.56
527.299	11.63
527.497	11.66
527.696	11.58
527.894	11.82
528.092	11.86
528.291	11.85
528.489	12.02
528.688	12.23
528.886	12.28
529.084	12.3
529.283	12.19
529.481	12.38
529.679	12.25
529.877	12.1
530.076	11.98
530.274	12.05
530.472	12.12
530.67	12.51
530.869	12.34
531.067	12.2
531.265	12.15
531.463	12.1
531.661	12.12
531.859	12.22
532.057	12.4
532.255	12.17
532.454	12.35
532.652	12.27
532.85	11.91
533.048	12.11
533.246	12.1
533.444	12.19
533.642	12.45
533.84	12.22
534.038	12.38
534.236	12.56
534.434	13.06
534.632	12.98
534.83	13.08
535.027	13.16
535.225	13.3
535.423	13.7
535.621	13.64
535.819	13.53
536.017	13.84
536.215	14.03
536.412	13.78
536.61	13.99
536.808	13.63
537.006	13.71
537.203	13.81
537.401	13.79
537.599	13.33
537.797	13.25
537.994	13.8
538.192	13.68
538.39	13.67
538.587	13.88
538.785	13.68
538.983	14.46
539.18	14.65
539.378	14.56
539.575	14.38
539.773	14.53
539.97	14.5
540.168	14.5
540.366	14.62
540.563	14.64
540.761	14.78
540.958	14.94
541.155	14.42
541.353	14.11
541.55	14.49
541.748	14.71
541.945	14.71
542.143	14.72
542.34	14.65
542.537	14.49
542.735	14.31
542.932	14.4
543.129	14.45
543.327	14.96
543.524	15.52
543.721	15.18
543.919	14.98
544.116	15.11
544.313	15.52
544.51	14.96
544.708	14.89
544.905	15.16
545.102	15.19
545.299	15.18
545.496	14.96
545.693	14.54
545.891	14.95
546.088	15.01
546.285	15.07
546.482	14.79
546.679	15.57
546.876	15.85
547.073	15.53
547.27	15.66
547.467	16.03
547.664	16.02
547.861	16.09
548.058	15.7
548.255	15.58
548.452	15.3
548.649	15.88
548.846	15.59
549.043	16.12
549.24	16.89
549.437	17.41
549.633	17.11
549.83	17.15
550.027	17.4
550.224	17.56
550.421	17.68
550.618	18.18
550.814	17.88
551.011	17.81
551.208	18.02
551.405	17.69
551.601	17.37
551.798	16.87
551.995	17.57
552.191	17.68
552.388	17.49
552.585	17.52
552.781	17.14
552.978	16.98
553.175	17.58
553.371	17.65
553.568	18.09
553.764	17.51
553.961	18.54
554.157	18.48
554.354	18.6
554.55	19.16
554.747	19.56
554.943	20.33
555.14	21.18
555.336	20.84
555.533	20.15
555.729	19.82
555.926	20.06
556.122	19.59
556.318	19.45
556.515	19.06
556.711	19.17
556.907	19.58
557.104	19.47
557.3	19.12
557.496	18.98
557.693	19.24
557.889	19.29
558.085	19.19
558.281	19.53
558.478	19.58
558.674	19.84
558.87	19.98
559.066	19.63
559.262	19.46
559.459	19.68
559.655	20.1
559.851	20.03
560.047	20.06
560.243	20.63
560.439	20.46
560.635	20.33
560.831	20.42
561.027	20.07
561.223	20.12
561.419	19.97
561.615	19.8
561.811	19.56
562.007	19.32
562.203	19.38
562.399	19.32
562.595	18.73
562.791	18.7
562.987	19.07
563.183	19.35
563.379	19.5
563.575	19.64
563.771	19.49
563.966	19.63
564.162	20.06
564.358	20.43
564.554	20.72
564.75	21.86
564.945	21.35
565.141	21.5
565.337	21.32
565.533	21.85
565.728	21.55
565.924	21.49
566.12	21.66
566.315	21.32
566.511	21
566.707	20.77
566.902	20.1
567.098	20.63
567.293	20.96
567.489	20.68
567.684	20.04
567.88	20.37
568.076	20.94
568.271	20.69
568.467	20.92
568.662	21.19
568.858	21.78
569.053	22.03
569.248	22.02
569.444	21.49
569.639	22.22
569.835	22.44
570.03	22.88
570.225	23.05
570.421	22.84
570.616	22.71
570.812	22.06
571.007	21.38
571.202	21.59
571.397	21.86
571.593	21.74
571.788	21.59
571.983	21.67
572.178	21.53
572.374	20.96
572.569	20.98
572.764	21.14
572.959	21.5
573.154	21.79
573.35	21.8
573.545	21.97
573.74	22.59
573.935	22.26
574.13	22.19
574.325	22.04
574.52	22.42
574.715	22.66
574.91	22.95
575.105	23.14
575.3	22.92
575.495	22.58
575.69	22.61
575.885	22.51
576.08	23.23
576.275	23.26
576.47	23.21
576.665	23.5
576.86	24
577.055	23.92
577.25	24.29
577.444	24.61
577.639	24.87
577.834	24.36
578.029	24
578.224	22.86
578.418	23.35
578.613	23.73
578.808	22.88
579.003	22.44
579.197	22.57
579.392	22.17
579.587	22.54
579.781	22.11
579.976	22.53
580.171	22.55
580.365	23.19
580.56	22.99
580.755	23.44
580.949	24.15
581.144	24.11
581.338	24.6
581.533	25.13
581.727	24.23
581.922	24.72
582.116	24.59
582.311	24.74
582.505	25.01
582.7	24.59
582.894	23.97
583.089	24.54
583.283	24.71
583.478	25.42
583.672	24.77
583.866	25.57
584.061	25.88
584.255	25.96
584.449	25.45
584.644	25.71
584.838	25.89
585.032	27.14
585.226	26.7
585.421	27
585.615	25.4
585.809	25.65
586.003	25.23
586.198	25.28
586.392	25.36
586.586	26.44
586.78	25.86
586.974	25.71
587.168	25
587.363	24.32
587.557	24.4
587.751	24.32
587.945	24.57
588.139	24.24
588.333	24.24
588.527	23.9
588.721	23.75
588.915	24.13
589.109	23.86
589.303	23.23
589.497	23.43
589.691	23.03
589.885	24.05
590.079	24.28
590.273	24.25
590.466	23.41
590.66	23.16
590.854	23.57
591.048	23.64
591.242	24.3
591.436	24.43
591.629	24.43
591.823	25.01
592.017	23.24
592.211	22.75
592.404	23.5
592.598	23.64
592.792	23.48
592.986	22.64
593.179	21.75
593.373	21.33
593.567	21.16
593.76	21.71
593.954	21.66
594.147	22.9
594.341	23.06
594.535	23.11
594.728	24.15
594.922	24.86
595.115	24.38
595.309	25.21
595.502	25.44
595.696	25.61
595.889	25.99
596.083	25.7
596.276	25.22
596.47	25.24
596.663	24.86
596.856	24.57
597.05	24.84
597.243	25.63
597.437	25.43
597.63	25.56
597.823	26.24
598.017	25.79
598.21	25.91
598.403	26.29
598.596	26.54
598.79	26.36
598.983	26.21
599.176	26.17
599.369	25.77
599.563	25.37
599.756	25.03
599.949	24.81
600.142	25.06
600.335	24.34
600.528	24.46
600.722	24.28
600.915	25.37
601.108	25.36
601.301	25.33
601.494	25.39
601.687	25.61
601.88	25.09
602.073	24.88
602.266	24.48
602.459	25.13
602.652	25.34
602.845	25.16
603.038	24.11
603.231	24.16
603.424	24.14
603.617	24.7
603.809	24.73
604.002	24.98
604.195	25.4
604.388	24.95
604.581	25.21
604.774	25.15
604.966	25.33
605.159	26.13
605.352	26.06
605.545	25.55
605.737	24.95
605.93	24.74
606.123	24.73
606.316	24.19
606.508	24.87
606.701	24.16
606.894	24.17
607.086	24.28
607.279	23.91
607.471	24.27
607.664	24.25
607.857	24.72
608.049	25.36
608.242	25.76
608.434	25.7
608.627	25.59
608.819	25.84
609.012	26.14
609.204	26.53
609.397	26.67
609.589	26.43
609.782	27.29
609.974	25.91
610.166	26.02
610.359	26.6
610.551	27.14
610.743	27.76
610.936	27.79
611.128	27.19
611.32	26.75
611.513	26.89
611.705	26.99
611.897	25.88
612.09	27.26
612.282	26.2
612.474	26.26
612.666	25.77
612.858	25.3
613.051	26.29
613.243	27.13
613.435	27.26
613.627	26.8
613.819	25.83
614.011	26.65
614.203	25.87
614.395	26.11
614.588	25.56
614.78	25.2
614.972	25.87
615.164	25.08
615.356	26.04
615.548	25.87
615.74	26.74
615.932	26.45
616.124	26.35
616.315	26.86
616.507	27.47
616.699	27.88
616.891	28.99
617.083	28.42
617.275	28.29
617.467	26.72
617.659	26.41
617.85	26.63
618.042	28.93
618.234	28.84
618.426	29.35
618.618	29.13
618.809	29.5
619.001	29.46
619.193	29.48
619.384	30.43
619.576	31.35
619.768	31.63
619.959	31.01
620.151	29.69
620.343	30.07
620.534	29.63
620.726	29.65
620.917	27.81
621.109	27.32
621.301	27.21
621.492	26.89
621.684	25.76
621.875	26.23
622.067	27.17
622.258	26.46
622.45	27.42
622.641	27.68
622.832	27.2
623.024	28.7
623.215	28.7
623.407	28.79
623.598	28.02
623.789	28.33
623.981	28.22
624.172	27.64
624.363	28.87
624.555	27.92
624.746	27.26
624.937	27.32
625.129	27.18
625.32	26.77
625.511	26.68
625.702	27.33
625.893	26.84
626.085	27.19
626.276	27.26
626.467	27.27
626.658	26.95
626.849	27.36
627.04	27.22
627.231	26.59
627.422	27.05
627.614	27.22
627.805	27.36
627.996	28.25
628.187	27.62
628.378	27.44
628.569	27.3
628.76	26.84
628.951	26.85
629.142	27.43
629.332	27.14
629.523	26.54
629.714	26.07
629.905	25.52
630.096	25.26
630.287	25.33
630.478	24.75
630.669	24.47
630.859	26.52
631.05	26.89
631.241	26.3
631.432	27.07
631.623	27.33
631.813	27.76
632.004	28.4
632.195	27.83
632.385	27.2
632.576	27.56
632.767	27.42
632.957	25.52
633.148	25.15
633.339	26.24
633.529	26.02
633.72	26.01
633.91	26.05
634.101	25.54
634.292	25.62
634.482	25.87
634.673	26.25
634.863	25.79
635.054	27.36
635.244	27.27
635.435	26.51
635.625	26.7
635.815	27.58
636.006	26.61
636.196	27.27
636.387	27.63
636.577	28.37
636.767	27.94
636.958	27.52
637.148	27.57
637.338	28.33
637.529	28.9
637.719	28.46
637.909	26.92
638.099	28.34
638.29	27.86
638.48	27.58
638.67	27.43
638.86	28.66
639.05	29.67
639.241	28.68
639.431	27.63
639.621	26.16
639.811	26.32
640.001	28.03
640.191	27.42
640.381	25.93
640.571	25.2
640.761	25.81
640.951	25.63
641.141	25.76
641.331	26.28
641.521	27.48
641.711	28.18
641.901	28.77
642.091	26.49
642.281	25.91
642.471	27
642.661	29.76
642.851	27.96
643.041	27.26
643.231	27.1
643.42	26.78
643.61	26.2
643.8	26.52
643.99	26.14
644.18	27.09
644.369	27.72
644.559	26.97
644.749	25.5
644.939	26.05
645.128	26.73
645.318	26.25
645.508	25.92
645.697	25.6
645.887	25.48
646.076	25.3
646.266	25.94
646.456	25.91
646.645	26.22
646.835	26.73
647.024	27.58
647.214	27.02
647.403	27.5
647.593	26.98
647.782	27.69
647.972	27.88
648.161	27.7
648.351	27.52
648.54	28.4
648.73	28.13
648.919	27.6
649.108	26.98
649.298	26.84
649.487	27.19
649.677	28.35
649.866	28.42
650.055	28.33
650.244	28.99
650.434	29.86
650.623	29.17
650.812	29.93
651.002	30.1
651.191	30.71
651.38	30.35
651.569	30.53
651.758	29.13
651.947	28.93
652.137	29.98
652.326	29.71
652.515	27.86
652.704	27.78
652.893	26.67
653.082	27.09
653.271	26.48
653.46	27.74
653.649	27.02
653.838	29.35
654.027	29.35
654.216	27.57
654.405	27.98
654.594	29.04
654.783	29.11
654.972	29.61
655.161	28.86
655.35	29.66
655.539	28.49
655.728	29.06
655.916	27.77
656.105	26.65
656.294	27.87
656.483	27.57
656.672	26.9
656.86	26.87
657.049	27.08
657.238	27.47
657.427	27.23
657.615	28.1
657.804	28.16
657.993	28.04
658.181	29.17
658.37	29.13
658.559	29.57
658.747	30.43
658.936	30.07
659.125	28.62
659.313	28.14
659.502	27.51
659.69	27.14
659.879	26.74
660.067	26.48
660.256	26.34
660.444	26.21
660.633	26.19
660.821	25.78
661.01	26.88
661.198	29.19
661.387	29.67
661.575	30.72
661.763	30.89
661.952	31.45
662.14	31.26
662.328	30.59
662.517	31.12
662.705	29.81
662.893	29.91
663.082	29.11
663.27	29.4
663.458	29.04
663.646	28.64
663.834	28.78
664.023	27.81
664.211	28.01
664.399	26.49
664.587	26.66
664.775	28.2
664.963	28.17
665.152	28.65
665.34	27.59
665.528	28.5
665.716	28.33
665.904	28.51
666.092	29.45
666.28	29.79
666.468	31.54
666.656	30.8
666.844	29.82
667.032	29.82
667.22	29.13
667.408	28.63
667.596	27.83
667.784	28.43
667.971	28.41
668.159	27.64
668.347	27.64
668.535	27.17
668.723	27.98
668.911	29.11
669.098	28.69
669.286	29.7
669.474	29.76
669.662	29.57
669.849	29.31
670.037	30.03
670.225	29.85
670.413	31.33
670.6	31.87
670.788	30.6
670.976	30.09
671.163	29.6
671.351	28.13
671.538	28.84
671.726	29.24
671.913	29.2
672.101	27.91
672.289	29.26
672.476	28.17
672.664	28.4
672.851	27.87
673.039	27.8
673.226	28.46
673.413	29.88
673.601	28.62
673.788	27.82
673.976	27.74
674.163	28.28
674.35	26.76
674.538	27.39
674.725	26.24
674.912	27.43
675.1	28.85
675.287	28.94
675.474	27.95
675.662	30.19
675.849	31.08
676.036	30.7
676.223	30.58
676.411	31.32
676.598	30.35
676.785	31.67
676.972	31.47
677.159	29.71
677.346	29.09
677.533	28.85
677.721	28.12
677.908	29.27
678.095	30.01
678.282	28.73
678.469	27.57
678.656	27.27
678.843	26.69
679.03	26.52
679.217	27.11
679.404	27.7
679.591	29.3
679.778	28.87
679.964	28
680.151	25.89
680.338	26.25
680.525	26.61
680.712	26.52
680.899	27.16
681.086	27.28
681.272	27
681.459	27.09
681.646	24.93
681.833	26.33
682.02	26.41
682.206	28.64
682.393	30.61
682.58	32.05
682.766	32.09
682.953	31.89
683.14	32.62
683.326	32.78
683.513	32.99
683.7	33.09
683.886	32.09
684.073	30.67
684.259	30.6
684.446	28.75
684.632	28.03
684.819	28.25
685.005	27.08
685.192	26.68
685.378	27.07
685.565	26.12
685.751	25.89
685.938	26.17
686.124	27.95
686.31	27.12
686.497	27.8
686.683	27.47
686.87	28.47
687.056	29.79
687.242	28.77
687.429	27.85
687.615	29.29
687.801	30.38
687.987	29.96
688.174	28.99
688.36	29.52
688.546	29.66
688.732	30.67
688.918	28.52
689.105	27.85
689.291	29.99
689.477	31.53
689.663	31.54
689.849	31.87
690.035	34.36
690.221	34.76
690.407	33.65
690.593	33.38
690.779	32.18
690.965	33.72
691.151	33.44
691.337	32.53
691.523	31.46
691.709	30.67
691.895	30.79
692.081	29.07
692.267	28.52
692.453	27.39
692.639	26.87
692.825	26.14
693.011	25.9
693.196	26.22
693.382	24.65
693.568	23.1
693.754	23.84
693.94	22.77
694.125	22.26
694.311	21.1
694.497	23.3
694.682	23.88
694.868	24.54
695.054	25.59
695.239	25.92
695.425	26.65
695.611	28.02
695.796	27.52
695.982	27.81
696.168	28.23
696.353	28.16
696.539	27
696.724	27.23
696.91	28.11
697.095	28
697.281	27.51
697.466	27.9
697.652	28.22
697.837	28.03
698.023	29.11
698.208	28.64
698.393	29.63
698.579	30.38
698.764	29.85
698.949	29.62
699.135	29.2
699.32	28.69
699.505	27.61
699.691	27.57
699.876	27.63
700.061	27.11
700.246	27.84
700.432	29.23
700.617	29.62
700.802	33.11
700.987	33.01
701.172	34.43
701.358	34.66
701.543	36.98
701.728	34.5
701.913	34.77
702.098	34.21
702.283	35.31
702.468	32.99
702.653	31.83
702.838	28.27
703.023	28.01
703.208	27.7
703.393	27.74
703.578	27.18
703.763	29.51
703.948	28.86
704.133	28.5
704.318	25.66
704.503	27.88
704.688	30.52
704.873	29.54
705.057	28.03
705.242	28.28
705.427	30.36
705.612	29.59
705.797	28.25
705.981	28.96
706.166	29.02
706.351	30.56
706.536	29.92
706.72	29.71
706.905	30.21
707.09	32.24
707.274	31.46
707.459	29.32
707.644	28.81
707.828	29.83
708.013	29.68
708.197	30.18
708.382	28.85
708.567	28.74
708.751	30.26
708.936	31.19
709.12	31.18
709.305	28.86
709.489	29.73
709.673	31.72
709.858	32.78
710.042	31.68
710.227	30.99
710.411	31.6
710.596	30.35
710.78	28.07
710.964	27.05
711.149	27.53
711.333	29.37
711.517	29.89
711.702	28.89
711.886	27.03
712.07	30.55
712.254	32.47
712.438	33.23
712.623	34.04
712.807	33.87
712.991	33.36
713.175	34.09
713.359	33.9
713.544	33.21
713.728	33.17
713.912	35.26
714.096	31.77
714.28	29.85
714.464	28.83
714.648	29.43
714.832	28.65
715.016	27.85
715.2	25.72
715.384	25.21
715.568	25.32
715.752	26.48
715.936	24.33
716.12	26.48
716.304	26.23
716.488	25.72
716.671	25.68
716.855	26.41
717.039	27.32
717.223	28.36
717.407	29.17
717.59	30.19
717.774	30.74
717.958	32.13
718.142	32.28
718.325	33.73
718.509	33.55
718.693	31.72
718.877	30.24
719.06	31.88
719.244	30.41
719.428	29.73
719.611	28.19
719.795	24.27
719.978	21.96
720.162	23.14
720.345	23.19
720.529	23.64
720.713	25.44
720.896	26.47
721.08	24.94
721.263	25.24
721.446	26.01
721.63	26.66
721.813	26.38
721.997	26.6
722.18	25.69
722.364	23.72
722.547	24.07
722.73	22.94
722.914	24.91
723.097	26.58
723.28	26.64
723.464	24.32
723.647	25.32
723.83	26.08
724.013	25.26
724.197	22.98
724.38	25.72
724.563	26.31
724.746	27.13
724.929	23.6
725.112	20.32
725.296	23.15
725.479	23.35
725.662	20.66
725.845	20.63
726.028	25.37
726.211	26.52
726.394	24.96
726.577	26.45
726.76	26.23
726.943	27.56
727.126	29.81
727.309	26.86
727.492	28.66
727.675	30.73
727.858	29.46
728.041	28.26
728.224	29.57
728.407	30.51
728.589	27.51
728.772	29.04
728.955	29.42
729.138	30.42
729.321	31.43
729.503	32.6
729.686	32.35
729.869	35.54
730.052	33.8
730.234	30.92
730.417	30.29
730.6	31.07
730.782	29.35
730.965	28.93
731.148	28.42
731.33	26.82
731.513	25.36
731.695	25.13
731.878	25.51
732.061	25.77
732.243	25.67
732.426	27.83
732.608	31.48
732.791	32.69
732.973	33.78
733.156	31.59
733.338	35.81
733.52	35.03
733.703	34.95
733.885	32.23
734.068	34.78
734.25	36.92
734.432	35.08
734.615	31.75
734.797	31.09
734.979	32.47
735.162	32.26
735.344	29.84
735.526	32.03
735.708	33.82
735.891	37.18
736.073	36.27
736.255	39.61
736.437	39.29
736.619	40.97
736.802	42.62
736.984	41.65
737.166	42.33
737.348	44.48
737.53	42.56
737.712	39.92
737.894	39.02
738.076	38.98
738.258	33.15
738.44	32.48
738.622	28.61
738.804	27.65
738.986	25.55
739.168	26.83
739.35	24.14
739.532	25.18
739.714	26.12
739.896	27.62
740.078	29.78
740.259	31.33
740.441	32.46
740.623	34.79
740.805	35.02
740.987	39.13
741.168	38.35
741.35	38.97
741.532	38.8
741.714	36.38
741.895	34.26
742.077	31.49
742.259	34.12
742.44	32.85
742.622	31.83
742.804	34.9
742.985	32.71
743.167	29.07
743.348	30.18
743.53	31.27
743.711	34.22
743.893	35.13
744.075	35.71
744.256	35.62
744.438	36.78
744.619	37.91
744.8	34.46
744.982	36.36
745.163	37.78
745.345	39.89
745.526	37.42
745.707	39.36
745.889	36.22
746.07	32.65
746.252	31.77
746.433	33.58
746.614	35.82
746.795	36.71
746.977	33.48
747.158	38.61
747.339	36.66
747.52	37.56
747.702	33.45
747.883	36.21
748.064	35.85
748.245	35.99
748.426	29.62
748.607	28.45
748.788	30.08
748.97	28.06
749.151	28.92
749.332	30.41
749.513	29.55
749.694	30.41
749.875	29.51
750.056	33.69
750.237	33.92
750.418	39.68
750.599	37.63
750.78	33.87
750.96	35.76
751.141	32.24
751.322	29.1
751.503	24.05
751.684	23.92
751.865	17.95
752.046	13.75
752.226	14.98
752.407	17.7
752.588	18.7
752.769	18.71
752.949	21.28
753.13	24.86
753.311	24.59
753.492	28.08
753.672	31.25
753.853	32.91
754.034	34.71
754.214	32.51
754.395	28.74
754.575	30.14
754.756	32.48
754.937	29.77
755.117	31.59
755.298	35.78
755.478	37.12
755.659	34.24
755.839	39.36
756.02	38.49
756.2	44.62
756.381	41.07
756.561	37.76
756.741	32.96
756.922	31.45
757.102	28.59
757.283	25.71
757.463	23.52
757.643	22.82
757.823	18.31
758.004	25.01
758.184	19.81
758.364	26.55
758.545	23.44
758.725	28.86
758.905	27.78
759.085	25.19
759.265	26.24
759.446	28.74
759.626	24.93
759.806	27.34
759.986	20.94
760.166	21.56
760.346	16.21
760.526	20.02
760.706	17.93
760.886	20.21
761.066	19.26
761.246	15.88
761.426	17.42
761.606	21.99
761.786	20.07
761.966	21.73
762.146	22.67
762.326	23.31
762.506	27.1
762.686	25.07
762.866	26.19
763.046	27.3
763.225	29.54
763.405	27.86
763.585	26.28
763.765	25.61
763.945	24.88
764.124	24.53
764.304	24.2
764.484	20.01
764.664	24.11
764.843	24.82
765.023	26.31
765.203	26.35
765.382	25.69
765.562	24.31
765.741	27.24
765.921	27.68
766.101	29.52
766.28	34.93
766.46	37.97
766.639	33.58
766.819	35.93
766.998	32.43
767.178	33.37
767.357	34.94
767.537	33.63
767.716	35.52
767.896	39.28
768.075	37.51
768.254	37.78
768.434	35.86
768.613	40.19
768.792	34.86
768.972	36.36
769.151	36.69
769.33	36.76
769.51	41.11
769.689	38.14
769.868	31.55
770.047	33.44
770.226	36.28
770.406	34.56
770.585	31.22
770.764	32.55
770.943	37.29
771.122	38.46
771.301	37.79
771.48	31.01
771.66	33.66
771.839	40.79
772.018	38.12
772.197	33.17
772.376	32.4
772.555	38.03
772.734	36.91
772.913	35.35
773.092	35.5
773.271	39.68
773.449	47.67
773.628	45.9
773.807	48.79
773.986	52.09
774.165	51.23
774.344	53.08
774.523	49.63
774.701	52.21
774.88	52.02
775.059	48.54
775.238	48.17
775.417	42.89
775.595	40.11
775.774	36.49
775.953	33.79
776.131	37.9
776.31	35.05
776.489	36.21
776.667	32.38
776.846	34.96
777.025	36.7
777.203	36.3
777.382	37.65
777.56	37.05
777.739	37.07
777.917	38.29
778.096	36.91
778.274	37.93
778.453	38.49
778.631	50.42
778.81	44.36
778.988	42.82
779.166	41.73
779.345	42.17
779.523	45.5
779.702	48.75
779.88	47.9
780.058	49.57
780.237	51.95
780.415	44.56
780.593	40.02
780.771	46.5
780.95	46.51
781.128	41.24
781.306	46.71
781.484	43.59
781.662	39.84
781.841	38.5
782.019	34.89
782.197	37.18
782.375	44.03
782.553	39.15
782.731	33.15
782.909	35.43
783.087	41.65
783.265	31.48
783.443	35.26
783.621	36.09
783.799	35.6
783.977	36.19
784.155	35.7
784.333	32.3
784.511	38.97
784.689	38.24
784.867	33.39
785.045	29.02
785.223	34.11
785.4	32.53
785.578	33.8
785.756	35.49
785.934	32.79
786.112	29.64
786.289	31.99
786.467	23.36
786.645	24.64
786.823	26.87
787	25.18
787.178	27.32
787.356	21.98
787.533	20.9
787.711	19.13
787.889	21.92
788.066	29.25
788.244	28.78
788.421	34.85
788.599	31.15
788.776	28.9
788.954	29.04
789.131	28.65
789.309	34.32
789.486	36.26
789.664	34.01
789.841	33.18
790.019	28.59
790.196	24.12
790.373	20.51
790.551	23.82
790.728	25.59
790.906	23.63
791.083	25.32
791.26	25.93
791.437	12.58
791.615	14.88
791.792	20.22
791.969	19.42
792.146	17.73
792.324	18.74
792.501	22.56
792.678	12.43
792.855	19.26
793.032	25.3
793.209	21.07
793.387	32.88
793.564	35.04
793.741	27.43
793.918	28.91
794.095	30.55
794.272	29.83
794.449	27.32
794.626	36.21
794.803	36.73
794.98	33.02
795.157	30.84
795.334	33.21
795.511	30.62
795.688	31.78
795.864	34.45
796.041	34.87
796.218	35.38
796.395	39.42
796.572	35.75
796.749	33.66
796.925	28.42
797.102	34.43
797.279	29.18
797.456	28.76
797.632	31.26
797.809	27.81
797.986	30.97
798.162	32.94
798.339	27.47
798.516	27.05
798.692	27.24
798.869	21.02
799.046	20.89
799.222	17.4
799.399	13.63
799.575	20.09
799.752	21.83
799.928	19.37
800.105	16.64
800.281	23.37
800.458	24.08
800.634	25.23
800.811	32.44
800.987	35.49
801.163	34.11
801.34	38.27
801.516	20.19
801.692	25.2
801.869	26.48
802.045	26.77
802.221	14.62
802.398	19.44
802.574	18.14
802.75	11.37
802.926	18.28
803.103	24.2
803.279	24
803.455	34.46
803.631	22.71
803.807	22.46
803.983	18.66
804.16	23.66
804.336	18.01
804.512	21.65
804.688	27.84
804.864	18.75
805.04	15.38
805.216	14.03
805.392	17.43
805.568	35.95
805.744	34.59
805.92	37.65
806.096	48.78
806.272	51.82
806.448	50.44
806.623	44.28
806.799	48.26
806.975	47.23
807.151	54.31
807.327	33.44
807.503	30.68
807.678	34.5
807.854	34.35
808.03	15.38
808.206	8.73
808.381	8.14
808.557	5.79
808.733	4.34
808.908	0.06
809.084	-3.31
809.26	9.31
809.435	-2.84
809.611	-9.31
809.787	-7.45
809.962	6.38
810.138	10.91
810.313	5.93
810.489	26.63
810.664	15.7
810.84	32.51
811.015	34.18
811.191	15.91
811.366	37.37
811.542	37.28
811.717	33.38
811.892	27.88
812.068	24.56
812.243	26.46
812.419	20.24
812.594	13.75
812.769	16.48
812.944	27.14
813.12	32.84
813.295	25.6
813.47	22.38
813.645	31.02
813.821	34.48
813.996	42.64
814.171	39.34
814.346	43.79
814.521	62
814.697	47.7
814.872	43.12
815.047	44.19
815.222	47.63
815.397	47.27
815.572	36.88
815.747	26.18
815.922	15.85
816.097	11.06
816.272	10.88
816.447	10.46
816.622	15.81
816.797	14.77
816.972	15.52
817.147	9.31
817.322	0.37
817.496	1.29
817.671	10.31
817.846	8.43
818.021	16.64
818.196	13.1
818.371	13.96
818.545	20.64
818.72	18.78
818.895	24.85
819.069	27.92
819.244	36.55
819.419	34.99
819.594	33.66
819.768	34.24
819.943	30.41
820.117	30.73
820.292	28.49
820.467	24.44
820.641	25.26
820.816	24.44
820.99	24.91
821.165	22.94
821.339	23.08
821.514	24.52
821.688	24.53
821.863	24.92
822.037	26.21
822.212	27.51
822.386	28.44
822.56	27.08
822.735	26.39
822.909	23.99
823.084	25.07
823.258	26.53
823.432	25.53
823.606	27.17
823.781	25.63
823.955	21.6
824.129	18.74
824.303	18.75
824.478	20.01
824.652	19.73
824.826	20.59
825	24.16
825.174	24.15
825.348	20.11
825.523	18.16
825.697	19.9
825.871	19.81
826.045	22.79
826.219	21.77
826.393	21.41
826.567	21.2
826.741	23.69
826.915	20.85
827.089	19.98
827.263	23.19
827.437	29.08
827.611	27.79
827.784	32.39
827.958	27.68
828.132	30.98
828.306	30.59
828.48	34.18
828.654	32.47
828.827	27.45
829.001	26.32
829.175	21.85
829.349	16.73
829.522	13.98
829.696	5.75
829.87	5.76
830.044	4.09
830.217	5.92
830.391	-10.64
830.565	-11.42
830.738	-12.16
830.912	-17.8
831.085	-11.63
831.259	-14.67
831.432	3.66
831.606	5.31
831.779	13.99
831.953	10.92
832.126	17.57
832.3	23.94
832.473	24.52
832.647	29.34
832.82	27.71
832.994	24.21
833.167	20.97
833.34	21.42
833.514	24.86
833.687	24.42
833.86	34.43
834.034	29.91
834.207	33.32
834.38	35.42
834.553	36.4
834.727	41.14
834.9	44.76
835.073	48
835.246	42.12
835.419	40.63
835.593	33.75
835.766	25.35
835.939	19.35
836.112	2.17
836.285	1.58
836.458	-3.09
836.631	-3.38
836.804	1.78
836.977	-2.33
837.15	-0.7
837.323	-12.11
837.496	-12.9
837.669	-37.14
837.842	-45.52
838.015	-15.84
838.188	-45.18
838.361	-42.17
838.533	-31.41
838.706	-35.98
838.879	-15.16
839.052	-23.98
839.225	-3.46
839.398	0.72
839.57	20.35
839.743	20.84
839.916	28.16
840.088	44.54
840.261	44.81
840.434	42.94
840.607	46.37
840.779	42.54
840.952	43.42
841.124	25.56
841.297	21.66
841.47	24.7
841.642	30.31
841.815	3.2
841.987	0.24
842.16	13.38
842.332	25.33
842.505	26.94
842.677	34.9
842.85	40.21
843.022	32.35
843.194	44.04
843.367	31.47
843.539	39.32
843.712	60.47
843.884	50.96
844.056	41.82
844.229	32.7
844.401	17.66
844.573	-7.15
844.745	-4.61
844.918	6.46
845.09	-4.17
845.262	-22.84
845.434	-53.59
845.606	-80.42
845.779	-133.83
845.951	-126.93
846.123	-143.33
846.295	-71.86
846.467	-76.29
846.639	-178.52
846.811	-275
846.983	-329.68
847.155	-260.53
847.327	-86.17
847.499	-121.02
847.671	-38.56
847.843	-91.34
848.015	-69.89
848.187	-130.18
848.359	-543.82
848.531	-567.9
848.703	-223.19
848.875	-450
849.047	-453.59
849.218	-456.78
849.39	-115.18
849.562	-349.04
849.734	-71.52
849.905	-70.93
850.077	-85.95
850.249	-29.47
850.421	-18.47
850.592	-16.51
850.764	-0.57
850.936	35.81
851.107	17.5
851.279	-28.66
851.451	-16.71
851.622	-20.97
851.794	-3.51
851.965	-1.58
852.137	-2.26
852.308	-28.76
852.48	-34.13
852.651	-2.58
852.823	-40.31
852.994	-27.73
853.166	10.41
853.337	21.45
853.509	34.72
853.68	20.58
853.851	28.5
854.023	35.06
854.194	46.38
854.365	40.96
854.537	29.21
854.708	32.43
854.879	35.38
855.05	32.14
855.222	41.14
855.393	27.82
855.564	20.37
855.735	18.65
855.906	10.31
856.078	-13.51
856.249	-39.57
856.42	15.04
856.591	25.78
856.762	-1.52
856.933	23.31
857.104	31.64
857.275	9.04
857.446	14.69
857.617	-4.26
857.788	11.19
857.959	38.59
858.13	34.93
858.301	-13.16
858.472	0.41
858.643	9.19
858.814	-1.2
858.985	-7.13
859.155	0.28
859.326	-6.32
859.497	-12.66
859.668	7.74
859.839	-1.09
860.009	-11.27
860.18	1.83
860.351	-11.86
860.522	-45.38
860.692	-65.61
860.863	-106.18
861.034	-86.88
861.204	-78.81
861.375	-75
861.546	-114.39
861.716	-157.63
861.887	-100.24
862.057	-86.52
862.228	-68.34
862.398	-59.15
862.569	-45.13
862.739	-17.32
862.91	-23.52
863.08	4.83
863.251	17.14
863.421	16.24
863.592	4.12
863.762	0.84
863.932	4.91
864.103	9.96
864.273	20.59
864.443	28.39
864.614	27.98
864.784	30.74
864.954	28.13
865.125	23.98
865.295	34.58
865.465	53.59
865.635	64.93
865.805	59.1
865.976	67.14
866.146	68.61
866.316	53.37
866.486	57.04
866.656	66.28
866.826	66.72
866.996	62.59
867.166	60.73
867.336	54.63
867.506	39.29
867.676	45.91
867.846	15.82
868.016	-16.96
868.186	42.07
868.356	-46.63
868.526	-550
868.696	-32900
868.866	323.53
869.036	-109.17
869.206	-354.84
869.376	-146.34
869.545	38.89
869.715	75.51
869.885	131.39
870.055	30.63
870.224	62.01
870.394	34.24
870.564	63.61
870.734	78.44
870.903	56.9
871.073	67.42
871.243	62.35
871.412	43.75
871.582	12.61
871.751	25.19
871.921	46.93
872.091	26.9
872.26	43.08
872.43	21.07
872.599	20.2
872.769	22.87
872.938	-0.14
873.108	-11.29
873.277	-2.03
873.446	5.76
873.616	-15.24
873.785	-19.29
873.955	-5.99
874.124	-3.99
874.293	-26.09
874.463	-41.05
874.632	-70.16
874.801	-37.81
874.971	-53.64
875.14	-55.33
875.309	-60.89
875.478	-47.02
875.647	-53.82
875.817	-45.59
875.986	-60.27
876.155	-16.32
876.324	2.54
876.493	-9.91
876.662	-33.74
876.831	-13.07
877	-11.62
877.17	-14.34
877.339	7.24
877.508	-10.04
877.677	-3.28
877.846	15.76
878.015	-4.81
878.184	12.65
878.352	27.67
878.521	25.8
878.69	37.07
878.859	22.25
879.028	47.24
879.197	20.4
879.366	32.99
879.534	27.05
879.703	19.22
879.872	26.63
880.041	20.97
880.21	10.98
880.378	19.97
880.547	17.46
880.716	33.02
880.884	27.02
881.053	30.12
881.222	29.17
881.39	28.99
881.559	24.5
881.727	23.92
881.896	24.1
882.065	31.07
882.233	25.28
882.402	22.29
882.57	12.03
882.739	17.59
882.907	22.45
883.076	16.77
883.244	19
883.412	27.54
883.581	24.09
883.749	15.95
883.918	12.67
884.086	13.72
884.254	7.79
884.423	-0.22
884.591	-4.69
884.759	-43.22
884.927	-25
885.096	-10.33
885.264	-25.37
885.432	-62.75
885.6	-40.99
885.769	-36.63
885.937	-53.04
886.105	-11.98
886.273	-12.55
886.441	-31.81
886.609	-11.9
886.777	-54.07
886.945	-82.35
887.113	-123.53
887.281	-75.24
887.449	-92.82
887.617	-66.36
887.785	-26.7
887.953	-6.88
888.121	-3.41
888.289	-0.11
888.457	17.95
888.625	29.79
888.793	34.06
888.961	45.34
889.129	71.67
889.296	90.19
889.464	93.51
889.632	60.88
889.8	44.41
889.967	76.89
890.135	60.24
