Data from JASIL_3197_Reflection_01.txt Node
Date: Fri Nov 13 14:02:05 EST 2015
User: Geneva
Spectrometer: USB4E03002
Autoset integration time: false
Trigger mode: 4
Integration Time (sec): 1.000000E-1
Scans to average: 10
Electric dark correction enabled: false
Nonlinearity correction enabled: false
Boxcar width: 5
Stray light correction enabled: false
XAxis mode: Wavelengths
Stop averaging: false
Number of Pixels in Spectrum: 3648
>>>>>Begin Spectral Data<<<<<
177.575	60.26
177.794	27.19
178.014	-35.48
178.233	-37.71
178.452	-53.3
178.672	-36.56
178.891	-36.75
179.11	861.29
179.33	-700
179.549	-451.85
179.768	-301.15
179.987	-7783.33
180.207	-282.07
180.426	-301.43
180.645	-214.35
180.864	-138.39
181.084	-105.01
181.303	-167.66
181.522	-42.01
181.741	-107.96
181.96	-340.24
182.179	1937.5
182.398	17100
182.618	175.69
182.837	-781.63
183.056	628.81
183.275	805.36
183.494	12200
183.713	-864.41
183.932	-1142.86
184.151	-69900
184.37	-294.29
184.589	-260.98
184.808	-120.95
185.027	-128.27
185.246	-173.35
185.465	-125.55
185.684	-170.61
185.903	-275.38
186.122	-1088.89
186.341	-1338.81
186.56	-1208.7
186.779	445.53
186.998	506.82
187.216	415.66
187.435	286.57
187.654	248.07
187.873	201.24
188.092	235.06
188.311	245.71
188.53	385.84
188.748	423.47
188.967	338.74
189.186	367.69
189.405	309.51
189.623	593.01
189.842	469.27
190.061	818.18
190.28	-3673.68
190.498	451.18
190.717	252.92
190.936	333.56
191.154	283.57
191.373	377.69
191.592	390
191.81	420.51
192.029	1181.63
192.248	-213.33
192.466	-436.99
192.685	-684.34
192.904	-141.08
193.122	-106.32
193.341	-178.69
193.559	-218.88
193.778	-301.05
193.996	-208.15
194.215	-295.54
194.433	-170.37
194.652	2148
194.87	528.57
195.089	-1197.06
195.307	261.87
195.526	359.83
195.744	-350
195.963	-2592.86
196.181	-161.22
196.399	-204.65
196.618	-124.37
196.836	4627.27
197.055	-397.71
197.273	-478.99
197.491	-151.32
197.71	-203.53
197.928	-312.44
198.146	-2125.81
198.365	826.87
198.583	258.93
198.801	220.34
199.019	394.63
199.238	593.6
199.456	-2207.14
199.674	-720.25
199.892	1715.38
200.111	-739.24
200.329	-427.19
200.547	-738.67
200.765	-87.85
200.983	-42.21
201.202	-48.4
201.42	-38.92
201.638	-94.4
201.856	-152.46
202.074	-209.81
202.292	-811.27
202.51	-2640.91
202.728	-755.13
202.946	-257.2
203.165	-314.51
203.383	-450.98
203.601	-442.75
203.819	-502.99
204.037	-126.83
204.255	-127
204.473	-182.89
204.691	-136.72
204.909	-108.3
205.127	-100.44
205.345	-22.65
205.562	-44.42
205.78	-63.37
205.998	-74.16
206.216	-72.94
206.434	-162.65
206.652	-233.2
206.87	-88.71
207.088	-655.56
207.306	-454.47
207.523	-461.78
207.741	2530.56
207.959	-941.56
208.177	-287.5
208.395	-1519.05
208.612	-209.81
208.83	-478.79
209.048	773.81
209.266	367.97
209.483	-282.39
209.701	-208.67
209.919	-78.05
210.136	0.64
210.354	-35.58
210.572	-44.38
210.79	-37.23
211.007	-143.59
211.225	-66.47
211.442	-32.21
211.66	-6.56
211.878	20.23
212.095	-416.01
212.313	-497.39
212.53	-716.31
212.748	-2097.62
212.966	2290.36
213.183	-4255.56
213.401	-1663.48
213.618	204300
213.836	-3268.66
214.053	2034.51
214.271	1693.57
214.488	2246.51
214.705	2896.55
214.923	8211.11
215.14	-679.35
215.358	-133.62
215.575	-172.82
215.793	-187.21
216.01	-95.11
216.227	-112.02
216.445	-16.92
216.662	7.27
216.879	-28.88
217.097	-13.38
217.314	-91.23
217.531	-77.29
217.749	-569.23
217.966	-51.16
218.183	-482.76
218.4	-271.84
218.618	-244.83
218.835	941.67
219.052	267.26
219.269	-2433.33
219.487	365.79
219.704	346.15
219.921	511.65
220.138	-289.51
220.355	-327.73
220.572	-224.55
220.79	-652.5
221.007	-275.72
221.224	-375.57
221.441	-507.19
221.658	-887.21
221.875	-235.11
222.092	-585.15
222.309	1445.24
222.526	199.77
222.743	158.32
222.96	140.85
223.177	172.09
223.394	142.39
223.611	119.01
223.828	120.82
224.045	96.1
224.262	142.47
224.479	121.55
224.696	104.34
224.913	128.73
225.13	124.16
225.347	120
225.564	110.84
225.781	103.22
225.997	105.37
226.214	98.56
226.431	125.04
226.648	68.01
226.865	60.89
227.082	68.49
227.298	48.95
227.515	45.27
227.732	38.58
227.949	29.23
228.165	37.71
228.382	37.5
228.599	36.9
228.816	23.11
229.032	25.94
229.249	20.61
229.466	16.44
229.682	4.08
229.899	14.45
230.116	-4.75
230.332	-8.67
230.549	-31.4
230.765	-43.75
230.982	-30.68
231.199	-18.46
231.415	-3.91
231.632	-7.13
231.848	13.4
232.065	55.24
232.281	32.05
232.498	58.26
232.714	56.43
232.931	44.54
233.147	51.52
233.364	69.05
233.58	76.19
233.797	44.67
234.013	25.78
234.23	16.51
234.446	-8.61
234.662	24.94
234.879	49.32
235.095	35.18
235.312	57.05
235.528	46.85
235.744	48.32
235.961	45.31
236.177	55.12
236.393	69.16
236.61	87.38
236.826	98.23
237.042	99.9
237.258	77.66
237.475	83.71
237.691	80.1
237.907	103.33
238.123	109.79
238.339	101.99
238.556	102.93
238.772	105.93
238.988	79.09
239.204	74.61
239.42	66.41
239.636	78.46
239.853	86.99
240.069	66.91
240.285	44.67
240.501	35.99
240.717	34.79
240.933	33.91
241.149	31.89
241.365	26.99
241.581	24.59
241.797	25.79
242.013	19.6
242.229	20
242.445	22.02
242.661	24.33
242.877	23.78
243.093	22.15
243.309	18.91
243.525	23.55
243.741	20.24
243.957	25.65
244.173	26.74
244.388	20.54
244.604	17
244.82	17.09
245.036	15.28
245.252	13.87
245.468	9.77
245.683	12.16
245.899	7.86
246.115	11.08
246.331	8.92
246.547	7.62
246.762	11.34
246.978	13.87
247.194	14.47
247.409	18.08
247.625	19.54
247.841	20.82
248.057	22.87
248.272	20.16
248.488	20.24
248.703	22
248.919	26.63
249.135	28.13
249.35	29.51
249.566	27.93
249.782	27.72
249.997	27.5
250.213	33.85
250.428	35.65
250.644	44.05
250.859	45.09
251.075	42.5
251.29	36.87
251.506	37.73
251.721	36.56
251.937	33.51
252.152	33.55
252.368	35.44
252.583	35.08
252.798	34.48
253.014	33.02
253.229	32.71
253.445	36.99
253.66	37.13
253.875	33.88
254.091	36.76
254.306	44.2
254.521	44.75
254.737	44.29
254.952	41.51
255.167	34.9
255.383	39.87
255.598	37.31
255.813	35.85
256.028	32.09
256.244	36.8
256.459	35.97
256.674	35.69
256.889	33.91
257.104	28.73
257.32	29.16
257.535	29.07
257.75	20.74
257.965	20.1
258.18	17.63
258.395	23.53
258.61	19.63
258.826	16.63
259.041	13.97
259.256	10.53
259.471	11.14
259.686	11.74
259.901	12.14
260.116	13.81
260.331	12.66
260.546	15.13
260.761	11.05
260.976	13.31
261.191	14.76
261.406	16.91
261.621	21.93
261.836	24.01
262.05	20.69
262.265	20.73
262.48	23.21
262.695	29.12
262.91	27.58
263.125	28.27
263.34	25.92
263.555	24.21
263.769	23.45
263.984	21.54
264.199	16.23
264.414	18.02
264.629	20.18
264.843	17.75
265.058	17.86
265.273	19.22
265.488	17.4
265.702	19.41
265.917	17.39
266.132	23.15
266.346	22.73
266.561	25.97
266.776	24.06
266.99	23.78
267.205	23.3
267.42	19.24
267.634	15.31
267.849	15.52
268.063	13.54
268.278	17.55
268.492	11.56
268.707	11.52
268.922	12.13
269.136	15.61
269.351	15.27
269.565	15.61
269.78	16.9
269.994	18.64
270.209	18.84
270.423	19.03
270.637	16.63
270.852	14.65
271.066	17.46
271.281	16.47
271.495	15.76
271.709	13.92
271.924	13.14
272.138	16.55
272.353	16.96
272.567	16.85
272.781	15.52
272.996	14.82
273.21	15.02
273.424	13.2
273.638	13.84
273.853	13.91
274.067	14.55
274.281	10.16
274.495	10.79
274.71	10.01
274.924	11.22
275.138	12.98
275.352	14.54
275.566	13.52
275.781	8.44
275.995	6.47
276.209	6.13
276.423	6.49
276.637	12.12
276.851	6.76
277.065	6.25
277.279	5.19
277.493	2.77
277.707	2.68
277.921	6.62
278.135	10.75
278.349	11.24
278.563	10.05
278.777	13.3
278.991	11.38
279.205	12.04
279.419	13.33
279.633	11.31
279.847	12.44
280.061	14.71
280.275	14.54
280.489	12.66
280.703	9.58
280.917	10.62
281.131	5.4
281.344	7.18
281.558	7.31
281.772	7.73
281.986	8.25
282.2	8.04
282.414	3.11
282.627	1.3
282.841	2.49
283.055	4.21
283.269	1.82
283.482	0.48
283.696	-0.78
283.91	1.49
284.123	2.61
284.337	3.07
284.551	1.35
284.764	2.55
284.978	2.17
285.192	2.59
285.405	4.04
285.619	4.46
285.833	8.07
286.046	9.14
286.26	6.25
286.473	4.14
286.687	5.64
286.9	8.69
287.114	8.65
287.327	11.31
287.541	12.72
287.754	12.16
287.968	12.85
288.181	13.82
288.395	11.71
288.608	12.23
288.822	13.02
289.035	11.22
289.248	10.64
289.462	14.22
289.675	14.13
289.889	14.27
290.102	14.96
290.315	13.62
290.529	11.54
290.742	12.81
290.955	15.07
291.169	15.46
291.382	15.95
291.595	18.6
291.808	14.97
292.022	14.81
292.235	13.11
292.448	12.63
292.661	15.15
292.875	15.61
293.088	17.82
293.301	18.41
293.514	15.38
293.727	18
293.94	15.24
294.153	17.89
294.367	15.44
294.58	15.2
294.793	15.19
295.006	15.54
295.219	15.12
295.432	13.41
295.645	12.67
295.858	12.51
296.071	11.01
296.284	9.08
296.497	9.89
296.71	9.82
296.923	10.89
297.136	10.29
297.349	9.21
297.562	9.24
297.775	8.08
297.988	6.48
298.201	7.8
298.414	7.15
298.626	11.04
298.839	8.35
299.052	7.27
299.265	8.19
299.478	9.95
299.691	8.91
299.903	8.83
300.116	9.88
300.329	11.22
300.542	13.04
300.755	13.87
300.967	9.9
301.18	10.12
301.393	12.29
301.605	10.14
301.818	9.63
302.031	9.95
302.243	10.17
302.456	13.28
302.669	13.96
302.881	13.48
303.094	13.62
303.307	17.44
303.519	19.45
303.732	20.82
303.944	22.85
304.157	22.75
304.37	23.62
304.582	25.66
304.795	22.12
305.007	21.97
305.22	22.87
305.432	21.98
305.645	21.25
305.857	20.62
306.069	19.58
306.282	18.79
306.494	18.07
306.707	18.74
306.919	17.53
307.132	19.29
307.344	21.29
307.556	21.22
307.769	21.76
307.981	18.76
308.193	17.49
308.406	16.01
308.618	15.99
308.83	16.51
309.043	17.74
309.255	18.7
309.467	18.1
309.679	15.08
309.892	14.77
310.104	14.96
310.316	17.45
310.528	17.74
310.74	17.51
310.953	18.36
311.165	17.47
311.377	17.02
311.589	15.58
311.801	15.13
312.013	21.91
312.225	19.77
312.437	18.97
312.649	16.65
312.862	17.95
313.074	18.11
313.286	15.59
313.498	15.72
313.71	15.9
313.922	16.33
314.134	17.2
314.346	11.85
314.558	15.86
314.77	17.62
314.982	18.31
315.193	16.68
315.405	17.86
315.617	19.46
315.829	21.14
316.041	18.72
316.253	19.51
316.465	20.79
316.677	19.78
316.888	20.1
317.1	19.18
317.312	19.25
317.524	18.97
317.736	19.6
317.947	20.28
318.159	19.85
318.371	20.56
318.583	20.6
318.794	20.08
319.006	20.24
319.218	16.86
319.43	18.58
319.641	19.96
319.853	21.77
320.064	20.65
320.276	19.8
320.488	17.77
320.699	17.76
320.911	16.75
321.123	18.69
321.334	19.27
321.546	18.69
321.757	15.21
321.969	13.86
322.18	12.23
322.392	13.74
322.603	11.05
322.815	15.13
323.026	18.63
323.238	20.51
323.449	19.95
323.661	18.88
323.872	22.24
324.083	25.42
324.295	25.14
324.506	24.41
324.718	25.29
324.929	28.09
325.14	28.43
325.352	28.29
325.563	26.12
325.774	27.24
325.986	28.51
326.197	28.39
326.408	28.57
326.62	30.7
326.831	32.71
327.042	32
327.253	33.32
327.464	33.14
327.676	32.56
327.887	34.45
328.098	33.93
328.309	33.71
328.52	34.31
328.732	34.8
328.943	36.87
329.154	37.18
329.365	39.47
329.576	37.91
329.787	40.09
329.998	43.54
330.209	42.56
330.42	42.14
330.631	43.41
330.842	42.41
331.053	42.24
331.264	38.92
331.475	37.35
331.686	38.41
331.897	38.47
332.108	35.65
332.319	33.19
332.53	34.97
332.741	35.94
332.952	36.82
333.163	36.51
333.374	34.27
333.585	36.13
333.795	37.41
334.006	35.14
334.217	36.22
334.428	36.5
334.639	37.5
334.849	37.68
335.06	38.1
335.271	36.41
335.482	38.9
335.692	41.92
335.903	41.23
336.114	42
336.325	43.55
336.535	43.31
336.746	43.33
336.957	43
337.167	43.22
337.378	42.67
337.589	43.38
337.799	41.72
338.01	41.31
338.22	41.8
338.431	41.42
338.642	41.62
338.852	42.2
339.063	43.43
339.273	43.64
339.484	44.16
339.694	44.13
339.905	43.51
340.115	44.36
340.326	43.33
340.536	43.43
340.746	42.82
340.957	41.85
341.167	41.11
341.378	38.92
341.588	39.87
341.799	38.64
342.009	37.5
342.219	36.53
342.43	38.32
342.64	37.62
342.85	38.66
343.061	39.06
343.271	40.06
343.481	39.61
343.691	40.42
343.902	38.25
344.112	38.81
344.322	40.96
344.532	43.18
344.743	41.01
344.953	41.55
345.163	40.54
345.373	41.47
345.583	39.94
345.793	40.31
346.004	40.64
346.214	41.08
346.424	40.47
346.634	38.57
346.844	37.29
347.054	37.28
347.264	38.89
347.474	38.46
347.684	38.75
347.894	37.9
348.104	37.44
348.314	36.77
348.524	36.67
348.734	36.58
348.944	38.03
349.154	38.24
349.364	38.06
349.574	36.37
349.784	36.33
349.994	36.05
350.204	38.19
350.413	38.71
350.623	37.95
350.833	36.45
351.043	35.22
351.253	33.46
351.463	34.14
351.672	32.09
351.882	32.84
352.092	32.87
352.302	33.15
352.511	32.6
352.721	30.94
352.931	30.49
353.141	31.43
353.35	32.1
353.56	31.91
353.77	30.49
353.979	32.54
354.189	33.19
354.399	33.05
354.608	33.49
354.818	33.23
355.027	35.72
355.237	36.08
355.447	35.64
355.656	35.26
355.866	35.71
356.075	36.03
356.285	36.15
356.494	35.61
356.704	35.27
356.913	34.02
357.123	33.5
357.332	32.8
357.542	33.52
357.751	33.81
357.96	34.56
358.17	33.8
358.379	34.23
358.589	34.55
358.798	33.52
359.007	34.45
359.217	35.31
359.426	35.03
359.635	34.22
359.845	34.9
360.054	34.32
360.263	33.82
360.472	35.12
360.682	34.97
360.891	33.88
361.1	34.59
361.309	33.95
361.519	32.84
361.728	32.86
361.937	32.94
362.146	32.2
362.355	32.33
362.564	31.94
362.774	31.61
362.983	30.78
363.192	30.71
363.401	31.16
363.61	30.89
363.819	31.58
364.028	31.47
364.237	30.92
364.446	30.67
364.655	31.06
364.864	32.23
365.073	32.14
365.282	33.56
365.491	33.24
365.7	31.86
365.909	31.16
366.118	30.53
366.327	30.73
366.536	31.76
366.745	31.91
366.954	32.11
367.162	31.93
367.371	31.04
367.58	31.19
367.789	32.1
367.998	33.02
368.207	34.2
368.415	33.35
368.624	34.05
368.833	32.97
369.042	33.8
369.25	33.07
369.459	32.15
369.668	32.04
369.877	31.7
370.085	32.11
370.294	31.87
370.503	30.91
370.711	31.57
370.92	29.47
371.129	30.78
371.337	29.31
371.546	28.66
371.754	28.98
371.963	28.59
372.171	27.58
372.38	26.95
372.589	26.95
372.797	26.26
373.006	26.99
373.214	27.75
373.423	27.31
373.631	29.22
373.84	29.38
374.048	28.5
374.256	29.83
374.465	30.94
374.673	30.16
374.882	30.35
375.09	31.36
375.298	31.1
375.507	31.75
375.715	31.2
375.923	28.65
376.132	27.8
376.34	28.67
376.548	28.57
376.757	27.68
376.965	27.87
377.173	27.55
377.381	27.6
377.59	26.8
377.798	26.94
378.006	26.94
378.214	28.65
378.423	30.36
378.631	29.4
378.839	28.87
379.047	29.33
379.255	29.43
379.463	29.22
379.671	30.21
379.879	31.2
380.088	30.11
380.296	30.6
380.504	32.57
380.712	31.83
380.92	32.6
381.128	32.76
381.336	31.51
381.544	32.35
381.752	32.54
381.96	32.85
382.168	32.29
382.376	31.61
382.584	29.68
382.791	27.54
382.999	26.62
383.207	26.28
383.415	26.22
383.623	26.89
383.831	26.65
384.039	27.2
384.247	25.34
384.454	25.83
384.662	26.44
384.87	26.61
385.078	26.86
385.285	27.47
385.493	27.23
385.701	27.73
385.909	27.32
386.116	26.3
386.324	26.08
386.532	26.93
386.739	26.52
386.947	27.94
387.155	28.88
387.362	30
387.57	29.78
387.778	29.96
387.985	28.84
388.193	29.83
388.4	30.2
388.608	29.13
388.816	28.16
389.023	27.77
389.231	26.83
389.438	27.2
389.646	27.07
389.853	27.41
390.061	27.17
390.268	27.17
390.475	26.37
390.683	25.9
390.89	27.06
391.098	27.31
391.305	28.23
391.512	28.7
391.72	28.3
391.927	27.22
392.135	26.71
392.342	27.11
392.549	27.65
392.756	27.9
392.964	28.41
393.171	28.28
393.378	28.51
393.586	26.58
393.793	26.12
394	26.15
394.207	26
394.414	26.27
394.622	26.62
394.829	26.56
395.036	26.54
395.243	26.54
395.45	26.15
395.657	25.44
395.864	27.3
396.072	27.18
396.279	27.26
396.486	26.55
396.693	27.04
396.9	25.76
397.107	25.17
397.314	24.96
397.521	25.5
397.728	24.5
397.935	24.58
398.142	23.14
398.349	22.76
398.556	22.31
398.763	23.4
398.97	23.09
399.177	24.66
399.383	24.62
399.59	24.2
399.797	24.21
400.004	24.74
400.211	25.03
400.418	25.48
400.625	26.16
400.831	26.33
401.038	26.25
401.245	26.65
401.452	25.73
401.658	26.01
401.865	26.54
402.072	26.65
402.279	26.63
402.485	25.49
402.692	26.13
402.899	26
403.105	25.21
403.312	24.99
403.519	24.72
403.725	24.68
403.932	24.29
404.138	24.21
404.345	23.48
404.552	23.78
404.758	25.64
404.965	25.21
405.171	25.05
405.378	26.33
405.584	26.3
405.791	25.97
405.997	26.25
406.204	26.67
406.41	25.63
406.617	25.79
406.823	25.61
407.029	25.07
407.236	24.9
407.442	24.48
407.649	24.92
407.855	25.21
408.061	24.59
408.268	24.34
408.474	25.26
408.68	26.18
408.887	26.16
409.093	26.2
409.299	25.99
409.505	25.77
409.712	26.94
409.918	24.87
410.124	24.23
410.33	24.43
410.537	23.63
410.743	23.13
410.949	23.69
411.155	23.72
411.361	23.24
411.567	22.94
411.773	23.1
411.98	21.91
412.186	23.29
412.392	22.87
412.598	22.83
412.804	24.11
413.01	23.12
413.216	22.03
413.422	21.57
413.628	21.81
413.834	22.27
414.04	21.89
414.246	22.46
414.452	21.99
414.658	22.42
414.864	22.51
415.07	22.22
415.275	22.94
415.481	23.69
415.687	23.97
415.893	23.91
416.099	23.75
416.305	23.99
416.511	23.69
416.716	23.07
416.922	23.26
417.128	22.96
417.334	22.49
417.539	22.23
417.745	22.17
417.951	22.03
418.157	22.1
418.362	22.12
418.568	21.1
418.774	20.82
418.979	21.37
419.185	21.07
419.391	21.26
419.596	21.74
419.802	21.96
420.008	21.5
420.213	22.08
420.419	22.08
420.624	22.15
420.83	23.11
421.035	23.29
421.241	23
421.446	22.79
421.652	23.26
421.857	22.93
422.063	22.71
422.268	22.91
422.474	22.39
422.679	22.36
422.885	22.51
423.09	22.23
423.295	22.07
423.501	22.22
423.706	22.19
423.911	21.56
424.117	21.41
424.322	21.39
424.527	21.89
424.733	21.82
424.938	21.35
425.143	21
425.349	21.07
425.554	21.05
425.759	21.46
425.964	21.47
426.169	21.71
426.375	21.92
426.58	21.93
426.785	20.83
426.99	20.88
427.195	21.28
427.4	21.32
427.605	21.17
427.811	21.61
428.016	21.05
428.221	21.47
428.426	21.44
428.631	20.94
428.836	20.52
429.041	20.43
429.246	20.12
429.451	20.36
429.656	20.29
429.861	20.47
430.066	20.1
430.271	20.51
430.476	20.57
430.681	21.25
430.886	21.26
431.09	21.25
431.295	21.79
431.5	21.88
431.705	21.41
431.91	21.52
432.115	21.03
432.32	20.8
432.524	20.23
432.729	19.72
432.934	19.08
433.139	19.72
433.343	19.49
433.548	19.29
433.753	19.32
433.958	18.93
434.162	18.32
434.367	18.4
434.572	18.19
434.776	18.1
434.981	17.93
435.186	17.36
435.39	17.09
435.595	17.67
435.799	17.89
436.004	16.99
436.209	17.71
436.413	18.19
436.618	17.98
436.822	18.65
437.027	18.38
437.231	19
437.436	19.19
437.64	19.12
437.845	18.97
438.049	19.58
438.253	20.29
438.458	20.86
438.662	20.46
438.867	20.71
439.071	20.28
439.275	20.62
439.48	20.32
439.684	20.67
439.888	20.9
440.093	21.19
440.297	20.31
440.501	20.08
440.706	19.06
440.91	19.13
441.114	19.3
441.318	19.01
441.523	18.8
441.727	18.74
441.931	18.81
442.135	18.06
442.339	17.9
442.543	18.09
442.748	18.47
442.952	18.75
443.156	19.01
443.36	18.82
443.564	18.7
443.768	19
443.972	19.39
444.176	19.01
444.38	19.06
444.584	19.21
444.788	19.16
444.992	19.29
445.196	19.27
445.4	19.25
445.604	19.01
445.808	19.4
446.012	19.18
446.216	18.73
446.42	18.84
446.624	19.2
446.828	19.24
447.032	19
447.235	18.9
447.439	18.84
447.643	18.79
447.847	18.82
448.051	19.18
448.254	19.21
448.458	19.76
448.662	19.82
448.866	19.08
449.069	18.49
449.273	18.99
449.477	18.65
449.681	18.95
449.884	18.83
450.088	19.13
450.292	18.46
450.495	18.92
450.699	18.44
450.902	18.94
451.106	19.53
451.31	20.01
451.513	19.53
451.717	19.52
451.92	19.38
452.124	19.39
452.327	19.91
452.531	19.63
452.734	19.76
452.938	19.56
453.141	19.36
453.345	19.33
453.548	18.78
453.752	18.99
453.955	18.62
454.158	18.68
454.362	18.7
454.565	18.08
454.769	19.1
454.972	18.26
455.175	18.87
455.379	18.63
455.582	18.41
455.785	18.47
455.988	18.84
456.192	19.31
456.395	18.45
456.598	18.34
456.801	17.93
457.005	17.58
457.208	17.78
457.411	17.34
457.614	16.22
457.817	16.8
458.021	17.07
458.224	17.05
458.427	17.23
458.63	17.77
458.833	17.49
459.036	17.38
459.239	17.27
459.442	17.31
459.645	17.5
459.848	17.98
460.051	17.65
460.254	17.64
460.457	17.23
460.66	16.98
460.863	16.63
461.066	16.83
461.269	16.81
461.472	16.89
461.675	17.07
461.878	16.86
462.081	17.03
462.284	17.5
462.486	16.98
462.689	17.31
462.892	17.45
463.095	17.63
463.298	18.09
463.5	18.83
463.703	18.84
463.906	18.08
464.109	18.07
464.311	18.2
464.514	18.22
464.717	18.85
464.92	18.38
465.122	18.18
465.325	18.16
465.528	17.65
465.73	17.44
465.933	17.36
466.135	17.53
466.338	17.43
466.541	17.65
466.743	17.46
466.946	17.12
467.148	17.07
467.351	17.02
467.553	17.09
467.756	17.5
467.958	17.25
468.161	17.08
468.363	17.42
468.566	17.29
468.768	16.91
468.971	16.66
469.173	16.9
469.375	16.71
469.578	17.35
469.78	16.79
469.983	16.67
470.185	17.22
470.387	17.32
470.59	17.35
470.792	18.03
470.994	18.78
471.196	18.92
471.399	18.79
471.601	19.51
471.803	18.67
472.005	19.29
472.208	18.46
472.41	18.13
472.612	17.88
472.814	17.48
473.016	16.8
473.218	16.29
473.421	15.33
473.623	15.21
473.825	15.23
474.027	15.57
474.229	15.61
474.431	16.28
474.633	15.74
474.835	16.22
475.037	16.61
475.239	17.1
475.441	17.3
475.643	18.04
475.845	18.06
476.047	17.84
476.249	17.54
476.451	17.87
476.653	17.98
476.855	18.36
477.057	18.81
477.258	18.86
477.46	18.83
477.662	18.56
477.864	18.52
478.066	18.65
478.268	18.52
478.469	18.84
478.671	18.14
478.873	17.72
479.075	17.83
479.276	17.1
479.478	16.85
479.68	16.37
479.882	16.43
480.083	16.15
480.285	16.22
480.487	16.39
480.688	16.12
480.89	16.54
481.091	16.59
481.293	16.52
481.495	16.34
481.696	16.32
481.898	16.39
482.099	16.18
482.301	16.33
482.502	15.95
482.704	15.86
482.905	15.74
483.107	15.61
483.308	15.57
483.51	15.45
483.711	15.46
483.913	15.37
484.114	15.3
484.315	15.25
484.517	15.06
484.718	15.17
484.92	14.95
485.121	15.03
485.322	14.98
485.524	15.04
485.725	15.06
485.926	15.18
486.127	15.32
486.329	15.37
486.53	15.33
486.731	15.49
486.932	15.33
487.134	15.38
487.335	15.59
487.536	15.61
487.737	15.62
487.938	15.63
488.139	15.51
488.341	15.24
488.542	15.07
488.743	15.39
488.944	15.57
489.145	15.86
489.346	16.06
489.547	15.79
489.748	15.94
489.949	15.96
490.15	16.15
490.351	16.12
490.552	16.26
490.753	16.62
490.954	16.65
491.155	16.43
491.356	16.29
491.557	16.34
491.758	16.39
491.959	16.26
492.159	16.26
492.36	16.16
492.561	16.17
492.762	16.44
492.963	16.36
493.164	16.27
493.364	16.44
493.565	16.58
493.766	16.8
493.967	16.71
494.167	16.95
494.368	16.98
494.569	17.05
494.769	17.51
494.97	17.84
495.171	17.57
495.371	17.58
495.572	17.32
495.773	17.17
495.973	16.98
496.174	17.28
496.375	17.25
496.575	17.45
496.776	17.76
496.976	17.75
497.177	17.34
497.377	17.73
497.578	17.71
497.778	18.01
497.979	18.32
498.179	18.48
498.38	18.45
498.58	18.54
498.78	18.48
498.981	18.28
499.181	18.4
499.382	18.6
499.582	18.5
499.782	18.51
499.983	18.67
500.183	18.67
500.383	18.59
500.584	18.34
500.784	18.32
500.984	18.61
501.184	18.49
501.385	18.27
501.585	18.05
501.785	18.08
501.985	18.36
502.185	18.25
502.386	18.4
502.586	18.46
502.786	18.59
502.986	18.24
503.186	17.94
503.386	18.59
503.586	18.79
503.786	18.83
503.987	18.7
504.187	18.09
504.387	18.37
504.587	18.31
504.787	18.47
504.987	19.1
505.187	19.5
505.387	19.74
505.587	19.39
505.786	19.03
505.986	19.58
506.186	19.45
506.386	20.43
506.586	19.93
506.786	19.94
506.986	19.72
507.186	19.09
507.386	19.46
507.585	19.11
507.785	19.15
507.985	19.41
508.185	19.04
508.384	19.6
508.584	19.2
508.784	19.68
508.984	19.55
509.183	19.74
509.383	20.18
509.583	20.13
509.782	20.6
509.982	20.63
510.182	20.89
510.381	20.98
510.581	20.84
510.781	20.68
510.98	20.24
511.18	20.56
511.379	20.43
511.579	20.27
511.778	20.23
511.978	20.37
512.177	20.03
512.377	20.01
512.576	19.92
512.776	19.98
512.975	20.15
513.175	20.39
513.374	20.39
513.573	20.73
513.773	20.93
513.972	20.89
514.172	20.78
514.371	21.09
514.57	21.38
514.77	21.99
514.969	21.5
515.168	21.83
515.367	21.87
515.567	21.85
515.766	21.97
515.965	22.09
516.164	22.56
516.364	22.14
516.563	22.38
516.762	21.97
516.961	21.84
517.16	21.99
517.359	21.93
517.559	22.16
517.758	21.95
517.957	21.77
518.156	21.85
518.355	21.6
518.554	22.07
518.753	21.88
518.952	22.28
519.151	22.17
519.35	22.59
519.549	22.68
519.748	22.69
519.947	23.01
520.146	23.11
520.345	23
520.544	23.19
520.743	23.42
520.942	23.84
521.141	23.45
521.339	23.28
521.538	22.97
521.737	22.84
521.936	22.83
522.135	23.15
522.333	23.28
522.532	23.58
522.731	23.09
522.93	22.72
523.129	22.63
523.327	22.64
523.526	22.88
523.725	23.17
523.923	22.88
524.122	23.14
524.321	22.98
524.519	23.15
524.718	23.08
524.917	23.18
525.115	23.16
525.314	22.94
525.512	22.92
525.711	22.84
525.909	22.46
526.108	22.69
526.306	22.35
526.505	22.25
526.703	22.09
526.902	21.75
527.1	21.88
527.299	21.85
527.497	21.77
527.696	21.77
527.894	21.76
528.092	22.02
528.291	22.05
528.489	22.19
528.688	22.23
528.886	22.29
529.084	22.59
529.283	22.46
529.481	22.5
529.679	22.84
529.877	23.09
530.076	23.06
530.274	23.12
530.472	23.25
530.67	23.13
530.869	23.11
531.067	23.16
531.265	23.16
531.463	23.51
531.661	23.37
531.859	23.04
532.057	23
532.255	23.44
532.454	23.47
532.652	23.41
532.85	23.74
533.048	23.98
533.246	23.79
533.444	23.92
533.642	23.84
533.84	24.27
534.038	24.49
534.236	24.6
534.434	24.8
534.632	24.57
534.83	24.77
535.027	24.33
535.225	24.29
535.423	24.47
535.621	24.31
535.819	24.07
536.017	23.77
536.215	24.26
536.412	24.21
536.61	23.84
536.808	24.29
537.006	24.3
537.203	24.66
537.401	24.43
537.599	24.65
537.797	24.68
537.994	25.09
538.192	25.29
538.39	24.55
538.587	24.63
538.785	24.86
538.983	24.93
539.18	24.91
539.378	24.81
539.575	25.05
539.773	25.04
539.97	25.07
540.168	25.08
540.366	25.08
540.563	25.1
540.761	25.27
540.958	25.34
541.155	25.01
541.353	25.02
541.55	25.06
541.748	25.21
541.945	25
542.143	24.88
542.34	25.01
542.537	25.12
542.735	25.31
542.932	25.3
543.129	25.16
543.327	25.62
543.524	25.75
543.721	25.62
543.919	25.64
544.116	26.22
544.313	26.46
544.51	26.32
544.708	26.51
544.905	26.89
545.102	26.87
545.299	27.05
545.496	26.92
545.693	26.94
545.891	27.11
546.088	27.06
546.285	27.07
546.482	27.07
546.679	27.06
546.876	26.92
547.073	26.79
547.27	26.92
547.467	26.67
547.664	27.11
547.861	27.26
548.058	27.67
548.255	27.8
548.452	27.52
548.649	27.6
548.846	27.71
549.043	27.78
549.24	27.34
549.437	27.16
549.633	27.37
549.83	26.72
550.027	26.59
550.224	26.57
550.421	26.34
550.618	26.63
550.814	26.39
551.011	26.15
551.208	26.3
551.405	27
551.601	26.83
551.798	26.65
551.995	27.03
552.191	27.36
552.388	26.65
552.585	26.69
552.781	26.55
552.978	27.42
553.175	27.72
553.371	27.88
553.568	27.43
553.764	27.69
553.961	27.87
554.157	27.69
554.354	27.33
554.55	28.24
554.747	29.19
554.943	29.94
555.14	30.02
555.336	30.78
555.533	30.1
555.729	30.59
555.926	30.46
556.122	30.97
556.318	31.47
556.515	31.4
556.711	31.34
556.907	30.87
557.104	31.02
557.3	30.94
557.496	30.59
557.693	31.01
557.889	31.2
558.085	31.31
558.281	31.65
558.478	31.5
558.674	31.14
558.87	30.71
559.066	30.27
559.262	30.31
559.459	30.2
559.655	30.33
559.851	30.19
560.047	29.57
560.243	29.7
560.439	29.28
560.635	29.82
560.831	30.77
561.027	31.46
561.223	31.99
561.419	31.66
561.615	31.61
561.811	31.93
562.007	32.86
562.203	33
562.399	33.24
562.595	33.73
562.791	33.09
562.987	32.67
563.183	32.12
563.379	31.33
563.575	31.11
563.771	31.46
563.966	30.79
564.162	30.62
564.358	31.19
564.554	31.31
564.75	30.44
564.945	30.54
565.141	30.52
565.337	30.76
565.533	31.19
565.728	31.38
565.924	31.33
566.12	31.87
566.315	31.51
566.511	31.21
566.707	31.3
566.902	31.24
567.098	31.47
567.293	31.92
567.489	32.16
567.684	32.56
567.88	32.42
568.076	32.06
568.271	32.22
568.467	32.74
568.662	32.6
568.858	32.53
569.053	32.78
569.248	32.56
569.444	32.23
569.639	32.12
569.835	32.31
570.03	32.19
570.225	32.88
570.421	32.53
570.616	32.54
570.812	33.14
571.007	33.22
571.202	32.6
571.397	32.73
571.593	32.89
571.788	33.05
571.983	32.64
572.178	33.06
572.374	32.88
572.569	32.88
572.764	32.81
572.959	32.75
573.154	32.8
573.35	33.81
573.545	34.19
573.74	33.84
573.935	33.68
574.13	33.73
574.325	33.2
574.52	32.68
574.715	32.72
574.91	32.83
575.105	32.41
575.3	32.5
575.495	32.82
575.69	32.87
575.885	33.31
576.08	33.65
576.275	33.81
576.47	34.09
576.665	34.49
576.86	34.77
577.055	34.67
577.25	35.12
577.444	34.91
577.639	35.29
577.834	35.49
578.029	35.61
578.224	35.82
578.418	35.79
578.613	35.9
578.808	35.64
579.003	35.51
579.197	35.68
579.392	35.81
579.587	35.84
579.781	35.17
579.976	34.56
580.171	34.72
580.365	34.16
580.56	34.14
580.755	34.7
580.949	35.4
581.144	35.14
581.338	34.74
581.533	34.55
581.727	34.63
581.922	34.7
582.116	35.04
582.311	35.16
582.505	34.66
582.7	34.91
582.894	34.61
583.089	33.95
583.283	34.61
583.478	35.01
583.672	34.98
583.866	34.84
584.061	35.31
584.255	35.58
584.449	35.25
584.644	35.76
584.838	35.95
585.032	35.9
585.226	35.99
585.421	35.25
585.615	34.91
585.809	35.5
586.003	35.74
586.198	35.18
586.392	34.38
586.586	34.57
586.78	35.07
586.974	35.16
587.168	34.45
587.363	34.6
587.557	34.78
587.751	35.12
587.945	34.85
588.139	33.94
588.333	33.99
588.527	34.46
588.721	34.05
588.915	34.56
589.109	34.65
589.303	35
589.497	35.45
589.691	35.61
589.885	35.45
590.079	35.67
590.273	36.28
590.466	36.51
590.66	37.05
590.854	38.35
591.048	37.56
591.242	37.67
591.436	38.57
591.629	38.61
591.823	38.88
592.017	38.44
592.211	38.37
592.404	39.21
592.598	38.86
592.792	38.07
592.986	36.89
593.179	36.86
593.373	36.04
593.567	35.97
593.76	35.47
593.954	35.02
594.147	36.48
594.341	36.01
594.535	35.41
594.728	34.91
594.922	35.26
595.115	35.72
595.309	35.92
595.502	36.6
595.696	35.82
595.889	36.12
596.083	36.25
596.276	36.06
596.47	36.18
596.663	36.26
596.856	36.39
597.05	36.21
597.243	35.95
597.437	36.08
597.63	35.63
597.823	36.68
598.017	36.4
598.21	35.98
598.403	35.26
598.596	35.65
598.79	35.89
598.983	36.18
599.176	36.67
599.369	37.01
599.563	36.27
599.756	36.96
599.949	36.5
600.142	36.26
600.335	36.91
600.528	36.38
600.722	36.3
600.915	36.59
601.108	36.7
601.301	36.88
601.494	36.78
601.687	36.63
601.88	36.14
602.073	35.92
602.266	36.42
602.459	36.32
602.652	36.2
602.845	36.11
603.038	35.63
603.231	35.31
603.424	34.86
603.617	34.86
603.809	34.76
604.002	34.45
604.195	34.12
604.388	34.18
604.581	34.15
604.774	34.81
604.966	34.67
605.159	34.73
605.352	35.31
605.545	34.95
605.737	34.69
605.93	35.47
606.123	35.61
606.316	36.02
606.508	35.79
606.701	35.72
606.894	35.09
607.086	35.21
607.279	35.68
607.471	36.15
607.664	36.82
607.857	37.28
608.049	37.1
608.242	37.15
608.434	37.01
608.627	36.88
608.819	37.23
609.012	37.25
609.204	36.64
609.397	36.64
609.589	36.15
609.782	36.41
609.974	35.82
610.166	35.49
610.359	36.05
610.551	36.54
610.743	36.82
610.936	37.21
611.128	37.65
611.32	38.13
611.513	37.05
611.705	36.58
611.897	36.04
612.09	36.49
612.282	36.78
612.474	36.77
612.666	36.63
612.858	37.3
613.051	36.66
613.243	37.42
613.435	38.18
613.627	38.49
613.819	39.86
614.011	40.24
614.203	40.28
614.395	40.73
614.588	40.54
614.78	41.06
614.972	40.83
615.164	40.15
615.356	39.46
615.548	38.94
615.74	39.86
615.932	38.71
616.124	38.74
616.315	38.58
616.507	38.49
616.699	38.41
616.891	37.25
617.083	36.62
617.275	37.97
617.467	38.27
617.659	38.26
617.85	38.14
618.042	38.24
618.234	38.67
618.426	38.37
618.618	37.95
618.809	37.7
619.001	38.57
619.193	39.76
619.384	39.64
619.576	39.77
619.768	40.13
619.959	39.94
620.151	40.66
620.343	39.37
620.534	39.35
620.726	40.23
620.917	40.7
621.109	40.2
621.301	38.35
621.492	38.72
621.684	38.44
621.875	38.1
622.067	37.8
622.258	37.12
622.45	37.55
622.641	38.48
622.832	37.95
623.024	37.11
623.215	37.27
623.407	38.04
623.598	36.92
623.789	36.25
623.981	36.29
624.172	36.81
624.363	37.34
624.555	37.52
624.746	37.14
624.937	36.93
625.129	36.82
625.32	36.83
625.511	37.58
625.702	37.67
625.893	37.32
626.085	37.04
626.276	36.92
626.467	36.68
626.658	36.85
626.849	37.32
627.04	36.74
627.231	36.93
627.422	36.54
627.614	35.38
627.805	35.87
627.996	36.08
628.187	36.34
628.378	36.5
628.569	36.68
628.76	35.62
628.951	34.93
629.142	35.45
629.332	35.72
629.523	36.43
629.714	36.84
629.905	37.17
630.096	36.84
630.287	36.87
630.478	36.83
630.669	36.75
630.859	37.28
631.05	36.88
631.241	37.2
631.432	37.15
631.623	37.96
631.813	38.36
632.004	37.48
632.195	38.2
632.385	38.11
632.576	37.89
632.767	37.8
632.957	38.66
633.148	39.2
633.339	39.06
633.529	39.07
633.72	38.61
633.91	38.92
634.101	39.9
634.292	40.48
634.482	40.31
634.673	40.14
634.863	40.36
635.054	40.59
635.244	40.47
635.435	40.53
635.625	40.35
635.815	40.27
636.006	40.43
636.196	39.2
636.387	39.36
636.577	39.74
636.767	40.64
636.958	40.07
637.148	38.44
637.338	38.54
637.529	39.37
637.719	39.62
637.909	40.29
638.099	39.31
638.29	39.31
638.48	38.83
638.67	38.4
638.86	37.75
639.05	38.88
639.241	40.6
639.431	41.1
639.621	40.43
639.811	40.63
640.001	39.55
640.191	39.82
640.381	40.21
640.571	40.28
640.761	40.3
640.951	40.98
641.141	41.08
641.331	39.91
641.521	39.21
641.711	39.02
641.901	39.4
642.091	40.85
642.281	40.82
642.471	40.47
642.661	40.64
642.851	40.84
643.041	39.84
643.231	39.81
643.42	41.22
643.61	42.64
643.8	42.76
643.99	42.51
644.18	42.43
644.369	42.92
644.559	43.13
644.749	42.35
644.939	43.72
645.128	43.69
645.318	43.74
645.508	43.17
645.697	43.21
645.887	44.08
646.076	43.67
646.266	42.68
646.456	42.24
646.645	42.83
646.835	43.25
647.024	42.89
647.214	42.84
647.403	40.99
647.593	40.79
647.782	39.41
647.972	40.14
648.161	40.44
648.351	40.1
648.54	39.66
648.73	39.93
648.919	39.95
649.108	39.49
649.298	40.06
649.487	42.43
649.677	42.86
649.866	43.75
650.055	42.44
650.244	42.75
650.434	44.09
650.623	44.25
650.812	44.54
651.002	44.51
651.191	45.51
651.38	45.86
651.569	45.35
651.758	43.76
651.947	43.03
652.137	44.05
652.326	43.39
652.515	42.41
652.704	42.28
652.893	42.57
653.082	43.27
653.271	41.91
653.46	40.09
653.649	39.36
653.838	40.82
654.027	40.55
654.216	39.52
654.405	40.37
654.594	40.01
654.783	40.85
654.972	39.25
655.161	38.48
655.35	39.19
655.539	39.91
655.728	40.28
655.916	40.08
656.105	41.35
656.294	41.38
656.483	40.26
656.672	40.34
656.86	39.62
657.049	39.65
657.238	39.53
657.427	38.93
657.615	39.34
657.804	39.18
657.993	37.84
658.181	36.64
658.37	36.12
658.559	36.56
658.747	36.4
658.936	36.29
659.125	37.54
659.313	37.73
659.502	37.03
659.69	36.25
659.879	36.36
660.067	37.9
660.256	38.55
660.444	39.58
660.633	40.56
660.821	41.37
661.01	42.64
661.198	42.11
661.387	41.9
661.575	44.09
661.763	45.11
661.952	46.22
662.14	47.13
662.328	47.27
662.517	47.31
662.705	46.3
662.893	45.34
663.082	44.1
663.27	43.05
663.458	44.19
663.646	43.01
663.834	42.84
664.023	41.6
664.211	40.76
664.399	41.26
664.587	39.65
664.775	39.28
664.963	41.01
665.152	42.17
665.34	42.38
665.528	42.22
665.716	43.13
665.904	42.93
666.092	42.56
666.28	42.91
666.468	42.89
666.656	44.39
666.844	45.21
667.032	44.57
667.22	43.91
667.408	44.95
667.596	44.26
667.784	42.72
667.971	42.69
668.159	44.33
668.347	43.89
668.535	43.58
668.723	44.18
668.911	44.91
669.098	44.92
669.286	44.97
669.474	43.56
669.662	44.54
669.849	46.23
670.037	45.77
670.225	44.21
670.413	44.39
670.6	44.9
670.788	44.15
670.976	41.54
671.163	41.33
671.351	41.55
671.538	41.97
671.726	40.42
671.913	41.53
672.101	43.09
672.289	43.78
672.476	42.56
672.664	41.69
672.851	41.33
673.039	43.79
673.226	44.59
673.413	43.54
673.601	44.34
673.788	44.68
673.976	44.24
674.163	43.72
674.35	44.43
674.538	45.86
674.725	47.03
674.912	47.38
675.1	46.61
675.287	46.16
675.474	47
675.662	46.47
675.849	47.38
676.036	46.21
676.223	46.44
676.411	46.45
676.598	46.79
676.785	45.95
676.972	46.37
677.159	46.2
677.346	44.81
677.533	44.07
677.721	43.97
677.908	43.99
678.095	43.59
678.282	43.78
678.469	42.82
678.656	41.73
678.843	41.68
679.03	41.07
679.217	40.78
679.404	42.04
679.591	41.91
679.778	43
679.964	42.96
680.151	43.36
680.338	42.93
680.525	42.97
680.712	43.66
680.899	44.12
681.086	44.16
681.272	44.8
681.459	44.37
681.646	45.27
681.833	44.6
682.02	43.77
682.206	42.98
682.393	43.66
682.58	44.01
682.766	43.42
682.953	42.72
683.14	43.9
683.326	44.67
683.513	44.15
683.7	44.61
683.886	44.7
684.073	45.34
684.259	46.34
684.446	44.89
684.632	45.42
684.819	46.33
685.005	47.28
685.192	46.88
685.378	45.45
685.565	44.96
685.751	44.15
685.938	43.46
686.124	43.4
686.31	43.62
686.497	44.01
686.683	42.28
686.87	41.15
687.056	39.62
687.242	38.31
687.429	37.87
687.615	37.47
687.801	36.83
687.987	37.41
688.174	37.95
688.36	37.44
688.546	37.89
688.732	38.42
688.918	39.87
689.105	39.92
689.291	40.78
689.477	39.73
689.663	41.53
689.849	42.73
690.035	43.32
690.221	43.47
690.407	44.26
690.593	43.76
690.779	45.48
690.965	45.05
691.151	45.75
691.337	46.34
691.523	48.79
691.709	48.58
691.895	48.7
692.081	48.57
692.267	47.1
692.453	46.43
692.639	47.33
692.825	44.61
693.011	43.29
693.196	43.18
693.382	42.39
693.568	40.66
693.754	39.1
693.94	37.39
694.125	37.22
694.311	37.14
694.497	37.37
694.682	37.94
694.868	39.04
695.054	40.7
695.239	41.96
695.425	42.34
695.611	42.13
695.796	43.62
695.982	44.23
696.168	44.41
696.353	45.75
696.539	45.18
696.724	43.85
696.91	44.16
697.095	43.59
697.281	41.35
697.466	39.87
697.652	40.58
697.837	40.39
698.023	40.43
698.208	39.24
698.393	37.7
698.579	37.66
698.764	37.06
698.949	37.16
699.135	36.11
699.32	36.76
699.505	37.02
699.691	37.29
699.876	37.68
700.061	36.76
700.246	36.44
700.432	37.28
700.617	36.82
700.802	37.56
700.987	38.32
701.172	36.75
701.358	36.15
701.543	36.24
701.728	36.26
701.913	36.34
702.098	39.12
702.283	40.23
702.468	41.54
702.653	43.39
702.838	43.94
703.023	43.81
703.208	46.79
703.393	48.24
703.578	49.97
703.763	50.38
703.948	50.55
704.133	49.05
704.318	51.2
704.503	50.65
704.688	50.18
704.873	49.06
705.057	47.76
705.242	47.99
705.427	49.91
705.612	47.66
705.797	48.74
705.981	49.72
706.166	48.51
706.351	46.88
706.536	46.46
706.72	46.51
706.905	47.74
707.09	47.63
707.274	49.37
707.459	48.32
707.644	50.04
707.828	48.69
708.013	47.79
708.197	50.21
708.382	50.17
708.567	53.04
708.751	52.11
708.936	52.88
709.12	53.05
709.305	50.13
709.489	49.34
709.673	49.52
709.858	48.83
710.042	49.69
710.227	47.61
710.411	47.14
710.596	43.72
710.78	43.71
710.964	42.64
711.149	44.02
711.333	46.01
711.517	46.13
711.702	46.5
711.886	47.86
712.07	46.06
712.254	47.22
712.438	48.96
712.623	50.24
712.807	51.02
712.991	51.69
713.175	49.63
713.359	48.71
713.544	49.51
713.728	47.5
713.912	45.19
714.096	45.07
714.28	44.97
714.464	43.95
714.648	43.71
714.832	41.44
715.016	41.22
715.2	40.37
715.384	39.97
715.568	38.56
715.752	38.75
715.936	39.71
716.12	38.93
716.304	38.38
716.488	36.92
716.671	35.79
716.855	38.9
717.039	37.44
717.223	39.63
717.407	37.94
717.59	39.37
717.774	38.98
717.958	39.93
718.142	40.93
718.325	44.35
718.509	47.32
718.693	49.03
718.877	46.97
719.06	48.66
719.244	47.27
719.428	48.95
719.611	49.69
719.795	52.17
719.978	53.79
720.162	54.7
720.345	53.52
720.529	52.07
720.713	51.68
720.896	51.14
721.08	51.9
721.263	53.64
721.446	54.98
721.63	54.69
721.813	54.47
721.997	52.11
722.18	53.35
722.364	51.46
722.547	51.22
722.73	49.57
722.914	49.92
723.097	51.08
723.28	50.16
723.464	49.12
723.647	47.33
723.83	45.72
724.013	45.8
724.197	43.83
724.38	44.99
724.563	44.64
724.746	45.78
724.929	45.68
725.112	43.61
725.296	44.48
725.479	45.69
725.662	44.77
725.845	43.98
726.028	43.18
726.211	42.91
726.394	41.59
726.577	41.61
726.76	41.61
726.943	43.49
727.126	44.63
727.309	43.86
727.492	42.42
727.675	43.86
727.858	46.37
728.041	46.2
728.224	47.69
728.407	48.83
728.589	51.07
728.772	51.08
728.955	52.2
729.138	50.7
729.321	53.12
729.503	54.16
729.686	54.49
729.869	54.71
730.052	57.62
730.234	57.05
730.417	56.98
730.6	53.9
730.782	54.53
730.965	51.84
731.148	53.17
731.33	50.99
731.513	50.8
731.695	51.66
731.878	50.49
732.061	48.55
732.243	48.5
732.426	47.39
732.608	50.18
732.791	47.53
732.973	49.54
733.156	48.39
733.338	47.06
733.52	48.3
733.703	48.87
733.885	48.87
734.068	47.97
734.25	49.34
734.432	50.92
734.615	48.61
734.797	52.71
734.979	51.16
735.162	52.91
735.344	53.31
735.526	51.53
735.708	51.12
735.891	52.62
736.073	56.05
736.255	56.76
736.437	56.97
736.619	59.46
736.802	60.91
736.984	61.37
737.166	61.47
737.348	65.83
737.53	68.07
737.712	68.95
737.894	69.22
738.076	65.97
738.258	59.82
738.44	61.27
738.622	62.99
738.804	60.91
738.986	60.91
739.168	61.11
739.35	58.1
739.532	57.58
739.714	57.8
739.896	57.24
740.078	58.85
740.259	62.78
740.441	58.3
740.623	53.99
740.805	53.12
740.987	54.01
741.168	53.43
741.35	53.83
741.532	54.25
741.714	55.55
741.895	57.21
742.077	57.59
742.259	59.59
742.44	63.4
742.622	63.5
742.804	66.59
742.985	66.35
743.167	65.4
743.348	66.48
743.53	64.71
743.711	64.15
743.893	64.01
744.075	65.15
744.256	63.28
744.438	62.9
744.619	63.57
744.8	58.98
744.982	58.62
745.163	61.1
745.345	63.05
745.526	64.4
745.707	62.38
745.889	62.44
746.07	61.15
746.252	62.9
746.433	64.52
746.614	67.39
746.795	69.55
746.977	74.12
747.158	72.72
747.339	74.01
747.52	72.45
747.702	72.68
747.883	71.24
748.064	72.93
748.245	69.99
748.426	67.87
748.607	64.04
748.788	65.82
748.97	63.47
749.151	63.43
749.332	58.28
749.513	57.83
749.694	58.61
749.875	60.28
750.056	55.07
750.237	55.78
750.418	59.63
750.599	63.93
750.78	62.38
750.96	61.84
751.141	63.58
751.322	61.38
751.503	64.23
751.684	63.93
751.865	60.85
752.046	64.71
752.226	63.38
752.407	61.36
752.588	60.59
752.769	61.62
752.949	62.61
753.13	60.8
753.311	64.34
753.492	62.69
753.672	62.91
753.853	64.47
754.034	65.3
754.214	62.85
754.395	63.01
754.575	60.87
754.756	64.03
754.937	61.17
755.117	59.47
755.298	61.44
755.478	63.32
755.659	62.02
755.839	62
756.02	63.34
756.2	67.57
756.381	66.53
756.561	67.58
756.741	65.5
756.922	64.52
757.102	65.68
757.283	62.49
757.463	62.41
757.643	63.24
757.823	60.07
758.004	55.69
758.184	53.43
758.364	51.2
758.545	48
758.725	45.97
758.905	45.37
759.085	46.56
759.265	47.93
759.446	43.33
759.626	40.31
759.806	39.82
759.986	41.71
760.166	42.73
760.346	42.74
760.526	47.57
760.706	48.04
760.886	47.31
761.066	45.65
761.246	42.31
761.426	42.37
761.606	41.34
761.786	41.05
761.966	39.9
762.146	39.2
762.326	38.16
762.506	34.59
762.686	32.79
762.866	33.79
763.046	33.09
763.225	34.42
763.405	35.62
763.585	36.73
763.765	38.18
763.945	38.76
764.124	38.56
764.304	41.07
764.484	42.55
764.664	44.06
764.843	45.78
765.023	47.9
765.203	49.55
765.382	49.71
765.562	52.05
765.741	52.34
765.921	52.88
766.101	54.8
766.28	55.49
766.46	56.12
766.639	57.74
766.819	55.93
766.998	56.8
767.178	55.95
767.357	57.31
767.537	54.92
767.716	56.26
767.896	58.64
768.075	57.83
768.254	57.86
768.434	60.71
768.613	61.5
768.792	65.25
768.972	67.92
769.151	70.02
769.33	71.23
769.51	77.87
769.689	76.63
769.868	77.12
770.047	79.01
770.226	79.62
770.406	80.07
770.585	78.43
770.764	76.73
770.943	72.51
771.122	74.85
771.301	75.89
771.48	72.27
771.66	70.57
771.839	68.65
772.018	70.27
772.197	69.76
772.376	68.55
772.555	70.15
772.734	73.61
772.913	75.95
773.092	71.92
773.271	76.81
773.449	74.5
773.628	78.02
773.807	77.52
773.986	75.4
774.165	74.74
774.344	72.39
774.523	73.48
774.701	69.3
774.88	68.22
775.059	69.15
775.238	63
775.417	64.41
775.595	64.82
775.774	64.5
775.953	65.46
776.131	68.69
776.31	67.2
776.489	64.27
776.667	64.77
776.846	67.27
777.025	67.41
777.203	65.04
777.382	65.39
777.56	65.25
777.739	68.68
777.917	66.98
778.096	65.71
778.274	66.41
778.453	65.32
778.631	65.88
778.81	63.23
778.988	65.44
779.166	72.27
779.345	73.89
779.523	76.58
779.702	73.73
779.88	77.75
780.058	76.8
780.237	78.79
780.415	85.01
780.593	83.68
780.771	82.06
780.95	84.79
781.128	85.34
781.306	87.41
781.484	84.46
781.662	84.79
781.841	84.8
782.019	88.31
782.197	85.63
782.375	83.16
782.553	85.25
782.731	87.85
782.909	83.25
783.087	76.3
783.265	76.5
783.443	77.73
783.621	74.72
783.799	68.85
783.977	67.5
784.155	73.81
784.333	73.16
784.511	74.92
784.689	73.14
784.867	69.09
785.045	71.99
785.223	71.48
785.4	74.57
785.578	75.38
785.756	77.82
785.934	75.78
786.112	74.91
786.289	70.76
786.467	69.37
786.645	68.22
786.823	70.77
787	68.35
787.178	60.93
787.356	55.98
787.533	54.22
787.711	53.62
787.889	54.62
788.066	53.09
788.244	53.8
788.421	51.76
788.599	50.11
788.776	50.04
788.954	50.94
789.131	56.32
789.309	59.59
789.486	65.39
789.664	72.63
789.841	73.25
790.019	73.88
790.196	72.59
790.373	72.52
790.551	72.97
790.728	74.13
790.906	79.69
791.083	79.62
791.26	81.05
791.437	81.48
791.615	72.91
791.792	70.12
791.969	62.52
792.146	67.34
792.324	76.84
792.501	86.56
792.678	88.24
792.855	85.63
793.032	81.22
793.209	82.68
793.387	81.06
793.564	81.65
793.741	77.66
793.918	81.99
794.095	79.85
794.272	70.2
794.449	61.69
794.626	62.3
794.803	56.22
794.98	55.36
795.157	51.13
795.334	47.01
795.511	49.92
795.688	53.19
795.864	55.4
796.041	55.28
796.218	59.63
796.395	64.21
796.572	61.4
796.749	66.17
796.925	71.41
797.102	69.03
797.279	78.21
797.456	71.5
797.632	67.68
797.809	69.82
797.986	73.13
798.162	72.07
798.339	75.08
798.516	79.06
798.692	76.75
798.869	74.94
799.046	78.57
799.222	74.73
799.399	85.48
799.575	88.79
799.752	90.68
799.928	94.43
800.105	95.57
800.281	92.89
800.458	85.49
800.634	89.11
800.811	92
800.987	91.64
801.163	91.54
801.34	87.39
801.516	94.68
801.692	88.03
801.869	81.18
802.045	83.06
802.221	92.51
802.398	101.28
802.574	101.82
802.75	103.65
802.926	107.9
803.103	107.7
803.279	104.95
803.455	102.32
803.631	100.91
803.807	114.03
803.983	113.65
804.16	91.73
804.336	90.37
804.512	91
804.688	91.3
804.864	89.45
805.04	85.99
805.216	84.55
805.392	87.51
805.568	89.3
805.744	81.25
805.92	72.46
806.096	83.2
806.272	80.71
806.448	87.88
806.623	78.9
806.799	75.48
806.975	91.29
807.151	91.98
807.327	86.3
807.503	93.8
807.678	104.43
807.854	114.96
808.03	104.33
808.206	111.14
808.381	93.48
808.557	94.09
808.733	88.05
808.908	86.8
809.084	93.33
809.26	83.33
809.435	83.61
809.611	79.75
809.787	80.37
809.962	76.15
810.138	70.71
810.313	76.12
810.489	74.14
810.664	77.48
810.84	74.16
811.015	73.92
811.191	77.28
811.366	72.89
811.542	72.87
811.717	71.38
811.892	77.37
812.068	79.45
812.243	77.83
812.419	79.27
812.594	81.74
812.769	78.91
812.944	74.29
813.12	81.8
813.295	82
813.47	75.92
813.645	71.96
813.821	73.72
813.996	74.62
814.171	65.58
814.346	67.25
814.521	62.29
814.697	55.69
814.872	55.37
815.047	54.92
815.222	59.37
815.397	57.97
815.572	55.44
815.747	48.08
815.922	50.29
816.097	56.5
816.272	51.15
816.447	53.45
816.622	68.76
816.797	68.42
816.972	68.37
817.147	64.17
817.322	64.41
817.496	66.89
817.671	71.04
817.846	69.33
818.021	67.76
818.196	72.02
818.371	70.47
818.545	62.45
818.72	63.74
818.895	60.26
819.069	61.88
819.244	59.57
819.419	59.29
819.594	52.66
819.768	47.43
819.943	45.7
820.117	45.87
820.292	42.37
820.467	40.52
820.641	37.4
820.816	36.15
820.99	32.95
821.165	31.99
821.339	31
821.514	31.91
821.688	32.27
821.863	31.91
822.037	30.66
822.212	29.93
822.386	28.92
822.56	29.23
822.735	28.97
822.909	29.44
823.084	29.76
823.258	29.53
823.432	29.83
823.606	29.8
823.781	29.88
823.955	29.74
824.129	31.43
824.303	32.91
824.478	32.39
824.652	32.91
824.826	33.77
825	35.52
825.174	36.85
825.348	37.45
825.523	38.79
825.697	42.2
825.871	43.61
826.045	43.65
826.219	42.26
826.393	40.98
826.567	39.73
826.741	38.14
826.915	35.99
827.089	35.87
827.263	35.51
827.437	35.41
827.611	32.51
827.784	32.47
827.958	28.85
828.132	30.12
828.306	35.15
828.48	37.79
828.654	38.42
828.827	39.89
829.001	39.96
829.175	40.79
829.349	41.22
829.522	42.05
829.696	46.13
829.87	51.7
830.044	50.16
830.217	45.38
830.391	46.29
830.565	55.24
830.738	55.34
830.912	57.08
831.085	55.35
831.259	55.15
831.432	59.94
831.606	52.54
831.779	53.17
831.953	55.31
832.126	53.9
832.3	54.71
832.473	51.48
832.647	52.7
832.82	49.22
832.994	48
833.167	45.31
833.34	44.74
833.514	46.66
833.687	46.92
833.86	46.03
834.034	47.07
834.207	45.62
834.38	43.73
834.553	44.25
834.727	45.81
834.9	51.34
835.073	55.2
835.246	53.79
835.419	50.84
835.593	55.95
835.766	55.98
835.939	57.34
836.112	61.64
836.285	62.73
836.458	64.67
836.631	70.53
836.804	66.6
836.977	67.64
837.15	71
837.323	81.67
837.496	74.85
837.669	81.5
837.842	84.86
838.015	76.39
838.188	77.3
838.361	79.84
838.533	71.86
838.706	69.37
838.879	63.49
839.052	65.1
839.225	71.55
839.398	74.08
839.57	78.35
839.743	76.65
839.916	79.81
840.088	91.1
840.261	81.36
840.434	90.35
840.607	94.93
840.779	99.57
840.952	106.99
841.124	103.16
841.297	98.39
841.47	94.44
841.642	106.45
841.815	113.92
841.987	113.73
842.16	124.07
842.332	126.2
842.505	124.62
842.677	130.56
842.85	126.25
843.022	119.91
843.194	122.59
843.367	121.46
843.539	113.08
843.712	119.56
843.884	110.34
844.056	111.73
844.229	107.77
844.401	122.01
844.573	116
844.745	115.12
844.918	107.38
845.09	114.78
845.262	119.53
845.434	111.08
845.606	92.3
845.779	97.77
845.951	106.32
846.123	99.5
846.295	83.42
846.467	74.91
846.639	82.07
846.811	112.27
846.983	130.35
847.155	120.48
847.327	127.11
847.499	124.28
847.671	112.72
847.843	115.99
848.015	116.13
848.187	119.39
848.359	142.23
848.531	140.03
848.703	132.98
848.875	97.35
849.047	118.75
849.218	114.46
849.39	154.86
849.562	191.56
849.734	249.79
849.905	320.22
850.077	306.45
850.249	150.1
850.421	154.14
850.592	120.91
850.764	128.65
850.936	122.81
851.107	132.88
851.279	117.02
851.451	113.47
851.622	103.78
851.794	105.61
851.965	97.46
852.137	110.07
852.308	134.75
852.48	161.21
852.651	129.11
852.823	146.89
852.994	136.64
853.166	170.5
853.337	167.28
853.509	153.95
853.68	155.79
853.851	168.41
854.023	189.09
854.194	190.6
854.365	187.78
854.537	227.19
854.708	180.11
854.879	189.67
855.05	212.25
855.222	258.46
855.393	206.02
855.564	190.54
855.735	194.85
855.906	182.05
856.078	175.56
856.249	176.27
856.42	179.94
856.591	216.45
856.762	272.17
856.933	252.96
857.104	287.42
857.275	527.74
857.446	890.48
857.617	286.36
857.788	367.05
857.959	325
858.13	342.54
858.301	184.92
858.472	175.14
858.643	115.84
858.814	122.55
858.985	105.32
859.155	97.46
859.326	94.76
859.497	102.86
859.668	93.78
859.839	78.21
860.009	82.53
860.18	80.49
860.351	67.46
860.522	69.23
860.692	63.23
860.863	63.33
861.034	73.47
861.204	72.22
861.375	87.54
861.546	94.17
861.716	131.06
861.887	98.57
862.057	82.39
862.228	136.86
862.398	122.01
862.569	90.57
862.739	104.49
862.91	118.19
863.08	108.2
863.251	106.35
863.421	90.1
863.592	92.21
863.762	97.15
863.932	101.85
864.103	102.57
864.273	126.18
864.443	141.84
864.614	132.47
864.784	126.03
864.954	129.86
865.125	117.43
865.295	137.2
865.465	147.24
865.635	138.69
865.805	148.28
865.976	120.48
866.146	99.43
866.316	110.53
866.486	122.99
866.656	108.33
866.826	130.15
866.996	142.55
867.166	138.91
867.336	139.74
867.506	176.5
867.676	173.34
867.846	165.4
868.016	165.13
868.186	146.78
868.356	151.8
868.526	179.17
868.696	167.64
868.866	191.37
869.036	180.1
869.206	161.28
869.376	119.29
869.545	123.22
869.715	119.13
869.885	118.6
870.055	146.66
870.224	124.62
870.394	107.01
870.564	123.71
870.734	123.73
870.903	120.26
871.073	118.7
871.243	118.54
871.412	129.34
871.582	160.68
871.751	155.34
871.921	133.09
872.091	136.53
872.26	139.58
872.43	139.96
872.599	147.57
872.769	159.1
872.938	168.26
873.108	165.68
873.277	150.51
873.446	125.18
873.616	136.41
873.785	123.55
873.955	134.19
874.124	145.86
874.293	125.96
874.463	139.7
874.632	157.12
874.801	171.56
874.971	204.89
875.14	156.45
875.309	195.62
875.478	132
875.647	191.78
875.817	348.12
875.986	399.02
876.155	331.2
876.324	141.99
876.493	162.55
876.662	147.76
876.831	108.43
877	108.29
877.17	103.34
877.339	130.58
877.508	114.29
877.677	94.86
877.846	90.35
878.015	97.54
878.184	119.67
878.352	90.14
878.521	84.4
878.69	102.47
878.859	86.66
879.028	92.36
879.197	108.65
879.366	98.74
879.534	88.9
879.703	79.69
879.872	72.25
880.041	69.96
880.21	70.28
880.378	67.9
880.547	66.5
880.716	72.65
880.884	66.65
881.053	52.73
881.222	47.93
881.39	45.17
881.559	49.49
881.727	47.55
881.896	48.94
882.065	48.86
882.233	44.45
882.402	39.78
882.57	38.27
882.739	35.83
882.907	39.6
883.076	44.13
883.244	46.24
883.412	42.66
883.581	43.65
883.749	38.6
883.918	35.41
884.086	36.62
884.254	38.02
884.423	40.05
884.591	41.95
884.759	38.08
884.927	30.62
885.096	36.5
885.264	40.01
885.432	33.37
885.6	41.67
885.769	47.46
885.937	50.04
886.105	69.41
886.273	79.1
886.441	92.25
886.609	94.62
886.777	96.05
886.945	102.98
887.113	117.51
887.281	177.46
887.449	173.75
887.617	183.72
887.785	194.37
887.953	157.16
888.121	194.06
888.289	161.55
888.457	163.39
888.625	221.35
888.793	240.17
888.961	308.26
889.129	225.28
889.296	270.83
889.464	205.8
889.632	178.1
889.8	233.11
889.967	149.44
890.135	224.42
