Data from JASIL_2930_Reflection_2.txt Node
Date: Sat Nov 07 20:48:53 EST 2015
User: Geneva
Spectrometer: USB4E03002
Autoset integration time: false
Trigger mode: 4
Integration Time (sec): 1.000000E-1
Scans to average: 10
Electric dark correction enabled: true
Nonlinearity correction enabled: false
Boxcar width: 5
Stray light correction enabled: false
XAxis mode: Wavelengths
Stop averaging: false
Number of Pixels in Spectrum: 3648
>>>>>Begin Spectral Data<<<<<
177.575	-1327.4
177.794	-311.23
178.014	43.22
178.233	69.5
178.452	46.51
178.672	108.93
178.891	175.14
179.11	0
179.33	1429.85
179.549	-2263.08
179.768	1071.95
179.987	-1101.28
180.207	-142.64
180.426	13.62
180.645	29.34
180.864	12
181.084	16.67
181.303	12.04
181.522	-12.11
181.741	5.25
181.96	2.88
182.179	11.78
182.398	14.83
182.618	4
182.837	-22.25
183.056	-43.93
183.275	-37.8
183.494	-56.91
183.713	-34.8
183.932	-49.47
184.151	-63.57
184.37	-22.02
184.589	-25.81
184.808	-34.96
185.027	-17.94
185.246	-3.5
185.465	-0.72
185.684	5.57
185.903	11.58
186.122	15.4
186.341	19.94
186.56	18.47
186.779	9.13
186.998	24.95
187.216	17.81
187.435	-2.38
187.654	-25.56
187.873	-13.98
188.092	-36.94
188.311	-30.28
188.53	-16.7
188.748	-6.48
188.967	-26.5
189.186	-21.22
189.405	-30.02
189.623	-22.37
189.842	-1.33
190.061	14.14
190.28	-1.3
190.498	4.82
190.717	-9.85
190.936	-29.13
191.154	-55.17
191.373	-64.81
191.592	-85.23
191.81	-113.16
192.029	-109.28
192.248	-117.86
192.466	-88.92
192.685	-68.9
192.904	-55.57
193.122	-39.27
193.341	-52.04
193.559	-25.87
193.778	-10.18
193.996	1.02
194.215	5.11
194.433	9.25
194.652	-3.27
194.87	6.94
195.089	16.84
195.307	25.87
195.526	28.93
195.744	42.61
195.963	46.63
196.181	47.66
196.399	31.79
196.618	45.01
196.836	44.67
197.055	40.09
197.273	26.89
197.491	25
197.71	13.23
197.928	-4.45
198.146	-17.88
198.365	-33.56
198.583	-45.83
198.801	-20.7
199.019	-25.33
199.238	-40.5
199.456	-63.06
199.674	-66.8
199.892	-77.75
200.111	-126.69
200.329	-89.96
200.547	-106.56
200.765	-111.85
200.983	-127.39
201.202	-123.9
201.42	-90.39
201.638	-95.28
201.856	-66.79
202.074	-31.56
202.292	-25.57
202.51	-14.88
202.728	-29.33
202.946	-35.39
203.165	-41.61
203.383	-28.48
203.601	-37.22
203.819	-49.82
204.037	-39.57
204.255	-37.08
204.473	-44.86
204.691	-43.34
204.909	-54.52
205.127	-36.2
205.345	-11.6
205.562	-6.22
205.78	-10.83
205.998	-10.55
206.216	-8.17
206.434	-12.4
206.652	-11.93
206.87	-4.61
207.088	-14.53
207.306	-19.01
207.523	-13.19
207.741	-33.12
207.959	-36.37
208.177	-37.73
208.395	-72.48
208.612	-104.67
208.83	-72.98
209.048	-53.38
209.266	-112.93
209.483	-119.55
209.701	-108.79
209.919	-104.88
210.136	-112.78
210.354	-56.27
210.572	-40.74
210.79	-10.27
211.007	-0.46
211.225	-7.86
211.442	-22.01
211.66	-15.79
211.878	-5.58
212.095	1.06
212.313	9.52
212.53	11.84
212.748	-4.13
212.966	-3.84
213.183	-2.84
213.401	1.29
213.618	9.1
213.836	22.52
214.053	20.2
214.271	20.94
214.488	21.95
214.705	3.23
214.923	8.47
215.14	16.18
215.358	15.31
215.575	15.53
215.793	19.46
216.01	12.59
216.227	1.7
216.445	5.36
216.662	3.85
216.879	3.66
217.097	7.73
217.314	5.5
217.531	3.66
217.749	-2.68
217.966	-3.47
218.183	-6.86
218.4	-11.47
218.618	-8.18
218.835	-2.51
219.052	-0.35
219.269	-1.01
219.487	2.12
219.704	-2.99
219.921	-1.95
220.138	7.11
220.355	7.06
220.572	7.01
220.79	8.28
221.007	10.26
221.224	9.4
221.441	7.23
221.658	5.59
221.875	7.58
222.092	11.85
222.309	10.82
222.526	7.32
222.743	6.25
222.96	1.96
223.177	-0.45
223.394	-2.51
223.611	-3.1
223.828	-2.57
224.045	-1.29
224.262	0.23
224.479	-1.21
224.696	1.94
224.913	4.22
225.13	7.53
225.347	9.49
225.564	10.54
225.781	9.51
225.997	9.47
226.214	8.4
226.431	8.68
226.648	7.61
226.865	9.09
227.082	8.8
227.298	8.52
227.515	7.71
227.732	7.2
227.949	7.54
228.165	7.82
228.382	7.59
228.599	7.74
228.816	7.51
229.032	7.3
229.249	6.95
229.466	6.61
229.682	6.34
229.899	6.61
230.116	7.57
230.332	8.65
230.549	9.91
230.765	10.81
230.982	11.51
231.199	11.78
231.415	12.23
231.632	10.64
231.848	11.02
232.065	12.69
232.281	11.8
232.498	11.62
232.714	10.59
232.931	8.35
233.147	8.24
233.364	8.34
233.58	9.64
233.797	9.28
234.013	9.93
234.23	9.52
234.446	8.38
234.662	9.05
234.879	9.5
235.095	9.08
235.312	10.03
235.528	9.13
235.744	7.83
235.961	7.29
236.177	7.99
236.393	8.02
236.61	8.27
236.826	7.57
237.042	7.63
237.258	6.51
237.475	6.72
237.691	7.48
237.907	7.13
238.123	7.27
238.339	6.19
238.556	5.52
238.772	5.69
238.988	6.36
239.204	6.43
239.42	7
239.636	7.26
239.853	7.63
240.069	6.76
240.285	7.73
240.501	8.02
240.717	8.46
240.933	8.78
241.149	8.9
241.365	9.08
241.581	8.91
241.797	8.69
242.013	8.63
242.229	8.53
242.445	8.56
242.661	8.09
242.877	8.26
243.093	7.93
243.309	7.76
243.525	7.77
243.741	7.55
243.957	7.85
244.173	7.97
244.388	8
244.604	8.1
244.82	8.34
245.036	8.15
245.252	7.97
245.468	7.94
245.683	7.78
245.899	7.92
246.115	7.62
246.331	7.56
246.547	7.29
246.762	7.2
246.978	7.12
247.194	7.01
247.409	7.22
247.625	7.09
247.841	6.94
248.057	6.87
248.272	6.39
248.488	6.28
248.703	6.37
248.919	6.59
249.135	6.73
249.35	6.57
249.566	6.61
249.782	6.31
249.997	6.43
250.213	6.92
250.428	6.92
250.644	6.74
250.859	6.85
251.075	6.72
251.29	6.58
251.506	6.23
251.721	6.25
251.937	6.05
252.152	6.03
252.368	6.15
252.583	5.87
252.798	5.88
253.014	5.98
253.229	6.1
253.445	5.89
253.66	5.43
253.875	5.3
254.091	4.95
254.306	5.28
254.521	4.89
254.737	4.99
254.952	4.73
255.167	4.66
255.383	5.14
255.598	5.11
255.813	4.72
256.028	4.71
256.244	4.71
256.459	4.41
256.674	4.52
256.889	4.95
257.104	4.82
257.32	4.84
257.535	4.95
257.75	4.91
257.965	4.94
258.18	5.2
258.395	5.46
258.61	5.44
258.826	5.68
259.041	5.47
259.256	5.44
259.471	5.45
259.686	5.53
259.901	5.49
260.116	5.62
260.331	5.54
260.546	5.48
260.761	5.46
260.976	5.53
261.191	5.38
261.406	5.26
261.621	5.06
261.836	4.74
262.05	4.41
262.265	4.32
262.48	4.14
262.695	4.17
262.91	4.08
263.125	3.78
263.34	3.74
263.555	3.58
263.769	3.73
263.984	4.09
264.199	4.37
264.414	4.69
264.629	4.52
264.843	4.3
265.058	4.5
265.273	4.74
265.488	4.87
265.702	4.85
265.917	5.6
266.132	5.73
266.346	5.43
266.561	5.32
266.776	5.27
266.99	5.72
267.205	5.7
267.42	5.56
267.634	5.27
267.849	5.37
268.063	5.18
268.278	4.3
268.492	4.31
268.707	4.46
268.922	4.59
269.136	4.78
269.351	4.57
269.565	4.87
269.78	4.82
269.994	4.82
270.209	4.69
270.423	5.18
270.637	5.34
270.852	5.39
271.066	5.31
271.281	5.27
271.495	5.34
271.709	5.37
271.924	5.14
272.138	4.91
272.353	5.01
272.567	4.76
272.781	4.49
272.996	4.58
273.21	4.43
273.424	4.33
273.638	4.22
273.853	4.13
274.067	3.91
274.281	3.76
274.495	4.07
274.71	4.09
274.924	4.27
275.138	4.45
275.352	4.34
275.566	4.31
275.781	4.5
275.995	4.63
276.209	4.41
276.423	4.21
276.637	4.16
276.851	4.07
277.065	4.1
277.279	3.93
277.493	3.89
277.707	3.64
277.921	4.04
278.135	4.28
278.349	3.95
278.563	3.81
278.777	4.04
278.991	4.36
279.205	4.51
279.419	4.5
279.633	4.75
279.847	4.65
280.061	4.97
280.275	4.88
280.489	4.64
280.703	4.89
280.917	4.85
281.131	5.11
281.344	4.75
281.558	4.61
281.772	4.66
281.986	4.71
282.2	4.6
282.414	4.57
282.627	4.45
282.841	4.39
283.055	4.21
283.269	4.23
283.482	4
283.696	4.31
283.91	4.5
284.123	4.31
284.337	4.12
284.551	4.16
284.764	4.1
284.978	4.05
285.192	4.01
285.405	4.23
285.619	4.41
285.833	4.16
286.046	3.97
286.26	3.93
286.473	3.85
286.687	3.9
286.9	3.97
287.114	3.97
287.327	4.11
287.541	4.35
287.754	4.19
287.968	3.98
288.181	4.28
288.395	4.32
288.608	4.03
288.822	4.3
289.035	4.42
289.248	4.49
289.462	4.68
289.675	4.57
289.889	4.35
290.102	4.39
290.315	4.55
290.529	4.47
290.742	4.44
290.955	4.65
291.169	4.43
291.382	4.42
291.595	4.22
291.808	4.19
292.022	4.35
292.235	4.35
292.448	4.44
292.661	4.56
292.875	4.84
293.088	4.94
293.301	4.83
293.514	4.93
293.727	4.83
293.94	4.99
294.153	4.9
294.367	4.71
294.58	4.66
294.793	4.51
295.006	4.39
295.219	4.48
295.432	4.61
295.645	4.79
295.858	4.7
296.071	4.75
296.284	4.72
296.497	4.75
296.71	4.87
296.923	5
297.136	5.15
297.349	5.25
297.562	5.14
297.775	5.07
297.988	5.12
298.201	5.23
298.414	5.14
298.626	5.07
298.839	5.09
299.052	5.08
299.265	4.84
299.478	4.8
299.691	4.64
299.903	4.6
300.116	4.57
300.329	4.61
300.542	4.64
300.755	4.75
300.967	5
301.18	5.03
301.393	4.92
301.605	5.08
301.818	4.84
302.031	4.96
302.243	4.95
302.456	5.19
302.669	4.99
302.881	5.09
303.094	5.2
303.307	5.16
303.519	5.17
303.732	5.4
303.944	5.58
304.157	5.61
304.37	5.77
304.582	5.77
304.795	5.56
305.007	5.64
305.22	5.61
305.432	5.46
305.645	5.45
305.857	5.44
306.069	5.27
306.282	5.19
306.494	5.27
306.707	4.97
306.919	5.15
307.132	4.92
307.344	4.88
307.556	4.89
307.769	5.05
307.981	5.04
308.193	5.11
308.406	4.92
308.618	4.98
308.83	5.19
309.043	5.39
309.255	5.33
309.467	5.65
309.679	5.64
309.892	5.74
310.104	5.62
310.316	5.59
310.528	5.48
310.74	5.91
310.953	6.02
311.165	6.08
311.377	5.91
311.589	5.97
311.801	5.77
312.013	5.77
312.225	5.71
312.437	5.89
312.649	6.03
312.862	6.17
313.074	5.94
313.286	5.82
313.498	5.68
313.71	6.1
313.922	6.12
314.134	6.59
314.346	6.75
314.558	6.83
314.77	6.68
314.982	6.38
315.193	6.51
315.405	6.41
315.617	6.57
315.829	6.7
316.041	6.52
316.253	6.36
316.465	6.23
316.677	6.18
316.888	6.18
317.1	6.26
317.312	6.75
317.524	6.72
317.736	6.85
317.947	6.76
318.159	6.72
318.371	6.84
318.583	7
318.794	7
319.006	7.03
319.218	6.93
319.43	6.99
319.641	6.67
319.853	6.64
320.064	6.54
320.276	6.67
320.488	6.54
320.699	6.5
320.911	6.57
321.123	6.65
321.334	6.78
321.546	6.81
321.757	6.98
321.969	7.16
322.18	7.13
322.392	7.18
322.603	7.14
322.815	7.26
323.026	7.19
323.238	7.03
323.449	7.02
323.661	6.87
323.872	6.9
324.083	6.73
324.295	6.76
324.506	6.66
324.718	6.72
324.929	6.89
325.14	6.96
325.352	7.04
325.563	7.27
325.774	7.33
325.986	7.42
326.197	7.57
326.408	7.78
326.62	7.84
326.831	8
327.042	8.24
327.253	8.14
327.464	8.25
327.676	8.35
327.887	8.35
328.098	8.05
328.309	7.97
328.52	8.03
328.732	8.2
328.943	8.2
329.154	8.48
329.365	8.31
329.576	8.65
329.787	8.48
329.998	8.48
330.209	8.46
330.42	8.94
330.631	9.26
330.842	9.16
331.053	9.1
331.264	9.27
331.475	9.12
331.686	9.2
331.897	9.13
332.108	9.11
332.319	9.24
332.53	9.35
332.741	9.3
332.952	9.1
333.163	9.36
333.374	9.49
333.585	9.23
333.795	9.23
334.006	9.34
334.217	9.17
334.428	9.42
334.639	9.37
334.849	9.47
335.06	9.55
335.271	9.69
335.482	9.49
335.692	9.44
335.903	9.5
336.114	9.42
336.325	9.45
336.535	9.35
336.746	9.2
336.957	9.15
337.167	9.21
337.378	9
337.589	8.96
337.799	9.12
338.01	9.07
338.22	9.27
338.431	9.21
338.642	9.12
338.852	9.23
339.063	9.27
339.273	9.26
339.484	9.1
339.694	9.08
339.905	9.17
340.115	8.98
340.326	8.77
340.536	8.79
340.746	8.99
340.957	8.9
341.167	9.07
341.378	9.08
341.588	9.35
341.799	9.24
342.009	9.26
342.219	9.19
342.43	9.39
342.64	9.41
342.85	9.29
343.061	9.26
343.271	9.29
343.481	9.36
343.691	9.26
343.902	9.03
344.112	9
344.322	9.1
344.532	9.04
344.743	9.07
344.953	9.05
345.163	9.12
345.373	8.99
345.583	8.96
345.793	8.64
346.004	8.74
346.214	8.73
346.424	8.95
346.634	8.97
346.844	9.09
347.054	9.03
347.264	9.15
347.474	9.05
347.684	8.99
347.894	9.07
348.104	9.06
348.314	9.21
348.524	9.2
348.734	9.08
348.944	8.92
349.154	8.84
349.364	8.67
349.574	8.56
349.784	8.52
349.994	8.71
350.204	8.62
350.413	8.61
350.623	8.52
350.833	8.45
351.043	8.31
351.253	8.41
351.463	8.39
351.672	8.31
351.882	8.38
352.092	8.36
352.302	8.3
352.511	8.32
352.721	8.32
352.931	8.31
353.141	8.29
353.35	8.38
353.56	8.24
353.77	8.36
353.979	8.59
354.189	8.55
354.399	8.62
354.608	8.54
354.818	8.6
355.027	8.72
355.237	8.63
355.447	8.6
355.656	8.6
355.866	8.7
356.075	8.61
356.285	8.45
356.494	8.41
356.704	8.32
356.913	8.27
357.123	8.18
357.332	8.09
357.542	8.18
357.751	8.18
357.96	8.15
358.17	8.09
358.379	8.18
358.589	8.3
358.798	8.38
359.007	8.37
359.217	8.36
359.426	8.45
359.635	8.32
359.845	8.26
360.054	8.19
360.263	8.21
360.472	8.19
360.682	8.12
360.891	8.03
361.1	8
361.309	8.01
361.519	8.03
361.728	8.02
361.937	8.16
362.146	8.18
362.355	8.3
362.564	8.23
362.774	8.27
362.983	8.24
363.192	8.22
363.401	8.15
363.61	8.04
363.819	8.09
364.028	8.13
364.237	8.02
364.446	8.02
364.655	7.92
364.864	7.97
365.073	7.95
365.282	7.91
365.491	7.86
365.7	7.93
365.909	8.05
366.118	8.07
366.327	7.99
366.536	8.02
366.745	7.91
366.954	7.84
367.162	7.78
367.371	7.64
367.58	7.62
367.789	7.64
367.998	7.61
368.207	7.73
368.415	7.72
368.624	7.63
368.833	7.69
369.042	7.8
369.25	7.91
369.459	7.99
369.668	8
369.877	7.99
370.085	8.03
370.294	8.01
370.503	7.88
370.711	7.74
370.92	7.72
371.129	7.63
371.337	7.47
371.546	7.32
371.754	7.19
371.963	7.23
372.171	7.16
372.38	6.95
372.589	6.97
372.797	6.95
373.006	7.01
373.214	6.8
373.423	6.84
373.631	6.86
373.84	6.94
374.048	6.99
374.256	7.03
374.465	6.96
374.673	7
374.882	6.92
375.09	6.81
375.298	6.78
375.507	6.89
375.715	6.85
375.923	6.78
376.132	6.78
376.34	6.76
376.548	6.7
376.757	6.87
376.965	6.93
377.173	6.95
377.381	6.94
377.59	6.96
377.798	7
378.006	7.03
378.214	7.18
378.423	7.21
378.631	7.13
378.839	7.14
379.047	7.06
379.255	7.02
379.463	7.06
379.671	7.08
379.879	7.04
380.088	7.01
380.296	6.99
380.504	6.87
380.712	6.9
380.92	6.99
381.128	6.85
381.336	6.86
381.544	6.86
381.752	6.79
381.96	6.71
382.168	6.71
382.376	6.68
382.584	6.68
382.791	6.73
382.999	6.56
383.207	6.53
383.415	6.59
383.623	6.6
383.831	6.62
384.039	6.64
384.247	6.73
384.454	6.8
384.662	6.88
384.87	6.8
385.078	6.75
385.285	6.84
385.493	6.87
385.701	6.88
385.909	6.79
386.116	6.75
386.324	6.77
386.532	6.66
386.739	6.54
386.947	6.43
387.155	6.44
387.362	6.5
387.57	6.48
387.778	6.42
387.985	6.47
388.193	6.44
388.4	6.5
388.608	6.33
388.816	6.35
389.023	6.34
389.231	6.34
389.438	6.3
389.646	6.21
389.853	6.22
390.061	6.16
390.268	6.12
390.475	6.09
390.683	5.94
390.89	6.02
391.098	5.92
391.305	5.88
391.512	5.78
391.72	5.75
391.927	5.68
392.135	5.57
392.342	5.64
392.549	5.6
392.756	5.56
392.964	5.62
393.171	5.63
393.378	5.66
393.586	5.77
393.793	5.92
394	5.9
394.207	5.95
394.414	5.95
394.622	5.92
394.829	5.96
395.036	5.96
395.243	5.92
395.45	5.83
395.657	5.89
395.864	5.72
396.072	5.65
396.279	5.75
396.486	5.65
396.693	5.73
396.9	5.75
397.107	5.6
397.314	5.65
397.521	5.69
397.728	5.67
397.935	5.67
398.142	5.68
398.349	5.7
398.556	5.66
398.763	5.7
398.97	5.64
399.177	5.61
399.383	5.66
399.59	5.59
399.797	5.52
400.004	5.53
400.211	5.42
400.418	5.42
400.625	5.37
400.831	5.31
401.038	5.37
401.245	5.25
401.452	5.19
401.658	5.2
401.865	5.25
402.072	5.28
402.279	5.29
402.485	5.32
402.692	5.35
402.899	5.32
403.105	5.37
403.312	5.23
403.519	5.28
403.725	5.29
403.932	5.31
404.138	5.25
404.345	5.22
404.552	5.18
404.758	5.16
404.965	5.11
405.171	5.1
405.378	4.97
405.584	5.04
405.791	5.01
405.997	5
406.204	4.96
406.41	4.97
406.617	4.98
406.823	5.03
407.029	5.03
407.236	5.1
407.442	5.09
407.649	5.29
407.855	5.33
408.061	5.4
408.268	5.31
408.474	5.28
408.68	5.34
408.887	5.3
409.093	5.3
409.299	5.3
409.505	5.26
409.712	5.24
409.918	5.08
410.124	5.09
410.33	5.03
410.537	5.09
410.743	5.12
410.949	5.04
411.155	5.06
411.361	5.03
411.567	4.91
411.773	4.9
411.98	4.97
412.186	4.95
412.392	4.88
412.598	4.85
412.804	4.87
413.01	4.86
413.216	4.88
413.422	4.87
413.628	4.9
413.834	4.96
414.04	4.95
414.246	4.83
414.452	4.86
414.658	4.86
414.864	4.86
415.07	4.76
415.275	4.8
415.481	4.8
415.687	4.76
415.893	4.71
416.099	4.75
416.305	4.77
416.511	4.84
416.716	4.78
416.922	4.76
417.128	4.74
417.334	4.81
417.539	4.75
417.745	4.75
417.951	4.75
418.157	4.78
418.362	4.78
418.568	4.73
418.774	4.68
418.979	4.68
419.185	4.65
419.391	4.65
419.596	4.62
419.802	4.61
420.008	4.58
420.213	4.56
420.419	4.51
420.624	4.49
420.83	4.51
421.035	4.53
421.241	4.53
421.446	4.62
421.652	4.62
421.857	4.6
422.063	4.59
422.268	4.6
422.474	4.64
422.679	4.65
422.885	4.65
423.09	4.63
423.295	4.6
423.501	4.61
423.706	4.54
423.911	4.53
424.117	4.53
424.322	4.52
424.527	4.54
424.733	4.49
424.938	4.51
425.143	4.52
425.349	4.52
425.554	4.55
425.759	4.56
425.964	4.58
426.169	4.62
426.375	4.59
426.58	4.58
426.785	4.56
426.99	4.59
427.195	4.54
427.4	4.5
427.605	4.51
427.811	4.51
428.016	4.49
428.221	4.5
428.426	4.44
428.631	4.45
428.836	4.42
429.041	4.41
429.246	4.39
429.451	4.45
429.656	4.5
429.861	4.52
430.066	4.5
430.271	4.49
430.476	4.48
430.681	4.46
430.886	4.52
431.09	4.57
431.295	4.52
431.5	4.53
431.705	4.51
431.91	4.48
432.115	4.45
432.32	4.42
432.524	4.44
432.729	4.29
432.934	4.28
433.139	4.27
433.343	4.33
433.548	4.4
433.753	4.42
433.958	4.41
434.162	4.42
434.367	4.44
434.572	4.41
434.776	4.4
434.981	4.55
435.186	4.56
435.39	4.57
435.595	4.52
435.799	4.48
436.004	4.46
436.209	4.44
436.413	4.46
436.618	4.44
436.822	4.49
437.027	4.48
437.231	4.45
437.436	4.46
437.64	4.44
437.845	4.43
438.049	4.39
438.253	4.34
438.458	4.36
438.662	4.35
438.867	4.37
439.071	4.38
439.275	4.39
439.48	4.39
439.684	4.36
439.888	4.34
440.093	4.32
440.297	4.34
440.501	4.36
440.706	4.39
440.91	4.42
441.114	4.41
441.318	4.4
441.523	4.39
441.727	4.37
441.931	4.44
442.135	4.43
442.339	4.43
442.543	4.45
442.748	4.43
442.952	4.4
443.156	4.31
443.36	4.3
443.564	4.34
443.768	4.32
443.972	4.34
444.176	4.26
444.38	4.28
444.584	4.27
444.788	4.24
444.992	4.24
445.196	4.23
445.4	4.26
445.604	4.22
445.808	4.18
446.012	4.19
446.216	4.22
446.42	4.19
446.624	4.22
446.828	4.19
447.032	4.22
447.235	4.24
447.439	4.25
447.643	4.26
447.847	4.27
448.051	4.23
448.254	4.22
448.458	4.16
448.662	4.24
448.866	4.17
449.069	4.21
449.273	4.24
449.477	4.26
449.681	4.28
449.884	4.26
450.088	4.26
450.292	4.35
450.495	4.37
450.699	4.43
450.902	4.4
451.106	4.44
451.31	4.43
451.513	4.37
451.717	4.31
451.92	4.23
452.124	4.18
452.327	4.24
452.531	4.17
452.734	4.14
452.938	4.1
453.141	4.08
453.345	4.07
453.548	4.06
453.752	4.04
453.955	4.05
454.158	4.08
454.362	4.1
454.565	4.04
454.769	4.03
454.972	4.04
455.175	4.01
455.379	4.01
455.582	3.98
455.785	3.94
455.988	3.97
456.192	3.95
456.395	3.91
456.598	3.95
456.801	3.94
457.005	3.99
457.208	3.97
457.411	3.98
457.614	3.96
457.817	3.98
458.021	4.01
458.224	4.02
458.427	4.04
458.63	4.08
458.833	4.06
459.036	4.09
459.239	4.04
459.442	4.05
459.645	4.08
459.848	4.11
460.051	4.12
460.254	4.14
460.457	4.12
460.66	4.12
460.863	4.15
461.066	4.17
461.269	4.18
461.472	4.21
461.675	4.25
461.878	4.24
462.081	4.24
462.284	4.28
462.486	4.28
462.689	4.27
462.892	4.31
463.095	4.27
463.298	4.23
463.5	4.15
463.703	4.17
463.906	4.16
464.109	4.1
464.311	4.12
464.514	4.09
464.717	4.08
464.92	4.09
465.122	4.08
465.325	4.11
465.528	4.12
465.73	4.12
465.933	4.1
466.135	4.11
466.338	4.11
466.541	4.05
466.743	4.06
466.946	4.1
467.148	4.12
467.351	4.13
467.553	4.13
467.756	4.19
467.958	4.29
468.161	4.31
468.363	4.28
468.566	4.31
468.768	4.33
468.971	4.29
469.173	4.25
469.375	4.2
469.578	4.22
469.78	4.16
469.983	4.15
470.185	4.07
470.387	4.1
470.59	4.1
470.792	4.11
470.994	4.13
471.196	4.14
471.399	4.11
471.601	4.15
471.803	4.08
472.005	4.1
472.208	4.08
472.41	4.08
472.612	4.03
472.814	4.07
473.016	4.06
473.218	4.04
473.421	4.05
473.623	4.07
473.825	4.09
474.027	4.13
474.229	4.16
474.431	4.17
474.633	4.2
474.835	4.22
475.037	4.14
475.239	4.15
475.441	4.18
475.643	4.14
475.845	4.16
476.047	4.14
476.249	4.13
476.451	4.1
476.653	4.1
476.855	4.09
477.057	4.08
477.258	4.11
477.46	4.08
477.662	4.06
477.864	4.1
478.066	4.11
478.268	4.13
478.469	4.14
478.671	4.12
478.873	4.06
479.075	4.04
479.276	4.05
479.478	4.07
479.68	4.09
479.882	4.11
480.083	4.15
480.285	4.13
480.487	4.1
480.688	4.04
480.89	4.09
481.091	4.12
481.293	4.14
481.495	4.14
481.696	4.12
481.898	4.12
482.099	4.09
482.301	4.06
482.502	4.06
482.704	4.07
482.905	4.09
483.107	4.07
483.308	4.07
483.51	4.05
483.711	4.06
483.913	4.07
484.114	4.07
484.315	4.07
484.517	4.08
484.718	4.09
484.92	4.09
485.121	4.08
485.322	4.08
485.524	4.07
485.725	4.08
485.926	4.09
486.127	4.08
486.329	4.06
486.53	4.07
486.731	4.06
486.932	4.05
487.134	4.04
487.335	4.05
487.536	4.05
487.737	4.07
487.938	4.06
488.139	4.04
488.341	4.03
488.542	4.05
488.743	4.05
488.944	4.06
489.145	4.09
489.346	4.11
489.547	4.12
489.748	4.11
489.949	4.12
490.15	4.11
490.351	4.13
490.552	4.15
490.753	4.15
490.954	4.13
491.155	4.13
491.356	4.11
491.557	4.09
491.758	4.11
491.959	4.11
492.159	4.09
492.36	4.12
492.561	4.11
492.762	4.09
492.963	4.11
493.164	4.13
493.364	4.14
493.565	4.16
493.766	4.19
493.967	4.15
494.167	4.15
494.368	4.19
494.569	4.17
494.769	4.17
494.97	4.16
495.171	4.14
495.371	4.15
495.572	4.16
495.773	4.22
495.973	4.19
496.174	4.21
496.375	4.26
496.575	4.23
496.776	4.24
496.976	4.25
497.177	4.31
497.377	4.32
497.578	4.34
497.778	4.33
497.979	4.3
498.179	4.32
498.38	4.31
498.58	4.29
498.78	4.33
498.981	4.32
499.181	4.29
499.382	4.26
499.582	4.29
499.782	4.35
499.983	4.37
500.183	4.37
500.383	4.38
500.584	4.4
500.784	4.41
500.984	4.42
501.184	4.43
501.385	4.43
501.585	4.45
501.785	4.44
501.985	4.43
502.185	4.42
502.386	4.43
502.586	4.44
502.786	4.51
502.986	4.54
503.186	4.56
503.386	4.57
503.586	4.66
503.786	4.67
503.987	4.71
504.187	4.71
504.387	4.76
504.587	4.77
504.787	4.78
504.987	4.75
505.187	4.73
505.387	4.7
505.587	4.72
505.786	4.72
505.986	4.73
506.186	4.71
506.386	4.71
506.586	4.7
506.786	4.71
506.986	4.71
507.186	4.72
507.386	4.76
507.585	4.83
507.785	4.84
507.985	4.84
508.185	4.89
508.384	4.89
508.584	4.92
508.784	4.94
508.984	4.98
509.183	5.02
509.383	5.05
509.583	5.04
509.782	5.06
509.982	5.04
510.182	5.08
510.381	5.08
510.581	5.16
510.781	5.15
510.98	5.19
511.18	5.19
511.379	5.21
511.579	5.22
511.778	5.23
511.978	5.28
512.177	5.32
512.377	5.33
512.576	5.33
512.776	5.32
512.975	5.36
513.175	5.38
513.374	5.39
513.573	5.39
513.773	5.44
513.972	5.48
514.172	5.49
514.371	5.51
514.57	5.51
514.77	5.57
514.969	5.57
515.168	5.6
515.367	5.61
515.567	5.63
515.766	5.64
515.965	5.65
516.164	5.69
516.364	5.69
516.563	5.71
516.762	5.74
516.961	5.74
517.16	5.79
517.359	5.8
517.559	5.82
517.758	5.88
517.957	5.91
518.156	5.94
518.355	5.95
518.554	5.97
518.753	6.02
518.952	6.04
519.151	6.08
519.35	6.1
519.549	6.1
519.748	6.15
519.947	6.15
520.146	6.15
520.345	6.16
520.544	6.18
520.743	6.2
520.942	6.2
521.141	6.21
521.339	6.19
521.538	6.2
521.737	6.24
521.936	6.22
522.135	6.23
522.333	6.28
522.532	6.3
522.731	6.31
522.93	6.34
523.129	6.37
523.327	6.4
523.526	6.42
523.725	6.42
523.923	6.46
524.122	6.49
524.321	6.54
524.519	6.52
524.718	6.55
524.917	6.57
525.115	6.57
525.314	6.6
525.512	6.61
525.711	6.66
525.909	6.69
526.108	6.72
526.306	6.72
526.505	6.7
526.703	6.73
526.902	6.75
527.1	6.74
527.299	6.77
527.497	6.78
527.696	6.82
527.894	6.82
528.092	6.82
528.291	6.8
528.489	6.82
528.688	6.85
528.886	6.88
529.084	6.89
529.283	6.92
529.481	6.94
529.679	6.95
529.877	6.95
530.076	6.96
530.274	6.99
530.472	7.03
530.67	7.06
530.869	7.06
531.067	7.08
531.265	7.09
531.463	7.13
531.661	7.12
531.859	7.15
532.057	7.19
532.255	7.22
532.454	7.22
532.652	7.23
532.85	7.25
533.048	7.28
533.246	7.3
533.444	7.31
533.642	7.33
533.84	7.34
534.038	7.35
534.236	7.36
534.434	7.39
534.632	7.42
534.83	7.44
535.027	7.47
535.225	7.5
535.423	7.53
535.621	7.53
535.819	7.52
536.017	7.56
536.215	7.59
536.412	7.6
536.61	7.58
536.808	7.64
537.006	7.65
537.203	7.69
537.401	7.68
537.599	7.68
537.797	7.73
537.994	7.78
538.192	7.8
538.39	7.82
538.587	7.81
538.785	7.86
538.983	7.87
539.18	7.9
539.378	7.9
539.575	7.93
539.773	7.95
539.97	8.01
540.168	8.03
540.366	8.05
540.563	8.07
540.761	8.1
540.958	8.13
541.155	8.14
541.353	8.14
541.55	8.19
541.748	8.2
541.945	8.23
542.143	8.23
542.34	8.25
542.537	8.26
542.735	8.28
542.932	8.3
543.129	8.31
543.327	8.35
543.524	8.39
543.721	8.39
543.919	8.44
544.116	8.49
544.313	8.52
544.51	8.53
544.708	8.56
544.905	8.57
545.102	8.6
545.299	8.62
545.496	8.67
545.693	8.71
545.891	8.74
546.088	8.76
546.285	8.75
546.482	8.78
546.679	8.81
546.876	8.84
547.073	8.89
547.27	8.94
547.467	8.98
547.664	8.97
547.861	9
548.058	9.02
548.255	9
548.452	9.02
548.649	9.02
548.846	9.11
549.043	9.07
549.24	9.11
549.437	9.1
549.633	9.12
549.83	9.11
550.027	9.12
550.224	9.16
550.421	9.21
550.618	9.23
550.814	9.26
551.011	9.22
551.208	9.33
551.405	9.33
551.601	9.34
551.798	9.36
551.995	9.41
552.191	9.42
552.388	9.37
552.585	9.41
552.781	9.46
552.978	9.49
553.175	9.53
553.371	9.53
553.568	9.58
553.764	9.63
553.961	9.7
554.157	9.74
554.354	9.79
554.55	9.94
554.747	9.93
554.943	9.94
555.14	9.96
555.336	9.98
555.533	10.02
555.729	10.04
555.926	10.09
556.122	10.08
556.318	10.14
556.515	10.11
556.711	10.08
556.907	10.1
557.104	10.14
557.3	10.17
557.496	10.17
557.693	10.2
557.889	10.23
558.085	10.24
558.281	10.27
558.478	10.23
558.674	10.34
558.87	10.33
559.066	10.36
559.262	10.41
559.459	10.44
559.655	10.44
559.851	10.41
560.047	10.4
560.243	10.45
560.439	10.49
560.635	10.52
560.831	10.46
561.027	10.52
561.223	10.54
561.419	10.5
561.615	10.52
561.811	10.57
562.007	10.61
562.203	10.64
562.399	10.67
562.595	10.69
562.791	10.7
562.987	10.74
563.183	10.8
563.379	10.81
563.575	10.86
563.771	10.89
563.966	10.96
564.162	11.01
564.358	11.06
564.554	11.04
564.75	11.04
564.945	11.09
565.141	11.11
565.337	11.07
565.533	11.14
565.728	11.17
565.924	11.19
566.12	11.18
566.315	11.21
566.511	11.24
566.707	11.31
566.902	11.35
567.098	11.35
567.293	11.39
567.489	11.45
567.684	11.41
567.88	11.41
568.076	11.4
568.271	11.45
568.467	11.47
568.662	11.51
568.858	11.45
569.053	11.46
569.248	11.55
569.444	11.59
569.639	11.63
569.835	11.69
570.03	11.77
570.225	11.8
570.421	11.8
570.616	11.81
570.812	11.78
571.007	11.84
571.202	11.86
571.397	11.81
571.593	11.8
571.788	11.78
571.983	11.78
572.178	11.75
572.374	11.77
572.569	11.8
572.764	11.82
572.959	11.9
573.154	11.91
573.35	11.95
573.545	11.98
573.74	12.01
573.935	12.05
574.13	12.1
574.325	12.12
574.52	12.07
574.715	12.06
574.91	12.06
575.105	12.04
575.3	12.07
575.495	12.08
575.69	12.1
575.885	12.15
576.08	12.13
576.275	12.13
576.47	12.16
576.665	12.29
576.86	12.32
577.055	12.43
577.25	12.47
577.444	12.5
577.639	12.49
577.834	12.54
578.029	12.54
578.224	12.55
578.418	12.57
578.613	12.57
578.808	12.53
579.003	12.57
579.197	12.52
579.392	12.52
579.587	12.47
579.781	12.44
579.976	12.39
580.171	12.41
580.365	12.46
580.56	12.47
580.755	12.51
580.949	12.53
581.144	12.51
581.338	12.44
581.533	12.35
581.727	12.4
581.922	12.43
582.116	12.53
582.311	12.5
582.505	12.49
582.7	12.49
582.894	12.5
583.089	12.49
583.283	12.53
583.478	12.59
583.672	12.72
583.866	12.74
584.061	12.74
584.255	12.69
584.449	12.73
584.644	12.79
584.838	12.81
585.032	12.79
585.226	12.81
585.421	12.75
585.615	12.75
585.809	12.76
586.003	12.75
586.198	12.84
586.392	12.88
586.586	12.82
586.78	12.79
586.974	12.86
587.168	12.95
587.363	12.89
587.557	12.95
587.751	13.01
587.945	12.94
588.139	12.89
588.333	12.85
588.527	12.84
588.721	12.87
588.915	12.89
589.109	12.81
589.303	12.74
589.497	12.83
589.691	12.82
589.885	12.88
590.079	12.91
590.273	12.99
590.466	13.02
590.66	13.08
590.854	13.14
591.048	13.1
591.242	13.16
591.436	13.17
591.629	13.18
591.823	13.18
592.017	13.12
592.211	13.13
592.404	13.14
592.598	13.12
592.792	13.14
592.986	13.11
593.179	13.21
593.373	13.18
593.567	13.19
593.76	13.23
593.954	13.21
594.147	13.24
594.341	13.28
594.535	13.34
594.728	13.35
594.922	13.36
595.115	13.3
595.309	13.27
595.502	13.24
595.696	13.23
595.889	13.23
596.083	13.25
596.276	13.2
596.47	13.15
596.663	13.08
596.856	13.02
597.05	13.04
597.243	13.1
597.437	13.1
597.63	13.15
597.823	13.21
598.017	13.19
598.21	13.15
598.403	13.23
598.596	13.29
598.79	13.34
598.983	13.42
599.176	13.38
599.369	13.37
599.563	13.38
599.756	13.38
599.949	13.34
600.142	13.35
600.335	13.39
600.528	13.32
600.722	13.32
600.915	13.33
601.108	13.36
601.301	13.38
601.494	13.37
601.687	13.31
601.88	13.32
602.073	13.37
602.266	13.37
602.459	13.42
602.652	13.43
602.845	13.47
603.038	13.42
603.231	13.38
603.424	13.37
603.617	13.41
603.809	13.44
604.002	13.45
604.195	13.39
604.388	13.37
604.581	13.34
604.774	13.34
604.966	13.32
605.159	13.33
605.352	13.41
605.545	13.39
605.737	13.39
605.93	13.4
606.123	13.37
606.316	13.45
606.508	13.49
606.701	13.53
606.894	13.61
607.086	13.62
607.279	13.6
607.471	13.59
607.664	13.6
607.857	13.63
608.049	13.73
608.242	13.81
608.434	13.84
608.627	13.92
608.819	13.92
609.012	13.93
609.204	13.96
609.397	14.1
609.589	14.1
609.782	14.19
609.974	14.22
610.166	14.26
610.359	14.27
610.551	14.27
610.743	14.32
610.936	14.37
611.128	14.35
611.32	14.4
611.513	14.35
611.705	14.45
611.897	14.35
612.09	14.34
612.282	14.2
612.474	14.17
612.666	14.18
612.858	14.08
613.051	14.09
613.243	14.06
613.435	13.98
613.627	13.98
613.819	13.89
614.011	13.96
614.203	13.85
614.395	13.83
614.588	13.81
614.78	13.81
614.972	13.74
615.164	13.67
615.356	13.66
615.548	13.68
615.74	13.64
615.932	13.61
616.124	13.59
616.315	13.67
616.507	13.72
616.699	13.75
616.891	13.74
617.083	13.85
617.275	13.93
617.467	13.94
617.659	13.87
617.85	13.88
618.042	13.93
618.234	13.95
618.426	13.94
618.618	13.93
618.809	13.9
619.001	13.91
619.193	13.86
619.384	13.78
619.576	13.76
619.768	13.89
619.959	13.79
620.151	13.8
620.343	13.74
620.534	13.79
620.726	13.75
620.917	13.83
621.109	13.81
621.301	13.76
621.492	13.73
621.684	13.78
621.875	13.75
622.067	13.8
622.258	13.79
622.45	13.79
622.641	13.85
622.832	13.8
623.024	13.78
623.215	13.78
623.407	13.88
623.598	13.95
623.789	13.94
623.981	13.89
624.172	13.97
624.363	13.89
624.555	13.89
624.746	13.85
624.937	13.89
625.129	13.86
625.32	13.78
625.511	13.75
625.702	13.73
625.893	13.74
626.085	13.82
626.276	13.85
626.467	13.86
626.658	13.95
626.849	13.91
627.04	13.96
627.231	14
627.422	14.14
627.614	14.18
627.805	14.26
627.996	14.24
628.187	14.21
628.378	14.1
628.569	14.18
628.76	14.09
628.951	14.1
629.142	14.07
629.332	14.04
629.523	14
629.714	13.95
629.905	13.91
630.096	13.92
630.287	13.93
630.478	14.02
630.669	14
630.859	14.01
631.05	14.01
631.241	14.11
631.432	14.09
631.623	14.14
631.813	14.17
632.004	14.11
632.195	14.14
632.385	14.06
632.576	14.1
632.767	14.1
632.957	14.16
633.148	14.22
633.339	14.09
633.529	14.15
633.72	14.08
633.91	13.97
634.101	14.1
634.292	13.99
634.482	14
634.673	13.95
634.863	13.94
635.054	13.9
635.244	13.88
635.435	13.95
635.625	13.88
635.815	13.85
636.006	13.93
636.196	13.87
636.387	13.94
636.577	13.97
636.767	13.95
636.958	13.93
637.148	13.87
637.338	13.79
637.529	13.81
637.719	13.88
637.909	13.84
638.099	13.81
638.29	13.76
638.48	13.94
638.67	14
638.86	14.11
639.05	14.1
639.241	14.21
639.431	14.26
639.621	14.12
639.811	14.14
640.001	14.14
640.191	14.19
640.381	14.16
640.571	14
640.761	13.99
640.951	13.88
641.141	13.97
641.331	13.94
641.521	13.95
641.711	14.01
641.901	13.96
642.091	14.06
642.281	14.04
642.471	14.03
642.661	14.07
642.851	14.01
643.041	14.04
643.231	14
643.42	14.03
643.61	14.02
643.8	14.06
643.99	14.11
644.18	14.08
644.369	14.14
644.559	14.15
644.749	14.12
644.939	14.2
645.128	14.08
645.318	14.06
645.508	14.04
645.697	14.05
645.887	14.02
646.076	14.05
646.266	14.04
646.456	14.05
646.645	14.06
646.835	14.07
647.024	14.05
647.214	14.23
647.403	14.2
647.593	14.3
647.782	14.32
647.972	14.3
648.161	14.17
648.351	14.28
648.54	14.23
648.73	14.19
648.919	14.24
649.108	14.16
649.298	14.03
649.487	14.06
649.677	13.97
649.866	13.92
650.055	14.02
650.244	14.01
650.434	13.97
650.623	14.01
650.812	14.04
651.002	13.93
651.191	14.02
651.38	14.15
651.569	14.22
651.758	14.22
651.947	14.19
652.137	14.15
652.326	14.2
652.515	14.19
652.704	14.28
652.893	14.36
653.082	14.54
653.271	14.52
653.46	14.53
653.649	14.53
653.838	14.46
654.027	14.55
654.216	14.51
654.405	14.6
654.594	14.56
654.783	14.37
654.972	14.3
655.161	14.23
655.35	14.21
655.539	14.16
655.728	14.07
655.916	14.04
656.105	14.03
656.294	14.11
656.483	13.92
656.672	14.01
656.86	14.08
657.049	14.16
657.238	14.12
657.427	14.15
657.615	14.21
657.804	14.22
657.993	14.24
658.181	14.14
658.37	14.18
658.559	14.26
658.747	14.22
658.936	14.2
659.125	14.09
659.313	14.14
659.502	14.15
659.69	14.11
659.879	14.11
660.067	14.25
660.256	14.39
660.444	14.4
660.633	14.42
660.821	14.39
661.01	14.46
661.198	14.53
661.387	14.55
661.575	14.5
661.763	14.57
661.952	14.54
662.14	14.47
662.328	14.42
662.517	14.26
662.705	14.29
662.893	14.41
663.082	14.45
663.27	14.47
663.458	14.4
663.646	14.37
663.834	14.3
664.023	14.43
664.211	14.46
664.399	14.39
664.587	14.59
664.775	14.47
664.963	14.41
665.152	14.27
665.34	14.29
665.528	14.23
665.716	14.36
665.904	14.39
666.092	14.38
666.28	14.38
666.468	14.48
666.656	14.43
666.844	14.62
667.032	14.66
667.22	14.78
667.408	14.76
667.596	14.84
667.784	14.86
667.971	14.84
668.159	14.65
668.347	14.59
668.535	14.49
668.723	14.46
668.911	14.44
669.098	14.34
669.286	14.21
669.474	14.2
669.662	14.16
669.849	14.1
670.037	14.03
670.225	14.07
670.413	14.05
670.6	14.19
670.788	14.11
670.976	14.03
671.163	14.05
671.351	14.11
671.538	14.18
671.726	14.25
671.913	14.2
672.101	14.2
672.289	14.26
672.476	14.4
672.664	14.32
672.851	14.33
673.039	14.33
673.226	14.24
673.413	14.25
673.601	14.18
673.788	14.14
673.976	14.17
674.163	14.16
674.35	14.09
674.538	14.03
674.725	14.08
674.912	14.22
675.1	14.35
675.287	14.49
675.474	14.67
675.662	14.82
675.849	14.87
676.036	14.96
676.223	15.09
676.411	15.13
676.598	15.17
676.785	15.2
676.972	15.21
677.159	15.22
677.346	15.28
677.533	15.12
677.721	15.14
677.908	15.15
678.095	15.04
678.282	15.06
678.469	15.13
678.656	15.15
678.843	15.14
679.03	15
679.217	14.96
679.404	14.89
679.591	14.89
679.778	14.74
679.964	14.71
680.151	14.69
680.338	14.62
680.525	14.64
680.712	14.52
680.899	14.5
681.086	14.62
681.272	14.52
681.459	14.57
681.646	14.59
681.833	14.59
682.02	14.62
682.206	14.65
682.393	14.63
682.58	14.5
682.766	14.57
682.953	14.42
683.14	14.4
683.326	14.46
683.513	14.45
683.7	14.36
683.886	14.43
684.073	14.35
684.259	14.35
684.446	14.47
684.632	14.51
684.819	14.39
685.005	14.58
685.192	14.64
685.378	14.68
685.565	14.58
685.751	14.64
685.938	14.6
686.124	14.53
686.31	14.54
686.497	14.5
686.683	14.55
686.87	14.74
687.056	14.63
687.242	14.51
687.429	14.51
687.615	14.56
687.801	14.73
687.987	14.76
688.174	14.84
688.36	14.84
688.546	14.77
688.732	14.85
688.918	14.81
689.105	14.96
689.291	14.92
689.477	15
689.663	15.1
689.849	14.92
690.035	14.94
690.221	14.99
690.407	14.94
690.593	14.92
690.779	15.01
690.965	14.98
691.151	14.99
691.337	15.13
691.523	15.09
691.709	14.94
691.895	14.99
692.081	14.94
692.267	15.06
692.453	15.11
692.639	15.2
692.825	15.13
693.011	15.03
693.196	14.94
693.382	14.87
693.568	14.88
693.754	14.91
693.94	14.89
694.125	14.94
694.311	14.71
694.497	14.73
694.682	14.68
694.868	14.65
695.054	14.72
695.239	14.72
695.425	14.63
695.611	14.6
695.796	14.71
695.982	14.83
696.168	14.89
696.353	15.02
696.539	14.99
696.724	15.01
696.91	14.96
697.095	14.89
697.281	14.93
697.466	14.96
697.652	14.93
697.837	14.9
698.023	14.88
698.208	14.85
698.393	14.92
698.579	14.94
698.764	14.98
698.949	15
699.135	15.09
699.32	15.08
699.505	15.11
699.691	15.12
699.876	15.18
700.061	15.17
700.246	15.15
700.432	15.1
700.617	15.17
700.802	15.21
700.987	15.2
701.172	15.16
701.358	15.01
701.543	15.2
701.728	15.22
701.913	15.11
702.098	15.07
702.283	15.06
702.468	15.01
702.653	14.93
702.838	14.93
703.023	14.95
703.208	15.13
703.393	15.23
703.578	15.01
703.763	15.04
703.948	15.09
704.133	15.12
704.318	14.92
704.503	15.05
704.688	15.15
704.873	15.14
705.057	15.14
705.242	15.06
705.427	15.23
705.612	15.4
705.797	15.46
705.981	15.47
706.166	15.56
706.351	15.76
706.536	15.72
706.72	15.41
706.905	15.51
707.09	15.5
707.274	15.54
707.459	15.4
707.644	15.26
707.828	15.2
708.013	15.27
708.197	15.27
708.382	15.2
708.567	15.1
708.751	15.29
708.936	15.25
709.12	15.27
709.305	15.2
709.489	15.29
709.673	15.31
709.858	15.2
710.042	15.19
710.227	15.04
710.411	14.97
710.596	14.92
710.78	15
710.964	14.97
711.149	14.99
711.333	15.14
711.517	15.17
711.702	15.23
711.886	15.3
712.07	15.28
712.254	15.41
712.438	15.6
712.623	15.59
712.807	15.61
712.991	15.59
713.175	15.59
713.359	15.54
713.544	15.64
713.728	15.72
713.912	15.72
714.096	15.74
714.28	15.62
714.464	15.52
714.648	15.53
714.832	15.41
715.016	15.34
715.2	15.18
715.384	15.18
715.568	15.05
715.752	14.8
715.936	14.81
716.12	14.8
716.304	14.82
716.488	14.82
716.671	14.96
716.855	14.82
717.039	14.91
717.223	15
717.407	14.84
717.59	14.76
717.774	14.85
717.958	14.85
718.142	14.76
718.325	14.76
718.509	15.03
718.693	14.85
718.877	15.13
719.06	15.03
719.244	14.95
719.428	15.05
719.611	15.28
719.795	15.21
719.978	15.41
720.162	15.36
720.345	15.29
720.529	15.19
720.713	15.46
720.896	15.41
721.08	15.48
721.263	15.53
721.446	15.54
721.63	15.38
721.813	15.43
721.997	15.27
722.18	15.46
722.364	15.48
722.547	15.53
722.73	15.27
722.914	15.28
723.097	15.07
723.28	15.19
723.464	15.37
723.647	15.38
723.83	15.64
724.013	15.66
724.197	15.64
724.38	15.74
724.563	15.48
724.746	15.75
724.929	15.85
725.112	15.97
725.296	15.85
725.479	15.61
725.662	15.52
725.845	15.36
726.028	15.22
726.211	15.09
726.394	15.2
726.577	15.28
726.76	15.09
726.943	14.98
727.126	15.17
727.309	15.36
727.492	15.45
727.675	15.34
727.858	15.17
728.041	15.12
728.224	15.25
728.407	15.18
728.589	15
728.772	15.01
728.955	15.21
729.138	14.98
729.321	14.87
729.503	14.94
729.686	15.13
729.869	15.27
730.052	15.31
730.234	15.25
730.417	15.3
730.6	15.56
730.782	15.55
730.965	15.35
731.148	15.42
731.33	15.43
731.513	15.26
731.695	15.31
731.878	15.29
732.061	15.44
732.243	15.4
732.426	15.23
732.608	15.31
732.791	15.37
732.973	15.48
733.156	15.59
733.338	15.65
733.52	15.77
733.703	15.62
733.885	15.79
734.068	15.6
734.25	15.64
734.432	15.8
734.615	15.73
734.797	15.75
734.979	15.65
735.162	15.56
735.344	15.75
735.526	15.73
735.708	15.72
735.891	15.54
736.073	15.75
736.255	15.78
736.437	15.81
736.619	15.6
736.802	15.59
736.984	15.52
737.166	15.67
737.348	15.41
737.53	15.19
737.712	15.37
737.894	15.46
738.076	15.72
738.258	15.5
738.44	15.37
738.622	15.42
738.804	15.19
738.986	15.43
739.168	15.42
739.35	15.45
739.532	15.58
739.714	15.3
739.896	15.28
740.078	14.99
740.259	15.32
740.441	15.44
740.623	15.71
740.805	15.85
740.987	15.85
741.168	15.69
741.35	15.76
741.532	15.81
741.714	15.98
741.895	16.21
742.077	16.06
742.259	16.04
742.44	15.78
742.622	15.39
742.804	15.53
742.985	15.33
743.167	15.47
743.348	15.31
743.53	15.4
743.711	15.5
743.893	15.15
744.075	15.19
744.256	14.8
744.438	14.99
744.619	15.18
744.8	15.06
744.982	15.05
745.163	14.96
745.345	14.79
745.526	14.83
745.707	14.85
745.889	14.76
746.07	15.06
746.252	15.42
746.433	15.58
746.614	15.77
746.795	15.98
746.977	16.21
747.158	16.12
747.339	16.08
747.52	16.03
747.702	16.02
747.883	16
748.064	15.67
748.245	15.56
748.426	15.39
748.607	15.24
748.788	15.17
748.97	14.86
749.151	15.18
749.332	15.45
749.513	15.54
749.694	15.52
749.875	15.49
750.056	15.61
750.237	15.66
750.418	15.43
750.599	15.22
750.78	15.27
750.96	15.61
751.141	15.68
751.322	15.74
751.503	15.59
751.684	15.57
751.865	15.89
752.046	16.1
752.226	16.17
752.407	16.55
752.588	16.79
752.769	16.73
752.949	16.5
753.13	16
753.311	15.84
753.492	15.53
753.672	15.48
753.853	15.24
754.034	14.87
754.214	15.04
754.395	14.68
754.575	14.76
754.756	14.58
754.937	14.49
755.117	14.66
755.298	14.88
755.478	15.46
755.659	15.6
755.839	15.76
756.02	15.94
756.2	15.62
756.381	15.6
756.561	15.34
756.741	15.55
756.922	15.56
757.102	15.7
757.283	15.67
757.463	15.37
757.643	15.2
757.823	15.15
758.004	14.88
758.184	14.88
758.364	15.12
758.545	15.25
758.725	15.11
758.905	15.06
759.085	15.05
759.265	14.77
759.446	14.66
759.626	14.98
759.806	15.24
759.986	15.39
760.166	15.31
760.346	15.18
760.526	15.11
760.706	15.4
760.886	15.59
761.066	15.59
761.246	15.8
761.426	16.04
761.606	15.61
761.786	15.47
761.966	15.64
762.146	15.64
762.326	15.63
762.506	15.51
762.686	15.4
762.866	15.09
763.046	15.04
763.225	15.07
763.405	15.01
763.585	15.32
763.765	15.18
763.945	14.96
764.124	14.97
764.304	15.13
764.484	15.33
764.664	15.23
764.843	15.72
765.023	15.62
765.203	15.58
765.382	15.64
765.562	15.45
765.741	15.72
765.921	15.83
766.101	15.9
766.28	15.76
766.46	15.47
766.639	15.83
766.819	15.3
766.998	15.38
767.178	15.47
767.357	15.4
767.537	15.38
767.716	15.31
767.896	15.37
768.075	15.51
768.254	15.64
768.434	15.87
768.613	15.1
768.792	15.39
768.972	15.54
769.151	15.3
769.33	15.21
769.51	15.5
769.689	15.4
769.868	15.57
770.047	15.42
770.226	15.41
770.406	15.59
770.585	15.73
770.764	15.69
770.943	16.02
771.122	16.29
771.301	16.01
771.48	15.75
771.66	15.59
771.839	15.37
772.018	15.38
772.197	15.38
772.376	15.28
772.555	15.56
772.734	15.64
772.913	15.36
773.092	15.16
773.271	15.59
773.449	15.36
773.628	15.78
773.807	15.78
773.986	15.72
774.165	15.98
774.344	15.77
774.523	15.8
774.701	15.53
774.88	15.13
775.059	15.3
775.238	15.22
775.417	15.18
775.595	14.97
775.774	15.32
775.953	15.44
776.131	14.76
776.31	15.04
776.489	15.03
776.667	14.94
776.846	15.54
777.025	15.22
777.203	15.53
777.382	15.97
777.56	15.94
777.739	15.57
777.917	15.27
778.096	15.66
778.274	15.4
778.453	15.65
778.631	15.86
778.81	15.66
778.988	15.75
779.166	15.67
779.345	15.64
779.523	15.52
779.702	15.53
779.88	15.91
780.058	15.99
780.237	16.31
780.415	16.24
780.593	16.11
780.771	15.95
780.95	16.18
781.128	16.02
781.306	16.15
781.484	16.37
781.662	16.68
781.841	16.75
782.019	16.53
782.197	16.63
782.375	16.57
782.553	17.19
782.731	17.53
782.909	17.38
783.087	17.31
783.265	17.3
783.443	17.07
783.621	16.71
783.799	16.42
783.977	16.25
784.155	15.72
784.333	15.57
784.511	15.24
784.689	14.89
784.867	15.56
785.045	14.98
785.223	14.75
785.4	14.66
785.578	15.37
785.756	15.37
785.934	15.43
786.112	15.47
786.289	15.55
786.467	15.25
786.645	15.48
786.823	14.55
787	14.9
787.178	15.1
787.356	15.44
787.533	14.95
787.711	15.11
787.889	15.46
788.066	15.78
788.244	15.91
788.421	16.19
788.599	15.96
788.776	16.12
788.954	16.32
789.131	15.88
789.309	15.89
789.486	15.77
789.664	16.03
789.841	15.66
790.019	15.58
790.196	15.31
790.373	15.11
790.551	14.81
790.728	15.26
790.906	15.21
791.083	14.92
791.26	14.47
791.437	14.31
791.615	13.95
791.792	14.08
791.969	14.06
792.146	14.07
792.324	14.18
792.501	14.51
792.678	14.07
792.855	13.64
793.032	13.9
793.209	14.03
793.387	14.4
793.564	14.24
793.741	13.87
793.918	13.89
794.095	14.06
794.272	14.25
794.449	14.16
794.626	14.65
794.803	14.64
794.98	14.61
795.157	14.97
795.334	14.89
795.511	14.94
795.688	15.32
795.864	15.15
796.041	15.72
796.218	15.27
796.395	15.47
796.572	15.08
796.749	14.98
796.925	15.63
797.102	15.45
797.279	16.07
797.456	16.24
797.632	16.15
797.809	16.28
797.986	15.68
798.162	16.27
798.339	16.29
798.516	16.57
798.692	17.33
798.869	17.23
799.046	16.6
799.222	16.23
799.399	16.09
799.575	16.24
799.752	15.59
799.928	15.73
800.105	15.27
800.281	15.23
800.458	15.48
800.634	14.86
800.811	14.67
800.987	14.55
801.163	14.21
801.34	14.35
801.516	14.42
801.692	15.41
801.869	15.17
802.045	15.39
802.221	15.3
802.398	14.18
802.574	14.6
802.75	13.96
802.926	14.86
803.103	13.59
803.279	13.47
803.455	13.52
803.631	13.6
803.807	13.48
803.983	13.72
804.16	13.46
804.336	14
804.512	13.81
804.688	14.63
804.864	14.24
805.04	16.17
805.216	16.76
805.392	15.93
805.568	15.3
805.744	15.12
805.92	14.56
806.096	14.59
806.272	14.88
806.448	14.66
806.623	13.81
806.799	14.13
806.975	13.98
807.151	13.94
807.327	14.2
807.503	14.47
807.678	14.65
807.854	14.67
808.03	14.92
808.206	14.56
808.381	15.49
808.557	15.72
808.733	15.4
808.908	15.26
809.084	14.44
809.26	14.68
809.435	14.84
809.611	14.99
809.787	15.09
809.962	14.59
810.138	14.19
810.313	14.15
810.489	14.57
810.664	14.21
810.84	13.47
811.015	13.98
811.191	13.74
811.366	13.34
811.542	13.11
811.717	13.15
811.892	13.96
812.068	14.96
812.243	14.45
812.419	14.12
812.594	14.51
812.769	15.42
812.944	14.64
813.12	14.16
813.295	14.67
813.47	14.89
813.645	14.74
813.821	14.66
813.996	13.77
814.171	13.39
814.346	13.55
814.521	13.26
814.697	13.08
814.872	14.1
815.047	14.8
815.222	14.28
815.397	14.16
815.572	14.37
815.747	14.42
815.922	14.97
816.097	15.38
816.272	15.53
816.447	15.99
816.622	15.95
816.797	15.56
816.972	15.94
817.147	16.24
817.322	16.27
817.496	16.16
817.671	16.3
817.846	16.09
818.021	15.72
818.196	15.65
818.371	15.55
818.545	15.83
818.72	15.42
818.895	15.13
819.069	14.95
819.244	15.35
819.419	15.34
819.594	15.31
819.768	15.63
819.943	15.86
820.117	15.9
820.292	16.15
820.467	16.16
820.641	16.56
820.816	16.65
820.99	16.69
821.165	16.76
821.339	16.79
821.514	16.67
821.688	16.59
821.863	16.7
822.037	16.73
822.212	16.72
822.386	16.56
822.56	16.48
822.735	16.33
822.909	16.35
823.084	16.07
823.258	16.13
823.432	16.27
823.606	16.22
823.781	16.02
823.955	15.86
824.129	15.79
824.303	15.94
824.478	15.82
824.652	16.03
824.826	15.94
825	16.3
825.174	16.16
825.348	15.9
825.523	16.23
825.697	15.99
825.871	16.16
826.045	16.11
826.219	16.16
826.393	16.28
826.567	16.23
826.741	16.3
826.915	16.19
827.089	16.03
827.263	16.12
827.437	16.16
827.611	16.31
827.784	16.11
827.958	15.89
828.132	16.07
828.306	15.89
828.48	15.88
828.654	15.55
828.827	15.19
829.001	15.22
829.175	15.31
829.349	14.74
829.522	14.81
829.696	15.3
829.87	15.68
830.044	15.12
830.217	15.36
830.391	15.35
830.565	16.28
830.738	16.16
830.912	16.71
831.085	16.64
831.259	17.01
831.432	17.02
831.606	16.41
831.779	16.27
831.953	16.43
832.126	15.97
832.3	15.87
832.473	15.76
832.647	16.08
832.82	15.95
832.994	15.72
833.167	15.42
833.34	15.53
833.514	15.47
833.687	15.43
833.86	15.07
834.034	15.39
834.207	15.46
834.38	15.1
834.553	14.71
834.727	14.49
834.9	14.47
835.073	14.4
835.246	14.07
835.419	14.36
835.593	15.06
835.766	15.44
835.939	14.79
836.112	14.88
836.285	14.86
836.458	15.01
836.631	15.39
836.804	15.56
836.977	15.59
837.15	15.45
837.323	14.94
837.496	13.45
837.669	13.36
837.842	13.68
838.015	13.76
838.188	13.04
838.361	14.3
838.533	13.81
838.706	12.97
838.879	13.27
839.052	13.12
839.225	13.68
839.398	15.11
839.57	14.05
839.743	13.86
839.916	14.32
840.088	14.63
840.261	14.12
840.434	14.47
840.607	15.14
840.779	15.26
840.952	14.54
841.124	14.67
841.297	13.25
841.47	15.02
841.642	15.56
841.815	14.23
841.987	15.7
842.16	15.5
842.332	14.89
842.505	14.92
842.677	14.68
842.85	16.42
843.022	16.22
843.194	15.95
843.367	15.35
843.539	15.56
843.712	16.18
843.884	14.57
844.056	14.55
844.229	15.66
844.401	16.76
844.573	18.58
844.745	18.46
844.918	18.63
845.09	19.72
845.262	17.62
845.434	18.48
845.606	17.34
845.779	16.71
845.951	17.78
846.123	15.84
846.295	14.3
846.467	12.22
846.639	12.02
846.811	11.15
846.983	10.38
847.155	12.17
847.327	12.33
847.499	12.94
847.671	14.39
847.843	13.42
848.015	13.77
848.187	15.41
848.359	16.41
848.531	17.46
848.703	19.08
848.875	21.28
849.047	20.51
849.218	19.87
849.39	21.28
849.562	21.56
849.734	19.54
849.905	20.75
850.077	20.27
850.249	19.48
850.421	17.8
850.592	15.79
850.764	13.66
850.936	14.11
851.107	11.25
851.279	10.14
851.451	7.48
851.622	7.67
851.794	8.77
851.965	8.02
852.137	6.43
852.308	6.41
852.48	9
852.651	8.57
852.823	7.88
852.994	10.48
853.166	10.76
853.337	13.75
853.509	14.97
853.68	13.7
853.851	14.78
854.023	16.07
854.194	17.31
854.365	15.8
854.537	15.89
854.708	14.46
854.879	13.54
855.05	13.66
855.222	12.01
855.393	11.22
855.564	10.43
855.735	9.16
855.906	10.07
856.078	8.57
856.249	9.44
856.42	7.83
856.591	9.16
856.762	10.66
856.933	10.56
857.104	9.87
857.275	11.54
857.446	11.6
857.617	8.96
857.788	7.73
857.959	7.62
858.13	6.8
858.301	8.75
858.472	8.71
858.643	6.57
858.814	6.06
858.985	5.74
859.155	5.1
859.326	5.15
859.497	7.53
859.668	4.64
859.839	5.47
860.009	5.51
860.18	2.8
860.351	4.83
860.522	5.35
860.692	5.95
860.863	7.58
861.034	6.46
861.204	6.01
861.375	5.75
861.546	8.83
861.716	7.6
861.887	3.75
862.057	6.75
862.228	4.15
862.398	5.51
862.569	7.41
862.739	7.73
862.91	10.82
863.08	10.91
863.251	10.07
863.421	7.77
863.592	8.87
863.762	13.13
863.932	11.94
864.103	13.02
864.273	9.28
864.443	6.02
864.614	6.38
864.784	7.03
864.954	6.99
865.125	7.46
865.295	8.18
865.465	8.42
865.635	5.78
865.805	7.66
865.976	6.09
866.146	9.84
866.316	10.74
866.486	9.65
866.656	5.56
866.826	4.57
866.996	5.8
867.166	7.24
867.336	9.27
867.506	11.55
867.676	10.63
867.846	9.83
868.016	6.19
868.186	4.38
868.356	6.81
868.526	8.44
868.696	10.17
868.866	9.79
869.036	5.08
869.206	4.06
869.376	2.28
869.545	1.15
869.715	5.26
869.885	7.88
870.055	7.73
870.224	4.6
870.394	6.06
870.564	7.19
870.734	5.82
870.903	10.43
871.073	8.84
871.243	11.89
871.412	13.1
871.582	13.4
871.751	12.8
871.921	14.16
872.091	12.35
872.26	9.59
872.43	7.43
872.599	9.89
872.769	9.6
872.938	10.29
873.108	8.87
873.277	9.21
873.446	10.55
873.616	10.79
873.785	12.01
873.955	14.81
874.124	15.12
874.293	15.52
874.463	13.8
874.632	13.79
874.801	14.67
874.971	14.92
875.14	16.25
875.309	12.93
875.478	14.44
875.647	14.41
875.817	12.81
875.986	13.36
876.155	12.65
876.324	13.73
876.493	14.3
876.662	12.99
876.831	12.66
877	10.98
877.17	11.38
877.339	11.45
877.508	13.27
877.677	16.15
877.846	16.41
878.015	18.43
878.184	17.88
878.352	17.67
878.521	18.25
878.69	16.82
878.859	18.03
879.028	18.21
879.197	16.45
879.366	15.2
879.534	14.61
879.703	14.84
879.872	15.94
880.041	16.53
880.21	17.03
880.378	16.52
880.547	17.2
880.716	16.86
880.884	16.39
881.053	17.49
881.222	17.56
881.39	17.54
881.559	17.65
881.727	16.92
881.896	16.85
882.065	16.3
882.233	16.87
882.402	16.68
882.57	16.72
882.739	16.92
882.907	16.69
883.076	16.59
883.244	16.5
883.412	16.29
883.581	16.19
883.749	16.12
883.918	16.95
884.086	16.86
884.254	16.7
884.423	16.64
884.591	16.64
884.759	15.63
884.927	16.92
885.096	17.18
885.264	16.96
885.432	17.28
885.6	15.87
885.769	14.99
885.937	13.93
886.105	13.27
886.273	12.64
886.441	11.97
886.609	12.64
886.777	8.03
886.945	5.14
887.113	5
887.281	4.01
887.449	6.19
887.617	4.79
887.785	4.15
887.953	5.09
888.121	3.02
888.289	3.1
888.457	3.01
888.625	5.94
888.793	9.37
888.961	8.76
889.129	10.59
889.296	8.85
889.464	10.02
889.632	10.23
889.8	10.19
889.967	12.52
890.135	14.94
