Data from JASIL_2933_Reflection_1.txt Node
Date: Sat Nov 07 20:56:10 EST 2015
User: Geneva
Spectrometer: USB4E03002
Autoset integration time: false
Trigger mode: 4
Integration Time (sec): 1.000000E-1
Scans to average: 10
Electric dark correction enabled: true
Nonlinearity correction enabled: false
Boxcar width: 5
Stray light correction enabled: false
XAxis mode: Wavelengths
Stop averaging: false
Number of Pixels in Spectrum: 3648
>>>>>Begin Spectral Data<<<<<
177.575	732.21
177.794	9.69
178.014	-174.91
178.233	-1.02
178.452	-27.68
178.672	109.64
178.891	66.2
179.11	0
179.33	-225.54
179.549	1409.23
179.768	-457.01
179.987	487.18
180.207	153.47
180.426	81.3
180.645	65.12
180.864	57.07
181.084	79.06
181.303	68.28
181.522	71.26
181.741	67.21
181.96	68.27
182.179	73.96
182.398	68.7
182.618	46.33
182.837	44.13
183.056	28.67
183.275	62.32
183.494	75.17
183.713	76.68
183.932	80.56
184.151	102.41
184.37	81.1
184.589	69
184.808	79.47
185.027	87.4
185.246	76.36
185.465	84.21
185.684	58.06
185.903	50.44
186.122	54.12
186.341	53.18
186.56	53.32
186.779	48.3
186.998	53.92
187.216	46.28
187.435	39.46
187.654	39.89
187.873	43.98
188.092	42.39
188.311	67.88
188.53	57.22
188.748	42.43
188.967	19.09
189.186	39.35
189.405	37.53
189.623	37.32
189.842	48.81
190.061	55.22
190.28	32.54
190.498	43.53
190.717	13.98
190.936	-1.37
191.154	-8.84
191.373	-4.64
191.592	-37.97
191.81	-68.26
192.029	-46.04
192.248	-85.5
192.466	-47.79
192.685	-11.69
192.904	-2
193.122	12.3
193.341	21.4
193.559	22.9
193.778	25.5
193.996	31.24
194.215	39.72
194.433	38.54
194.652	52.32
194.87	49.32
195.089	49.28
195.307	47.59
195.526	43.16
195.744	41.35
195.963	48.62
196.181	43.75
196.399	25.04
196.618	19.77
196.836	13.25
197.055	-6.77
197.273	-1.67
197.491	-4.83
197.71	2.84
197.928	-5.83
198.146	3.84
198.365	-13.38
198.583	-9.21
198.801	11.02
199.019	1.58
199.238	19.82
199.456	34.24
199.674	15.52
199.892	10.6
200.111	-9.15
200.329	-2.87
200.547	-11.55
200.765	0.59
200.983	-0.38
201.202	10.81
201.42	37.35
201.638	21.68
201.856	7.37
202.074	32.78
202.292	42.59
202.51	37.35
202.728	40.9
202.946	29.26
203.165	35.51
203.383	37.19
203.601	44.02
203.819	33.22
204.037	34.37
204.255	55.5
204.473	51.86
204.691	38.25
204.909	46.74
205.127	51.39
205.345	67.76
205.562	67.24
205.78	64
205.998	54.61
206.216	54.57
206.434	57.47
206.652	46.23
206.87	42.33
207.088	47.2
207.306	47.92
207.523	45.9
207.741	32.52
207.959	47.54
208.177	31.32
208.395	29.36
208.612	19.72
208.83	28.4
209.048	46.71
209.266	27.47
209.483	24.17
209.701	23.65
209.919	16.12
210.136	6.81
210.354	28.15
210.572	45.5
210.79	42.14
211.007	38.35
211.225	32.81
211.442	22.07
211.66	33.65
211.878	36.44
212.095	93.9
212.313	96.92
212.53	96.08
212.748	83.45
212.966	83.46
213.183	82.47
213.401	86.81
213.618	82.73
213.836	89.33
214.053	88.64
214.271	80.55
214.488	18.08
214.705	10.06
214.923	11.97
215.14	20.47
215.358	21.16
215.575	26.88
215.793	26.05
216.01	34.99
216.227	34.49
216.445	26.13
216.662	31.15
216.879	31
217.097	35.92
217.314	33.22
217.531	24.45
217.749	20.48
217.966	21.42
218.183	21.81
218.4	18.46
218.618	14.79
218.835	25.81
219.052	24.82
219.269	22.31
219.487	20.72
219.704	23.14
219.921	25.21
220.138	27.47
220.355	23.86
220.572	23.61
220.79	19.09
221.007	23.6
221.224	24.82
221.441	23.27
221.658	22.17
221.875	18.95
222.092	18.56
222.309	15.89
222.526	11.89
222.743	11.36
222.96	8.72
223.177	10.78
223.394	9.58
223.611	8.93
223.828	9.93
224.045	11.03
224.262	8.99
224.479	10.82
224.696	14.69
224.913	17.47
225.13	18.04
225.347	17.75
225.564	16.46
225.781	14.35
225.997	13.33
226.214	11.83
226.431	12.35
226.648	13.24
226.865	12.72
227.082	12.42
227.298	11.75
227.515	11.05
227.732	10.97
227.949	11.01
228.165	11.58
228.382	11.42
228.599	12.13
228.816	11.76
229.032	11.03
229.249	11.49
229.466	10.69
229.682	10.57
229.899	11.54
230.116	11.56
230.332	12.5
230.549	12.95
230.765	13.18
230.982	12.51
231.199	12.58
231.415	12.52
231.632	10.19
231.848	11.52
232.065	12.45
232.281	12.01
232.498	12.66
232.714	11.76
232.931	9.56
233.147	10.44
233.364	10.91
233.58	11.84
233.797	13.91
234.013	14.68
234.23	13.42
234.446	13.39
234.662	13.13
234.879	13.41
235.095	13.12
235.312	14.09
235.528	13.94
235.744	13.33
235.961	13.16
236.177	11.75
236.393	12.8
236.61	13.71
236.826	12.86
237.042	12.69
237.258	12.47
237.475	12.38
237.691	13.08
237.907	12.44
238.123	12.84
238.339	12.39
238.556	12.13
238.772	10.55
238.988	11
239.204	11.23
239.42	10.83
239.636	10.96
239.853	11.6
240.069	10.62
240.285	10.67
240.501	10.32
240.717	10.01
240.933	10.27
241.149	10.68
241.365	10.66
241.581	10.72
241.797	10.86
242.013	10.74
242.229	10.57
242.445	10.84
242.661	10.58
242.877	10.88
243.093	11.11
243.309	11.21
243.525	11.11
243.741	10.73
243.957	10.53
244.173	10.84
244.388	10.31
244.604	10.22
244.82	10.18
245.036	10.07
245.252	9.99
245.468	9.92
245.683	10.03
245.899	10.2
246.115	10.05
246.331	10.16
246.547	9.96
246.762	10.1
246.978	9.98
247.194	9.81
247.409	9.94
247.625	9.89
247.841	10.01
248.057	9.68
248.272	9.39
248.488	9.62
248.703	9.18
248.919	9.49
249.135	9.4
249.35	9.46
249.566	10
249.782	9.69
249.997	9.49
250.213	9.06
250.428	9.03
250.644	9.07
250.859	9.09
251.075	9.51
251.29	9.07
251.506	8.7
251.721	8.39
251.937	8.06
252.152	8.22
252.368	8.5
252.583	8.63
252.798	8.69
253.014	8.85
253.229	8.71
253.445	8.02
253.66	7.5
253.875	7.46
254.091	7.49
254.306	7.54
254.521	7.62
254.737	7.42
254.952	7.1
255.167	7.3
255.383	7.47
255.598	7.38
255.813	7.63
256.028	8.14
256.244	8.44
256.459	8.31
256.674	8.48
256.889	8.4
257.104	8.29
257.32	8.17
257.535	7.93
257.75	7.48
257.965	7.51
258.18	7.36
258.395	7.2
258.61	6.98
258.826	7.07
259.041	6.76
259.256	6.72
259.471	6.67
259.686	6.71
259.901	6.79
260.116	6.92
260.331	6.81
260.546	6.92
260.761	7.03
260.976	7.1
261.191	7.04
261.406	7
261.621	6.87
261.836	6.74
262.05	6.38
262.265	6.1
262.48	5.95
262.695	5.91
262.91	6.09
263.125	5.94
263.34	6.33
263.555	6.45
263.769	6.9
263.984	7.07
264.199	7.11
264.414	7.53
264.629	7.51
264.843	7.09
265.058	7
265.273	6.71
265.488	6.55
265.702	6.51
265.917	6.72
266.132	6.9
266.346	6.77
266.561	6.86
266.776	6.88
266.99	7.01
267.205	7.3
267.42	7.39
267.634	7.45
267.849	7.64
268.063	7.36
268.278	7.01
268.492	6.81
268.707	7.02
268.922	7
269.136	6.87
269.351	6.96
269.565	6.89
269.78	6.8
269.994	6.48
270.209	6.51
270.423	6.95
270.637	7.02
270.852	7.17
271.066	6.96
271.281	6.9
271.495	7.02
271.709	6.83
271.924	6.7
272.138	6.42
272.353	6.62
272.567	6.54
272.781	6.27
272.996	6.26
273.21	5.98
273.424	5.9
273.638	5.95
273.853	5.91
274.067	5.8
274.281	6
274.495	6.25
274.71	6.48
274.924	6.41
275.138	6.62
275.352	6.66
275.566	6.87
275.781	6.97
275.995	7.2
276.209	7.27
276.423	7.48
276.637	7.36
276.851	7.26
277.065	6.93
277.279	7
277.493	6.88
277.707	6.62
277.921	6.57
278.135	6.55
278.349	6.24
278.563	6.03
278.777	5.64
278.991	5.74
279.205	6.09
279.419	6.48
279.633	6.38
279.847	6.32
280.061	6.46
280.275	6.27
280.489	6.39
280.703	6.31
280.917	6.43
281.131	6.7
281.344	6.55
281.558	6.28
281.772	5.97
281.986	6.09
282.2	6.04
282.414	6.2
282.627	6.55
282.841	6.44
283.055	6.43
283.269	6.3
283.482	6.2
283.696	6.09
283.91	6.35
284.123	6.3
284.337	6.17
284.551	6.03
284.764	5.9
284.978	5.75
285.192	5.83
285.405	5.9
285.619	6.09
285.833	6
286.046	6.08
286.26	6.06
286.473	6.01
286.687	6.09
286.9	6.19
287.114	6.12
287.327	6.1
287.541	5.88
287.754	5.85
287.968	5.52
288.181	5.6
288.395	5.8
288.608	5.54
288.822	5.55
289.035	5.7
289.248	5.65
289.462	5.95
289.675	5.91
289.889	5.91
290.102	5.93
290.315	6.08
290.529	6.15
290.742	5.99
290.955	6.07
291.169	6.2
291.382	6.04
291.595	6.17
291.808	5.94
292.022	6.18
292.235	6.35
292.448	6.51
292.661	6.53
292.875	6.52
293.088	6.51
293.301	6.62
293.514	6.52
293.727	6.48
293.94	6.47
294.153	6.43
294.367	6.13
294.58	5.95
294.793	5.71
295.006	5.66
295.219	5.87
295.432	6.02
295.645	6.11
295.858	6.07
296.071	6.09
296.284	5.98
296.497	6.12
296.71	6.14
296.923	6.35
297.136	6.41
297.349	6.48
297.562	6.28
297.775	6.18
297.988	6.14
298.201	6.22
298.414	6.38
298.626	6.39
298.839	6.3
299.052	6.46
299.265	6.32
299.478	6.35
299.691	6.3
299.903	6.38
300.116	6.55
300.329	6.59
300.542	6.71
300.755	6.56
300.967	6.92
301.18	6.94
301.393	6.94
301.605	6.95
301.818	6.76
302.031	6.88
302.243	6.96
302.456	7.21
302.669	7.03
302.881	7.18
303.094	7.26
303.307	7.18
303.519	7.2
303.732	7.29
303.944	7.59
304.157	7.63
304.37	7.7
304.582	7.64
304.795	7.28
305.007	7.48
305.22	7.36
305.432	7.26
305.645	7.26
305.857	7.35
306.069	7.3
306.282	7.09
306.494	7.34
306.707	7.29
306.919	7.33
307.132	7.31
307.344	7.23
307.556	7.23
307.769	7.39
307.981	7.32
308.193	7.43
308.406	7.29
308.618	7.26
308.83	7.18
309.043	7.23
309.255	7.26
309.467	7.43
309.679	7.46
309.892	7.61
310.104	7.58
310.316	7.64
310.528	7.5
310.74	7.74
310.953	8.03
311.165	8.21
311.377	7.98
311.589	8
311.801	8
312.013	8.06
312.225	7.95
312.437	8.1
312.649	8.23
312.862	8.45
313.074	8.35
313.286	8.2
313.498	8.15
313.71	8.58
313.922	8.56
314.134	8.58
314.346	8.66
314.558	8.82
314.77	8.8
314.982	8.62
315.193	8.87
315.405	8.79
315.617	8.67
315.829	9.01
316.041	9.15
316.253	9.21
316.465	9.21
316.677	9.06
316.888	9.13
317.1	9.31
317.312	9.63
317.524	9.46
317.736	9.71
317.947	10.15
318.159	9.96
318.371	9.81
318.583	9.83
318.794	10
319.006	10.34
319.218	10.39
319.43	10.22
319.641	10.22
319.853	10.25
320.064	10.15
320.276	10.23
320.488	10.17
320.699	10.3
320.911	10.51
321.123	10.8
321.334	10.68
321.546	10.55
321.757	10.69
321.969	10.78
322.18	10.68
322.392	10.77
322.603	10.62
322.815	10.73
323.026	10.76
323.238	10.7
323.449	10.64
323.661	10.56
323.872	10.71
324.083	10.67
324.295	10.7
324.506	10.65
324.718	10.74
324.929	10.83
325.14	10.98
325.352	11.2
325.563	11.48
325.774	11.52
325.986	11.9
326.197	12.04
326.408	12.32
326.62	12.42
326.831	12.72
327.042	12.91
327.253	13.27
327.464	13.44
327.676	13.35
327.887	13.5
328.098	13.52
328.309	13.64
328.52	13.8
328.732	13.97
328.943	14.21
329.154	14.67
329.365	14.48
329.576	14.49
329.787	14.31
329.998	14.62
330.209	14.68
330.42	15.03
330.631	14.94
330.842	15.1
331.053	15.12
331.264	15.08
331.475	14.9
331.686	15.32
331.897	15.26
332.108	15.49
332.319	15.48
332.53	15.63
332.741	15.57
332.952	15.67
333.163	15.76
333.374	15.93
333.585	15.93
333.795	16.01
334.006	15.98
334.217	15.99
334.428	16.05
334.639	16.05
334.849	15.86
335.06	15.73
335.271	15.66
335.482	15.59
335.692	15.54
335.903	15.49
336.114	15.29
336.325	15.44
336.535	15.45
336.746	15.34
336.957	15.26
337.167	15.42
337.378	15.44
337.589	15.55
337.799	15.47
338.01	15.51
338.22	15.62
338.431	15.58
338.642	15.33
338.852	15.16
339.063	15.26
339.273	15.37
339.484	15.41
339.694	15.37
339.905	15.22
340.115	15.19
340.326	14.89
340.536	14.94
340.746	15.06
340.957	15.12
341.167	15.15
341.378	15.16
341.588	15.26
341.799	15.08
342.009	15.17
342.219	15.38
342.43	15.38
342.64	15.5
342.85	15.35
343.061	15.16
343.271	15.14
343.481	15.26
343.691	15.11
343.902	14.92
344.112	14.84
344.322	14.88
344.532	14.67
344.743	14.74
344.953	14.62
345.163	14.63
345.373	14.7
345.583	14.73
345.793	14.58
346.004	14.62
346.214	14.75
346.424	14.95
346.634	14.89
346.844	14.94
347.054	15
347.264	15
347.474	14.98
347.684	14.98
347.894	14.95
348.104	14.99
348.314	15.09
348.524	15.03
348.734	14.9
348.944	14.95
349.154	14.93
349.364	14.69
349.574	14.65
349.784	14.55
349.994	14.56
350.204	14.45
350.413	14.4
350.623	14.37
350.833	14.14
351.043	14.06
351.253	13.99
351.463	13.99
351.672	13.89
351.882	13.99
352.092	14
352.302	14.02
352.511	13.96
352.721	14.03
352.931	13.97
353.141	14.02
353.35	14.04
353.56	13.88
353.77	13.84
353.979	13.98
354.189	13.97
354.399	14.01
354.608	14
354.818	14.12
355.027	14.09
355.237	13.94
355.447	13.88
355.656	13.97
355.866	14
356.075	13.84
356.285	13.65
356.494	13.65
356.704	13.55
356.913	13.35
357.123	13.29
357.332	13.29
357.542	13.59
357.751	13.66
357.96	13.47
358.17	13.48
358.379	13.67
358.589	13.79
358.798	13.77
359.007	13.89
359.217	13.93
359.426	13.92
359.635	13.81
359.845	13.56
360.054	13.53
360.263	13.6
360.472	13.51
360.682	13.39
360.891	13.44
361.1	13.38
361.309	13.35
361.519	13.4
361.728	13.41
361.937	13.47
362.146	13.43
362.355	13.44
362.564	13.38
362.774	13.45
362.983	13.45
363.192	13.3
363.401	13.23
363.61	13.18
363.819	13.2
364.028	13.22
364.237	13.1
364.446	13.18
364.655	13.09
364.864	13.07
365.073	13.08
365.282	13.11
365.491	13.17
365.7	13.22
365.909	13.18
366.118	13.26
366.327	13.21
366.536	13.14
366.745	13.09
366.954	13.08
367.162	13.12
367.371	13
367.58	12.98
367.789	12.89
367.998	12.92
368.207	13
368.415	12.88
368.624	12.82
368.833	12.96
369.042	13
369.25	13.15
369.459	13.19
369.668	13.24
369.877	13.29
370.085	13.29
370.294	13.27
370.503	13.3
370.711	13.21
370.92	13.19
371.129	13.17
371.337	13.09
371.546	12.92
371.754	12.92
371.963	13.01
372.171	12.94
372.38	12.95
372.589	12.99
372.797	12.93
373.006	13
373.214	13.05
373.423	13.01
373.631	12.97
373.84	13.1
374.048	12.95
374.256	12.71
374.465	12.66
374.673	12.59
374.882	12.43
375.09	12.37
375.298	12.28
375.507	12.23
375.715	12.26
375.923	12.24
376.132	12.12
376.34	12.12
376.548	12.21
376.757	12.26
376.965	12.26
377.173	12.35
377.381	12.37
377.59	12.37
377.798	12.41
378.006	12.33
378.214	12.47
378.423	12.53
378.631	12.61
378.839	12.55
379.047	12.52
379.255	12.52
379.463	12.5
379.671	12.36
379.879	12.35
380.088	12.25
380.296	12.37
380.504	12.36
380.712	12.33
380.92	12.38
381.128	12.48
381.336	12.38
381.544	12.41
381.752	12.35
381.96	12.42
382.168	12.44
382.376	12.47
382.584	12.4
382.791	12.23
382.999	12.08
383.207	11.97
383.415	11.9
383.623	12.06
383.831	12.07
384.039	12.21
384.247	12.19
384.454	12.26
384.662	12.28
384.87	12.28
385.078	12.38
385.285	12.52
385.493	12.52
385.701	12.52
385.909	12.47
386.116	12.41
386.324	12.3
386.532	12.22
386.739	12.1
386.947	11.98
387.155	11.85
387.362	11.85
387.57	11.82
387.778	11.8
387.985	11.86
388.193	11.85
388.4	11.86
388.608	11.78
388.816	11.84
389.023	11.84
389.231	11.9
389.438	11.95
389.646	11.87
389.853	11.8
390.061	11.75
390.268	11.72
390.475	11.59
390.683	11.54
390.89	11.43
391.098	11.42
391.305	11.4
391.512	11.36
391.72	11.38
391.927	11.36
392.135	11.34
392.342	11.26
392.549	11.23
392.756	11.31
392.964	11.35
393.171	11.44
393.378	11.47
393.586	11.48
393.793	11.55
394	11.44
394.207	11.44
394.414	11.46
394.622	11.5
394.829	11.45
395.036	11.34
395.243	11.31
395.45	11.31
395.657	11.26
395.864	11.16
396.072	11.13
396.279	11.23
396.486	11.21
396.693	11.23
396.9	11.23
397.107	11.11
397.314	11.15
397.521	11.11
397.728	11.07
397.935	11.06
398.142	11.08
398.349	11.07
398.556	11.09
398.763	11.14
398.97	11.06
399.177	11.07
399.383	11.27
399.59	11.28
399.797	11.28
400.004	11.29
400.211	11.25
400.418	11.33
400.625	11.28
400.831	11.21
401.038	11.2
401.245	11.15
401.452	11.15
401.658	11.11
401.865	11.13
402.072	11.08
402.279	11.11
402.485	11.09
402.692	10.96
402.899	10.98
403.105	11.01
403.312	10.95
403.519	10.93
403.725	11.01
403.932	10.97
404.138	10.91
404.345	10.9
404.552	10.88
404.758	10.94
404.965	10.94
405.171	10.87
405.378	10.81
405.584	10.8
405.791	10.81
405.997	10.77
406.204	10.75
406.41	10.74
406.617	10.76
406.823	10.76
407.029	10.72
407.236	10.8
407.442	10.83
407.649	10.98
407.855	11.03
408.061	11.13
408.268	11.08
408.474	11.02
408.68	11.07
408.887	10.99
409.093	10.95
409.299	10.93
409.505	10.82
409.712	10.82
409.918	10.66
410.124	10.67
410.33	10.54
410.537	10.52
410.743	10.54
410.949	10.58
411.155	10.69
411.361	10.69
411.567	10.68
411.773	10.69
411.98	10.67
412.186	10.65
412.392	10.6
412.598	10.69
412.804	10.71
413.01	10.66
413.216	10.6
413.422	10.61
413.628	10.65
413.834	10.63
414.04	10.7
414.246	10.68
414.452	10.72
414.658	10.67
414.864	10.67
415.07	10.61
415.275	10.61
415.481	10.61
415.687	10.5
415.893	10.47
416.099	10.47
416.305	10.48
416.511	10.48
416.716	10.41
416.922	10.4
417.128	10.32
417.334	10.33
417.539	10.31
417.745	10.28
417.951	10.32
418.157	10.3
418.362	10.3
418.568	10.26
418.774	10.24
418.979	10.22
419.185	10.23
419.391	10.25
419.596	10.23
419.802	10.24
420.008	10.2
420.213	10.17
420.419	10.16
420.624	10.16
420.83	10.16
421.035	10.17
421.241	10.18
421.446	10.2
421.652	10.19
421.857	10.17
422.063	10.15
422.268	10.21
422.474	10.22
422.679	10.25
422.885	10.18
423.09	10.16
423.295	10.13
423.501	10.15
423.706	10.1
423.911	10.06
424.117	10.1
424.322	10.15
424.527	10.13
424.733	10.12
424.938	10.14
425.143	10.19
425.349	10.18
425.554	10.17
425.759	10.17
425.964	10.22
426.169	10.28
426.375	10.28
426.58	10.23
426.785	10.2
426.99	10.22
427.195	10.15
427.4	10.22
427.605	10.25
427.811	10.3
428.016	10.33
428.221	10.3
428.426	10.32
428.631	10.25
428.836	10.25
429.041	10.26
429.246	10.26
429.451	10.29
429.656	10.22
429.861	10.19
430.066	10.23
430.271	10.21
430.476	10.23
430.681	10.2
430.886	10.23
431.09	10.25
431.295	10.25
431.5	10.24
431.705	10.23
431.91	10.16
432.115	10.15
432.32	10.1
432.524	10.12
432.729	10.07
432.934	10.1
433.139	10.14
433.343	10.15
433.548	10.18
433.753	10.2
433.958	10.17
434.162	10.23
434.367	10.31
434.572	10.35
434.776	10.36
434.981	10.41
435.186	10.37
435.39	10.32
435.595	10.31
435.799	10.3
436.004	10.27
436.209	10.31
436.413	10.36
436.618	10.3
436.822	10.22
437.027	10.2
437.231	10.14
437.436	10.16
437.64	10.18
437.845	10.16
438.049	10.12
438.253	10.09
438.458	10.08
438.662	10.03
438.867	10.06
439.071	10.08
439.275	10.09
439.48	10.15
439.684	10.11
439.888	10.08
440.093	10.07
440.297	10.09
440.501	10.12
440.706	10.13
440.91	10.16
441.114	10.16
441.318	10.17
441.523	10.16
441.727	10.18
441.931	10.28
442.135	10.26
442.339	10.28
442.543	10.3
442.748	10.28
442.952	10.24
443.156	10.19
443.36	10.19
443.564	10.15
443.768	10.11
443.972	10.05
444.176	9.97
444.38	10.01
444.584	10
444.788	9.96
444.992	9.96
445.196	9.95
445.4	9.98
445.604	9.96
445.808	9.97
446.012	9.97
446.216	9.97
446.42	9.95
446.624	9.95
446.828	9.95
447.032	9.97
447.235	9.94
447.439	9.98
447.643	9.98
447.847	10.01
448.051	9.98
448.254	10.02
448.458	10.01
448.662	10.09
448.866	10.05
449.069	10.08
449.273	10.09
449.477	10.14
449.681	10.16
449.884	10.15
450.088	10.13
450.292	10.17
450.495	10.19
450.699	10.21
450.902	10.14
451.106	10.18
451.31	10.12
451.513	10.12
451.717	10.09
451.92	10.05
452.124	10.04
452.327	10.06
452.531	10.05
452.734	10.05
452.938	10.01
453.141	10.01
453.345	10.02
453.548	10.04
453.752	10.05
453.955	10.05
454.158	10.05
454.362	10.04
454.565	10.08
454.769	10.01
454.972	10
455.175	10
455.379	9.97
455.582	9.92
455.785	9.94
455.988	9.93
456.192	9.87
456.395	9.82
456.598	9.84
456.801	9.79
457.005	9.86
457.208	9.87
457.411	9.86
457.614	9.87
457.817	9.87
458.021	9.85
458.224	9.87
458.427	9.93
458.63	9.98
458.833	9.97
459.036	9.97
459.239	9.94
459.442	9.87
459.645	9.9
459.848	9.91
460.051	9.95
460.254	9.96
460.457	9.93
460.66	9.95
460.863	9.94
461.066	9.96
461.269	9.98
461.472	10.03
461.675	10.11
461.878	10.13
462.081	10.17
462.284	10.12
462.486	10.16
462.689	10.15
462.892	10.09
463.095	10.06
463.298	10.04
463.5	10.02
463.703	9.98
463.906	9.94
464.109	9.92
464.311	9.92
464.514	9.95
464.717	9.9
464.92	9.92
465.122	9.94
465.325	10
465.528	10.01
465.73	9.99
465.933	10
466.135	10.05
466.338	10.06
466.541	10.05
466.743	10.01
466.946	10.06
467.148	10.08
467.351	10.07
467.553	10.01
467.756	10.02
467.958	10.08
468.161	10.03
468.363	10.02
468.566	9.99
468.768	9.95
468.971	10
469.173	9.96
469.375	9.93
469.578	9.96
469.78	9.96
469.983	9.95
470.185	9.89
470.387	10
470.59	9.95
470.792	9.95
470.994	9.98
471.196	9.96
471.399	9.96
471.601	9.92
471.803	9.88
472.005	9.9
472.208	9.92
472.41	9.92
472.612	9.89
472.814	9.89
473.016	9.93
473.218	9.91
473.421	9.91
473.623	9.93
473.825	9.95
474.027	9.96
474.229	9.92
474.431	9.9
474.633	9.9
474.835	9.9
475.037	9.9
475.239	9.89
475.441	9.91
475.643	9.88
475.845	9.92
476.047	9.97
476.249	9.96
476.451	10
476.653	10.02
476.855	10.04
477.057	10
477.258	10.04
477.46	10.04
477.662	10.03
477.864	10.04
478.066	9.99
478.268	9.98
478.469	10
478.671	9.98
478.873	9.92
479.075	9.91
479.276	9.93
479.478	9.9
479.68	9.86
479.882	9.88
480.083	9.91
480.285	9.93
480.487	9.91
480.688	9.88
480.89	9.89
481.091	9.93
481.293	9.96
481.495	9.93
481.696	9.92
481.898	9.93
482.099	9.9
482.301	9.87
482.502	9.84
482.704	9.84
482.905	9.84
483.107	9.82
483.308	9.81
483.51	9.79
483.711	9.8
483.913	9.81
484.114	9.81
484.315	9.8
484.517	9.82
484.718	9.82
484.92	9.83
485.121	9.83
485.322	9.87
485.524	9.88
485.725	9.9
485.926	9.9
486.127	9.88
486.329	9.88
486.53	9.88
486.731	9.87
486.932	9.89
487.134	9.86
487.335	9.85
487.536	9.82
487.737	9.84
487.938	9.82
488.139	9.81
488.341	9.82
488.542	9.83
488.743	9.82
488.944	9.83
489.145	9.84
489.346	9.86
489.547	9.87
489.748	9.89
489.949	9.91
490.15	9.9
490.351	9.9
490.552	9.9
490.753	9.88
490.954	9.88
491.155	9.87
491.356	9.87
491.557	9.86
491.758	9.89
491.959	9.88
492.159	9.83
492.36	9.85
492.561	9.86
492.762	9.88
492.963	9.91
493.164	9.95
493.364	9.98
493.565	10
493.766	10.02
493.967	10.01
494.167	10.02
494.368	10.06
494.569	10.06
494.769	10.08
494.97	10.06
495.171	10.01
495.371	10
495.572	10.01
495.773	10.05
495.973	10.07
496.174	10.06
496.375	10.12
496.575	10.12
496.776	10.16
496.976	10.18
497.177	10.22
497.377	10.26
497.578	10.3
497.778	10.3
497.979	10.27
498.179	10.28
498.38	10.3
498.58	10.29
498.78	10.29
498.981	10.28
499.181	10.27
499.382	10.23
499.582	10.27
499.782	10.28
499.983	10.28
500.183	10.33
500.383	10.32
500.584	10.32
500.784	10.33
500.984	10.36
501.184	10.35
501.385	10.4
501.585	10.43
501.785	10.44
501.985	10.43
502.185	10.44
502.386	10.41
502.586	10.41
502.786	10.43
502.986	10.45
503.186	10.45
503.386	10.45
503.586	10.48
503.786	10.49
503.987	10.51
504.187	10.56
504.387	10.6
504.587	10.63
504.787	10.69
504.987	10.72
505.187	10.74
505.387	10.77
505.587	10.81
505.786	10.84
505.986	10.86
506.186	10.86
506.386	10.89
506.586	10.88
506.786	10.93
506.986	10.9
507.186	10.88
507.386	10.91
507.585	10.92
507.785	10.91
507.985	10.92
508.185	10.94
508.384	10.94
508.584	10.93
508.784	10.98
508.984	11.01
509.183	11.05
509.383	11.12
509.583	11.13
509.782	11.16
509.982	11.22
510.182	11.25
510.381	11.29
510.581	11.33
510.781	11.35
510.98	11.35
511.18	11.33
511.379	11.38
511.579	11.4
511.778	11.45
511.978	11.52
512.177	11.51
512.377	11.56
512.576	11.62
512.776	11.68
512.975	11.73
513.175	11.82
513.374	11.84
513.573	11.9
513.773	11.94
513.972	11.94
514.172	11.96
514.371	12.03
514.57	12.02
514.77	12.05
514.969	12.03
515.168	12.08
515.367	12.11
515.567	12.17
515.766	12.17
515.965	12.19
516.164	12.24
516.364	12.25
516.563	12.28
516.762	12.34
516.961	12.37
517.16	12.44
517.359	12.46
517.559	12.48
517.758	12.54
517.957	12.57
518.156	12.6
518.355	12.62
518.554	12.67
518.753	12.69
518.952	12.71
519.151	12.74
519.35	12.78
519.549	12.83
519.748	12.87
519.947	12.86
520.146	12.91
520.345	12.96
520.544	13.04
520.743	13.09
520.942	13.14
521.141	13.18
521.339	13.2
521.538	13.22
521.737	13.28
521.936	13.33
522.135	13.39
522.333	13.44
522.532	13.5
522.731	13.52
522.93	13.51
523.129	13.53
523.327	13.56
523.526	13.59
523.725	13.63
523.923	13.67
524.122	13.68
524.321	13.72
524.519	13.73
524.718	13.71
524.917	13.73
525.115	13.78
525.314	13.84
525.512	13.9
525.711	13.98
525.909	14
526.108	14.02
526.306	14.05
526.505	14.08
526.703	14.13
526.902	14.17
527.1	14.2
527.299	14.24
527.497	14.25
527.696	14.27
527.894	14.28
528.092	14.31
528.291	14.33
528.489	14.38
528.688	14.42
528.886	14.47
529.084	14.51
529.283	14.54
529.481	14.61
529.679	14.62
529.877	14.66
530.076	14.68
530.274	14.75
530.472	14.82
530.67	14.85
530.869	14.88
531.067	14.91
531.265	14.96
531.463	15.02
531.661	15.02
531.859	15.09
532.057	15.17
532.255	15.24
532.454	15.23
532.652	15.23
532.85	15.27
533.048	15.29
533.246	15.31
533.444	15.33
533.642	15.38
533.84	15.43
534.038	15.47
534.236	15.53
534.434	15.58
534.632	15.64
534.83	15.68
535.027	15.73
535.225	15.81
535.423	15.87
535.621	15.93
535.819	15.95
536.017	15.97
536.215	16.02
536.412	16.03
536.61	16.04
536.808	16.05
537.006	16.12
537.203	16.17
537.401	16.15
537.599	16.19
537.797	16.22
537.994	16.28
538.192	16.36
538.39	16.41
538.587	16.42
538.785	16.51
538.983	16.6
539.18	16.65
539.378	16.67
539.575	16.73
539.773	16.77
539.97	16.79
540.168	16.81
540.366	16.85
540.563	16.86
540.761	16.92
540.958	16.94
541.155	16.97
541.353	16.99
541.55	17.04
541.748	17.09
541.945	17.14
542.143	17.18
542.34	17.2
542.537	17.23
542.735	17.29
542.932	17.31
543.129	17.33
543.327	17.41
543.524	17.46
543.721	17.53
543.919	17.56
544.116	17.62
544.313	17.71
544.51	17.79
544.708	17.82
544.905	17.84
545.102	17.89
545.299	17.93
545.496	17.95
545.693	18.01
545.891	18.02
546.088	18.08
546.285	18.09
546.482	18.09
546.679	18.12
546.876	18.21
547.073	18.26
547.27	18.33
547.467	18.41
547.664	18.45
547.861	18.48
548.058	18.52
548.255	18.58
548.452	18.65
548.649	18.77
548.846	18.86
549.043	18.85
549.24	18.97
549.437	19.03
549.633	19.05
549.83	19.08
550.027	19.15
550.224	19.26
550.421	19.26
550.618	19.3
550.814	19.31
551.011	19.32
551.208	19.41
551.405	19.4
551.601	19.43
551.798	19.47
551.995	19.51
552.191	19.53
552.388	19.52
552.585	19.6
552.781	19.64
552.978	19.68
553.175	19.69
553.371	19.73
553.568	19.73
553.764	19.77
553.961	19.84
554.157	19.89
554.354	19.94
554.55	20.07
554.747	20.07
554.943	20.1
555.14	20.11
555.336	20.15
555.533	20.18
555.729	20.28
555.926	20.32
556.122	20.28
556.318	20.35
556.515	20.35
556.711	20.31
556.907	20.35
557.104	20.41
557.3	20.45
557.496	20.52
557.693	20.57
557.889	20.58
558.085	20.64
558.281	20.78
558.478	20.79
558.674	20.87
558.87	20.9
559.066	20.99
559.262	21.03
559.459	21.04
559.655	21.09
559.851	21.16
560.047	21.21
560.243	21.25
560.439	21.28
560.635	21.29
560.831	21.29
561.027	21.37
561.223	21.37
561.419	21.43
561.615	21.52
561.811	21.49
562.007	21.49
562.203	21.53
562.399	21.61
562.595	21.64
562.791	21.71
562.987	21.74
563.183	21.77
563.379	21.82
563.575	21.86
563.771	21.89
563.966	21.99
564.162	22.01
564.358	22.06
564.554	22.04
564.75	22.07
564.945	22.1
565.141	22.18
565.337	22.16
565.533	22.2
565.728	22.19
565.924	22.19
566.12	22.22
566.315	22.29
566.511	22.36
566.707	22.4
566.902	22.39
567.098	22.44
567.293	22.46
567.489	22.53
567.684	22.52
567.88	22.55
568.076	22.65
568.271	22.67
568.467	22.61
568.662	22.65
568.858	22.67
569.053	22.72
569.248	22.76
569.444	22.73
569.639	22.72
569.835	22.76
570.03	22.85
570.225	22.82
570.421	22.84
570.616	22.95
570.812	22.92
571.007	22.94
571.202	22.93
571.397	22.93
571.593	23
571.788	23.11
571.983	23.14
572.178	23.19
572.374	23.2
572.569	23.26
572.764	23.27
572.959	23.3
573.154	23.32
573.35	23.39
573.545	23.34
573.74	23.37
573.935	23.31
574.13	23.32
574.325	23.27
574.52	23.27
574.715	23.26
574.91	23.25
575.105	23.29
575.3	23.35
575.495	23.43
575.69	23.55
575.885	23.57
576.08	23.6
576.275	23.67
576.47	23.74
576.665	23.86
576.86	23.9
577.055	23.99
577.25	24.02
577.444	24.03
577.639	24.01
577.834	23.99
578.029	24.06
578.224	24.06
578.418	24.04
578.613	24.03
578.808	24
579.003	24.01
579.197	23.95
579.392	23.95
579.587	23.99
579.781	23.97
579.976	23.97
580.171	23.9
580.365	23.99
580.56	23.97
580.755	23.97
580.949	24
581.144	23.97
581.338	23.97
581.533	23.97
581.727	23.96
581.922	23.99
582.116	24.05
582.311	24.07
582.505	24.05
582.7	24.06
582.894	24.03
583.089	24.05
583.283	24.12
583.478	24.16
583.672	24.21
583.866	24.19
584.061	24.22
584.255	24.2
584.449	24.19
584.644	24.23
584.838	24.27
585.032	24.34
585.226	24.39
585.421	24.39
585.615	24.44
585.809	24.42
586.003	24.49
586.198	24.48
586.392	24.47
586.586	24.52
586.78	24.55
586.974	24.64
587.168	24.71
587.363	24.64
587.557	24.67
587.751	24.61
587.945	24.59
588.139	24.5
588.333	24.52
588.527	24.57
588.721	24.6
588.915	24.62
589.109	24.63
589.303	24.56
589.497	24.62
589.691	24.59
589.885	24.68
590.079	24.77
590.273	24.85
590.466	24.86
590.66	24.84
590.854	24.85
591.048	24.81
591.242	24.79
591.436	24.89
591.629	24.87
591.823	24.98
592.017	24.93
592.211	24.92
592.404	24.9
592.598	24.95
592.792	24.94
592.986	25
593.179	25.06
593.373	25.04
593.567	24.93
593.76	24.97
593.954	24.88
594.147	24.91
594.341	24.95
594.535	25.01
594.728	25.02
594.922	25.08
595.115	24.99
595.309	24.97
595.502	25
595.696	25.02
595.889	25.05
596.083	25.05
596.276	25.03
596.47	25.03
596.663	25.02
596.856	24.99
597.05	25.03
597.243	25.11
597.437	25.13
597.63	25.15
597.823	25.22
598.017	25.2
598.21	25.19
598.403	25.2
598.596	25.21
598.79	25.26
598.983	25.27
599.176	25.19
599.369	25.17
599.563	25.15
599.756	25.16
599.949	25.06
600.142	25.04
600.335	25.15
600.528	25.18
600.722	25.13
600.915	25.13
601.108	25.19
601.301	25.27
601.494	25.27
601.687	25.33
601.88	25.34
602.073	25.32
602.266	25.32
602.459	25.3
602.652	25.35
602.845	25.36
603.038	25.39
603.231	25.33
603.424	25.29
603.617	25.3
603.809	25.27
604.002	25.28
604.195	25.39
604.388	25.42
604.581	25.4
604.774	25.36
604.966	25.41
605.159	25.42
605.352	25.48
605.545	25.52
605.737	25.6
605.93	25.64
606.123	25.61
606.316	25.6
606.508	25.61
606.701	25.75
606.894	25.79
607.086	25.79
607.279	25.68
607.471	25.68
607.664	25.68
607.857	25.63
608.049	25.68
608.242	25.67
608.434	25.64
608.627	25.68
608.819	25.61
609.012	25.59
609.204	25.55
609.397	25.65
609.589	25.71
609.782	25.69
609.974	25.74
610.166	25.78
610.359	25.87
610.551	25.92
610.743	25.88
610.936	25.9
611.128	25.96
611.32	25.92
611.513	25.9
611.705	25.87
611.897	25.87
612.09	25.81
612.282	25.76
612.474	25.68
612.666	25.69
612.858	25.69
613.051	25.62
613.243	25.62
613.435	25.73
613.627	25.79
613.819	25.74
614.011	25.75
614.203	25.77
614.395	25.7
614.588	25.67
614.78	25.65
614.972	25.57
615.164	25.58
615.356	25.56
615.548	25.55
615.74	25.51
615.932	25.57
616.124	25.62
616.315	25.64
616.507	25.65
616.699	25.67
616.891	25.7
617.083	25.82
617.275	25.96
617.467	25.97
617.659	25.91
617.85	25.89
618.042	25.83
618.234	25.87
618.426	25.8
618.618	25.87
618.809	25.94
619.001	25.96
619.193	25.92
619.384	25.85
619.576	25.83
619.768	25.93
619.959	25.93
620.151	26.06
620.343	26.05
620.534	26.06
620.726	26.04
620.917	26.02
621.109	25.97
621.301	26
621.492	25.98
621.684	25.97
621.875	25.96
622.067	25.91
622.258	25.83
622.45	25.84
622.641	25.93
622.832	25.87
623.024	25.91
623.215	25.91
623.407	25.85
623.598	25.94
623.789	25.95
623.981	25.95
624.172	26.07
624.363	26.03
624.555	26.01
624.746	26.04
624.937	26.12
625.129	26.04
625.32	26.01
625.511	26.06
625.702	25.97
625.893	25.98
626.085	26.01
626.276	25.99
626.467	26.02
626.658	26.07
626.849	25.99
627.04	25.96
627.231	25.99
627.422	26.07
627.614	26.13
627.805	26.22
627.996	26.18
628.187	26.17
628.378	26.13
628.569	26.12
628.76	26.04
628.951	26.12
629.142	26.12
629.332	26.21
629.523	26.19
629.714	26.22
629.905	26.16
630.096	26.24
630.287	26.25
630.478	26.28
630.669	26.39
630.859	26.42
631.05	26.4
631.241	26.43
631.432	26.36
631.623	26.35
631.813	26.21
632.004	26.2
632.195	26.25
632.385	26.17
632.576	26.21
632.767	26.14
632.957	26.17
633.148	26.09
633.339	26.1
633.529	26.13
633.72	26.13
633.91	26.1
634.101	26.19
634.292	26.12
634.482	26.18
634.673	26.04
634.863	26.06
635.054	26
635.244	26
635.435	25.92
635.625	25.9
635.815	25.89
636.006	25.96
636.196	25.97
636.387	25.94
636.577	25.88
636.767	25.98
636.958	26.02
637.148	26.03
637.338	26.02
637.529	26.22
637.719	26.27
637.909	26.33
638.099	26.38
638.29	26.33
638.48	26.46
638.67	26.58
638.86	26.61
639.05	26.54
639.241	26.66
639.431	26.66
639.621	26.6
639.811	26.62
640.001	26.53
640.191	26.57
640.381	26.56
640.571	26.47
640.761	26.46
640.951	26.49
641.141	26.58
641.331	26.56
641.521	26.56
641.711	26.56
641.901	26.45
642.091	26.53
642.281	26.37
642.471	26.35
642.661	26.42
642.851	26.4
643.041	26.3
643.231	26.25
643.42	26.21
643.61	26.24
643.8	26.17
643.99	26.27
644.18	26.22
644.369	26.34
644.559	26.44
644.749	26.44
644.939	26.43
645.128	26.47
645.318	26.43
645.508	26.46
645.697	26.49
645.887	26.51
646.076	26.51
646.266	26.57
646.456	26.61
646.645	26.53
646.835	26.59
647.024	26.58
647.214	26.65
647.403	26.65
647.593	26.64
647.782	26.63
647.972	26.65
648.161	26.53
648.351	26.59
648.54	26.59
648.73	26.57
648.919	26.57
649.108	26.61
649.298	26.54
649.487	26.59
649.677	26.66
649.866	26.62
650.055	26.65
650.244	26.74
650.434	26.7
650.623	26.66
650.812	26.74
651.002	26.69
651.191	26.66
651.38	26.71
651.569	26.87
651.758	26.86
651.947	26.9
652.137	26.85
652.326	26.68
652.515	26.65
652.704	26.69
652.893	26.65
653.082	26.67
653.271	26.74
653.46	26.69
653.649	26.57
653.838	26.46
654.027	26.44
654.216	26.39
654.405	26.57
654.594	26.6
654.783	26.64
654.972	26.66
655.161	26.63
655.35	26.59
655.539	26.56
655.728	26.48
655.916	26.5
656.105	26.55
656.294	26.65
656.483	26.64
656.672	26.67
656.86	26.59
657.049	26.59
657.238	26.58
657.427	26.61
657.615	26.63
657.804	26.61
657.993	26.63
658.181	26.58
658.37	26.55
658.559	26.54
658.747	26.5
658.936	26.53
659.125	26.43
659.313	26.53
659.502	26.55
659.69	26.56
659.879	26.56
660.067	26.62
660.256	26.65
660.444	26.78
660.633	26.74
660.821	26.74
661.01	26.73
661.198	26.83
661.387	26.71
661.575	26.69
661.763	26.71
661.952	26.74
662.14	26.61
662.328	26.68
662.517	26.61
662.705	26.62
662.893	26.65
663.082	26.65
663.27	26.58
663.458	26.55
663.646	26.63
663.834	26.63
664.023	26.71
664.211	26.9
664.399	26.84
664.587	26.81
664.775	26.78
664.963	26.76
665.152	26.76
665.34	26.87
665.528	26.92
665.716	26.88
665.904	26.89
666.092	26.84
666.28	26.86
666.468	26.94
666.656	26.85
666.844	26.94
667.032	27.05
667.22	27.07
667.408	27
667.596	27.06
667.784	27.04
667.971	27.19
668.159	27.1
668.347	26.96
668.535	26.81
668.723	26.92
668.911	26.92
669.098	26.81
669.286	26.72
669.474	26.84
669.662	26.75
669.849	26.8
670.037	26.66
670.225	26.75
670.413	26.73
670.6	26.87
670.788	26.79
670.976	26.82
671.163	26.84
671.351	27.02
671.538	27.02
671.726	27.17
671.913	27.19
672.101	27.25
672.289	27.26
672.476	27.43
672.664	27.51
672.851	27.58
673.039	27.58
673.226	27.52
673.413	27.4
673.601	27.33
673.788	27.23
673.976	27.06
674.163	26.99
674.35	27.06
674.538	26.93
674.725	26.83
674.912	26.92
675.1	26.87
675.287	26.88
675.474	27.02
675.662	27.14
675.849	27.2
676.036	27.45
676.223	27.46
676.411	27.35
676.598	27.33
676.785	27.28
676.972	27.19
677.159	27.3
677.346	27.47
677.533	27.49
677.721	27.39
677.908	27.31
678.095	27.12
678.282	27.15
678.469	27.27
678.656	27.4
678.843	27.52
679.03	27.49
679.217	27.49
679.404	27.38
679.591	27.3
679.778	27.29
679.964	27.27
680.151	27.31
680.338	27.32
680.525	27.35
680.712	27.19
680.899	27.21
681.086	27.24
681.272	27.19
681.459	27.31
681.646	27.23
681.833	27.33
682.02	27.38
682.206	27.41
682.393	27.27
682.58	27.14
682.766	27.24
682.953	27.07
683.14	27.09
683.326	27.12
683.513	27.05
683.7	27.12
683.886	27.04
684.073	27.03
684.259	27.06
684.446	27.14
684.632	27.2
684.819	27.19
685.005	27.26
685.192	27.25
685.378	27.26
685.565	27.19
685.751	27.15
685.938	27.22
686.124	27.11
686.31	27.06
686.497	27.09
686.683	27.19
686.87	27.22
687.056	27.13
687.242	27.17
687.429	27.12
687.615	27.05
687.801	27.08
687.987	27.02
688.174	27.1
688.36	27.11
688.546	27.12
688.732	26.98
688.918	27.08
689.105	27.21
689.291	27.17
689.477	27.11
689.663	27.3
689.849	27.26
690.035	27.24
690.221	27.25
690.407	27.24
690.593	27.14
690.779	27.25
690.965	27.17
691.151	27.22
691.337	27.23
691.523	27.32
691.709	27.28
691.895	27.4
692.081	27.5
692.267	27.61
692.453	27.55
692.639	27.6
692.825	27.53
693.011	27.39
693.196	27.41
693.382	27.42
693.568	27.32
693.754	27.3
693.94	27.17
694.125	27.11
694.311	26.99
694.497	27.16
694.682	27.18
694.868	27.25
695.054	27.3
695.239	27.13
695.425	27.19
695.611	27.31
695.796	27.4
695.982	27.46
696.168	27.41
696.353	27.53
696.539	27.36
696.724	27.36
696.91	27.28
697.095	27.28
697.281	27.29
697.466	27.21
697.652	27.12
697.837	27.07
698.023	27.01
698.208	27.09
698.393	27.09
698.579	27.15
698.764	27.16
698.949	27.19
699.135	27.16
699.32	27.18
699.505	27.24
699.691	27.31
699.876	27.38
700.061	27.45
700.246	27.46
700.432	27.34
700.617	27.43
700.802	27.47
700.987	27.48
701.172	27.58
701.358	27.46
701.543	27.41
701.728	27.45
701.913	27.37
702.098	27.32
702.283	27.25
702.468	27.41
702.653	27.42
702.838	27.56
703.023	27.62
703.208	27.55
703.393	27.68
703.578	27.74
703.763	27.7
703.948	27.74
704.133	27.75
704.318	27.6
704.503	27.67
704.688	27.61
704.873	27.52
705.057	27.6
705.242	27.75
705.427	27.84
705.612	28.06
705.797	28.1
705.981	28.15
706.166	28.15
706.351	28.4
706.536	28.12
706.72	28.02
706.905	27.9
707.09	27.87
707.274	27.91
707.459	27.82
707.644	27.66
707.828	27.68
708.013	27.74
708.197	27.83
708.382	27.74
708.567	27.94
708.751	28.02
708.936	28.08
709.12	28.17
709.305	28.01
709.489	28.08
709.673	28.01
709.858	27.9
710.042	27.92
710.227	27.79
710.411	27.76
710.596	27.61
710.78	27.5
710.964	27.58
711.149	27.39
711.333	27.54
711.517	27.6
711.702	27.61
711.886	27.6
712.07	27.42
712.254	27.45
712.438	27.53
712.623	27.69
712.807	27.93
712.991	27.73
713.175	27.79
713.359	27.66
713.544	27.61
713.728	27.66
713.912	27.75
714.096	27.85
714.28	27.8
714.464	27.81
714.648	27.77
714.832	27.47
715.016	27.64
715.2	27.58
715.384	27.75
715.568	27.85
715.752	27.72
715.936	27.74
716.12	27.64
716.304	27.74
716.488	27.76
716.671	27.84
716.855	27.92
717.039	27.88
717.223	27.81
717.407	27.49
717.59	27.43
717.774	27.52
717.958	27.48
718.142	27.57
718.325	27.56
718.509	27.37
718.693	27.22
718.877	27.27
719.06	27.3
719.244	27.5
719.428	27.65
719.611	27.58
719.795	27.66
719.978	27.65
720.162	27.63
720.345	27.53
720.529	27.67
720.713	27.65
720.896	27.72
721.08	27.74
721.263	27.39
721.446	27.43
721.63	27.46
721.813	27.45
721.997	27.37
722.18	27.46
722.364	27.57
722.547	27.65
722.73	27.81
722.914	27.79
723.097	27.77
723.28	28.17
723.464	28.23
723.647	28.08
723.83	27.94
724.013	28.1
724.197	28.2
724.38	28.52
724.563	28.39
724.746	28.43
724.929	28.47
725.112	28.23
725.296	28.05
725.479	27.96
725.662	27.99
725.845	28.03
726.028	27.82
726.211	27.65
726.394	27.43
726.577	27.44
726.76	27.43
726.943	27.24
727.126	27.31
727.309	27.33
727.492	27.37
727.675	27.48
727.858	27.26
728.041	27.41
728.224	27.27
728.407	27.25
728.589	27.29
728.772	27.25
728.955	27.42
729.138	27.54
729.321	27.64
729.503	27.67
729.686	27.64
729.869	27.84
730.052	27.82
730.234	28
730.417	27.99
730.6	28.07
730.782	27.89
730.965	27.91
731.148	27.85
731.33	27.8
731.513	27.74
731.695	27.57
731.878	27.61
732.061	27.6
732.243	27.46
732.426	27.25
732.608	27.11
732.791	27.18
732.973	27.01
733.156	27.05
733.338	27.08
733.52	27.09
733.703	27.44
733.885	27.5
734.068	27.48
734.25	27.62
734.432	27.95
734.615	28.24
734.797	28.28
734.979	28.41
735.162	28.44
735.344	28.3
735.526	28.33
735.708	28
735.891	28.09
736.073	28.27
736.255	28.43
736.437	28.32
736.619	28.03
736.802	28.08
736.984	28.14
737.166	28.06
737.348	28.09
737.53	28.17
737.712	28.42
737.894	28.31
738.076	28.01
738.258	27.82
738.44	27.76
738.622	27.73
738.804	27.72
738.986	27.85
739.168	28.14
739.35	28.38
739.532	28.23
739.714	28.11
739.896	28.16
740.078	28.32
740.259	28.57
740.441	28.6
740.623	28.77
740.805	28.83
740.987	28.72
741.168	28.19
741.35	27.85
741.532	28.02
741.714	28.01
741.895	28.01
742.077	28.2
742.259	28.14
742.44	28.07
742.622	27.89
742.804	27.78
742.985	27.77
743.167	28.1
743.348	28.04
743.53	28.09
743.711	28.09
743.893	27.71
744.075	27.57
744.256	27.35
744.438	27.47
744.619	27.52
744.8	27.48
744.982	27.28
745.163	27.36
745.345	27.46
745.526	27.62
745.707	27.63
745.889	28.04
746.07	28.03
746.252	28.04
746.433	27.91
746.614	27.98
746.795	27.97
746.977	28.27
747.158	28.25
747.339	28.15
747.52	27.86
747.702	27.91
747.883	27.92
748.064	27.62
748.245	27.73
748.426	27.54
748.607	27.53
748.788	27.72
748.97	27.46
749.151	27.49
749.332	27.91
749.513	28
749.694	28.02
749.875	27.86
750.056	28.07
750.237	27.92
750.418	28.07
750.599	28.16
750.78	27.95
750.96	28.2
751.141	28.28
751.322	28.36
751.503	28.18
751.684	28.19
751.865	28.55
752.046	28.96
752.226	29.18
752.407	29.39
752.588	29.26
752.769	29.61
752.949	29.54
753.13	29.41
753.311	29.23
753.492	29.27
753.672	29.33
753.853	28.77
754.034	28.7
754.214	28.89
754.395	28.65
754.575	28.76
754.756	28.19
754.937	27.96
755.117	28.2
755.298	28.25
755.478	28.46
755.659	28.41
755.839	28.63
756.02	28.37
756.2	27.92
756.381	27.91
756.561	27.9
756.741	28.53
756.922	28.81
757.102	28.82
757.283	28.64
757.463	28.34
757.643	28.46
757.823	28.45
758.004	28.33
758.184	28.56
758.364	28.65
758.545	28.68
758.725	28.39
758.905	28.39
759.085	28.05
759.265	27.77
759.446	28.12
759.626	28.05
759.806	28.19
759.986	28.34
760.166	28.15
760.346	28.01
760.526	27.94
760.706	28.23
760.886	28.29
761.066	28.22
761.246	28.57
761.426	28.34
761.606	28.03
761.786	27.75
761.966	27.93
762.146	27.9
762.326	28.16
762.506	28.19
762.686	27.98
762.866	27.74
763.046	27.95
763.225	27.88
763.405	27.89
763.585	28.04
763.765	28.05
763.945	27.9
764.124	27.94
764.304	27.85
764.484	27.85
764.664	27.79
764.843	28.03
765.023	28
765.203	28.16
765.382	28.38
765.562	28.32
765.741	28.6
765.921	28.48
766.101	28.57
766.28	28.69
766.46	28.78
766.639	29.02
766.819	28.76
766.998	28.75
767.178	28.73
767.357	28.6
767.537	28.61
767.716	28.73
767.896	28.94
768.075	29.07
768.254	29.18
768.434	29.38
768.613	28.96
768.792	29.16
768.972	29.19
769.151	29.02
769.33	29.18
769.51	29.44
769.689	29.18
769.868	29.17
770.047	29.25
770.226	29.36
770.406	29.19
770.585	29.4
770.764	29.3
770.943	29.32
771.122	29.29
771.301	28.95
771.48	29.32
771.66	29.41
771.839	29.45
772.018	29.36
772.197	29.21
772.376	28.92
772.555	29.64
772.734	30.07
772.913	30.16
773.092	30.02
773.271	29.84
773.449	29.51
773.628	29.6
773.807	29.58
773.986	29.3
774.165	28.9
774.344	28.89
774.523	28.41
774.701	27.94
774.88	27.81
775.059	28.12
775.238	28.65
775.417	28.42
775.595	28.29
775.774	28.36
775.953	28.82
776.131	28.67
776.31	28.9
776.489	28.94
776.667	29.16
776.846	29.25
777.025	29.2
777.203	28.9
777.382	28.75
777.56	28.71
777.739	28.49
777.917	28.09
778.096	28.62
778.274	28.59
778.453	28.59
778.631	28.3
778.81	27.95
778.988	27.74
779.166	27.97
779.345	28.05
779.523	28.28
779.702	28.3
779.88	28.51
780.058	28.49
780.237	28.49
780.415	28.64
780.593	28.67
780.771	29.01
780.95	29.12
781.128	29.21
781.306	29.34
781.484	29.33
781.662	29.67
781.841	29.59
782.019	29.46
782.197	29.74
782.375	29.18
782.553	29.64
782.731	29.83
782.909	29.84
783.087	29.73
783.265	29.98
783.443	29.64
783.621	29.14
783.799	29.36
783.977	29.56
784.155	29.26
784.333	29.46
784.511	29.35
784.689	28.95
784.867	29.44
785.045	29.22
785.223	28.97
785.4	28.85
785.578	28.93
785.756	28.71
785.934	28.34
786.112	28.48
786.289	28.86
786.467	28.71
786.645	29.14
786.823	28.79
787	29.14
787.178	29.3
787.356	29.64
787.533	30
787.711	30.04
787.889	30.29
788.066	30.16
788.244	30.34
788.421	30.43
788.599	30.16
788.776	30.39
788.954	30.28
789.131	30.46
789.309	30.6
789.486	30.66
789.664	31.17
789.841	31.2
790.019	31.22
790.196	30.8
790.373	30.42
790.551	30.32
790.728	30.18
790.906	29.8
791.083	28.75
791.26	28.36
791.437	27.79
791.615	27.58
791.792	27.39
791.969	27.02
792.146	27.05
792.324	27.88
792.501	27.94
792.678	27.98
792.855	27.79
793.032	28.28
793.209	28.73
793.387	29.49
793.564	29.13
793.741	28.56
793.918	29.19
794.095	29.41
794.272	29.48
794.449	29.17
794.626	29.43
794.803	29.8
794.98	29.68
795.157	29.63
795.334	29.28
795.511	28.82
795.688	28.82
795.864	28.78
796.041	28.22
796.218	27.47
796.395	28.43
796.572	28.28
796.749	28.5
796.925	29.18
797.102	29.19
797.279	29.17
797.456	29.93
797.632	30.12
797.809	30.05
797.986	30.05
798.162	30.39
798.339	29.98
798.516	29.76
798.692	29.73
798.869	29.6
799.046	28.99
799.222	29.65
799.399	28.87
799.575	29.73
799.752	29.43
799.928	29.53
800.105	29.44
800.281	29.18
800.458	29.36
800.634	29.22
800.811	29.11
800.987	29.63
801.163	28.68
801.34	29.06
801.516	28.49
801.692	28.95
801.869	29.52
802.045	29.52
802.221	29.49
802.398	29.3
802.574	29.19
802.75	29.15
802.926	28.84
803.103	28.52
803.279	28.48
803.455	28.61
803.631	29.07
803.807	28.29
803.983	28.87
804.16	28.64
804.336	28.17
804.512	28.05
804.688	28.43
804.864	28.64
805.04	29.08
805.216	29.08
805.392	28.38
805.568	27.38
805.744	28.46
805.92	28.29
806.096	28.26
806.272	28.83
806.448	29.25
806.623	28.09
806.799	28.35
806.975	28.24
807.151	29.14
807.327	29.54
807.503	30.01
807.678	29.52
807.854	29.34
808.03	29.42
808.206	29.32
808.381	29.24
808.557	29.71
808.733	29.3
808.908	30.11
809.084	29.51
809.26	29.75
809.435	29.11
809.611	28.92
809.787	28.26
809.962	28.17
810.138	28.19
810.313	27.99
810.489	28
810.664	28.28
810.84	27.3
811.015	27.29
811.191	27.51
811.366	27.64
811.542	27.78
811.717	28.76
811.892	29.27
812.068	30.02
812.243	30.11
812.419	30.29
812.594	30.15
812.769	31.04
812.944	30.92
813.12	30.6
813.295	30.89
813.47	30.96
813.645	30.72
813.821	30.77
813.996	29.16
814.171	28.82
814.346	28.52
814.521	28.72
814.697	28.79
814.872	28.9
815.047	28.86
815.222	28.99
815.397	28.81
815.572	28.51
815.747	29.6
815.922	29.95
816.097	30.24
816.272	30.99
816.447	30.59
816.622	30.25
816.797	29.74
816.972	29.76
817.147	29.75
817.322	29.85
817.496	30.09
817.671	28.53
817.846	28.71
818.021	28.61
818.196	28.26
818.371	28.49
818.545	28.56
818.72	28.76
818.895	28.61
819.069	28.61
819.244	28.95
819.419	28.99
819.594	29.18
819.768	29.03
819.943	28.95
820.117	28.49
820.292	28.4
820.467	28.23
820.641	28.47
820.816	28.5
820.99	28.46
821.165	28.33
821.339	28.33
821.514	28.19
821.688	28.26
821.863	28.3
822.037	28.44
822.212	28.43
822.386	28.39
822.56	28.2
822.735	28.05
822.909	28.06
823.084	27.95
823.258	27.89
823.432	27.96
823.606	27.93
823.781	27.82
823.955	27.66
824.129	27.68
824.303	27.73
824.478	27.85
824.652	27.99
824.826	27.74
825	28.11
825.174	28.02
825.348	27.93
825.523	27.94
825.697	27.91
825.871	28.01
826.045	28.03
826.219	27.98
826.393	28.1
826.567	28.21
826.741	28.16
826.915	28.1
827.089	28.3
827.263	28.38
827.437	28.38
827.611	28.61
827.784	28.67
827.958	28.41
828.132	28.77
828.306	28.59
828.48	28.7
828.654	29.12
828.827	28.41
829.001	28.11
829.175	28.21
829.349	28.35
829.522	28.34
829.696	28.43
829.87	29.3
830.044	29.2
830.217	29.58
830.391	29.53
830.565	29.44
830.738	30.01
830.912	29.97
831.085	29.97
831.259	30.27
831.432	30.14
831.606	29.76
831.779	28.95
831.953	28.23
832.126	27.97
832.3	27.98
832.473	27.8
832.647	28.09
832.82	28.26
832.994	28.19
833.167	27.77
833.34	27.46
833.514	27.73
833.687	28.09
833.86	28.25
834.034	28.38
834.207	28.39
834.38	28.32
834.553	28.16
834.727	28.31
834.9	28.46
835.073	28.48
835.246	28.81
835.419	29.07
835.593	29.28
835.766	29.55
835.939	30.09
836.112	30.38
836.285	30.59
836.458	31.14
836.631	31.12
836.804	30.41
836.977	30.75
837.15	31.12
837.323	30.52
837.496	29.65
837.669	30.67
837.842	29.69
838.015	29.72
838.188	30.74
838.361	30.57
838.533	30.86
838.706	31.32
838.879	31.59
839.052	31.02
839.225	31.21
839.398	31.88
839.57	30.46
839.743	30.43
839.916	31.04
840.088	30.04
840.261	30.35
840.434	31.01
840.607	31.85
840.779	31.62
840.952	32.12
841.124	32.59
841.297	32.22
841.47	32.92
841.642	33.12
841.815	32.09
841.987	32.97
842.16	32.03
842.332	31.08
842.505	30.18
842.677	30.74
842.85	30.58
843.022	29.84
843.194	30.71
843.367	31.47
843.539	32.05
843.712	33.14
843.884	33.45
844.056	34.37
844.229	33.57
844.401	33.68
844.573	33.88
844.745	33.45
844.918	32.81
845.09	33.36
845.262	31.11
845.434	31.95
845.606	30.9
845.779	30
845.951	30.48
846.123	31.26
846.295	31.15
846.467	30.61
846.639	30.88
846.811	32.17
846.983	30.16
847.155	31.62
847.327	31.36
847.499	30.25
847.671	30
847.843	27.79
848.015	27.06
848.187	27.93
848.359	28.11
848.531	25.83
848.703	24.68
848.875	26.73
849.047	25.86
849.218	24.91
849.39	25.32
849.562	26.67
849.734	27.85
849.905	29.29
850.077	28.95
850.249	28.86
850.421	30.24
850.592	33.17
850.764	33.26
850.936	33.84
851.107	33.3
851.279	33.56
851.451	33.72
851.622	34.43
851.794	34.95
851.965	35
852.137	35.09
852.308	35.62
852.48	32.9
852.651	31.7
852.823	31.13
852.994	32.94
853.166	35.19
853.337	36.69
853.509	35.1
853.68	33.99
853.851	35.31
854.023	34.34
854.194	34.73
854.365	34.2
854.537	34.29
854.708	34.67
854.879	32.91
855.05	33.75
855.222	32.85
855.393	32.12
855.564	29.83
855.735	30.61
855.906	32.44
856.078	32.03
856.249	34.44
856.42	32.07
856.591	31.73
856.762	31.59
856.933	31.02
857.104	29.08
857.275	32.37
857.446	35.05
857.617	32.5
857.788	28.98
857.959	29.52
858.13	28.18
858.301	30.47
858.472	30.49
858.643	29.69
858.814	28.58
858.985	29.73
859.155	27.39
859.326	28
859.497	30.77
859.668	30.32
859.839	30.49
860.009	32.34
860.18	32.61
860.351	35.07
860.522	35.95
860.692	37.3
860.863	36.16
861.034	36.87
861.204	35.14
861.375	32.05
861.546	33.77
861.716	31.43
861.887	27.18
862.057	26.7
862.228	25.07
862.398	25.56
862.569	24.68
862.739	27.59
862.91	27.62
863.08	27.28
863.251	26.33
863.421	24.74
863.592	27.34
863.762	28.43
863.932	28.74
864.103	28.44
864.273	27.59
864.443	27.72
864.614	24.56
864.784	24.33
864.954	24.54
865.125	26.39
865.295	30.51
865.465	29.3
865.635	31.27
865.805	31.58
865.976	30.87
866.146	32.43
866.316	32.17
866.486	32.83
866.656	32.21
866.826	30.64
866.996	32.42
867.166	30.64
867.336	32.04
867.506	30.47
867.676	31.41
867.846	31.35
868.016	30.97
868.186	29.36
868.356	29.78
868.526	29.35
868.696	31.22
868.866	29.98
869.036	27.41
869.206	25.57
869.376	24.69
869.545	22.93
869.715	22.81
869.885	20.42
870.055	22.2
870.224	23.88
870.394	24.54
870.564	26.84
870.734	24.82
870.903	26.49
871.073	28.45
871.243	30.89
871.412	31.44
871.582	33.47
871.751	36.71
871.921	37.43
872.091	33.96
872.26	33.27
872.43	30.47
872.599	32.54
872.769	32.87
872.938	33.92
873.108	33.11
873.277	32.09
873.446	33.09
873.616	29.82
873.785	30.06
873.955	32.33
874.124	32.46
874.293	34
874.463	33.38
874.632	34.09
874.801	32.51
874.971	33.38
875.14	34.69
875.309	32.75
875.478	36.12
875.647	35.75
875.817	36.41
875.986	35.69
876.155	33.58
876.324	34.19
876.493	36.68
876.662	35.72
876.831	34.61
877	35.27
877.17	37.49
877.339	38.91
877.508	40.3
877.677	40.81
877.846	41.63
878.015	42.8
878.184	42.17
878.352	39.84
878.521	38.67
878.69	38.64
878.859	38.21
879.028	36.69
879.197	33.53
879.366	31.94
879.534	31.63
879.703	31.64
879.872	31.69
880.041	31.9
880.21	31.6
880.378	31.93
880.547	31.62
880.716	30.77
880.884	30
881.053	30.05
881.222	29.41
881.39	29.09
881.559	29.22
881.727	29.07
881.896	28.99
882.065	28.93
882.233	28.75
882.402	28.49
882.57	28.31
882.739	28.49
882.907	28.72
883.076	28.9
883.244	29.05
883.412	29.04
883.581	28.96
883.749	28.84
883.918	29.18
884.086	29.94
884.254	29.87
884.423	30.4
884.591	31.27
884.759	30.9
884.927	31.21
885.096	30.28
885.264	30.77
885.432	30.92
885.6	30.17
885.769	29.41
885.937	29.66
886.105	30.21
886.273	31.06
886.441	30.11
886.609	31.69
886.777	31.21
886.945	33.11
887.113	32.17
887.281	32.36
887.449	32.15
887.617	33.21
887.785	31.57
887.953	32.73
888.121	31.42
888.289	31.68
888.457	32.42
888.625	33.14
888.793	32.09
888.961	30.55
889.129	29.27
889.296	32.96
889.464	31.88
889.632	31.37
889.8	29.93
889.967	31.58
890.135	32.64
