Data from JASIL_3169_Reflection_1.txt Node
Date: Thu Nov 12 22:53:53 EST 2015
User: Geneva
Spectrometer: USB4E03002
Autoset integration time: false
Trigger mode: 4
Integration Time (sec): 1.000000E-1
Scans to average: 10
Electric dark correction enabled: true
Nonlinearity correction enabled: false
Boxcar width: 5
Stray light correction enabled: false
XAxis mode: Wavelengths
Stop averaging: false
Number of Pixels in Spectrum: 3648
>>>>>Begin Spectral Data<<<<<
177.575	-51.82
177.794	38.28
178.014	37.75
178.233	-268.25
178.452	42.32
178.672	-108.61
178.891	6.74
179.11	8.85
179.33	272.8
179.549	278.19
179.768	-2030.34
179.987	-536.01
180.207	-324.45
180.426	-986.41
180.645	1189.77
180.864	677.33
181.084	569.01
181.303	2925.68
181.522	598.52
181.741	259.34
181.96	418.98
182.179	305.91
182.398	917.98
182.618	834.65
182.837	-161.93
183.056	-93.19
183.275	-36.2
183.494	-53.16
183.713	-48.65
183.932	-25.63
184.151	-23.92
184.37	12.25
184.589	-27.51
184.808	-37.67
185.027	-16.18
185.246	-71.29
185.465	-52.35
185.684	-73.3
185.903	-60.58
186.122	-71.65
186.341	-114.3
186.56	-139.44
186.779	-1556.92
186.998	-736.33
187.216	-324.41
187.435	-658.2
187.654	-1532.21
187.873	-1356.34
188.092	955.66
188.311	2010.4
188.53	6289.87
188.748	-8438.26
188.967	-387.46
189.186	-170.53
189.405	-221.88
189.623	-147.48
189.842	-121.67
190.061	-117.6
190.28	-141.95
190.498	-71.02
190.717	-79.07
190.936	-151.79
191.154	-95.3
191.373	-366.9
191.592	-138.48
191.81	-184.23
192.029	-1356.22
192.248	-559.36
192.466	-466.97
192.685	-549.88
192.904	-653.07
193.122	-624.73
193.341	-389.37
193.559	-686.18
193.778	-209.88
193.996	-367.06
194.215	-171.4
194.433	-153.05
194.652	-293.59
194.87	-226.04
195.089	-330.35
195.307	-420.92
195.526	-956.24
195.744	4515.15
195.963	532
196.181	247.36
196.399	207.94
196.618	132.69
196.836	161.79
197.055	248.58
197.273	233.13
197.491	223.75
197.71	122.2
197.928	128.04
198.146	211.18
198.365	459.22
198.583	558.73
198.801	352.78
199.019	-105.97
199.238	6.27
199.456	-93.22
199.674	-28.54
199.892	-206
200.111	-248.97
200.329	-240.02
200.547	-136.38
200.765	-282.01
200.983	-117.65
201.202	-92.06
201.42	-177.71
201.638	-92.6
201.856	-101.53
202.074	-134.41
202.292	-32.42
202.51	-63.83
202.728	-83.84
202.946	-94.07
203.165	-90
203.383	-166.57
203.601	-132.86
203.819	-98.11
204.037	-108.55
204.255	-91.21
204.473	-117.62
204.691	-139.01
204.909	-71.45
205.127	-50.6
205.345	-52.74
205.562	-69.6
205.78	-55.95
205.998	-40.35
206.216	-54.53
206.434	-147.58
206.652	-191.46
206.87	-124.77
207.088	-5082.81
207.306	-898.39
207.523	1031.41
207.741	907.08
207.959	-2790.45
208.177	-480.9
208.395	-782.51
208.612	-352.63
208.83	-155.31
209.048	-203.37
209.266	-234.1
209.483	-77.42
209.701	-76.69
209.919	-50.72
210.136	-18.9
210.354	-19.48
210.572	-51.73
210.79	-15.91
211.007	-0.75
211.225	-20.52
211.442	-12.35
211.66	-8.54
211.878	-30.24
212.095	49.68
212.313	34.1
212.53	51.92
212.748	51.67
212.966	46.92
213.183	50.48
213.401	70.91
213.618	71.51
213.836	74.31
214.053	72.73
214.271	67.95
214.488	-4731.17
214.705	-881.05
214.923	-619.1
215.14	-257.61
215.358	-332.31
215.575	-165.18
215.793	-109.4
216.01	394.58
216.227	-3836.36
216.445	68.03
216.662	11.84
216.879	-7.25
217.097	-38.04
217.314	-27.9
217.531	-65.23
217.749	9.61
217.966	-17.56
218.183	-41.98
218.4	-43.42
218.618	-60.24
218.835	-89.62
219.052	-81.09
219.269	-69.78
219.487	-66.02
219.704	-90.79
219.921	-139.86
220.138	-223.31
220.355	-314.4
220.572	-159.74
220.79	-79.07
221.007	-66.09
221.224	-97.35
221.441	-99.61
221.658	-91.38
221.875	-54.86
222.092	-67.74
222.309	-28.32
222.526	-45.5
222.743	-59.61
222.96	-71.59
223.177	-106.26
223.394	-178.18
223.611	-79.45
223.828	-88.08
224.045	-64.64
224.262	-130.56
224.479	-122.47
224.696	-100.4
224.913	-70.34
225.13	-57.3
225.347	-24.53
225.564	-5.43
225.781	5.16
225.997	4.98
226.214	-2.19
226.431	-15.21
226.648	-6.78
226.865	1.62
227.082	-10.32
227.298	-1.08
227.515	-1.71
227.732	-5.4
227.949	-16.55
228.165	-14.76
228.382	-17.82
228.599	-18.28
228.816	-29.78
229.032	-26.23
229.249	-34.82
229.466	-9.45
229.682	-22.97
229.899	-32.75
230.116	-32.79
230.332	-40.92
230.549	-42.72
230.765	-16.65
230.982	-8.48
231.199	3.45
231.415	-7.8
231.632	14.4
231.848	-11.97
232.065	-0.05
232.281	13.5
232.498	7.52
232.714	1.62
232.931	-6.05
233.147	-27.57
233.364	-31.15
233.58	-37.3
233.797	-31.73
234.013	-49.7
234.23	-38.88
234.446	-69.95
234.662	-87.66
234.879	-70.83
235.095	-78.06
235.312	-89.73
235.528	-61.02
235.744	-59.62
235.961	-61.45
236.177	-75.36
236.393	-88.5
236.61	-82.51
236.826	-48.31
237.042	-46.17
237.258	-61.02
237.475	-59.49
237.691	-55.4
237.907	-59.87
238.123	-66.91
238.339	-59.45
238.556	-56.34
238.772	-46.56
238.988	-25.14
239.204	-36.12
239.42	-31.42
239.636	-22.46
239.853	-13.29
240.069	-13.88
240.285	-15.22
240.501	-13.56
240.717	-9.46
240.933	-4.8
241.149	-5.57
241.365	-8.86
241.581	-9.76
241.797	-3.89
242.013	-3.12
242.229	-1.57
242.445	2.82
242.661	3.38
242.877	-2.26
243.093	-0.67
243.309	-2.73
243.525	0.49
243.741	-4.77
243.957	-0.73
244.173	-7.21
244.388	-7.57
244.604	-0.17
244.82	-11.19
245.036	-10.99
245.252	-2.29
245.468	1.67
245.683	2.54
245.899	2.34
246.115	5.26
246.331	6.15
246.547	6.26
246.762	4.47
246.978	1.08
247.194	4.33
247.409	3.17
247.625	0.89
247.841	-2.75
248.057	-2.06
248.272	0.91
248.488	1.57
248.703	2.15
248.919	5.12
249.135	8.22
249.35	7.36
249.566	9.56
249.782	7.9
249.997	14.14
250.213	12.4
250.428	11.98
250.644	3.09
250.859	2.39
251.075	-6.69
251.29	-8.16
251.506	-8.32
251.721	-7.72
251.937	-8.63
252.152	-9.24
252.368	-13.49
252.583	-19.99
252.798	-19.65
253.014	-18.39
253.229	-32.17
253.445	-23.27
253.66	-26.69
253.875	-33.38
254.091	-38.87
254.306	-36.87
254.521	-38.05
254.737	-33.42
254.952	-26.97
255.167	-32.82
255.383	-28.18
255.598	-22.93
255.813	-19.13
256.028	-16.52
256.244	-14.1
256.459	-11.05
256.674	-8.74
256.889	-7.84
257.104	-4.57
257.32	2.62
257.535	3.91
257.75	0.62
257.965	3.81
258.18	0.1
258.395	-1.62
258.61	1.77
258.826	2.7
259.041	2.73
259.256	2.6
259.471	0.91
259.686	-4
259.901	-2.35
260.116	-1.44
260.331	-2.05
260.546	1.11
260.761	2.2
260.976	-0.06
261.191	-1.64
261.406	-1.59
261.621	-5.08
261.836	-3.4
262.05	-1.42
262.265	-3.28
262.48	3.45
262.695	5.85
262.91	5.37
263.125	5.01
263.34	6.09
263.555	5.37
263.769	-2.42
263.984	0.7
264.199	-4.38
264.414	-5.63
264.629	-3.27
264.843	-11.94
265.058	-17.04
265.273	-18.68
265.488	-19.17
265.702	-14.99
265.917	-12.77
266.132	-10.8
266.346	-5.54
266.561	-6.98
266.776	-3.32
266.99	-8.4
267.205	-3.35
267.42	-1.64
267.634	-0.21
267.849	0.09
268.063	-1.52
268.278	-0.68
268.492	-1.04
268.707	-0.25
268.922	3.15
269.136	5.41
269.351	13.03
269.565	12.04
269.78	10.05
269.994	8.53
270.209	8.15
270.423	5.56
270.637	3.63
270.852	4.93
271.066	3.65
271.281	1.69
271.495	-0.85
271.709	-7.2
271.924	-10.4
272.138	-8.17
272.353	-13.46
272.567	-15.14
272.781	-15.38
272.996	-15.93
273.21	-14.97
273.424	-14.15
273.638	-8.74
273.853	-9.32
274.067	-8.25
274.281	-5.85
274.495	-11.53
274.71	-2.66
274.924	-2.19
275.138	-0.04
275.352	-1.19
275.566	-2.71
275.781	-5.04
275.995	-9.28
276.209	-13.63
276.423	-13.29
276.637	-13.6
276.851	-8.61
277.065	-13.93
277.279	-14.02
277.493	-12.16
277.707	-6.49
277.921	-5.38
278.135	-4.08
278.349	4.69
278.563	6.89
278.777	6.2
278.991	5.11
279.205	2.93
279.419	4.99
279.633	4.26
279.847	1.21
280.061	-0.87
280.275	-0.75
280.489	-3.9
280.703	-15.01
280.917	-11.4
281.131	-11.07
281.344	-13.21
281.558	-11.46
281.772	-14.2
281.986	-14.34
282.2	-14.32
282.414	-12.83
282.627	-14.02
282.841	-10.56
283.055	-5.39
283.269	-6.68
283.482	-8.97
283.696	-9.71
283.91	-8.46
284.123	-10.07
284.337	-7.76
284.551	-5.13
284.764	-2.1
284.978	-1.41
285.192	-1.62
285.405	-4.46
285.619	-3.53
285.833	0.94
286.046	7.3
286.26	8.12
286.473	10.36
286.687	9.08
286.9	9.5
287.114	5.85
287.327	4.69
287.541	4.56
287.754	6.26
287.968	6.5
288.181	2.33
288.395	-3.38
288.608	-1.75
288.822	-2.64
289.035	-3.21
289.248	-5.63
289.462	-4.3
289.675	-0.82
289.889	-0.95
290.102	0.88
290.315	-0.79
290.529	0.12
290.742	0.83
290.955	-2.71
291.169	1.2
291.382	1.99
291.595	5.38
291.808	4.96
292.022	2.32
292.235	3.02
292.448	2.09
292.661	1.56
292.875	-1.04
293.088	0.71
293.301	-0.76
293.514	-4.67
293.727	-5.27
293.94	-8.76
294.153	-7.69
294.367	-10.25
294.58	-8.84
294.793	-12.64
295.006	-13.02
295.219	-8.86
295.432	-10.07
295.645	-7.73
295.858	-6.3
296.071	-6
296.284	-3.8
296.497	-2.64
296.71	-0.93
296.923	-3.61
297.136	-1.53
297.349	-1.05
297.562	0.7
297.775	1.45
297.988	-0.49
298.201	-1.24
298.414	0.39
298.626	0.63
298.839	-0.6
299.052	0.9
299.265	2.48
299.478	4.33
299.691	3.05
299.903	0.67
300.116	2.43
300.329	5.51
300.542	5.8
300.755	4.03
300.967	1.49
301.18	0.06
301.393	0.43
301.605	3.47
301.818	3.1
302.031	5.16
302.243	5.35
302.456	3.07
302.669	4.34
302.881	-0.64
303.094	-0.41
303.307	-0.06
303.519	2.78
303.732	1.18
303.944	-2.23
304.157	-7.76
304.37	-6.98
304.582	-6.14
304.795	-6.08
305.007	-6.86
305.22	-1.05
305.432	-1.47
305.645	-2.32
305.857	-4.97
306.069	-4.31
306.282	-3.16
306.494	2.78
306.707	4.08
306.919	3.97
307.132	1.85
307.344	-0.53
307.556	-3.99
307.769	-4.31
307.981	-2.45
308.193	-1.27
308.406	-2.08
308.618	-1.05
308.83	-0.9
309.043	-2.17
309.255	-2.9
309.467	-3.82
309.679	-2.11
309.892	-0.05
310.104	-0.05
310.316	-1.89
310.528	-2.87
310.74	-3.17
310.953	-5.43
311.165	-8.06
311.377	-8.51
311.589	-7.88
311.801	-6.21
312.013	-8.77
312.225	-9.67
312.437	-11.77
312.649	-12.44
312.862	-10.43
313.074	-9.63
313.286	-7.84
313.498	-4.35
313.71	-4.97
313.922	-5.71
314.134	-6.69
314.346	-5.49
314.558	-4.25
314.77	0.65
314.982	1.21
315.193	-3.23
315.405	-6.61
315.617	-4.83
315.829	-7.97
316.041	-7.66
316.253	-7.24
316.465	-5.27
316.677	-5.55
316.888	-6.23
317.1	-3.02
317.312	-1.58
317.524	1.18
317.736	0.85
317.947	-6.28
318.159	-5.3
318.371	0.24
318.583	3.54
318.794	2.91
319.006	3.41
319.218	5.34
319.43	0.5
319.641	-0.18
319.853	0.91
320.064	4.79
320.276	9.8
320.488	8.09
320.699	3.45
320.911	-0.59
321.123	-3.3
321.334	-6.87
321.546	-9.32
321.757	-4.87
321.969	-2.03
322.18	-4.55
322.392	-5.21
322.603	-5.31
322.815	-4.12
323.026	-3.89
323.238	-4.26
323.449	-0.73
323.661	2.61
323.872	3.27
324.083	-0.78
324.295	0.49
324.506	2.91
324.718	3
324.929	5.62
325.14	7.89
325.352	5.12
325.563	4.88
325.774	3.95
325.986	3.4
326.197	1.71
326.408	5.54
326.62	2.47
326.831	-0.84
327.042	-0.7
327.253	-2.4
327.464	-2.14
327.676	2.68
327.887	4.75
328.098	4.25
328.309	5.68
328.52	8
328.732	7.71
328.943	7.41
329.154	11.6
329.365	11.65
329.576	12.65
329.787	12.95
329.998	10
330.209	9.06
330.42	9.93
330.631	7.49
330.842	10.56
331.053	8.55
331.264	10.17
331.475	8.35
331.686	8.44
331.897	8.86
332.108	6.39
332.319	10.08
332.53	9.92
332.741	11.8
332.952	13.64
333.163	11.55
333.374	12.76
333.585	13.66
333.795	11.84
334.006	12.86
334.217	13.79
334.428	15.38
334.639	14.07
334.849	16.42
335.06	18.79
335.271	18.83
335.482	20.43
335.692	20.32
335.903	19.15
336.114	21.37
336.325	19.97
336.535	18.67
336.746	17.35
336.957	17.44
337.167	16.11
337.378	10.66
337.589	11.14
337.799	10.39
338.01	7.94
338.22	8.96
338.431	9.31
338.642	8.64
338.852	7.95
339.063	7.6
339.273	6.59
339.484	6.77
339.694	8.94
339.905	8.59
340.115	4.73
340.326	7.86
340.536	7.18
340.746	6.59
340.957	7.45
341.167	7.19
341.378	7.79
341.588	8.31
341.799	6.47
342.009	5.46
342.219	5.39
342.43	9.26
342.64	9.71
342.85	10.89
343.061	10.04
343.271	10.68
343.481	11.17
343.691	10.69
343.902	10.06
344.112	11
344.322	13.81
344.532	13.23
344.743	11.85
344.953	9.72
345.163	9.7
345.373	12.2
345.583	12.79
345.793	12.14
346.004	13.79
346.214	14.42
346.424	17.09
346.634	17.55
346.844	19.31
347.054	21.26
347.264	22.58
347.474	22.23
347.684	22.47
347.894	21.42
348.104	21.89
348.314	19.47
348.524	19.12
348.734	18.66
348.944	18.16
349.154	16.41
349.364	14.85
349.574	16.18
349.784	17.66
349.994	17.28
350.204	18.06
350.413	17.76
350.623	19.03
350.833	19.99
351.043	18.97
351.253	17.35
351.463	17.82
351.672	16.66
351.882	14.9
352.092	12.68
352.302	12.15
352.511	11.2
352.721	10.49
352.931	10.96
353.141	10.96
353.35	10.46
353.56	11.19
353.77	11.06
353.979	13.11
354.189	12.5
354.399	12.93
354.608	10.74
354.818	10.68
355.027	12.09
355.237	11.5
355.447	10.32
355.656	10.37
355.866	8.95
356.075	7.7
356.285	6.37
356.494	7.12
356.704	5.8
356.913	6.54
357.123	7.1
357.332	7.41
357.542	7.81
357.751	8.82
357.96	8.79
358.17	9.86
358.379	11.91
358.589	12.29
358.798	12.27
359.007	13.85
359.217	15.31
359.426	16.44
359.635	16.03
359.845	16.86
360.054	15.57
360.263	15.41
360.472	14.6
360.682	13.56
360.891	14.49
361.1	14.37
361.309	14.85
361.519	13.99
361.728	12.54
361.937	12.47
362.146	11.32
362.355	12.89
362.564	13.59
362.774	14.35
362.983	15.22
363.192	14.64
363.401	14.73
363.61	14.45
363.819	14.17
364.028	14.66
364.237	14.88
364.446	15.47
364.655	13.95
364.864	14.3
365.073	14.68
365.282	14.01
365.491	13.24
365.7	14.9
365.909	14.89
366.118	15.05
366.327	15.44
366.536	16.15
366.745	16.89
366.954	16.17
367.162	13.75
367.371	13.54
367.58	12.36
367.789	14.38
367.998	11.8
368.207	12
368.415	11.84
368.624	11.62
368.833	10.98
369.042	10.37
369.25	12.73
369.459	15.23
369.668	15.28
369.877	16.05
370.085	15.7
370.294	16.53
370.503	15.52
370.711	16.33
370.92	15.49
371.129	15.41
371.337	14.92
371.546	14.52
371.754	12.42
371.963	10.62
372.171	11.67
372.38	10.39
372.589	8.86
372.797	9.67
373.006	7.79
373.214	7.83
373.423	7.87
373.631	8.83
373.84	9.36
374.048	10.67
374.256	11.72
374.465	10
374.673	9.59
374.882	10.18
375.09	10.27
375.298	11.65
375.507	13.73
375.715	13.29
375.923	13.62
376.132	12.14
376.34	12.96
376.548	13.01
376.757	13.55
376.965	14.74
377.173	15.28
377.381	14.6
377.59	14
377.798	12.03
378.006	12.06
378.214	9.89
378.423	11.63
378.631	10.91
378.839	9.7
379.047	10.73
379.255	10.21
379.463	11.99
379.671	11.89
379.879	13.23
380.088	13.92
380.296	15.26
380.504	17.21
380.712	15.7
380.92	15.79
381.128	17.33
381.336	16.95
381.544	16.35
381.752	15.15
381.96	15.93
382.168	15.15
382.376	14.71
382.584	13.38
382.791	12.22
382.999	12.22
383.207	11.5
383.415	11.75
383.623	11.46
383.831	11.33
384.039	10.18
384.247	9.36
384.454	10.23
384.662	11.3
384.87	12.33
385.078	12.62
385.285	13.49
385.493	13.25
385.701	13.94
385.909	12.88
386.116	13.7
386.324	15.04
386.532	15.32
386.739	14.84
386.947	13.45
387.155	12.31
387.362	11.64
387.57	11.12
387.778	11.09
387.985	10.38
388.193	10.56
388.4	10.73
388.608	10.11
388.816	9.97
389.023	10.85
389.231	11.37
389.438	11.9
389.646	11.87
389.853	12.23
390.061	11.99
390.268	10.14
390.475	10.97
390.683	10.47
390.89	10.82
391.098	11.65
391.305	10.87
391.512	10.83
391.72	10.7
391.927	12.27
392.135	11.76
392.342	13.95
392.549	14.95
392.756	15.32
392.964	16.07
393.171	15.67
393.378	15.54
393.586	15.54
393.793	15.73
394	15.47
394.207	13.7
394.414	13.99
394.622	12.45
394.829	12.33
395.036	11.67
395.243	10.53
395.45	10.76
395.657	10.18
395.864	9.66
396.072	9.23
396.279	10.14
396.486	10.49
396.693	10.34
396.9	10.97
397.107	11.02
397.314	11.88
397.521	13.16
397.728	12.71
397.935	11.86
398.142	12.18
398.349	12.54
398.556	12.38
398.763	13.25
398.97	13.32
399.177	13.94
399.383	14.77
399.59	14.93
399.797	13.55
400.004	14.37
400.211	15.2
400.418	15.63
400.625	15.21
400.831	14.92
401.038	14.47
401.245	13.81
401.452	12.57
401.658	12.51
401.865	12.23
402.072	11.79
402.279	9.86
402.485	9.54
402.692	8.76
402.899	8.34
403.105	8.25
403.312	9.52
403.519	10.15
403.725	10.01
403.932	9.65
404.138	8.98
404.345	10.46
404.552	12.35
404.758	12.59
404.965	12.73
405.171	13.76
405.378	13.56
405.584	11.71
405.791	12.18
405.997	12.09
406.204	11.87
406.41	11.43
406.617	11.75
406.823	10.34
407.029	10.29
407.236	10.61
407.442	9.72
407.649	9.63
407.855	10.2
408.061	9.56
408.268	10.57
408.474	11.46
408.68	12.17
408.887	11.61
409.093	12.57
409.299	11.61
409.505	12.12
409.712	12.45
409.918	12.51
410.124	12.52
410.33	12.49
410.537	11.84
410.743	11.11
410.949	11.23
411.155	11.33
411.361	11.48
411.567	12.91
411.773	12.84
411.98	12.81
412.186	12.52
412.392	13.36
412.598	12.92
412.804	13.45
413.01	13.56
413.216	13.47
413.422	13.08
413.628	12.87
413.834	12.28
414.04	12.1
414.246	13.16
414.452	13.95
414.658	13.62
414.864	14.55
415.07	14.54
415.275	14.81
415.481	15.1
415.687	14.7
415.893	14.63
416.099	15.1
416.305	14.95
416.511	14.48
416.716	14.14
416.922	14.16
417.128	13.65
417.334	13.39
417.539	13.31
417.745	13.24
417.951	14
418.157	14.19
418.362	13.67
418.568	13.75
418.774	13.48
418.979	13.12
419.185	12.93
419.391	13.12
419.596	13.05
419.802	13.01
420.008	13
420.213	8.05
420.419	8.03
420.624	8.49
420.83	8.97
421.035	8.95
421.241	9.38
421.446	9.79
421.652	9.49
421.857	9.72
422.063	9.56
422.268	9.25
422.474	13.09
422.679	13.23
422.885	13.17
423.09	12.81
423.295	13.38
423.501	12.85
423.706	12.42
423.911	12.85
424.117	12.83
424.322	12.83
424.527	13.22
424.733	13.86
424.938	13.45
425.143	12.82
425.349	12.55
425.554	11.98
425.759	13.25
425.964	13.26
426.169	13.29
426.375	13.01
426.58	13.32
426.785	13.4
426.99	13.11
427.195	13.02
427.4	13.89
427.605	13.59
427.811	13.85
428.016	12.77
428.221	13.01
428.426	12.28
428.631	11.95
428.836	11.82
429.041	11.32
429.246	11.34
429.451	11.48
429.656	11.6
429.861	11.72
430.066	12.13
430.271	12.38
430.476	12.15
430.681	12.95
430.886	13.32
431.09	13.31
431.295	13.84
431.5	14.09
431.705	14.17
431.91	13.64
432.115	14.53
432.32	13.75
432.524	13.45
432.729	13.13
432.934	12.58
433.139	12.92
433.343	12.78
433.548	12.58
433.753	12.22
433.958	12.97
434.162	13.19
434.367	12.92
434.572	13.15
434.776	13.22
434.981	13.54
435.186	14.39
435.39	14.16
435.595	14.03
435.799	14.19
436.004	13.75
436.209	13.44
436.413	13.16
436.618	12.93
436.822	13.22
437.027	13.06
437.231	13.19
437.436	12.56
437.64	12.17
437.845	12.28
438.049	11.9
438.253	12.53
438.458	11.59
438.662	11.82
438.867	11.85
439.071	11.77
439.275	11.95
439.48	11.69
439.684	11.58
439.888	11.88
440.093	12.25
440.297	12.58
440.501	12.88
440.706	12.95
440.91	12.51
441.114	12.1
441.318	11.99
441.523	11.77
441.727	12.04
441.931	12.2
442.135	12.33
442.339	11.76
442.543	11.51
442.748	10.84
442.952	11.37
443.156	11.88
443.36	12.24
443.564	12.28
443.768	12.98
443.972	12.49
444.176	12.92
444.38	12.97
444.584	13.49
444.788	13.88
444.992	14.1
445.196	13.84
445.4	13.73
445.604	14.13
445.808	14.09
446.012	14.04
446.216	14.54
446.42	14.07
446.624	13.83
446.828	13.1
447.032	12.27
447.235	12.69
447.439	12.7
447.643	12.67
447.847	11.95
448.051	11.92
448.254	11.44
448.458	11.55
448.662	11.89
448.866	12.25
449.069	12.66
449.273	12.97
449.477	12.59
449.681	12.59
449.884	12.47
450.088	12.43
450.292	12.94
450.495	13.38
450.699	12.65
450.902	13.08
451.106	12.93
451.31	12.97
451.513	12.81
451.717	12.89
451.92	13.09
452.124	13.58
452.327	14.23
452.531	13.75
452.734	13.38
452.938	13.73
453.141	13.07
453.345	13.35
453.548	13.34
453.752	13.56
453.955	12.91
454.158	13.22
454.362	12.43
454.565	12.51
454.769	12.31
454.972	11.91
455.175	11.6
455.379	11.77
455.582	10.94
455.785	10.56
455.988	10.42
456.192	10.8
456.395	11.05
456.598	11.85
456.801	11.67
457.005	11.39
457.208	12
457.411	12.62
457.614	12.63
457.817	12.77
458.021	12.99
458.224	13.28
458.427	14.06
458.63	13.26
458.833	13.22
459.036	12.9
459.239	12.98
459.442	12.54
459.645	12.7
459.848	12.72
460.051	13.03
460.254	13.26
460.457	13.22
460.66	12.38
460.863	13.18
461.066	12.93
461.269	12.9
461.472	13.33
461.675	13.62
461.878	13.43
462.081	13.83
462.284	13.24
462.486	13.45
462.689	13.6
462.892	13.91
463.095	13.29
463.298	13.23
463.5	13.42
463.703	13.25
463.906	13.44
464.109	13.03
464.311	12.68
464.514	12.78
464.717	12.57
464.92	12.75
465.122	12.61
465.325	12.63
465.528	12.93
465.73	12.96
465.933	12.97
466.135	12.75
466.338	13.19
466.541	13.07
466.743	13.74
466.946	13.8
467.148	13.56
467.351	13.4
467.553	13.2
467.756	12.88
467.958	13.28
468.161	13.51
468.363	13.85
468.566	12.72
468.768	12.64
468.971	11.92
469.173	12.38
469.375	12.78
469.578	12.37
469.78	12.29
469.983	12.42
470.185	11.53
470.387	11.37
470.59	11.24
470.792	11.56
470.994	11.53
471.196	11.62
471.399	10.87
471.601	10.35
471.803	11.13
472.005	11.02
472.208	11.18
472.41	11.74
472.612	11.36
472.814	11.15
473.016	11.34
473.218	11.76
473.421	11.96
473.623	12.17
473.825	12.51
474.027	12.59
474.229	13.48
474.431	13.28
474.633	13.66
474.835	14.51
475.037	15
475.239	14.89
475.441	14.97
475.643	14.72
475.845	14.55
476.047	14.84
476.249	14.51
476.451	15.01
476.653	15.28
476.855	14.75
477.057	14.66
477.258	14.73
477.46	15.32
477.662	15.28
477.864	15.63
478.066	16.09
478.268	15.74
478.469	15.85
478.671	15.49
478.873	15.6
479.075	15.96
479.276	15.87
479.478	15.71
479.68	14.89
479.882	14.92
480.083	15.19
480.285	14.73
480.487	14.43
480.688	14.04
480.89	13.67
481.091	13.44
481.293	13.35
481.495	13.29
481.696	13.33
481.898	13.81
482.099	13.76
482.301	13.53
482.502	13.75
482.704	13.86
482.905	14.07
483.107	14.06
483.308	13.96
483.51	14
483.711	13.98
483.913	13.96
484.114	13.88
484.315	13.78
484.517	13.95
484.718	13.83
484.92	14.01
485.121	13.94
485.322	13.85
485.524	14.15
485.725	14.06
485.926	14.05
486.127	14.26
486.329	14.39
486.53	14.42
486.731	14.19
486.932	14.25
487.134	14.07
487.335	14.12
487.536	14.3
487.737	14.29
487.938	14.45
488.139	14.33
488.341	14.28
488.542	14.11
488.743	14.08
488.944	13.95
489.145	14.09
489.346	13.96
489.547	13.94
489.748	13.97
489.949	13.96
490.15	13.94
490.351	14.18
490.552	14.13
490.753	14.29
490.954	14.36
491.155	14.71
491.356	14.62
491.557	14.66
491.758	14.57
491.959	14.66
492.159	14.54
492.36	14.46
492.561	14.35
492.762	14.23
492.963	13.84
493.164	13.96
493.364	13.54
493.565	13.57
493.766	13.61
493.967	13.76
494.167	13.26
494.368	13.21
494.569	13.18
494.769	12.97
494.97	12.69
495.171	13
495.371	12.74
495.572	12.63
495.773	12.64
495.973	12.71
496.174	12.44
496.375	12.81
496.575	13.06
496.776	13.23
496.976	13.44
497.177	13.93
497.377	13.72
497.578	13.72
497.778	13.98
497.979	13.67
498.179	13.88
498.38	14.17
498.58	13.78
498.78	13.74
498.981	13.54
499.181	13.74
499.382	13.81
499.582	14.21
499.782	13.99
499.983	14.1
500.183	14.56
500.383	14.59
500.584	14.88
500.784	15.24
500.984	15.29
501.184	15.54
501.385	15.21
501.585	14.75
501.785	14.82
501.985	15.25
502.185	14.89
502.386	15.04
502.586	15.11
502.786	15.07
502.986	15.31
503.186	15.15
503.386	15.01
503.586	15.5
503.786	15.73
503.987	15.72
504.187	15.72
504.387	16.33
504.587	15.93
504.787	16.07
504.987	16.06
505.187	16.11
505.387	16.21
505.587	16.16
505.786	15.96
505.986	15.91
506.186	15.33
506.386	15.49
506.586	15.53
506.786	15.76
506.986	15.82
507.186	15.9
507.386	15.73
507.585	15.74
507.785	16.24
507.985	16.63
508.185	16.63
508.384	16.89
508.584	16.66
508.784	16.27
508.984	16.23
509.183	15.9
509.383	15.67
509.583	15.62
509.782	16.1
509.982	15.69
510.182	15.62
510.381	15.56
510.581	15.65
510.781	15.81
510.98	16.38
511.18	16.65
511.379	16.91
511.579	17.25
511.778	17.58
511.978	17.12
512.177	17.33
512.377	17.14
512.576	17.25
512.776	17.46
512.975	17.99
513.175	17.67
513.374	17.57
513.573	17.17
513.773	16.69
513.972	16.56
514.172	16.66
514.371	16.82
514.57	16.99
514.77	17.1
514.969	17.36
515.168	16.96
515.367	17.37
515.567	17.43
515.766	18.07
515.965	18.22
516.164	18.11
516.364	18.35
516.563	18.37
516.762	18.67
516.961	19.15
517.16	19.21
517.359	19.48
517.559	19.31
517.758	19.39
517.957	19.45
518.156	19.77
518.355	20.02
518.554	20.09
518.753	20.16
518.952	20.07
519.151	20.12
519.35	19.87
519.549	19.7
519.748	20.01
519.947	19.72
520.146	19.78
520.345	19.62
520.544	19.94
520.743	20.11
520.942	20.5
521.141	20.18
521.339	20
521.538	20.67
521.737	20.44
521.936	20.62
522.135	21.12
522.333	21.03
522.532	21.59
522.731	21.54
522.93	21.29
523.129	21.18
523.327	21.4
523.526	21.75
523.725	21.61
523.923	22.02
524.122	21.64
524.321	21.76
524.519	21.95
524.718	21.73
524.917	21.37
525.115	21.47
525.314	21.36
525.512	21.44
525.711	21.4
525.909	21.6
526.108	21.94
526.306	22.06
526.505	22.22
526.703	21.94
526.902	22.12
527.1	22.37
527.299	22.38
527.497	22.48
527.696	22.66
527.894	22.56
528.092	22.49
528.291	22.32
528.489	22.41
528.688	22.45
528.886	22.7
529.084	22.54
529.283	22.79
529.481	22.89
529.679	22.99
529.877	22.99
530.076	23.13
530.274	23.12
530.472	23.16
530.67	23.04
530.869	22.92
531.067	22.86
531.265	23.01
531.463	22.71
531.661	22.74
531.859	22.92
532.057	23
532.255	23.16
532.454	23.34
532.652	23.47
532.85	23.64
533.048	23.86
533.246	24
533.444	23.96
533.642	23.9
533.84	24.14
534.038	23.95
534.236	24.13
534.434	23.96
534.632	23.86
534.83	24.26
535.027	24.58
535.225	24.51
535.423	24.4
535.621	24.9
535.819	25.47
536.017	25.5
536.215	25.58
536.412	25.38
536.61	25.53
536.808	25.52
537.006	25.32
537.203	25.1
537.401	24.84
537.599	25.12
537.797	25.05
537.994	24.81
538.192	24.57
538.39	24.42
538.587	24.45
538.785	24.32
538.983	24.47
539.18	24.58
539.378	24.77
539.575	24.92
539.773	24.92
539.97	24.82
540.168	24.8
540.366	24.92
540.563	25.1
540.761	25.02
540.958	25.1
541.155	25.1
541.353	25.02
541.55	24.96
541.748	25.09
541.945	25.13
542.143	25.32
542.34	25.35
542.537	25.21
542.735	25.33
542.932	25.44
543.129	25.59
543.327	25.83
543.524	25.7
543.721	25.69
543.919	25.71
544.116	25.26
544.313	25.04
544.51	25.27
544.708	25.57
544.905	25.63
545.102	25.89
545.299	25.72
545.496	25.41
545.693	25.31
545.891	25.5
546.088	25.53
546.285	26.02
546.482	25.87
546.679	25.92
546.876	25.88
547.073	25.91
547.27	25.68
547.467	25.8
547.664	26.47
547.861	26.79
548.058	26.78
548.255	26.68
548.452	26.42
548.649	26.92
548.846	26.7
549.043	26.37
549.24	26.09
549.437	26.67
549.633	26.85
549.83	26.62
550.027	26.78
550.224	26.56
550.421	27.05
550.618	27.59
550.814	27.12
551.011	27.1
551.208	27.73
551.405	27.9
551.601	27.41
551.798	27.53
551.995	27.05
552.191	26.6
552.388	26.52
552.585	25.96
552.781	25.88
552.978	26.25
553.175	26.11
553.371	26.31
553.568	26.36
553.764	26.27
553.961	26
554.157	26.18
554.354	26.77
554.55	27.49
554.747	28.25
554.943	28.09
555.14	28.2
555.336	28.32
555.533	27.78
555.729	27.48
555.926	27.54
556.122	27.83
556.318	28.62
556.515	28.66
556.711	28.29
556.907	28.03
557.104	28.79
557.3	28.58
557.496	29.32
557.693	29.92
557.889	30.54
558.085	31.68
558.281	31.17
558.478	30.32
558.674	30.4
558.87	30.51
559.066	30.51
559.262	29.89
559.459	29.85
559.655	30.23
559.851	30.04
560.047	29.64
560.243	29.1
560.439	29.48
560.635	30.09
560.831	29.9
561.027	29.65
561.223	29.74
561.419	29.78
561.615	30.28
561.811	28.89
562.007	28.72
562.203	29.41
562.399	28.78
562.595	28.96
562.791	28.77
562.987	29.32
563.183	30.2
563.379	30.26
563.575	30.44
563.771	29.94
563.966	30.76
564.162	31.14
564.358	30.92
564.554	32.09
564.75	31.95
564.945	32.51
565.141	32.43
565.337	32.08
565.533	31.77
565.728	31.98
565.924	32.65
566.12	32.37
566.315	32.45
566.511	32.51
566.707	32.08
566.902	32.4
567.098	31.84
567.293	31.54
567.489	31.81
567.684	32.48
567.88	31.78
568.076	31.28
568.271	31.7
568.467	31.86
568.662	31.95
568.858	31.99
569.053	32.05
569.248	32.57
569.444	33.08
569.639	33.2
569.835	32.87
570.03	33.23
570.225	33.16
570.421	32.98
570.616	32.79
570.812	32.4
571.007	32.71
571.202	32.31
571.397	32.16
571.593	31.74
571.788	31.98
571.983	32.13
572.178	32.72
572.374	33.18
572.569	33.29
572.764	33.61
572.959	34.24
573.154	34.1
573.35	34.87
573.545	34.81
573.74	35.47
573.935	34.81
574.13	34.81
574.325	34.19
574.52	34.12
574.715	34.01
574.91	34.39
575.105	33.99
575.3	33.77
575.495	33.69
575.69	33.85
575.885	33.49
576.08	33.67
576.275	33.95
576.47	35
576.665	35.13
576.86	35.47
577.055	34.84
577.25	35.47
577.444	35.83
577.639	35.26
577.834	35.07
578.029	35.45
578.224	35.8
578.418	36.51
578.613	35.65
578.808	36.19
579.003	35.87
579.197	36.53
579.392	36.95
579.587	37.29
579.781	37.93
579.976	37.65
580.171	37.84
580.365	37.41
580.56	37.19
580.755	37.44
580.949	37.01
581.144	37.72
581.338	37.46
581.533	36.67
581.727	36.2
581.922	36.29
582.116	36.38
582.311	36.25
582.505	36.19
582.7	35.74
582.894	35.52
583.089	35.83
583.283	35.04
583.478	34.22
583.672	34.09
583.866	34.37
584.061	34.17
584.255	35.32
584.449	35.19
584.644	35.05
584.838	35.44
585.032	35.71
585.226	35.35
585.421	35.68
585.615	36.48
585.809	36.78
586.003	36.66
586.198	36.51
586.392	36.4
586.586	36.79
586.78	38.15
586.974	37.19
587.168	37.57
587.363	37.81
587.557	38.31
587.751	38.05
587.945	38.18
588.139	38
588.333	37.75
588.527	37.5
588.721	37.09
588.915	36.72
589.109	37.19
589.303	36.5
589.497	36.31
589.691	36.15
589.885	35.93
590.079	36.63
590.273	37.19
590.466	38.21
590.66	37.86
590.854	37.89
591.048	37.69
591.242	37.79
591.436	38.69
591.629	39.06
591.823	38.83
592.017	39.13
592.211	38.44
592.404	38.42
592.598	38.1
592.792	38.44
592.986	38.95
593.179	38.87
593.373	39.84
593.567	39.25
593.76	39.36
593.954	39.43
594.147	39.48
594.341	39.91
594.535	40.1
594.728	39.57
594.922	39.86
595.115	39.8
595.309	40.07
595.502	39.28
595.696	39.46
595.889	39.97
596.083	40.3
596.276	40.81
596.47	40.75
596.663	40.85
596.856	41.62
597.05	41.33
597.243	41.09
597.437	41.08
597.63	41.04
597.823	40.68
598.017	40.72
598.21	40.71
598.403	40.81
598.596	40.09
598.79	40.5
598.983	40.56
599.176	40.81
599.369	40.93
599.563	40.82
599.756	40.95
599.949	41.72
600.142	40.58
600.335	40.49
600.528	39.76
600.722	40.25
600.915	39.81
601.108	39.61
601.301	40.24
601.494	41.07
601.687	40.66
601.88	41.1
602.073	40.78
602.266	41.36
602.459	41.76
602.652	42.03
602.845	42.14
603.038	42.3
603.231	42.2
603.424	41.19
603.617	40.34
603.809	40.93
604.002	40.46
604.195	40.9
604.388	40.81
604.581	40.58
604.774	40.45
604.966	40.06
605.159	39.86
605.352	40.19
605.545	40.26
605.737	40.47
605.93	40.37
606.123	40.56
606.316	41.29
606.508	41.34
606.701	40.92
606.894	41.74
607.086	42
607.279	41.08
607.471	41.48
607.664	42.25
607.857	41.72
608.049	41.36
608.242	41.01
608.434	40.55
608.627	40.33
608.819	40.74
609.012	41
609.204	40.86
609.397	41.06
609.589	40.22
609.782	40.4
609.974	40.85
610.166	41.22
610.359	41.55
610.551	41.04
610.743	41.52
610.936	41.86
611.128	40.65
611.32	40.8
611.513	41.88
611.705	41.58
611.897	42.03
612.09	42.17
612.282	42.34
612.474	42.8
612.666	42.83
612.858	41.66
613.051	40.2
613.243	40.41
613.435	40.03
613.627	39.16
613.819	39.76
614.011	38.59
614.203	38.83
614.395	38.82
614.588	38.66
614.78	38.74
614.972	39.83
615.164	40.38
615.356	41.01
615.548	42.25
615.74	42.57
615.932	42.55
616.124	43
616.315	42.81
616.507	42.55
616.699	42.14
616.891	42.14
617.083	41.91
617.275	42.31
617.467	42.07
617.659	41.44
617.85	41.11
618.042	39.79
618.234	39.77
618.426	39.96
618.618	40.3
618.809	40.05
619.001	40.09
619.193	39.75
619.384	39.98
619.576	39.83
619.768	40.14
619.959	39.56
620.151	41.39
620.343	41.36
620.534	41.6
620.726	40.81
620.917	41.31
621.109	41.72
621.301	41.65
621.492	41.31
621.684	41.4
621.875	40.19
622.067	40.46
622.258	40.47
622.45	39.82
622.641	39.83
622.832	39.34
623.024	38.36
623.215	37.23
623.407	37.72
623.598	38.04
623.789	37.01
623.981	37.77
624.172	38.93
624.363	38.45
624.555	38.61
624.746	38.25
624.937	40
625.129	41.06
625.32	41.36
625.511	41.54
625.702	42.01
625.893	41.95
626.085	42.45
626.276	41.52
626.467	41.62
626.658	42.23
626.849	41.89
627.04	41
627.231	41.16
627.422	41.71
627.614	41.64
627.805	41.33
627.996	41.85
628.187	42.69
628.378	43.73
628.569	43.5
628.76	43.2
628.951	43.88
629.142	44.65
629.332	44.2
629.523	43.74
629.714	43.65
629.905	43.79
630.096	44.76
630.287	43.7
630.478	43.22
630.669	42.42
630.859	42.19
631.05	42.39
631.241	42.32
631.432	42.27
631.623	42.08
631.813	42.47
632.004	42.44
632.195	42.24
632.385	42.4
632.576	41.69
632.767	43.05
632.957	44.2
633.148	44.12
633.339	43.48
633.529	43.79
633.72	44.14
633.91	43.68
634.101	43.4
634.292	43.11
634.482	43.05
634.673	43.6
634.863	43.39
635.054	42.25
635.244	42.15
635.435	42.79
635.625	42.9
635.815	43.7
636.006	43.56
636.196	43.5
636.387	43.24
636.577	43.16
636.767	43.17
636.958	43.25
637.148	43.92
637.338	43.69
637.529	43.51
637.719	42.82
637.909	42.35
638.099	42.48
638.29	42.72
638.48	42.34
638.67	42.42
638.86	42.44
639.05	41.97
639.241	40.89
639.431	41.07
639.621	40.85
639.811	41
640.001	40.16
640.191	40.85
640.381	40.21
640.571	40.85
640.761	40.19
640.951	39.76
641.141	40.91
641.331	41.43
641.521	40.23
641.711	40.32
641.901	40.68
642.091	40.23
642.281	39.72
642.471	39.9
642.661	39.52
642.851	41.51
643.041	42.02
643.231	40.66
643.42	41.59
643.61	41.9
643.8	41.87
643.99	41.43
644.18	43.4
644.369	42.85
644.559	43.3
644.749	43.23
644.939	41.89
645.128	41.77
645.318	42.65
645.508	42.4
645.697	43.47
645.887	43.25
646.076	43.82
646.266	42.62
646.456	43.78
646.645	44.46
646.835	45.31
647.024	45.3
647.214	44.86
647.403	43.81
647.593	43.05
647.782	41.98
647.972	42.22
648.161	41.96
648.351	42.78
648.54	42.38
648.73	40.82
648.919	41.05
649.108	40.72
649.298	41.35
649.487	41.86
649.677	42.56
649.866	43.87
650.055	44.43
650.244	44.39
650.434	43.86
650.623	44.16
650.812	44.69
651.002	44.62
651.191	44.77
651.38	44.81
651.569	43.57
651.758	43.36
651.947	42.99
652.137	43.13
652.326	43.42
652.515	43.46
652.704	42.46
652.893	42.92
653.082	42.87
653.271	42.29
653.46	41.39
653.649	43.69
653.838	44.17
654.027	44.36
654.216	43.21
654.405	43.95
654.594	43.59
654.783	45.17
654.972	44.99
655.161	44.25
655.35	44.41
655.539	46.58
655.728	44.16
655.916	43.59
656.105	43.45
656.294	43.81
656.483	43.24
656.672	44.14
656.86	43.55
657.049	42.81
657.238	43.04
657.427	44.4
657.615	43.39
657.804	44.57
657.993	45.1
658.181	44.54
658.37	44.75
658.559	45.35
658.747	45.14
658.936	43.96
659.125	46.16
659.313	45.69
659.502	44.96
659.69	45.59
659.879	45.41
660.067	45.05
660.256	46.23
660.444	46.32
660.633	45.96
660.821	45.5
661.01	46.41
661.198	43.92
661.387	45.47
661.575	45.78
661.763	44.54
661.952	45.24
662.14	45.26
662.328	43.71
662.517	43.59
662.705	43.39
662.893	43.8
663.082	44.34
663.27	45.24
663.458	44.68
663.646	43.79
663.834	44.54
664.023	43.34
664.211	42.54
664.399	43.06
664.587	43.69
664.775	44.51
664.963	45.98
665.152	44.64
665.34	45.42
665.528	44.69
665.716	45.37
665.904	45.34
666.092	46.99
666.28	47.46
666.468	47.42
666.656	46.77
666.844	46.39
667.032	44.05
667.22	45.12
667.408	43.24
667.596	43.45
667.784	44.49
667.971	43.18
668.159	42.01
668.347	42.86
668.535	43.24
668.723	43.34
668.911	43.52
669.098	44
669.286	43.71
669.474	45.35
669.662	45.39
669.849	43.14
670.037	42.86
670.225	43.2
670.413	43.63
670.6	43.27
670.788	43.92
670.976	43.32
671.163	43.79
671.351	44.17
671.538	44.88
671.726	45.25
671.913	45.39
672.101	46.95
672.289	48.39
672.476	47.3
672.664	47.27
672.851	46.04
673.039	45.31
673.226	45.4
673.413	46.18
673.601	44.69
673.788	44.43
673.976	45.14
674.163	44.57
674.35	42.69
674.538	42.15
674.725	42.12
674.912	42.55
675.1	42.71
675.287	42.31
675.474	40.41
675.662	40.76
675.849	39.71
676.036	39.98
676.223	39.62
676.411	40.8
676.598	40.76
676.785	40.23
676.972	39.77
677.159	40.84
677.346	41.23
677.533	42.56
677.721	42.92
677.908	44.28
678.095	45.75
678.282	47.4
678.469	46.73
678.656	46.66
678.843	48.31
679.03	49.28
679.217	48.78
679.404	48.63
679.591	47.78
679.778	47.23
679.964	46.87
680.151	46.56
680.338	46.43
680.525	45.45
680.712	45.8
680.899	45.47
681.086	44.42
681.272	43.26
681.459	42.68
681.646	44.13
681.833	43.74
682.02	43.3
682.206	42.56
682.393	41.36
682.58	42.18
682.766	42.05
682.953	41.14
683.14	41.81
683.326	42.81
683.513	42.97
683.7	42.24
683.886	43.03
684.073	41.95
684.259	41.61
684.446	42.49
684.632	43.61
684.819	43.09
685.005	43.48
685.192	43.15
685.378	43.9
685.565	44.19
685.751	43.86
685.938	42.6
686.124	44.12
686.31	43.25
686.497	42.42
686.683	41.62
686.87	43.04
687.056	42.77
687.242	43.19
687.429	43.1
687.615	43.02
687.801	43.54
687.987	43.22
688.174	44.23
688.36	44.4
688.546	44.47
688.732	44.78
688.918	44.26
689.105	45.17
689.291	46.65
689.477	45.57
689.663	46.77
689.849	46.2
690.035	47.51
690.221	46.76
690.407	47.24
690.593	47.67
690.779	48.02
690.965	46.71
691.151	46.17
691.337	44.77
691.523	45.25
691.709	44.66
691.895	44.58
692.081	45.1
692.267	44.19
692.453	44.85
692.639	44.35
692.825	45.33
693.011	47.17
693.196	45.97
693.382	45.86
693.568	45.93
693.754	44.87
693.94	46.41
694.125	47.61
694.311	47.75
694.497	46.78
694.682	48.14
694.868	47.24
695.054	47.21
695.239	47.44
695.425	47.84
695.611	48.1
695.796	47.4
695.982	46.6
696.168	44.8
696.353	45.31
696.539	46.31
696.724	45.03
696.91	44.72
697.095	43.64
697.281	44.62
697.466	45.71
697.652	46.12
697.837	46.82
698.023	46.21
698.208	45.75
698.393	45.83
698.579	45.55
698.764	45.04
698.949	45.49
699.135	46.67
699.32	46.71
699.505	45.06
699.691	43.38
699.876	43.84
700.061	45.45
700.246	46.19
700.432	45.55
700.617	46.26
700.802	48.66
700.987	48.03
701.172	43.15
701.358	42.77
701.543	41.37
701.728	41.94
701.913	40.67
702.098	38.56
702.283	37.88
702.468	36.34
702.653	37.4
702.838	35.47
703.023	35.16
703.208	38.15
703.393	37.68
703.578	39.14
703.763	39.52
703.948	39.97
704.133	40.49
704.318	41.16
704.503	43.45
704.688	40.7
704.873	40.58
705.057	41.22
705.242	42.21
705.427	42.61
705.612	43.38
705.797	43.92
705.981	45.12
706.166	44.15
706.351	44.26
706.536	44.29
706.72	43.19
706.905	42.74
707.09	43.99
707.274	43.93
707.459	43.06
707.644	42.3
707.828	41.17
708.013	40.86
708.197	41.4
708.382	42.92
708.567	42.95
708.751	44.14
708.936	46.84
709.12	45.99
709.305	47.22
709.489	47.2
709.673	47.31
709.858	48.93
710.042	47.53
710.227	48.96
710.411	46.57
710.596	45.04
710.78	44.61
710.964	43.24
711.149	43.22
711.333	43.17
711.517	44.22
711.702	44.13
711.886	43.02
712.07	42.89
712.254	42.32
712.438	44.1
712.623	44.86
712.807	46
712.991	46.23
713.175	45.67
713.359	45.17
713.544	43.93
713.728	42.92
713.912	43.51
714.096	45.04
714.28	45.05
714.464	43.25
714.648	43.17
714.832	42.35
715.016	42.6
715.2	42.03
715.384	41.73
715.568	41.67
715.752	43.62
715.936	44.65
716.12	44.55
716.304	44.21
716.488	43.36
716.671	43.62
716.855	43.86
717.039	42.77
717.223	42.39
717.407	43.06
717.59	43.81
717.774	42.57
717.958	40.08
718.142	37.94
718.325	39.8
718.509	39.45
718.693	39
718.877	38.57
719.06	36.92
719.244	38.39
719.428	38.07
719.611	37.74
719.795	37.46
719.978	38.37
720.162	40.46
720.345	39.06
720.529	41.83
720.713	42.86
720.896	44.11
721.08	46.51
721.263	44.48
721.446	46.08
721.63	45.97
721.813	49.23
721.997	49.41
722.18	48.16
722.364	45.52
722.547	44.27
722.73	45.19
722.914	43.37
723.097	44.65
723.28	46.77
723.464	46.16
723.647	46.6
723.83	45.79
724.013	45.91
724.197	45.54
724.38	48.83
724.563	49.74
724.746	47.16
724.929	46.13
725.112	42.82
725.296	40.44
725.479	39.45
725.662	38.96
725.845	38.23
726.028	39.34
726.211	39.6
726.394	37.4
726.577	37.83
726.76	37.83
726.943	40.7
727.126	41.39
727.309	43.23
727.492	43.89
727.675	44.35
727.858	41.77
728.041	39.32
728.224	38.63
728.407	41.41
728.589	42.32
728.772	44.46
728.955	42.63
729.138	43.92
729.321	41.99
729.503	40.96
729.686	42.25
729.869	43.19
730.052	45.37
730.234	45.66
730.417	45.88
730.6	44.76
730.782	43.04
730.965	45.31
731.148	43.56
731.33	45.41
731.513	46.33
731.695	46.51
731.878	45.34
732.061	41.5
732.243	41.28
732.426	38.51
732.608	36.79
732.791	36.4
732.973	35.36
733.156	36.82
733.338	35.84
733.52	35.01
733.703	33.67
733.885	34.18
734.068	39
734.25	39.91
734.432	39.74
734.615	41.47
734.797	43.79
734.979	43.27
735.162	44.25
735.344	44.83
735.526	44.51
735.708	44.37
735.891	45.3
736.073	45.5
736.255	46.16
736.437	45.42
736.619	44.87
736.802	44.03
736.984	43.57
737.166	40.24
737.348	39.94
737.53	38.7
737.712	36.04
737.894	34.91
738.076	32.31
738.258	32.4
738.44	34
738.622	32.51
738.804	31.32
738.986	30.84
739.168	32.01
739.35	30.01
739.532	30.66
739.714	34.13
739.896	35.87
740.078	38.11
740.259	37.51
740.441	40.1
740.623	41.86
740.805	44.06
740.987	43.75
741.168	42.71
741.35	43.29
741.532	44
741.714	44.03
741.895	45.16
742.077	42.5
742.259	41.69
742.44	36.65
742.622	35.99
742.804	34.72
742.985	33.47
743.167	34.59
743.348	36.96
743.53	37.28
743.711	36.05
743.893	34.3
744.075	33.53
744.256	37.04
744.438	39.96
744.619	36.05
744.8	34.28
744.982	38.06
745.163	39.19
745.345	38.6
745.526	37.31
745.707	37.98
745.889	35.01
746.07	35.99
746.252	35.71
746.433	34.8
746.614	34.48
746.795	35.28
746.977	31.08
747.158	29.16
747.339	30.46
747.52	30.39
747.702	29.09
747.883	31.68
748.064	32.33
748.245	32.05
748.426	31.76
748.607	37.13
748.788	33.72
748.97	38.74
749.151	40.72
749.332	39.88
749.513	42.94
749.694	43.29
749.875	39.58
750.056	40.45
750.237	36.21
750.418	38.83
750.599	36.48
750.78	38.76
750.96	36.29
751.141	33.19
751.322	32.83
751.503	28.63
751.684	29.18
751.865	32.12
752.046	27.96
752.226	31.14
752.407	27.8
752.588	30.24
752.769	32.23
752.949	31.96
753.13	35.06
753.311	34.19
753.492	34.77
753.672	35.43
753.853	35.71
754.034	40.17
754.214	36.72
754.395	37.85
754.575	36.26
754.756	34.24
754.937	33.17
755.117	32.06
755.298	35.03
755.478	36.67
755.659	38.95
755.839	39.08
756.02	35.85
756.2	40.67
756.381	43.09
756.561	41.49
756.741	41.6
756.922	42.01
757.102	44.32
757.283	41.15
757.463	40.63
757.643	33.7
757.823	30.44
758.004	35.49
758.184	33.33
758.364	30.27
758.545	30.78
758.725	30.01
758.905	33.33
759.085	31.04
759.265	29.85
759.446	30.34
759.626	32.9
759.806	34.77
759.986	31.75
760.166	29.65
760.346	30.57
760.526	31.73
760.706	32.89
760.886	31.25
761.066	29.35
761.246	30.78
761.426	33.53
761.606	33.64
761.786	35.67
761.966	35.11
762.146	38.14
762.326	37.22
762.506	37.39
762.686	36.36
762.866	37.05
763.046	41.56
763.225	43.2
763.405	40.8
763.585	41.98
763.765	41.11
763.945	41.56
764.124	41.19
764.304	42.13
764.484	41.97
764.664	44.15
764.843	42.9
765.023	40.36
765.203	38.23
765.382	40.53
765.562	40.04
765.741	39.41
765.921	37.79
766.101	36.04
766.28	36.03
766.46	38.36
766.639	34.74
766.819	33.65
766.998	31.59
767.178	33.82
767.357	34.47
767.537	33.44
767.716	32.21
767.896	32.5
768.075	32.33
768.254	35.42
768.434	29.86
768.613	28.97
768.792	26.8
768.972	26.8
769.151	26.05
769.33	24.25
769.51	27.62
769.689	29.65
769.868	32.59
770.047	32.79
770.226	33.86
770.406	36.43
770.585	40.31
770.764	43.38
770.943	47.09
771.122	41.14
771.301	40.23
771.48	40.32
771.66	38.67
771.839	37.79
772.018	37.89
772.197	37.56
772.376	40.03
772.555	43.73
772.734	45.77
772.913	42.54
773.092	43.86
773.271	41.25
773.449	39.6
773.628	43.47
773.807	43.7
773.986	45.01
774.165	43.29
774.344	40.28
774.523	36.13
774.701	36.04
774.88	31.32
775.059	34.75
775.238	38.27
775.417	38.54
775.595	39.15
775.774	37.77
775.953	41.09
776.131	35.5
776.31	37.1
776.489	37.62
776.667	29.63
776.846	33.01
777.025	34.57
777.203	34.46
777.382	30.44
777.56	27.91
777.739	26.02
777.917	20.16
778.096	22.22
778.274	24.52
778.453	24.03
778.631	30.48
778.81	33.02
778.988	35.97
779.166	36.98
779.345	39.61
779.523	44.59
779.702	49.43
779.88	49.89
780.058	47.99
780.237	44.23
780.415	45.16
780.593	47.6
780.771	47.64
780.95	48.44
781.128	44.25
781.306	45.05
781.484	37.26
781.662	35.64
781.841	35.49
782.019	38.69
782.197	37.13
782.375	39.88
782.553	34.32
782.731	36.37
782.909	36.68
783.087	39.47
783.265	41.57
783.443	45.33
783.621	41.34
783.799	42.26
783.977	45.1
784.155	50.77
784.333	48.17
784.511	54.57
784.689	55.95
784.867	53.83
785.045	53.52
785.223	49.22
785.4	46.38
785.578	48.54
785.756	48.27
785.934	44.73
786.112	40.38
786.289	37.16
786.467	34.83
786.645	34.52
786.823	34.97
787	37.46
787.178	43.2
787.356	47.89
787.533	43.03
787.711	44.42
787.889	42.98
788.066	43.82
788.244	48.1
788.421	43.95
788.599	39.95
788.776	38.12
788.954	35.4
789.131	31.63
789.309	25.44
789.486	26.78
789.664	26
789.841	31.73
790.019	30.56
790.196	26.58
790.373	31.02
790.551	33.02
790.728	35.1
790.906	33.96
791.083	41.58
791.26	46.69
791.437	43.15
791.615	49.01
791.792	46.01
791.969	45.37
792.146	46.09
792.324	48.07
792.501	47.32
792.678	43.32
792.855	41.13
793.032	40.01
793.209	35.47
793.387	42.45
793.564	40.4
793.741	39.86
793.918	40.57
794.095	41.14
794.272	38.02
794.449	36.51
794.626	42.4
794.803	44.84
794.98	40.54
795.157	42.06
795.334	39.4
795.511	32.45
795.688	28.06
795.864	29.56
796.041	31.71
796.218	29.39
796.395	27.35
796.572	24.14
796.749	19.9
796.925	17.3
797.102	14.04
797.279	17.97
797.456	20.85
797.632	24.62
797.809	23.36
797.986	18.08
798.162	22.39
798.339	21.45
798.516	23.68
798.692	30.91
798.869	36.24
799.046	44.51
799.222	43.92
799.399	40.68
799.575	41.07
799.752	38.04
799.928	39.77
800.105	36.83
800.281	40.13
800.458	38.61
800.634	40.48
800.811	36.64
800.987	29.84
801.163	25.14
801.34	27.27
801.516	24.2
801.692	25.08
801.869	23.96
802.045	26.2
802.221	26.82
802.398	21.63
802.574	16.36
802.75	16.1
802.926	18.97
803.103	22.38
803.279	24.53
803.455	33.73
803.631	34.38
803.807	39.36
803.983	38.82
804.16	31.66
804.336	39.75
804.512	39.73
804.688	35.28
804.864	36.24
805.04	34.21
805.216	33.05
805.392	33.83
805.568	33.83
805.744	26.19
805.92	33.19
806.096	33.94
806.272	22.32
806.448	28.02
806.623	34.29
806.799	34.68
806.975	33.32
807.151	29.67
807.327	26.21
807.503	27.82
807.678	29.99
807.854	21.1
808.03	29.58
808.206	32.88
808.381	25.98
808.557	22.73
808.733	22.43
808.908	28.58
809.084	31.43
809.26	27.03
809.435	27.39
809.611	28.15
809.787	33.55
809.962	30.9
810.138	29.37
810.313	29.38
810.489	29.1
810.664	32.17
810.84	33.29
811.015	30.5
811.191	39.24
811.366	38.05
811.542	35.29
811.717	37.62
811.892	33.22
812.068	36.62
812.243	39.47
812.419	42.33
812.594	34.51
812.769	27.61
812.944	27.27
813.12	25.27
813.295	19.88
813.47	24.47
813.645	13.77
813.821	14.19
813.996	14.32
814.171	15.57
814.346	18.28
814.521	18.27
814.697	14.27
814.872	15.67
815.047	13.26
815.222	18.68
815.397	18.71
815.572	25.28
815.747	29.44
815.922	32.46
816.097	30.15
816.272	31.42
816.447	34.47
816.622	32.38
816.797	30.79
816.972	28.75
817.147	28.1
817.322	21.93
817.496	19.52
817.671	12.04
817.846	7.29
818.021	4.88
818.196	8.17
818.371	12.22
818.545	15.08
818.72	13.22
818.895	15.01
819.069	13.62
819.244	23.16
819.419	23.8
819.594	30.63
819.768	31.01
819.943	34.08
820.117	30.64
820.292	29.02
820.467	32.27
820.641	33.75
820.816	37.24
820.99	38.46
821.165	37.35
821.339	37.8
821.514	37.24
821.688	38.01
821.863	38.47
822.037	39.27
822.212	38.62
822.386	38.62
822.56	38.62
822.735	37.28
822.909	37.26
823.084	37.62
823.258	38.23
823.432	39.26
823.606	38.34
823.781	37.78
823.955	37.2
824.129	37.94
824.303	37.62
824.478	37.94
824.652	37.14
824.826	36.8
825	37.04
825.174	38.02
825.348	35.8
825.523	37.61
825.697	36.31
825.871	35.09
826.045	35.28
826.219	34.5
826.393	34.38
826.567	36.73
826.741	37.24
826.915	37.68
827.089	34.48
827.263	33.79
827.437	32.89
827.611	34.62
827.784	34.91
827.958	35.54
828.132	35.57
828.306	35.62
828.48	29.95
828.654	29.93
828.827	24.66
829.001	24.25
829.175	26.2
829.349	26.52
829.522	24.11
829.696	23.86
829.87	22.88
830.044	25.48
830.217	21.67
830.391	23.89
830.565	21.42
830.738	25.9
830.912	26.93
831.085	28.93
831.259	26.1
831.432	30.31
831.606	30.04
831.779	31.84
831.953	29.39
832.126	35.15
832.3	36.37
832.473	34.56
832.647	35.59
832.82	37.63
832.994	31.26
833.167	32.26
833.34	27.8
833.514	29.69
833.687	29.95
833.86	32.04
834.034	31.09
834.207	29.46
834.38	31.84
834.553	31.95
834.727	30.56
834.9	33.74
835.073	37.16
835.246	42.05
835.419	41.37
835.593	39.89
835.766	37.07
835.939	33.18
836.112	35.59
836.285	34.62
836.458	34.97
836.631	34.35
836.804	30.43
836.977	23.5
837.15	14.38
837.323	14.79
837.496	12.46
837.669	10.45
837.842	16.52
838.015	16.84
838.188	17.67
838.361	14.69
838.533	17.96
838.706	29.94
838.879	30.1
839.052	34.69
839.225	31
839.398	28.47
839.57	33.76
839.743	34.13
839.916	35.66
840.088	29.43
840.261	34.11
840.434	35.09
840.607	30.17
840.779	30.04
840.952	27.5
841.124	26.49
841.297	32.23
841.47	25.18
841.642	23.27
841.815	22.39
841.987	24.3
842.16	14.06
842.332	17.43
842.505	16.41
842.677	11.27
842.85	9
843.022	7.91
843.194	1.5
843.367	5.01
843.539	2.56
843.712	1.97
843.884	0.25
844.056	4.25
844.229	-10.22
844.401	-11.38
844.573	-19.05
844.745	-12.15
844.918	5.75
845.09	19.35
845.262	25.26
845.434	32.56
845.606	22.69
845.779	15.3
845.951	10.75
846.123	9.64
846.295	8.8
846.467	24.83
846.639	17.52
846.811	2.9
846.983	-0.93
847.155	5.88
847.327	5.85
847.499	20.53
847.671	17.2
847.843	14.64
848.015	6.61
848.187	-0.21
848.359	-10.96
848.531	-13.16
848.703	-2.61
848.875	-24.25
849.047	-14.86
849.218	-10.04
849.39	-43.77
849.562	-30.52
849.734	-42.52
849.905	-39.39
850.077	-19.8
850.249	-11.64
850.421	-21.35
850.592	-50.48
850.764	-15.88
850.936	-34.53
851.107	-63.83
851.279	-14.02
851.451	18.56
851.622	31.05
851.794	52.97
851.965	-2.87
852.137	-8.91
852.308	15.63
852.48	30.52
852.651	-9.75
852.823	-16.2
852.994	-29.46
853.166	-42.78
853.337	-54.36
853.509	-41.29
853.68	-73.03
853.851	-28.39
854.023	-13.2
854.194	-1.31
854.365	-5.53
854.537	35.46
854.708	34.97
854.879	38.62
855.05	40.91
855.222	30.09
855.393	24.82
855.564	18.14
855.735	9.97
855.906	12.92
856.078	-2.2
856.249	-7.71
856.42	-16.48
856.591	-9.34
856.762	-1.19
856.933	8.76
857.104	16.13
857.275	30.7
857.446	49.66
857.617	56.41
857.788	44.88
857.959	50.59
858.13	62.47
858.301	51.54
858.472	43.04
858.643	47.07
858.814	31.25
858.985	22.83
859.155	-3.61
859.326	-7.18
859.497	-3.32
859.668	-13.4
859.839	-34.07
860.009	-72.27
860.18	-69.59
860.351	-46.79
860.522	-52.66
860.692	-45.07
860.863	-67.95
861.034	-41.44
861.204	-100.23
861.375	-97.2
861.546	-32.18
861.716	-60.55
861.887	-18.62
862.057	10.41
862.228	33.71
862.398	37.07
862.569	56.91
862.739	55.44
862.91	47.01
863.08	34.56
863.251	39.75
863.421	51.13
863.592	53.91
863.762	51.2
863.932	40.33
864.103	28.87
864.273	11.14
864.443	-30.02
864.614	1.46
864.784	3.73
864.954	32.36
865.125	9.75
865.295	-15.32
865.465	-11.83
865.635	-16.72
865.805	-5.73
865.976	-4.63
866.146	1.76
866.316	15.77
866.486	0.86
866.656	-8.58
866.826	-39.4
866.996	-40.1
867.166	-68.36
867.336	-89.55
867.506	-63.95
867.676	-106.48
867.846	-127.02
868.016	-143.84
868.186	-187.88
868.356	-177.9
868.526	-227.81
868.696	-166.79
868.866	-399.41
869.036	-135.06
869.206	-146.3
869.376	-174.34
869.545	-88.47
869.715	-47.81
869.885	-32.14
870.055	-38.89
870.224	-40.5
870.394	-39.53
870.564	-54.42
870.734	-23.83
870.903	-39.51
871.073	-22.33
871.243	-24.78
871.412	-39.43
871.582	-76.3
871.751	-69.94
871.921	-71.18
872.091	-83.72
872.26	-70.07
872.43	-63.2
872.599	-44.4
872.769	-15.25
872.938	-31.17
873.108	-16.09
873.277	-13.74
873.446	15.13
873.616	20.39
873.785	20.21
873.955	12.2
874.124	-1.75
874.293	11.7
874.463	-0.05
874.632	-23.36
874.801	-5.01
874.971	-42.54
875.14	-52.6
875.309	-62.27
875.478	-76.92
875.647	-67.11
875.817	-46.42
875.986	-26.08
876.155	-25.37
876.324	-8.52
876.493	0.85
876.662	7.36
876.831	8.99
877	25.46
877.17	24.12
877.339	17.52
877.508	20.05
877.677	14.37
877.846	19.46
878.015	13.05
878.184	10.86
878.352	-0.04
878.521	-12.33
878.69	3.97
878.859	3.68
879.028	17.81
879.197	23.88
879.366	23.94
879.534	39.96
879.703	31.09
879.872	31.25
880.041	16.32
880.21	24.63
880.378	23.05
880.547	24.82
880.716	24.95
880.884	21.33
881.053	24.58
881.222	24.51
881.39	21.77
881.559	21.87
881.727	21.58
881.896	25.86
882.065	24.76
882.233	25.55
882.402	23.09
882.57	22.7
882.739	25.02
882.907	23.37
883.076	24.15
883.244	25.27
883.412	23.99
883.581	25.4
883.749	25.46
883.918	24.02
884.086	19.75
884.254	21.55
884.423	23.23
884.591	21.44
884.759	23.49
884.927	20.89
885.096	21.73
885.264	18.85
885.432	17.21
885.6	10.49
885.769	6.93
885.937	18.17
886.105	20.65
886.273	9.11
886.441	-6.65
886.609	-20.28
886.777	-19.05
886.945	-31.13
887.113	-36.24
887.281	-83.68
887.449	-36.56
887.617	6.41
887.785	1.28
887.953	-12.52
888.121	-38.47
888.289	-42.73
888.457	-54.4
888.625	-79.53
888.793	-83.35
888.961	-39.88
889.129	-7.22
889.296	-11.6
889.464	-42.3
889.632	-48.97
889.8	-39.43
889.967	-6.46
890.135	1.64
