Data from JASIL_3075_Reflection_01.txt Node
Date: Mon Nov 09 11:43:00 EST 2015
User: Geneva
Spectrometer: USB4E03002
Autoset integration time: false
Trigger mode: 4
Integration Time (sec): 1.000000E-1
Scans to average: 10
Electric dark correction enabled: false
Nonlinearity correction enabled: false
Boxcar width: 5
Stray light correction enabled: false
XAxis mode: Wavelengths
Stop averaging: false
Number of Pixels in Spectrum: 3648
>>>>>Begin Spectral Data<<<<<
177.575	-30.17
177.794	-10.1
178.014	10.6
178.233	3.29
178.452	-7.11
178.672	-11.33
178.891	-29.49
179.11	-15.33
179.33	1.23
179.549	5.24
179.768	42.38
179.987	35.37
180.207	32.61
180.426	4.55
180.645	87.84
180.864	67.65
181.084	99.4
181.303	94.9
181.522	94.75
181.741	72.96
181.96	68.12
182.179	58.39
182.398	68.33
182.618	77.7
182.837	59.65
183.056	74.07
183.275	90.1
183.494	66.67
183.713	-72.53
183.932	-380
184.151	86.96
184.37	181.82
184.589	-77.55
184.808	303.92
185.027	-9300
185.246	158.44
185.465	7.59
185.684	-307.89
185.903	91.67
186.122	243.96
186.341	210.43
186.56	364.44
186.779	626.67
186.998	417.65
187.216	388.97
187.435	472.16
187.654	981.25
187.873	233.94
188.092	189.81
188.311	722
188.53	672.41
188.748	-372.73
188.967	40
189.186	57.85
189.405	58.33
189.623	66.99
189.842	141.22
190.061	62.37
190.28	32.37
190.498	20.43
190.717	-17.09
190.936	16.52
191.154	-22.81
191.373	128.57
191.592	230
191.81	259.14
192.029	264.35
192.248	383.74
192.466	131.21
192.685	195.07
192.904	572.73
193.122	190.72
193.341	142.11
193.559	11.86
193.778	1766.67
193.996	365.79
194.215	-37.93
194.433	-31.07
194.652	112.7
194.87	-77.42
195.089	184.21
195.307	128.21
195.526	70.13
195.744	70.38
195.963	59.72
196.181	80.66
196.399	72.31
196.618	78.24
196.836	85.41
197.055	71.94
197.273	68.59
197.491	56.16
197.71	39.25
197.928	56.68
198.146	28.46
198.365	-40.69
198.583	-144.02
198.801	-134.33
199.019	-431.73
199.238	-169.86
199.456	-426.32
199.674	-335.06
199.892	-187.2
200.111	-266.67
200.329	180.1
200.547	182.68
200.765	17.66
200.983	34.29
201.202	18.36
201.42	30.09
201.638	49.41
201.856	58.2
202.074	120.22
202.292	92.6
202.51	142.5
202.728	263.41
202.946	2650
203.165	-17.9
203.383	-50.62
203.601	-595.12
203.819	-24.69
204.037	19.24
204.255	34.85
204.473	37.53
204.691	-7.42
204.909	-42.64
205.127	-13.57
205.345	-27.9
205.562	-108.59
205.78	-76.33
205.998	-57.53
206.216	-147.49
206.434	-192.89
206.652	-303.21
206.87	-517.65
207.088	-508.11
207.306	623.08
207.523	179.91
207.741	183.04
207.959	228.08
208.177	199.29
208.395	161.4
208.612	173.49
208.83	135.45
209.048	101.14
209.266	86.86
209.483	96.36
209.701	127.73
209.919	173.46
210.136	108.33
210.354	110.4
210.572	217.11
210.79	222.73
211.007	244.9
211.225	199.4
211.442	836.76
211.66	1147.5
211.878	773.53
212.095	-431.87
212.313	8228.57
212.53	-1095
212.748	658.33
212.966	114.33
213.183	86.95
213.401	75.46
213.618	113.14
213.836	86.17
214.053	138.61
214.271	116.06
214.488	87.25
214.705	5.71
214.923	-20
215.14	88.89
215.358	97.1
215.575	77.08
215.793	110.2
216.01	177.11
216.227	229.81
216.445	206.54
216.662	173.25
216.879	159.73
217.097	194.47
217.314	326.5
217.531	-1937.5
217.749	-1773.33
217.966	-85.33
218.183	38.68
218.4	-216.44
218.618	-136.07
218.835	-48.09
219.052	123.85
219.269	-170.21
219.487	92.37
219.704	478.26
219.921	-28.21
220.138	219.23
220.355	181.17
220.572	190.22
220.79	142.07
221.007	184.81
221.224	255.14
221.441	222.08
221.658	310.82
221.875	303.31
222.092	312.4
222.309	226.19
222.526	319.08
222.743	135.29
222.96	77.6
223.177	8.68
223.394	-31.63
223.611	-25.54
223.828	-29.94
224.045	-3.82
224.262	0.3
224.479	15.04
224.696	-3.77
224.913	-15.32
225.13	21.14
225.347	34.17
225.564	47.43
225.781	25.48
225.997	42.08
226.214	34.88
226.431	29.61
226.648	26.88
226.865	27.42
227.082	30.67
227.298	34.68
227.515	26.67
227.732	20.38
227.949	20.8
228.165	22.95
228.382	21.06
228.599	26.45
228.816	24.97
229.032	29.07
229.249	29.32
229.466	31.11
229.682	31.92
229.899	36.37
230.116	37.28
230.332	25.72
230.549	32.99
230.765	38.94
230.982	19.61
231.199	22.43
231.415	20.56
231.632	-2.22
231.848	-19.89
232.065	-16.59
232.281	-22.28
232.498	-22.52
232.714	-7.85
232.931	-4.23
233.147	-5.66
233.364	2.28
233.58	1.26
233.797	4.39
234.013	2.4
234.23	5.25
234.446	11.99
234.662	8.81
234.879	23.42
235.095	28
235.312	33.75
235.528	21.38
235.744	19.72
235.961	23.78
236.177	3.72
236.393	6.5
236.61	-5.92
236.826	-25.36
237.042	-13.24
237.258	-27.92
237.475	-25.44
237.691	-28.45
237.907	1.88
238.123	15.39
238.339	15.65
238.556	14.97
238.772	20.62
238.988	25.64
239.204	27.09
239.42	25.65
239.636	29
239.853	24.98
240.069	20.67
240.285	18.98
240.501	17.99
240.717	17.17
240.933	18.85
241.149	19.13
241.365	19.04
241.581	20.38
241.797	18.48
242.013	18.28
242.229	19.61
242.445	20.1
242.661	22.04
242.877	19.56
243.093	25.24
243.309	25.43
243.525	23.86
243.741	25.84
243.957	17.64
244.173	16.75
244.388	12.26
244.604	6.35
244.82	2.98
245.036	-1.49
245.252	-1.14
245.468	-0.97
245.683	-0.98
245.899	-0.02
246.115	-1.41
246.331	1.02
246.547	2
246.762	2.85
246.978	3.67
247.194	4.63
247.409	8.29
247.625	10.7
247.841	9.24
248.057	10.55
248.272	11.42
248.488	16.77
248.703	19
248.919	15.37
249.135	14.21
249.35	17.78
249.566	11.56
249.782	13.03
249.997	16.05
250.213	20.94
250.428	19.42
250.644	18.74
250.859	11.38
251.075	9.09
251.29	13.45
251.506	13.38
251.721	12.06
251.937	18.79
252.152	16.49
252.368	17.33
252.583	15.99
252.798	17.74
253.014	24.39
253.229	37.97
253.445	36.15
253.66	35.73
253.875	36.57
254.091	37.53
254.306	38.59
254.521	39.42
254.737	29.79
254.952	27.28
255.167	29.06
255.383	26.85
255.598	20.72
255.813	28.6
256.028	23.89
256.244	18.41
256.459	13.19
256.674	6.69
256.889	7.4
257.104	10.89
257.32	8.91
257.535	7.94
257.75	6.73
257.965	4.66
258.18	2.94
258.395	3.04
258.61	4.29
258.826	3.92
259.041	4.15
259.256	4.62
259.471	4.81
259.686	5.59
259.901	5.86
260.116	3.04
260.331	3.33
260.546	0.27
260.761	2.68
260.976	4.95
261.191	9.51
261.406	10.24
261.621	9.44
261.836	8.17
262.05	8.22
262.265	8.71
262.48	11.76
262.695	15.17
262.91	17.69
263.125	16.23
263.34	15.8
263.555	11.83
263.769	11.3
263.984	8.6
264.199	11.01
264.414	9.67
264.629	9.91
264.843	9.56
265.058	7.1
265.273	7.53
265.488	6.25
265.702	3.67
265.917	6.75
266.132	8.3
266.346	7.91
266.561	-0.12
266.776	-3.01
266.99	-5.99
267.205	-9.8
267.42	-9.86
267.634	-10.05
267.849	-12.18
268.063	-14.19
268.278	-18.22
268.492	-19.32
268.707	-16.48
268.922	-11.91
269.136	-10.42
269.351	-6.32
269.565	-1.41
269.78	-0.04
269.994	0.79
270.209	0.3
270.423	2.81
270.637	2.7
270.852	6.15
271.066	5.64
271.281	6.31
271.495	8.55
271.709	4.74
271.924	4.97
272.138	2.79
272.353	1.7
272.567	2.74
272.781	-0.4
272.996	2.73
273.21	-1.35
273.424	-2.89
273.638	-2.55
273.853	-4.08
274.067	-1.6
274.281	-3.79
274.495	-4.73
274.71	-4.5
274.924	-0.4
275.138	0.69
275.352	-0.91
275.566	-3.46
275.781	-0.84
275.995	2.87
276.209	1.36
276.423	1.76
276.637	4.99
276.851	7.42
277.065	10.64
277.279	7.25
277.493	8.76
277.707	9.51
277.921	11.74
278.135	14.68
278.349	15.61
278.563	13.35
278.777	15.92
278.991	13.91
279.205	14.11
279.419	11.79
279.633	12.2
279.847	13.71
280.061	14.62
280.275	13.83
280.489	9.68
280.703	7.19
280.917	7.11
281.131	3.78
281.344	3.96
281.558	2.98
281.772	2.05
281.986	3.03
282.2	1.34
282.414	-0.73
282.627	1.98
282.841	2.78
283.055	3.54
283.269	6.99
283.482	9.69
283.696	9.32
283.91	7.33
284.123	6.85
284.337	6.47
284.551	3.05
284.764	3.9
284.978	1.9
285.192	-0.04
285.405	1.46
285.619	-1.3
285.833	-3.24
286.046	-3
286.26	-0.68
286.473	1.32
286.687	2.51
286.9	4.54
287.114	1.73
287.327	0.45
287.541	1.83
287.754	0.05
287.968	2.65
288.181	3.8
288.395	5.72
288.608	5.27
288.822	3.25
289.035	2.06
289.248	2.49
289.462	4.06
289.675	4.7
289.889	6.19
290.102	4.59
290.315	3.91
290.529	1.84
290.742	-1.92
290.955	-0.33
291.169	-0.46
291.382	-0.34
291.595	1.49
291.808	3.6
292.022	2.87
292.235	0.58
292.448	3.17
292.661	2.48
292.875	1.27
293.088	3.03
293.301	1.05
293.514	2.15
293.727	0.21
293.94	-2.67
294.153	-3.93
294.367	-2.76
294.58	-0.58
294.793	-3.27
295.006	-2.07
295.219	0.15
295.432	0.99
295.645	2.94
295.858	1.54
296.071	4.6
296.284	4.79
296.497	6.45
296.71	7.25
296.923	6.96
297.136	8.16
297.349	9.47
297.562	8.88
297.775	6.36
297.988	3.55
298.201	4.04
298.414	3.16
298.626	4.72
298.839	1.04
299.052	-0.6
299.265	-1.24
299.478	-1.3
299.691	-3.37
299.903	-2.36
300.116	0.24
300.329	3.32
300.542	4.67
300.755	3.45
300.967	1.24
301.18	3.13
301.393	5.69
301.605	7.31
301.818	6.01
302.031	7.19
302.243	5.64
302.456	6.19
302.669	5.65
302.881	3.35
303.094	3.44
303.307	6.24
303.519	6.15
303.732	8.99
303.944	7.19
304.157	6.44
304.37	4.52
304.582	4.77
304.795	6.96
305.007	8.39
305.22	8
305.432	8.03
305.645	6.96
305.857	8.45
306.069	3.89
306.282	7.1
306.494	10.17
306.707	9.73
306.919	7.53
307.132	4.71
307.344	4.17
307.556	7.3
307.769	8.05
307.981	9.24
308.193	6.91
308.406	6.46
308.618	4.35
308.83	2.4
309.043	5.47
309.255	10.37
309.467	10.5
309.679	7.6
309.892	3.12
310.104	2.04
310.316	1.04
310.528	1.08
310.74	0.32
310.953	1.86
311.165	3.83
311.377	1.08
311.589	-1.52
311.801	-1.9
312.013	-1.12
312.225	3.48
312.437	3.77
312.649	4.01
312.862	5.31
313.074	8.42
313.286	8.39
313.498	6.32
313.71	8.61
313.922	8.83
314.134	7.6
314.346	10.41
314.558	10.57
314.77	10.76
314.982	9.34
315.193	7.87
315.405	5.83
315.617	2.92
315.829	2.79
316.041	0.77
316.253	0.33
316.465	1.94
316.677	4.03
316.888	3.47
317.1	5.76
317.312	6.83
317.524	8.91
317.736	10.01
317.947	12.18
318.159	13.42
318.371	10.6
318.583	9.38
318.794	9.93
319.006	7.91
319.218	6.56
319.43	2.25
319.641	2.61
319.853	2.01
320.064	0.55
320.276	1.85
320.488	1.06
320.699	4.24
320.911	4.36
321.123	5.46
321.334	6.61
321.546	3.71
321.757	7.3
321.969	11.8
322.18	14.15
322.392	17.37
322.603	13.94
322.815	12.04
323.026	13.4
323.238	14.21
323.449	13.23
323.661	13.31
323.872	13.99
324.083	13.87
324.295	11.4
324.506	7.85
324.718	5.9
324.929	9.53
325.14	12.4
325.352	12.4
325.563	11.18
325.774	10.31
325.986	7.68
326.197	11.4
326.408	12.03
326.62	10.28
326.831	12.01
327.042	14.24
327.253	11.42
327.464	9.85
327.676	8.78
327.887	11.95
328.098	14.22
328.309	15.46
328.52	12.84
328.732	9.75
328.943	10.53
329.154	10.45
329.365	10.59
329.576	10.98
329.787	10.48
329.998	7.95
330.209	6.98
330.42	5.78
330.631	4.55
330.842	3.09
331.053	6.56
331.264	7.83
331.475	7.08
331.686	3.83
331.897	6.58
332.108	9.25
332.319	11.41
332.53	12.32
332.741	12.31
332.952	12.64
333.163	16.04
333.374	12.1
333.585	10.42
333.795	11.93
334.006	11.69
334.217	7.75
334.428	4.7
334.639	4.04
334.849	4.01
335.06	2.39
335.271	5.8
335.482	5.16
335.692	7.16
335.903	8.31
336.114	8.75
336.325	12.26
336.535	13.69
336.746	15.16
336.957	16.75
337.167	16.81
337.378	19.74
337.589	17.48
337.799	14.41
338.01	15.94
338.22	15.54
338.431	14.21
338.642	11.09
338.852	12.99
339.063	12.43
339.273	13.62
339.484	13.64
339.694	15.24
339.905	15.29
340.115	18.85
340.326	20.2
340.536	19.42
340.746	18.73
340.957	18.53
341.167	17.3
341.378	18.85
341.588	16.17
341.799	16.41
342.009	14.86
342.219	12.69
342.43	11.59
342.64	12.04
342.85	11.52
343.061	14.16
343.271	15.35
343.481	15.45
343.691	13.52
343.902	13.48
344.112	10.38
344.322	10.61
344.532	11.24
344.743	11.2
344.953	8.91
345.163	12.14
345.373	12.72
345.583	10.47
345.793	10.62
346.004	11.65
346.214	14.22
346.424	15.68
346.634	14.17
346.844	15.71
347.054	16.64
347.264	16.37
347.474	15.47
347.684	13.08
347.894	15.78
348.104	15.99
348.314	15.82
348.524	13.28
348.734	13.2
348.944	12.89
349.154	11.41
349.364	9.34
349.574	9.28
349.784	8.18
349.994	11.14
350.204	11.14
350.413	10.83
350.623	11.34
350.833	12.18
351.043	12.16
351.253	14.12
351.463	15.47
351.672	18.75
351.882	18.74
352.092	19.74
352.302	18.47
352.511	17.54
352.721	17.92
352.931	17.12
353.141	17.31
353.35	17.68
353.56	15.32
353.77	14.11
353.979	11.92
354.189	11.16
354.399	9.85
354.608	9.9
354.818	10.24
355.027	8.38
355.237	8.48
355.447	6.44
355.656	6.02
355.866	8.13
356.075	8.58
356.285	9.71
356.494	9.92
356.704	10.59
356.913	8.19
357.123	9.98
357.332	11.58
357.542	11.63
357.751	12.8
357.96	11.73
358.17	11.55
358.379	11.82
358.589	10.82
358.798	10.53
359.007	8.89
359.217	10.48
359.426	9.6
359.635	9.07
359.845	9.63
360.054	10.05
360.263	10.88
360.472	10.13
360.682	10.33
360.891	10.7
361.1	10.38
361.309	12.31
361.519	12.94
361.728	12.38
361.937	11.54
362.146	12.21
362.355	12.63
362.564	13.07
362.774	12.94
362.983	12.29
363.192	10.96
363.401	12.51
363.61	11.79
363.819	12.76
364.028	12.45
364.237	14.23
364.446	13.52
364.655	12.7
364.864	12.42
365.073	12.9
365.282	12.7
365.491	14.38
365.7	14.47
365.909	14.47
366.118	11.48
366.327	11.6
366.536	11.63
366.745	13.28
366.954	16.04
367.162	16.26
367.371	16.7
367.58	18.38
367.789	19.12
367.998	17.96
368.207	17.33
368.415	17.6
368.624	18.85
368.833	18.57
369.042	16.01
369.25	13.79
369.459	14.34
369.668	14.53
369.877	13.65
370.085	10.77
370.294	10.32
370.503	11.29
370.711	12.04
370.92	10.14
371.129	9.94
371.337	10.33
371.546	10.01
371.754	8.56
371.963	7.78
372.171	7.06
372.38	6.59
372.589	6.95
372.797	6.92
373.006	6.9
373.214	7.69
373.423	6.68
373.631	6.55
373.84	5.02
374.048	6.47
374.256	6.08
374.465	5.94
374.673	6.92
374.882	8.7
375.09	9.12
375.298	9.42
375.507	10.46
375.715	11.54
375.923	12.52
376.132	14.43
376.34	14.56
376.548	15.61
376.757	15.51
376.965	16.06
377.173	15.31
377.381	14.76
377.59	14.79
377.798	13.67
378.006	13.86
378.214	13.66
378.423	13.2
378.631	12.78
378.839	12.51
379.047	13.9
379.255	13.64
379.463	13.28
379.671	13.18
379.879	13.42
380.088	13.68
380.296	13.07
380.504	11.74
380.712	10.62
380.92	9.49
381.128	8.75
381.336	8.64
381.544	9.69
381.752	8.19
381.96	7.11
382.168	7.66
382.376	8.3
382.584	8.83
382.791	9.2
382.999	10.05
383.207	10.62
383.415	10.08
383.623	9.61
383.831	10.36
384.039	12.49
384.247	12.92
384.454	11.55
384.662	11.32
384.87	9.85
385.078	11.05
385.285	11.54
385.493	11.23
385.701	11.38
385.909	11.39
386.116	10.94
386.324	10.42
386.532	10.83
386.739	11.52
386.947	11.55
387.155	12.32
387.362	11.97
387.57	11.32
387.778	11.75
387.985	11.51
388.193	12.5
388.4	13.2
388.608	12.94
388.816	13.11
389.023	13.09
389.231	13.01
389.438	13.82
389.646	12.95
389.853	13.35
390.061	13.2
390.268	13.71
390.475	12.84
390.683	11.76
390.89	12.01
391.098	12.61
391.305	12.45
391.512	11.8
391.72	11.72
391.927	11.97
392.135	11.85
392.342	11.36
392.549	12.59
392.756	13.27
392.964	12.96
393.171	12.42
393.378	12.8
393.586	12.43
393.793	13.38
394	12.94
394.207	13.78
394.414	13.78
394.622	15.21
394.829	14.22
395.036	13.84
395.243	14.4
395.45	14.73
395.657	13.05
395.864	14.09
396.072	14.15
396.279	14.49
396.486	14.57
396.693	14.41
396.9	13.66
397.107	14.37
397.314	13.95
397.521	13.18
397.728	12.34
397.935	13.4
398.142	12
398.349	11.58
398.556	11.82
398.763	11.19
398.97	9.92
399.177	9.66
399.383	9.19
399.59	8.32
399.797	9.64
400.004	10.43
400.211	8.82
400.418	9.27
400.625	8.56
400.831	7.86
401.038	8.32
401.245	10.54
401.452	11
401.658	10.88
401.865	11.22
402.072	10.64
402.279	12.23
402.485	13.36
402.692	14.1
402.899	14.06
403.105	14.68
403.312	14.27
403.519	12.79
403.725	13.59
403.932	13.65
404.138	13.79
404.345	13.67
404.552	11.99
404.758	11.05
404.965	11.12
405.171	11.53
405.378	11.37
405.584	10.91
405.791	12.08
405.997	11.96
406.204	11.72
406.41	12.42
406.617	12.6
406.823	13.44
407.029	13.67
407.236	12.78
407.442	13.57
407.649	12.99
407.855	13.67
408.061	13.67
408.268	14.44
408.474	15.35
408.68	15.74
408.887	16.28
409.093	16.71
409.299	18.08
409.505	18.47
409.712	17.21
409.918	17.35
410.124	18.24
410.33	17.7
410.537	15.72
410.743	15.29
410.949	14.22
411.155	14.2
411.361	14.01
411.567	14.04
411.773	13.6
411.98	14.93
412.186	14.47
412.392	13.77
412.598	14.7
412.804	14.78
413.01	13.93
413.216	13.64
413.422	12.3
413.628	12.41
413.834	11.71
414.04	11.44
414.246	10.41
414.452	10.6
414.658	10.2
414.864	9.81
415.07	9.77
415.275	10.01
415.481	10.93
415.687	11.36
415.893	10.35
416.099	10.93
416.305	11.7
416.511	12
416.716	11.99
416.922	12.74
417.128	12.57
417.334	12.03
417.539	11.8
417.745	11.93
417.951	11.74
418.157	11.89
418.362	11.22
418.568	10.95
418.774	10.89
418.979	10.94
419.185	10.5
419.391	10.37
419.596	11.3
419.802	11.42
420.008	11.18
420.213	10.85
420.419	10.34
420.624	10.27
420.83	10.33
421.035	10.35
421.241	10.28
421.446	10
421.652	10.09
421.857	9.85
422.063	10.05
422.268	10
422.474	10.53
422.679	11.53
422.885	11.81
423.09	11.79
423.295	11.84
423.501	12.01
423.706	12.1
423.911	12.35
424.117	12.37
424.322	12.69
424.527	12.84
424.733	13
424.938	13.29
425.143	12.47
425.349	12.19
425.554	12.31
425.759	12.58
425.964	13.52
426.169	13.43
426.375	13.03
426.58	12.88
426.785	12.31
426.99	11.8
427.195	11.05
427.4	12.19
427.605	13.1
427.811	12.9
428.016	12.69
428.221	11.49
428.426	11.26
428.631	11.27
428.836	11.42
429.041	11.99
429.246	12.28
429.451	12.02
429.656	12.99
429.861	12.07
430.066	11.97
430.271	12.35
430.476	12.71
430.681	12.94
430.886	13.15
431.09	13.75
431.295	13.39
431.5	13.47
431.705	14.2
431.91	13.73
432.115	13.74
432.32	14.07
432.524	13.42
432.729	13.25
432.934	13.01
433.139	13.34
433.343	13.22
433.548	13.43
433.753	13.17
433.958	13.16
434.162	12.57
434.367	12.87
434.572	12.85
434.776	12.89
434.981	12.92
435.186	12.9
435.39	12.48
435.595	11.94
435.799	12.29
436.004	12.5
436.209	12.46
436.413	12.68
436.618	13.09
436.822	12.76
437.027	13.09
437.231	13.24
437.436	13.64
437.64	13.61
437.845	13.03
438.049	12.82
438.253	12.64
438.458	12.08
438.662	11.8
438.867	11.65
439.071	11.86
439.275	11.54
439.48	11.76
439.684	11.83
439.888	12.35
440.093	12.81
440.297	12.72
440.501	12.79
440.706	13.15
440.91	13.61
441.114	13.56
441.318	13.34
441.523	13.52
441.727	13.36
441.931	13.13
442.135	12.55
442.339	12.23
442.543	12.33
442.748	12.25
442.952	11.53
443.156	11.65
443.36	11.4
443.564	11.66
443.768	12.52
443.972	12.19
444.176	12.56
444.38	12.23
444.584	12.51
444.788	11.88
444.992	11.77
445.196	11.97
445.4	11.45
445.604	11.41
445.808	11.14
446.012	10.76
446.216	10.95
446.42	10.76
446.624	11.22
446.828	10.81
447.032	11.51
447.235	11.4
447.439	11.53
447.643	12.07
447.847	12.09
448.051	12.46
448.254	12.03
448.458	12.48
448.662	11.76
448.866	11.91
449.069	12.23
449.273	11.82
449.477	12.6
449.681	12.75
449.884	12.28
450.088	12.51
450.292	13.01
450.495	13.13
450.699	12.67
450.902	13.38
451.106	13.23
451.31	13.28
451.513	13.2
451.717	13
451.92	12.78
452.124	13.03
452.327	13.4
452.531	12.57
452.734	12.8
452.938	12.29
453.141	12.38
453.345	12.46
453.548	11.76
453.752	12.55
453.955	12.91
454.158	12.74
454.362	12.63
454.565	13.01
454.769	13.39
454.972	13.57
455.175	14.5
455.379	13.89
455.582	13.74
455.785	14.34
455.988	13.71
456.192	12.97
456.395	12.73
456.598	12.93
456.801	12.18
457.005	11.97
457.208	10.83
457.411	10.37
457.614	10.38
457.817	10.48
458.021	10.59
458.224	10.73
458.427	10.87
458.63	11.02
458.833	10.91
459.036	11.03
459.239	10.95
459.442	11.71
459.645	12.15
459.848	12.27
460.051	12.02
460.254	12.03
460.457	11.94
460.66	12.27
460.863	12.76
461.066	12.88
461.269	13.44
461.472	13.3
461.675	13.17
461.878	12.99
462.081	12.91
462.284	13.52
462.486	13.32
462.689	13.16
462.892	12.18
463.095	12.57
463.298	12.98
463.5	12.35
463.703	12.49
463.906	12.55
464.109	12.63
464.311	12.91
464.514	12.21
464.717	12.72
464.92	12.93
465.122	13.17
465.325	12.97
465.528	12.63
465.73	12.4
465.933	12.67
466.135	12.71
466.338	12.46
466.541	12.18
466.743	12.31
466.946	12.55
467.148	13.4
467.351	12.39
467.553	12.35
467.756	12.08
467.958	12.37
468.161	12.28
468.363	12.68
468.566	12.89
468.768	13.26
468.971	13.3
469.173	12.65
469.375	12.27
469.578	13.91
469.78	13.44
469.983	13.89
470.185	13.94
470.387	14.13
470.59	14.04
470.792	14.43
470.994	14.89
471.196	14.95
471.399	14.9
471.601	14.38
471.803	13.95
472.005	14.65
472.208	14.36
472.41	14.48
472.612	14.44
472.814	14.11
473.016	13.86
473.218	13.76
473.421	13.68
473.623	13.84
473.825	13.58
474.027	14.15
474.229	13.31
474.431	13.54
474.633	13.51
474.835	13.42
475.037	13.45
475.239	12.71
475.441	11.93
475.643	11.74
475.845	12.05
476.047	12.78
476.249	12.51
476.451	12.68
476.653	12.4
476.855	12.2
477.057	12.43
477.258	11.79
477.46	12.02
477.662	12.22
477.864	12.34
478.066	12
478.268	11.85
478.469	12.21
478.671	12.05
478.873	12.05
479.075	12.12
479.276	12.02
479.478	12.21
479.68	11.94
479.882	12.41
480.083	12.57
480.285	12.38
480.487	12.58
480.688	12.53
480.89	12.18
481.091	12.29
481.293	12.23
481.495	11.98
481.696	12.02
481.898	11.86
482.099	11.6
482.301	11.54
482.502	11.54
482.704	11.3
482.905	11.13
483.107	11.31
483.308	11.31
483.51	11.17
483.711	11.19
483.913	11.2
484.114	11.32
484.315	11.47
484.517	11.39
484.718	11.58
484.92	11.46
485.121	11.2
485.322	11.14
485.524	10.86
485.725	10.83
485.926	10.83
486.127	10.94
486.329	11
486.53	10.95
486.731	10.99
486.932	10.9
487.134	11
487.335	11.18
487.536	11.34
487.737	11.5
487.938	11.75
488.139	11.95
488.341	11.82
488.542	11.9
488.743	11.57
488.944	11.51
489.145	11.38
489.346	11.34
489.547	11.53
489.748	11.49
489.949	11.34
490.15	11.13
490.351	11.04
490.552	11.06
490.753	10.94
490.954	11.24
491.155	11.47
491.356	11.61
491.557	11.8
491.758	11.66
491.959	11.62
492.159	11.74
492.36	11.68
492.561	11.72
492.762	12.11
492.963	12.28
493.164	12.02
493.364	11.82
493.565	11.83
493.766	11.53
493.967	11.79
494.167	11.66
494.368	11.81
494.569	12.36
494.769	12.26
494.97	12.21
495.171	12.46
495.371	13.19
495.572	13.68
495.773	13.36
495.973	13.48
496.174	13.32
496.375	13.66
496.575	13.17
496.776	12.99
496.976	12.9
497.177	12.4
497.377	12.53
497.578	12.43
497.778	12.38
497.979	12.66
498.179	12.39
498.38	12.91
498.58	13.03
498.78	13.03
498.981	13.13
499.181	12.95
499.382	13.59
499.582	13.09
499.782	13.01
499.983	12.53
500.183	12.88
500.383	13.37
500.584	12.67
500.784	12.33
500.984	12.61
501.184	12.37
501.385	13.03
501.585	12.19
501.785	12.57
501.985	11.67
502.185	12.05
502.386	11.52
502.586	12.01
502.786	12.49
502.986	13.08
503.186	13.18
503.386	13.42
503.586	13.37
503.786	14.05
503.987	14.03
504.187	14.84
504.387	14.95
504.587	15.38
504.787	14.78
504.987	14.31
505.187	14.1
505.387	14.68
505.587	14.95
505.786	14.75
505.986	14.65
506.186	14.59
506.386	14.35
506.586	14.52
506.786	14.42
506.986	14.53
507.186	14.69
507.386	14.86
507.585	14.72
507.785	14.31
507.985	13.87
508.185	14
508.384	13.73
508.584	13.64
508.784	13.57
508.984	13.28
509.183	13.2
509.383	13.08
509.583	12.89
509.782	12.72
509.982	13.02
510.182	13.52
510.381	13.49
510.581	13.28
510.781	13.63
510.98	13.53
511.18	14
511.379	14.21
511.579	14.52
511.778	14.68
511.978	14.58
512.177	14.5
512.377	14.52
512.576	14.74
512.776	15.37
512.975	15.41
513.175	15.29
513.374	15.25
513.573	15.49
513.773	15.6
513.972	15.3
514.172	15.8
514.371	15.71
514.57	15.62
514.77	15.67
514.969	15.26
515.168	15.37
515.367	15.04
515.567	15.1
515.766	14.71
515.965	14.52
516.164	14.6
516.364	14.62
516.563	15.05
516.762	15.24
516.961	14.71
517.16	15.11
517.359	15.04
517.559	15.29
517.758	15.17
517.957	14.94
518.156	15.02
518.355	15.07
518.554	15.14
518.753	14.88
518.952	14.75
519.151	15.16
519.35	15.06
519.549	14.75
519.748	15.06
519.947	15.17
520.146	16.11
520.345	16.73
520.544	16.65
520.743	16.77
520.942	16.58
521.141	16.68
521.339	16.53
521.538	16.66
521.737	17.03
521.936	16.77
522.135	16.87
522.333	16.42
522.532	16.09
522.731	16.22
522.93	15.55
523.129	16.02
523.327	16.48
523.526	16.86
523.725	16.79
523.923	16.87
524.122	16.78
524.321	16.69
524.519	16.71
524.718	16.32
524.917	16.36
525.115	16.79
525.314	16.96
525.512	16.54
525.711	16.32
525.909	16.26
526.108	16.06
526.306	16.17
526.505	16.11
526.703	16.14
526.902	16.33
527.1	16.22
527.299	16.24
527.497	15.97
527.696	16.07
527.894	16.17
528.092	16.16
528.291	16.4
528.489	16.5
528.688	16.58
528.886	16.54
529.084	16.47
529.283	16.66
529.481	16.47
529.679	16.46
529.877	16.31
530.076	16.29
530.274	16.24
530.472	16.04
530.67	16.11
530.869	16.35
531.067	16.33
531.265	16.77
531.463	16.7
531.661	17.27
531.859	17.72
532.057	18.01
532.255	18.15
532.454	18.28
532.652	18.36
532.85	18.49
533.048	18.62
533.246	18.83
533.444	18.7
533.642	18.58
533.84	18.17
534.038	17.97
534.236	17.7
534.434	17.85
534.632	18.03
534.83	18.11
535.027	18.14
535.225	18.18
535.423	18.65
535.621	18.64
535.819	19.09
536.017	19.72
536.215	20.03
536.412	20.53
536.61	20.35
536.808	20.75
537.006	20.7
537.203	21.04
537.401	20.75
537.599	20.32
537.797	20.63
537.994	20.9
538.192	20.1
538.39	20.11
538.587	20.09
538.785	20.17
538.983	20.32
539.18	20.41
539.378	20.15
539.575	20.13
539.773	20.26
539.97	20.04
540.168	20.09
540.366	20.62
540.563	20.81
540.761	21.14
540.958	21.12
541.155	20.99
541.353	21.31
541.55	21.15
541.748	21.58
541.945	21.82
542.143	22.29
542.34	22.36
542.537	22.33
542.735	22.37
542.932	22.28
543.129	22.63
543.327	22.79
543.524	22.67
543.721	23.09
543.919	23.18
544.116	23.52
544.313	23.69
544.51	23.74
544.708	23.77
544.905	24.08
545.102	23.83
545.299	23.93
545.496	23.74
545.693	24.02
545.891	24
546.088	24.13
546.285	23.98
546.482	23.73
546.679	24.11
546.876	24.42
547.073	24.3
547.27	24.73
547.467	25.08
547.664	25.69
547.861	25.64
548.058	26.69
548.255	26.93
548.452	27.22
548.649	27.35
548.846	27.57
549.043	28.27
549.24	28.35
549.437	28.09
549.633	27.82
549.83	27.93
550.027	29.36
550.224	29.56
550.421	29.51
550.618	29.25
550.814	29.47
551.011	29.5
551.208	29.04
551.405	29.26
551.601	30.05
551.798	30.18
551.995	30.79
552.191	29.98
552.388	29.68
552.585	29.82
552.781	30.4
552.978	31.15
553.175	31.18
553.371	31.56
553.568	32.04
553.764	32.19
553.961	32.86
554.157	32.5
554.354	32.95
554.55	33.1
554.747	33.38
554.943	33.97
555.14	33.78
555.336	33.91
555.533	34.08
555.729	33.96
555.926	33.87
556.122	33.81
556.318	33.91
556.515	34.33
556.711	35
556.907	35.03
557.104	34.64
557.3	34.38
557.496	34.91
557.693	35.15
557.889	35.28
558.085	35.18
558.281	35.41
558.478	35.95
558.674	35.73
558.87	35.22
559.066	35.65
559.262	35.55
559.459	36.64
559.655	36.49
559.851	37.02
560.047	37.04
560.243	37.74
560.439	37.78
560.635	37.34
560.831	37.54
561.027	37.76
561.223	37.41
561.419	37.76
561.615	37.81
561.811	37.68
562.007	37.33
562.203	37.31
562.399	37.93
562.595	38.25
562.791	39.42
562.987	39.34
563.183	39.62
563.379	39.48
563.575	39.33
563.771	38.91
563.966	39.07
564.162	38.95
564.358	39.52
564.554	39.19
564.75	39.54
564.945	39.07
565.141	39.14
565.337	39.17
565.533	40.04
565.728	40.18
565.924	40.78
566.12	40.6
566.315	40.98
566.511	41.23
566.707	41.37
566.902	41.38
567.098	41.75
567.293	41.91
567.489	42.13
567.684	41.82
567.88	42.2
568.076	42.43
568.271	43.06
568.467	43.25
568.662	42.93
568.858	43
569.053	43.2
569.248	42.8
569.444	42.79
569.639	42.83
569.835	43.28
570.03	42.84
570.225	41.97
570.421	41.78
570.616	41.74
570.812	41.98
571.007	41.79
571.202	41.5
571.397	41.59
571.593	41.97
571.788	42.58
571.983	42.32
572.178	42.51
572.374	43.13
572.569	43.23
572.764	43.28
572.959	43.26
573.154	43.43
573.35	43.35
573.545	43.83
573.74	43.19
573.935	42.29
574.13	42.27
574.325	42.99
574.52	43.33
574.715	43.69
574.91	43.47
575.105	43.45
575.3	43.46
575.495	44.01
575.69	43.97
575.885	44.73
576.08	45.51
576.275	45.97
576.47	45.3
576.665	45.13
576.86	44.67
577.055	45.33
577.25	45.7
577.444	46.25
577.639	45.94
577.834	45.99
578.029	46.5
578.224	46.27
578.418	46.4
578.613	46.84
578.808	46.74
579.003	47.54
579.197	47.96
579.392	48.2
579.587	48.03
579.781	48.54
579.976	49.01
580.171	48.66
580.365	48.67
580.56	49.12
580.755	49.54
580.949	49.96
581.144	49.62
581.338	48.6
581.533	48.36
581.727	48.31
581.922	48.23
582.116	47.88
582.311	48.34
582.505	48.42
582.7	47.82
582.894	47.97
583.089	48.49
583.283	48.87
583.478	49.42
583.672	49.55
583.866	50.76
584.061	50.65
584.255	50.78
584.449	50.77
584.644	51.33
584.838	51.85
585.032	51.55
585.226	50.96
585.421	51.35
585.615	51.9
585.809	52.07
586.003	51.37
586.198	51.28
586.392	51.12
586.586	50.66
586.78	50.06
586.974	50.41
587.168	50.83
587.363	50.99
587.557	50.77
587.751	50.18
587.945	50.29
588.139	50.09
588.333	50.66
588.527	51.55
588.721	51.39
588.915	51.6
589.109	50.56
589.303	50.57
589.497	50.39
589.691	50.37
589.885	51.1
590.079	51.04
590.273	51.06
590.466	50.71
590.66	49.69
590.854	49.97
591.048	49.96
591.242	50.8
591.436	50.53
591.629	51.04
591.823	50.72
592.017	50.63
592.211	50.72
592.404	51
592.598	50.94
592.792	51.79
592.986	52.07
593.179	51.74
593.373	51.82
593.567	52.05
593.76	52.08
593.954	52.49
594.147	52.34
594.341	52.54
594.535	52.37
594.728	52.91
594.922	52.51
595.115	52.36
595.309	52.4
595.502	51.83
595.696	51.96
595.889	51.62
596.083	51.53
596.276	51.36
596.47	50.83
596.663	50.83
596.856	50.87
597.05	51.77
597.243	52.2
597.437	52.45
597.63	53.18
597.823	53.7
598.017	54.08
598.21	54.04
598.403	54.37
598.596	55.26
598.79	55.87
598.983	55.15
599.176	53.9
599.369	53.12
599.563	53.53
599.756	53.9
599.949	53.77
600.142	53.73
600.335	53.09
600.528	52.66
600.722	51.46
600.915	51.13
601.108	52.1
601.301	52.73
601.494	53.18
601.687	53.13
601.88	52.61
602.073	52.56
602.266	52.58
602.459	53.49
602.652	52.97
602.845	53.92
603.038	53.17
603.231	53.04
603.424	52.56
603.617	52.25
603.809	52.15
604.002	52.53
604.195	52.64
604.388	52.23
604.581	52.08
604.774	52.68
604.966	52.09
605.159	52.89
605.352	52.47
605.545	52.9
605.737	53.55
605.93	53.75
606.123	53.11
606.316	52.52
606.508	52.79
606.701	53.14
606.894	53.67
607.086	53.81
607.279	53.84
607.471	54.24
607.664	54.42
607.857	54.34
608.049	54.61
608.242	55.75
608.434	55.77
608.627	56.41
608.819	56.51
609.012	55.4
609.204	55.74
609.397	55.82
609.589	55.73
609.782	55.69
609.974	55.87
610.166	55.42
610.359	54.62
610.551	55.1
610.743	54.97
610.936	54.4
611.128	56.52
611.32	56.81
611.513	57
611.705	57.3
611.897	57.4
612.09	57.8
612.282	58.37
612.474	58.28
612.666	58.35
612.858	58.84
613.051	58.9
613.243	58.23
613.435	58.5
613.627	58.91
613.819	58.08
614.011	59.21
614.203	60.17
614.395	60.14
614.588	59.8
614.78	60.64
614.972	60.37
615.164	61.75
615.356	62.1
615.548	61.44
615.74	61.52
615.932	63.24
616.124	62.65
616.315	61.57
616.507	61.18
616.699	61.88
616.891	61.53
617.083	61.49
617.275	61.71
617.467	61.63
617.659	61.62
617.85	61.03
618.042	60.89
618.234	60.19
618.426	60.09
618.618	60.31
618.809	60.37
619.001	60.47
619.193	60.5
619.384	59.5
619.576	59.57
619.768	59.91
619.959	59.77
620.151	59.23
620.343	59.52
620.534	59.37
620.726	59.77
620.917	60.17
621.109	60.08
621.301	59.68
621.492	60
621.684	58.65
621.875	59.27
622.067	59.28
622.258	58.82
622.45	59.01
622.641	59.73
622.832	59.82
623.024	59.84
623.215	60.33
623.407	60.76
623.598	60.57
623.789	61.18
623.981	60.52
624.172	61.65
624.363	61.72
624.555	61.34
624.746	60.11
624.937	60.05
625.129	59.56
625.32	58.75
625.511	58.51
625.702	57.91
625.893	57.79
626.085	58
626.276	57.46
626.467	57.51
626.658	58.25
626.849	58.41
627.04	58.29
627.231	58.31
627.422	58.29
627.614	58.34
627.805	59.12
627.996	60
628.187	61.42
628.378	61.19
628.569	61.18
628.76	60.16
628.951	60.96
629.142	61.24
629.332	61.72
629.523	61.93
629.714	62.75
629.905	62.26
630.096	62.15
630.287	61.58
630.478	61.43
630.669	61.73
630.859	62.08
631.05	62.42
631.241	61.99
631.432	61.77
631.623	61.37
631.813	60.82
632.004	61.54
632.195	61.6
632.385	60.92
632.576	60.57
632.767	60.7
632.957	61.11
633.148	60.61
633.339	60.95
633.529	60.96
633.72	61.33
633.91	61.59
634.101	61.88
634.292	61.73
634.482	61.82
634.673	63.28
634.863	63.25
635.054	63.97
635.244	64.78
635.435	65.16
635.625	65.38
635.815	65.9
636.006	65.56
636.196	65.14
636.387	64.43
636.577	64.18
636.767	64.46
636.958	64.07
637.148	63.64
637.338	62.27
637.529	62.87
637.719	63.72
637.909	63.57
638.099	63.08
638.29	63.19
638.48	63.39
638.67	64.42
638.86	63.83
639.05	64.31
639.241	64.8
639.431	67.06
639.621	66.15
639.811	66.12
640.001	66.02
640.191	66.67
640.381	66.57
640.571	67.03
640.761	66.68
640.951	66.58
641.141	66.3
641.331	65.94
641.521	64.28
641.711	63.77
641.901	63.12
642.091	63.54
642.281	64.82
642.471	65.28
642.661	66.07
642.851	66.08
643.041	66.42
643.231	66.78
643.42	66.43
643.61	67.17
643.8	67.38
643.99	66.67
644.18	66.92
644.369	65.66
644.559	65.81
644.749	66.26
644.939	65.1
645.128	65.96
645.318	66.49
645.508	66.3
645.697	66.26
645.887	66.73
646.076	68.23
646.266	67.7
646.456	68.78
646.645	69.24
646.835	67.5
647.024	67.93
647.214	66.92
647.403	65.51
647.593	65.8
647.782	66.4
647.972	65.35
648.161	64.64
648.351	64.51
648.54	63.07
648.73	61.99
648.919	63.92
649.108	64.09
649.298	64.33
649.487	65.92
649.677	65.41
649.866	65.08
650.055	66.05
650.244	65.67
650.434	65.66
650.623	66.11
650.812	66.47
651.002	65.72
651.191	66.07
651.38	65.62
651.569	65.91
651.758	66.65
651.947	66.3
652.137	66.31
652.326	67.62
652.515	66.9
652.704	67.35
652.893	68.07
653.082	67.93
653.271	69.19
653.46	69.65
653.649	68.65
653.838	68.41
654.027	68.16
654.216	66.39
654.405	65.37
654.594	67.51
654.783	66.1
654.972	65.39
655.161	65.58
655.35	63.88
655.539	63.47
655.728	64
655.916	64.14
656.105	64.47
656.294	65.88
656.483	66.74
656.672	66.52
656.86	66.29
657.049	66.25
657.238	65.23
657.427	65.11
657.615	65.79
657.804	65.21
657.993	65.16
658.181	64.78
658.37	63.75
658.559	63.02
658.747	62.76
658.936	63.76
659.125	64.94
659.313	66.14
659.502	66.56
659.69	65.04
659.879	65.39
660.067	64.36
660.256	64.07
660.444	66.16
660.633	65.62
660.821	65.66
661.01	66.14
661.198	65.77
661.387	65.51
661.575	67.12
661.763	68.74
661.952	68.34
662.14	70.6
662.328	70.72
662.517	69.94
662.705	70.85
662.893	70.53
663.082	70.31
663.27	70.65
663.458	71.4
663.646	70.2
663.834	70.15
664.023	70.32
664.211	70.06
664.399	70.93
664.587	71.64
664.775	71.87
664.963	72.79
665.152	72.19
665.34	69.23
665.528	67.51
665.716	66.55
665.904	65.86
666.092	66.34
666.28	66.07
666.468	67.03
666.656	66.84
666.844	66.52
667.032	65.18
667.22	65.37
667.408	67.88
667.596	68.42
667.784	70.07
667.971	72.29
668.159	73.22
668.347	72.81
668.535	72.71
668.723	72.56
668.911	71.93
669.098	72.6
669.286	73.33
669.474	71.44
669.662	71.22
669.849	71.07
670.037	70.05
670.225	70.26
670.413	71.83
670.6	71.43
670.788	72.43
670.976	73.71
671.163	74.74
671.351	74.97
671.538	75.6
671.726	76.4
671.913	74.64
672.101	73.29
672.289	72.94
672.476	71.46
672.664	71.67
672.851	71.64
673.039	73.01
673.226	72.59
673.413	72.68
673.601	73.43
673.788	72.88
673.976	73.7
674.163	73.02
674.35	72.83
674.538	73.11
674.725	73.71
674.912	72.67
675.1	71.43
675.287	70.12
675.474	70.23
675.662	69.56
675.849	72.38
676.036	72.08
676.223	74.32
676.411	73.74
676.598	73.92
676.785	73.95
676.972	74.18
677.159	74.02
677.346	74.46
677.533	73.42
677.721	73.35
677.908	71.54
678.095	72.34
678.282	71.38
678.469	71.83
678.656	71.8
678.843	70.95
679.03	70.08
679.217	70.34
679.404	69.97
679.591	69.88
679.778	70.6
679.964	70.33
680.151	69.9
680.338	70.72
680.525	70.62
680.712	69.85
680.899	68.82
681.086	69.51
681.272	69.17
681.459	69
681.646	70.69
681.833	70.58
682.02	70.98
682.206	70.86
682.393	70.61
682.58	71.6
682.766	72.12
682.953	72.62
683.14	72.87
683.326	72.49
683.513	73.67
683.7	71.92
683.886	72.41
684.073	71.36
684.259	71.09
684.446	70.71
684.632	68.71
684.819	68.79
685.005	70.23
685.192	70.91
685.378	71.17
685.565	71.3
685.751	72.42
685.938	70.95
686.124	72.14
686.31	72.47
686.497	72.49
686.683	73.11
686.87	71.67
687.056	71.71
687.242	71.59
687.429	72.57
687.615	71.43
687.801	70.72
687.987	71.32
688.174	69.94
688.36	70.18
688.546	70.98
688.732	70.18
688.918	72.22
689.105	71.16
689.291	71.85
689.477	71.7
689.663	72.12
689.849	72.11
690.035	73.81
690.221	74.36
690.407	75.05
690.593	75.5
690.779	77.31
690.965	75.8
691.151	76.71
691.337	74.08
691.523	72.5
691.709	73.98
691.895	74.13
692.081	73.88
692.267	73.41
692.453	73.02
692.639	72.02
692.825	70.54
693.011	71.94
693.196	72.57
693.382	72.93
693.568	72.53
693.754	72.87
693.94	72.21
694.125	70.37
694.311	71.71
694.497	71.74
694.682	69.29
694.868	68.86
695.054	68.65
695.239	67.92
695.425	69.12
695.611	70.05
695.796	67.65
695.982	68.41
696.168	67.38
696.353	66.92
696.539	67.45
696.724	68.54
696.91	68.83
697.095	68.01
697.281	67.65
697.466	66.08
697.652	66.39
697.837	66.9
698.023	66.4
698.208	68.12
698.393	67.95
698.579	67.25
698.764	68.03
698.949	66.69
699.135	68.31
699.32	67.89
699.505	70.74
699.691	70.75
699.876	71.73
700.061	72.45
700.246	71.43
700.432	71.39
700.617	71.61
700.802	72.64
700.987	75.73
701.172	75.76
701.358	77.14
701.543	75.28
701.728	77.19
701.913	76.6
702.098	77.29
702.283	79.44
702.468	81.98
702.653	82.26
702.838	80.6
703.023	80.93
703.208	79.55
703.393	80.02
703.578	82.1
703.763	82.2
703.948	83.52
704.133	82.72
704.318	84.13
704.503	83.96
704.688	84.61
704.873	85.97
705.057	85.58
705.242	87.1
705.427	86.81
705.612	86.26
705.797	85.52
705.981	86.14
706.166	87.54
706.351	86.15
706.536	84.98
706.72	84.63
706.905	83.69
707.09	83.05
707.274	83.56
707.459	82.23
707.644	82.85
707.828	82.6
708.013	81.02
708.197	79.68
708.382	77.6
708.567	77.62
708.751	77.39
708.936	78.7
709.12	80.05
709.305	78.22
709.489	79.41
709.673	78.21
709.858	78.56
710.042	77.91
710.227	79.15
710.411	79.96
710.596	79.86
710.78	79.75
710.964	80.66
711.149	79.29
711.333	80.41
711.517	80.99
711.702	82.28
711.886	81.24
712.07	81.74
712.254	81.48
712.438	80.56
712.623	82.92
712.807	83.36
712.991	80.85
713.175	80.18
713.359	80
713.544	80.76
713.728	78.26
713.912	77.27
714.096	77.45
714.28	75.05
714.464	76.1
714.648	71.29
714.832	70.55
715.016	70.43
715.2	70.42
715.384	69.18
715.568	66.89
715.752	66.19
715.936	67.46
716.12	68.67
716.304	69.32
716.488	67.32
716.671	68.71
716.855	68.6
717.039	66.62
717.223	68.28
717.407	68.89
717.59	69.75
717.774	73.74
717.958	73.15
718.142	71.31
718.325	72.07
718.509	73.95
718.693	74.9
718.877	74.65
719.06	76.87
719.244	76.63
719.428	78.05
719.611	77.66
719.795	75.81
719.978	75.92
720.162	77.56
720.345	79.28
720.529	78.52
720.713	78
720.896	80.28
721.08	84.19
721.263	82.05
721.446	82.42
721.63	83.32
721.813	79.92
721.997	81.43
722.18	78.7
722.364	77.18
722.547	77.46
722.73	78.97
722.914	76.64
723.097	74.91
723.28	78.24
723.464	79.04
723.647	78.94
723.83	81.05
724.013	77.18
724.197	80.32
724.38	80.54
724.563	82.32
724.746	81.19
724.929	79.69
725.112	79.34
725.296	79.32
725.479	75.01
725.662	78.21
725.845	80.5
726.028	82.79
726.211	82.5
726.394	84.2
726.577	82.67
726.76	84.1
726.943	87.81
727.126	88.34
727.309	85.12
727.492	87.5
727.675	87.54
727.858	83.97
728.041	84.24
728.224	82.93
728.407	82.62
728.589	81.36
728.772	79.37
728.955	77.46
729.138	74.98
729.321	74.42
729.503	76.31
729.686	73.61
729.869	74.13
730.052	70.71
730.234	70.88
730.417	68.43
730.6	70.76
730.782	73.71
730.965	72.64
731.148	75.14
731.33	78.75
731.513	78.04
731.695	78.56
731.878	79.61
732.061	83.55
732.243	84.47
732.426	87.3
732.608	86.66
732.791	86.44
732.973	87.98
733.156	86.85
733.338	82.94
733.52	81.3
733.703	84.47
733.885	87.56
734.068	89.32
734.25	87.55
734.432	86.55
734.615	89.14
734.797	87.67
734.979	88.98
735.162	89.26
735.344	93.41
735.526	96.3
735.708	89.95
735.891	90.08
736.073	86.28
736.255	86.27
736.437	87.83
736.619	86.61
736.802	88.97
736.984	86.27
737.166	85.67
737.348	84.84
737.53	85.76
737.712	88.73
737.894	86.04
738.076	86.58
738.258	90.33
738.44	89.47
738.622	87.53
738.804	87.52
738.986	91.78
739.168	91.68
739.35	94.37
739.532	93.27
739.714	94.21
739.896	96.74
740.078	99.54
740.259	96.25
740.441	95.51
740.623	99.92
740.805	99.27
740.987	100.04
741.168	101.69
741.35	101.37
741.532	106.26
741.714	105.14
741.895	103.66
742.077	104.5
742.259	110.78
742.44	116.58
742.622	119.66
742.804	123.32
742.985	114.36
743.167	116.45
743.348	116.62
743.53	109.57
743.711	112.92
743.893	116.38
744.075	115.17
744.256	109.28
744.438	106.89
744.619	106.22
744.8	106.4
744.982	113.37
745.163	114.16
745.345	119.57
745.526	120.89
745.707	118.93
745.889	118.86
746.07	122.22
746.252	121.99
746.433	121.25
746.614	113.07
746.795	109.74
746.977	107.8
747.158	105.7
747.339	101.37
747.52	105.85
747.702	108.29
747.883	112.06
748.064	109.04
748.245	107.35
748.426	106.62
748.607	109.79
748.788	104.17
748.97	105.61
749.151	101.41
749.332	102.81
749.513	99.35
749.694	97.29
749.875	94.33
750.056	96.77
750.237	99.91
750.418	99.17
750.599	96.09
750.78	99.18
750.96	99.98
751.141	106.34
751.322	103.55
751.503	103.55
751.684	106.05
751.865	104.19
752.046	99.49
752.226	99.67
752.407	103.08
752.588	106.41
752.769	112.48
752.949	115.11
753.13	113.09
753.311	117.07
753.492	124.39
753.672	123.28
753.853	126.58
754.034	135.95
754.214	135.58
754.395	132.47
754.575	137.52
754.756	132.36
754.937	125.72
755.117	118.4
755.298	116.19
755.478	112.55
755.659	110.41
755.839	108.87
756.02	102.23
756.2	105.35
756.381	103.79
756.561	102.06
756.741	107.67
756.922	102.29
757.102	111.99
757.283	106.71
757.463	99.66
757.643	97.67
757.823	94.21
758.004	91.99
758.184	85.41
758.364	85.9
758.545	80.19
758.725	74.18
758.905	78.79
759.085	74.93
759.265	76.45
759.446	79.69
759.626	75.87
759.806	77.38
759.986	75.17
760.166	74.38
760.346	74.19
760.526	72.21
760.706	73.33
760.886	69.24
761.066	70.13
761.246	68.69
761.426	66.24
761.606	67.57
761.786	69.44
761.966	71.19
762.146	72.9
762.326	71.89
762.506	72.55
762.686	73.02
762.866	75.33
763.046	77.52
763.225	79.23
763.405	79.43
763.585	83.45
763.765	81.53
763.945	84.85
764.124	86.04
764.304	86.84
764.484	92.94
764.664	93.94
764.843	94.73
765.023	94.67
765.203	95.96
765.382	100.76
765.562	101
765.741	103.74
765.921	102.72
766.101	105.08
766.28	106.39
766.46	109.73
766.639	112.3
766.819	117.87
766.998	120.01
767.178	120.01
767.357	120.31
767.537	121.11
767.716	122.31
767.896	123.75
768.075	125.38
768.254	128.77
768.434	124.58
768.613	122.68
768.792	119.46
768.972	116.83
769.151	121.92
769.33	120.82
769.51	122.95
769.689	127.39
769.868	131.46
770.047	121.57
770.226	116.4
770.406	114.48
770.585	116.64
770.764	114.94
770.943	114.9
771.122	115.48
771.301	112.5
771.48	114.77
771.66	114.77
771.839	112.9
772.018	121.93
772.197	128.25
772.376	131.35
772.555	132.86
772.734	138.23
772.913	132.42
773.092	143.08
773.271	145.93
773.449	137.54
773.628	133.83
773.807	130.32
773.986	124.43
774.165	127.83
774.344	129.71
774.523	125.6
774.701	127.34
774.88	131.36
775.059	122.98
775.238	126.74
775.417	128.15
775.595	129.01
775.774	135
775.953	148.24
776.131	138.2
776.31	139.76
776.489	145.41
776.667	141.17
776.846	149.46
777.025	145.81
777.203	147.36
777.382	145.15
777.56	154.38
777.739	151.85
777.917	143.83
778.096	150.79
778.274	143.76
778.453	145.81
778.631	144.84
778.81	143.14
778.988	142.91
779.166	147
779.345	141.89
779.523	139.48
779.702	135.69
779.88	137.23
780.058	135.03
780.237	132.58
780.415	122.6
780.593	131.43
780.771	134.05
780.95	139.48
781.128	137.15
781.306	147.02
781.484	139.27
781.662	148.33
781.841	144.96
782.019	139.04
782.197	135.23
782.375	137.09
782.553	129.84
782.731	126.88
782.909	125.75
783.087	128.08
783.265	123.22
783.443	123.6
783.621	117.38
783.799	121.6
783.977	121.67
784.155	125.77
784.333	134.1
784.511	143.91
784.689	136.79
784.867	133.23
785.045	130.5
785.223	130.06
785.4	128.26
785.578	129.84
785.756	119.85
785.934	123.11
786.112	122.55
786.289	113.12
786.467	105.31
786.645	109.3
786.823	106.63
787	105.68
787.178	102.72
787.356	104.75
787.533	107.62
787.711	106.02
787.889	110.91
788.066	107.49
788.244	112.98
788.421	120.31
788.599	118.77
788.776	122.34
788.954	123.98
789.131	130.2
789.309	127.12
789.486	119.86
789.664	127.12
789.841	121.7
790.019	126.54
790.196	127.8
790.373	126.38
790.551	128.9
790.728	137.93
790.906	142.73
791.083	146.28
791.26	147.47
791.437	147.25
791.615	145.74
791.792	148.4
791.969	155.5
792.146	158.04
792.324	146.39
792.501	147.04
792.678	139.1
792.855	140.29
793.032	130.84
793.209	135.82
793.387	140.62
793.564	134.49
793.741	130.43
793.918	119.3
794.095	112.82
794.272	116.11
794.449	112.04
794.626	119.18
794.803	118.01
794.98	128
795.157	115.37
795.334	112.37
795.511	117.88
795.688	114.2
795.864	114.86
796.041	115.31
796.218	110.35
796.395	110.28
796.572	106.81
796.749	98.45
796.925	93.54
797.102	99.35
797.279	105.75
797.456	112.22
797.632	117.09
797.809	125.17
797.986	115.61
798.162	117.33
798.339	118.48
798.516	111.67
798.692	116
798.869	115.49
799.046	115.44
799.222	110.88
799.399	100
799.575	99.07
799.752	104.21
799.928	110.55
800.105	119.13
800.281	116.62
800.458	126.05
800.634	131.33
800.811	146.1
800.987	140.94
801.163	144.75
801.34	138.49
801.516	137.33
801.692	116.13
801.869	121.9
802.045	120.48
802.221	126.44
802.398	122.95
802.574	120.09
802.75	108.99
802.926	105.14
803.103	105.09
803.279	119.62
803.455	124.02
803.631	123.97
803.807	117.87
803.983	107.88
804.16	107.08
804.336	107.92
804.512	110.2
804.688	113.97
804.864	113.41
805.04	114.44
805.216	103.94
805.392	98.7
805.568	109.77
805.744	112.47
805.92	119.09
806.096	109.07
806.272	100.5
806.448	89.84
806.623	93.26
806.799	106.53
806.975	110.55
807.151	111.23
807.327	111.87
807.503	111.53
807.678	106.97
807.854	104.98
808.03	119.29
808.206	131.34
808.381	129.37
808.557	116.97
808.733	104.62
808.908	101.63
809.084	113.93
809.26	124.13
809.435	127.85
809.611	131.07
809.787	126.44
809.962	130.76
810.138	121.08
810.313	133.52
810.489	150.9
810.664	155.65
810.84	153.94
811.015	131.17
811.191	123.08
811.366	116.35
811.542	110.98
811.717	113.93
811.892	108.61
812.068	108.66
812.243	109.09
812.419	98.42
812.594	101.4
812.769	104.77
812.944	107.1
813.12	102.51
813.295	96.97
813.47	111.37
813.645	113.34
813.821	97.96
813.996	88.49
814.171	78.32
814.346	78.88
814.521	79.17
814.697	76.91
814.872	82.57
815.047	79.64
815.222	76.39
815.397	59.25
815.572	61.77
815.747	61.77
815.922	48.35
816.097	63.78
816.272	65.38
816.447	66.16
816.622	61.37
816.797	48.87
816.972	43.22
817.147	52.9
817.322	65.53
817.496	69.2
817.671	93.28
817.846	99.14
818.021	87.81
818.196	98.97
818.371	96.33
818.545	100.18
818.72	111.81
818.895	121.48
819.069	109.53
819.244	100.32
819.419	97.57
819.594	83.88
819.768	78.94
819.943	74.18
820.117	67.06
820.292	64.64
820.467	60.7
820.641	60.15
820.816	56.2
820.99	58.25
821.165	57.71
821.339	55.23
821.514	55.03
821.688	54.93
821.863	54.32
822.037	55.38
822.212	56.86
822.386	57.98
822.56	58.25
822.735	62.31
822.909	61.55
823.084	62.3
823.258	68.48
823.432	72.63
823.606	73.97
823.781	79
823.955	78.32
824.129	83.48
824.303	87.68
824.478	91.47
824.652	84.94
824.826	82.25
825	81.25
825.174	75.89
825.348	74.05
825.523	73.92
825.697	72.34
825.871	72.51
826.045	70.32
826.219	72.39
826.393	69.36
826.567	70.22
826.741	73.59
826.915	76.64
827.089	76.91
827.263	81.55
827.437	89.35
827.611	89.68
827.784	98.2
827.958	94.79
828.132	88
828.306	93.48
828.48	102.02
828.654	96.86
828.827	99.5
829.001	106.73
829.175	93.35
829.349	82.78
829.522	89.21
829.696	85.27
829.87	101.4
830.044	94.5
830.217	81.36
830.391	86.06
830.565	103.1
830.738	101.83
830.912	89.57
831.085	95.21
831.259	94.92
831.432	85.65
831.606	78.32
831.779	73.11
831.953	92.48
832.126	90.99
832.3	78.59
832.473	77.1
832.647	77.92
832.82	86.27
832.994	87.75
833.167	93.79
833.34	97.12
833.514	94.9
833.687	96.09
833.86	88.32
834.034	90.27
834.207	105.01
834.38	93.91
834.553	99.01
834.727	101.86
834.9	104.85
835.073	93.54
835.246	98.28
835.419	120.9
835.593	121.65
835.766	143.08
835.939	159.95
836.112	139.53
836.285	194.9
836.458	229.02
836.631	193.97
836.804	161.57
836.977	161.32
837.15	150.64
837.323	128.49
837.496	118.69
837.669	110.5
837.842	97.63
838.015	104.66
838.188	86.67
838.361	90.12
838.533	97.57
838.706	104.96
838.879	97.39
839.052	110.73
839.225	103.34
839.398	106.5
839.57	110.66
839.743	121.24
839.916	130.61
840.088	131.43
840.261	127.52
840.434	120.94
840.607	117.03
840.779	132.18
840.952	116.52
841.124	110
841.297	119.44
841.47	103.98
841.642	104.74
841.815	97.58
841.987	116.12
842.16	124.14
842.332	164.58
842.505	151.45
842.677	143.52
842.85	135.02
843.022	178.28
843.194	175.28
843.367	188.25
843.539	256
843.712	278.67
843.884	219.87
844.056	192.47
844.229	168
844.401	175.25
844.573	185.3
844.745	175.21
844.918	181.44
845.09	189.99
845.262	200.59
845.434	173.73
845.606	162.13
845.779	217.9
845.951	226.48
846.123	251.69
846.295	245.19
846.467	276.87
846.639	371.86
846.811	279.11
846.983	408.31
847.155	764.79
847.327	-7990.91
847.499	857.6
847.671	725.83
847.843	1193.1
848.015	733.33
848.187	1081.72
848.359	-1022.86
848.531	-1123.44
848.703	-349.71
848.875	565.99
849.047	549.34
849.218	374.07
849.39	225.66
849.562	194.59
849.734	342.91
849.905	345.56
850.077	477.36
850.249	283.66
850.421	219.25
850.592	225.65
850.764	252.7
850.936	243.8
851.107	208.04
851.279	226.96
851.451	213.84
851.622	179.58
851.794	186.21
851.965	151.49
852.137	165.79
852.308	146.95
852.48	150.15
852.651	159.32
852.823	102.46
852.994	126.7
853.166	121.25
853.337	118.2
853.509	98.14
853.68	77.71
853.851	73.69
854.023	72.54
854.194	86.47
854.365	79.08
854.537	71.83
854.708	89.78
854.879	91.95
855.05	126.9
855.222	147.69
855.393	195.58
855.564	235.56
855.735	218.05
855.906	214.99
856.078	254.3
856.249	305.61
856.42	275.23
856.591	334.12
856.762	320.25
856.933	280.86
857.104	268.62
857.275	224.96
857.446	228.39
857.617	216.45
857.788	186.22
857.959	197.38
858.13	203.9
858.301	225.52
858.472	216.1
858.643	164.16
858.814	153.74
858.985	145.42
859.155	261.17
859.326	383.27
859.497	2175.76
859.668	-650.51
859.839	-516.39
860.009	-372.58
860.18	-966.67
860.351	-368.7
860.522	-459.83
860.692	-2266.67
860.863	854.17
861.034	208.91
861.204	107.1
861.375	104.51
861.546	107.96
861.716	79.4
861.887	118.35
862.057	109.31
862.228	99.69
862.398	130.56
862.569	115.29
862.739	151.82
862.91	221.12
863.08	436.26
863.251	449.2
863.421	226.48
863.592	254.66
863.762	217.62
863.932	221.65
864.103	211.58
864.273	179.77
864.443	196.05
864.614	170.92
864.784	143.82
864.954	142.21
865.125	145.53
865.295	167.2
865.465	186.21
865.635	209.83
865.805	229.71
865.976	307.37
866.146	353.01
866.316	315.05
866.486	513.98
866.656	596.46
866.826	747.95
866.996	318.41
867.166	306.48
867.336	287.69
867.506	275.21
867.676	290.48
867.846	318.27
868.016	214.89
868.186	297.54
868.356	242.68
868.526	185.26
868.696	140.48
868.866	157.32
869.036	271.33
869.206	280.2
869.376	299.14
869.545	212.01
869.715	168.17
869.885	249.45
870.055	208.06
870.224	182.01
870.394	196.1
870.564	852.33
870.734	-2146.15
870.903	572.63
871.073	959.79
871.243	1098.63
871.412	4376.19
871.582	-1537.04
871.751	-1035.82
871.921	-256.14
872.091	-221.13
872.26	-95.45
872.43	-145.53
872.599	-197.15
872.769	-368.33
872.938	-791.23
873.108	1444.74
873.277	846.87
873.446	813.04
873.616	425.56
873.785	147.73
873.955	143.1
874.124	119.48
874.293	104.39
874.463	169.15
874.632	201.2
874.801	218.38
874.971	327.7
875.14	220.94
875.309	209.05
875.478	-502.63
875.647	-112.3
875.817	-76.56
875.986	-60.98
876.155	-136.82
876.324	-106.1
876.493	-55.6
876.662	-275.49
876.831	5477.78
877	-422.12
877.17	-1984
877.339	429.1
877.508	489.9
877.677	185.57
877.846	187.54
878.015	218.88
878.184	218.83
878.352	372.64
878.521	-905.26
878.69	-68.28
878.859	406.67
879.028	190.62
879.197	162.84
879.366	162.7
879.534	89.57
879.703	57.63
879.872	58.37
880.041	60.89
880.21	62.15
880.378	60.34
880.547	58.48
880.716	57.77
880.884	53.37
881.053	54.86
881.222	56.51
881.39	64.14
881.559	65.71
881.727	74.77
881.896	66.88
882.065	67.48
882.233	70.72
882.402	69.54
882.57	73.21
882.739	77.31
882.907	73.92
883.076	78.21
883.244	72.94
883.412	69.33
883.581	57.47
883.749	51.81
883.918	50.3
884.086	45.91
884.254	60.97
884.423	55.11
884.591	55.94
884.759	52.77
884.927	42.1
885.096	50.1
885.264	72.78
885.432	71.75
885.6	79.43
885.769	90.99
885.937	88.02
886.105	54.05
886.273	92.08
886.441	150.26
886.609	114.19
886.777	138
886.945	69.11
887.113	29.14
887.281	42.31
887.449	49.33
887.617	51.67
887.785	26.88
887.953	41.75
888.121	42.9
888.289	50.25
888.457	63.54
888.625	80.27
888.793	80.79
888.961	88.82
889.129	70.61
889.296	183.33
889.464	-1050
889.632	-27.03
889.8	-118.42
889.967	-5.69
890.135	35.79
