Data from JASIL_3905_Reflection_1.txt Node
Date: Sat Nov 07 20:18:00 EST 2015
User: Geneva
Spectrometer: USB4E03002
Autoset integration time: false
Trigger mode: 4
Integration Time (sec): 1.000000E-1
Scans to average: 10
Electric dark correction enabled: true
Nonlinearity correction enabled: false
Boxcar width: 5
Stray light correction enabled: false
XAxis mode: Wavelengths
Stop averaging: false
Number of Pixels in Spectrum: 3648
>>>>>Begin Spectral Data<<<<<
177.575	143.07
177.794	173.38
178.014	81.34
178.233	87.97
178.452	94.1
178.672	93.71
178.891	-1433.72
179.11	246.69
179.33	165.26
179.549	134.47
179.768	97.38
179.987	75.57
180.207	93.74
180.426	63.52
180.645	77.57
180.864	84.61
181.084	79.6
181.303	73.57
181.522	73.68
181.741	74.75
181.96	69.62
182.179	77.79
182.398	83.62
182.618	67.69
182.837	61.83
183.056	30.65
183.275	22.69
183.494	30.02
183.713	40.65
183.932	42.19
184.151	46.52
184.37	43.66
184.589	51.54
184.808	51.73
185.027	57.72
185.246	67.91
185.465	76.96
185.684	67.82
185.903	73.17
186.122	74.43
186.341	71.76
186.56	70.73
186.779	76.47
186.998	71.4
187.216	74.85
187.435	65.01
187.654	48.96
187.873	51.07
188.092	68.3
188.311	62.4
188.53	61.97
188.748	55.46
188.967	51.77
189.186	57.97
189.405	66.96
189.623	63.81
189.842	66.98
190.061	74.7
190.28	73.05
190.498	65.9
190.717	69.84
190.936	69.76
191.154	73.52
191.373	80.22
191.592	72.76
191.81	67.07
192.029	69.07
192.248	65.23
192.466	68.28
192.685	66.87
192.904	64.36
193.122	57.99
193.341	58.96
193.559	59.2
193.778	59.42
193.996	67.88
194.215	63.22
194.433	64.93
194.652	66.46
194.87	66.54
195.089	64.19
195.307	65.72
195.526	73.75
195.744	71.41
195.963	74.91
196.181	69.73
196.399	64.5
196.618	68.33
196.836	72.48
197.055	78.54
197.273	72.76
197.491	71.79
197.71	75.26
197.928	69.44
198.146	68.79
198.365	64.01
198.583	63.08
198.801	66.58
199.019	60.08
199.238	54.89
199.456	40.52
199.674	51.63
199.892	62.49
200.111	67.39
200.329	71.4
200.547	70.61
200.765	63.99
200.983	65.65
201.202	73.74
201.42	82.84
201.638	79.7
201.856	83.87
202.074	72.19
202.292	63.79
202.51	55.13
202.728	59.23
202.946	59.64
203.165	60.95
203.383	64.83
203.601	63.67
203.819	57.79
204.037	61.91
204.255	59.67
204.473	52.12
204.691	50.76
204.909	49.13
205.127	51.94
205.345	51.52
205.562	63.5
205.78	59.22
205.998	53.01
206.216	51.19
206.434	50.47
206.652	58.03
206.87	69.12
207.088	68.74
207.306	70.72
207.523	67.45
207.741	67.29
207.959	60.55
208.177	56.97
208.395	54.88
208.612	54.41
208.83	52.78
209.048	47.06
209.266	41.44
209.483	40.18
209.701	41.42
209.919	41.5
210.136	38.65
210.354	39.37
210.572	47.16
210.79	53.51
211.007	58.2
211.225	53.68
211.442	51.26
211.66	51.46
211.878	51.53
212.095	29.87
212.313	14.81
212.53	13.48
212.748	13.91
212.966	10.68
213.183	2.92
213.401	2.66
213.618	10.56
213.836	17.35
214.053	24.86
214.271	31.02
214.488	49.07
214.705	53.64
214.923	59.09
215.14	58.95
215.358	58.37
215.575	55.15
215.793	48.91
216.01	45.59
216.227	43.71
216.445	44.44
216.662	44.73
216.879	49.09
217.097	42.68
217.314	41.4
217.531	42.45
217.749	49.58
217.966	56.04
218.183	57.24
218.4	50.28
218.618	50.08
218.835	44.85
219.052	40.05
219.269	37.9
219.487	41.91
219.704	37.62
219.921	33.48
220.138	25.9
220.355	19.67
220.572	21.58
220.79	27.84
221.007	26.58
221.224	26.99
221.441	26.17
221.658	27.36
221.875	28.98
222.092	30.94
222.309	32.04
222.526	32.79
222.743	35.96
222.96	36.84
223.177	35.78
223.394	36.48
223.611	39.08
223.828	38.97
224.045	38.2
224.262	35.99
224.479	33.59
224.696	33.38
224.913	33.2
225.13	30.34
225.347	28.62
225.564	27.46
225.781	24.21
225.997	22.49
226.214	21.81
226.431	18.58
226.648	17.02
226.865	16.78
227.082	16.18
227.298	14.81
227.515	15.07
227.732	14.99
227.949	14.67
228.165	14.85
228.382	14.05
228.599	13.7
228.816	14.11
229.032	14.93
229.249	14.91
229.466	14.65
229.682	15.63
229.899	15.21
230.116	15.13
230.332	14.34
230.549	14.7
230.765	15.61
230.982	15.69
231.199	15.6
231.415	14.74
231.632	14.58
231.848	15.35
232.065	14.53
232.281	14.79
232.498	14.65
232.714	15.93
232.931	16.75
233.147	16.94
233.364	16.56
233.58	16.59
233.797	17.74
234.013	18.5
234.23	17.28
234.446	17.26
234.662	16.74
234.879	17.19
235.095	16.61
235.312	15.46
235.528	14.92
235.744	15.72
235.961	15.8
236.177	13.99
236.393	13.13
236.61	14.99
236.826	15.39
237.042	17.04
237.258	16.25
237.475	16.52
237.691	16.64
237.907	16.08
238.123	15.21
238.339	15.2
238.556	16.38
238.772	16.32
238.988	14.8
239.204	14.08
239.42	13.68
239.636	13.84
239.853	13.27
240.069	13.32
240.285	13.6
240.501	13.36
240.717	13.05
240.933	12.51
241.149	12.09
241.365	12.25
241.581	12.41
241.797	12.18
242.013	11.95
242.229	12.28
242.445	12
242.661	11.76
242.877	12.09
243.093	11.95
243.309	11.77
243.525	11.64
243.741	11.79
243.957	11.21
244.173	11.14
244.388	11.31
244.604	10.43
244.82	9.9
245.036	9.6
245.252	9.39
245.468	9.56
245.683	9.56
245.899	9.51
246.115	9.46
246.331	9.46
246.547	9.3
246.762	9.19
246.978	9.52
247.194	9.65
247.409	9.63
247.625	9.6
247.841	9.45
248.057	9.68
248.272	9.65
248.488	9.44
248.703	9.18
248.919	9.57
249.135	9.63
249.35	9.15
249.566	9.25
249.782	9.8
249.997	9.77
250.213	9.87
250.428	9.21
250.644	9.92
250.859	9.64
251.075	9.98
251.29	9.42
251.506	9.43
251.721	9.27
251.937	9.47
252.152	9.3
252.368	9.69
252.583	10.05
252.798	10.46
253.014	9.93
253.229	10.16
253.445	10.32
253.66	10.67
253.875	10.07
254.091	10.68
254.306	10.25
254.521	9.9
254.737	9.2
254.952	8.64
255.167	8.32
255.383	8.33
255.598	8.68
255.813	7.9
256.028	7.95
256.244	7.66
256.459	7.71
256.674	7.47
256.889	7
257.104	7.04
257.32	7.24
257.535	7.27
257.75	7.08
257.965	6.94
258.18	7.35
258.395	7.11
258.61	7.18
258.826	7
259.041	7.19
259.256	7.28
259.471	7.18
259.686	7
259.901	6.99
260.116	7.12
260.331	7.04
260.546	6.92
260.761	6.96
260.976	7.11
261.191	7.2
261.406	6.93
261.621	7.07
261.836	7.09
262.05	7.09
262.265	7.07
262.48	6.93
262.695	7.09
262.91	7.05
263.125	7.33
263.34	7.42
263.555	7.64
263.769	7.91
263.984	7.93
264.199	7.8
264.414	7.98
264.629	7.88
264.843	8
265.058	7.95
265.273	7.75
265.488	7.45
265.702	7.29
265.917	7.14
266.132	7.17
266.346	7.21
266.561	7.3
266.776	7.25
266.99	7.04
267.205	7.08
267.42	7.04
267.634	6.98
267.849	6.99
268.063	6.89
268.278	6.75
268.492	6.73
268.707	6.36
268.922	6.56
269.136	6.6
269.351	6.53
269.565	6.44
269.78	6.46
269.994	6.47
270.209	6.49
270.423	6.56
270.637	6.44
270.852	6.36
271.066	6.56
271.281	6.49
271.495	6.44
271.709	6.74
271.924	6.74
272.138	6.63
272.353	6.89
272.567	6.84
272.781	6.84
272.996	7
273.21	7.1
273.424	7.07
273.638	6.93
273.853	7.13
274.067	6.75
274.281	6.78
274.495	6.98
274.71	6.76
274.924	6.8
275.138	6.92
275.352	6.96
275.566	6.95
275.781	6.96
275.995	7.18
276.209	6.92
276.423	7.04
276.637	6.99
276.851	6.82
277.065	6.69
277.279	6.61
277.493	6.34
277.707	6.53
277.921	6.63
278.135	6.35
278.349	6.07
278.563	6.22
278.777	6.24
278.991	6.24
279.205	6.29
279.419	6.21
279.633	6.3
279.847	6.56
280.061	6.31
280.275	5.9
280.489	6.2
280.703	6.01
280.917	6
281.131	6.04
281.344	5.92
281.558	5.68
281.772	5.79
281.986	5.49
282.2	5.38
282.414	5.2
282.627	5.2
282.841	5.23
283.055	5.63
283.269	5.54
283.482	5.58
283.696	5.65
283.91	5.54
284.123	5.57
284.337	5.81
284.551	5.73
284.764	5.91
284.978	5.95
285.192	5.82
285.405	5.57
285.619	5.65
285.833	5.62
286.046	5.52
286.26	5.72
286.473	5.7
286.687	5.66
286.9	5.63
287.114	5.58
287.327	5.75
287.541	5.61
287.754	5.49
287.968	5.34
288.181	5.37
288.395	5.39
288.608	5.69
288.822	5.53
289.035	5.33
289.248	5.29
289.462	5.4
289.675	5.27
289.889	5.47
290.102	5.54
290.315	5.6
290.529	5.58
290.742	5.74
290.955	5.45
291.169	5.6
291.382	5.64
291.595	5.75
291.808	5.62
292.022	5.43
292.235	5.43
292.448	5.52
292.661	5.48
292.875	5.44
293.088	5.21
293.301	5.03
293.514	5.13
293.727	5.37
293.94	5.39
294.153	5.35
294.367	5.46
294.58	5.34
294.793	5.45
295.006	5.51
295.219	5.52
295.432	5.53
295.645	5.64
295.858	5.37
296.071	5.11
296.284	4.98
296.497	5.03
296.71	5.02
296.923	5.02
297.136	4.82
297.349	4.8
297.562	4.78
297.775	4.74
297.988	4.63
298.201	4.71
298.414	5
298.626	4.93
298.839	4.8
299.052	4.86
299.265	5.02
299.478	4.84
299.691	5.03
299.903	4.93
300.116	5.19
300.329	5.2
300.542	5.21
300.755	5.18
300.967	5.39
301.18	5.54
301.393	5.55
301.605	5.5
301.818	5.87
302.031	5.75
302.243	6.04
302.456	5.95
302.669	6.15
302.881	6.29
303.094	6.27
303.307	6.1
303.519	6.19
303.732	6.08
303.944	6.1
304.157	6.09
304.37	6.03
304.582	5.84
304.795	5.81
305.007	6.01
305.22	6.21
305.432	6.26
305.645	6.5
305.857	6.28
306.069	6.26
306.282	6.37
306.494	6.45
306.707	6.37
306.919	6.21
307.132	6.2
307.344	5.83
307.556	5.77
307.769	5.87
307.981	5.79
308.193	5.84
308.406	5.89
308.618	5.75
308.83	5.53
309.043	5.53
309.255	5.72
309.467	5.63
309.679	5.79
309.892	5.58
310.104	5.43
310.316	5.31
310.528	5.32
310.74	5.25
310.953	5.14
311.165	5.21
311.377	5.12
311.589	5.04
311.801	5.19
312.013	5.2
312.225	5.34
312.437	5.51
312.649	5.72
312.862	5.65
313.074	5.44
313.286	5.6
313.498	5.51
313.71	5.73
313.922	5.81
314.134	5.85
314.346	5.69
314.558	5.78
314.77	5.81
314.982	5.89
315.193	5.89
315.405	6.28
315.617	6.23
315.829	6.44
316.041	6.56
316.253	6.48
316.465	6.41
316.677	6.47
316.888	6.44
317.1	6.34
317.312	6.23
317.524	6.41
317.736	6.62
317.947	6.62
318.159	6.66
318.371	6.48
318.583	6.5
318.794	6.39
319.006	6.39
319.218	6.39
319.43	6.21
319.641	6.33
319.853	6.34
320.064	6.46
320.276	6.51
320.488	6.36
320.699	6.46
320.911	6.57
321.123	6.86
321.334	7.02
321.546	6.97
321.757	7.22
321.969	7.16
322.18	7.06
322.392	6.63
322.603	6.34
322.815	6.62
323.026	6.5
323.238	6.31
323.449	6.08
323.661	6.03
323.872	5.97
324.083	6.01
324.295	6.15
324.506	6.12
324.718	6.24
324.929	6.46
325.14	6.41
325.352	6.53
325.563	6.79
325.774	6.89
325.986	6.93
326.197	7.21
326.408	7.24
326.62	7.07
326.831	7.1
327.042	7.19
327.253	7.23
327.464	7.32
327.676	7.34
327.887	7.25
328.098	7.28
328.309	7.18
328.52	7.02
328.732	6.87
328.943	7.14
329.154	7.26
329.365	7.37
329.576	7.51
329.787	7.38
329.998	7.4
330.209	7.39
330.42	7.36
330.631	7.62
330.842	7.53
331.053	7.67
331.264	7.55
331.475	7.67
331.686	7.53
331.897	7.63
332.108	7.72
332.319	7.62
332.53	7.59
332.741	7.65
332.952	7.6
333.163	7.67
333.374	7.76
333.585	7.74
333.795	7.79
334.006	7.87
334.217	7.91
334.428	7.96
334.639	8.21
334.849	8.16
335.06	8.04
335.271	7.9
335.482	8.07
335.692	7.99
335.903	8.05
336.114	7.98
336.325	7.93
336.535	7.88
336.746	7.98
336.957	7.92
337.167	7.93
337.378	8.06
337.589	8.2
337.799	7.93
338.01	7.89
338.22	7.88
338.431	7.7
338.642	7.88
338.852	7.79
339.063	7.56
339.273	7.49
339.484	7.5
339.694	7.66
339.905	7.64
340.115	7.8
340.326	7.87
340.536	7.64
340.746	7.81
340.957	7.58
341.167	7.52
341.378	7.57
341.588	7.64
341.799	7.59
342.009	7.39
342.219	7.28
342.43	7.39
342.64	7.19
342.85	7.13
343.061	6.95
343.271	7.08
343.481	6.97
343.691	6.89
343.902	6.55
344.112	6.67
344.322	6.69
344.532	6.79
344.743	6.65
344.953	6.64
345.163	6.65
345.373	6.81
345.583	6.85
345.793	6.85
346.004	7
346.214	7.21
346.424	7.19
346.634	7.17
346.844	7.28
347.054	7.39
347.264	7.63
347.474	7.81
347.684	7.55
347.894	7.46
348.104	7.66
348.314	7.55
348.524	7.66
348.734	7.56
348.944	7.57
349.154	7.27
349.364	7.13
349.574	7.02
349.784	6.97
349.994	7.13
350.204	7.03
350.413	6.86
350.623	6.8
350.833	6.67
351.043	6.6
351.253	6.48
351.463	6.54
351.672	6.52
351.882	6.44
352.092	6.48
352.302	6.49
352.511	6.64
352.721	6.68
352.931	6.61
353.141	6.78
353.35	7
353.56	7.06
353.77	7.13
353.979	7.16
354.189	7.19
354.399	7.1
354.608	6.97
354.818	6.89
355.027	6.99
355.237	7.01
355.447	6.76
355.656	6.56
355.866	6.46
356.075	6.4
356.285	6.33
356.494	6.23
356.704	6.26
356.913	6.27
357.123	6.18
357.332	6.03
357.542	6.13
357.751	6.09
357.96	6.08
358.17	6.01
358.379	6
358.589	6.11
358.798	6.05
359.007	6.09
359.217	6.01
359.426	6.01
359.635	6.01
359.845	6.02
360.054	6.03
360.263	6.1
360.472	6.22
360.682	6.2
360.891	6.08
361.1	6.11
361.309	6.03
361.519	6.03
361.728	6
361.937	6
362.146	5.92
362.355	6
362.564	5.9
362.774	5.89
362.983	5.87
363.192	5.99
363.401	6.15
363.61	6.11
363.819	6.2
364.028	6.17
364.237	6.12
364.446	6.01
364.655	5.94
364.864	6
365.073	6.05
365.282	6.06
365.491	5.93
365.7	5.78
365.909	5.98
366.118	5.88
366.327	5.95
366.536	6
366.745	6.09
366.954	6.18
367.162	6.27
367.371	6.18
367.58	6.12
367.789	6.07
367.998	6.09
368.207	6.05
368.415	6.13
368.624	6.12
368.833	6.12
369.042	6.17
369.25	6.18
369.459	6.19
369.668	6.23
369.877	6.24
370.085	6.31
370.294	6.34
370.503	6.11
370.711	6.18
370.92	6.16
371.129	6.17
371.337	6.08
371.546	5.91
371.754	5.88
371.963	5.8
372.171	5.73
372.38	5.65
372.589	5.53
372.797	5.61
373.006	5.56
373.214	5.61
373.423	5.53
373.631	5.63
373.84	5.64
374.048	5.51
374.256	5.45
374.465	5.6
374.673	5.6
374.882	5.74
375.09	5.78
375.298	5.68
375.507	5.56
375.715	5.6
375.923	5.47
376.132	5.48
376.34	5.56
376.548	5.59
376.757	5.59
376.965	5.68
377.173	5.61
377.381	5.66
377.59	5.77
377.798	5.79
378.006	5.75
378.214	5.8
378.423	5.86
378.631	5.79
378.839	5.87
379.047	5.78
379.255	5.67
379.463	5.66
379.671	5.61
379.879	5.61
380.088	5.68
380.296	5.71
380.504	5.65
380.712	5.63
380.92	5.69
381.128	5.64
381.336	5.55
381.544	5.6
381.752	5.66
381.96	5.65
382.168	5.5
382.376	5.51
382.584	5.6
382.791	5.72
382.999	5.81
383.207	5.75
383.415	5.84
383.623	5.97
383.831	5.94
384.039	5.88
384.247	5.8
384.454	5.9
384.662	5.82
384.87	5.74
385.078	5.73
385.285	5.53
385.493	5.49
385.701	5.41
385.909	5.31
386.116	5.38
386.324	5.4
386.532	5.42
386.739	5.37
386.947	5.48
387.155	5.53
387.362	5.45
387.57	5.59
387.778	5.51
387.985	5.5
388.193	5.59
388.4	5.58
388.608	5.61
388.816	5.58
389.023	5.53
389.231	5.43
389.438	5.39
389.646	5.35
389.853	5.28
390.061	5.35
390.268	5.3
390.475	5.18
390.683	5.19
390.89	5.07
391.098	5.06
391.305	5.06
391.512	5.07
391.72	4.97
391.927	4.99
392.135	4.98
392.342	4.94
392.549	4.95
392.756	5.04
392.964	4.97
393.171	5.06
393.378	5.13
393.586	5.11
393.793	5.09
394	5.14
394.207	5.18
394.414	5.2
394.622	5.24
394.829	5.25
395.036	5.24
395.243	5.23
395.45	5.07
395.657	5.02
395.864	5.03
396.072	5.02
396.279	5.04
396.486	4.97
396.693	4.94
396.9	4.94
397.107	4.88
397.314	4.88
397.521	4.87
397.728	4.93
397.935	4.97
398.142	4.91
398.349	4.86
398.556	4.75
398.763	4.64
398.97	4.68
399.177	4.69
399.383	4.77
399.59	4.68
399.797	4.74
400.004	4.68
400.211	4.66
400.418	4.7
400.625	4.74
400.831	4.81
401.038	4.86
401.245	4.89
401.452	4.84
401.658	4.81
401.865	4.79
402.072	4.71
402.279	4.74
402.485	4.64
402.692	4.57
402.899	4.61
403.105	4.62
403.312	4.68
403.519	4.59
403.725	4.61
403.932	4.61
404.138	4.64
404.345	4.72
404.552	4.78
404.758	4.92
404.965	4.95
405.171	4.88
405.378	4.83
405.584	4.84
405.791	4.84
405.997	4.82
406.204	4.83
406.41	4.89
406.617	4.81
406.823	4.7
407.029	4.65
407.236	4.71
407.442	4.75
407.649	4.81
407.855	4.71
408.061	4.77
408.268	4.78
408.474	4.67
408.68	4.56
408.887	4.65
409.093	4.63
409.299	4.59
409.505	4.49
409.712	4.45
409.918	4.38
410.124	4.45
410.33	4.42
410.537	4.39
410.743	4.48
410.949	4.53
411.155	4.51
411.361	4.6
411.567	4.67
411.773	4.71
411.98	4.67
412.186	4.83
412.392	4.84
412.598	4.83
412.804	4.79
413.01	4.76
413.216	4.72
413.422	4.72
413.628	4.65
413.834	4.53
414.04	4.53
414.246	4.59
414.452	4.47
414.658	4.42
414.864	4.42
415.07	4.42
415.275	4.42
415.481	4.37
415.687	4.32
415.893	4.33
416.099	4.37
416.305	4.36
416.511	4.33
416.716	4.3
416.922	4.29
417.128	4.25
417.334	4.27
417.539	4.28
417.745	4.28
417.951	4.26
418.157	4.26
418.362	4.24
418.568	4.21
418.774	4.22
418.979	4.23
419.185	4.24
419.391	4.22
419.596	4.2
419.802	4.13
420.008	4.12
420.213	4.18
420.419	4.16
420.624	4.15
420.83	4.2
421.035	4.17
421.241	4.17
421.446	4.15
421.652	4.17
421.857	4.15
422.063	4.15
422.268	4.17
422.474	4.07
422.679	4.06
422.885	4.07
423.09	4.01
423.295	4
423.501	3.99
423.706	3.95
423.911	3.94
424.117	3.96
424.322	3.99
424.527	4.02
424.733	4.02
424.938	4.06
425.143	4.08
425.349	4.13
425.554	4.17
425.759	4.16
425.964	4.2
426.169	4.22
426.375	4.2
426.58	4.21
426.785	4.16
426.99	4.23
427.195	4.21
427.4	4.16
427.605	4.17
427.811	4.14
428.016	4.18
428.221	4.17
428.426	4.17
428.631	4.23
428.836	4.21
429.041	4.19
429.246	4.17
429.451	4.19
429.656	4.23
429.861	4.17
430.066	4.23
430.271	4.19
430.476	4.19
430.681	4.21
430.886	4.17
431.09	4.19
431.295	4.18
431.5	4.15
431.705	4.07
431.91	4.04
432.115	4.03
432.32	3.97
432.524	3.93
432.729	3.89
432.934	3.84
433.139	3.87
433.343	3.85
433.548	3.91
433.753	3.93
433.958	3.98
434.162	4.02
434.367	4.01
434.572	4.07
434.776	4.06
434.981	4.12
435.186	4.16
435.39	4.16
435.595	4.16
435.799	4.1
436.004	4.06
436.209	4.01
436.413	3.96
436.618	3.95
436.822	3.91
437.027	3.89
437.231	3.89
437.436	3.83
437.64	3.78
437.845	3.78
438.049	3.84
438.253	3.81
438.458	3.79
438.662	3.81
438.867	3.85
439.071	3.85
439.275	3.87
439.48	3.87
439.684	3.87
439.888	3.9
440.093	3.9
440.297	3.85
440.501	3.89
440.706	3.93
440.91	3.94
441.114	3.9
441.318	3.89
441.523	3.93
441.727	3.92
441.931	3.92
442.135	3.86
442.339	3.85
442.543	3.89
442.748	3.87
442.952	3.84
443.156	3.83
443.36	3.85
443.564	3.88
443.768	3.82
443.972	3.82
444.176	3.82
444.38	3.86
444.584	3.83
444.788	3.78
444.992	3.77
445.196	3.75
445.4	3.68
445.604	3.63
445.808	3.6
446.012	3.63
446.216	3.6
446.42	3.62
446.624	3.59
446.828	3.64
447.032	3.66
447.235	3.66
447.439	3.67
447.643	3.75
447.847	3.83
448.051	3.86
448.254	3.84
448.458	3.88
448.662	3.9
448.866	3.89
449.069	3.84
449.273	3.85
449.477	3.88
449.681	3.94
449.884	3.87
450.088	3.84
450.292	3.87
450.495	3.87
450.699	3.9
450.902	3.87
451.106	3.91
451.31	3.96
451.513	3.9
451.717	3.87
451.92	3.84
452.124	3.88
452.327	3.92
452.531	3.89
452.734	3.87
452.938	3.82
453.141	3.84
453.345	3.83
453.548	3.82
453.752	3.88
453.955	3.93
454.158	3.91
454.362	3.89
454.565	3.9
454.769	3.86
454.972	3.93
455.175	3.96
455.379	3.93
455.582	3.87
455.785	3.86
455.988	3.83
456.192	3.77
456.395	3.76
456.598	3.77
456.801	3.68
457.005	3.64
457.208	3.6
457.411	3.6
457.614	3.56
457.817	3.58
458.021	3.53
458.224	3.52
458.427	3.52
458.63	3.54
458.833	3.56
459.036	3.53
459.239	3.57
459.442	3.56
459.645	3.56
459.848	3.62
460.051	3.62
460.254	3.69
460.457	3.68
460.66	3.75
460.863	3.77
461.066	3.73
461.269	3.78
461.472	3.82
461.675	3.85
461.878	3.82
462.081	3.83
462.284	3.85
462.486	3.81
462.689	3.86
462.892	3.82
463.095	3.77
463.298	3.83
463.5	3.81
463.703	3.79
463.906	3.79
464.109	3.86
464.311	3.86
464.514	3.9
464.717	3.92
464.92	3.92
465.122	3.88
465.325	3.89
465.528	3.87
465.73	3.91
465.933	3.87
466.135	3.8
466.338	3.77
466.541	3.71
466.743	3.65
466.946	3.64
467.148	3.64
467.351	3.71
467.553	3.74
467.756	3.76
467.958	3.68
468.161	3.7
468.363	3.73
468.566	3.74
468.768	3.73
468.971	3.76
469.173	3.77
469.375	3.74
469.578	3.58
469.78	3.55
469.983	3.57
470.185	3.6
470.387	3.58
470.59	3.64
470.792	3.64
470.994	3.67
471.196	3.65
471.399	3.65
471.601	3.62
471.803	3.68
472.005	3.71
472.208	3.67
472.41	3.68
472.612	3.63
472.814	3.66
473.016	3.67
473.218	3.75
473.421	3.71
473.623	3.72
473.825	3.79
474.027	3.82
474.229	3.79
474.431	3.76
474.633	3.8
474.835	3.85
475.037	3.77
475.239	3.76
475.441	3.7
475.643	3.8
475.845	3.75
476.047	3.73
476.249	3.71
476.451	3.7
476.653	3.69
476.855	3.67
477.057	3.63
477.258	3.66
477.46	3.65
477.662	3.65
477.864	3.62
478.066	3.62
478.268	3.6
478.469	3.62
478.671	3.61
478.873	3.63
479.075	3.58
479.276	3.59
479.478	3.61
479.68	3.59
479.882	3.59
480.083	3.57
480.285	3.59
480.487	3.61
480.688	3.6
480.89	3.62
481.091	3.59
481.293	3.63
481.495	3.63
481.696	3.6
481.898	3.59
482.099	3.55
482.301	3.52
482.502	3.5
482.704	3.45
482.905	3.43
483.107	3.41
483.308	3.41
483.51	3.39
483.711	3.39
483.913	3.4
484.114	3.39
484.315	3.4
484.517	3.42
484.718	3.44
484.92	3.47
485.121	3.49
485.322	3.48
485.524	3.5
485.725	3.5
485.926	3.49
486.127	3.47
486.329	3.47
486.53	3.47
486.731	3.45
486.932	3.44
487.134	3.41
487.335	3.41
487.536	3.43
487.737	3.43
487.938	3.43
488.139	3.44
488.341	3.44
488.542	3.45
488.743	3.45
488.944	3.47
489.145	3.46
489.346	3.52
489.547	3.56
489.748	3.54
489.949	3.53
490.15	3.52
490.351	3.52
490.552	3.52
490.753	3.52
490.954	3.51
491.155	3.51
491.356	3.52
491.557	3.49
491.758	3.47
491.959	3.5
492.159	3.52
492.36	3.53
492.561	3.52
492.762	3.54
492.963	3.55
493.164	3.59
493.364	3.62
493.565	3.66
493.766	3.69
493.967	3.69
494.167	3.71
494.368	3.71
494.569	3.7
494.769	3.71
494.97	3.69
495.171	3.7
495.371	3.66
495.572	3.63
495.773	3.59
495.973	3.59
496.174	3.6
496.375	3.59
496.575	3.57
496.776	3.59
496.976	3.62
497.177	3.63
497.377	3.65
497.578	3.68
497.778	3.68
497.979	3.72
498.179	3.75
498.38	3.78
498.58	3.78
498.78	3.82
498.981	3.81
499.181	3.78
499.382	3.81
499.582	3.76
499.782	3.75
499.983	3.79
500.183	3.77
500.383	3.74
500.584	3.73
500.784	3.75
500.984	3.78
501.184	3.77
501.385	3.79
501.585	3.79
501.785	3.81
501.985	3.87
502.185	3.9
502.386	3.88
502.586	3.91
502.786	3.93
502.986	3.91
503.186	3.91
503.386	3.96
503.586	4.01
503.786	4.03
503.987	4.08
504.187	4.05
504.387	4.04
504.587	4.04
504.787	4.03
504.987	4
505.187	4.01
505.387	3.99
505.587	4
505.786	3.98
505.986	3.97
506.186	3.91
506.386	3.93
506.586	3.91
506.786	3.95
506.986	3.94
507.186	3.95
507.386	3.94
507.585	3.95
507.785	3.96
507.985	3.97
508.185	3.98
508.384	4.01
508.584	3.98
508.784	3.99
508.984	4
509.183	4.05
509.383	4.01
509.583	3.99
509.782	4
509.982	4
510.182	4
510.381	4.03
510.581	4.06
510.781	4.09
510.98	4.14
511.18	4.16
511.379	4.13
511.579	4.22
511.778	4.28
511.978	4.33
512.177	4.35
512.377	4.41
512.576	4.41
512.776	4.42
512.975	4.48
513.175	4.49
513.374	4.51
513.573	4.57
513.773	4.54
513.972	4.54
514.172	4.59
514.371	4.63
514.57	4.65
514.77	4.68
514.969	4.69
515.168	4.68
515.367	4.71
515.567	4.71
515.766	4.71
515.965	4.76
516.164	4.78
516.364	4.75
516.563	4.7
516.762	4.68
516.961	4.7
517.16	4.7
517.359	4.67
517.559	4.68
517.758	4.72
517.957	4.71
518.156	4.72
518.355	4.72
518.554	4.76
518.753	4.83
518.952	4.81
519.151	4.83
519.35	4.85
519.549	4.89
519.748	4.93
519.947	4.91
520.146	4.93
520.345	4.95
520.544	5
520.743	4.99
520.942	5
521.141	5.07
521.339	5.07
521.538	5.12
521.737	5.15
521.936	5.16
522.135	5.18
522.333	5.24
522.532	5.28
522.731	5.3
522.93	5.31
523.129	5.3
523.327	5.32
523.526	5.32
523.725	5.33
523.923	5.39
524.122	5.38
524.321	5.36
524.519	5.38
524.718	5.38
524.917	5.37
525.115	5.42
525.314	5.45
525.512	5.47
525.711	5.5
525.909	5.53
526.108	5.51
526.306	5.55
526.505	5.59
526.703	5.59
526.902	5.6
527.1	5.63
527.299	5.63
527.497	5.64
527.696	5.65
527.894	5.66
528.092	5.67
528.291	5.7
528.489	5.72
528.688	5.75
528.886	5.77
529.084	5.8
529.283	5.83
529.481	5.87
529.679	5.91
529.877	5.96
530.076	6.01
530.274	6.06
530.472	6.1
530.67	6.11
530.869	6.11
531.067	6.17
531.265	6.18
531.463	6.19
531.661	6.19
531.859	6.22
532.057	6.22
532.255	6.21
532.454	6.2
532.652	6.21
532.85	6.23
533.048	6.27
533.246	6.29
533.444	6.34
533.642	6.36
533.84	6.39
534.038	6.43
534.236	6.49
534.434	6.54
534.632	6.6
534.83	6.64
535.027	6.67
535.225	6.67
535.423	6.69
535.621	6.71
535.819	6.74
536.017	6.74
536.215	6.71
536.412	6.7
536.61	6.74
536.808	6.72
537.006	6.74
537.203	6.8
537.401	6.85
537.599	6.89
537.797	6.94
537.994	6.96
538.192	7
538.39	7.07
538.587	7.1
538.785	7.1
538.983	7.11
539.18	7.14
539.378	7.14
539.575	7.17
539.773	7.16
539.97	7.15
540.168	7.2
540.366	7.19
540.563	7.2
540.761	7.22
540.958	7.25
541.155	7.27
541.353	7.28
541.55	7.31
541.748	7.32
541.945	7.34
542.143	7.36
542.34	7.38
542.537	7.43
542.735	7.48
542.932	7.5
543.129	7.55
543.327	7.58
543.524	7.63
543.721	7.66
543.919	7.71
544.116	7.8
544.313	7.86
544.51	7.9
544.708	7.94
544.905	7.93
545.102	8.01
545.299	8.03
545.496	8.05
545.693	8.06
545.891	8.08
546.088	8.08
546.285	8.08
546.482	8.08
546.679	8.09
546.876	8.11
547.073	8.16
547.27	8.14
547.467	8.18
547.664	8.23
547.861	8.26
548.058	8.35
548.255	8.42
548.452	8.46
548.649	8.56
548.846	8.63
549.043	8.66
549.24	8.7
549.437	8.72
549.633	8.75
549.83	8.77
550.027	8.82
550.224	8.81
550.421	8.81
550.618	8.77
550.814	8.75
551.011	8.71
551.208	8.73
551.405	8.72
551.601	8.76
551.798	8.78
551.995	8.8
552.191	8.82
552.388	8.84
552.585	8.86
552.781	8.88
552.978	8.89
553.175	8.97
553.371	9.01
553.568	9.09
553.764	9.11
553.961	9.13
554.157	9.17
554.354	9.18
554.55	9.2
554.747	9.23
554.943	9.31
555.14	9.32
555.336	9.36
555.533	9.41
555.729	9.41
555.926	9.46
556.122	9.47
556.318	9.48
556.515	9.49
556.711	9.47
556.907	9.5
557.104	9.53
557.3	9.57
557.496	9.57
557.693	9.55
557.889	9.6
558.085	9.58
558.281	9.69
558.478	9.77
558.674	9.83
558.87	9.89
559.066	9.9
559.262	9.89
559.459	9.92
559.655	9.92
559.851	10.01
560.047	10.04
560.243	10.05
560.439	10
560.635	10
560.831	10.03
561.027	10.08
561.223	10.08
561.419	10.18
561.615	10.2
561.811	10.24
562.007	10.26
562.203	10.27
562.399	10.32
562.595	10.39
562.791	10.45
562.987	10.4
563.183	10.41
563.379	10.46
563.575	10.42
563.771	10.46
563.966	10.49
564.162	10.52
564.358	10.5
564.554	10.53
564.75	10.48
564.945	10.52
565.141	10.61
565.337	10.59
565.533	10.6
565.728	10.62
565.924	10.68
566.12	10.67
566.315	10.66
566.511	10.69
566.707	10.69
566.902	10.74
567.098	10.76
567.293	10.75
567.489	10.78
567.684	10.82
567.88	10.86
568.076	10.87
568.271	10.9
568.467	10.93
568.662	10.92
568.858	10.92
569.053	10.92
569.248	10.88
569.444	10.88
569.639	10.91
569.835	10.9
570.03	10.85
570.225	10.83
570.421	10.88
570.616	10.89
570.812	10.91
571.007	10.92
571.202	10.97
571.397	10.98
571.593	10.94
571.788	10.99
571.983	11.03
572.178	11.11
572.374	11.14
572.569	11.09
572.764	11.14
572.959	11.14
573.154	11.14
573.35	11.1
573.545	11.15
573.74	11.21
573.935	11.22
574.13	11.23
574.325	11.2
574.52	11.22
574.715	11.29
574.91	11.24
575.105	11.31
575.3	11.34
575.495	11.36
575.69	11.37
575.885	11.38
576.08	11.39
576.275	11.39
576.47	11.41
576.665	11.4
576.86	11.41
577.055	11.45
577.25	11.4
577.444	11.46
577.639	11.53
577.834	11.54
578.029	11.61
578.224	11.52
578.418	11.6
578.613	11.63
578.808	11.6
579.003	11.57
579.197	11.56
579.392	11.54
579.587	11.53
579.781	11.46
579.976	11.51
580.171	11.45
580.365	11.46
580.56	11.42
580.755	11.43
580.949	11.43
581.144	11.42
581.338	11.46
581.533	11.55
581.727	11.54
581.922	11.56
582.116	11.55
582.311	11.6
582.505	11.62
582.7	11.6
582.894	11.64
583.089	11.68
583.283	11.71
583.478	11.69
583.672	11.72
583.866	11.71
584.061	11.73
584.255	11.78
584.449	11.73
584.644	11.77
584.838	11.81
585.032	11.81
585.226	11.81
585.421	11.85
585.615	11.86
585.809	11.89
586.003	11.88
586.198	11.9
586.392	11.88
586.586	11.89
586.78	11.89
586.974	11.9
587.168	11.82
587.363	11.82
587.557	11.74
587.751	11.76
587.945	11.76
588.139	11.88
588.333	11.9
588.527	11.87
588.721	11.98
588.915	12.03
589.109	12
589.303	12.12
589.497	12.16
589.691	12.18
589.885	12.23
590.079	12.18
590.273	12.09
590.466	12.12
590.66	12.15
590.854	12.11
591.048	12.09
591.242	12.02
591.436	11.96
591.629	11.92
591.823	11.98
592.017	11.95
592.211	11.9
592.404	11.95
592.598	11.88
592.792	11.86
592.986	11.84
593.179	11.84
593.373	11.94
593.567	11.94
593.76	11.98
593.954	12.01
594.147	12.06
594.341	12.1
594.535	12.04
594.728	12.04
594.922	12.04
595.115	12.05
595.309	12.05
595.502	12.06
595.696	12.07
595.889	12.1
596.083	12.08
596.276	12.01
596.47	12.02
596.663	12.07
596.856	12.08
597.05	12.07
597.243	12.09
597.437	12.12
597.63	12.07
597.823	12.12
598.017	12.07
598.21	12.06
598.403	12.09
598.596	12.17
598.79	12.21
598.983	12.23
599.176	12.24
599.369	12.22
599.563	12.19
599.756	12.26
599.949	12.26
600.142	12.29
600.335	12.33
600.528	12.37
600.722	12.32
600.915	12.36
601.108	12.35
601.301	12.39
601.494	12.41
601.687	12.39
601.88	12.33
602.073	12.26
602.266	12.25
602.459	12.25
602.652	12.23
602.845	12.25
603.038	12.23
603.231	12.22
603.424	12.2
603.617	12.21
603.809	12.22
604.002	12.23
604.195	12.29
604.388	12.31
604.581	12.29
604.774	12.33
604.966	12.27
605.159	12.24
605.352	12.25
605.545	12.35
605.737	12.31
605.93	12.36
606.123	12.42
606.316	12.39
606.508	12.44
606.701	12.45
606.894	12.4
607.086	12.5
607.279	12.52
607.471	12.5
607.664	12.51
607.857	12.56
608.049	12.59
608.242	12.53
608.434	12.51
608.627	12.45
608.819	12.49
609.012	12.54
609.204	12.55
609.397	12.52
609.589	12.52
609.782	12.49
609.974	12.49
610.166	12.48
610.359	12.56
610.551	12.55
610.743	12.61
610.936	12.63
611.128	12.57
611.32	12.55
611.513	12.6
611.705	12.68
611.897	12.68
612.09	12.63
612.282	12.61
612.474	12.57
612.666	12.62
612.858	12.67
613.051	12.66
613.243	12.66
613.435	12.76
613.627	12.78
613.819	12.76
614.011	12.95
614.203	12.94
614.395	12.99
614.588	13.01
614.78	13.1
614.972	13.06
615.164	13.07
615.356	13.12
615.548	12.98
615.74	13.06
615.932	13.05
616.124	12.89
616.315	12.98
616.507	12.99
616.699	12.95
616.891	12.87
617.083	12.8
617.275	12.79
617.467	12.72
617.659	12.77
617.85	12.69
618.042	12.68
618.234	12.62
618.426	12.57
618.618	12.64
618.809	12.62
619.001	12.57
619.193	12.7
619.384	12.71
619.576	12.8
619.768	12.81
619.959	12.78
620.151	12.77
620.343	12.82
620.534	12.89
620.726	12.83
620.917	12.87
621.109	12.94
621.301	12.93
621.492	12.91
621.684	12.94
621.875	12.92
622.067	12.99
622.258	12.95
622.45	12.94
622.641	12.92
622.832	12.91
623.024	12.83
623.215	12.9
623.407	12.85
623.598	12.84
623.789	12.78
623.981	12.77
624.172	12.8
624.363	12.88
624.555	12.93
624.746	12.94
624.937	12.9
625.129	12.95
625.32	12.89
625.511	12.89
625.702	12.82
625.893	12.85
626.085	12.88
626.276	12.84
626.467	12.82
626.658	12.77
626.849	12.77
627.04	12.79
627.231	12.85
627.422	12.81
627.614	12.76
627.805	12.86
627.996	12.85
628.187	12.83
628.378	12.84
628.569	12.84
628.76	12.85
628.951	12.82
629.142	12.81
629.332	12.74
629.523	12.82
629.714	12.87
629.905	12.9
630.096	12.91
630.287	12.94
630.478	12.93
630.669	12.95
630.859	12.89
631.05	12.9
631.241	12.94
631.432	13.02
631.623	13.04
631.813	13.02
632.004	12.96
632.195	12.93
632.385	12.96
632.576	12.97
632.767	12.99
632.957	13
633.148	13.05
633.339	13.01
633.529	13
633.72	12.88
633.91	12.93
634.101	12.88
634.292	12.9
634.482	12.86
634.673	12.91
634.863	12.86
635.054	12.96
635.244	12.89
635.435	12.94
635.625	12.91
635.815	12.98
636.006	12.91
636.196	13.05
636.387	13.04
636.577	13.05
636.767	13.01
636.958	13.08
637.148	13.04
637.338	13.09
637.529	13
637.719	13.11
637.909	13.21
638.099	13.34
638.29	13.24
638.48	13.35
638.67	13.38
638.86	13.39
639.05	13.43
639.241	13.42
639.431	13.4
639.621	13.47
639.811	13.38
640.001	13.33
640.191	13.27
640.381	13.26
640.571	13.13
640.761	13.13
640.951	13.18
641.141	13.12
641.331	13.12
641.521	13.18
641.711	13.24
641.901	13.29
642.091	13.26
642.281	13.17
642.471	13.28
642.661	13.4
642.851	13.43
643.041	13.39
643.231	13.32
643.42	13.36
643.61	13.38
643.8	13.29
643.99	13.31
644.18	13.26
644.369	13.41
644.559	13.35
644.749	13.3
644.939	13.19
645.128	13.12
645.318	13.18
645.508	13.17
645.697	13.11
645.887	13.17
646.076	13.13
646.266	13.19
646.456	13.09
646.645	13.11
646.835	13.11
647.024	13.2
647.214	13.26
647.403	13.24
647.593	13.27
647.782	13.27
647.972	13.29
648.161	13.34
648.351	13.36
648.54	13.37
648.73	13.37
648.919	13.32
649.108	13.21
649.298	13.26
649.487	13.29
649.677	13.22
649.866	13.3
650.055	13.25
650.244	13.2
650.434	13.28
650.623	13.29
650.812	13.3
651.002	13.32
651.191	13.46
651.38	13.46
651.569	13.43
651.758	13.45
651.947	13.48
652.137	13.45
652.326	13.43
652.515	13.35
652.704	13.43
652.893	13.46
653.082	13.56
653.271	13.58
653.46	13.55
653.649	13.62
653.838	13.69
654.027	13.59
654.216	13.6
654.405	13.61
654.594	13.68
654.783	13.71
654.972	13.69
655.161	13.66
655.35	13.62
655.539	13.59
655.728	13.63
655.916	13.66
656.105	13.69
656.294	13.8
656.483	13.79
656.672	13.72
656.86	13.6
657.049	13.53
657.238	13.48
657.427	13.43
657.615	13.47
657.804	13.45
657.993	13.39
658.181	13.33
658.37	13.33
658.559	13.35
658.747	13.35
658.936	13.4
659.125	13.53
659.313	13.52
659.502	13.51
659.69	13.51
659.879	13.47
660.067	13.49
660.256	13.52
660.444	13.52
660.633	13.59
660.821	13.66
661.01	13.68
661.198	13.64
661.387	13.75
661.575	13.8
661.763	13.87
661.952	13.9
662.14	13.9
662.328	13.97
662.517	13.87
662.705	13.77
662.893	13.72
663.082	13.82
663.27	13.74
663.458	13.77
663.646	13.8
663.834	13.78
664.023	13.81
664.211	13.9
664.399	13.87
664.587	13.98
664.775	13.91
664.963	13.91
665.152	13.88
665.34	13.94
665.528	13.86
665.716	13.89
665.904	13.81
666.092	13.78
666.28	13.63
666.468	13.6
666.656	13.49
666.844	13.68
667.032	13.61
667.22	13.52
667.408	13.48
667.596	13.58
667.784	13.51
667.971	13.59
668.159	13.55
668.347	13.57
668.535	13.59
668.723	13.66
668.911	13.57
669.098	13.62
669.286	13.69
669.474	13.71
669.662	13.57
669.849	13.58
670.037	13.47
670.225	13.47
670.413	13.46
670.6	13.45
670.788	13.47
670.976	13.45
671.163	13.46
671.351	13.41
671.538	13.35
671.726	13.55
671.913	13.57
672.101	13.66
672.289	13.65
672.476	13.66
672.664	13.67
672.851	13.7
673.039	13.77
673.226	13.75
673.413	13.72
673.601	13.76
673.788	13.53
673.976	13.59
674.163	13.54
674.35	13.62
674.538	13.72
674.725	13.71
674.912	13.66
675.1	13.69
675.287	13.76
675.474	13.73
675.662	13.74
675.849	13.89
676.036	13.78
676.223	13.85
676.411	13.79
676.598	13.69
676.785	13.74
676.972	13.71
677.159	13.66
677.346	13.56
677.533	13.63
677.721	13.63
677.908	13.62
678.095	13.66
678.282	13.68
678.469	13.7
678.656	13.89
678.843	13.82
679.03	13.85
679.217	13.97
679.404	14
679.591	13.97
679.778	14.04
679.964	13.99
680.151	14.05
680.338	14.04
680.525	14.07
680.712	13.96
680.899	14.07
681.086	14.07
681.272	14.01
681.459	14.05
681.646	14.1
681.833	14.09
682.02	14.14
682.206	14.21
682.393	14.23
682.58	14.3
682.766	14.23
682.953	14.32
683.14	14.37
683.326	14.48
683.513	14.48
683.7	14.54
683.886	14.42
684.073	14.39
684.259	14.33
684.446	14.37
684.632	14.4
684.819	14.54
685.005	14.48
685.192	14.47
685.378	14.36
685.565	14.38
685.751	14.31
685.938	14.43
686.124	14.49
686.31	14.42
686.497	14.24
686.683	14.08
686.87	14.04
687.056	13.97
687.242	13.9
687.429	13.91
687.615	13.9
687.801	14.03
687.987	13.95
688.174	13.87
688.36	13.81
688.546	14.01
688.732	14.09
688.918	13.95
689.105	14
689.291	13.98
689.477	14.04
689.663	14.07
689.849	13.97
690.035	14.09
690.221	14.19
690.407	14.42
690.593	14.39
690.779	14.42
690.965	14.59
691.151	14.61
691.337	14.69
691.523	14.65
691.709	14.69
691.895	14.67
692.081	14.68
692.267	14.66
692.453	14.55
692.639	14.57
692.825	14.46
693.011	14.52
693.196	14.45
693.382	14.44
693.568	14.31
693.754	14.24
693.94	14.24
694.125	14.12
694.311	14.1
694.497	14.1
694.682	14.1
694.868	14.21
695.054	14.12
695.239	14.14
695.425	14.11
695.611	14.33
695.796	14.23
695.982	14.25
696.168	14.28
696.353	14.25
696.539	14.27
696.724	14.22
696.91	14.28
697.095	14.3
697.281	14.38
697.466	14.51
697.652	14.46
697.837	14.47
698.023	14.48
698.208	14.48
698.393	14.56
698.579	14.51
698.764	14.4
698.949	14.34
699.135	14.31
699.32	14.21
699.505	14.16
699.691	14.05
699.876	14
700.061	13.99
700.246	13.97
700.432	13.83
700.617	13.84
700.802	14.03
700.987	14.1
701.172	14.16
701.358	14.17
701.543	14.17
701.728	14.24
701.913	14.54
702.098	14.6
702.283	14.63
702.468	14.73
702.653	14.81
702.838	14.8
703.023	14.74
703.208	14.78
703.393	14.78
703.578	14.87
703.763	14.84
703.948	14.76
704.133	14.71
704.318	14.77
704.503	14.82
704.688	14.92
704.873	14.83
705.057	14.74
705.242	14.69
705.427	14.64
705.612	14.6
705.797	14.77
705.981	14.63
706.166	14.7
706.351	14.46
706.536	14.38
706.72	14.25
706.905	14.45
707.09	14.46
707.274	14.4
707.459	14.64
707.644	14.68
707.828	14.61
708.013	14.67
708.197	14.73
708.382	14.95
708.567	14.89
708.751	14.98
708.936	14.66
709.12	14.7
709.305	14.74
709.489	14.62
709.673	14.54
709.858	14.46
710.042	14.51
710.227	14.54
710.411	14.59
710.596	14.61
710.78	14.48
710.964	14.69
711.149	14.76
711.333	14.66
711.517	14.62
711.702	14.79
711.886	14.75
712.07	14.74
712.254	14.73
712.438	14.68
712.623	14.67
712.807	14.73
712.991	14.77
713.175	14.71
713.359	14.86
713.544	14.84
713.728	14.74
713.912	14.88
714.096	14.79
714.28	14.75
714.464	14.8
714.648	15
714.832	15.04
715.016	15.14
715.2	15.17
715.384	15.21
715.568	15.36
715.752	15.26
715.936	15.25
716.12	15.51
716.304	15.4
716.488	15.34
716.671	15.29
716.855	15.46
717.039	15.26
717.223	15.21
717.407	15.15
717.59	15.02
717.774	15.02
717.958	14.96
718.142	14.63
718.325	14.72
718.509	14.84
718.693	14.7
718.877	14.52
719.06	14.59
719.244	14.66
719.428	14.75
719.611	14.81
719.795	14.82
719.978	15
720.162	15.19
720.345	15.23
720.529	15.22
720.713	15.31
720.896	15.31
721.08	15.21
721.263	15.35
721.446	15.36
721.63	15.31
721.813	15.27
721.997	15.25
722.18	15.2
722.364	15
722.547	14.86
722.73	14.79
722.914	14.66
723.097	14.87
723.28	14.84
723.464	14.79
723.647	14.99
723.83	15.25
724.013	15.21
724.197	15.32
724.38	15.62
724.563	15.64
724.746	15.85
724.929	16.2
725.112	16.22
725.296	16.18
725.479	16.2
725.662	16.04
725.845	15.97
726.028	15.88
726.211	15.75
726.394	15.67
726.577	15.54
726.76	15.32
726.943	15.13
727.126	14.96
727.309	15.02
727.492	15.15
727.675	15.06
727.858	14.86
728.041	15.09
728.224	15.51
728.407	15.48
728.589	15.94
728.772	16.04
728.955	16.06
729.138	16.11
729.321	15.92
729.503	16
729.686	16.05
729.869	16.2
730.052	16.07
730.234	15.68
730.417	15.68
730.6	15.31
730.782	15.29
730.965	15.41
731.148	15.53
731.33	15.55
731.513	15.37
731.695	15.35
731.878	15.16
732.061	15
732.243	15.08
732.426	15.02
732.608	15.14
732.791	15.27
732.973	15.23
733.156	15.16
733.338	15.07
733.52	15.13
733.703	15.19
733.885	15.59
734.068	15.73
734.25	15.86
734.432	15.9
734.615	15.77
734.797	15.25
734.979	14.99
735.162	15.06
735.344	15.38
735.526	15.31
735.708	15.12
735.891	14.88
736.073	14.89
736.255	14.64
736.437	14.79
736.619	14.98
736.802	15.42
736.984	15.38
737.166	15.43
737.348	15.34
737.53	15.32
737.712	15.47
737.894	15.46
738.076	15.4
738.258	15.62
738.44	15.48
738.622	15.45
738.804	15.49
738.986	15.75
739.168	15.6
739.35	15.61
739.532	15.54
739.714	15.92
739.896	16.01
740.078	16.07
740.259	16
740.441	16.23
740.623	16.18
740.805	16.11
740.987	15.85
741.168	15.61
741.35	15.69
741.532	15.92
741.714	15.59
741.895	15.59
742.077	15.59
742.259	15.4
742.44	15.05
742.622	15.09
742.804	14.97
742.985	15.25
743.167	15.46
743.348	15.46
743.53	15.2
743.711	15.24
743.893	15.38
744.075	15.19
744.256	15.41
744.438	15.66
744.619	15.72
744.8	15.92
744.982	15.76
745.163	15.62
745.345	15.35
745.526	15.6
745.707	15.67
745.889	15.23
746.07	15.2
746.252	15.29
746.433	15.02
746.614	14.86
746.795	14.36
746.977	14.52
747.158	14.78
747.339	15.24
747.52	15.14
747.702	15.03
747.883	15.31
748.064	15.74
748.245	15.43
748.426	15.55
748.607	15.72
748.788	16.2
748.97	16.25
749.151	16.14
749.332	15.75
749.513	15.51
749.694	15.87
749.875	16.15
750.056	15.87
750.237	16.02
750.418	15.99
750.599	15.96
750.78	16.14
750.96	15.88
751.141	15.79
751.322	15.83
751.503	16.38
751.684	15.98
751.865	15.5
752.046	15.43
752.226	15.56
752.407	15.67
752.588	15.7
752.769	15.69
752.949	15.58
753.13	15.76
753.311	15.8
753.492	15.44
753.672	15.8
753.853	16.12
754.034	16.25
754.214	16.04
754.395	15.85
754.575	16.06
754.756	15.8
754.937	16.14
755.117	16.16
755.298	16.41
755.478	16.16
755.659	15.53
755.839	15.57
756.02	15.89
756.2	15.85
756.381	15.83
756.561	15.7
756.741	16.12
756.922	16.1
757.102	16.11
757.283	16.03
757.463	16.43
757.643	16.86
757.823	16.5
758.004	16.01
758.184	16.04
758.364	16.41
758.545	16.57
758.725	16.28
758.905	16.19
759.085	16.16
759.265	16.32
759.446	16.29
759.626	16.06
759.806	16.22
759.986	16.51
760.166	16.76
760.346	16.6
760.526	16.52
760.706	16.53
760.886	16.48
761.066	16.45
761.246	16.34
761.426	16.31
761.606	16.42
761.786	16.24
761.966	16.19
762.146	16.13
762.326	16.29
762.506	16.18
762.686	16.15
762.866	16.29
763.046	16.3
763.225	16.37
763.405	16.37
763.585	16.2
763.765	16.34
763.945	16.21
764.124	16.12
764.304	16.08
764.484	16.02
764.664	15.94
764.843	15.75
765.023	15.78
765.203	15.62
765.382	15.63
765.562	15.86
765.741	15.92
765.921	15.99
766.101	15.95
766.28	16.05
766.46	16.14
766.639	16.39
766.819	16.46
766.998	16.62
767.178	16.54
767.357	16.46
767.537	16.4
767.716	16.68
767.896	16.58
768.075	16.68
768.254	16.23
768.434	16.42
768.613	16.49
768.792	16.48
768.972	16.8
769.151	16.79
769.33	16.62
769.51	16.79
769.689	16.65
769.868	16.99
770.047	17.56
770.226	17.7
770.406	17.71
770.585	17.36
770.764	17.39
770.943	16.91
771.122	16.71
771.301	17.58
771.48	17.66
771.66	17.49
771.839	17.19
772.018	16.44
772.197	16.57
772.376	16.43
772.555	16.56
772.734	16.47
772.913	16.37
773.092	16.25
773.271	15.54
773.449	15.35
773.628	15.48
773.807	15.5
773.986	16.05
774.165	15.94
774.344	16.04
774.523	15.74
774.701	15.64
774.88	15.88
775.059	16.07
775.238	16.37
775.417	16.54
775.595	16.4
775.774	16.42
775.953	16.07
776.131	16.05
776.31	15.7
776.489	15.65
776.667	15.79
776.846	15.51
777.025	15.66
777.203	15.51
777.382	15.57
777.56	15.33
777.739	15.35
777.917	15.23
778.096	15.62
778.274	15.96
778.453	16.26
778.631	16.23
778.81	16.31
778.988	16.28
779.166	15.83
779.345	15.51
779.523	15.96
779.702	16.2
779.88	16.35
780.058	16.09
780.237	16.02
780.415	16.44
780.593	16.68
780.771	17.25
780.95	17.67
781.128	17.95
781.306	18.25
781.484	18.05
781.662	17.63
781.841	17.9
782.019	17.96
782.197	18.16
782.375	17.91
782.553	17.98
782.731	17.52
782.909	17.41
783.087	17.99
783.265	18.15
783.443	17.84
783.621	18.08
783.799	18.01
783.977	17.87
784.155	17.64
784.333	18.3
784.511	17.92
784.689	18.29
784.867	18.46
785.045	18.03
785.223	17.49
785.4	17.76
785.578	17.65
785.756	17.08
785.934	17.16
786.112	17.16
786.289	16.35
786.467	16.52
786.645	16.23
786.823	15.76
787	15.69
787.178	15.59
787.356	15.65
787.533	15.62
787.711	16.22
787.889	16.21
788.066	16.31
788.244	16.51
788.421	16.86
788.599	16.71
788.776	16.89
788.954	17.14
789.131	17.41
789.309	17.7
789.486	18.42
789.664	18.42
789.841	18.43
790.019	18.18
790.196	17.71
790.373	16.89
790.551	17.36
790.728	17.08
790.906	17.46
791.083	17.21
791.26	17.13
791.437	16.57
791.615	16.33
791.792	16.74
791.969	17.21
792.146	17.24
792.324	18.04
792.501	18.1
792.678	18.61
792.855	17.77
793.032	17.59
793.209	17.15
793.387	17.46
793.564	17.99
793.741	17.69
793.918	17.85
794.095	18.16
794.272	17.92
794.449	17.34
794.626	17.16
794.803	17.9
794.98	18.22
795.157	18.36
795.334	18.12
795.511	17.48
795.688	17.78
795.864	17.2
796.041	16.93
796.218	17.28
796.395	17.69
796.572	17.94
796.749	17.41
796.925	17.14
797.102	17.52
797.279	17.52
797.456	17.64
797.632	17.15
797.809	17.7
797.986	18.3
798.162	17.92
798.339	17.61
798.516	17.84
798.692	18.14
798.869	17.87
799.046	17.31
799.222	17.11
799.399	16.91
799.575	17.07
799.752	16.89
799.928	17.19
800.105	17.49
800.281	17.64
800.458	17.56
800.634	17.05
800.811	17.63
800.987	18.2
801.163	18.49
801.34	19.43
801.516	19.7
801.692	19.51
801.869	19.59
802.045	19.7
802.221	19.91
802.398	19.49
802.574	19.95
802.75	20.62
802.926	20.63
803.103	21.33
803.279	20.94
803.455	20.89
803.631	20.91
803.807	20.23
803.983	20.44
804.16	19.55
804.336	19.15
804.512	19.51
804.688	19.01
804.864	18.64
805.04	17.66
805.216	17.26
805.392	17.28
805.568	16.9
805.744	17.42
805.92	17
806.096	17.85
806.272	18.4
806.448	18.51
806.623	18.37
806.799	18.75
806.975	19.02
807.151	19.53
807.327	18.39
807.503	18.71
807.678	18.31
807.854	18.39
808.03	18.16
808.206	18.4
808.381	18.1
808.557	18.3
808.733	17.91
808.908	17.29
809.084	17.04
809.26	18.09
809.435	19.06
809.611	19.26
809.787	19.16
809.962	19.35
810.138	18.91
810.313	19.36
810.489	19.34
810.664	19.39
810.84	19.61
811.015	20.02
811.191	19.42
811.366	19.76
811.542	19.92
811.717	19.83
811.892	20.46
812.068	20.63
812.243	20.19
812.419	19.98
812.594	20.06
812.769	20.69
812.944	20.37
813.12	20.46
813.295	19.07
813.47	18.59
813.645	19.38
813.821	18.77
813.996	19.72
814.171	19.53
814.346	20.03
814.521	19.86
814.697	20.67
814.872	20.92
815.047	21.08
815.222	21.86
815.397	21.72
815.572	21.03
815.747	20.93
815.922	20.48
816.097	20.67
816.272	20.63
816.447	20.58
816.622	19.95
816.797	19.58
816.972	19.61
817.147	19.23
817.322	19.49
817.496	19.67
817.671	20.29
817.846	19.82
818.021	19.62
818.196	19.41
818.371	19.45
818.545	18.79
818.72	18.79
818.895	18.66
819.069	18.26
819.244	18.81
819.419	18.74
819.594	18.53
819.768	18.77
819.943	18.47
820.117	18.32
820.292	18.27
820.467	18.52
820.641	18.44
820.816	18.49
820.99	18.41
821.165	18.13
821.339	18.01
821.514	18.09
821.688	17.82
821.863	17.73
822.037	17.54
822.212	17.51
822.386	17.39
822.56	17.34
822.735	17.34
822.909	17.45
823.084	17.37
823.258	17.34
823.432	17.09
823.606	17.3
823.781	17.54
823.955	17.76
824.129	17.58
824.303	17.57
824.478	17.63
824.652	17.36
824.826	17.08
825	16.83
825.174	16.97
825.348	16.94
825.523	16.65
825.697	16.67
825.871	16.89
826.045	17.31
826.219	17.29
826.393	17.18
826.567	17.34
826.741	17.49
826.915	17.68
827.089	17.76
827.263	18.07
827.437	18.16
827.611	17.99
827.784	17.72
827.958	17.72
828.132	17.78
828.306	18.09
828.48	18.32
828.654	18.42
828.827	18.8
829.001	18.36
829.175	18.08
829.349	18.45
829.522	18.64
829.696	19.41
829.87	19.84
830.044	20.52
830.217	20.87
830.391	20.95
830.565	21.11
830.738	21.27
830.912	22.18
831.085	21.98
831.259	22.57
831.432	22.64
831.606	22.46
831.779	21.6
831.953	20.84
832.126	20.6
832.3	20.06
832.473	19.59
832.647	19.35
832.82	18.8
832.994	18.84
833.167	18.64
833.34	18.31
833.514	18.2
833.687	18.24
833.86	18.7
834.034	18.46
834.207	18.63
834.38	18.6
834.553	18.74
834.727	19.28
834.9	19.05
835.073	18.99
835.246	19.52
835.419	19.47
835.593	19.27
835.766	19.01
835.939	19.9
836.112	19.86
836.285	20.83
836.458	20.91
836.631	20.5
836.804	21.67
836.977	20.58
837.15	20.73
837.323	20.44
837.496	20.76
837.669	19.87
837.842	18.64
838.015	18.34
838.188	17.14
838.361	16.7
838.533	16.11
838.706	15.65
838.879	16.84
839.052	15.66
839.225	16.52
839.398	17.03
839.57	18.28
839.743	18.41
839.916	18.98
840.088	19.99
840.261	20.08
840.434	20.93
840.607	20.9
840.779	20.57
840.952	21.77
841.124	21.65
841.297	23.03
841.47	22.96
841.642	23.01
841.815	23.28
841.987	23.14
842.16	23.69
842.332	23.44
842.505	23.59
842.677	24.38
842.85	23.59
843.022	23.35
843.194	20.86
843.367	20.85
843.539	19.76
843.712	19.67
843.884	19.64
844.056	19.57
844.229	20.9
844.401	20.61
844.573	20.36
844.745	22.24
844.918	21.64
845.09	21.97
845.262	20.5
845.434	22.32
845.606	21.79
845.779	23.55
845.951	24.61
846.123	22.33
846.295	21.92
846.467	21.57
846.639	20.36
846.811	21.39
846.983	21.63
847.155	23.97
847.327	23.8
847.499	24.68
847.671	22.6
847.843	22.55
848.015	24.41
848.187	25.96
848.359	24.89
848.531	24.34
848.703	23.97
848.875	24.04
849.047	20.39
849.218	20.41
849.39	19.57
849.562	19.32
849.734	18.94
849.905	18.72
850.077	17.7
850.249	19.29
850.421	20.92
850.592	18.62
850.764	18.85
850.936	20.78
851.107	20.39
851.279	20.89
851.451	21.5
851.622	21.06
851.794	21.01
851.965	20.6
852.137	21.83
852.308	20.84
852.48	24.9
852.651	23.62
852.823	25.33
852.994	24.65
853.166	25.82
853.337	25.5
853.509	24.72
853.68	24.82
853.851	25.39
854.023	23.63
854.194	23.96
854.365	24.2
854.537	24.47
854.708	23.05
854.879	24.54
855.05	23.57
855.222	24.62
855.393	25.78
855.564	26.46
855.735	26.01
855.906	25.55
856.078	24.72
856.249	24.34
856.42	25.47
856.591	26.21
856.762	24.25
856.933	24.3
857.104	24.83
857.275	24.6
857.446	25.43
857.617	25.44
857.788	25.71
857.959	26.89
858.13	27.36
858.301	27.79
858.472	27.08
858.643	29.83
858.814	30.78
858.985	31.76
859.155	30.58
859.326	31.53
859.497	33.69
859.668	33.68
859.839	36.22
860.009	33.8
860.18	32.53
860.351	32.87
860.522	32.44
860.692	30.1
860.863	28.39
861.034	30.12
861.204	25.93
861.375	26.01
861.546	26.1
861.716	22.59
861.887	25.66
862.057	28.01
862.228	25.25
862.398	24.85
862.569	26.73
862.739	29.12
862.91	29.63
863.08	29.59
863.251	30.02
863.421	30.41
863.592	30.2
863.762	29.78
863.932	27.69
864.103	31.72
864.273	31.94
864.443	31.19
864.614	29.69
864.784	29.9
864.954	31.86
865.125	31.85
865.295	32.8
865.465	32.63
865.635	31.64
865.805	32.94
865.976	32.09
866.146	31.63
866.316	31.1
866.486	31
866.656	29.37
866.826	27.43
866.996	24.28
867.166	25.7
867.336	28.02
867.506	27.46
867.676	26.07
867.846	26.37
868.016	25.75
868.186	29.39
868.356	28.74
868.526	28.39
868.696	32.23
868.866	34.21
869.036	32.11
869.206	30.33
869.376	30.27
869.545	32.41
869.715	32.49
869.885	32.88
870.055	30.76
870.224	28.37
870.394	31.64
870.564	30.73
870.734	30.58
870.903	31.14
871.073	29.37
871.243	28.87
871.412	28.91
871.582	27.66
871.751	27.66
871.921	28.81
872.091	29.4
872.26	26.18
872.43	22.12
872.599	22.06
872.769	21.14
872.938	23.9
873.108	26.34
873.277	25.58
873.446	25.84
873.616	24.24
873.785	24.47
873.955	26.91
874.124	29.16
874.293	31.4
874.463	32.1
874.632	32.82
874.801	31.51
874.971	29.46
875.14	29.36
875.309	28.8
875.478	31.31
875.647	27.71
875.817	24.77
875.986	23.99
876.155	24.49
876.324	24.63
876.493	24.07
876.662	25.14
876.831	26.73
877	27.1
877.17	27.15
877.339	25.43
877.508	27.55
877.677	31.14
877.846	29.95
878.015	30.06
878.184	30.67
878.352	30.13
878.521	29.42
878.69	29.2
878.859	27.96
879.028	27.75
879.197	29.62
879.366	28.57
879.534	26.5
879.703	26.08
879.872	25.41
880.041	24.93
880.21	23.78
880.378	23.14
880.547	22.13
880.716	21.59
880.884	21.29
881.053	20.63
881.222	20.45
881.39	20.3
881.559	20.19
881.727	20.43
881.896	19.89
882.065	20.35
882.233	20.43
882.402	20.61
882.57	20.61
882.739	20.48
882.907	20.34
883.076	20.05
883.244	20.06
883.412	20.47
883.581	20.16
883.749	20.47
883.918	19.94
884.086	20.1
884.254	20.16
884.423	21.28
884.591	22.14
884.759	21.8
884.927	22.45
885.096	22.64
885.264	22.49
885.432	23.57
885.6	22.62
885.769	22
885.937	22.81
886.105	22.45
886.273	21.07
886.441	19.34
886.609	20.86
886.777	21.84
886.945	22.96
887.113	24.46
887.281	22.67
887.449	24.43
887.617	27.38
887.785	25.64
887.953	27.57
888.121	27.35
888.289	28.78
888.457	30.72
888.625	29.03
888.793	30.38
888.961	27.15
889.129	29.22
889.296	29.86
889.464	30.02
889.632	31.63
889.8	29.95
889.967	31.95
890.135	34.22
