Data from JASIL_3102_Relative_1.txt Node
Date: Thu Nov 12 19:31:49 EST 2015
User: Geneva
Spectrometer: USB4E03002
Autoset integration time: false
Trigger mode: 4
Integration Time (sec): 1.000000E-1
Scans to average: 10
Electric dark correction enabled: true
Nonlinearity correction enabled: false
Boxcar width: 5
Stray light correction enabled: false
XAxis mode: Wavelengths
Stop averaging: false
Number of Pixels in Spectrum: 3648
>>>>>Begin Spectral Data<<<<<
177.575	111.44
177.794	521.96
178.014	227.99
178.233	151.78
178.452	193.96
178.672	114.59
178.891	356.34
179.11	118.41
179.33	1322.62
179.549	-75.84
179.768	-464.37
179.987	1596.14
180.207	-658.44
180.426	-2204.55
180.645	9387.78
180.864	-334.32
181.084	-412.7
181.303	-206.32
181.522	-261.3
181.741	-5163.19
181.96	463.06
182.179	1805.7
182.398	-578.37
182.618	-1538.96
182.837	-1978.47
183.056	900.95
183.275	265.37
183.494	755.62
183.713	496.38
183.932	587.87
184.151	600.25
184.37	1888.38
184.589	751.27
184.808	511.51
185.027	1837.43
185.246	541.23
185.465	645.14
185.684	1008.42
185.903	648.66
186.122	861.89
186.341	1999.27
186.56	1300.83
186.779	-1125.57
186.998	-585.44
187.216	-225.24
187.435	-242.47
187.654	-241.79
187.873	-157.65
188.092	-100.87
188.311	-98.83
188.53	-111.58
188.748	-66.71
188.967	-44.68
189.186	-128.13
189.405	-190.14
189.623	-441.59
189.842	1326.69
190.061	-8374.68
190.28	600.43
190.498	258.51
190.717	219.21
190.936	279.97
191.154	267.05
191.373	220.83
191.592	168.5
191.81	161.42
192.029	263.51
192.248	290.59
192.466	264.11
192.685	365.04
192.904	336.98
193.122	419.11
193.341	945.93
193.559	-2355.76
193.778	3252.15
193.996	2881.04
194.215	1444.89
194.433	882.98
194.652	5651.23
194.87	-1291.48
195.089	-860.57
195.307	-505.91
195.526	-493.68
195.744	-632.59
195.963	-1919.2
196.181	4122.15
196.399	-392.23
196.618	-860.92
196.836	-799.4
197.055	-388.73
197.273	-186.82
197.491	-247.99
197.71	6397.78
197.928	398.5
198.146	379.43
198.365	460.31
198.583	7440.52
198.801	372.98
199.019	273.89
199.238	191.66
199.456	260.61
199.674	174.74
199.892	205.31
200.111	707.06
200.329	-1298.24
200.547	-599.48
200.765	-332.11
200.983	-144.16
201.202	-133.39
201.42	-213.65
201.638	-321.41
201.856	-299.86
202.074	-218.19
202.292	-191.79
202.51	906.61
202.728	312.42
202.946	283.23
203.165	287.21
203.383	226.39
203.601	250.42
203.819	227.64
204.037	303.34
204.255	210.46
204.473	212.22
204.691	178.44
204.909	342.42
205.127	372.31
205.345	900.61
205.562	-5746.45
205.78	-1166.3
205.998	-924.66
206.216	-3323.33
206.434	720.23
206.652	-7432.35
206.87	-598.27
207.088	-322.27
207.306	-1504.53
207.523	-277.87
207.741	-546.03
207.959	4572.2
208.177	40400
208.395	-619.25
208.612	-1127.47
208.83	-373.75
209.048	-311.9
209.266	-1106.02
209.483	-476.44
209.701	-95.24
209.919	-576.54
210.136	-542.09
210.354	-620.23
210.572	-446.86
210.79	-885.65
211.007	1205.27
211.225	1022.76
211.442	528.29
211.66	3891.32
211.878	710.15
212.095	348.28
212.313	482.81
212.53	404.04
212.748	378.54
212.966	226.31
213.183	177.81
213.401	225.51
213.618	280.95
213.836	333.78
214.053	385.45
214.271	346.45
214.488	641.76
214.705	332.65
214.923	-4459.03
215.14	6297.09
215.358	-242.72
215.575	-198.56
215.793	-239.21
216.01	-213.92
216.227	-21181.48
216.445	-851.97
216.662	-293.11
216.879	-11649.06
217.097	-133.63
217.314	565.69
217.531	-1324.76
217.749	361.96
217.966	547.43
218.183	2870.86
218.4	636.07
218.618	1111.72
218.835	560.57
219.052	256.31
219.269	279.99
219.487	265.45
219.704	239.04
219.921	188.56
220.138	243.85
220.355	273.61
220.572	348.84
220.79	375.21
221.007	385.01
221.224	-319.45
221.441	-76.15
221.658	-57.57
221.875	-88.11
222.092	-43.84
222.309	-32.18
222.526	-74.38
222.743	-83.55
222.96	-44.6
223.177	0.02
223.394	-0.39
223.611	-208.09
223.828	-80.97
224.045	-129.9
224.262	-33.24
224.479	-41.05
224.696	-38
224.913	-39.18
225.13	-53.9
225.347	-132.92
225.564	-140.44
225.781	-290.43
225.997	-187.05
226.214	-186.31
226.431	-207.36
226.648	-254.08
226.865	-203.27
227.082	-236.32
227.298	-216.9
227.515	-182.96
227.732	-93.1
227.949	-98.7
228.165	-73.49
228.382	-62.23
228.599	-84.85
228.816	-78.74
229.032	-53.83
229.249	-52.87
229.466	-43.62
229.682	-45.99
229.899	-46.36
230.116	-58.59
230.332	-50.07
230.549	-57.13
230.765	-50.52
230.982	-39.86
231.199	-55.81
231.415	-74.5
231.632	-49.64
231.848	-74.83
232.065	-60.96
232.281	-57.35
232.498	-72.59
232.714	-95.4
232.931	-143.27
233.147	-154.06
233.364	-167.08
233.58	-79.98
233.797	-83.82
234.013	-89.78
234.23	-100.27
234.446	-157.7
234.662	-192.38
234.879	-135.35
235.095	-156.6
235.312	-92.06
235.528	-124.2
235.744	-154.4
235.961	-208.34
236.177	-195.04
236.393	-216.03
236.61	-113.81
236.826	-71.03
237.042	-66.79
237.258	-58.84
237.475	-50.35
237.691	-70.27
237.907	-74.11
238.123	-52.37
238.339	-47.59
238.556	-69.06
238.772	-68.79
238.988	-71.6
239.204	-66.91
239.42	-62
239.636	-63.87
239.853	-40.6
240.069	-40.52
240.285	-34.32
240.501	-34.06
240.717	-35.25
240.933	-36.65
241.149	-28.15
241.365	-29.61
241.581	-30.61
241.797	-23.92
242.013	-23.3
242.229	-21.99
242.445	-13.32
242.661	-8.1
242.877	-8.79
243.093	-11.69
243.309	-6.25
243.525	-9.71
243.741	-7.81
243.957	-11.8
244.173	-13.74
244.388	-12.23
244.604	-10.75
244.82	-5.63
245.036	-8.71
245.252	-7.8
245.468	-5.27
245.683	-4.71
245.899	-3.59
246.115	-1.75
246.331	-0.95
246.547	-0.1
246.762	0.38
246.978	-3.01
247.194	-4.78
247.409	-6.53
247.625	-6.75
247.841	-10.72
248.057	-10.75
248.272	-14.04
248.488	-19.77
248.703	-14.96
248.919	-19.22
249.135	-28.96
249.35	-21.76
249.566	-27.23
249.782	-18.08
249.997	-16
250.213	-4.91
250.428	-7.72
250.644	-1.59
250.859	2.2
251.075	1.89
251.29	2.4
251.506	6.52
251.721	-0.94
251.937	-1.78
252.152	-6.02
252.368	0.66
252.583	-6.81
252.798	-5.39
253.014	-9.22
253.229	-13.43
253.445	-26.99
253.66	-31.19
253.875	-30.03
254.091	-32.99
254.306	-29.04
254.521	-23.44
254.737	-54.65
254.952	-34.61
255.167	-48.25
255.383	-43.44
255.598	-43.28
255.813	-14.24
256.028	-9.9
256.244	-7.25
256.459	-0.12
256.674	-5.16
256.889	-11.11
257.104	-9.62
257.32	-13.68
257.535	-10.67
257.75	-9.26
257.965	-5.64
258.18	-9.91
258.395	-11.11
258.61	-12.92
258.826	-13.51
259.041	-11.9
259.256	-10.25
259.471	-8.82
259.686	-4.91
259.901	-4.3
260.116	-6.2
260.331	-9.57
260.546	-9.21
260.761	-8.75
260.976	-10.16
261.191	-13.47
261.406	-15.62
261.621	-18.89
261.836	-20.87
262.05	-27.16
262.265	-24.44
262.48	-26.69
262.695	-24.72
262.91	-29.33
263.125	-30.26
263.34	-35.43
263.555	-34.23
263.769	-36.01
263.984	-31.63
264.199	-35.54
264.414	-32.79
264.629	-39.05
264.843	-47.82
265.058	-40.85
265.273	-40.36
265.488	-33.84
265.702	-29.31
265.917	-20.52
266.132	-14.51
266.346	-14.42
266.561	-11.63
266.776	-10.06
266.99	-11.79
267.205	-5.46
267.42	-6.86
267.634	-6.43
267.849	-9.04
268.063	-9.75
268.278	-12.75
268.492	-18.96
268.707	-18.94
268.922	-15.73
269.136	-18.32
269.351	-11.96
269.565	-7.13
269.78	-7.99
269.994	-7.49
270.209	-6.76
270.423	-7.22
270.637	-7.38
270.852	-5.41
271.066	-9.93
271.281	-12.54
271.495	-10.33
271.709	-12.99
271.924	-18.36
272.138	-19.33
272.353	-19.25
272.567	-16.87
272.781	-16.85
272.996	-14.46
273.21	-13.26
273.424	-8.37
273.638	-9.75
273.853	-12.65
274.067	-9.95
274.281	-7
274.495	-7.73
274.71	-7.79
274.924	-11.94
275.138	-10.25
275.352	-15.35
275.566	-18.49
275.781	-15.7
275.995	-16.77
276.209	-21.09
276.423	-20.1
276.637	-21.68
276.851	-20.48
277.065	-22.71
277.279	-24.73
277.493	-27.69
277.707	-27.03
277.921	-25.14
278.135	-30.88
278.349	-28.63
278.563	-20.95
278.777	-27.28
278.991	-29.09
279.205	-28.49
279.419	-25.41
279.633	-20.39
279.847	-16.48
280.061	-14.48
280.275	-12.92
280.489	-13.23
280.703	-9.43
280.917	-10.73
281.131	-8.86
281.344	-6.15
281.558	-5.5
281.772	-6.39
281.986	-11.04
282.2	-13.27
282.414	-12.31
282.627	-9.84
282.841	-10.44
283.055	-10.26
283.269	-8.77
283.482	-7.89
283.696	-8.29
283.91	-5.59
284.123	-3.12
284.337	-0.42
284.551	0.95
284.764	0.81
284.978	-0.35
285.192	1.95
285.405	0.72
285.619	1.46
285.833	-2.52
286.046	-1.61
286.26	-3.45
286.473	-5.13
286.687	-8.48
286.9	-9.3
287.114	-11.21
287.327	-14.2
287.541	-12.02
287.754	-12.34
287.968	-14.89
288.181	-10.53
288.395	-14.05
288.608	-15.49
288.822	-18.16
289.035	-14.58
289.248	-16.69
289.462	-12.91
289.675	-11.32
289.889	-14.94
290.102	-13.43
290.315	-14.52
290.529	-16.47
290.742	-13.53
290.955	-12.86
291.169	-11.16
291.382	-12.13
291.595	-9.74
291.808	-13.5
292.022	-10.13
292.235	-9.63
292.448	-9.65
292.661	-6.97
292.875	-2.86
293.088	-5.05
293.301	-4.52
293.514	-5.41
293.727	-2.69
293.94	-4.38
294.153	-2.8
294.367	-5.57
294.58	-5.24
294.793	-6.44
295.006	-4.46
295.219	-3.63
295.432	-3.72
295.645	-2.78
295.858	-2.44
296.071	-3.99
296.284	-4.98
296.497	-4.17
296.71	-3.35
296.923	-3.11
297.136	-2.47
297.349	-3.97
297.562	-4.53
297.775	-2.88
297.988	-1.5
298.201	-1.79
298.414	-2.5
298.626	-0.57
298.839	-1.54
299.052	-2.85
299.265	-2.88
299.478	-3.72
299.691	-6.3
299.903	-9.83
300.116	-10.97
300.329	-14.29
300.542	-12.76
300.755	-11.7
300.967	-14.33
301.18	-15.51
301.393	-13.53
301.605	-13.51
301.818	-11.49
302.031	-12.28
302.243	-12.41
302.456	-11.24
302.669	-8.18
302.881	-8.33
303.094	-7.64
303.307	-6.46
303.519	-5.73
303.732	-5.76
303.944	-8.81
304.157	-8.84
304.37	-5.96
304.582	-3.83
304.795	-5.48
305.007	-9.88
305.22	-8.28
305.432	-7.57
305.645	-3.5
305.857	-2.07
306.069	-3.22
306.282	-0.94
306.494	-2.85
306.707	-2.11
306.919	-0.7
307.132	-0.11
307.344	1.06
307.556	2.21
307.769	3.47
307.981	0.74
308.193	-0.46
308.406	0.87
308.618	1.56
308.83	0.66
309.043	0.07
309.255	-2.14
309.467	-3.21
309.679	-1.71
309.892	-3.35
310.104	-3.01
310.316	-0.78
310.528	-0.51
310.74	-0.14
310.953	-2.14
311.165	-1.15
311.377	-0.74
311.589	-1.21
311.801	-1.39
312.013	0.74
312.225	-0.41
312.437	-4.74
312.649	-7.58
312.862	-7.97
313.074	-9.67
313.286	-9.96
313.498	-11.29
313.71	-13.77
313.922	-12.51
314.134	-9.56
314.346	-13.37
314.558	-14.56
314.77	-13.9
314.982	-12.8
315.193	-9.97
315.405	-10.65
315.617	-8.76
315.829	-6.73
316.041	-3.55
316.253	-1.09
316.465	-2.91
316.677	-3.72
316.888	-4.17
317.1	-3.64
317.312	-3.97
317.524	-5.62
317.736	-5.5
317.947	-6.64
318.159	-9.95
318.371	-11.32
318.583	-16.6
318.794	-16.33
319.006	-13.81
319.218	-8.87
319.43	-8.2
319.641	-9.59
319.853	-14.17
320.064	-15.5
320.276	-14.62
320.488	-12.59
320.699	-10.59
320.911	-9.22
321.123	-9.23
321.334	-10.23
321.546	-10.3
321.757	-9.14
321.969	-8.79
322.18	-8.77
322.392	-8.83
322.603	-13.51
322.815	-12.81
323.026	-16.01
323.238	-14.26
323.449	-14.56
323.661	-13.62
323.872	-15.55
324.083	-17.21
324.295	-15.26
324.506	-11.55
324.718	-10.43
324.929	-3.21
325.14	-0.53
325.352	-0.16
325.563	0.09
325.774	-1.03
325.986	-3.32
326.197	-0.32
326.408	-0.19
326.62	-1.47
326.831	-2.22
327.042	-0.79
327.253	-3.54
327.464	-3.37
327.676	-4.45
327.887	-8.01
328.098	-6.13
328.309	-4.81
328.52	-8.63
328.732	-6.19
328.943	-3.3
329.154	-1.31
329.365	-5.59
329.576	-4.52
329.787	-7.56
329.998	-5.03
330.209	-3.86
330.42	-2.4
330.631	-4.55
330.842	-5.08
331.053	-7.36
331.264	-10.26
331.475	-11.02
331.686	-6.36
331.897	-8.01
332.108	-7.85
332.319	-8.44
332.53	-7.5
332.741	-9.05
332.952	-6.29
333.163	-5.2
333.374	-3.85
333.585	-7.16
333.795	-6.21
334.006	-6.66
334.217	-7.66
334.428	-7.76
334.639	-7.63
334.849	-7.58
335.06	-5.54
335.271	-7.39
335.482	-8.43
335.692	-6.73
335.903	0.52
336.114	-3
336.325	-2.59
336.535	-2.33
336.746	-2.66
336.957	-1.65
337.167	1.08
337.378	-0.77
337.589	1.4
337.799	0.99
338.01	-0.21
338.22	-5.77
338.431	-7.64
338.642	-9.93
338.852	-7.54
339.063	-6.71
339.273	-8.88
339.484	-11.22
339.694	-9.56
339.905	-9.81
340.115	-7.61
340.326	-9.18
340.536	-4.19
340.746	0.47
340.957	1.19
341.167	0.87
341.378	3.29
341.588	5.35
341.799	5.48
342.009	4.02
342.219	2.58
342.43	3.85
342.64	5.91
342.85	4.92
343.061	4.1
343.271	4.23
343.481	3.56
343.691	2.07
343.902	2.37
344.112	1.46
344.322	1.23
344.532	2.23
344.743	0.36
344.953	-0.84
345.163	-2.46
345.373	-2.76
345.583	-3.42
345.793	-3.14
346.004	-3.73
346.214	-5.66
346.424	-4.98
346.634	-3.23
346.844	-4.76
347.054	-4.51
347.264	-5.08
347.474	-3.42
347.684	-4.34
347.894	-4.3
348.104	-5.93
348.314	-7.62
348.524	-6.9
348.734	-6.17
348.944	-6.25
349.154	-5.57
349.364	-5.42
349.574	-3.68
349.784	-4.11
349.994	-5.33
350.204	-6
350.413	-5.14
350.623	-2.66
350.833	-1.62
351.043	-2.65
351.253	-3.78
351.463	-1.84
351.672	-1.17
351.882	-2.35
352.092	-4.09
352.302	-1.58
352.511	-0.76
352.721	-0.46
352.931	-0.27
353.141	-2.07
353.35	-1.33
353.56	-2.69
353.77	-5.2
353.979	-5.03
354.189	-4.6
354.399	-2.94
354.608	-2.13
354.818	-1.1
355.027	-0.83
355.237	-1.34
355.447	1.38
355.656	0.95
355.866	2.44
356.075	3.33
356.285	1.94
356.494	1.41
356.704	0.75
356.913	0.57
357.123	1.24
357.332	1.46
357.542	1.41
357.751	0.71
357.96	0.85
358.17	0.3
358.379	0.1
358.589	1.75
358.798	1.44
359.007	0.91
359.217	1.17
359.426	1.45
359.635	0.72
359.845	0.61
360.054	-0.12
360.263	1.99
360.472	1.91
360.682	2.02
360.891	1.46
361.1	1.9
361.309	2.29
361.519	0.89
361.728	-1.02
361.937	-0.6
362.146	-0.54
362.355	-1.19
362.564	-3.91
362.774	-3.74
362.983	-3.51
363.192	-2.6
363.401	-3.05
363.61	-3.25
363.819	-1.88
364.028	1.25
364.237	-0.04
364.446	-0.89
364.655	-0.15
364.864	0.24
365.073	0.32
365.282	0.47
365.491	0.41
365.7	-0.3
365.909	0.23
366.118	-0.59
366.327	-0.79
366.536	0.1
366.745	1.68
366.954	1.27
367.162	1.97
367.371	2.34
367.58	2.06
367.789	0.43
367.998	2.64
368.207	1.95
368.415	1.05
368.624	0.27
368.833	1.21
369.042	1.16
369.25	1.11
369.459	0.68
369.668	1.31
369.877	1.2
370.085	2.05
370.294	0.87
370.503	0.42
370.711	1.88
370.92	0.61
371.129	-0.49
371.337	-0.67
371.546	-1.52
371.754	-1.72
371.963	-2.5
372.171	-1.66
372.38	-0.73
372.589	-1.77
372.797	-1.1
373.006	-1.46
373.214	-1.87
373.423	-1.8
373.631	-0.91
373.84	0.33
374.048	0.99
374.256	0.86
374.465	-0.75
374.673	-1.4
374.882	-0.72
375.09	-0.71
375.298	0.63
375.507	0.79
375.715	0.85
375.923	-1.17
376.132	-1.57
376.34	-2.46
376.548	-2.41
376.757	-2.47
376.965	-1.51
377.173	-0.39
377.381	1.07
377.59	-0.44
377.798	0.44
378.006	1.03
378.214	1.64
378.423	3.04
378.631	4.16
378.839	3.83
379.047	5.66
379.255	3.77
379.463	3.16
379.671	0.67
379.879	2.16
380.088	1.46
380.296	1.71
380.504	2.22
380.712	1.2
380.92	-0.16
381.128	-0.86
381.336	-1.54
381.544	-2.68
381.752	-3.39
381.96	-1.63
382.168	-2.96
382.376	-2.08
382.584	-2.7
382.791	-4.15
382.999	-5.37
383.207	-5.7
383.415	-3.92
383.623	-5.8
383.831	-4.63
384.039	-5.45
384.247	-5.85
384.454	-6.87
384.662	-8.69
384.87	-7.54
385.078	-6.1
385.285	-4.84
385.493	-2.8
385.701	-3.41
385.909	-1.2
386.116	0.79
386.324	1.46
386.532	0.48
386.739	1.17
386.947	1.93
387.155	1.61
387.362	1.87
387.57	0.77
387.778	0.52
387.985	0.57
388.193	-0.58
388.4	-2.55
388.608	-2.08
388.816	-0.52
389.023	-0.46
389.231	0.19
389.438	0.82
389.646	0.39
389.853	1.57
390.061	1.62
390.268	2.34
390.475	2.52
390.683	1.61
390.89	2.55
391.098	2.55
391.305	2.49
391.512	1.88
391.72	0.42
391.927	0.17
392.135	0.97
392.342	0.84
392.549	0.15
392.756	1.2
392.964	1.96
393.171	1.2
393.378	1.15
393.586	1.23
393.793	0.76
394	1.22
394.207	1.58
394.414	0.37
394.622	0.07
394.829	0.54
395.036	-0.51
395.243	-0.03
395.45	-0.24
395.657	-1.33
395.864	-1.76
396.072	-0.18
396.279	-0.37
396.486	-1.4
396.693	-0.79
396.9	-1.06
397.107	-2.36
397.314	-2.76
397.521	-3.54
397.728	-3.41
397.935	-3.04
398.142	-2.55
398.349	-3.33
398.556	-3.49
398.763	-1.52
398.97	-1.58
399.177	-1.15
399.383	-0.1
399.59	0.01
399.797	0.19
400.004	-0.69
400.211	-1.02
400.418	-1.4
400.625	-1.02
400.831	-0.19
401.038	-1.23
401.245	-1.71
401.452	-2.16
401.658	-2.64
401.865	-2.56
402.072	-1.99
402.279	-1.09
402.485	0.45
402.692	1.28
402.899	0.72
403.105	0.57
403.312	0.91
403.519	1.34
403.725	0.86
403.932	1.33
404.138	2.27
404.345	1.88
404.552	2.04
404.758	1.17
404.965	1.19
405.171	0.91
405.378	0.5
405.584	0.82
405.791	0.52
405.997	1.16
406.204	1.49
406.41	0.76
406.617	1.49
406.823	2.04
407.029	1.71
407.236	0.98
407.442	1.31
407.649	1.12
407.855	0.64
408.061	1.45
408.268	1.59
408.474	1.44
408.68	0.85
408.887	0.97
409.093	0.55
409.299	0.3
409.505	1.25
409.712	1.82
409.918	2.2
410.124	2.45
410.33	1.93
410.537	1.23
410.743	-0.13
410.949	0.75
411.155	-0.77
411.361	-0.54
411.567	-0.8
411.773	-1.68
411.98	-2.54
412.186	-3.35
412.392	-4.04
412.598	-4.44
412.804	-4.14
413.01	-3.31
413.216	-4.58
413.422	-3.02
413.628	-4.07
413.834	-3.9
414.04	-3.04
414.246	-2.56
414.452	-1.58
414.658	-0.93
414.864	-0.8
415.07	-0.28
415.275	0.11
415.481	1.22
415.687	0.45
415.893	1.01
416.099	1.06
416.305	0.75
416.511	1.1
416.716	1.18
416.922	0.41
417.128	-0.31
417.334	-0.5
417.539	-0.76
417.745	-0.88
417.951	-0.05
418.157	-0.07
418.362	0.45
418.568	0.09
418.774	0.03
418.979	0.13
419.185	0.79
419.391	1.91
419.596	1.79
419.802	1.74
420.008	1.98
420.213	1.86
420.419	1.4
420.624	1.5
420.83	1.99
421.035	2.02
421.241	1.48
421.446	1.31
421.652	0.99
421.857	1.53
422.063	1.8
422.268	1.48
422.474	1.51
422.679	2.29
422.885	2.37
423.09	1.56
423.295	2.15
423.501	2.48
423.706	2.6
423.911	2.93
424.117	2.47
424.322	2.94
424.527	3.04
424.733	3.1
424.938	2.96
425.143	3.28
425.349	4.21
425.554	3.64
425.759	3.76
425.964	3.45
426.169	2.94
426.375	3.23
426.58	2.65
426.785	2.78
426.99	2.56
427.195	2.14
427.4	1.4
427.605	0.75
427.811	0.78
428.016	1.43
428.221	2.79
428.426	3.07
428.631	2.78
428.836	2.63
429.041	1.32
429.246	1.62
429.451	2.01
429.656	2.62
429.861	3.21
430.066	2.77
430.271	1.95
430.476	0.91
430.681	0.54
430.886	1.12
431.09	0.93
431.295	2.4
431.5	2.38
431.705	1.94
431.91	1.4
432.115	1.75
432.32	2.35
432.524	3.1
432.729	2.88
432.934	2.92
433.139	2.45
433.343	2.74
433.548	2.47
433.753	1.88
433.958	2.27
434.162	2.41
434.367	2.2
434.572	1.83
434.776	1.19
434.981	1.86
435.186	2.14
435.39	2.08
435.595	2.2
435.799	1.59
436.004	1.64
436.209	1.94
436.413	1.33
436.618	0.65
436.822	0.95
437.027	1.25
437.231	0.78
437.436	0.63
437.64	0.83
437.845	0.74
438.049	1.36
438.253	1.61
438.458	1.23
438.662	1.76
438.867	1.96
439.071	1.68
439.275	1.53
439.48	1.62
439.684	1.84
439.888	2.27
440.093	2.59
440.297	2.39
440.501	2.37
440.706	2.31
440.91	1.92
441.114	2.16
441.318	2.28
441.523	2.08
441.727	1.76
441.931	1.06
442.135	0.57
442.339	0.27
442.543	0.51
442.748	0.03
442.952	0.2
443.156	0.72
443.36	0.47
443.564	0.35
443.768	0.8
443.972	1.05
444.176	1.84
444.38	2.26
444.584	2.05
444.788	2.22
444.992	2.77
445.196	2.61
445.4	2.26
445.604	2.04
445.808	1.89
446.012	1.52
446.216	1.54
446.42	1.54
446.624	1.02
446.828	0.97
447.032	0.82
447.235	0.67
447.439	0.9
447.643	1.38
447.847	1.27
448.051	1.51
448.254	1.23
448.458	1.17
448.662	1.14
448.866	1.11
449.069	1.42
449.273	1.25
449.477	1.64
449.681	0.92
449.884	0.26
450.088	0.57
450.292	0.78
450.495	1.36
450.699	1.97
450.902	1.33
451.106	1.71
451.31	0.72
451.513	1.25
451.717	0.38
451.92	1.23
452.124	1.49
452.327	1.29
452.531	1.05
452.734	0.82
452.938	-0.19
453.141	0.21
453.345	0.08
453.548	0.69
453.752	-0.43
453.955	0.39
454.158	-0.49
454.362	-0.16
454.565	0.71
454.769	1
454.972	0.79
455.175	1.62
455.379	1.18
455.582	1
455.785	1.41
455.988	1.96
456.192	1.74
456.395	2.7
456.598	1.98
456.801	0.84
457.005	0.78
457.208	0.9
457.411	0.44
457.614	0.88
457.817	1.31
458.021	1.47
458.224	1.8
458.427	1.55
458.63	1.39
458.833	1.6
459.036	1.93
459.239	1.71
459.442	2.21
459.645	2.39
459.848	2.22
460.051	2
460.254	1.76
460.457	1.7
460.66	1.9
460.863	1.35
461.066	1.85
461.269	1.86
461.472	1.69
461.675	1.41
461.878	2.25
462.081	2.66
462.284	2.79
462.486	2.33
462.689	2.52
462.892	2.16
463.095	2.71
463.298	2.19
463.5	2.52
463.703	3.31
463.906	3.05
464.109	1.85
464.311	1.68
464.514	1.42
464.717	1.85
464.92	1.48
465.122	1.86
465.325	1.58
465.528	1.76
465.73	1.02
465.933	0.59
466.135	0.26
466.338	0.79
466.541	0.76
466.743	1.13
466.946	1
467.148	1.07
467.351	0.99
467.553	1.18
467.756	0.93
467.958	0.68
468.161	0.74
468.363	1.56
468.566	1.04
468.768	1.25
468.971	0.95
469.173	1.08
469.375	0.69
469.578	0.46
469.78	-0.13
469.983	-0.45
470.185	0.72
470.387	0.57
470.59	-0.11
470.792	0.06
470.994	-0.36
471.196	-0.3
471.399	-0.47
471.601	0.05
471.803	0.34
472.005	0.83
472.208	1.57
472.41	1.32
472.612	1.04
472.814	1.4
473.016	0.88
473.218	1.18
473.421	1.16
473.623	1.46
473.825	1.35
474.027	1.54
474.229	1.43
474.431	1.76
474.633	2.35
474.835	2.53
475.037	2.86
475.239	3.63
475.441	3.79
475.643	3.97
475.845	3.9
476.047	3.47
476.249	3.91
476.451	3.92
476.653	3.77
476.855	3.28
477.057	3.3
477.258	3.1
477.46	2.82
477.662	2.26
477.864	2.15
478.066	1.82
478.268	2.15
478.469	1.65
478.671	2.02
478.873	1.65
479.075	1.29
479.276	1.58
479.478	1.45
479.68	0.93
479.882	1.44
480.083	1.14
480.285	1.68
480.487	1.34
480.688	1.63
480.89	1.81
481.091	1.65
481.293	2.2
481.495	1.82
481.696	2.12
481.898	2.7
482.099	2.7
482.301	2.83
482.502	2.78
482.704	2.96
482.905	2.96
483.107	2.76
483.308	2.89
483.51	2.71
483.711	2.79
483.913	2.79
484.114	2.62
484.315	2.68
484.517	2.6
484.718	2.57
484.92	2.57
485.121	2.32
485.322	2.63
485.524	2.48
485.725	2.65
485.926	2.74
486.127	2.54
486.329	2.55
486.53	2.28
486.731	2.34
486.932	2.16
487.134	2.13
487.335	2.4
487.536	2.27
487.737	2.24
487.938	2.12
488.139	2.08
488.341	2.02
488.542	2
488.743	2.11
488.944	2.06
489.145	2.29
489.346	2.45
489.547	2.18
489.748	2.09
489.949	2.17
490.15	2.37
490.351	2.58
490.552	2.65
490.753	2.73
490.954	2.75
491.155	2.9
491.356	2.85
491.557	2.73
491.758	2.65
491.959	2.51
492.159	2.43
492.36	2.17
492.561	2.09
492.762	2.12
492.963	1.94
493.164	1.68
493.364	1.16
493.565	0.96
493.766	1.08
493.967	1.49
494.167	1.73
494.368	1.78
494.569	2.21
494.769	2.23
494.97	2.36
495.171	2.4
495.371	2.31
495.572	2.73
495.773	2.3
495.973	2.17
496.174	2.33
496.375	2.22
496.575	2.29
496.776	2.11
496.976	2.1
497.177	1.88
497.377	2.06
497.578	2.26
497.778	2.3
497.979	2.87
498.179	2.38
498.38	1.77
498.58	1.85
498.78	2.2
498.981	2.33
499.181	2.33
499.382	2.16
499.582	2.01
499.782	2.01
499.983	1.89
500.183	2.08
500.383	2.43
500.584	2.78
500.784	3.22
500.984	2.84
501.184	2.16
501.385	2.09
501.585	2.07
501.785	2.13
501.985	2.04
502.185	1.81
502.386	1.79
502.586	1.79
502.786	1.58
502.986	0.93
503.186	1.15
503.386	1.75
503.586	1.78
503.786	2.07
503.987	2.16
504.187	2.43
504.387	2.78
504.587	2.91
504.787	2.77
504.987	2.43
505.187	2.53
505.387	2.94
505.587	2.77
505.786	2.43
505.986	1.95
506.186	1.86
506.386	1.66
506.586	1.65
506.786	1.49
506.986	1.41
507.186	2.04
507.386	2.66
507.585	2.22
507.785	2.1
507.985	2.37
508.185	3.08
508.384	2.84
508.584	2.88
508.784	2.88
508.984	2.22
509.183	2.33
509.383	2.16
509.583	1.7
509.782	1.45
509.982	1.48
510.182	1.74
510.381	1.35
510.581	1.49
510.781	1.57
510.98	1.48
511.18	2.29
511.379	2.29
511.579	2.53
511.778	2.52
511.978	2.73
512.177	2.79
512.377	2.5
512.576	2.53
512.776	2.75
512.975	2.82
513.175	2.86
513.374	2.83
513.573	3.06
513.773	3.21
513.972	3.3
514.172	3.72
514.371	3.5
514.57	3.22
514.77	3.48
514.969	3.62
515.168	3.22
515.367	3.12
515.567	3.23
515.766	3.36
515.965	2.94
516.164	3.13
516.364	3.15
516.563	3.4
516.762	3.73
516.961	3.58
517.16	3.64
517.359	4.07
517.559	4.15
517.758	3.86
517.957	3.94
518.156	3.96
518.355	4.01
518.554	3.53
518.753	3.76
518.952	3.66
519.151	3.61
519.35	3.58
519.549	3.35
519.748	3.72
519.947	3.99
520.146	3.52
520.345	3.95
520.544	3.8
520.743	4.02
520.942	3.89
521.141	4.23
521.339	4.57
521.538	4.31
521.737	4.51
521.936	4.28
522.135	4.11
522.333	4.39
522.532	4.5
522.731	3.95
522.93	4.15
523.129	4.11
523.327	3.89
523.526	3.98
523.725	4.09
523.923	4.05
524.122	4.34
524.321	4.17
524.519	4.25
524.718	4.15
524.917	4.75
525.115	4.79
525.314	4.98
525.512	5.18
525.711	5.1
525.909	5.52
526.108	5.66
526.306	5.7
526.505	6.03
526.703	6.28
526.902	6.35
527.1	6.39
527.299	6.35
527.497	6.42
527.696	6.52
527.894	6.49
528.092	6.28
528.291	6.41
528.489	6.3
528.688	6.31
528.886	6.3
529.084	6.35
529.283	6.41
529.481	6.53
529.679	6.6
529.877	6.59
530.076	6.76
530.274	6.77
530.472	6.52
530.67	6.8
530.869	7.07
531.067	6.98
531.265	7.16
531.463	7.23
531.661	7.02
531.859	6.91
532.057	6.77
532.255	6.87
532.454	7.05
532.652	7.28
532.85	7.11
533.048	7.1
533.246	7.06
533.444	6.78
533.642	6.75
533.84	7
534.038	7.16
534.236	7.27
534.434	7.37
534.632	7.52
534.83	7.46
535.027	7.62
535.225	7.69
535.423	8.19
535.621	8.2
535.819	8.03
536.017	7.99
536.215	7.85
536.412	7.7
536.61	7.48
536.808	7.28
537.006	7.47
537.203	7.17
537.401	6.91
537.599	6.7
537.797	6.69
537.994	6.97
538.192	7.35
538.39	7.86
538.587	8.55
538.785	8.65
538.983	8.77
539.18	8.67
539.378	9
539.575	9.07
539.773	9.29
539.97	9.42
540.168	9.14
540.366	9
540.563	8.79
540.761	8.38
540.958	8.65
541.155	8.76
541.353	8.9
541.55	8.94
541.748	9.03
541.945	8.96
542.143	9.06
542.34	9.14
542.537	9.25
542.735	9.39
542.932	9.52
543.129	9.55
543.327	9.43
543.524	9.39
543.721	9.13
543.919	8.86
544.116	8.95
544.313	8.87
544.51	8.83
544.708	8.33
544.905	8.07
545.102	8.29
545.299	7.77
545.496	7.8
545.693	7.84
545.891	7.91
546.088	8.24
546.285	7.94
546.482	7.54
546.679	7.8
546.876	8.11
547.073	8.28
547.27	8.02
547.467	7.82
547.664	8.09
547.861	8.14
548.058	8.33
548.255	7.67
548.452	7.83
548.649	8.13
548.846	8.16
549.043	8.08
549.24	8.37
549.437	9.05
549.633	9.58
549.83	9.18
550.027	8.89
550.224	8.61
550.421	9.28
550.618	9.16
550.814	8.8
551.011	9.03
551.208	9.94
551.405	9.44
551.601	8.92
551.798	9.13
551.995	9.34
552.191	9.1
552.388	9.37
552.585	9.3
552.781	9.21
552.978	10.18
553.175	10.4
553.371	9.91
553.568	10.19
553.764	10.1
553.961	10.15
554.157	10.62
554.354	10.87
554.55	10.89
554.747	10.89
554.943	11.12
555.14	10.29
555.336	9.62
555.533	9.67
555.729	9.58
555.926	10.15
556.122	9.55
556.318	9.06
556.515	9.23
556.711	9.45
556.907	9.14
557.104	8.75
557.3	9.55
557.496	9.81
557.693	9.49
557.889	9.14
558.085	9
558.281	9.56
558.478	9.91
558.674	9.78
558.87	9.71
559.066	9.86
559.262	10.85
559.459	11.27
559.655	11.55
559.851	11.54
560.047	11.59
560.243	11.63
560.439	11.62
560.635	11.54
560.831	11.8
561.027	11.85
561.223	12.15
561.419	11.47
561.615	11.3
561.811	11.19
562.007	11.16
562.203	10.53
562.399	10.86
562.595	10.6
562.791	10.33
562.987	9.45
563.183	9.18
563.379	9.57
563.575	9.91
563.771	9.73
563.966	10.57
564.162	11.13
564.358	12.11
564.554	12.76
564.75	12.86
564.945	13.12
565.141	14.41
565.337	14.96
565.533	14.71
565.728	14.87
565.924	14.91
566.12	13.9
566.315	14.33
566.511	14.74
566.707	14.23
566.902	14.79
567.098	14.93
567.293	14.46
567.489	13.97
567.684	14.65
567.88	14.78
568.076	14.45
568.271	14.93
568.467	14.41
568.662	14.21
568.858	14.79
569.053	14.86
569.248	15.18
569.444	14.89
569.639	15.23
569.835	14.86
570.03	14.53
570.225	14.82
570.421	15.17
570.616	15.06
570.812	14.96
571.007	14.89
571.202	14.9
571.397	14.31
571.593	14.85
571.788	14.43
571.983	13.98
572.178	14.56
572.374	14.58
572.569	14.07
572.764	14.11
572.959	14.24
573.154	13.73
573.35	13.61
573.545	13.68
573.74	13.54
573.935	13.96
574.13	14.6
574.325	14.19
574.52	14.46
574.715	14.96
574.91	15.39
575.105	15.64
575.3	15.41
575.495	15.16
575.69	14.54
575.885	14.57
576.08	14.9
576.275	14.42
576.47	14.3
576.665	14.22
576.86	14.28
577.055	14.02
577.25	12.91
577.444	13.07
577.639	13.25
577.834	14.09
578.029	14.52
578.224	13.94
578.418	14.37
578.613	14.64
578.808	14.42
579.003	13.94
579.197	14.49
579.392	15.62
579.587	15.97
579.781	16.51
579.976	17.14
580.171	16.74
580.365	17.11
580.56	16.59
580.755	16.07
580.949	16.06
581.144	15.93
581.338	15.06
581.533	15.5
581.727	15.24
581.922	14.56
582.116	14.11
582.311	14.55
582.505	14.68
582.7	15.36
582.894	16.5
583.089	15.96
583.283	16.11
583.478	16.68
583.672	16.16
583.866	16.68
584.061	17.05
584.255	17.28
584.449	17.27
584.644	16.53
584.838	16.52
585.032	16.21
585.226	16.67
585.421	16.67
585.615	16.72
585.809	16.2
586.003	16.28
586.198	16.44
586.392	15.92
586.586	15.79
586.78	17.09
586.974	16.55
587.168	16.4
587.363	16.79
587.557	17.24
587.751	17.38
587.945	17.5
588.139	18.14
588.333	18.4
588.527	19.24
588.721	19.38
588.915	18.63
589.109	19.32
589.303	18.73
589.497	18.82
589.691	18.47
589.885	18.18
590.079	18.56
590.273	17.26
590.466	16.68
590.66	16.52
590.854	17.08
591.048	17.4
591.242	17.13
591.436	17.47
591.629	17.55
591.823	18.03
592.017	18.45
592.211	18.44
592.404	19.03
592.598	19.42
592.792	19.31
592.986	18.5
593.179	18.19
593.373	18.1
593.567	18.76
593.76	18.74
593.954	18.25
594.147	17.93
594.341	18.26
594.535	17.93
594.728	17.69
594.922	17.67
595.115	17.82
595.309	17.86
595.502	18.02
595.696	17.33
595.889	17.64
596.083	18
596.276	17.82
596.47	17.84
596.663	18.21
596.856	18.02
597.05	18.26
597.243	18.51
597.437	18.7
597.63	18.44
597.823	18.78
598.017	18
598.21	17.76
598.403	17.73
598.596	17.71
598.79	17.34
598.983	17.56
599.176	17.23
599.369	16.08
599.563	16.4
599.756	16.61
599.949	16.83
600.142	16.88
600.335	16.8
600.528	16.77
600.722	16.6
600.915	16.57
601.108	17.25
601.301	16.98
601.494	17.88
601.687	18
601.88	17.99
602.073	18.52
602.266	19.56
602.459	19.83
602.652	20.05
602.845	20.16
603.038	19.81
603.231	19.54
603.424	20.06
603.617	19.87
603.809	19.4
604.002	19.73
604.195	19.79
604.388	19.03
604.581	18.73
604.774	18.35
604.966	18.3
605.159	18.78
605.352	18.33
605.545	17.66
605.737	17.8
605.93	17.75
606.123	17.55
606.316	16.5
606.508	17.18
606.701	17.5
606.894	18.13
607.086	17.21
607.279	17.15
607.471	17.6
607.664	18.53
607.857	18.3
608.049	18.81
608.242	19.45
608.434	19.44
608.627	18.49
608.819	18.25
609.012	18.27
609.204	19.11
609.397	18.38
609.589	18.21
609.782	17.57
609.974	18.08
610.166	17.49
610.359	17.23
610.551	17.45
610.743	18.07
610.936	18.63
611.128	18.35
611.32	18.45
611.513	19.65
611.705	19.39
611.897	20.05
612.09	19.47
612.282	20.09
612.474	18.97
612.666	19.11
612.858	19.16
613.051	18.29
613.243	18.31
613.435	17.65
613.627	18.6
613.819	19.28
614.011	18.69
614.203	19.04
614.395	19.86
614.588	20.15
614.78	19.99
614.972	20.2
615.164	21.66
615.356	22.39
615.548	22.2
615.74	21.18
615.932	20.94
616.124	21.55
616.315	21.82
616.507	20.73
616.699	20.5
616.891	20.81
617.083	20.28
617.275	19.39
617.467	18.72
617.659	19.64
617.85	19.73
618.042	20.04
618.234	20.62
618.426	20.4
618.618	20.51
618.809	20.95
619.001	20.74
619.193	21
619.384	21.38
619.576	21.43
619.768	20.38
619.959	20.49
620.151	20.57
620.343	20.27
620.534	19.62
620.726	20.23
620.917	19.85
621.109	19.39
621.301	18.7
621.492	17.7
621.684	18.29
621.875	19.41
622.067	20.01
622.258	20.23
622.45	19.22
622.641	19.94
622.832	20.59
623.024	21.27
623.215	21.62
623.407	22.21
623.598	22.96
623.789	22.38
623.981	22.14
624.172	20.96
624.363	20.32
624.555	20.12
624.746	19.47
624.937	18.24
625.129	17.29
625.32	17.94
625.511	17.5
625.702	17.15
625.893	15.88
626.085	15.81
626.276	15.92
626.467	15.97
626.658	15.77
626.849	16.62
627.04	15.92
627.231	16.81
627.422	15.68
627.614	15.66
627.805	16.62
627.996	17.88
628.187	18.54
628.378	18.91
628.569	18.62
628.76	18.87
628.951	18.69
629.142	19.84
629.332	19.97
629.523	20.21
629.714	20.96
629.905	19.96
630.096	19.22
630.287	18.64
630.478	19.45
630.669	19.74
630.859	19.62
631.05	19.33
631.241	19.39
631.432	18.69
631.623	19.06
631.813	19.17
632.004	18.82
632.195	19.68
632.385	19.28
632.576	18.33
632.767	18.38
632.957	18.76
633.148	18.54
633.339	18.35
633.529	18.65
633.72	19.21
633.91	19.22
634.101	19.76
634.292	19.16
634.482	18.75
634.673	17.78
634.863	18.03
635.054	18.24
635.244	18.26
635.435	18.41
635.625	19.2
635.815	18.45
636.006	18.48
636.196	18.37
636.387	18.88
636.577	18.96
636.767	20.83
636.958	20.76
637.148	20.51
637.338	21.64
637.529	21.45
637.719	20.23
637.909	20.1
638.099	19.48
638.29	19.94
638.48	19.48
638.67	20.15
638.86	19.26
639.05	19.13
639.241	18.81
639.431	17.76
639.621	17.72
639.811	17.88
640.001	18.29
640.191	18.82
640.381	18.91
640.571	20.18
640.761	20.21
640.951	20.35
641.141	19.85
641.331	20.49
641.521	20.75
641.711	20.33
641.901	20.23
642.091	19.56
642.281	18.76
642.471	18.34
642.661	17.76
642.851	17.81
643.041	18.6
643.231	19.64
643.42	19.82
643.61	18.89
643.8	18.36
643.99	18.75
644.18	19.75
644.369	20.34
644.559	20.19
644.749	19.31
644.939	18.16
645.128	17.44
645.318	17.6
645.508	17.06
645.697	17.09
645.887	18.27
646.076	17.86
646.266	17.53
646.456	17.76
646.645	18.02
646.835	19.11
647.024	19.09
647.214	19.41
647.403	19.07
647.593	18.62
647.782	19.28
647.972	18.79
648.161	19.26
648.351	19.04
648.54	19.08
648.73	19.84
648.919	20.02
649.108	20.47
649.298	19.62
649.487	18.83
649.677	19.5
649.866	19.27
650.055	19.78
650.244	19.71
650.434	20.45
650.623	19.92
650.812	19.99
651.002	19.55
651.191	19.66
651.38	19.85
651.569	20.72
651.758	20.9
651.947	20.82
652.137	19.99
652.326	19.89
652.515	19.12
652.704	19.26
652.893	19.32
653.082	18.85
653.271	19.32
653.46	19.62
653.649	18.8
653.838	18.4
654.027	19.06
654.216	19.49
654.405	20.56
654.594	20.6
654.783	19.38
654.972	17.77
655.161	18.1
655.35	18.18
655.539	17.91
655.728	19.09
655.916	19.35
656.105	19.86
656.294	20.34
656.483	19.32
656.672	19.74
656.86	20.87
657.049	21.58
657.238	21.92
657.427	22.29
657.615	22.8
657.804	22.8
657.993	22.59
658.181	22.15
658.37	21.14
658.559	20.96
658.747	20.63
658.936	21.48
659.125	21.82
659.313	21.98
659.502	21.73
659.69	21.55
659.879	20.2
660.067	19.96
660.256	20.31
660.444	20.6
660.633	20.87
660.821	21.45
661.01	20.12
661.198	19.48
661.387	19.52
661.575	19.57
661.763	19.65
661.952	20.56
662.14	21.03
662.328	20.68
662.517	20.84
662.705	20.94
662.893	20.65
663.082	20.21
663.27	19.54
663.458	19.46
663.646	20.94
663.834	20.75
664.023	20.87
664.211	21.12
664.399	19.97
664.587	20.74
664.775	21.02
664.963	20.88
665.152	21.08
665.34	21.25
665.528	18.84
665.716	17.11
665.904	17.08
666.092	18.48
666.28	17.71
666.468	18.32
666.656	18.55
666.844	18.52
667.032	17.22
667.22	17.68
667.408	19.29
667.596	21.5
667.784	22.03
667.971	22.31
668.159	21.53
668.347	21.73
668.535	22.9
668.723	22.52
668.911	21.82
669.098	22.67
669.286	22.83
669.474	21.53
669.662	20.84
669.849	19.8
670.037	19.98
670.225	19.6
670.413	20.03
670.6	19.22
670.788	18.97
670.976	19.72
671.163	20.6
671.351	22.2
671.538	23.37
671.726	22.65
671.913	22.12
672.101	21.28
672.289	21.56
672.476	21.9
672.664	22.27
672.851	22.59
673.039	22.69
673.226	22.34
673.413	19.83
673.601	18.94
673.788	19.2
673.976	20.73
674.163	21.99
674.35	20.27
674.538	19.33
674.725	20.51
674.912	20.63
675.1	21.78
675.287	21.98
675.474	22.64
675.662	23.88
675.849	24.49
676.036	23.95
676.223	22.34
676.411	23.98
676.598	25.18
676.785	23.95
676.972	23.97
677.159	23.48
677.346	21.89
677.533	21.55
677.721	20.46
677.908	20.91
678.095	21.37
678.282	21.59
678.469	21.75
678.656	21.31
678.843	21.98
679.03	22.78
679.217	21.2
679.404	22.01
679.591	22.72
679.778	21.35
679.964	20.79
680.151	19.37
680.338	20.49
680.525	20.49
680.712	19.99
680.899	19.9
681.086	19.53
681.272	20.72
681.459	20.82
681.646	21.52
681.833	22.85
682.02	22.55
682.206	24.14
682.393	22.41
682.58	19.87
682.766	21.3
682.953	20.23
683.14	19.97
683.326	20.03
683.513	19.54
683.7	17.72
683.886	19.89
684.073	20.71
684.259	18.8
684.446	20.19
684.632	21.44
684.819	19.77
685.005	20.49
685.192	19.2
685.378	19.5
685.565	19.84
685.751	21.29
685.938	20.6
686.124	20.42
686.31	22.2
686.497	20.88
686.683	22.28
686.87	21.5
687.056	21.28
687.242	22.3
687.429	21.42
687.615	21.77
687.801	20.89
687.987	20.44
688.174	21.09
688.36	19.89
688.546	21.05
688.732	20.31
688.918	21.18
689.105	21.14
689.291	22.7
689.477	22.03
689.663	22.89
689.849	23.53
690.035	23.55
690.221	22.71
690.407	23.13
690.593	22.03
690.779	23.41
690.965	23.83
691.151	23
691.337	20.76
691.523	22.14
691.709	22.07
691.895	21.24
692.081	21.05
692.267	19.95
692.453	21.04
692.639	22.4
692.825	22.45
693.011	23.16
693.196	23.05
693.382	23.06
693.568	20.71
693.754	19.32
693.94	19.88
694.125	18.95
694.311	21.53
694.497	20.64
694.682	20.6
694.868	19.31
695.054	18.47
695.239	20.27
695.425	20.67
695.611	22.68
695.796	23.21
695.982	22.45
696.168	23.34
696.353	21.06
696.539	21.93
696.724	21.15
696.91	20.74
697.095	21.06
697.281	20.94
697.466	20.64
697.652	20.95
697.837	21.09
698.023	21.7
698.208	21.11
698.393	22.84
698.579	21.74
698.764	21.51
698.949	21.75
699.135	21.65
699.32	20.34
699.505	20.78
699.691	19.78
699.876	19.44
700.061	20
700.246	19.91
700.432	18.95
700.617	20
700.802	21.65
700.987	21.34
701.172	20.89
701.358	22.19
701.543	22.92
701.728	22.38
701.913	22.6
702.098	23.28
702.283	22.62
702.468	22.4
702.653	21.24
702.838	20.55
703.023	20.55
703.208	20
703.393	18.91
703.578	17.61
703.763	19.45
703.948	19.87
704.133	18.25
704.318	18.74
704.503	20.87
704.688	22.07
704.873	22.59
705.057	22.76
705.242	23.38
705.427	23.88
705.612	25.83
705.797	24.19
705.981	24.19
706.166	23.58
706.351	22.89
706.536	21.22
706.72	20.19
706.905	18.31
707.09	19.09
707.274	19.18
707.459	18.67
707.644	15.85
707.828	16.12
708.013	16.01
708.197	14.96
708.382	15.82
708.567	16.74
708.751	17.4
708.936	17.84
709.12	16.76
709.305	17.75
709.489	18.33
709.673	18.49
709.858	20.65
710.042	21.64
710.227	23.38
710.411	24.64
710.596	23.63
710.78	22.45
710.964	23.95
711.149	25.48
711.333	23.86
711.517	24.41
711.702	24.61
711.886	23.07
712.07	21.31
712.254	19.99
712.438	17.57
712.623	17.34
712.807	18.23
712.991	16.96
713.175	14.67
713.359	14.83
713.544	14.44
713.728	14.21
713.912	14.76
714.096	15.02
714.28	16.15
714.464	18.01
714.648	17.81
714.832	18.04
715.016	17.11
715.2	19.02
715.384	19.67
715.568	20.48
715.752	21.14
715.936	20.96
716.12	21.3
716.304	21.03
716.488	21.7
716.671	21.52
716.855	21.7
717.039	23.52
717.223	22.82
717.407	23.42
717.59	23.4
717.774	24.69
717.958	23.25
718.142	23.3
718.325	23.37
718.509	20.5
718.693	20.85
718.877	19.77
719.06	18.2
719.244	18.01
719.428	16.35
719.611	16.18
719.795	13.74
719.978	14.26
720.162	13.87
720.345	10.98
720.529	10.29
720.713	6.79
720.896	8.29
721.08	7.66
721.263	7.91
721.446	8.11
721.63	8.2
721.813	7.78
721.997	10.29
722.18	12.48
722.364	14.72
722.547	15.84
722.73	22.14
722.914	22.78
723.097	24.15
723.28	22.96
723.464	23.54
723.647	20.78
723.83	23.6
724.013	21.65
724.197	22.3
724.38	22.33
724.563	23.14
724.746	17.69
724.929	17.15
725.112	15.35
725.296	15.2
725.479	15
725.662	16.85
725.845	15.83
726.028	14.92
726.211	12.84
726.394	11.82
726.577	14.21
726.76	16.89
726.943	15.65
727.126	17.36
727.309	18.02
727.492	17.97
727.675	17.48
727.858	19.44
728.041	21.62
728.224	22.92
728.407	25.31
728.589	24.9
728.772	24.65
728.955	24.94
729.138	26.09
729.321	25.63
729.503	26.35
729.686	27.47
729.869	25.62
730.052	23.67
730.234	20.6
730.417	18.11
730.6	16.77
730.782	16.97
730.965	16.97
731.148	16.1
731.33	17.39
731.513	17.19
731.695	16.57
731.878	17.33
732.061	18.34
732.243	21.05
732.426	21.95
732.608	22.12
732.791	19.57
732.973	20.29
733.156	19.05
733.338	20.07
733.52	18.92
733.703	18.1
733.885	18.84
734.068	19.57
734.25	19.14
734.432	18.47
734.615	18.19
734.797	19.24
734.979	19.15
735.162	20.84
735.344	18.89
735.526	18.36
735.708	18.77
735.891	17.14
736.073	16.62
736.255	16.97
736.437	18.05
736.619	18.52
736.802	21.17
736.984	21.18
737.166	21.19
737.348	24.58
737.53	25.06
737.712	25.65
737.894	25.23
738.076	25.34
738.258	22.86
738.44	24.89
738.622	22.05
738.804	18.66
738.986	18.85
739.168	19.57
739.35	14.81
739.532	14.3
739.714	14.38
739.896	13.28
740.078	12.66
740.259	12.6
740.441	9.19
740.623	13.53
740.805	15.42
740.987	14.33
741.168	12.86
741.35	15.01
741.532	14.92
741.714	14.59
741.895	17.39
742.077	17.02
742.259	17.36
742.44	19.04
742.622	16.81
742.804	16.63
742.985	20.52
743.167	16.99
743.348	17.75
743.53	17.39
743.711	14.04
743.893	13.5
744.075	14.13
744.256	16.86
744.438	13.81
744.619	15.92
744.8	18.16
744.982	13.87
745.163	16.74
745.345	14.14
745.526	15.02
745.707	18.49
745.889	15.55
746.07	18.04
746.252	16.74
746.433	21.88
746.614	21.5
746.795	20.29
746.977	22.2
747.158	24.14
747.339	23.67
747.52	23.19
747.702	21.96
747.883	23.91
748.064	19.51
748.245	16.03
748.426	12.2
748.607	9.93
748.788	10.61
748.97	9.84
749.151	8.63
749.332	8.94
749.513	8.91
749.694	7.63
749.875	7.36
750.056	6.45
750.237	10.17
750.418	10.99
750.599	10.71
750.78	10.35
750.96	8.79
751.141	9.17
751.322	12.71
751.503	14.28
751.684	15.37
751.865	19.8
752.046	21.3
752.226	18.27
752.407	16.81
752.588	17.81
752.769	17.22
752.949	16.86
753.13	17.77
753.311	14.66
753.492	14.75
753.672	14.95
753.853	18.76
754.034	20.77
754.214	24.03
754.395	25.61
754.575	24.86
754.756	19.2
754.937	20.08
755.117	18.36
755.298	18.63
755.478	16.79
755.659	19.38
755.839	12.97
756.02	12.44
756.2	13.97
756.381	16.12
756.561	16.76
756.741	21.86
756.922	22.4
757.102	22.56
757.283	25.39
757.463	26.92
757.643	25.03
757.823	24.85
758.004	24.25
758.184	22.98
758.364	19.1
758.545	17.03
758.725	15.97
758.905	14.37
759.085	15.33
759.265	14.87
759.446	10.79
759.626	11.15
759.806	10.26
759.986	12.71
760.166	9.21
760.346	6.97
760.526	9.37
760.706	11.22
760.886	10.73
761.066	13.11
761.246	11.53
761.426	16.62
761.606	18.32
761.786	18.11
761.966	16.77
762.146	18.91
762.326	22.66
762.506	23.21
762.686	22.34
762.866	22.75
763.046	21.18
763.225	21.24
763.405	21.51
763.585	19.68
763.765	18.37
763.945	19.55
764.124	19.8
764.304	18.19
764.484	17.75
764.664	18.09
764.843	17.65
765.023	19.26
765.203	20.79
765.382	19.88
765.562	21.93
765.741	25.88
765.921	23.79
766.101	27.67
766.28	30.35
766.46	29.91
766.639	29.39
766.819	33.25
766.998	29.03
767.178	28.72
767.357	27.23
767.537	23.97
767.716	22
767.896	20.97
768.075	18.95
768.254	17.04
768.434	16.79
768.613	15.36
768.792	11.83
768.972	17.36
769.151	16.99
769.33	18.69
769.51	19.82
769.689	19.09
769.868	19.46
770.047	11.93
770.226	10.75
770.406	12.74
770.585	16.4
770.764	18.63
770.943	14.95
771.122	16.54
771.301	15.69
771.48	15.15
771.66	14.9
771.839	17.53
772.018	20.71
772.197	20.82
772.376	15.21
772.555	12.84
772.734	12.33
772.913	11.95
773.092	9.92
773.271	8.27
773.449	7.21
773.628	8.7
773.807	7.95
773.986	8.01
774.165	7.27
774.344	7.96
774.523	9.67
774.701	8.66
774.88	8.2
775.059	8.28
775.238	9.59
775.417	10.75
775.595	9.2
775.774	10.1
775.953	8.58
776.131	8.43
776.31	15.3
776.489	14.76
776.667	16.12
776.846	17.81
777.025	17.66
777.203	19.02
777.382	17.8
777.56	20.89
777.739	17.37
777.917	19.11
778.096	19.9
778.274	14.54
778.453	16.15
778.631	15.43
778.81	16.44
778.988	20.64
779.166	21.96
779.345	24.35
779.523	19.36
779.702	21.27
779.88	22.95
780.058	22.03
780.237	23.86
780.415	25.57
780.593	25.43
780.771	21.03
780.95	14.32
781.128	10.78
781.306	8.39
781.484	8.54
781.662	9.84
781.841	8.53
782.019	13.75
782.197	11.16
782.375	5.6
782.553	9.3
782.731	14.16
782.909	17.12
783.087	16.9
783.265	16.47
783.443	22.24
783.621	19.31
783.799	20.98
783.977	18.6
784.155	21.67
784.333	22.8
784.511	19.46
784.689	17.12
784.867	16.61
785.045	15.61
785.223	16.56
785.4	14.66
785.578	17.87
785.756	15.81
785.934	15.19
786.112	13.58
786.289	10.81
786.467	7.75
786.645	9.62
786.823	9.24
787	8.32
787.178	13.97
787.356	17.79
787.533	12.37
787.711	12.64
787.889	10.66
788.066	16.28
788.244	22.31
788.421	27.5
788.599	27.27
788.776	27.37
788.954	29.84
789.131	26.52
789.309	21.49
789.486	26.93
789.664	23.67
789.841	26.21
790.019	24.34
790.196	17.04
790.373	15.39
790.551	15.04
790.728	14.01
790.906	11.76
791.083	11.4
791.26	12.56
791.437	12.35
791.615	18.2
791.792	20.89
791.969	21.87
792.146	26.83
792.324	28.06
792.501	28.43
792.678	28.21
792.855	29.42
793.032	29.56
793.209	24.94
793.387	21.8
793.564	19.17
793.741	11.32
793.918	11.53
794.095	10.96
794.272	10.07
794.449	11.06
794.626	11.36
794.803	10.32
794.98	13.74
795.157	18.27
795.334	18.64
795.511	16.96
795.688	14.99
795.864	12.6
796.041	9.21
796.218	5.25
796.395	6.17
796.572	9.83
796.749	9.53
796.925	7.28
797.102	6.24
797.279	7.72
797.456	10.41
797.632	14.9
797.809	14.51
797.986	15.96
798.162	22.35
798.339	21
798.516	17.57
798.692	18.54
798.869	19.4
799.046	21.68
799.222	22.66
799.399	19.47
799.575	18.91
799.752	22.26
799.928	22.52
800.105	19.57
800.281	20.49
800.458	22.28
800.634	24.83
800.811	20.36
800.987	16.69
801.163	15.04
801.34	16.32
801.516	15.18
801.692	11.34
801.869	9.67
802.045	7.21
802.221	9.75
802.398	8.17
802.574	7.21
802.75	8.37
802.926	10.38
803.103	5.37
803.279	5.78
803.455	3.52
803.631	-0.42
803.807	-8.03
803.983	-19.63
804.16	-26.64
804.336	-29.08
804.512	-27.86
804.688	-30.02
804.864	-43.07
805.04	-42.32
805.216	-46.76
805.392	-46.83
805.568	-38.25
805.744	-24.2
805.92	-15.9
806.096	-12.54
806.272	-21.41
806.448	-28.57
806.623	-23.19
806.799	-10.06
806.975	-1.49
807.151	4.2
807.327	10.65
807.503	12.37
807.678	11.27
807.854	6.62
808.03	4.37
808.206	19.06
808.381	21.41
808.557	19.79
808.733	15.71
808.908	15.42
809.084	9.24
809.26	8.25
809.435	5.97
809.611	7.92
809.787	12.4
809.962	10.61
810.138	8.77
810.313	11.03
810.489	9.08
810.664	8.7
810.84	8.62
811.015	13.38
811.191	19.63
811.366	21.74
811.542	14.05
811.717	11.51
811.892	8.48
812.068	7.61
812.243	8.93
812.419	0.39
812.594	0.33
812.769	1.54
812.944	-4.87
813.12	-13.76
813.295	-15.41
813.47	-3.08
813.645	-0.64
813.821	4.91
813.996	8.76
814.171	7.14
814.346	10.11
814.521	7.13
814.697	8.65
814.872	10.58
815.047	10.42
815.222	13.57
815.397	10.4
815.572	10.74
815.747	8.15
815.922	1.5
816.097	-2.33
816.272	-1.93
816.447	6.19
816.622	4.86
816.797	2.66
816.972	4.81
817.147	1.26
817.322	0.84
817.496	-1.12
817.671	3.87
817.846	2.63
818.021	0.68
818.196	4.74
818.371	-2.98
818.545	-6.36
818.72	-5.17
818.895	-2.13
819.069	0.53
819.244	-1.04
819.419	2.82
819.594	2.45
819.768	5.04
819.943	10.23
820.117	12.3
820.292	15.95
820.467	16.72
820.641	18.73
820.816	19.73
820.99	20.83
821.165	21.79
821.339	23.14
821.514	24.27
821.688	24.9
821.863	24.51
822.037	25.15
822.212	25.04
822.386	25.85
822.56	25.44
822.735	24.78
822.909	25.14
823.084	25.59
823.258	24.72
823.432	23.85
823.606	23.15
823.781	22.96
823.955	22.17
824.129	21.93
824.303	20.2
824.478	20.01
824.652	21.88
824.826	20.79
825	19.66
825.174	19.84
825.348	19.88
825.523	20
825.697	19.76
825.871	18.9
826.045	19.8
826.219	20.03
826.393	20.8
826.567	18.37
826.741	18.39
826.915	20.36
827.089	21.04
827.263	21.91
827.437	20.56
827.611	21.74
827.784	21.47
827.958	21.82
828.132	20.9
828.306	20.21
828.48	19.83
828.654	17.86
828.827	13.73
829.001	9.75
829.175	6.55
829.349	6.79
829.522	5.28
829.696	5.96
829.87	-1.31
830.044	0.73
830.217	1.57
830.391	3.05
830.565	10.57
830.738	8.65
830.912	7.75
831.085	8.79
831.259	12.33
831.432	9.69
831.606	7.98
831.779	11.6
831.953	12.1
832.126	15.12
832.3	16.85
832.473	13.48
832.647	17.75
832.82	19.01
832.994	18.6
833.167	18.18
833.34	17.27
833.514	17.17
833.687	16.96
833.86	14.49
834.034	11.8
834.207	10.21
834.38	11.36
834.553	9.11
834.727	11.72
834.9	11.69
835.073	10.21
835.246	10.2
835.419	7.86
835.593	0.59
835.766	2.34
835.939	2.34
836.112	3.81
836.285	0.83
836.458	3.71
836.631	0.43
836.804	-1.54
836.977	0.55
837.15	0.36
837.323	4.45
837.496	12.61
837.669	21.47
837.842	18.95
838.015	17.99
838.188	22.94
838.361	24.18
838.533	19.73
838.706	16.07
838.879	19.96
839.052	19.46
839.225	4.35
839.398	0.61
839.57	-5.36
839.743	2.05
839.916	6.38
840.088	-1.33
840.261	-8.2
840.434	-3.24
840.607	-0.15
840.779	-9.91
840.952	-7.57
841.124	1.21
841.297	-2.25
841.47	-4.24
841.642	-6.08
841.815	-19.52
841.987	-14.17
842.16	-6.54
842.332	-3.41
842.505	-3.18
842.677	-6.74
842.85	-19.33
843.022	-10.07
843.194	-9.49
843.367	-10.83
843.539	-17.19
843.712	-16.4
843.884	-31.43
844.056	-50.61
844.229	-86.36
844.401	-93.06
844.573	-87.84
844.745	-90.53
844.918	-150.35
845.09	-70.7
845.262	-118.76
845.434	-146.22
845.606	-150.46
845.779	-130.3
845.951	-232.04
846.123	-207.69
846.295	-230.97
846.467	-128.36
846.639	-65.61
846.811	-65.57
846.983	-85.81
847.155	-65.63
847.327	-39.47
847.499	-51.8
847.671	-41.92
847.843	-4.86
848.015	4.07
848.187	-0.07
848.359	-11.77
848.531	-26.53
848.703	-25.24
848.875	-35.12
849.047	-18.87
849.218	-18.09
849.39	-15.21
849.562	-17.65
849.734	-29.02
849.905	-34.76
850.077	-35.4
850.249	-28.82
850.421	-45.15
850.592	-36.95
850.764	-42.79
850.936	-60.75
851.107	-54.36
851.279	-40.28
851.451	-51.23
851.622	-43.02
851.794	-54.12
851.965	-57.56
852.137	-66.12
852.308	-5.44
852.48	18.56
852.651	25.37
852.823	21.31
852.994	-5.66
853.166	-27.55
853.337	-7.63
853.509	1.5
853.68	0.09
853.851	3.53
854.023	6.79
854.194	-6.33
854.365	-23.01
854.537	-21.62
854.708	-32.53
854.879	-23.49
855.05	-11.21
855.222	-34.36
855.393	-41.58
855.564	-39.14
855.735	-46.13
855.906	-54.06
856.078	-49.37
856.249	-28.11
856.42	-26.33
856.591	-18.58
856.762	-10.59
856.933	-7.79
857.104	-0.46
857.275	-3.82
857.446	-1.23
857.617	-10
857.788	-13.89
857.959	-20.01
858.13	-33.06
858.301	-33.85
858.472	-29.16
858.643	-56.64
858.814	-70.48
858.985	-66.74
859.155	-69.49
859.326	-50.25
859.497	-31.49
859.668	-13.36
859.839	-21.02
860.009	-35.69
860.18	-22.15
860.351	-17.91
860.522	-12.09
860.692	-13.49
860.863	-13.2
861.034	-18.92
861.204	-19.37
861.375	-9.49
861.546	-37.06
861.716	-26.12
861.887	-20.01
862.057	-27.61
862.228	-54.22
862.398	-32.22
862.569	-7.96
862.739	-2.77
862.91	-15.05
863.08	-25.42
863.251	-25.96
863.421	-10.5
863.592	-14.53
863.762	-36.25
863.932	-24.72
864.103	-9.92
864.273	-49.51
864.443	-40.42
864.614	-25.15
864.784	-14.23
864.954	-3.5
865.125	-27.78
865.295	-50.73
865.465	-36.55
865.635	-34.82
865.805	-63.91
865.976	-69.12
866.146	-55.99
866.316	-97.43
866.486	-88.12
866.656	-75.74
866.826	-81.99
866.996	-108.24
867.166	-103.51
867.336	-114.22
867.506	-118.63
867.676	-59.35
867.846	-28.15
868.016	-29.49
868.186	-14.73
868.356	-45.77
868.526	-38.73
868.696	-28.58
868.866	-1.51
869.036	-24.95
869.206	-27.99
869.376	-28.92
869.545	-263.28
869.715	-278.02
869.885	-599.63
870.055	-1368.55
870.224	1758.22
870.394	396.87
870.564	360.27
870.734	589.84
870.903	-536.95
871.073	-522.86
871.243	-375.83
871.412	-170.27
871.582	-165.82
871.751	-170.02
871.921	-112.84
872.091	-80.28
872.26	-51.98
872.43	-37.58
872.599	-61.43
872.769	-86.09
872.938	-82.02
873.108	-99.83
873.277	-71.94
873.446	-72.08
873.616	-50.33
873.785	-32.81
873.955	-26.67
874.124	-3.34
874.293	12.08
874.463	15.62
874.632	20.69
874.801	7.28
874.971	2.99
875.14	-1.86
875.309	9.04
875.478	-13.25
875.647	-19.61
875.817	-21.47
875.986	-44.98
876.155	-31.75
876.324	-51.46
876.493	-77.71
876.662	-79.25
876.831	-59.99
877	-29.68
877.17	-26.87
877.339	-21.82
877.508	-35.44
877.677	-51.64
877.846	-54.51
878.015	-58.37
878.184	-60.89
878.352	-16.24
878.521	-40.23
878.69	-27.87
878.859	-51.36
879.028	-52.19
879.197	-43.94
879.366	-43.1
879.534	-36.35
879.703	-57.53
879.872	-48.8
880.041	-27.09
880.21	-26.29
880.378	3.11
880.547	13.64
880.716	6.57
880.884	8.88
881.053	7.77
881.222	9.98
881.39	9.15
881.559	17.1
881.727	12.68
881.896	12.61
882.065	9.83
882.233	8.93
882.402	3.38
882.57	8.22
882.739	7.97
882.907	9.07
883.076	10.43
883.244	11.86
883.412	8.54
883.581	10.06
883.749	12.03
883.918	17.7
884.086	13.68
884.254	14.96
884.423	11.57
884.591	11.33
884.759	9.25
884.927	7.46
885.096	2.28
885.264	4.14
885.432	4.42
885.6	0.77
885.769	-22.15
885.937	-7.39
886.105	-5.01
886.273	-21.02
886.441	-25.65
886.609	-51.18
886.777	-87.39
886.945	-62.03
887.113	-56.19
887.281	-52.29
887.449	-76.67
887.617	-37.5
887.785	-75.13
887.953	-99.52
888.121	-106.14
888.289	-120.68
888.457	-97.98
888.625	-66.25
888.793	-77.98
888.961	-101.2
889.129	-111.49
889.296	-106.24
889.464	-147.29
889.632	-132.26
889.8	-123.25
889.967	-67.91
890.135	-80.46
