Data from JASIL_2926_Reflection_1.txt Node
Date: Sat Nov 07 20:39:44 EST 2015
User: Geneva
Spectrometer: USB4E03002
Autoset integration time: false
Trigger mode: 4
Integration Time (sec): 1.000000E-1
Scans to average: 10
Electric dark correction enabled: true
Nonlinearity correction enabled: false
Boxcar width: 5
Stray light correction enabled: false
XAxis mode: Wavelengths
Stop averaging: false
Number of Pixels in Spectrum: 3648
>>>>>Begin Spectral Data<<<<<
177.575	-681.25
177.794	-340
178.014	-533.33
178.233	-102.3
178.452	-100.66
178.672	-3.7
178.891	106.45
179.11	0
179.33	1912
179.549	-1766.67
179.768	738.24
179.987	30.56
180.207	34.78
180.426	45.54
180.645	36.93
180.864	28.79
181.084	41.54
181.303	39.96
181.522	33.33
181.741	51.41
181.96	40.25
182.179	43.25
182.398	34.92
182.618	23.57
182.837	10.9
183.056	-4.38
183.275	7.01
183.494	-8.29
183.713	7.41
183.932	10.12
184.151	-1.08
184.37	4.52
184.589	-13.18
184.808	-4.75
185.027	6
185.246	8.37
185.465	29.44
185.684	26.82
185.903	42.44
186.122	52.59
186.341	59.27
186.56	58.73
186.779	72.97
186.998	88.06
187.216	82.24
187.435	79.53
187.654	68.39
187.873	62.08
188.092	46.42
188.311	9.97
188.53	8.2
188.748	7.98
188.967	-2.74
189.186	6.86
189.405	-7.15
189.623	-38.69
189.842	-6.94
190.061	4.16
190.28	-16.46
190.498	-5.1
190.717	-5.08
190.936	-16.02
191.154	-35.13
191.373	-48.12
191.592	-51.27
191.81	-37.18
192.029	-26.82
192.248	-47.01
192.466	-12.98
192.685	-3.5
192.904	9.01
193.122	7.21
193.341	13.47
193.559	19.3
193.778	24.56
193.996	19.83
194.215	16.6
194.433	13.63
194.652	21.14
194.87	12.77
195.089	24.41
195.307	22.22
195.526	34.18
195.744	35.97
195.963	33.11
196.181	35.45
196.399	15.71
196.618	11.74
196.836	31.4
197.055	14.5
197.273	7.88
197.491	2.83
197.71	10.84
197.928	-10.12
198.146	-0
198.365	-4.39
198.583	-11.81
198.801	15.11
199.019	24.46
199.238	26.78
199.456	19.97
199.674	22.73
199.892	27.88
200.111	9.93
200.329	29.08
200.547	5.8
200.765	19.92
200.983	22.53
201.202	33.02
201.42	30.98
201.638	5.91
201.856	22.87
202.074	25.23
202.292	10.64
202.51	18.44
202.728	2.01
202.946	-3.95
203.165	-7.52
203.383	-8.71
203.601	-17.04
203.819	-26.78
204.037	-4.86
204.255	6.55
204.473	9.28
204.691	7.14
204.909	-4.52
205.127	7.04
205.345	29.48
205.562	23.95
205.78	24.79
205.998	24.86
206.216	23.26
206.434	11.59
206.652	3.8
206.87	14.12
207.088	16.27
207.306	13.86
207.523	16.21
207.741	-0.94
207.959	6.2
208.177	-1.87
208.395	-22.98
208.612	-50.77
208.83	-18.2
209.048	-6.87
209.266	-52.31
209.483	-70.79
209.701	-48.7
209.919	-58.63
210.136	-61.46
210.354	-26.31
210.572	-9.34
210.79	-4.12
211.007	10.61
211.225	4.99
211.442	-0.67
211.66	11.62
211.878	17.2
212.095	72.66
212.313	80.02
212.53	75.95
212.748	73.35
212.966	75.35
213.183	74.06
213.401	75.23
213.618	79.76
213.836	83.59
214.053	83.21
214.271	87.08
214.488	24.77
214.705	14.43
214.923	19.29
215.14	18.12
215.358	14.2
215.575	23.2
215.793	22.89
216.01	22.13
216.227	15.48
216.445	11.9
216.662	7.46
216.879	13.83
217.097	12.61
217.314	6.14
217.531	-1.15
217.749	-6.99
217.966	-12.28
218.183	-17.35
218.4	-22.36
218.618	-23.16
218.835	-12.82
219.052	-8.1
219.269	-13.66
219.487	-7.15
219.704	-5.26
219.921	-2.05
220.138	7.66
220.355	9.94
220.572	14.51
220.79	10.84
221.007	16.48
221.224	16.72
221.441	13.59
221.658	11.91
221.875	11.84
222.092	11.72
222.309	12.61
222.526	5.22
222.743	4.03
222.96	-2
223.177	0.29
223.394	-3.09
223.611	-4.53
223.828	-2.53
224.045	-1.23
224.262	-3.25
224.479	-0.93
224.696	0.29
224.913	5.16
225.13	6.63
225.347	8.36
225.564	6.48
225.781	6.16
225.997	5.95
226.214	5.25
226.431	5.88
226.648	5.65
226.865	5.61
227.082	5.72
227.298	4.74
227.515	4.2
227.732	3.74
227.949	4.28
228.165	4.46
228.382	4.21
228.599	3.96
228.816	3.9
229.032	4.03
229.249	3.91
229.466	3.11
229.682	3.42
229.899	3.93
230.116	4.85
230.332	5.89
230.549	6.46
230.765	8.16
230.982	8.57
231.199	8.37
231.415	8.52
231.632	8.23
231.848	9.31
232.065	8.99
232.281	8.47
232.498	8.44
232.714	8.13
232.931	6.74
233.147	6.07
233.364	6.03
233.58	6.72
233.797	6.33
234.013	6.51
234.23	5.89
234.446	6.23
234.662	6.82
234.879	6.49
235.095	5.64
235.312	6.41
235.528	6.83
235.744	6.95
235.961	7.31
236.177	7.57
236.393	6.36
236.61	6.71
236.826	5.96
237.042	6.15
237.258	6.35
237.475	7.62
237.691	7.47
237.907	6.12
238.123	5.7
238.339	4.4
238.556	4.27
238.772	4.91
238.988	5.26
239.204	5.6
239.42	5.52
239.636	5.5
239.853	4.53
240.069	4.64
240.285	4.68
240.501	4.78
240.717	4.83
240.933	5.12
241.149	5.67
241.365	6.03
241.581	5.84
241.797	5.83
242.013	5.68
242.229	6.26
242.445	6.7
242.661	6.63
242.877	6.67
243.093	7.16
243.309	7.22
243.525	6.67
243.741	5.94
243.957	6.41
244.173	6.75
244.388	6.54
244.604	5.82
244.82	5.44
245.036	5.24
245.252	5.6
245.468	5.41
245.683	5.35
245.899	5.66
246.115	5.79
246.331	5.83
246.547	5.52
246.762	5.56
246.978	5.7
247.194	5.56
247.409	5.78
247.625	5.59
247.841	5.46
248.057	5.42
248.272	5.14
248.488	4.86
248.703	4.51
248.919	4.59
249.135	4.43
249.35	4.24
249.566	4.62
249.782	4.36
249.997	4.74
250.213	5.3
250.428	5.69
250.644	5.52
250.859	5.38
251.075	5.71
251.29	5.5
251.506	5.47
251.721	5.51
251.937	5.39
252.152	5.42
252.368	5.07
252.583	4.74
252.798	4.39
253.014	4.29
253.229	4.57
253.445	3.55
253.66	3.75
253.875	3.25
254.091	2.18
254.306	2.08
254.521	1.67
254.737	1.69
254.952	1.66
255.167	1.45
255.383	2.1
255.598	2.47
255.813	2.63
256.028	2.33
256.244	2.78
256.459	3.51
256.674	3.36
256.889	3.8
257.104	3.96
257.32	4.07
257.535	4.23
257.75	4.16
257.965	4.15
258.18	4.29
258.395	4.34
258.61	4.39
258.826	4.34
259.041	4.3
259.256	4.27
259.471	4.32
259.686	4.28
259.901	4.29
260.116	4.32
260.331	4.18
260.546	4.24
260.761	4.24
260.976	4.16
261.191	4.07
261.406	3.96
261.621	4.15
261.836	3.68
262.05	3.56
262.265	3.43
262.48	3.33
262.695	3.41
262.91	3.51
263.125	3.31
263.34	3.67
263.555	4.11
263.769	4.17
263.984	4.19
264.199	4.4
264.414	4.56
264.629	4.37
264.843	4.23
265.058	4.13
265.273	4.07
265.488	4.31
265.702	4.11
265.917	4.22
266.132	4.35
266.346	4.14
266.561	4.27
266.776	4.14
266.99	4.54
267.205	4.43
267.42	4.5
267.634	4.45
267.849	4.47
268.063	4.47
268.278	4.04
268.492	3.95
268.707	3.91
268.922	3.86
269.136	3.77
269.351	3.49
269.565	3.66
269.78	3.48
269.994	3.21
270.209	3.17
270.423	3.58
270.637	3.75
270.852	3.88
271.066	3.84
271.281	4
271.495	4.14
271.709	4.05
271.924	4.06
272.138	4.13
272.353	4.31
272.567	4.21
272.781	3.74
272.996	3.74
273.21	3.45
273.424	3.56
273.638	3.38
273.853	3.39
274.067	3.46
274.281	3.45
274.495	3.47
274.71	3.4
274.924	3.3
275.138	3.54
275.352	3.29
275.566	3.54
275.781	3.61
275.995	3.75
276.209	3.61
276.423	3.53
276.637	3.46
276.851	3.43
277.065	3.41
277.279	3.56
277.493	3.72
277.707	3.94
277.921	4.01
278.135	3.94
278.349	3.66
278.563	3.5
278.777	3.27
278.991	3.26
279.205	3.7
279.419	4.03
279.633	3.95
279.847	3.7
280.061	3.6
280.275	3.46
280.489	3.3
280.703	3.16
280.917	3.35
281.131	3.67
281.344	3.62
281.558	3.17
281.772	2.89
281.986	2.98
282.2	3.05
282.414	3.17
282.627	3.29
282.841	3.4
283.055	3.5
283.269	3.43
283.482	3.1
283.696	3.12
283.91	3.44
284.123	3.37
284.337	3.18
284.551	3.07
284.764	2.97
284.978	3.01
285.192	2.93
285.405	3.16
285.619	3.2
285.833	3.35
286.046	3.28
286.26	3.15
286.473	3.13
286.687	3.15
286.9	3.21
287.114	3.09
287.327	3.1
287.541	3.12
287.754	2.82
287.968	2.78
288.181	2.8
288.395	2.79
288.608	2.72
288.822	2.86
289.035	3.12
289.248	3.03
289.462	3.3
289.675	3.31
289.889	3.3
290.102	3.3
290.315	3.22
290.529	3.21
290.742	3.25
290.955	3.28
291.169	3.23
291.382	2.97
291.595	2.99
291.808	2.72
292.022	2.69
292.235	2.55
292.448	2.78
292.661	2.89
292.875	3.05
293.088	3.08
293.301	3.17
293.514	3.07
293.727	2.91
293.94	2.94
294.153	2.91
294.367	2.84
294.58	2.85
294.793	2.67
295.006	2.74
295.219	2.79
295.432	2.84
295.645	2.78
295.858	2.72
296.071	2.86
296.284	2.8
296.497	2.97
296.71	3.01
296.923	2.98
297.136	3.03
297.349	3.02
297.562	2.82
297.775	2.86
297.988	2.78
298.201	2.89
298.414	2.91
298.626	2.95
298.839	2.72
299.052	2.77
299.265	2.64
299.478	2.64
299.691	2.31
299.903	2.48
300.116	2.32
300.329	2.26
300.542	2.33
300.755	2.2
300.967	2.32
301.18	2.47
301.393	2.19
301.605	2.3
301.818	2.13
302.031	2.37
302.243	2.23
302.456	2.51
302.669	2.49
302.881	2.51
303.094	2.61
303.307	2.74
303.519	2.72
303.732	2.82
303.944	2.92
304.157	3.02
304.37	3.06
304.582	3.1
304.795	2.92
305.007	3.02
305.22	2.9
305.432	3.01
305.645	2.81
305.857	2.98
306.069	3.05
306.282	2.85
306.494	2.9
306.707	2.89
306.919	3
307.132	2.83
307.344	2.71
307.556	2.85
307.769	2.68
307.981	2.69
308.193	2.7
308.406	2.54
308.618	2.88
308.83	2.89
309.043	2.92
309.255	2.88
309.467	2.95
309.679	3.16
309.892	3.17
310.104	3.21
310.316	3.2
310.528	3.14
310.74	3.54
310.953	3.53
311.165	3.53
311.377	3.41
311.589	3.36
311.801	3.37
312.013	3.35
312.225	3.38
312.437	3.72
312.649	3.77
312.862	3.71
313.074	3.5
313.286	3.33
313.498	3.28
313.71	3.61
313.922	3.62
314.134	3.66
314.346	3.71
314.558	3.74
314.77	3.46
314.982	3.37
315.193	3.41
315.405	3.15
315.617	3.12
315.829	3.29
316.041	3.06
316.253	2.95
316.465	2.9
316.677	2.75
316.888	2.62
317.1	2.82
317.312	3.05
317.524	3.12
317.736	3.26
317.947	3.37
318.159	3.4
318.371	3.55
318.583	3.86
318.794	4.09
319.006	4.21
319.218	4.14
319.43	3.88
319.641	3.77
319.853	3.76
320.064	3.72
320.276	3.83
320.488	3.68
320.699	3.74
320.911	3.77
321.123	4.06
321.334	4.04
321.546	4.12
321.757	4.29
321.969	4.31
322.18	4.4
322.392	4.49
322.603	4.3
322.815	4.31
323.026	4.31
323.238	4.19
323.449	4.14
323.661	4.21
323.872	4.25
324.083	4.23
324.295	4.33
324.506	4.18
324.718	4.3
324.929	4.56
325.14	4.74
325.352	4.84
325.563	5.13
325.774	4.93
325.986	4.98
326.197	4.94
326.408	5.07
326.62	5.13
326.831	5.38
327.042	5.36
327.253	5.36
327.464	5.31
327.676	5.1
327.887	5.01
328.098	5.17
328.309	5.25
328.52	5.64
328.732	5.88
328.943	5.89
329.154	6.1
329.365	6.21
329.576	6.44
329.787	6.44
329.998	6.81
330.209	6.8
330.42	6.79
330.631	6.9
330.842	6.86
331.053	6.84
331.264	6.96
331.475	6.91
331.686	7.13
331.897	7.07
332.108	7.14
332.319	6.94
332.53	7.03
332.741	7
332.952	6.86
333.163	7.06
333.374	7.13
333.585	7.15
333.795	7.17
334.006	7.12
334.217	7.21
334.428	7.48
334.639	7.58
334.849	7.74
335.06	7.89
335.271	7.88
335.482	7.69
335.692	7.65
335.903	7.51
336.114	7.44
336.325	7.45
336.535	7.5
336.746	7.44
336.957	7.56
337.167	7.43
337.378	7.29
337.589	7.33
337.799	7.46
338.01	7.54
338.22	7.81
338.431	7.97
338.642	8.07
338.852	7.83
339.063	7.72
339.273	7.73
339.484	7.83
339.694	8.04
339.905	8.1
340.115	8.06
340.326	7.9
340.536	7.91
340.746	7.89
340.957	7.61
341.167	7.67
341.378	7.77
341.588	7.82
341.799	7.74
342.009	7.67
342.219	7.68
342.43	7.74
342.64	7.68
342.85	7.46
343.061	7.38
343.271	7.57
343.481	7.69
343.691	7.66
343.902	7.45
344.112	7.39
344.322	7.43
344.532	7.48
344.743	7.38
344.953	7.39
345.163	7.49
345.373	7.54
345.583	7.48
345.793	7.32
346.004	7.25
346.214	7.38
346.424	7.46
346.634	7.53
346.844	7.55
347.054	7.68
347.264	7.91
347.474	7.89
347.684	7.65
347.894	7.83
348.104	7.86
348.314	7.9
348.524	7.85
348.734	7.81
348.944	7.7
349.154	7.74
349.364	7.54
349.574	7.27
349.784	7.23
349.994	7.27
350.204	7.01
350.413	6.9
350.623	6.95
350.833	6.8
351.043	6.67
351.253	6.8
351.463	6.77
351.672	6.7
351.882	6.82
352.092	6.72
352.302	6.79
352.511	6.83
352.721	6.87
352.931	6.86
353.141	6.9
353.35	6.98
353.56	6.8
353.77	6.77
353.979	7.01
354.189	6.94
354.399	7.13
354.608	7.08
354.818	7.2
355.027	7.29
355.237	7.23
355.447	7.19
355.656	7.24
355.866	7.25
356.075	7.13
356.285	7.01
356.494	7
356.704	6.91
356.913	6.98
357.123	6.8
357.332	6.79
357.542	6.94
357.751	7.03
357.96	6.92
358.17	6.93
358.379	7.1
358.589	7.08
358.798	7.2
359.007	7.22
359.217	7.16
359.426	7.26
359.635	7.23
359.845	7.07
360.054	6.99
360.263	7
360.472	6.99
360.682	6.96
360.891	7.01
361.1	7.01
361.309	6.97
361.519	6.98
361.728	7.01
361.937	6.99
362.146	6.99
362.355	7.07
362.564	7.13
362.774	7.07
362.983	6.96
363.192	6.78
363.401	6.73
363.61	6.72
363.819	6.72
364.028	6.67
364.237	6.68
364.446	6.71
364.655	6.6
364.864	6.58
365.073	6.67
365.282	6.74
365.491	6.81
365.7	6.78
365.909	6.81
366.118	6.84
366.327	6.81
366.536	6.81
366.745	6.74
366.954	6.77
367.162	6.74
367.371	6.61
367.58	6.61
367.789	6.52
367.998	6.56
368.207	6.57
368.415	6.57
368.624	6.57
368.833	6.55
369.042	6.58
369.25	6.58
369.459	6.59
369.668	6.56
369.877	6.53
370.085	6.68
370.294	6.53
370.503	6.55
370.711	6.46
370.92	6.27
371.129	6.29
371.337	6.25
371.546	6.17
371.754	6.11
371.963	6.3
372.171	6.22
372.38	6.09
372.589	6.28
372.797	6.28
373.006	6.29
373.214	6.44
373.423	6.45
373.631	6.51
373.84	6.64
374.048	6.64
374.256	6.46
374.465	6.46
374.673	6.51
374.882	6.26
375.09	6.18
375.298	6.16
375.507	6.14
375.715	6.17
375.923	6.13
376.132	6.13
376.34	6.1
376.548	6.17
376.757	6.26
376.965	6.28
377.173	6.48
377.381	6.46
377.59	6.48
377.798	6.59
378.006	6.62
378.214	6.64
378.423	6.68
378.631	6.76
378.839	6.73
379.047	6.68
379.255	6.54
379.463	6.5
379.671	6.48
379.879	6.46
380.088	6.33
380.296	6.21
380.504	6.2
380.712	6.12
380.92	6.21
381.128	6.17
381.336	6.17
381.544	6.27
381.752	6.15
381.96	6.19
382.168	6.14
382.376	6.15
382.584	6.15
382.791	6.18
382.999	6.12
383.207	6
383.415	6.03
383.623	6.17
383.831	6.19
384.039	6.21
384.247	6.21
384.454	6.25
384.662	6.35
384.87	6.37
385.078	6.25
385.285	6.35
385.493	6.36
385.701	6.38
385.909	6.23
386.116	6.22
386.324	6.29
386.532	6.24
386.739	6.17
386.947	6.07
387.155	5.97
387.362	6.11
387.57	6.07
387.778	6.08
387.985	6.12
388.193	6.13
388.4	6.18
388.608	6.04
388.816	6.06
389.023	6.08
389.231	6.03
389.438	6.1
389.646	5.94
389.853	5.9
390.061	5.82
390.268	5.83
390.475	5.82
390.683	5.72
390.89	5.75
391.098	5.77
391.305	5.81
391.512	5.83
391.72	5.77
391.927	5.8
392.135	5.79
392.342	5.82
392.549	5.69
392.756	5.7
392.964	5.63
393.171	5.67
393.378	5.71
393.586	5.72
393.793	5.81
394	5.84
394.207	5.89
394.414	5.98
394.622	6.01
394.829	6.04
395.036	6.02
395.243	6.09
395.45	6.08
395.657	5.98
395.864	5.92
396.072	5.93
396.279	5.95
396.486	5.87
396.693	5.86
396.9	5.81
397.107	5.78
397.314	5.82
397.521	5.87
397.728	5.85
397.935	5.86
398.142	5.89
398.349	5.8
398.556	5.9
398.763	5.93
398.97	5.85
399.177	5.87
399.383	5.95
399.59	5.92
399.797	5.9
400.004	5.86
400.211	5.83
400.418	5.81
400.625	5.81
400.831	5.72
401.038	5.78
401.245	5.69
401.452	5.63
401.658	5.54
401.865	5.6
402.072	5.61
402.279	5.63
402.485	5.69
402.692	5.7
402.899	5.67
403.105	5.71
403.312	5.65
403.519	5.7
403.725	5.82
403.932	5.89
404.138	5.81
404.345	5.7
404.552	5.7
404.758	5.63
404.965	5.56
405.171	5.54
405.378	5.42
405.584	5.44
405.791	5.44
405.997	5.3
406.204	5.19
406.41	5.15
406.617	5.22
406.823	5.25
407.029	5.32
407.236	5.37
407.442	5.33
407.649	5.5
407.855	5.52
408.061	5.51
408.268	5.51
408.474	5.55
408.68	5.63
408.887	5.58
409.093	5.59
409.299	5.51
409.505	5.49
409.712	5.55
409.918	5.41
410.124	5.39
410.33	5.37
410.537	5.42
410.743	5.43
410.949	5.43
411.155	5.44
411.361	5.45
411.567	5.45
411.773	5.33
411.98	5.32
412.186	5.29
412.392	5.2
412.598	5.3
412.804	5.28
413.01	5.24
413.216	5.14
413.422	5.15
413.628	5.15
413.834	5.14
414.04	5.25
414.246	5.28
414.452	5.27
414.658	5.28
414.864	5.25
415.07	5.25
415.275	5.28
415.481	5.26
415.687	5.24
415.893	5.2
416.099	5.24
416.305	5.25
416.511	5.27
416.716	5.29
416.922	5.32
417.128	5.31
417.334	5.29
417.539	5.27
417.745	5.33
417.951	5.31
418.157	5.35
418.362	5.32
418.568	5.27
418.774	5.26
418.979	5.26
419.185	5.2
419.391	5.2
419.596	5.2
419.802	5.19
420.008	5.13
420.213	5.5
420.419	5.47
420.624	5.45
420.83	5.44
421.035	5.43
421.241	5.44
421.446	5.5
421.652	5.47
421.857	5.46
422.063	5.44
422.268	5.43
422.474	5.09
422.679	5.09
422.885	5.02
423.09	5.03
423.295	5.01
423.501	5.01
423.706	4.97
423.911	4.97
424.117	4.96
424.322	4.98
424.527	5.02
424.733	5
424.938	5.01
425.143	5.13
425.349	5.12
425.554	5.16
425.759	5.16
425.964	5.13
426.169	5.15
426.375	5.15
426.58	5.11
426.785	5.1
426.99	5.15
427.195	5.08
427.4	5.09
427.605	5.08
427.811	5.07
428.016	5.08
428.221	5.16
428.426	5.12
428.631	5.1
428.836	5.14
429.041	5.1
429.246	5.09
429.451	5.11
429.656	5.07
429.861	5.06
430.066	5.09
430.271	5.06
430.476	5.01
430.681	5.02
430.886	5.06
431.09	5.07
431.295	5.05
431.5	5.02
431.705	5.02
431.91	5.01
432.115	5.05
432.32	4.99
432.524	5
432.729	4.97
432.934	4.99
433.139	5.02
433.343	5.04
433.548	5.08
433.753	5.15
433.958	5.17
434.162	5.18
434.367	5.14
434.572	5.12
434.776	5.15
434.981	5.18
435.186	5.14
435.39	5.16
435.595	5.14
435.799	5.13
436.004	5.05
436.209	5.03
436.413	5.01
436.618	5.03
436.822	5.06
437.027	4.99
437.231	4.98
437.436	4.99
437.64	4.94
437.845	4.95
438.049	4.91
438.253	4.86
438.458	4.86
438.662	4.89
438.867	4.86
439.071	4.87
439.275	4.89
439.48	4.9
439.684	4.88
439.888	4.87
440.093	4.83
440.297	4.84
440.501	4.85
440.706	4.88
440.91	4.89
441.114	4.89
441.318	4.88
441.523	4.91
441.727	4.94
441.931	5.01
442.135	5
442.339	4.99
442.543	5
442.748	4.98
442.952	4.94
443.156	4.88
443.36	4.92
443.564	4.9
443.768	4.88
443.972	4.87
444.176	4.82
444.38	4.82
444.584	4.84
444.788	4.87
444.992	4.91
445.196	4.93
445.4	4.97
445.604	4.91
445.808	4.89
446.012	4.89
446.216	4.87
446.42	4.84
446.624	4.87
446.828	4.86
447.032	4.85
447.235	4.84
447.439	4.83
447.643	4.84
447.847	4.87
448.051	4.88
448.254	4.89
448.458	4.88
448.662	4.92
448.866	4.86
449.069	4.9
449.273	4.93
449.477	4.96
449.681	4.95
449.884	4.95
450.088	4.91
450.292	4.92
450.495	4.95
450.699	4.99
450.902	5.01
451.106	5.03
451.31	4.99
451.513	4.93
451.717	4.88
451.92	4.87
452.124	4.79
452.327	4.83
452.531	4.84
452.734	4.82
452.938	4.79
453.141	4.78
453.345	4.79
453.548	4.83
453.752	4.83
453.955	4.86
454.158	4.86
454.362	4.9
454.565	4.9
454.769	4.85
454.972	4.83
455.175	4.78
455.379	4.73
455.582	4.71
455.785	4.7
455.988	4.74
456.192	4.69
456.395	4.65
456.598	4.65
456.801	4.64
457.005	4.68
457.208	4.69
457.411	4.74
457.614	4.74
457.817	4.74
458.021	4.72
458.224	4.72
458.427	4.76
458.63	4.79
458.833	4.8
459.036	4.81
459.239	4.78
459.442	4.75
459.645	4.77
459.848	4.79
460.051	4.8
460.254	4.79
460.457	4.77
460.66	4.75
460.863	4.72
461.066	4.72
461.269	4.74
461.472	4.74
461.675	4.78
461.878	4.81
462.081	4.79
462.284	4.8
462.486	4.84
462.689	4.84
462.892	4.86
463.095	4.91
463.298	4.87
463.5	4.9
463.703	4.98
463.906	4.97
464.109	4.93
464.311	4.97
464.514	4.93
464.717	4.92
464.92	4.93
465.122	4.98
465.325	4.97
465.528	4.97
465.73	4.91
465.933	4.85
466.135	4.87
466.338	4.88
466.541	4.85
466.743	4.89
466.946	4.92
467.148	4.92
467.351	4.86
467.553	4.85
467.756	4.94
467.958	4.99
468.161	5.04
468.363	4.98
468.566	4.94
468.768	4.91
468.971	4.91
469.173	4.85
469.375	4.84
469.578	4.91
469.78	4.88
469.983	4.83
470.185	4.75
470.387	4.75
470.59	4.73
470.792	4.75
470.994	4.79
471.196	4.75
471.399	4.77
471.601	4.79
471.803	4.77
472.005	4.78
472.208	4.82
472.41	4.87
472.612	4.86
472.814	4.89
473.016	4.89
473.218	4.91
473.421	4.94
473.623	4.92
473.825	4.92
474.027	4.91
474.229	4.93
474.431	4.87
474.633	4.86
474.835	4.86
475.037	4.83
475.239	4.81
475.441	4.78
475.643	4.76
475.845	4.8
476.047	4.8
476.249	4.74
476.451	4.74
476.653	4.78
476.855	4.78
477.057	4.77
477.258	4.77
477.46	4.79
477.662	4.8
477.864	4.81
478.066	4.74
478.268	4.74
478.469	4.76
478.671	4.73
478.873	4.67
479.075	4.68
479.276	4.68
479.478	4.71
479.68	4.71
479.882	4.72
480.083	4.75
480.285	4.77
480.487	4.75
480.688	4.75
480.89	4.77
481.091	4.81
481.293	4.82
481.495	4.82
481.696	4.82
481.898	4.81
482.099	4.79
482.301	4.77
482.502	4.79
482.704	4.79
482.905	4.79
483.107	4.79
483.308	4.78
483.51	4.77
483.711	4.77
483.913	4.77
484.114	4.76
484.315	4.78
484.517	4.79
484.718	4.79
484.92	4.8
485.121	4.79
485.322	4.81
485.524	4.82
485.725	4.84
485.926	4.85
486.127	4.86
486.329	4.86
486.53	4.84
486.731	4.84
486.932	4.85
487.134	4.83
487.335	4.86
487.536	4.84
487.737	4.84
487.938	4.83
488.139	4.82
488.341	4.81
488.542	4.81
488.743	4.83
488.944	4.83
489.145	4.82
489.346	4.82
489.547	4.81
489.748	4.81
489.949	4.82
490.15	4.81
490.351	4.83
490.552	4.85
490.753	4.85
490.954	4.83
491.155	4.82
491.356	4.81
491.557	4.82
491.758	4.83
491.959	4.84
492.159	4.8
492.36	4.82
492.561	4.81
492.762	4.81
492.963	4.82
493.164	4.85
493.364	4.84
493.565	4.88
493.766	4.92
493.967	4.88
494.167	4.9
494.368	4.98
494.569	4.98
494.769	4.97
494.97	4.95
495.171	4.96
495.371	4.94
495.572	4.96
495.773	5.01
495.973	4.99
496.174	5
496.375	5.02
496.575	5
496.776	4.98
496.976	5.02
497.177	5.05
497.377	5.03
497.578	5.07
497.778	5.06
497.979	5
498.179	5.04
498.38	5.05
498.58	5.05
498.78	5.06
498.981	5.09
499.181	5.07
499.382	5.06
499.582	5.1
499.782	5.08
499.983	5.08
500.183	5.13
500.383	5.1
500.584	5.13
500.784	5.15
500.984	5.17
501.184	5.17
501.385	5.17
501.585	5.22
501.785	5.2
501.985	5.23
502.185	5.21
502.386	5.19
502.586	5.22
502.786	5.26
502.986	5.25
503.186	5.24
503.386	5.24
503.586	5.28
503.786	5.25
503.987	5.28
504.187	5.3
504.387	5.35
504.587	5.37
504.787	5.33
504.987	5.31
505.187	5.3
505.387	5.33
505.587	5.38
505.786	5.39
505.986	5.38
506.186	5.36
506.386	5.35
506.586	5.36
506.786	5.4
506.986	5.44
507.186	5.43
507.386	5.52
507.585	5.55
507.785	5.51
507.985	5.55
508.185	5.57
508.384	5.59
508.584	5.6
508.784	5.59
508.984	5.56
509.183	5.57
509.383	5.63
509.583	5.59
509.782	5.59
509.982	5.63
510.182	5.61
510.381	5.62
510.581	5.66
510.781	5.68
510.98	5.71
511.18	5.75
511.379	5.76
511.579	5.78
511.778	5.77
511.978	5.78
512.177	5.73
512.377	5.75
512.576	5.81
512.776	5.83
512.975	5.82
513.175	5.87
513.374	5.89
513.573	5.9
513.773	5.89
513.972	5.89
514.172	5.9
514.371	5.98
514.57	5.98
514.77	6
514.969	5.99
515.168	6.02
515.367	6.01
515.567	6.05
515.766	6.08
515.965	6.09
516.164	6.15
516.364	6.2
516.563	6.23
516.762	6.26
516.961	6.23
517.16	6.24
517.359	6.25
517.559	6.27
517.758	6.28
517.957	6.29
518.156	6.3
518.355	6.3
518.554	6.3
518.753	6.28
518.952	6.29
519.151	6.32
519.35	6.35
519.549	6.36
519.748	6.37
519.947	6.37
520.146	6.39
520.345	6.39
520.544	6.44
520.743	6.45
520.942	6.46
521.141	6.49
521.339	6.48
521.538	6.5
521.737	6.55
521.936	6.59
522.135	6.58
522.333	6.6
522.532	6.62
522.731	6.63
522.93	6.6
523.129	6.63
523.327	6.61
523.526	6.64
523.725	6.64
523.923	6.64
524.122	6.63
524.321	6.67
524.519	6.67
524.718	6.68
524.917	6.66
525.115	6.67
525.314	6.69
525.512	6.72
525.711	6.77
525.909	6.79
526.108	6.8
526.306	6.8
526.505	6.83
526.703	6.84
526.902	6.87
527.1	6.89
527.299	6.92
527.497	6.94
527.696	6.95
527.894	6.96
528.092	6.97
528.291	6.98
528.489	7.02
528.688	7.03
528.886	7.04
529.084	7.04
529.283	7.07
529.481	7.1
529.679	7.09
529.877	7.1
530.076	7.1
530.274	7.13
530.472	7.18
530.67	7.18
530.869	7.2
531.067	7.22
531.265	7.27
531.463	7.31
531.661	7.28
531.859	7.31
532.057	7.33
532.255	7.35
532.454	7.33
532.652	7.33
532.85	7.33
533.048	7.34
533.246	7.36
533.444	7.35
533.642	7.36
533.84	7.39
534.038	7.41
534.236	7.44
534.434	7.47
534.632	7.5
534.83	7.5
535.027	7.52
535.225	7.53
535.423	7.56
535.621	7.56
535.819	7.55
536.017	7.55
536.215	7.54
536.412	7.54
536.61	7.53
536.808	7.53
537.006	7.55
537.203	7.59
537.401	7.59
537.599	7.61
537.797	7.66
537.994	7.69
538.192	7.75
538.39	7.77
538.587	7.78
538.785	7.8
538.983	7.83
539.18	7.89
539.378	7.87
539.575	7.88
539.773	7.9
539.97	7.91
540.168	7.93
540.366	7.92
540.563	7.93
540.761	7.94
540.958	7.98
541.155	7.98
541.353	7.99
541.55	8.02
541.748	8.03
541.945	8.04
542.143	8.02
542.34	8.03
542.537	8.03
542.735	8.06
542.932	8.09
543.129	8.12
543.327	8.18
543.524	8.17
543.721	8.18
543.919	8.2
544.116	8.24
544.313	8.31
544.51	8.33
544.708	8.36
544.905	8.38
545.102	8.36
545.299	8.34
545.496	8.33
545.693	8.37
545.891	8.38
546.088	8.42
546.285	8.37
546.482	8.37
546.679	8.39
546.876	8.41
547.073	8.42
547.27	8.5
547.467	8.53
547.664	8.52
547.861	8.53
548.058	8.54
548.255	8.53
548.452	8.6
548.649	8.65
548.846	8.7
549.043	8.69
549.24	8.7
549.437	8.66
549.633	8.66
549.83	8.74
550.027	8.79
550.224	8.84
550.421	8.86
550.618	8.86
550.814	8.86
551.011	8.84
551.208	8.94
551.405	8.96
551.601	8.97
551.798	9.04
551.995	9.05
552.191	9.06
552.388	9.04
552.585	9.05
552.781	9.1
552.978	9.12
553.175	9.13
553.371	9.11
553.568	9.12
553.764	9.15
553.961	9.15
554.157	9.13
554.354	9.17
554.55	9.23
554.747	9.22
554.943	9.25
555.14	9.27
555.336	9.29
555.533	9.32
555.729	9.41
555.926	9.46
556.122	9.46
556.318	9.5
556.515	9.47
556.711	9.49
556.907	9.53
557.104	9.56
557.3	9.54
557.496	9.59
557.693	9.62
557.889	9.56
558.085	9.59
558.281	9.61
558.478	9.59
558.674	9.67
558.87	9.67
559.066	9.67
559.262	9.62
559.459	9.64
559.655	9.65
559.851	9.67
560.047	9.69
560.243	9.7
560.439	9.7
560.635	9.74
560.831	9.72
561.027	9.72
561.223	9.76
561.419	9.78
561.615	9.83
561.811	9.83
562.007	9.85
562.203	9.88
562.399	9.88
562.595	9.9
562.791	9.85
562.987	9.89
563.183	9.93
563.379	9.97
563.575	9.99
563.771	10.05
563.966	10.1
564.162	10.14
564.358	10.2
564.554	10.23
564.75	10.27
564.945	10.38
565.141	10.4
565.337	10.4
565.533	10.46
565.728	10.49
565.924	10.43
566.12	10.44
566.315	10.46
566.511	10.45
566.707	10.44
566.902	10.41
567.098	10.4
567.293	10.42
567.489	10.45
567.684	10.44
567.88	10.46
568.076	10.49
568.271	10.52
568.467	10.51
568.662	10.54
568.858	10.57
569.053	10.59
569.248	10.59
569.444	10.56
569.639	10.57
569.835	10.59
570.03	10.66
570.225	10.69
570.421	10.73
570.616	10.74
570.812	10.71
571.007	10.68
571.202	10.74
571.397	10.72
571.593	10.76
571.788	10.83
571.983	10.84
572.178	10.82
572.374	10.84
572.569	10.85
572.764	10.87
572.959	10.88
573.154	10.91
573.35	10.93
573.545	10.98
573.74	10.97
573.935	10.93
574.13	10.92
574.325	10.92
574.52	10.89
574.715	10.86
574.91	10.86
575.105	10.91
575.3	10.99
575.495	10.97
575.69	11.01
575.885	11.03
576.08	11.05
576.275	11.07
576.47	11.06
576.665	11.12
576.86	11.18
577.055	11.25
577.25	11.26
577.444	11.26
577.639	11.29
577.834	11.28
578.029	11.32
578.224	11.33
578.418	11.38
578.613	11.43
578.808	11.44
579.003	11.47
579.197	11.46
579.392	11.46
579.587	11.44
579.781	11.46
579.976	11.46
580.171	11.44
580.365	11.48
580.56	11.42
580.755	11.42
580.949	11.42
581.144	11.34
581.338	11.31
581.533	11.29
581.727	11.34
581.922	11.32
582.116	11.37
582.311	11.33
582.505	11.27
582.7	11.26
582.894	11.32
583.089	11.31
583.283	11.31
583.478	11.32
583.672	11.36
583.866	11.33
584.061	11.33
584.255	11.33
584.449	11.36
584.644	11.44
584.838	11.52
585.032	11.51
585.226	11.53
585.421	11.55
585.615	11.5
585.809	11.52
586.003	11.5
586.198	11.6
586.392	11.62
586.586	11.59
586.78	11.57
586.974	11.6
587.168	11.64
587.363	11.64
587.557	11.65
587.751	11.69
587.945	11.66
588.139	11.68
588.333	11.65
588.527	11.67
588.721	11.76
588.915	11.76
589.109	11.69
589.303	11.63
589.497	11.69
589.691	11.72
589.885	11.8
590.079	11.86
590.273	11.84
590.466	11.82
590.66	11.81
590.854	11.84
591.048	11.81
591.242	11.83
591.436	11.85
591.629	11.79
591.823	11.82
592.017	11.8
592.211	11.8
592.404	11.82
592.598	11.83
592.792	11.87
592.986	11.84
593.179	11.93
593.373	11.94
593.567	11.94
593.76	11.96
593.954	11.98
594.147	11.99
594.341	12
594.535	12.05
594.728	12.05
594.922	12.03
595.115	12.01
595.309	12.03
595.502	12.06
595.696	12.08
595.889	12.08
596.083	12.05
596.276	11.98
596.47	11.97
596.663	11.93
596.856	11.9
597.05	11.91
597.243	11.95
597.437	11.94
597.63	11.95
597.823	11.98
598.017	11.98
598.21	11.99
598.403	12.04
598.596	12.1
598.79	12.14
598.983	12.23
599.176	12.24
599.369	12.25
599.563	12.2
599.756	12.14
599.949	12.08
600.142	12.06
600.335	12.13
600.528	12.15
600.722	12.13
600.915	12.16
601.108	12.16
601.301	12.17
601.494	12.15
601.687	12.18
601.88	12.26
602.073	12.24
602.266	12.29
602.459	12.22
602.652	12.2
602.845	12.23
603.038	12.23
603.231	12.17
603.424	12.16
603.617	12.17
603.809	12.19
604.002	12.21
604.195	12.29
604.388	12.28
604.581	12.3
604.774	12.31
604.966	12.28
605.159	12.33
605.352	12.42
605.545	12.45
605.737	12.47
605.93	12.44
606.123	12.36
606.316	12.35
606.508	12.35
606.701	12.44
606.894	12.46
607.086	12.44
607.279	12.34
607.471	12.34
607.664	12.33
607.857	12.31
608.049	12.4
608.242	12.46
608.434	12.44
608.627	12.45
608.819	12.36
609.012	12.44
609.204	12.41
609.397	12.48
609.589	12.48
609.782	12.47
609.974	12.5
610.166	12.52
610.359	12.5
610.551	12.49
610.743	12.48
610.936	12.54
611.128	12.48
611.32	12.53
611.513	12.52
611.705	12.52
611.897	12.51
612.09	12.48
612.282	12.48
612.474	12.45
612.666	12.5
612.858	12.5
613.051	12.49
613.243	12.45
613.435	12.49
613.627	12.56
613.819	12.54
614.011	12.55
614.203	12.53
614.395	12.43
614.588	12.48
614.78	12.51
614.972	12.5
615.164	12.41
615.356	12.43
615.548	12.4
615.74	12.37
615.932	12.43
616.124	12.48
616.315	12.54
616.507	12.56
616.699	12.58
616.891	12.57
617.083	12.6
617.275	12.72
617.467	12.72
617.659	12.73
617.85	12.73
618.042	12.76
618.234	12.73
618.426	12.71
618.618	12.82
618.809	12.85
619.001	12.78
619.193	12.76
619.384	12.73
619.576	12.7
619.768	12.67
619.959	12.66
620.151	12.57
620.343	12.59
620.534	12.57
620.726	12.47
620.917	12.47
621.109	12.5
621.301	12.47
621.492	12.44
621.684	12.48
621.875	12.52
622.067	12.49
622.258	12.53
622.45	12.52
622.641	12.61
622.832	12.63
623.024	12.64
623.215	12.65
623.407	12.7
623.598	12.75
623.789	12.73
623.981	12.69
624.172	12.77
624.363	12.74
624.555	12.73
624.746	12.68
624.937	12.66
625.129	12.63
625.32	12.62
625.511	12.69
625.702	12.59
625.893	12.57
626.085	12.63
626.276	12.6
626.467	12.59
626.658	12.63
626.849	12.67
627.04	12.68
627.231	12.74
627.422	12.81
627.614	12.78
627.805	12.96
627.996	13.04
628.187	13.03
628.378	13.01
628.569	13.02
628.76	12.96
628.951	12.96
629.142	12.95
629.332	12.93
629.523	12.95
629.714	12.95
629.905	12.94
630.096	12.88
630.287	12.81
630.478	12.87
630.669	12.97
630.859	13.06
631.05	13.09
631.241	13.14
631.432	13.07
631.623	13.04
631.813	13.02
632.004	12.97
632.195	13.05
632.385	13.12
632.576	13.03
632.767	12.98
632.957	12.97
633.148	12.89
633.339	12.86
633.529	12.9
633.72	12.92
633.91	12.9
634.101	12.93
634.292	12.83
634.482	12.78
634.673	12.85
634.863	12.82
635.054	12.82
635.244	12.89
635.435	12.88
635.625	12.9
635.815	12.92
636.006	12.95
636.196	12.96
636.387	12.91
636.577	12.98
636.767	13
636.958	13.02
637.148	12.95
637.338	12.83
637.529	12.96
637.719	12.93
637.909	12.91
638.099	12.94
638.29	12.91
638.48	13.17
638.67	13.16
638.86	13.11
639.05	13.15
639.241	13.25
639.431	13.32
639.621	13.19
639.811	13.3
640.001	13.23
640.191	13.24
640.381	13.29
640.571	13.1
640.761	13.13
640.951	13.12
641.141	13.08
641.331	13.03
641.521	13.03
641.711	13.02
641.901	12.88
642.091	12.87
642.281	12.83
642.471	12.76
642.661	12.91
642.851	12.91
643.041	12.97
643.231	12.94
643.42	12.89
643.61	12.95
643.8	12.96
643.99	13.07
644.18	13.08
644.369	13.11
644.559	13.22
644.749	13.06
644.939	13
645.128	12.93
645.318	12.99
645.508	13.07
645.697	13.05
645.887	13.12
646.076	13.13
646.266	13.2
646.456	13.19
646.645	13.05
646.835	13.06
647.024	13.09
647.214	13.22
647.403	13.14
647.593	13.24
647.782	13.3
647.972	13.17
648.161	13.04
648.351	13.19
648.54	13.19
648.73	13.21
648.919	13.31
649.108	13.27
649.298	13.06
649.487	13.13
649.677	13.04
649.866	12.98
650.055	13.05
650.244	13.13
650.434	12.96
650.623	12.94
650.812	12.97
651.002	12.95
651.191	12.98
651.38	13.1
651.569	13.05
651.758	13.04
651.947	13.05
652.137	13.05
652.326	12.96
652.515	12.94
652.704	13
652.893	13.02
653.082	12.95
653.271	13
653.46	13.04
653.649	13.09
653.838	13.01
654.027	13
654.216	13
654.405	13.09
654.594	13.12
654.783	13.07
654.972	13.04
655.161	13.12
655.35	13.14
655.539	13.07
655.728	13.06
655.916	13.12
656.105	13.16
656.294	13.18
656.483	13.14
656.672	13.28
656.86	13.29
657.049	13.27
657.238	13.25
657.427	13.21
657.615	13.29
657.804	13.25
657.993	13.27
658.181	13.25
658.37	13.23
658.559	13.23
658.747	13.14
658.936	13.15
659.125	13.05
659.313	13.12
659.502	13.13
659.69	13.09
659.879	13.15
660.067	13.2
660.256	13.19
660.444	13.26
660.633	13.32
660.821	13.3
661.01	13.34
661.198	13.53
661.387	13.46
661.575	13.45
661.763	13.5
661.952	13.41
662.14	13.42
662.328	13.37
662.517	13.35
662.705	13.31
662.893	13.4
663.082	13.28
663.27	13.1
663.458	13
663.646	13.03
663.834	12.99
664.023	13.06
664.211	13.04
664.399	13.08
664.587	13.03
664.775	13.04
664.963	13.07
665.152	13.17
665.34	13.3
665.528	13.34
665.716	13.32
665.904	13.33
666.092	13.36
666.28	13.43
666.468	13.42
666.656	13.49
666.844	13.49
667.032	13.48
667.22	13.41
667.408	13.39
667.596	13.38
667.784	13.45
667.971	13.44
668.159	13.39
668.347	13.22
668.535	13.08
668.723	12.93
668.911	12.91
669.098	12.77
669.286	12.81
669.474	12.86
669.662	12.96
669.849	12.96
670.037	12.94
670.225	12.9
670.413	12.99
670.6	13.27
670.788	13.41
670.976	13.43
671.163	13.42
671.351	13.49
671.538	13.43
671.726	13.5
671.913	13.45
672.101	13.44
672.289	13.54
672.476	13.6
672.664	13.49
672.851	13.4
673.039	13.34
673.226	13.41
673.413	13.31
673.601	13.47
673.788	13.36
673.976	13.31
674.163	13.4
674.35	13.37
674.538	13.38
674.725	13.36
674.912	13.47
675.1	13.56
675.287	13.54
675.474	13.71
675.662	13.67
675.849	13.64
676.036	13.78
676.223	13.75
676.411	13.74
676.598	13.66
676.785	13.77
676.972	13.68
677.159	13.6
677.346	13.67
677.533	13.51
677.721	13.46
677.908	13.43
678.095	13.37
678.282	13.43
678.469	13.5
678.656	13.51
678.843	13.43
679.03	13.52
679.217	13.61
679.404	13.52
679.591	13.49
679.778	13.46
679.964	13.56
680.151	13.53
680.338	13.5
680.525	13.45
680.712	13.45
680.899	13.52
681.086	13.51
681.272	13.39
681.459	13.49
681.646	13.6
681.833	13.61
682.02	13.57
682.206	13.58
682.393	13.48
682.58	13.36
682.766	13.42
682.953	13.32
683.14	13.41
683.326	13.57
683.513	13.54
683.7	13.51
683.886	13.47
684.073	13.39
684.259	13.41
684.446	13.54
684.632	13.5
684.819	13.33
685.005	13.43
685.192	13.32
685.378	13.28
685.565	13.27
685.751	13.27
685.938	13.25
686.124	13.25
686.31	13.23
686.497	13.14
686.683	13.34
686.87	13.67
687.056	13.52
687.242	13.55
687.429	13.5
687.615	13.51
687.801	13.53
687.987	13.56
688.174	13.64
688.36	13.69
688.546	13.81
688.732	13.76
688.918	13.58
689.105	13.66
689.291	13.59
689.477	13.7
689.663	13.77
689.849	13.76
690.035	13.87
690.221	13.87
690.407	13.71
690.593	13.55
690.779	13.71
690.965	13.69
691.151	13.83
691.337	13.91
691.523	13.81
691.709	13.74
691.895	13.82
692.081	13.66
692.267	13.79
692.453	13.87
692.639	13.95
692.825	13.91
693.011	13.87
693.196	13.69
693.382	13.68
693.568	13.77
693.754	13.64
693.94	13.53
694.125	13.72
694.311	13.6
694.497	13.69
694.682	13.69
694.868	13.67
695.054	13.66
695.239	13.67
695.425	13.69
695.611	13.71
695.796	13.89
695.982	14.02
696.168	13.85
696.353	13.95
696.539	13.92
696.724	13.99
696.91	13.96
697.095	13.99
697.281	14.02
697.466	13.98
697.652	13.85
697.837	13.83
698.023	13.74
698.208	13.86
698.393	13.86
698.579	13.8
698.764	13.8
698.949	13.79
699.135	13.85
699.32	13.92
699.505	13.9
699.691	13.98
699.876	13.95
700.061	13.97
700.246	13.86
700.432	13.77
700.617	13.85
700.802	13.92
700.987	13.95
701.172	13.86
701.358	13.69
701.543	13.66
701.728	13.69
701.913	13.71
702.098	13.81
702.283	13.84
702.468	13.84
702.653	13.77
702.838	13.84
703.023	13.8
703.208	13.7
703.393	13.7
703.578	13.78
703.763	13.74
703.948	13.71
704.133	13.67
704.318	13.57
704.503	13.8
704.688	13.81
704.873	13.72
705.057	13.8
705.242	13.87
705.427	14.09
705.612	14.16
705.797	14.36
705.981	14.41
706.166	14.47
706.351	14.53
706.536	14.29
706.72	14.24
706.905	14.17
707.09	14.07
707.274	14.18
707.459	14.02
707.644	14.02
707.828	13.89
708.013	13.94
708.197	13.91
708.382	13.84
708.567	13.71
708.751	13.81
708.936	13.81
709.12	13.88
709.305	13.86
709.489	13.94
709.673	13.73
709.858	13.64
710.042	13.72
710.227	13.7
710.411	13.78
710.596	13.93
710.78	13.8
710.964	13.79
711.149	13.75
711.333	13.93
711.517	13.91
711.702	14.03
711.886	14.19
712.07	13.98
712.254	14
712.438	13.98
712.623	14.1
712.807	14.32
712.991	14.36
713.175	14.47
713.359	14.32
713.544	14.44
713.728	14.4
713.912	14.37
714.096	14.53
714.28	14.43
714.464	14.53
714.648	14.38
714.832	14.28
715.016	14.15
715.2	13.89
715.384	13.89
715.568	13.76
715.752	13.72
715.936	13.74
716.12	13.68
716.304	13.72
716.488	13.68
716.671	13.75
716.855	13.66
717.039	13.78
717.223	14.03
717.407	13.9
717.59	13.75
717.774	13.7
717.958	13.65
718.142	13.77
718.325	13.78
718.509	13.73
718.693	13.66
718.877	13.52
719.06	13.56
719.244	13.4
719.428	13.64
719.611	13.79
719.795	13.92
719.978	13.96
720.162	13.88
720.345	13.88
720.529	13.83
720.713	14.03
720.896	14.43
721.08	14.34
721.263	14.25
721.446	14.14
721.63	14.18
721.813	14.31
721.997	14.36
722.18	14.32
722.364	14.28
722.547	14.53
722.73	14.2
722.914	13.97
723.097	13.98
723.28	14.17
723.464	14.17
723.647	14.18
723.83	14.12
724.013	13.95
724.197	14.11
724.38	14.17
724.563	13.97
724.746	14.19
724.929	14.27
725.112	14.33
725.296	14.08
725.479	14.02
725.662	13.98
725.845	13.86
726.028	13.84
726.211	13.66
726.394	13.71
726.577	13.83
726.76	13.66
726.943	13.64
727.126	13.71
727.309	14
727.492	14.19
727.675	14.29
727.858	14.14
728.041	14.36
728.224	14.38
728.407	14.22
728.589	13.96
728.772	14.25
728.955	14.35
729.138	14.32
729.321	14.26
729.503	14.21
729.686	14.03
729.869	14.25
730.052	14.09
730.234	14.17
730.417	14.19
730.6	14.4
730.782	14.11
730.965	14.07
731.148	14.04
731.33	14.1
731.513	13.92
731.695	14
731.878	13.98
732.061	14.03
732.243	13.84
732.426	13.92
732.608	14.02
732.791	14.13
732.973	14.14
733.156	14.22
733.338	14.12
733.52	14.21
733.703	14.18
733.885	14.26
734.068	14.17
734.25	14.11
734.432	14.02
734.615	14.06
734.797	14.23
734.979	14.18
735.162	14.15
735.344	14.3
735.526	14.2
735.708	14.36
735.891	14.47
736.073	14.6
736.255	14.79
736.437	15.07
736.619	14.85
736.802	14.62
736.984	14.69
737.166	14.59
737.348	14.25
737.53	14.37
737.712	14.39
737.894	14.35
738.076	14.42
738.258	14.43
738.44	14.36
738.622	14.23
738.804	14.32
738.986	14.19
739.168	14.3
739.35	14.59
739.532	14.46
739.714	14.36
739.896	14.19
740.078	14.02
740.259	14.07
740.441	13.89
740.623	14.17
740.805	14.01
740.987	14.15
741.168	13.8
741.35	13.74
741.532	13.94
741.714	13.83
741.895	14.01
742.077	13.96
742.259	13.91
742.44	13.98
742.622	13.57
742.804	13.57
742.985	13.52
743.167	13.98
743.348	14.09
743.53	14.04
743.711	14
743.893	13.48
744.075	13.65
744.256	13.48
744.438	13.34
744.619	13.6
744.8	13.54
744.982	13.54
745.163	13.53
745.345	13.35
745.526	13.34
745.707	13.37
745.889	13.67
746.07	13.84
746.252	14
746.433	14.12
746.614	14.31
746.795	14.86
746.977	14.95
747.158	14.92
747.339	14.91
747.52	14.75
747.702	14.85
747.883	14.47
748.064	14.29
748.245	14.25
748.426	14.01
748.607	13.9
748.788	13.53
748.97	13.28
749.151	13.19
749.332	13.18
749.513	13.47
749.694	13.48
749.875	13.92
750.056	13.89
750.237	13.89
750.418	14.14
750.599	13.88
750.78	13.84
750.96	13.97
751.141	14.25
751.322	14.4
751.503	14.3
751.684	14.35
751.865	14.51
752.046	14.74
752.226	14.73
752.407	14.63
752.588	14.86
752.769	15.12
752.949	14.96
753.13	14.56
753.311	14.51
753.492	14.33
753.672	14.14
753.853	13.82
754.034	13.45
754.214	13.61
754.395	13.43
754.575	13.75
754.756	13.53
754.937	13.52
755.117	13.46
755.298	13.39
755.478	13.43
755.659	13.74
755.839	13.73
756.02	13.95
756.2	13.83
756.381	13.64
756.561	13.3
756.741	13.29
756.922	13.49
757.102	13.45
757.283	13.61
757.463	13.73
757.643	13.66
757.823	13.68
758.004	13.59
758.184	13.63
758.364	14.16
758.545	14.09
758.725	13.91
758.905	13.91
759.085	14.16
759.265	13.93
759.446	13.97
759.626	14.12
759.806	14.4
759.986	14.18
760.166	14.02
760.346	13.92
760.526	14.14
760.706	14.3
760.886	14.26
761.066	14.16
761.246	14.15
761.426	14.13
761.606	13.9
761.786	13.77
761.966	14
762.146	14.18
762.326	14.06
762.506	14.11
762.686	14.33
762.866	14.22
763.046	14.19
763.225	14.41
763.405	14.28
763.585	14.55
763.765	14.55
763.945	14.45
764.124	14.41
764.304	14.76
764.484	14.52
764.664	14.34
764.843	14.53
765.023	14.55
765.203	14.53
765.382	14.74
765.562	14.67
765.741	14.93
765.921	15.04
766.101	15.02
766.28	14.63
766.46	14.73
766.639	14.64
766.819	14.32
766.998	14.19
767.178	14.15
767.357	14.09
767.537	13.81
767.716	13.46
767.896	13.51
768.075	13.59
768.254	13.87
768.434	13.98
768.613	13.64
768.792	14.13
768.972	14.49
769.151	14.16
769.33	14.17
769.51	14.23
769.689	14.11
769.868	14.1
770.047	14.01
770.226	14.14
770.406	14.23
770.585	14.59
770.764	14.32
770.943	13.95
771.122	14.11
771.301	13.99
771.48	14.09
771.66	14.45
771.839	14.38
772.018	14.39
772.197	14.42
772.376	14.26
772.555	14.23
772.734	14.58
772.913	14.67
773.092	14.62
773.271	14.47
773.449	14.25
773.628	13.94
773.807	13.58
773.986	13.34
774.165	13.22
774.344	13.12
774.523	13.23
774.701	13.11
774.88	13.31
775.059	13.39
775.238	13.77
775.417	13.66
775.595	13.44
775.774	13.99
775.953	14.13
776.131	13.65
776.31	13.63
776.489	13.55
776.667	13.49
776.846	13.17
777.025	13.2
777.203	12.84
777.382	13.12
777.56	13.26
777.739	12.85
777.917	12.94
778.096	13.14
778.274	13.43
778.453	13.78
778.631	13.22
778.81	13.16
778.988	12.78
779.166	12.7
779.345	12.81
779.523	12.98
779.702	13.15
779.88	13.26
780.058	13.4
780.237	13.75
780.415	13.85
780.593	14.25
780.771	14.64
780.95	15.18
781.128	15.68
781.306	15.56
781.484	15.6
781.662	15.42
781.841	15.24
782.019	15.34
782.197	15.15
782.375	14.33
782.553	14.41
782.731	14.77
782.909	14.67
783.087	14.95
783.265	15.08
783.443	14.8
783.621	14.26
783.799	14.31
783.977	13.73
784.155	13.46
784.333	13.9
784.511	13.88
784.689	13.28
784.867	13.8
785.045	12.86
785.223	12.49
785.4	12.52
785.578	13.55
785.756	13.73
785.934	13.81
786.112	13.67
786.289	13.33
786.467	13.07
786.645	13.37
786.823	12.5
787	12.81
787.178	13.34
787.356	13.53
787.533	13.12
787.711	13.05
787.889	13.13
788.066	13.24
788.244	13.46
788.421	14.07
788.599	13.9
788.776	14.02
788.954	14.18
789.131	13.58
789.309	13.81
789.486	14.08
789.664	14.27
789.841	14.31
790.019	14.01
790.196	14.56
790.373	14.14
790.551	13.71
790.728	13.74
790.906	13.55
791.083	12.83
791.26	12.07
791.437	11.7
791.615	11.65
791.792	11.83
791.969	11.74
792.146	11
792.324	11.03
792.501	11.48
792.678	11.51
792.855	11.3
793.032	12.5
793.209	13.22
793.387	13.79
793.564	13.42
793.741	13.08
793.918	13.31
794.095	13.96
794.272	14.26
794.449	14
794.626	14.12
794.803	14.03
794.98	13.87
795.157	13.62
795.334	13.34
795.511	12.98
795.688	13.06
795.864	13.32
796.041	13.29
796.218	12.76
796.395	13.61
796.572	13.83
796.749	13.95
796.925	14.66
797.102	14.59
797.279	14.81
797.456	15.67
797.632	15.6
797.809	15.78
797.986	15.81
798.162	16.44
798.339	15.91
798.516	15.52
798.692	16.01
798.869	15.61
799.046	15.08
799.222	14.64
799.399	14.07
799.575	14.79
799.752	13.92
799.928	13.47
800.105	13.1
800.281	13.04
800.458	13.66
800.634	13.54
800.811	13.42
800.987	13.91
801.163	13.45
801.34	13.16
801.516	12.59
801.692	13.01
801.869	13.14
802.045	13.04
802.221	13.19
802.398	12.58
802.574	12.49
802.75	11.97
802.926	12.01
803.103	12.21
803.279	13.02
803.455	13.14
803.631	13.8
803.807	13.16
803.983	13.61
804.16	13.12
804.336	12.93
804.512	12.81
804.688	13.7
804.864	13.79
805.04	14.02
805.216	13.31
805.392	12.64
805.568	12.07
805.744	13.06
805.92	12.46
806.096	12.5
806.272	13.22
806.448	12.7
806.623	11.9
806.799	12.13
806.975	12.53
807.151	13.5
807.327	14.34
807.503	14.82
807.678	14.44
807.854	14.82
808.03	15.03
808.206	14.8
808.381	14.98
808.557	15.01
808.733	14.45
808.908	14.29
809.084	13.63
809.26	12.78
809.435	12.3
809.611	12.21
809.787	11.82
809.962	11.35
810.138	10.59
810.313	11.66
810.489	11.68
810.664	12.29
810.84	11.98
811.015	12.41
811.191	12.59
811.366	12.1
811.542	12.04
811.717	12.52
811.892	13.49
812.068	14.49
812.243	13.69
812.419	13.7
812.594	13.68
812.769	14.75
812.944	14.23
813.12	13.9
813.295	14.5
813.47	14.72
813.645	14.56
813.821	13.92
813.996	13.21
814.171	13.64
814.346	14.16
814.521	14.03
814.697	13.52
814.872	13.98
815.047	14.65
815.222	14.26
815.397	14.2
815.572	14.41
815.747	14.67
815.922	14.73
816.097	14.37
816.272	14.15
816.447	14.06
816.622	14.2
816.797	13.37
816.972	13.33
817.147	13.91
817.322	13.2
817.496	12.98
817.671	13.26
817.846	13.69
818.021	13.71
818.196	13.14
818.371	12.82
818.545	12.8
818.72	13.64
818.895	13.77
819.069	13.92
819.244	14.86
819.419	15.02
819.594	15
819.768	14.99
819.943	15.25
820.117	15.61
820.292	15.98
820.467	16.14
820.641	16.06
820.816	16.23
820.99	16.21
821.165	16.16
821.339	16.17
821.514	16.08
821.688	16.07
821.863	15.94
822.037	15.93
822.212	15.85
822.386	15.71
822.56	15.61
822.735	15.47
822.909	15.4
823.084	15.19
823.258	15.12
823.432	15.28
823.606	15.18
823.781	15.12
823.955	15.03
824.129	14.91
824.303	14.77
824.478	14.77
824.652	14.9
824.826	14.61
825	14.9
825.174	14.85
825.348	14.35
825.523	14.44
825.697	14.42
825.871	14.51
826.045	14.83
826.219	14.77
826.393	15.01
826.567	15.12
826.741	15.35
826.915	15.33
827.089	15.2
827.263	15.54
827.437	15.4
827.611	15.62
827.784	15.44
827.958	15.01
828.132	15.48
828.306	15.29
828.48	14.95
828.654	14.79
828.827	14.36
829.001	14.34
829.175	13.81
829.349	14.46
829.522	14.44
829.696	14.62
829.87	14.75
830.044	14.55
830.217	14.16
830.391	13.96
830.565	14.44
830.738	14.21
830.912	14.26
831.085	14.86
831.259	14.57
831.432	14.14
831.606	14
831.779	14
831.953	13.99
832.126	14.39
832.3	14.6
832.473	14.26
832.647	14.09
832.82	14.44
832.994	14.41
833.167	13.98
833.34	14.09
833.514	13.89
833.687	14.19
833.86	13.73
834.034	13.8
834.207	13.58
834.38	13.74
834.553	14.05
834.727	13.56
834.9	13.34
835.073	13.04
835.246	13.09
835.419	13.57
835.593	13.53
835.766	14.03
835.939	13.6
836.112	13.7
836.285	13.26
836.458	13.79
836.631	13.91
836.804	13.74
836.977	14.77
837.15	14.78
837.323	13.97
837.496	13.77
837.669	13.72
837.842	13.51
838.015	14.31
838.188	14.51
838.361	13.9
838.533	14.01
838.706	13.13
838.879	12.07
839.052	11.71
839.225	11.99
839.398	12.4
839.57	11.27
839.743	10.65
839.916	10.69
840.088	10.29
840.261	10.58
840.434	10.73
840.607	10.95
840.779	11.53
840.952	11.84
841.124	12.91
841.297	12.1
841.47	13.03
841.642	13.38
841.815	12.3
841.987	12.64
842.16	12.73
842.332	12.12
842.505	13.11
842.677	13.55
842.85	12.16
843.022	10.68
843.194	12.21
843.367	12.17
843.539	12.18
843.712	12.21
843.884	10.85
844.056	10.25
844.229	11.15
844.401	10.88
844.573	12.73
844.745	14.46
844.918	14.12
845.09	13.1
845.262	12.22
845.434	12.68
845.606	12.38
845.779	14.39
845.951	15.86
846.123	16.78
846.295	16.62
846.467	14.6
846.639	14.72
846.811	14.79
846.983	13.8
847.155	14.99
847.327	15.13
847.499	15.25
847.671	13.16
847.843	12.06
848.015	10.06
848.187	10.59
848.359	10.66
848.531	10.55
848.703	12.04
848.875	14.31
849.047	15.47
849.218	14.75
849.39	15.33
849.562	17.97
849.734	16.21
849.905	16.9
850.077	17.84
850.249	18.02
850.421	17.13
850.592	15.61
850.764	13.25
850.936	10.6
851.107	13.01
851.279	12.23
851.451	11.36
851.622	14.11
851.794	14.13
851.965	12.63
852.137	12.12
852.308	10.32
852.48	9.56
852.651	10.56
852.823	11.04
852.994	11.3
853.166	12.74
853.337	13.36
853.509	11.8
853.68	11.14
853.851	11.34
854.023	11.17
854.194	13.46
854.365	14.81
854.537	14.42
854.708	14.86
854.879	10.99
855.05	10.13
855.222	10.7
855.393	7.77
855.564	7.99
855.735	7
855.906	8.35
856.078	6.22
856.249	8.82
856.42	7.84
856.591	9.28
856.762	13.26
856.933	12.55
857.104	9.02
857.275	12.08
857.446	10.56
857.617	9.89
857.788	9.08
857.959	9.74
858.13	5.33
858.301	5.51
858.472	3.7
858.643	0.02
858.814	2.25
858.985	5.58
859.155	5.04
859.326	6.98
859.497	9.49
859.668	7.43
859.839	8.66
860.009	11.15
860.18	9.38
860.351	12.92
860.522	16.53
860.692	16.1
860.863	13.89
861.034	13.02
861.204	12.51
861.375	11.39
861.546	10.84
861.716	11.28
861.887	8.65
862.057	10.77
862.228	7.45
862.398	3.95
862.569	3.44
862.739	4.62
862.91	6.56
863.08	7.28
863.251	6.86
863.421	5.54
863.592	4.18
863.762	6.04
863.932	7.04
864.103	6.53
864.273	6.34
864.443	6.87
864.614	8.47
864.784	8.75
864.954	8.04
865.125	7.15
865.295	12.03
865.465	12.3
865.635	10.27
865.805	10.01
865.976	7.1
866.146	7.37
866.316	6.24
866.486	5.1
866.656	4.15
866.826	3.38
866.996	6.26
867.166	5.44
867.336	4.4
867.506	7.41
867.676	8.13
867.846	12.03
868.016	12.64
868.186	11.02
868.356	9.99
868.526	10.1
868.696	10.62
868.866	10.66
869.036	7.44
869.206	7.91
869.376	7.58
869.545	6.44
869.715	5.22
869.885	7.06
870.055	7.26
870.224	7.26
870.394	7.63
870.564	8.73
870.734	5.83
870.903	6.56
871.073	6.59
871.243	8.55
871.412	8.61
871.582	10.99
871.751	10.41
871.921	10.76
872.091	9.53
872.26	8.94
872.43	7.48
872.599	8.2
872.769	11.73
872.938	13.8
873.108	9.73
873.277	9.43
873.446	10.59
873.616	11.25
873.785	14.39
873.955	16.95
874.124	16.45
874.293	18.79
874.463	18.43
874.632	16.16
874.801	14.93
874.971	16.82
875.14	17.18
875.309	14.14
875.478	13.11
875.647	12.62
875.817	11.56
875.986	9.07
876.155	8.06
876.324	9.14
876.493	12.97
876.662	11.07
876.831	11.33
877	10.52
877.17	11.77
877.339	13.14
877.508	13.81
877.677	15.89
877.846	18.1
878.015	18.81
878.184	18.07
878.352	16.87
878.521	18.41
878.69	18.02
878.859	19.28
879.028	18.95
879.197	17.73
879.366	16.37
879.534	15.39
879.703	15.2
879.872	14.62
880.041	15.67
880.21	15.02
880.378	14.28
880.547	14.74
880.716	14.89
880.884	14.64
881.053	15.37
881.222	15.47
881.39	15.48
881.559	15.8
881.727	15.76
881.896	15.25
882.065	15.23
882.233	15.73
882.402	15.51
882.57	15.23
882.739	15.01
882.907	14.77
883.076	14.83
883.244	14.75
883.412	14.62
883.581	14.54
883.749	14.75
883.918	14.88
884.086	14.63
884.254	14.75
884.423	14.72
884.591	16.1
884.759	15.14
884.927	15.03
885.096	13.82
885.264	14.1
885.432	13.98
885.6	13.16
885.769	12.42
885.937	12.85
886.105	12.24
886.273	12.54
886.441	10.13
886.609	11.7
886.777	10.7
886.945	11.06
887.113	9.54
887.281	9.95
887.449	10.48
887.617	9.94
887.785	8.59
887.953	7.4
888.121	5.38
888.289	7.74
888.457	7.17
888.625	6.75
888.793	9.56
888.961	8.17
889.129	7.51
889.296	8.18
889.464	9.68
889.632	10.06
889.8	11.57
889.967	13.22
890.135	11.6
