Data from JASIL_3197_Reflection_02.txt Node
Date: Fri Nov 13 14:02:28 EST 2015
User: Geneva
Spectrometer: USB4E03002
Autoset integration time: false
Trigger mode: 4
Integration Time (sec): 1.000000E-1
Scans to average: 10
Electric dark correction enabled: false
Nonlinearity correction enabled: false
Boxcar width: 5
Stray light correction enabled: false
XAxis mode: Wavelengths
Stop averaging: false
Number of Pixels in Spectrum: 3648
>>>>>Begin Spectral Data<<<<<
177.575	-18.38
177.794	-102.76
178.014	-153.76
178.233	-191.95
178.452	-276.92
178.672	-331.18
178.891	-346.39
179.11	2487.1
179.33	-2322.58
179.549	-1179.01
179.768	-1112.64
179.987	-17716.67
180.207	-483.7
180.426	-704.29
180.645	-405.09
180.864	-259.13
181.084	-221.53
181.303	-378.72
181.522	-225.15
181.741	-364.18
181.96	-982.93
182.179	3408.33
182.398	42250
182.618	524.86
182.837	-1859.18
183.056	1488.14
183.275	1541.07
183.494	21100
183.713	-1335.59
183.932	-1795.92
184.151	-100700
184.37	-500.57
184.589	-430.73
184.808	-203.07
185.027	-148.82
185.246	-170.77
185.465	-150.61
185.684	-206.42
185.903	-231.54
186.122	-1027.78
186.341	-983.58
186.56	-956.52
186.779	279.67
186.998	371.82
187.216	297.15
187.435	255.82
187.654	235.48
187.873	171.94
188.092	253.03
188.311	336.62
188.53	437.77
188.748	534.74
188.967	480.63
189.186	534.5
189.405	368.66
189.623	741.96
189.842	577.08
190.061	1037.37
190.28	-5131.58
190.498	632.94
190.717	338.16
190.936	501.34
191.154	379.04
191.373	490.84
191.592	675
191.81	865.38
192.029	2651.02
192.248	-615.38
192.466	-932.88
192.685	-1560.24
192.904	-289.46
193.122	-189.11
193.341	-280.41
193.559	-371.89
193.778	-512.63
193.996	-304.44
194.215	-432.18
194.433	-278.45
194.652	3404
194.87	1450
195.089	-2538.24
195.307	598.75
195.526	870.09
195.744	-1283.33
195.963	-6742.86
196.181	-490.31
196.399	-488.37
196.618	-387.39
196.836	8209.09
197.055	-635.88
197.273	-489.86
197.491	-231.96
197.71	-289.4
197.928	-415.42
198.146	-3096.77
198.365	1600
198.583	399.64
198.801	371.72
199.019	580
199.238	972.8
199.456	-4153.57
199.674	-1517.72
199.892	2582.05
200.111	-1167.09
200.329	-654.39
200.547	-766.67
200.765	-75.7
200.983	-40.03
201.202	-65.09
201.42	-58.45
201.638	-117.6
201.856	-140.16
202.074	-238.87
202.292	-1156.34
202.51	-3463.64
202.728	-1130.77
202.946	-399.2
203.165	-516.06
203.383	-676.47
203.601	-781.68
203.819	-756.72
204.037	-282.93
204.255	-267.95
204.473	-318.46
204.691	-166.28
204.909	-111.34
205.127	-109.53
205.345	-39.02
205.562	-43.12
205.78	-61.68
205.998	-29.62
206.216	-38.14
206.434	-74.7
206.652	-172.54
206.87	-87.9
207.088	-777.78
207.306	-544.72
207.523	-434.39
207.741	2205.56
207.959	-887.01
208.177	-309.24
208.395	-1473.81
208.612	-232.71
208.83	-807.58
209.048	1178.57
209.266	395.31
209.483	-275.57
209.701	-326.67
209.919	-294.51
210.136	-73.46
210.354	-118.7
210.572	-136.39
210.79	-162.77
211.007	-421.15
211.225	-171.18
211.442	-173.62
211.66	-132.82
211.878	-152.95
212.095	-660.42
212.313	-709.12
212.53	-993.99
212.748	-2759.52
212.966	2780.72
213.183	-4951.11
213.401	-1878.26
213.618	231900
213.836	-3465.67
214.053	2070.8
214.271	1659.29
214.488	1741.86
214.705	2437.93
214.923	7366.67
215.14	-766.3
215.358	-204.84
215.575	-287.25
215.793	-339.53
216.01	-253.09
216.227	-296.9
216.445	-125.1
216.662	-115.49
216.879	-177.27
217.097	-180.78
217.314	-394.74
217.531	-308.42
217.749	-2161.54
217.966	-450
218.183	-2437.93
218.4	-733.98
218.618	-894.25
218.835	3187.5
219.052	777.88
219.269	-7141.67
219.487	599.34
219.704	493.49
219.921	741.75
220.138	-474.13
220.355	-492.44
220.572	-347.27
220.79	-1173.75
221.007	-360.49
221.224	-384.16
221.441	-524.55
221.658	-997.67
221.875	-371.56
222.092	-951.49
222.309	2404.76
222.526	269.93
222.743	211.73
222.96	190.92
223.177	163.7
223.394	163.99
223.611	187.27
223.828	201.03
224.045	163.9
224.262	194.14
224.479	192.08
224.696	166.59
224.913	186.2
225.13	192.23
225.347	163.59
225.564	164.55
225.781	176.03
225.997	139.51
226.214	119.88
226.431	139.93
226.648	69.45
226.865	53.02
227.082	38.49
227.298	38.76
227.515	23.87
227.732	30.04
227.949	37.05
228.165	31.75
228.382	32.28
228.599	31.32
228.816	29.22
229.032	38.26
229.249	39.83
229.466	48.87
229.682	39.61
229.899	60.27
230.116	68.87
230.332	58.29
230.549	76.98
230.765	88.21
230.982	97.76
231.199	115.18
231.415	109.22
231.632	120.35
231.848	118.09
232.065	152.1
232.281	151.12
232.498	157.73
232.714	169.13
232.931	132.2
233.147	116.44
233.364	132.78
233.58	117.82
233.797	102.32
234.013	101.7
234.23	107.25
234.446	96.17
234.662	89.98
234.879	97.4
235.095	89.34
235.312	109.62
235.528	112.47
235.744	110.2
235.961	89.3
236.177	83.41
236.393	80.05
236.61	97.46
236.826	99.65
237.042	108.78
237.258	87.77
237.475	92.71
237.691	101.7
237.907	105.51
238.123	99.09
238.339	102.8
238.556	96.48
238.772	99.14
238.988	70.47
239.204	66.15
239.42	60.77
239.636	78.57
239.853	65.28
240.069	42.99
240.285	35.18
240.501	42.55
240.717	44.46
240.933	52.04
241.149	49.49
241.365	42.53
241.581	44.49
241.797	37.58
242.013	27.89
242.229	32.15
242.445	37.93
242.661	40.85
242.877	42.71
243.093	40.1
243.309	38.87
243.525	38.17
243.741	41.19
243.957	35.68
244.173	35.98
244.388	31.6
244.604	25.41
244.82	19.51
245.036	12.58
245.252	13.12
245.468	9.72
245.683	6.98
245.899	4.78
246.115	4.71
246.331	4.14
246.547	4.69
246.762	9.67
246.978	11.42
247.194	11.55
247.409	15.25
247.625	13.38
247.841	13.66
248.057	20.01
248.272	20.56
248.488	23.31
248.703	30.04
248.919	32.9
249.135	29.46
249.35	30.06
249.566	30.98
249.782	34.13
249.997	33.71
250.213	37.06
250.428	35.65
250.644	41.11
250.859	39.85
251.075	32.68
251.29	34.11
251.506	40.98
251.721	40.16
251.937	38.71
252.152	39.32
252.368	45.55
252.583	50.44
252.798	51.53
253.014	49.11
253.229	50.85
253.445	52.06
253.66	49.46
253.875	39.64
254.091	45.53
254.306	47.97
254.521	46.29
254.737	39.85
254.952	34.87
255.167	27.22
255.383	33.4
255.598	31.96
255.813	29.76
256.028	27.16
256.244	34.55
256.459	33.85
256.674	36.2
256.889	33.63
257.104	26.31
257.32	25.77
257.535	21.39
257.75	16.83
257.965	18.39
258.18	19.34
258.395	22.58
258.61	19.69
258.826	17.44
259.041	13.95
259.256	10.25
259.471	12.43
259.686	14.23
259.901	17.81
260.116	18.44
260.331	17.31
260.546	17.2
260.761	14.82
260.976	16.89
261.191	19.89
261.406	23.74
261.621	29.93
261.836	33.52
262.05	30.06
262.265	30.06
262.48	32.94
262.695	34.97
262.91	35.99
263.125	37.11
263.34	34.12
263.555	28.78
263.769	26.52
263.984	23.49
264.199	18.04
264.414	19.92
264.629	19.02
264.843	19.61
265.058	17.75
265.273	18.76
265.488	15.88
265.702	17.42
265.917	20.86
266.132	22.37
266.346	19.86
266.561	26.49
266.776	24.78
266.99	25.03
267.205	24.07
267.42	23.23
267.634	21.09
267.849	21.78
268.063	19.66
268.278	20.62
268.492	16.97
268.707	17.95
268.922	15.18
269.136	17.48
269.351	17.1
269.565	16.63
269.78	17.55
269.994	20.92
270.209	19.77
270.423	20.08
270.637	18.14
270.852	19.3
271.066	20.26
271.281	20.84
271.495	20.8
271.709	20.7
271.924	19.1
272.138	22.02
272.353	19.17
272.567	20.21
272.781	20.15
272.996	21.84
273.21	20.72
273.424	19.54
273.638	15.92
273.853	13.27
274.067	12.37
274.281	11.18
274.495	12.55
274.71	14.73
274.924	17.34
275.138	18.38
275.352	17.64
275.566	18.89
275.781	19.73
275.995	19.32
276.209	21.28
276.423	21.97
276.637	23.63
276.851	21.53
277.065	22.72
277.279	19.08
277.493	18.63
277.707	16.27
277.921	13.8
278.135	13.58
278.349	14.93
278.563	15.1
278.777	15.71
278.991	14.71
279.205	12.86
279.419	12.76
279.633	11.98
279.847	10.98
280.061	10.75
280.275	12.18
280.489	11.95
280.703	12.66
280.917	12.9
281.131	12.13
281.344	15.1
281.558	15.02
281.772	13.02
281.986	15.81
282.2	18.66
282.414	18.63
282.627	18.57
282.841	20.24
283.055	18.06
283.269	16.2
283.482	15.21
283.696	12.69
283.91	16.33
284.123	15.9
284.337	15.24
284.551	11.17
284.764	12.64
284.978	11.71
285.192	11.48
285.405	13.86
285.619	14.38
285.833	15.76
286.046	14.52
286.26	10.67
286.473	11.83
286.687	11.82
286.9	12.84
287.114	11.1
287.327	11.32
287.541	10.65
287.754	8.58
287.968	10.58
288.181	6.99
288.395	6.92
288.608	8.31
288.822	7.19
289.035	6.92
289.248	7.92
289.462	10.42
289.675	11.99
289.889	14.07
290.102	15.12
290.315	12.97
290.529	15.16
290.742	15.69
290.955	15.78
291.169	16.64
291.382	17.5
291.595	19.27
291.808	18.26
292.022	19.19
292.235	15
292.448	13.47
292.661	13.59
292.875	14.09
293.088	15.43
293.301	16.65
293.514	17.02
293.727	17.17
293.94	16.03
294.153	15.74
294.367	14.3
294.58	16.32
294.793	16.36
295.006	17.08
295.219	16.22
295.432	16.54
295.645	15.57
295.858	14.17
296.071	11.97
296.284	11.33
296.497	12.71
296.71	13.17
296.923	13.6
297.136	13.06
297.349	14.81
297.562	14.06
297.775	12.54
297.988	11.93
298.201	12.55
298.414	10.95
298.626	13.85
298.839	11.32
299.052	10.68
299.265	11.97
299.478	14.2
299.691	10.9
299.903	12.71
300.116	13.29
300.329	13.63
300.542	14.23
300.755	18.05
300.967	13.72
301.18	16.7
301.393	16.22
301.605	13.43
301.818	14.14
302.031	15.64
302.243	15.34
302.456	18.16
302.669	18.73
302.881	20.75
303.094	21.03
303.307	22.76
303.519	22.33
303.732	23.74
303.944	25.39
304.157	24.69
304.37	23.35
304.582	24.12
304.795	23.05
305.007	22.71
305.22	18.67
305.432	17.73
305.645	18.32
305.857	16.51
306.069	16.14
306.282	14.49
306.494	14.95
306.707	15.26
306.919	13.61
307.132	12.9
307.344	13.64
307.556	15.48
307.769	17.08
307.981	16.05
308.193	14.76
308.406	14.73
308.618	13.94
308.83	13.27
309.043	14.28
309.255	16.32
309.467	14.51
309.679	14.44
309.892	14.76
310.104	14.52
310.316	15.72
310.528	16.59
310.74	16.58
310.953	18.44
311.165	17.91
311.377	17.99
311.589	14.37
311.801	15.64
312.013	19.17
312.225	18.43
312.437	17.62
312.649	15.18
312.862	13.97
313.074	13.68
313.286	12.57
313.498	15.36
313.71	15.67
313.922	18.15
314.134	18.55
314.346	13.47
314.558	17.55
314.77	18.56
314.982	22.02
315.193	21.79
315.405	22.06
315.617	22
315.829	20.9
316.041	22.31
316.253	23.85
316.465	26.47
316.677	28.36
316.888	26.64
317.1	24.34
317.312	22.02
317.524	23.33
317.736	24.59
317.947	28.1
318.159	28.33
318.371	27.06
318.583	26.18
318.794	24.13
319.006	24.16
319.218	20.23
319.43	20.31
319.641	22.77
319.853	24.42
320.064	22.96
320.276	20.28
320.488	19.3
320.699	19.28
320.911	15.53
321.123	20.44
321.334	19.35
321.546	19.11
321.757	20.29
321.969	18.98
322.18	17.16
322.392	19.86
322.603	20.37
322.815	19.7
323.026	21.3
323.238	25.21
323.449	22.15
323.661	21.14
323.872	25.6
324.083	26.64
324.295	25.69
324.506	25.15
324.718	25.03
324.929	22.43
325.14	22.4
325.352	22.08
325.563	21.75
325.774	23.08
325.986	24.95
326.197	24.05
326.408	22.83
326.62	24.05
326.831	25.81
327.042	23.47
327.253	25.41
327.464	26.37
327.676	26.63
327.887	26.47
328.098	24.11
328.309	21.75
328.52	21.69
328.732	26.05
328.943	25.42
329.154	24.73
329.365	28.08
329.576	27.93
329.787	29.68
329.998	28.28
330.209	28.98
330.42	29.4
330.631	32.98
330.842	33.21
331.053	30.31
331.264	29.92
331.475	30.05
331.686	26.4
331.897	25.06
332.108	22.48
332.319	24.15
332.53	23.7
332.741	24.34
332.952	25.86
333.163	25.22
333.374	23.99
333.585	23.72
333.795	23.74
334.006	25.71
334.217	27.03
334.428	26.73
334.639	26.14
334.849	25.13
335.06	26.34
335.271	23.07
335.482	23.63
335.692	24.97
335.903	26.12
336.114	25.91
336.325	27.59
336.535	28.3
336.746	28.21
336.957	29.66
337.167	32.96
337.378	30.63
337.589	31.7
337.799	32.09
338.01	32.01
338.22	32.98
338.431	31.67
338.642	31.85
338.852	33.36
339.063	35.15
339.273	34.89
339.484	32.21
339.694	33.05
339.905	30.96
340.115	31.32
340.326	30.43
340.536	30.25
340.746	31
340.957	30.32
341.167	27.63
341.378	27.76
341.588	25.99
341.799	26.16
342.009	27.39
342.219	27.76
342.43	28.33
342.64	27.75
342.85	27.62
343.061	27.51
343.271	26.01
343.481	26.58
343.691	25.26
343.902	24.87
344.112	23.89
344.322	22.75
344.532	22.89
344.743	21.12
344.953	22.4
345.163	20.68
345.373	21.5
345.583	23.95
345.793	24.18
346.004	25.36
346.214	25.04
346.424	24.33
346.634	23.79
346.844	23.23
347.054	22.05
347.264	22.54
347.474	20.96
347.684	20.87
347.894	18.76
348.104	18.88
348.314	17.23
348.524	17.48
348.734	19.25
348.944	19.84
349.154	20.97
349.364	22.98
349.574	20.87
349.784	25.49
349.994	28.65
350.204	29.4
350.413	29.4
350.623	29.77
350.833	29.32
351.043	30.07
351.253	28.39
351.463	28.9
351.672	29.25
351.882	32.26
352.092	31.61
352.302	29.63
352.511	27.91
352.721	27.45
352.931	26.11
353.141	26.15
353.35	25.77
353.56	27.24
353.77	26.56
353.979	25.45
354.189	24.14
354.399	23.25
354.608	21.42
354.818	22.24
355.027	23.11
355.237	24.48
355.447	24.74
355.656	22.71
355.866	21.55
356.075	20.83
356.285	22.13
356.494	22.5
356.704	24.39
356.913	25.54
357.123	24.97
357.332	23.81
357.542	23.29
357.751	22.53
357.96	23.68
358.17	22.6
358.379	22.74
358.589	21.18
358.798	19.21
359.007	17.31
359.217	17.26
359.426	17.57
359.635	17.86
359.845	17.85
360.054	18.11
360.263	18.11
360.472	19
360.682	18.74
360.891	18.11
361.1	19.18
361.309	18.55
361.519	16.93
361.728	16.57
361.937	16.17
362.146	16.7
362.355	16.37
362.564	16.79
362.774	16.8
362.983	17.41
363.192	18.19
363.401	18.08
363.61	17.68
363.819	19.1
364.028	19.75
364.237	20.57
364.446	21.21
364.655	22.48
364.864	22.13
365.073	22.08
365.282	22.2
365.491	22.53
365.7	21.55
365.909	21.47
366.118	22.24
366.327	21.03
366.536	21.03
366.745	19.91
366.954	20.4
367.162	21.22
367.371	21.04
367.58	20.91
367.789	20.83
367.998	23.07
368.207	24.2
368.415	23.32
368.624	24.35
368.833	24.34
369.042	23.87
369.25	22.61
369.459	21.77
369.668	22.48
369.877	22.23
370.085	21.95
370.294	20.04
370.503	19.48
370.711	18
370.92	17.77
371.129	17.99
371.337	18.46
371.546	18.23
371.754	18.69
371.963	17.97
372.171	17.92
372.38	17.83
372.589	17.41
372.797	17.25
373.006	18.66
373.214	18.65
373.423	16.55
373.631	16.73
373.84	15.76
374.048	16.06
374.256	16.44
374.465	17.75
374.673	17.78
374.882	19.78
375.09	20.36
375.298	19.57
375.507	19.44
375.715	21.11
375.923	20.11
376.132	21.1
376.34	20.83
376.548	21.39
376.757	20.24
376.965	19.77
377.173	18.97
377.381	18.34
377.59	18.5
377.798	18.38
378.006	16.72
378.214	17.31
378.423	17.26
378.631	16.55
378.839	16.75
379.047	16.35
379.255	16.12
379.463	15.73
379.671	16.97
379.879	17.33
380.088	16.61
380.296	17.76
380.504	18.13
380.712	17.45
380.92	18.02
381.128	17.07
381.336	16.99
381.544	17.53
381.752	17.85
381.96	16.34
382.168	17.09
382.376	18.33
382.584	18.21
382.791	18.76
382.999	19.1
383.207	17.85
383.415	18.82
383.623	20.1
383.831	21.36
384.039	21.17
384.247	20.34
384.454	19.66
384.662	19.06
384.87	18.84
385.078	18.52
385.285	18.57
385.493	18.35
385.701	17.25
385.909	16.39
386.116	15.56
386.324	14.93
386.532	16.62
386.739	16.51
386.947	17.99
387.155	17.81
387.362	17.26
387.57	17.45
387.778	17.44
387.985	17.44
388.193	16.91
388.4	17.3
388.608	17.56
388.816	16.8
389.023	16.88
389.231	15.84
389.438	16.55
389.646	18.11
389.853	18.46
390.061	18.83
390.268	18.15
390.475	18.09
390.683	17.28
390.89	17.78
391.098	17.5
391.305	18.55
391.512	19.22
391.72	18.32
391.927	16.77
392.135	16.11
392.342	17.27
392.549	18.93
392.756	19.57
392.964	19.51
393.171	19
393.378	19.45
393.586	18.27
393.793	16.94
394	17.33
394.207	17.74
394.414	17.99
394.622	17.44
394.829	16.48
395.036	16.04
395.243	16.43
395.45	15.92
395.657	15.73
395.864	17.53
396.072	18.29
396.279	18.33
396.486	17.95
396.693	18.23
396.9	17.53
397.107	17.33
397.314	18.21
397.521	18.62
397.728	17.89
397.935	17.73
398.142	16.25
398.349	16.93
398.556	16.21
398.763	16.01
398.97	16.37
399.177	16.65
399.383	15.66
399.59	15.92
399.797	16.09
400.004	17.81
400.211	18.02
400.418	17.99
400.625	18.1
400.831	18.74
401.038	19.77
401.245	19.69
401.452	19.79
401.658	21.32
401.865	19.85
402.072	19.64
402.279	19.59
402.485	18.94
402.692	19.29
402.899	19.14
403.105	18.68
403.312	18.55
403.519	18.62
403.725	18.16
403.932	17.45
404.138	18.32
404.345	17.58
404.552	17.24
404.758	18.24
404.965	18.1
405.171	17.05
405.378	17.88
405.584	17.02
405.791	16.85
405.997	16.75
406.204	17.78
406.41	17.41
406.617	17.57
406.823	17.73
407.029	17.85
407.236	17.75
407.442	18.07
407.649	18.9
407.855	19.24
408.061	17.95
408.268	19.41
408.474	19.31
408.68	19.75
408.887	19.68
409.093	19.47
409.299	19.66
409.505	19.77
409.712	20.17
409.918	19.23
410.124	19.53
410.33	20.67
410.537	19.9
410.743	20.43
410.949	21.22
411.155	21.92
411.361	22.87
411.567	22.38
411.773	22.28
411.98	22.41
412.186	22.06
412.392	22.58
412.598	22.88
412.804	23.41
413.01	22.67
413.216	21.59
413.422	20.83
413.628	19.77
413.834	19.3
414.04	19.8
414.246	19.45
414.452	19.83
414.658	19.51
414.864	18.87
415.07	18.68
415.275	17.82
415.481	17.97
415.687	18.86
415.893	18.59
416.099	19.13
416.305	18.92
416.511	17.84
416.716	17.34
416.922	17.04
417.128	17.17
417.334	16.85
417.539	17.05
417.745	16.74
417.951	15.61
418.157	15.89
418.362	15.57
418.568	15
418.774	15.07
418.979	15.42
419.185	15.09
419.391	15.03
419.596	15.57
419.802	15.45
420.008	15.26
420.213	16.01
420.419	15.96
420.624	15.83
420.83	16.22
421.035	16.38
421.241	16.21
421.446	16.15
421.652	16.53
421.857	15.91
422.063	16.33
422.268	16.58
422.474	16.13
422.679	16.17
422.885	16.52
423.09	15.97
423.295	16.32
423.501	16.71
423.706	16.83
423.911	16.31
424.117	16.15
424.322	16.34
424.527	16.35
424.733	16.33
424.938	16.22
425.143	16.09
425.349	16.41
425.554	16.16
425.759	16.09
425.964	16.1
426.169	16.64
426.375	17.67
426.58	17.07
426.785	17.12
426.99	17.36
427.195	17.69
427.4	17.73
427.605	17.85
427.811	18.63
428.016	18.12
428.221	18.39
428.426	17.64
428.631	16.31
428.836	17.11
429.041	16.98
429.246	17.25
429.451	17.03
429.656	17.16
429.861	17.03
430.066	16.97
430.271	17.48
430.476	17.59
430.681	18.6
430.886	18.84
431.09	17.76
431.295	17.81
431.5	17.64
431.705	17.78
431.91	17.72
432.115	18.19
432.32	17.43
432.524	17.04
432.729	17.04
432.934	16.69
433.139	17.08
433.343	17.33
433.548	17.29
433.753	17.58
433.958	17.34
434.162	16.73
434.367	16.34
434.572	16.57
434.776	16.68
434.981	16.07
435.186	15.83
435.39	15.57
435.595	16.18
435.799	16.26
436.004	16.02
436.209	16.23
436.413	16.71
436.618	16.54
436.822	17.04
437.027	16.72
437.231	17.14
437.436	16.55
437.64	16.4
437.845	15.97
438.049	16.31
438.253	16.1
438.458	16.17
438.662	16.1
438.867	16.16
439.071	15.97
439.275	16.18
439.48	16.33
439.684	16.41
439.888	16.91
440.093	16.82
440.297	16.26
440.501	16.27
440.706	16.1
440.91	16.09
441.114	16.63
441.318	16.91
441.523	17.14
441.727	17.27
441.931	17.89
442.135	17.25
442.339	18.06
442.543	18.25
442.748	18.2
442.952	18.45
443.156	18.48
443.36	18.27
443.564	17.74
443.768	17.87
443.972	18.25
444.176	17.49
444.38	17.86
444.584	17.34
444.788	16.84
444.992	17.51
445.196	17.16
445.4	17.04
445.604	16.38
445.808	16.45
446.012	16.15
446.216	15.68
446.42	15.95
446.624	15.67
446.828	15.63
447.032	16.21
447.235	15.89
447.439	15.68
447.643	15.69
447.847	16.1
448.051	16.35
448.254	16.3
448.458	16.54
448.662	16.75
448.866	16.69
449.069	16.45
449.273	16.55
449.477	16.32
449.681	16.85
449.884	17.26
450.088	17.55
450.292	17.53
450.495	18.46
450.699	17.94
450.902	18.5
451.106	18.76
451.31	19.3
451.513	19.19
451.717	19.04
451.92	19.21
452.124	18.7
452.327	18.73
452.531	17.99
452.734	17.47
452.938	17.84
453.141	17.67
453.345	17.95
453.548	17.88
453.752	17.8
453.955	17.92
454.158	18.06
454.362	18.66
454.565	18.25
454.769	19.56
454.972	18.93
455.175	18.69
455.379	18.41
455.582	18.44
455.785	18.08
455.988	18.17
456.192	18.35
456.395	17.35
456.598	17.34
456.801	17.57
457.005	16.89
457.208	17.35
457.411	17.4
457.614	16.56
457.817	16.56
458.021	16.61
458.224	16.65
458.427	16.29
458.63	16.74
458.833	16.7
459.036	16.42
459.239	16.78
459.442	16.7
459.645	16.61
459.848	17.06
460.051	17.05
460.254	16.96
460.457	17.07
460.66	17.51
460.863	17.49
461.066	17.41
461.269	17.31
461.472	16.99
461.675	17.17
461.878	17.33
462.081	17.19
462.284	16.76
462.486	17.18
462.689	16.78
462.892	16.27
463.095	16.55
463.298	16.15
463.5	17.16
463.703	17.05
463.906	16.95
464.109	17.35
464.311	17.98
464.514	18.77
464.717	19.05
464.92	19.32
465.122	19.68
465.325	19.8
465.528	19.56
465.73	19.36
465.933	19.63
466.135	19.09
466.338	19.08
466.541	18.87
466.743	18.51
466.946	18.18
467.148	17.62
467.351	17.67
467.553	16.67
467.756	17.54
467.958	17
468.161	16.48
468.363	17.05
468.566	16.66
468.768	16.84
468.971	17.27
469.173	17.21
469.375	17.34
469.578	17.43
469.78	18.36
469.983	17.71
470.185	18.38
470.387	18.79
470.59	18.89
470.792	19.27
470.994	19.31
471.196	19
471.399	19.28
471.601	19.56
471.803	19.24
472.005	19.09
472.208	18.99
472.41	18.95
472.612	19.15
472.814	18.84
473.016	18.87
473.218	19.01
473.421	18.42
473.623	18.56
473.825	18.61
474.027	18.46
474.229	19.02
474.431	19.76
474.633	19.44
474.835	19.27
475.037	19.41
475.239	19.48
475.441	19.1
475.643	19.48
475.845	19.37
476.047	19.56
476.249	19.95
476.451	20.04
476.653	20.25
476.855	20.35
477.057	20.57
477.258	20.65
477.46	20.34
477.662	20.41
477.864	20.79
478.066	20.38
478.268	20.31
478.469	20.09
478.671	19.33
478.873	18.83
479.075	18.8
479.276	19
479.478	18.85
479.68	18.47
479.882	18
480.083	17.55
480.285	17.66
480.487	17.52
480.688	17.37
480.89	17.34
481.091	17.2
481.293	16.82
481.495	16
481.696	15.49
481.898	15.28
482.099	15.03
482.301	14.8
482.502	14.76
482.704	14.61
482.905	14.32
483.107	14.18
483.308	14.11
483.51	13.9
483.711	14.01
483.913	14.13
484.114	14.19
484.315	14.34
484.517	14.5
484.718	14.44
484.92	14.45
485.121	14.55
485.322	14.68
485.524	14.83
485.725	15.19
485.926	15.08
486.127	15.11
486.329	15.19
486.53	15.16
486.731	15.18
486.932	15.05
487.134	14.95
487.335	15.14
487.536	15.22
487.737	15.15
487.938	15.31
488.139	15.51
488.341	15.54
488.542	15.65
488.743	15.92
488.944	15.82
489.145	16.11
489.346	16.45
489.547	16.41
489.748	16.63
489.949	16.66
490.15	16.65
490.351	16.51
490.552	16.66
490.753	16.65
490.954	16.57
491.155	16.7
491.356	16.61
491.557	16.63
491.758	16.68
491.959	16.75
492.159	16.75
492.36	16.83
492.561	17.15
492.762	17.58
492.963	17.76
493.164	18.01
493.364	18.48
493.565	18.69
493.766	19.05
493.967	19.38
494.167	19.13
494.368	19.57
494.569	19.65
494.769	19.92
494.97	19.57
495.171	19.73
495.371	19.73
495.572	19.28
495.773	19.41
495.973	19.13
496.174	19.01
496.375	18.91
496.575	18.93
496.776	18.84
496.976	18.56
497.177	18.59
497.377	18.69
497.578	18.96
497.778	19.3
497.979	19.67
498.179	19.95
498.38	19.9
498.58	20.19
498.78	20.31
498.981	20.66
499.181	20.84
499.382	20.59
499.582	20.71
499.782	20.85
499.983	21.05
500.183	20.53
500.383	20.58
500.584	20.87
500.784	21.06
500.984	21.08
501.184	20.77
501.385	21.01
501.585	21.42
501.785	21.66
501.985	21.46
502.185	21.45
502.386	22.16
502.586	21.79
502.786	21.74
502.986	21.78
503.186	21.61
503.386	21.82
503.586	21.72
503.786	21.71
503.987	21.46
504.187	21.53
504.387	21.74
504.587	21.51
504.787	21.78
504.987	22.06
505.187	22.2
505.387	22.16
505.587	22.45
505.786	22.67
505.986	23.32
506.186	23.44
506.386	23.14
506.586	23.03
506.786	22.71
506.986	22.89
507.186	22.67
507.386	22.71
507.585	22.5
507.785	22.31
507.985	22.21
508.185	21.68
508.384	21.93
508.584	22.15
508.784	22.15
508.984	22.51
509.183	22.35
509.383	22.8
509.583	22.97
509.782	23.31
509.982	23.45
510.182	23.24
510.381	22.94
510.581	22.6
510.781	22.56
510.98	22.46
511.18	22.85
511.379	22.49
511.579	22.13
511.778	22.06
511.978	22.34
512.177	22.04
512.377	22.31
512.576	22.94
512.776	23
512.975	23.06
513.175	23.11
513.374	22.86
513.573	23.83
513.773	24.01
513.972	23.81
514.172	23.79
514.371	23.81
514.57	24.09
514.77	24.48
514.969	24.04
515.168	24.44
515.367	24.48
515.567	24.49
515.766	24.18
515.965	24.2
516.164	24.41
516.364	23.9
516.563	24.31
516.762	24.22
516.961	23.88
517.16	23.69
517.359	23.25
517.559	23.21
517.758	23.15
517.957	22.77
518.156	22.73
518.355	22.45
518.554	23.04
518.753	22.94
518.952	22.75
519.151	22.92
519.35	23.67
519.549	24.39
519.748	24.65
519.947	24.62
520.146	25.29
520.345	25.5
520.544	26.06
520.743	25.82
520.942	25.88
521.141	26.07
521.339	25.74
521.538	25.35
521.737	24.97
521.936	24.55
522.135	24.8
522.333	24.53
522.532	24.79
522.731	24.18
522.93	24.08
523.129	24
523.327	23.99
523.526	23.78
523.725	24.07
523.923	23.74
524.122	24.31
524.321	24.03
524.519	24.04
524.718	23.55
524.917	23.52
525.115	23.26
525.314	23.14
525.512	22.94
525.711	22.9
525.909	22.51
526.108	22.52
526.306	21.93
526.505	21.86
526.703	21.62
526.902	21.64
527.1	21.65
527.299	21.49
527.497	21.44
527.696	21.2
527.894	21.15
528.092	21.19
528.291	21.02
528.489	21.11
528.688	21.09
528.886	21.28
529.084	21.31
529.283	21.39
529.481	21.65
529.679	21.94
529.877	22.38
530.076	22.46
530.274	22.79
530.472	23.01
530.67	23.17
530.869	23.13
531.067	23.14
531.265	23.29
531.463	23.36
531.661	23.06
531.859	22.86
532.057	22.57
532.255	22.83
532.454	22.85
532.652	23.07
532.85	23.33
533.048	23.46
533.246	23.18
533.444	23.25
533.642	23.42
533.84	23.93
534.038	24.1
534.236	24.35
534.434	24.66
534.632	24.65
534.83	24.54
535.027	24.4
535.225	24.63
535.423	25.04
535.621	25.2
535.819	24.72
536.017	24.77
536.215	24.91
536.412	25.19
536.61	25.15
536.808	25.64
537.006	25.99
537.203	26.16
537.401	26.04
537.599	26.26
537.797	26.24
537.994	26.98
538.192	26.92
538.39	26.41
538.587	26.21
538.785	25.88
538.983	25.8
539.18	26
539.378	25.81
539.575	25.76
539.773	25.42
539.97	25.11
540.168	24.6
540.366	24.44
540.563	24.52
540.761	24.29
540.958	24.16
541.155	23.78
541.353	23.48
541.55	23.43
541.748	23.58
541.945	23.41
542.143	23.49
542.34	23.81
542.537	23.97
542.735	24
542.932	24.34
543.129	24.66
543.327	24.77
543.524	25.26
543.721	25.04
543.919	25.22
544.116	25.74
544.313	25.51
544.51	25.11
544.708	25.01
544.905	25.31
545.102	25.14
545.299	25.12
545.496	25.37
545.693	25.08
545.891	25.68
546.088	25.49
546.285	25.87
546.482	26.75
546.679	27
546.876	27.39
547.073	27.27
547.27	27.98
547.467	28.18
547.664	28.23
547.861	28.51
548.058	29.12
548.255	29.3
548.452	29.16
548.649	29.28
548.846	30.17
549.043	29.92
549.24	30.45
549.437	29.63
549.633	29.69
549.83	30.24
550.027	30.15
550.224	29.59
550.421	29.67
550.618	30.05
550.814	29.34
551.011	28.8
551.208	29.51
551.405	29.84
551.601	30.4
551.798	30.21
551.995	29.64
552.191	29.55
552.388	29.73
552.585	30.07
552.781	30.18
552.978	30.61
553.175	30.87
553.371	30.66
553.568	30.19
553.764	30.26
553.961	30.6
554.157	31.22
554.354	31.45
554.55	31.91
554.747	32.22
554.943	32.53
555.14	32.96
555.336	33.21
555.533	32.96
555.729	33.5
555.926	34.06
556.122	34.85
556.318	34.97
556.515	35.03
556.711	35.02
556.907	35.31
557.104	35.41
557.3	35.2
557.496	35.48
557.693	36.05
557.889	36
558.085	35.89
558.281	35.59
558.478	35.49
558.674	34.77
558.87	34
559.066	33.19
559.262	33.16
559.459	33.4
559.655	33.17
559.851	32.7
560.047	32.72
560.243	32.21
560.439	31.89
560.635	31.48
560.831	32.22
561.027	32.8
561.223	32.85
561.419	32.59
561.615	32.48
561.811	32.13
562.007	32.79
562.203	32.75
562.399	33.24
562.595	33.71
562.791	34.7
562.987	34.84
563.183	34.32
563.379	34.45
563.575	34.7
563.771	34.97
563.966	35.28
564.162	34.55
564.358	34.15
564.554	34.22
564.75	33.67
564.945	33.37
565.141	33.08
565.337	32.96
565.533	32.87
565.728	33.01
565.924	32.81
566.12	32.93
566.315	33.44
566.511	33.5
566.707	33.27
566.902	33.17
567.098	33.49
567.293	33.5
567.489	33.85
567.684	34.11
567.88	33.75
568.076	33.69
568.271	33.65
568.467	33.57
568.662	33.77
568.858	34
569.053	34.13
569.248	33.42
569.444	33.49
569.639	33.13
569.835	33.36
570.03	33.23
570.225	33.43
570.421	33.69
570.616	33.54
570.812	33.88
571.007	33.45
571.202	32.57
571.397	32.88
571.593	33.12
571.788	33.53
571.983	32.97
572.178	32.93
572.374	32.77
572.569	32.25
572.764	32.37
572.959	32.13
573.154	32.25
573.35	33.22
573.545	33.04
573.74	33.03
573.935	32.65
574.13	32.92
574.325	32.71
574.52	32.33
574.715	32.72
574.91	32.96
575.105	32.85
575.3	33.25
575.495	33.36
575.69	33.65
575.885	33.52
576.08	34.14
576.275	34.18
576.47	34.43
576.665	34.95
576.86	34.81
577.055	34.38
577.25	34.53
577.444	34.92
577.639	35.27
577.834	35.09
578.029	35.96
578.224	35.98
578.418	36.54
578.613	36.42
578.808	36.18
579.003	36.98
579.197	37.74
579.392	38.28
579.587	37.85
579.781	38.45
579.976	38.34
580.171	38.41
580.365	39.3
580.56	39.03
580.755	39.64
580.949	40.71
581.144	40.59
581.338	39.9
581.533	39.86
581.727	39.84
581.922	39.39
582.116	39.54
582.311	39.15
582.505	38.29
582.7	39.02
582.894	38.78
583.089	38.39
583.283	38.65
583.478	39.41
583.672	39.83
583.866	39.95
584.061	40.05
584.255	40.83
584.449	41.84
584.644	42.37
584.838	42.17
585.032	41.96
585.226	41.92
585.421	41.85
585.615	41.33
585.809	40.45
586.003	40.62
586.198	40.36
586.392	40.19
586.586	39.46
586.78	39.27
586.974	38.81
587.168	39.24
587.363	39.3
587.557	39.56
587.751	39.69
587.945	39.69
588.139	39.39
588.333	39.69
588.527	39.57
588.721	38.83
588.915	38.6
589.109	39.05
589.303	39.07
589.497	38.98
589.691	38.57
589.885	38.41
590.079	38.78
590.273	38.95
590.466	38.65
590.66	39.1
590.854	40.3
591.048	40.88
591.242	40.79
591.436	41.71
591.629	41.81
591.823	41.94
592.017	42.22
592.211	41.42
592.404	41.53
592.598	41.6
592.792	40.78
592.986	40.02
593.179	39.37
593.373	38.86
593.567	38.18
593.76	37.91
593.954	37.84
594.147	38.16
594.341	38.69
594.535	38.18
594.728	38.01
594.922	37.98
595.115	37.81
595.309	37.96
595.502	38.36
595.696	37.61
595.889	37.53
596.083	37.29
596.276	37.34
596.47	37.49
596.663	38.24
596.856	38.23
597.05	38.52
597.243	38.72
597.437	38.46
597.63	38.48
597.823	39.35
598.017	39.78
598.21	40.31
598.403	40.5
598.596	41.04
598.79	40.98
598.983	41.37
599.176	41.72
599.369	42.48
599.563	43.36
599.756	44.02
599.949	43.57
600.142	43.56
600.335	42.74
600.528	42.53
600.722	42.06
600.915	42.4
601.108	42.7
601.301	42.01
601.494	41.86
601.687	40.85
601.88	40.36
602.073	40.28
602.266	40.16
602.459	40.45
602.652	39.41
602.845	38.69
603.038	37.78
603.231	37.15
603.424	37.34
603.617	36.93
603.809	37.11
604.002	36.76
604.195	36.97
604.388	36.96
604.581	36.95
604.774	37.95
604.966	38.46
605.159	39.13
605.352	39.62
605.545	39.37
605.737	39.71
605.93	40.61
606.123	40.58
606.316	41.13
606.508	41.83
606.701	41.69
606.894	41.04
607.086	41.03
607.279	41.05
607.471	41.44
607.664	41.81
607.857	41.61
608.049	41.24
608.242	41.5
608.434	40.51
608.627	40.04
608.819	39.87
609.012	39.85
609.204	40.32
609.397	40.02
609.589	39.31
609.782	40.47
609.974	40.59
610.166	40.53
610.359	40.86
610.551	42.04
610.743	42.46
610.936	44.13
611.128	44.68
611.32	44.88
611.513	44.33
611.705	45.06
611.897	44.36
612.09	45.03
612.282	45.85
612.474	46.38
612.666	46.02
612.858	46.23
613.051	44.68
613.243	45.51
613.435	45.69
613.627	46.55
613.819	47.64
614.011	48.19
614.203	47.47
614.395	47.03
614.588	46.7
614.78	47.5
614.972	47.38
615.164	47.98
615.356	47.85
615.548	47.83
615.74	48.04
615.932	47.17
616.124	46.07
616.315	47.31
616.507	47.16
616.699	47.06
616.891	46.18
617.083	46.48
617.275	46.46
617.467	46.48
617.659	46.27
617.85	46.86
618.042	46.99
618.234	48.38
618.426	47.59
618.618	48.29
618.809	47.67
619.001	47.54
619.193	47.14
619.384	47.82
619.576	47.47
619.768	47.36
619.959	47.21
620.151	46.77
620.343	46.08
620.534	46.28
620.726	45.14
620.917	46.61
621.109	46.75
621.301	46.61
621.492	46.38
621.684	45.96
621.875	46.62
622.067	45.68
622.258	45.87
622.45	45.79
622.641	46.85
622.832	47.2
623.024	46.57
623.215	47.13
623.407	47.33
623.598	46.52
623.789	45.9
623.981	45.05
624.172	45.96
624.363	46.05
624.555	46.63
624.746	45.44
624.937	45.38
625.129	45.03
625.32	44.88
625.511	45.06
625.702	44.83
625.893	45.11
626.085	44.83
626.276	44.3
626.467	43.95
626.658	43.06
626.849	43.08
627.04	42.58
627.231	42.75
627.422	42.9
627.614	42.68
627.805	43.58
627.996	44.13
628.187	44.65
628.378	45.28
628.569	46.01
628.76	46.33
628.951	45.38
629.142	46.21
629.332	46.09
629.523	46
629.714	46.38
629.905	46.42
630.096	46.76
630.287	47.52
630.478	48.1
630.669	47.45
630.859	47.81
631.05	48.63
631.241	48.41
631.432	48.92
631.623	49.38
631.813	48.92
632.004	49.01
632.195	48.42
632.385	47.96
632.576	47.64
632.767	48.22
632.957	48.27
633.148	48.71
633.339	48.54
633.529	48.18
633.72	47.33
633.91	46.66
634.101	47.21
634.292	47.65
634.482	47.67
634.673	46.92
634.863	47.69
635.054	48.06
635.244	48.46
635.435	48.9
635.625	49.85
635.815	50.15
636.006	51.79
636.196	50.68
636.387	50.37
636.577	49.4
636.767	50.5
636.958	49.32
637.148	49.48
637.338	49.4
637.529	50.27
637.719	49.36
637.909	50.26
638.099	49.85
638.29	49.97
638.48	51.07
638.67	51.49
638.86	51.68
639.05	51.38
639.241	51.11
639.431	51.36
639.621	50.68
639.811	50.58
640.001	50.63
640.191	49.81
640.381	50.46
640.571	50.18
640.761	51.03
640.951	50.42
641.141	51.16
641.331	50.72
641.521	50.84
641.711	50.8
641.901	51.89
642.091	52.12
642.281	52.65
642.471	52.71
642.661	54.11
642.851	52.9
643.041	53.99
643.231	54.55
643.42	55.4
643.61	54.96
643.8	54.53
643.99	53.5
644.18	53.61
644.369	54.56
644.559	53.96
644.749	52.28
644.939	54.45
645.128	53.31
645.318	53.46
645.508	52.53
645.697	52.68
645.887	53.96
646.076	54.72
646.266	54.77
646.456	53.63
646.645	54.03
646.835	54.46
647.024	54.26
647.214	54.45
647.403	53.85
647.593	54.34
647.782	54.61
647.972	54.11
648.161	53.06
648.351	52
648.54	52.37
648.73	51.5
648.919	50.74
649.108	49.82
649.298	50.17
649.487	50.38
649.677	50.27
649.866	49.85
650.055	49.68
650.244	50.73
650.434	50.95
650.623	50.87
650.812	51.54
651.002	52.1
651.191	53.64
651.38	53.23
651.569	53.18
651.758	52.83
651.947	53.25
652.137	53.96
652.326	54.23
652.515	53.79
652.704	52.98
652.893	53.53
653.082	53.65
653.271	52.17
653.46	51.26
653.649	51
653.838	51.44
654.027	50.11
654.216	49.55
654.405	49.17
654.594	49.56
654.783	49.35
654.972	48.89
655.161	49.03
655.35	49.65
655.539	51.15
655.728	51.12
655.916	50.56
656.105	51.44
656.294	51.94
656.483	51.17
656.672	50.63
656.86	51.06
657.049	51.77
657.238	51.01
657.427	49.57
657.615	48.35
657.804	47.48
657.993	46.96
658.181	46.96
658.37	46.32
658.559	46.04
658.747	46.28
658.936	47.19
659.125	47.03
659.313	47.46
659.502	47.97
659.69	47.98
659.879	48.88
660.067	48.98
660.256	48.7
660.444	49.33
660.633	50.61
660.821	51.29
661.01	50.65
661.198	51.66
661.387	52.07
661.575	53.58
661.763	54.82
661.952	54.73
662.14	56.57
662.328	57.25
662.517	56.38
662.705	56.52
662.893	55.55
663.082	56.14
663.27	55.17
663.458	54.31
663.646	53.39
663.834	53.59
664.023	54.78
664.211	53.79
664.399	54.45
664.587	55.33
664.775	54.92
664.963	56.68
665.152	56.7
665.34	56.63
665.528	57.19
665.716	58.03
665.904	57.54
666.092	56.9
666.28	57.67
666.468	56.61
666.656	57.09
666.844	57.31
667.032	56.14
667.22	56.04
667.408	56.25
667.596	56.4
667.784	55.03
667.971	55.35
668.159	55.94
668.347	56.28
668.535	57.43
668.723	58.01
668.911	58.29
669.098	58.81
669.286	59.79
669.474	60.65
669.662	60.57
669.849	61.41
670.037	59.45
670.225	58.99
670.413	58.25
670.6	58.08
670.788	56.58
670.976	55.97
671.163	56.42
671.351	55.71
671.538	54.68
671.726	54.56
671.913	55.35
672.101	57.2
672.289	57.21
672.476	57.32
672.664	56.49
672.851	56.64
673.039	57.37
673.226	57.39
673.413	57.33
673.601	57.31
673.788	58.02
673.976	58.41
674.163	58.35
674.35	58.66
674.538	58.44
674.725	59.23
674.912	60.5
675.1	60.5
675.287	60.84
675.474	61.06
675.662	60.26
675.849	60.28
676.036	58.66
676.223	58.4
676.411	58.55
676.598	59.45
676.785	59.09
676.972	58.66
677.159	57.26
677.346	55.61
677.533	54.82
677.721	54.41
677.908	53.65
678.095	53.81
678.282	54.83
678.469	54.42
678.656	54.11
678.843	54.82
679.03	55.08
679.217	55.59
679.404	56.57
679.591	57.4
679.778	58.29
679.964	57.69
680.151	57.6
680.338	57.07
680.525	57.38
680.712	57.39
680.899	57.1
681.086	55.82
681.272	56.91
681.459	57.59
681.646	56.69
681.833	56.34
682.02	56.99
682.206	57.18
682.393	56.86
682.58	55.58
682.766	55.08
682.953	54.5
683.14	55.59
683.326	55.11
683.513	54.62
683.7	55.16
683.886	55.37
684.073	55.74
684.259	56.01
684.446	56.42
684.632	58.07
684.819	59.05
685.005	59.84
685.192	60.01
685.378	60.55
685.565	59.64
685.751	59.21
685.938	58.91
686.124	58.22
686.31	58.07
686.497	57.95
686.683	57.18
686.87	55.09
687.056	53.94
687.242	53.32
687.429	51.18
687.615	51.09
687.801	50.47
687.987	51.05
688.174	51.09
688.36	51.73
688.546	53.01
688.732	52.93
688.918	55.51
689.105	56.99
689.291	56.04
689.477	55.81
689.663	56.96
689.849	57.97
690.035	59.49
690.221	61.23
690.407	60.08
690.593	59.29
690.779	60.04
690.965	58.86
691.151	57.58
691.337	57.93
691.523	59.03
691.709	59.08
691.895	59.74
692.081	59.15
692.267	58.36
692.453	59.02
692.639	57.67
692.825	56.77
693.011	57.13
693.196	57.67
693.382	57.99
693.568	59.49
693.754	58.11
693.94	58.2
694.125	57.98
694.311	57.74
694.497	57.22
694.682	58.35
694.868	59.08
695.054	59.05
695.239	58.37
695.425	59.51
695.611	58.13
695.796	59.74
695.982	58.3
696.168	57.65
696.353	56.94
696.539	56.7
696.724	55.64
696.91	54.02
697.095	53.19
697.281	52.33
697.466	50.31
697.652	49.9
697.837	49.04
698.023	48.63
698.208	48.44
698.393	47.68
698.579	48.2
698.764	49.25
698.949	49.84
699.135	50.01
699.32	50.3
699.505	50.99
699.691	51.43
699.876	51.62
700.061	52.58
700.246	53.57
700.432	54.8
700.617	54.23
700.802	53.22
700.987	55.19
701.172	54.79
701.358	55.56
701.543	57.33
701.728	59.95
701.913	60.84
702.098	62.55
702.283	62.73
702.468	63.03
702.653	67.59
702.838	69.44
703.023	68.72
703.208	70.43
703.393	72.13
703.578	73.58
703.763	73.84
703.948	74.47
704.133	73.34
704.318	73.69
704.503	74.1
704.688	70.78
704.873	69.99
705.057	69.61
705.242	68.2
705.427	68.06
705.612	66.81
705.797	64.59
705.981	64.99
706.166	64.3
706.351	62.66
706.536	62.82
706.72	62.61
706.905	63.13
707.09	62.61
707.274	64.48
707.459	63.34
707.644	63.46
707.828	65.48
708.013	63.54
708.197	63.68
708.382	65.87
708.567	67.13
708.751	67.4
708.936	67.43
709.12	68.68
709.305	67.31
709.489	67.58
709.673	67.49
709.858	67.19
710.042	68.9
710.227	70.09
710.411	68.25
710.596	67.01
710.78	66.78
710.964	67.83
711.149	69.11
711.333	70.43
711.517	71.07
711.702	70.94
711.886	70.58
712.07	69.87
712.254	68.96
712.438	70.48
712.623	68.83
712.807	69.31
712.991	68.88
713.175	67.45
713.359	65.88
713.544	66.98
713.728	66.03
713.912	63.71
714.096	62.75
714.28	62.9
714.464	61.14
714.648	62.53
714.832	60.19
715.016	57.93
715.2	55.91
715.384	55.82
715.568	53.17
715.752	54.06
715.936	54.72
716.12	54.31
716.304	53.49
716.488	52.51
716.671	51.65
716.855	52.3
717.039	52.2
717.223	53.37
717.407	53.37
717.59	54.09
717.774	52.83
717.958	54.56
718.142	52.65
718.325	54.39
718.509	55.62
718.693	55.81
718.877	57.26
719.06	58.95
719.244	58.91
719.428	59.15
719.611	60.19
719.795	62.46
719.978	64.31
720.162	66.95
720.345	67.24
720.529	68.69
720.713	68.46
720.896	69.01
721.08	68.26
721.263	67.64
721.446	71.13
721.63	71.31
721.813	71.14
721.997	66.86
722.18	67.21
722.364	66.86
722.547	66.58
722.73	66.86
722.914	66.93
723.097	66.52
723.28	67.44
723.464	63.73
723.647	65.62
723.83	61.13
724.013	62.54
724.197	60.92
724.38	62.51
724.563	61.09
724.746	63
724.929	62.62
725.112	66.59
725.296	67.97
725.479	68.62
725.662	65.46
725.845	67.5
726.028	65.58
726.211	67.97
726.394	65.25
726.577	65.67
726.76	65.27
726.943	65.04
727.126	61.33
727.309	61.03
727.492	61.68
727.675	62.57
727.858	62.54
728.041	64.1
728.224	63.71
728.407	63.49
728.589	64.88
728.772	64.68
728.955	65.29
729.138	65.02
729.321	65.7
729.503	65.58
729.686	64.83
729.869	66.53
730.052	66.67
730.234	67.5
730.417	67.7
730.6	67.06
730.782	66.81
730.965	65.85
731.148	66.63
731.33	65.56
731.513	64.17
731.695	64.7
731.878	63.78
732.061	64.95
732.243	63.63
732.426	64.45
732.608	65.12
732.791	66.15
732.973	66.78
733.156	66.56
733.338	67.03
733.52	69.5
733.703	69.87
733.885	71.22
734.068	70.32
734.25	71.69
734.432	74.67
734.615	74.59
734.797	74.67
734.979	73.73
735.162	76.39
735.344	77.22
735.526	78.36
735.708	82.94
735.891	85.18
736.073	86.22
736.255	87.6
736.437	87.29
736.619	85.21
736.802	85.76
736.984	88.82
737.166	86.08
737.348	89.68
737.53	89.73
737.712	88.58
737.894	87.51
738.076	87.56
738.258	84.14
738.44	84.26
738.622	87.64
738.804	88.59
738.986	88.07
739.168	89.66
739.35	88.37
739.532	87.22
739.714	85.84
739.896	84.87
740.078	86.76
740.259	90
740.441	88.93
740.623	87.44
740.805	87.07
740.987	90.38
741.168	90.44
741.35	90.09
741.532	91.24
741.714	93.32
741.895	94.47
742.077	94.34
742.259	92.89
742.44	94.02
742.622	95.03
742.804	95.92
742.985	94.17
743.167	93.37
743.348	93.31
743.53	93.6
743.711	91.25
743.893	91.08
744.075	90.54
744.256	89.99
744.438	88.75
744.619	88.38
744.8	84.17
744.982	81.7
745.163	82.17
745.345	84.43
745.526	84.54
745.707	85.45
745.889	87.03
746.07	87.24
746.252	91.36
746.433	89.26
746.614	91.52
746.795	93.69
746.977	96.74
747.158	97.62
747.339	97.83
747.52	99.02
747.702	99.73
747.883	96.81
748.064	95.74
748.245	92.05
748.426	95.79
748.607	95.64
748.788	97.37
748.97	97.13
749.151	98.57
749.332	93.94
749.513	93.52
749.694	94.32
749.875	96.84
750.056	96.38
750.237	94.94
750.418	97.72
750.599	97.65
750.78	98.07
750.96	96.85
751.141	98.08
751.322	97.26
751.503	96.62
751.684	95.83
751.865	95.32
752.046	95.74
752.226	96.29
752.407	95.93
752.588	94.54
752.769	95.63
752.949	94.87
753.13	90.37
753.311	89.1
753.492	87.26
753.672	86.04
753.853	87.14
754.034	90.8
754.214	90.64
754.395	88.42
754.575	88.54
754.756	89.38
754.937	90.93
755.117	93.41
755.298	94.48
755.478	95.8
755.659	98.65
755.839	95.24
756.02	94.78
756.2	98.73
756.381	98.98
756.561	100.17
756.741	99.18
756.922	97.15
757.102	97.17
757.283	97.29
757.463	97.55
757.643	91.91
757.823	87.18
758.004	81.61
758.184	77.49
758.364	73.45
758.545	69.6
758.725	67.46
758.905	65.06
759.085	64.06
759.265	62
759.446	57.99
759.626	56.81
759.806	58.17
759.986	58.69
760.166	56.23
760.346	55.31
760.526	55.65
760.706	55.38
760.886	53.02
761.066	52.29
761.246	50.25
761.426	51.36
761.606	50.39
761.786	48.58
761.966	46.86
762.146	48.19
762.326	49.39
762.506	48.07
762.686	46.37
762.866	49.41
763.046	47.39
763.225	50.18
763.405	50.24
763.585	50.57
763.765	53.11
763.945	55.26
764.124	55.89
764.304	54.97
764.484	56.46
764.664	57.85
764.843	57.51
765.023	61.27
765.203	59.79
765.382	63.47
765.562	66.63
765.741	67.18
765.921	66.36
766.101	68.99
766.28	71.78
766.46	72.63
766.639	74.8
766.819	75.5
766.998	77.3
767.178	80.74
767.357	78.99
767.537	82.44
767.716	86.76
767.896	88.65
768.075	89.77
768.254	90.33
768.434	93.45
768.613	95.34
768.792	99.07
768.972	98.9
769.151	103.08
769.33	109.38
769.51	108.23
769.689	111.56
769.868	114.79
770.047	113.27
770.226	113.44
770.406	110.8
770.585	113.19
770.764	111.83
770.943	111.15
771.122	108.7
771.301	108.69
771.48	109.24
771.66	103.55
771.839	102.69
772.018	106.11
772.197	108.98
772.376	114.17
772.555	107.92
772.734	108.33
772.913	104.94
773.092	107.32
773.271	107.77
773.449	105.75
773.628	110.87
773.807	110.64
773.986	110.62
774.165	111.8
774.344	110.39
774.523	114.81
774.701	113.01
774.88	119.03
775.059	114.83
775.238	108.7
775.417	109.98
775.595	106.69
775.774	106.82
775.953	105.52
776.131	102.32
776.31	97.91
776.489	98.17
776.667	101.68
776.846	99.97
777.025	102.74
777.203	104.52
777.382	106.43
777.56	108.06
777.739	110.94
777.917	112.05
778.096	117.22
778.274	123.14
778.453	121.37
778.631	114.44
778.81	118.02
778.988	116.57
779.166	119.18
779.345	121.6
779.523	122.52
779.702	114.8
779.88	113.86
780.058	114.78
780.237	112.19
780.415	114.18
780.593	114.04
780.771	110.53
780.95	117.6
781.128	121
781.306	120.11
781.484	118.12
781.662	121.46
781.841	120.42
782.019	122.7
782.197	122.71
782.375	121.48
782.553	130.06
782.731	132.06
782.909	128.53
783.087	117.72
783.265	118.26
783.443	119.61
783.621	115.35
783.799	115.26
783.977	113.02
784.155	119.61
784.333	117.66
784.511	117.94
784.689	119.71
784.867	107.48
785.045	110.54
785.223	106.07
785.4	108.02
785.578	110.66
785.756	110.99
785.934	111.41
786.112	106.74
786.289	109.09
786.467	106.89
786.645	99.47
786.823	104.26
787	102.42
787.178	102.33
787.356	94.57
787.533	94.62
787.711	91.39
787.889	86.22
788.066	83.14
788.244	79.28
788.421	78.61
788.599	80.4
788.776	82.89
788.954	85.49
789.131	89.72
789.309	96
789.486	100.96
789.664	106.08
789.841	108.8
790.019	111.98
790.196	114.18
790.373	109.84
790.551	114.06
790.728	110.24
790.906	115.01
791.083	105.24
791.26	106.72
791.437	108.08
791.615	107
791.792	112.15
791.969	107.44
792.146	109.15
792.324	115.17
792.501	124.41
792.678	126.02
792.855	118.6
793.032	123.56
793.209	122.7
793.387	122.44
793.564	118.89
793.741	112.59
793.918	116.86
794.095	115.52
794.272	109.79
794.449	102.35
794.626	102.07
794.803	103.7
794.98	105.95
795.157	102.98
795.334	98.66
795.511	101.42
795.688	104.18
795.864	107.69
796.041	106.53
796.218	113.2
796.395	108.35
796.572	107.21
796.749	112.8
796.925	108.62
797.102	107.55
797.279	112.99
797.456	111.57
797.632	108.21
797.809	106.15
797.986	110.03
798.162	113.01
798.339	121.08
798.516	132.75
798.692	127.97
798.869	129.65
799.046	135.13
799.222	126.6
799.399	128.81
799.575	134.48
799.752	140.52
799.928	134.48
800.105	132.88
800.281	128.69
800.458	117.3
800.634	115.93
800.811	120.79
800.987	116.32
801.163	115.3
801.34	111.99
801.516	115.4
801.692	107.49
801.869	107.55
802.045	109.24
802.221	120.39
802.398	130.79
802.574	131.61
802.75	138.25
802.926	142.92
803.103	147.43
803.279	149.2
803.455	150.81
803.631	155.49
803.807	169.68
803.983	167.11
804.16	142.62
804.336	145.18
804.512	147.68
804.688	149.61
804.864	146
805.04	143.65
805.216	147.46
805.392	142.01
805.568	136.9
805.744	136.56
805.92	126.51
806.096	139.95
806.272	140.22
806.448	157.59
806.623	130.6
806.799	129.55
806.975	134.6
807.151	136.99
807.327	136
807.503	137.64
807.678	142
807.854	151.11
808.03	143.12
808.206	134.51
808.381	116.41
808.557	118.52
808.733	120.07
808.908	116.79
809.084	110.98
809.26	100.72
809.435	100.5
809.611	100.91
809.787	102.2
809.962	96.32
810.138	93.6
810.313	98.07
810.489	97.17
810.664	97.79
810.84	94.06
811.015	99.8
811.191	103.26
811.366	103.72
811.542	101.82
811.717	103.38
811.892	113.33
812.068	121.32
812.243	121.56
812.419	128.9
812.594	127.25
812.769	127.89
812.944	123.38
813.12	120.94
813.295	111.11
813.47	107.68
813.645	99.5
813.821	88.86
813.996	86.17
814.171	82.82
814.346	76
814.521	78.56
814.697	81.67
814.872	81.85
815.047	85.5
815.222	87.79
815.397	85.94
815.572	90.01
815.747	88.08
815.922	85.57
816.097	78.87
816.272	76.14
816.447	78.33
816.622	81.97
816.797	77.89
816.972	79.98
817.147	78.49
817.322	78.81
817.496	73.77
817.671	80.18
817.846	76.92
818.021	81.47
818.196	88.55
818.371	82.77
818.545	81.95
818.72	79.87
818.895	75.23
819.069	76.53
819.244	77.43
819.419	75.13
819.594	71.92
819.768	69.53
819.943	68.68
820.117	61.65
820.292	59.61
820.467	56.03
820.641	52.81
820.816	48.06
820.99	42.67
821.165	40.12
821.339	38.92
821.514	37.28
821.688	35.71
821.863	33.02
822.037	31.38
822.212	30.01
822.386	28.59
822.56	28.43
822.735	29.14
822.909	30.6
823.084	29.22
823.258	29.42
823.432	30.11
823.606	30.08
823.781	31.28
823.955	31.23
824.129	33.51
824.303	36.1
824.478	35.76
824.652	36.88
824.826	39.56
825	44.18
825.174	45.22
825.348	44.43
825.523	44.04
825.697	46.91
825.871	49.92
826.045	46.99
826.219	45.66
826.393	45.9
826.567	45.39
826.741	42.85
826.915	40.24
827.089	41.97
827.263	44.59
827.437	47.03
827.611	45.69
827.784	46.94
827.958	48.45
828.132	48.65
828.306	51.67
828.48	56.02
828.654	57.93
828.827	60.15
829.001	63.87
829.175	62.21
829.349	67.74
829.522	71.49
829.696	74.99
829.87	78.42
830.044	79.95
830.217	78.18
830.391	75.38
830.565	82.11
830.738	80.94
830.912	78.15
831.085	79.36
831.259	78.2
831.432	82.26
831.606	80.53
831.779	81.76
831.953	80.44
832.126	76.84
832.3	75.93
832.473	76.8
832.647	79.3
832.82	71.86
832.994	68.3
833.167	61.08
833.34	58.19
833.514	54.4
833.687	52.32
833.86	53.97
834.034	54.19
834.207	53.3
834.38	53.39
834.553	53.54
834.727	58.61
834.9	65.62
835.073	69.51
835.246	69.86
835.419	72.39
835.593	77.73
835.766	72.85
835.939	81.09
836.112	86.93
836.285	88.33
836.458	88.49
836.631	94
836.804	85.66
836.977	87.84
837.15	91.27
837.323	94.58
837.496	91.7
837.669	101.15
837.842	102.06
838.015	98.2
838.188	94.66
838.361	102.03
838.533	101.95
838.706	103.9
838.879	105.53
839.052	109.66
839.225	114.23
839.398	116.69
839.57	117.5
839.743	116.81
839.916	119.55
840.088	128.08
840.261	112.86
840.434	107.83
840.607	117.99
840.779	122.17
840.952	124.17
841.124	129.65
841.297	122.27
841.47	128.43
841.642	144.34
841.815	136.49
841.987	125.93
842.16	143.02
842.332	144.21
842.505	135.83
842.677	130.71
842.85	130.69
843.022	123.85
843.194	126.91
843.367	135.32
843.539	126.28
843.712	138.01
843.884	139.97
844.056	142.22
844.229	148.96
844.401	153.84
844.573	161.94
844.745	162.24
844.918	167.68
845.09	183.92
845.262	169.21
845.434	157.33
845.606	151.62
845.779	169.83
845.951	184.15
846.123	182.02
846.295	186.46
846.467	195.21
846.639	182.07
846.811	211.75
846.983	230.46
847.155	229.34
847.327	231.17
847.499	230.13
847.671	200.92
847.843	203.46
848.015	185.82
848.187	187.07
848.359	186.86
848.531	190.94
848.703	194.05
848.875	171.73
849.047	205.93
849.218	209.47
849.39	328.18
849.562	448.05
849.734	510.73
849.905	618.03
850.077	556.68
850.249	290.43
850.421	274.66
850.592	190.68
850.764	176.66
850.936	169.7
851.107	183.62
851.279	135.24
851.451	129.24
851.622	134.94
851.794	152.37
851.965	163.89
852.137	177.17
852.308	200.27
852.48	251.9
852.651	277.91
852.823	279.57
852.994	236.95
853.166	282.75
853.337	223.66
853.509	204.53
853.68	197.5
853.851	187.29
854.023	235.1
854.194	261.26
854.365	244.32
854.537	261.09
854.708	210.48
854.879	234.51
855.05	278.45
855.222	409.23
855.393	333.73
855.564	302.1
855.735	340.14
855.906	279.39
856.078	250.12
856.249	253.87
856.42	272.4
856.591	332.06
856.762	412.97
856.933	381.8
857.104	482.52
857.275	964.52
857.446	1757.14
857.617	640.91
857.788	782.39
857.959	872.56
858.13	1028.36
858.301	485.25
858.472	404.37
858.643	257.44
858.814	256.45
858.985	192.07
859.155	176.42
859.326	159.06
859.497	160.89
859.668	140.76
859.839	124.21
860.009	122.54
860.18	121.95
860.351	123.89
860.522	143.59
860.692	128.01
860.863	136.99
861.034	147.04
861.204	163.29
861.375	165.6
861.546	217.78
861.716	310.43
861.887	353.21
862.057	432.24
862.228	484.89
862.398	436.49
862.569	300.81
862.739	258.91
862.91	245.04
863.08	191.02
863.251	193.84
863.421	166.16
863.592	149.68
863.762	145.27
863.932	124.21
864.103	137.48
864.273	167.73
864.443	194.71
864.614	213.46
864.784	214.45
864.954	270.58
865.125	276.76
865.295	349.54
865.465	392.91
865.635	371.04
865.805	451.26
865.976	304.19
866.146	207.52
866.316	195.21
866.486	182.24
866.656	171.49
866.826	157.04
866.996	168.55
867.166	152.84
867.336	136.91
867.506	187.43
867.676	182.3
867.846	178.24
868.016	181.84
868.186	183.33
868.356	188.9
868.526	202.19
868.696	219.17
868.866	251.23
869.036	215.73
869.206	219.84
869.376	165.92
869.545	161.34
869.715	151.89
869.885	162.17
870.055	174.9
870.224	189.55
870.394	195.06
870.564	200.88
870.734	172.25
870.903	163.75
871.073	161.18
871.243	175.49
871.412	198.58
871.582	233.82
871.751	219.75
871.921	205.36
872.091	192
872.26	186.42
872.43	199.78
872.599	219.47
872.769	276.17
872.938	274.21
873.108	223.6
873.277	199.49
873.446	180.97
873.616	198.99
873.785	174.35
873.955	172.23
874.124	187.48
874.293	144.11
874.463	132.5
874.632	131.04
874.801	148.02
874.971	179.36
875.14	151.79
875.309	203.5
875.478	190.91
875.647	227.34
875.817	438.08
875.986	584.8
876.155	509.4
876.324	283.3
876.493	285.11
876.662	254.39
876.831	194.16
877	195.98
877.17	162.21
877.339	147.11
877.508	142.35
877.677	120.4
877.846	105.31
878.015	110.04
878.184	135.16
878.352	106.47
878.521	90.25
878.69	106.24
878.859	111.35
879.028	122.18
879.197	132.9
879.366	126.49
879.534	106.71
879.703	83.84
879.872	81.45
880.041	73.96
880.21	77.39
880.378	71.78
880.547	70.85
880.716	60.94
880.884	47.87
881.053	45.66
881.222	43.96
881.39	45.93
881.559	51.51
881.727	51.71
881.896	52.35
882.065	52.1
882.233	56.01
882.402	52.35
882.57	50.9
882.739	54.04
882.907	54.81
883.076	55.69
883.244	54.25
883.412	54.2
883.581	52.43
883.749	52.85
883.918	52.58
884.086	45.87
884.254	40.56
884.423	49.09
884.591	49.82
884.759	48.29
884.927	51.63
885.096	57.17
885.264	51.89
885.432	53.17
885.6	60.43
885.769	69.63
885.937	84.18
886.105	109.82
886.273	115.11
886.441	122.18
886.609	134.15
886.777	100.88
886.945	131.15
887.113	157.05
887.281	199.68
887.449	211.2
887.617	202.5
887.785	208.98
887.953	157.72
888.121	173.43
888.289	163.18
888.457	175
888.625	285.96
888.793	283.43
888.961	362.17
889.129	302.64
889.296	372.08
889.464	279.71
889.632	242.34
889.8	443.05
889.967	367.42
890.135	393.6
