Data from JASIL_3309_Reflection_2.txt Node
Date: Tue Nov 17 19:55:52 EST 2015
User: Geneva
Spectrometer: USB4E03002
Autoset integration time: false
Trigger mode: 4
Integration Time (sec): 1.000000E-1
Scans to average: 10
Electric dark correction enabled: false
Nonlinearity correction enabled: false
Boxcar width: 5
Stray light correction enabled: false
XAxis mode: Wavelengths
Stop averaging: false
Number of Pixels in Spectrum: 3648
>>>>>Begin Spectral Data<<<<<
177.575	-475.25
177.794	-644.57
178.014	-729.21
178.233	-1386.79
178.452	-1243.33
178.672	-707.09
178.891	-1787.93
179.11	10720
179.33	2350
179.549	2109.8
179.768	-9527.27
179.987	821.97
180.207	463.93
180.426	736.99
180.645	872
180.864	5858.82
181.084	672.29
181.303	522.77
181.522	683.33
181.741	678.09
181.96	1113.13
182.179	6141.18
182.398	-1093.51
182.618	-366.67
182.837	-370.48
183.056	-384.7
183.275	-452.78
183.494	-139.59
183.713	-122.63
183.932	-115.92
184.151	-123.33
184.37	-133.19
184.589	-168.42
184.808	-172.52
185.027	-170.03
185.246	-227.63
185.465	-209.17
185.684	-279.74
185.903	-477.35
186.122	-628.33
186.341	-1300
186.56	-807.14
186.779	-4670.37
186.998	-608.47
187.216	-632.22
187.435	-689.7
187.654	-690.3
187.873	-522.77
188.092	-741.03
188.311	-901.43
188.53	-643.48
188.748	-277.63
188.967	-351.85
189.186	-240.64
189.405	-447.71
189.623	-365
189.842	-316.48
190.061	-285.26
190.28	-182
190.498	-229.67
190.717	-154.9
190.936	-158.33
191.154	-414.84
191.373	-870.11
191.592	1665.12
191.81	703.88
192.029	808.42
192.248	465.69
192.466	524.86
192.685	226.95
192.904	431.68
193.122	368.5
193.341	475.21
193.559	692.66
193.778	732.04
193.996	689.57
194.215	2007.25
194.433	931.43
194.652	773.43
194.87	645
195.089	844.62
195.307	1892.98
195.526	-1029.59
195.744	-670.5
195.963	-773.33
196.181	-926.45
196.399	-1318.39
196.618	1493.42
196.836	863.12
197.055	856.08
197.273	1026.87
197.491	1105.41
197.71	518.65
197.928	428.48
198.146	427.4
198.365	2216.67
198.583	1630.16
198.801	-789.52
199.019	-271.8
199.238	-213.85
199.456	-231.27
199.674	-266.86
199.892	-228.29
200.111	-221.83
200.329	-256.72
200.547	-305.45
200.765	2352.94
200.983	-848.72
201.202	1406.58
201.42	440
201.638	343.92
201.856	538.03
202.074	800
202.292	486.43
202.51	429.13
202.728	498.92
202.946	4792.86
203.165	2319.23
203.383	505.05
203.601	641.62
203.819	1090.91
204.037	-2727.27
204.255	-3577.78
204.473	-669.23
204.691	-584.71
204.909	-449.56
205.127	-2452.08
205.345	757.58
205.562	-948.06
205.78	-228.13
205.998	-204.5
206.216	-160.55
206.434	-269.37
206.652	-285.32
206.87	-549.7
207.088	-423.81
207.306	-527.75
207.523	-400
207.741	-270.55
207.959	-395.5
208.177	-512.44
208.395	-515.69
208.612	-597.69
208.83	-373.07
209.048	-375.51
209.266	-341.71
209.483	-210.81
209.701	-215.68
209.919	-188.54
210.136	-205.54
210.354	-231.84
210.572	-276.71
210.79	-350.33
211.007	-746.48
211.225	-7300
211.442	1784.75
211.66	4500
211.878	450.83
212.095	689.53
212.313	1162.71
212.53	664.45
212.748	523.51
212.966	382.32
213.183	463.81
213.401	-5383.33
213.618	-358.73
213.836	-326.96
214.053	-509.17
214.271	-319.23
214.488	-466.52
214.705	-321.34
214.923	-189.02
215.14	-155.09
215.358	-112.54
215.575	-87.54
215.793	-137.74
216.01	-402.84
216.227	-764.66
216.445	-587.5
216.662	-315.09
216.879	-375.65
217.097	-259.01
217.314	-438.52
217.531	14137.5
217.749	1312.87
217.966	706.59
218.183	453.63
218.4	682.58
218.618	675.66
218.835	420.88
219.052	417.65
219.269	361.95
219.487	200.58
219.704	185.89
219.921	213.15
220.138	234.71
220.355	238.09
220.572	224.39
220.79	210.92
221.007	298.1
221.224	430.42
221.441	382.95
221.658	394.02
221.875	-1942.86
222.092	-913.64
222.309	2436.36
222.526	510.91
222.743	429.47
222.96	592.09
223.177	1825.58
223.394	1061.84
223.611	635.66
223.828	432
224.045	354.4
224.262	262.84
224.479	251
224.696	458.65
224.913	773.55
225.13	728.3
225.347	470.34
225.564	248.09
225.781	124.1
225.997	81.38
226.214	91.54
226.431	67.89
226.648	60
226.865	47.19
227.082	45.58
227.298	52.29
227.515	49.02
227.732	57.04
227.949	53.65
228.165	55.94
228.382	57.51
228.599	50.46
228.816	57.32
229.032	60.09
229.249	70.97
229.466	69.02
229.682	65.4
229.899	72.96
230.116	74.11
230.332	87.16
230.549	86.63
230.765	82.77
230.982	70.93
231.199	72.1
231.415	76.63
231.632	61.08
231.848	63.35
232.065	67.96
232.281	61.27
232.498	54.06
232.714	46.25
232.931	53.07
233.147	59.68
233.364	75.55
233.58	78.47
233.797	89.09
234.013	117.99
234.23	129.47
234.446	129.86
234.662	155.9
234.879	245.41
235.095	205.28
235.312	169.97
235.528	174.63
235.744	216.99
235.961	277.53
236.177	207.23
236.393	250.57
236.61	211.2
236.826	188.21
237.042	149.8
237.258	160.92
237.475	154.52
237.691	228.08
237.907	162.07
238.123	137.17
238.339	124.78
238.556	134.83
238.772	105.68
238.988	94.82
239.204	84.23
239.42	81.74
239.636	67.48
239.853	68.11
240.069	57.82
240.285	56.13
240.501	46.6
240.717	44.46
240.933	39.71
241.149	38.76
241.365	34.25
241.581	34.69
241.797	38.23
242.013	37.24
242.229	36.63
242.445	35.25
242.661	35.12
242.877	42.29
243.093	47.51
243.309	47.83
243.525	45.84
243.741	53.11
243.957	52.1
244.173	42.2
244.388	43.92
244.604	41.51
244.82	40.96
245.036	38.1
245.252	32.92
245.468	29.69
245.683	28.12
245.899	27.42
246.115	26.4
246.331	25.49
246.547	26.29
246.762	23.31
246.978	22.21
247.194	20.63
247.409	19.16
247.625	18.31
247.841	18.83
248.057	23.76
248.272	25.24
248.488	23.76
248.703	24.53
248.919	27.42
249.135	28.96
249.35	27.28
249.566	30.33
249.782	35.56
249.997	37.64
250.213	36.88
250.428	30.76
250.644	31.38
250.859	30.42
251.075	28.65
251.29	26.86
251.506	27.79
251.721	33.31
251.937	33.64
252.152	30.62
252.368	31.14
252.583	30.07
252.798	34.52
253.014	34.29
253.229	38.83
253.445	44.76
253.66	46
253.875	50.45
254.091	48.14
254.306	45.67
254.521	47.24
254.737	44.61
254.952	50.25
255.167	42.19
255.383	42.75
255.598	40.95
255.813	33.25
256.028	34.56
256.244	31.49
256.459	27.99
256.674	30.85
256.889	33.17
257.104	30.15
257.32	25.07
257.535	22.09
257.75	20.25
257.965	17.87
258.18	16.74
258.395	15.57
258.61	14.84
258.826	13.82
259.041	12.74
259.256	11.61
259.471	10.99
259.686	12.2
259.901	12.86
260.116	13.25
260.331	14.03
260.546	16.62
260.761	17.42
260.976	19.99
261.191	21.67
261.406	23.97
261.621	22.12
261.836	27.52
262.05	26.47
262.265	32.15
262.48	30.95
262.695	32.25
262.91	29.37
263.125	27.38
263.34	22.23
263.555	21.96
263.769	21.94
263.984	22.67
264.199	22.47
264.414	22.82
264.629	18.12
264.843	20.42
265.058	15.72
265.273	14.02
265.488	15.03
265.702	18.95
265.917	21.27
266.132	20.7
266.346	22.7
266.561	22.49
266.776	22.91
266.99	21.74
267.205	20.91
267.42	21.82
267.634	20.44
267.849	20.44
268.063	17.01
268.278	15.71
268.492	14.79
268.707	10.47
268.922	10.39
269.136	11.33
269.351	11.56
269.565	14.19
269.78	15.64
269.994	20.09
270.209	19.81
270.423	19.75
270.637	19.64
270.852	20.07
271.066	22.61
271.281	22.49
271.495	21.78
271.709	23.2
271.924	21.79
272.138	21.53
272.353	19.29
272.567	20.37
272.781	20.2
272.996	19.19
273.21	19.02
273.424	19.79
273.638	20.05
273.853	20.76
274.067	19.47
274.281	18.74
274.495	20.55
274.71	23.51
274.924	23.52
275.138	23.93
275.352	23.99
275.566	23.56
275.781	19.27
275.995	17.11
276.209	15.41
276.423	15.85
276.637	16.89
276.851	15.54
277.065	13.8
277.279	11.29
277.493	11.17
277.707	9.29
277.921	10.58
278.135	15.73
278.349	16.26
278.563	18.37
278.777	16.48
278.991	16.04
279.205	17.65
279.419	15.96
279.633	17.17
279.847	17.6
280.061	18.47
280.275	16.59
280.489	13.6
280.703	13.36
280.917	11.61
281.131	12.35
281.344	11.12
281.558	9.62
281.772	11.16
281.986	12.82
282.2	12.23
282.414	12.53
282.627	13.54
282.841	15.55
283.055	14.25
283.269	13.26
283.482	13.3
283.696	14.05
283.91	14.8
284.123	13.56
284.337	12.88
284.551	13.75
284.764	13.3
284.978	11.8
285.192	9.99
285.405	10.84
285.619	13.06
285.833	13.46
286.046	14.6
286.26	14.34
286.473	15.38
286.687	16.13
286.9	16.34
287.114	17.19
287.327	18.78
287.541	19.1
287.754	20.23
287.968	19.72
288.181	19.1
288.395	19.29
288.608	19.66
288.822	19.63
289.035	19.36
289.248	19
289.462	17.94
289.675	16.73
289.889	18.33
290.102	17.64
290.315	17.54
290.529	16.95
290.742	14.52
290.955	15.4
291.169	15.98
291.382	15.14
291.595	14.65
291.808	16.03
292.022	16.02
292.235	15.11
292.448	15.41
292.661	16.08
292.875	18.01
293.088	19.16
293.301	17.31
293.514	15.78
293.727	15.95
293.94	14.92
294.153	13.7
294.367	14.99
294.58	13.7
294.793	11.75
295.006	9.57
295.219	8.51
295.432	7.61
295.645	8.23
295.858	10.23
296.071	10.23
296.284	10.98
296.497	12.15
296.71	12.1
296.923	12.63
297.136	13.64
297.349	15.35
297.562	16.27
297.775	16.83
297.988	15.4
298.201	15.53
298.414	15.93
298.626	14.8
298.839	13.67
299.052	14.49
299.265	15.15
299.478	15.72
299.691	14.45
299.903	12.6
300.116	12.61
300.329	12.32
300.542	10.79
300.755	9.81
300.967	10.93
301.18	11.95
301.393	11.22
301.605	9.78
301.818	9.56
302.031	11.08
302.243	12.67
302.456	13.6
302.669	16.26
302.881	16.83
303.094	19.26
303.307	18.91
303.519	19.85
303.732	20.84
303.944	22.64
304.157	24.07
304.37	22.53
304.582	21.48
304.795	21.99
305.007	23
305.22	21.44
305.432	20.41
305.645	21.8
305.857	20.12
306.069	17.18
306.282	17.11
306.494	15.23
306.707	16.7
306.919	16.05
307.132	15.43
307.344	13.71
307.556	14.88
307.769	12.79
307.981	11.78
308.193	11.76
308.406	11.29
308.618	10.63
308.83	11.12
309.043	10.96
309.255	11.93
309.467	11.49
309.679	9.9
309.892	10.17
310.104	12.29
310.316	13.39
310.528	14.63
310.74	15.17
310.953	15.36
311.165	16.14
311.377	16.49
311.589	17.15
311.801	17.01
312.013	17.34
312.225	16.08
312.437	15.92
312.649	13.36
312.862	12.98
313.074	13.98
313.286	12.71
313.498	11.81
313.71	11.35
313.922	10.69
314.134	11.9
314.346	14.22
314.558	16.25
314.77	14.97
314.982	17.98
315.193	17.84
315.405	19.28
315.617	20.18
315.829	20.29
316.041	20.44
316.253	20.05
316.465	20.14
316.677	19.41
316.888	20.96
317.1	20.5
317.312	20.41
317.524	21.06
317.736	20.52
317.947	20.02
318.159	18.93
318.371	19.74
318.583	21.26
318.794	21.29
319.006	22.41
319.218	19.76
319.43	22.07
319.641	23.96
319.853	23.78
320.064	23.19
320.276	25.26
320.488	26.44
320.699	26.19
320.911	24.15
321.123	25.15
321.334	24.51
321.546	24.06
321.757	23.39
321.969	22.31
322.18	22.92
322.392	21.65
322.603	19.53
322.815	18.83
323.026	19.08
323.238	20.29
323.449	18.32
323.661	16.37
323.872	15.99
324.083	16.89
324.295	17.63
324.506	17.02
324.718	17.22
324.929	19.52
325.14	21.79
325.352	20.92
325.563	20.55
325.774	22.18
325.986	25.57
326.197	26.41
326.408	26.11
326.62	24.73
326.831	24.44
327.042	25.98
327.253	24.97
327.464	24.5
327.676	24.87
327.887	25.22
328.098	24.86
328.309	22.82
328.52	25.69
328.732	26.48
328.943	27.86
329.154	26.62
329.365	27.71
329.576	27.41
329.787	28.64
329.998	29.59
330.209	30.21
330.42	30.9
330.631	32.73
330.842	30.61
331.053	28.41
331.264	28.67
331.475	30.1
331.686	31.33
331.897	31.84
332.108	29.67
332.319	28.62
332.53	29.36
332.741	29.12
332.952	28.22
333.163	29.8
333.374	30.88
333.585	31.23
333.795	32.46
334.006	29.27
334.217	30.8
334.428	30.35
334.639	30.78
334.849	30.17
335.06	30.28
335.271	30.47
335.482	28.7
335.692	29.12
335.903	26.86
336.114	26.34
336.325	28.29
336.535	27.79
336.746	28.93
336.957	28.46
337.167	28.15
337.378	29.09
337.589	30.14
337.799	29.17
338.01	28.87
338.22	30.91
338.431	32.13
338.642	32.43
338.852	32.75
339.063	32.43
339.273	33.02
339.484	33.15
339.694	31.77
339.905	31.63
340.115	33.11
340.326	33
340.536	31.45
340.746	30.26
340.957	30.47
341.167	31.23
341.378	31.81
341.588	30.47
341.799	30.29
342.009	31.54
342.219	31.21
342.43	32.21
342.64	31.87
342.85	33.63
343.061	34.3
343.271	34.4
343.481	33.4
343.691	32.48
343.902	33.8
344.112	34.31
344.322	32.14
344.532	31.86
344.743	31.01
344.953	32.08
345.163	31.18
345.373	31
345.583	29.89
345.793	30.44
346.004	32.12
346.214	32.14
346.424	33.22
346.634	34.45
346.844	35.35
347.054	35.36
347.264	33.86
347.474	33.92
347.684	33.91
347.894	33.77
348.104	32.8
348.314	32.6
348.524	32.14
348.734	31.16
348.944	31.2
349.154	30.19
349.364	29.66
349.574	29.91
349.784	29.84
349.994	30.09
350.204	30.57
350.413	30.72
350.623	29.18
350.833	29.78
351.043	29.87
351.253	30.29
351.463	29.33
351.672	30.04
351.882	31.04
352.092	30.99
352.302	30.84
352.511	30.75
352.721	31.08
352.931	31.47
353.141	30.62
353.35	30.6
353.56	30.14
353.77	30.67
353.979	30.23
354.189	29.34
354.399	28.9
354.608	27.81
354.818	27.83
355.027	28.23
355.237	27.58
355.447	28.2
355.656	27.82
355.866	27.33
356.075	28.21
356.285	28.55
356.494	28.47
356.704	28.64
356.913	29.03
357.123	29.05
357.332	28.34
357.542	29.01
357.751	29.84
357.96	28.73
358.17	28.47
358.379	26.97
358.589	27.28
358.798	27.28
359.007	27.71
359.217	27.13
359.426	25.41
359.635	25.84
359.845	25.85
360.054	24.3
360.263	25.2
360.472	26.16
360.682	26.81
360.891	25.39
361.1	25.62
361.309	25.3
361.519	26.18
361.728	26.94
361.937	26.47
362.146	26.18
362.355	26.19
362.564	25.83
362.774	24.99
362.983	25.07
363.192	26.49
363.401	26.84
363.61	26.63
363.819	26.18
364.028	26.19
364.237	27.05
364.446	27.66
364.655	26.41
364.864	26.92
365.073	26.43
365.282	25.26
365.491	24.85
365.7	24.68
365.909	24.18
366.118	24.13
366.327	24
366.536	22.54
366.745	21.64
366.954	23.96
367.162	23.51
367.371	24.7
367.58	25.87
367.789	26.01
367.998	25.54
368.207	25.28
368.415	25.75
368.624	26.66
368.833	27.55
369.042	27.61
369.25	26.82
369.459	27.49
369.668	27.29
369.877	27.59
370.085	27.34
370.294	27.01
370.503	28.28
370.711	27.52
370.92	27.27
371.129	26.66
371.337	26.82
371.546	26.2
371.754	25.66
371.963	25.43
372.171	24.36
372.38	23.71
372.589	24
372.797	23.46
373.006	23.48
373.214	22.83
373.423	22.52
373.631	22.74
373.84	22.74
374.048	21.99
374.256	21.71
374.465	23.16
374.673	24.3
374.882	23.29
375.09	22.78
375.298	23.28
375.507	22.73
375.715	22.52
375.923	22.38
376.132	22.41
376.34	22.54
376.548	22.97
376.757	21.9
376.965	21.01
377.173	21.61
377.381	21.94
377.59	21.59
377.798	22.37
378.006	22.17
378.214	22.22
378.423	22.85
378.631	22.94
378.839	22.91
379.047	23.78
379.255	24.52
379.463	24.97
379.671	25.1
379.879	24.73
380.088	24.49
380.296	25.43
380.504	25.49
380.712	25.82
380.92	26
381.128	26.32
381.336	25.33
381.544	23.68
381.752	22.77
381.96	22.91
382.168	22.02
382.376	22.65
382.584	21.8
382.791	21.61
382.999	20.18
383.207	20.04
383.415	19.63
383.623	20.04
383.831	20.96
384.039	21.78
384.247	21.21
384.454	22.59
384.662	22.47
384.87	23.7
385.078	22.84
385.285	22.96
385.493	23.08
385.701	22.38
385.909	22.5
386.116	22.43
386.324	21.67
386.532	21.8
386.739	21.76
386.947	20.84
387.155	19.62
387.362	19.69
387.57	20.11
387.778	19.85
387.985	19.35
388.193	19.13
388.4	19.04
388.608	19.84
388.816	19.89
389.023	19.55
389.231	20.35
389.438	20.41
389.646	20.73
389.853	21.24
390.061	21.42
390.268	21.74
390.475	21.42
390.683	21.51
390.89	21.49
391.098	22.3
391.305	21.98
391.512	22.26
391.72	22.27
391.927	22.34
392.135	22.07
392.342	21.77
392.549	22.43
392.756	22.68
392.964	22.33
393.171	22.23
393.378	21.02
393.586	21.14
393.793	20.43
394	20.47
394.207	20.29
394.414	20.26
394.622	20.46
394.829	20.43
395.036	20.37
395.243	20.69
395.45	20.24
395.657	19.54
395.864	20
396.072	20.95
396.279	20.8
396.486	20.83
396.693	20.27
396.9	19.95
397.107	20.04
397.314	20.06
397.521	19.85
397.728	19.46
397.935	20.23
398.142	19.83
398.349	18.46
398.556	18.61
398.763	19
398.97	19.53
399.177	19.76
399.383	19.19
399.59	18.98
399.797	19.42
400.004	20.3
400.211	20.08
400.418	19.94
400.625	20.38
400.831	20.27
401.038	19.62
401.245	19.95
401.452	19.7
401.658	20.14
401.865	20.47
402.072	19.24
402.279	18.53
402.485	19.3
402.692	19.41
402.899	18.51
403.105	18.68
403.312	18.88
403.519	18.47
403.725	18.42
403.932	17.85
404.138	17.99
404.345	18.76
404.552	18.85
404.758	18.93
404.965	18.62
405.171	18.62
405.378	19.3
405.584	19.88
405.791	19.62
405.997	19.67
406.204	20.45
406.41	20.62
406.617	20.92
406.823	21.01
407.029	20.19
407.236	20.6
407.442	21.06
407.649	21.06
407.855	20.6
408.061	21.45
408.268	22.05
408.474	21.61
408.68	20.72
408.887	20.53
409.093	20.88
409.299	21.24
409.505	20.81
409.712	21.68
409.918	20.69
410.124	20.41
410.33	19.67
410.537	18.39
410.743	18.28
410.949	18.55
411.155	17.89
411.361	16.98
411.567	16.55
411.773	16.85
411.98	16.18
412.186	16.58
412.392	17.26
412.598	17.38
412.804	17.61
413.01	17.85
413.216	17.98
413.422	18.81
413.628	20.01
413.834	19.84
414.04	19.49
414.246	19.25
414.452	18.89
414.658	17.74
414.864	17.85
415.07	18.26
415.275	17.58
415.481	17.16
415.687	16.52
415.893	15.77
416.099	16.07
416.305	15.91
416.511	16
416.716	16.08
416.922	16.36
417.128	15.91
417.334	16
417.539	16.4
417.745	16.59
417.951	16.48
418.157	16.88
418.362	16.82
418.568	16.96
418.774	17.04
418.979	16.9
419.185	16.89
419.391	17.22
419.596	17.25
419.802	17.01
420.008	16.37
420.213	17.02
420.419	16.75
420.624	16.73
420.83	16.85
421.035	16.79
421.241	16.82
421.446	17.03
421.652	16.87
421.857	16.87
422.063	16.95
422.268	17.54
422.474	16.85
422.679	16.92
422.885	16.61
423.09	16.31
423.295	16.1
423.501	16.17
423.706	15.91
423.911	15.94
424.117	15.73
424.322	15.72
424.527	15.66
424.733	16.2
424.938	15.89
425.143	15.99
425.349	16.13
425.554	16.29
425.759	16.22
425.964	16.32
426.169	16.39
426.375	16.5
426.58	16.55
426.785	16.73
426.99	16.36
427.195	16.75
427.4	16.85
427.605	16.97
427.811	16.86
428.016	16.82
428.221	16.75
428.426	16.7
428.631	16.94
428.836	16.89
429.041	16.82
429.246	17.02
429.451	17.05
429.656	17.44
429.861	17.28
430.066	17.58
430.271	17.88
430.476	17.83
430.681	17.69
430.886	17.42
431.09	17.25
431.295	16.84
431.5	16.82
431.705	16.81
431.91	16.7
432.115	17.05
432.32	16.7
432.524	16.26
432.729	16.4
432.934	16.47
433.139	16.65
433.343	16.84
433.548	17.02
433.753	16.66
433.958	16.49
434.162	16.44
434.367	16.06
434.572	15.87
434.776	15.82
434.981	16.07
435.186	16.09
435.39	16.08
435.595	15.69
435.799	15.6
436.004	15.69
436.209	15.76
436.413	15.84
436.618	15.76
436.822	16.39
437.027	16.94
437.231	16.62
437.436	16.65
437.64	16.4
437.845	16.68
438.049	16.64
438.253	16.78
438.458	16.87
438.662	16.88
438.867	17.07
439.071	16.86
439.275	16.51
439.48	16.83
439.684	16.86
439.888	17.22
440.093	17.09
440.297	17.33
440.501	17.35
440.706	17.36
440.91	17.06
441.114	16.87
441.318	16.87
441.523	17.09
441.727	16.7
441.931	17.12
442.135	16.85
442.339	17.02
442.543	16.62
442.748	16.83
442.952	16.83
443.156	16.81
443.36	16.87
443.564	16.86
443.768	16.91
443.972	17.27
444.176	16.79
444.38	16.84
444.584	16.52
444.788	16.69
444.992	16.2
445.196	16.07
445.4	16.18
445.604	16.15
445.808	15.96
446.012	15.77
446.216	15.58
446.42	15.59
446.624	15.62
446.828	15.85
447.032	15.67
447.235	15.91
447.439	15.85
447.643	16.14
447.847	16.45
448.051	16.61
448.254	16.82
448.458	16.73
448.662	16.56
448.866	16.3
449.069	16.18
449.273	16.81
449.477	16.84
449.681	16.88
449.884	16.58
450.088	16.1
450.292	16.15
450.495	16.07
450.699	16.2
450.902	16.52
451.106	16.49
451.31	16.57
451.513	16.21
451.717	16.1
451.92	16.22
452.124	16.29
452.327	16.65
452.531	16.7
452.734	16.62
452.938	16.45
453.141	16.66
453.345	16.95
453.548	17.18
453.752	17.4
453.955	17.16
454.158	17
454.362	16.83
454.565	16.41
454.769	16.68
454.972	16.99
455.175	17.49
455.379	17.43
455.582	17.7
455.785	17.67
455.988	17.37
456.192	17.53
456.395	17.22
456.598	17.11
456.801	17.65
457.005	17.38
457.208	16.9
457.411	16.36
457.614	16.02
457.817	15.6
458.021	15.52
458.224	15.38
458.427	15.45
458.63	15.34
458.833	15.77
459.036	15.37
459.239	15.18
459.442	15.06
459.645	15.2
459.848	15.34
460.051	15.52
460.254	15.66
460.457	15.78
460.66	16.07
460.863	16.6
461.066	16.32
461.269	16.44
461.472	16.86
461.675	17.13
461.878	17.17
462.081	16.87
462.284	16.59
462.486	16.19
462.689	16.24
462.892	15.6
463.095	15.46
463.298	15.16
463.5	15.4
463.703	15.21
463.906	15.21
464.109	15.4
464.311	16.03
464.514	16.38
464.717	16.15
464.92	16.31
465.122	16.64
465.325	16.89
465.528	17.21
465.73	17.28
465.933	17.53
466.135	17.46
466.338	17.25
466.541	16.69
466.743	16.3
466.946	16.76
467.148	16.98
467.351	17.29
467.553	17.29
467.756	17.31
467.958	16.99
468.161	16.59
468.363	16.85
468.566	16.71
468.768	16.86
468.971	17.16
469.173	17.18
469.375	17.08
469.578	16.45
469.78	16.45
469.983	16.47
470.185	16.46
470.387	16.73
470.59	16.56
470.792	16.97
470.994	17.28
471.196	17.25
471.399	17.02
471.601	17.08
471.803	17.25
472.005	16.94
472.208	17.08
472.41	17.4
472.612	17.43
472.814	17.85
473.016	17.6
473.218	17.33
473.421	17.27
473.623	17.51
473.825	17.01
474.027	17.23
474.229	17.83
474.431	17.34
474.633	17.3
474.835	16.94
475.037	16.62
475.239	16.78
475.441	17.23
475.643	17.4
475.845	17.06
476.047	17.1
476.249	16.93
476.451	16.4
476.653	16.47
476.855	16.43
477.057	16.8
477.258	16.34
477.46	15.95
477.662	15.6
477.864	15.16
478.066	15.44
478.268	15.64
478.469	15.72
478.671	15.61
478.873	15.67
479.075	15.71
479.276	15.63
479.478	15.84
479.68	16.31
479.882	16.43
480.083	16.64
480.285	16.66
480.487	16.66
480.688	16.63
480.89	16.46
481.091	16.48
481.293	16.29
481.495	16.08
481.696	15.89
481.898	15.69
482.099	15.5
482.301	15.34
482.502	15.08
482.704	14.95
482.905	14.89
483.107	14.91
483.308	14.78
483.51	14.75
483.711	14.71
483.913	14.81
484.114	14.76
484.315	14.73
484.517	14.8
484.718	14.88
484.92	14.95
485.121	14.95
485.322	15.08
485.524	15.18
485.725	15.23
485.926	15.23
486.127	15.21
486.329	15.17
486.53	15.18
486.731	15.16
486.932	15.11
487.134	15.01
487.335	14.93
487.536	14.92
487.737	14.88
487.938	14.95
488.139	15.04
488.341	14.97
488.542	15.04
488.743	15.07
488.944	15.21
489.145	15.36
489.346	15.51
489.547	15.49
489.748	15.38
489.949	15.43
490.15	15.19
490.351	15.16
490.552	15.09
490.753	15.01
490.954	14.93
491.155	14.85
491.356	14.84
491.557	14.64
491.758	14.85
491.959	14.83
492.159	14.68
492.36	14.94
492.561	14.98
492.762	15.18
492.963	15.31
493.164	15.8
493.364	15.95
493.565	16.11
493.766	16.31
493.967	16.27
494.167	16.35
494.368	16.7
494.569	16.42
494.769	16.33
494.97	16.24
495.171	16.51
495.371	16.03
495.572	16.25
495.773	16.01
495.973	16.17
496.174	16.03
496.375	16.19
496.575	16.1
496.776	16.27
496.976	16.24
497.177	16.28
497.377	15.99
497.578	15.97
497.778	15.58
497.979	15.97
498.179	15.79
498.38	16.03
498.58	16.11
498.78	16.16
498.981	16.49
499.181	16.54
499.382	16.66
499.582	16.79
499.782	17.19
499.983	17.48
500.183	17.25
500.383	17.28
500.584	17.53
500.784	17.36
500.984	17.46
501.184	17.27
501.385	17.3
501.585	17.37
501.785	17.51
501.985	17.5
502.185	17.39
502.386	17.52
502.586	17.88
502.786	17.92
502.986	17.49
503.186	17.32
503.386	17.12
503.586	17.28
503.786	17.22
503.987	17.26
504.187	17.11
504.387	17.33
504.587	17.08
504.787	17.02
504.987	16.73
505.187	17.15
505.387	17.41
505.587	17.87
505.786	17.74
505.986	17.94
506.186	17.72
506.386	18.1
506.586	17.96
506.786	18.29
506.986	18.08
507.186	18.1
507.386	18.04
507.585	18.01
507.785	17.75
507.985	17.81
508.185	17.85
508.384	18.28
508.584	18.18
508.784	18.49
508.984	18.54
509.183	18.83
509.383	18.75
509.583	18.95
509.782	19.04
509.982	19.44
510.182	19.58
510.381	19.54
510.581	19.24
510.781	19.2
510.98	19.05
511.18	19.03
511.379	18.9
511.579	18.92
511.778	19.15
511.978	19.07
512.177	18.51
512.377	18.53
512.576	18.55
512.776	18.3
512.975	18.23
513.175	18.21
513.374	18.22
513.573	18.49
513.773	19.1
513.972	18.95
514.172	19.33
514.371	19.44
514.57	19.59
514.77	19.65
514.969	19.71
515.168	19.83
515.367	19.91
515.567	19.94
515.766	19.86
515.965	19.56
516.164	19.56
516.364	19.34
516.563	19.5
516.762	19.5
516.961	19.74
517.16	20.11
517.359	19.96
517.559	19.88
517.758	20
517.957	20.14
518.156	20.29
518.355	20.45
518.554	20.49
518.753	20.4
518.952	20.43
519.151	20.38
519.35	20.73
519.549	21.02
519.748	21.14
519.947	21.24
520.146	21.27
520.345	21.26
520.544	21.08
520.743	21.18
520.942	21.4
521.141	21.56
521.339	21.72
521.538	21.93
521.737	22.21
521.936	22.56
522.135	22.5
522.333	22.6
522.532	22.81
522.731	23.06
522.93	23.25
523.129	23.48
523.327	23.4
523.526	23.51
523.725	23.08
523.923	23.09
524.122	22.96
524.321	23.19
524.519	23.24
524.718	23.12
524.917	23.34
525.115	23.48
525.314	23.57
525.512	23.77
525.711	23.77
525.909	23.9
526.108	23.98
526.306	24
526.505	23.95
526.703	23.92
526.902	24.04
527.1	24.03
527.299	24.05
527.497	24.11
527.696	24.16
527.894	24.1
528.092	24.16
528.291	24.12
528.489	24.29
528.688	24.52
528.886	24.75
529.084	24.96
529.283	25.05
529.481	25.11
529.679	25.28
529.877	25.63
530.076	25.92
530.274	26.31
530.472	26.47
530.67	26.64
530.869	26.73
531.067	26.75
531.265	26.89
531.463	27.04
531.661	27.25
531.859	27.46
532.057	27.34
532.255	27.45
532.454	27.26
532.652	27.38
532.85	27.5
533.048	27.49
533.246	27.73
533.444	27.78
533.642	28.02
533.84	28.25
534.038	28.36
534.236	28.53
534.434	28.71
534.632	29.07
534.83	29.29
535.027	29.53
535.225	29.86
535.423	29.91
535.621	30.08
535.819	30.09
536.017	30.14
536.215	30.1
536.412	30.18
536.61	30.19
536.808	30.41
537.006	30.38
537.203	30.33
537.401	30.46
537.599	30.52
537.797	30.26
537.994	30.44
538.192	30.55
538.39	30.67
538.587	30.93
538.785	31.01
538.983	31.13
539.18	31.38
539.378	31.43
539.575	31.4
539.773	31.37
539.97	31.62
540.168	31.65
540.366	31.6
540.563	31.65
540.761	31.7
540.958	31.74
541.155	31.72
541.353	31.75
541.55	31.93
541.748	31.96
541.945	32.1
542.143	32.19
542.34	32.29
542.537	32.41
542.735	32.61
542.932	32.77
543.129	33.18
543.327	33.19
543.524	33.31
543.721	33.15
543.919	33.24
544.116	33.32
544.313	33.48
544.51	33.64
544.708	34.03
544.905	34.15
545.102	33.93
545.299	33.99
545.496	34.12
545.693	34.34
545.891	34.58
546.088	34.73
546.285	35.23
546.482	35.43
546.679	35.62
546.876	35.46
547.073	35.53
547.27	35.98
547.467	36.1
547.664	36.6
547.861	36.77
548.058	37.07
548.255	37.53
548.452	37.33
548.649	37.67
548.846	38.02
549.043	38.13
549.24	38.28
549.437	38.18
549.633	38.13
549.83	37.9
550.027	37.9
550.224	37.57
550.421	37.1
550.618	37.35
550.814	37
551.011	36.69
551.208	36.98
551.405	36.96
551.601	36.48
551.798	36.45
551.995	36.53
552.191	36.69
552.388	37.36
552.585	37.65
552.781	37.47
552.978	37.5
553.175	37.43
553.371	36.95
553.568	37.11
553.764	37.7
553.961	37.81
554.157	38.09
554.354	37.71
554.55	37.54
554.747	37.62
554.943	37.85
555.14	38.28
555.336	38.4
555.533	38.73
555.729	38.84
555.926	38.51
556.122	38.64
556.318	38.51
556.515	39.32
556.711	39.26
556.907	39.3
557.104	39.64
557.3	39.34
557.496	39.47
557.693	39.61
557.889	39.62
558.085	39.98
558.281	40.33
558.478	40.53
558.674	40.07
558.87	40.15
559.066	40.21
559.262	39.75
559.459	39.75
559.655	39.91
559.851	40.01
560.047	39.94
560.243	40.26
560.439	39.94
560.635	40.06
560.831	40.26
561.027	40.13
561.223	40.33
561.419	40.33
561.615	40.67
561.811	40.5
562.007	40.17
562.203	40.18
562.399	40.02
562.595	39.9
562.791	39.91
562.987	39.45
563.183	39.4
563.379	39.24
563.575	39.34
563.771	39.07
563.966	39.14
564.162	39.21
564.358	39.46
564.554	39.4
564.75	39.58
564.945	39.44
565.141	39.9
565.337	40.04
565.533	40.05
565.728	39.97
565.924	39.84
566.12	39.92
566.315	40.14
566.511	39.73
566.707	39.9
566.902	39.96
567.098	40.14
567.293	39.97
567.489	40.06
567.684	40.09
567.88	40.28
568.076	40.36
568.271	40.53
568.467	40.6
568.662	41.07
568.858	41.28
569.053	41.1
569.248	40.94
569.444	40.89
569.639	40.6
569.835	40.74
570.03	40.43
570.225	40.54
570.421	40.29
570.616	40.55
570.812	40.57
571.007	40.32
571.202	40.57
571.397	40.3
571.593	40.22
571.788	40.59
571.983	40.15
572.178	40.38
572.374	40.29
572.569	40.37
572.764	39.84
572.959	39.56
573.154	39.57
573.35	39.5
573.545	39.93
573.74	39.96
573.935	40.01
574.13	40.26
574.325	40.17
574.52	40.35
574.715	40.87
574.91	41.4
575.105	41.75
575.3	41.6
575.495	41.46
575.69	41.22
575.885	41.25
576.08	40.96
576.275	41.27
576.47	41.9
576.665	41.87
576.86	41.31
577.055	41.11
577.25	40.85
577.444	41.11
577.639	41.21
577.834	41.64
578.029	42.17
578.224	42.16
578.418	42.08
578.613	41.83
578.808	42.3
579.003	42.3
579.197	42.71
579.392	42.76
579.587	43.16
579.781	43.42
579.976	42.72
580.171	42.76
580.365	42.99
580.56	42.88
580.755	42.63
580.949	42.38
581.144	42.73
581.338	42.29
581.533	42.1
581.727	41.86
581.922	41.67
582.116	42.16
582.311	42.04
582.505	41.9
582.7	42.12
582.894	42.43
583.089	42.14
583.283	41.9
583.478	42.34
583.672	42.39
583.866	42.22
584.061	42.41
584.255	42.41
584.449	42.44
584.644	42.98
584.838	43.05
585.032	42.76
585.226	43.18
585.421	43.76
585.615	44.12
585.809	44.26
586.003	44.42
586.198	44.66
586.392	44.86
586.586	45.44
586.78	44.96
586.974	44.98
587.168	45.39
587.363	45.56
587.557	44.74
587.751	44.35
587.945	44.81
588.139	45
588.333	44.64
588.527	44.41
588.721	44.09
588.915	44.09
589.109	44.09
589.303	43.87
589.497	43.82
589.691	43.91
589.885	43.96
590.079	43.78
590.273	44.02
590.466	44.21
590.66	44.86
590.854	44.27
591.048	44.51
591.242	44.44
591.436	43.88
591.629	43.59
591.823	43.94
592.017	43.32
592.211	43.34
592.404	43.11
592.598	43.15
592.792	42.67
592.986	42.78
593.179	42.8
593.373	42.77
593.567	43.29
593.76	43.83
593.954	44.13
594.147	44.17
594.341	44.46
594.535	44.51
594.728	44.54
594.922	44.44
595.115	44.39
595.309	43.94
595.502	44.17
595.696	43.92
595.889	43.46
596.083	43.69
596.276	44.12
596.47	44.07
596.663	43.9
596.856	43.87
597.05	44.16
597.243	44.15
597.437	44.73
597.63	44.52
597.823	44.69
598.017	44.81
598.21	44.05
598.403	43.89
598.596	43.74
598.79	43.92
598.983	44.07
599.176	43.14
599.369	43.31
599.563	43.36
599.756	43.5
599.949	43.99
600.142	43.97
600.335	44.5
600.528	44.5
600.722	44.58
600.915	44.68
601.108	44.72
601.301	45.71
601.494	46.02
601.687	45.79
601.88	45.63
602.073	45.3
602.266	45.5
602.459	45.72
602.652	45.75
602.845	45.51
603.038	45.66
603.231	45.86
603.424	45.83
603.617	45.69
603.809	45.58
604.002	45.85
604.195	45.68
604.388	45.72
604.581	45.24
604.774	45.56
604.966	45.73
605.159	45.46
605.352	45.05
605.545	44.63
605.737	44.63
605.93	45.28
606.123	44.99
606.316	45.61
606.508	45.46
606.701	45.19
606.894	44.75
607.086	45.05
607.279	45.1
607.471	45.11
607.664	45.27
607.857	45.33
608.049	44.91
608.242	44.83
608.434	44.69
608.627	45.02
608.819	45.44
609.012	45.51
609.204	45.12
609.397	45.25
609.589	45.92
609.782	46.27
609.974	46.57
610.166	46.98
610.359	47.18
610.551	47.43
610.743	47.47
610.936	48.09
611.128	49.11
611.32	49.76
611.513	49.79
611.705	49.37
611.897	49.76
612.09	49.75
612.282	50.1
612.474	50.51
612.666	50.98
612.858	51.31
613.051	50.66
613.243	49.63
613.435	49.66
613.627	49.6
613.819	49.42
614.011	48.72
614.203	49.32
614.395	49.15
614.588	49.25
614.78	49.62
614.972	49.93
615.164	50.37
615.356	51.12
615.548	51.01
615.74	51.17
615.932	51.04
616.124	51.66
616.315	51.11
616.507	50.75
616.699	50.42
616.891	49.88
617.083	49.42
617.275	49.79
617.467	49.21
617.659	49.43
617.85	49.4
618.042	50.34
618.234	49.33
618.426	49.47
618.618	49.15
618.809	49.75
619.001	49.18
619.193	48.99
619.384	48.71
619.576	48.93
619.768	48.34
619.959	48.8
620.151	48.51
620.343	49.59
620.534	49.2
620.726	50.1
620.917	50.15
621.109	50.71
621.301	51.01
621.492	50.93
621.684	51.25
621.875	51.46
622.067	51.19
622.258	50.99
622.45	50.65
622.641	50.56
622.832	50.53
623.024	49.89
623.215	49.82
623.407	49.44
623.598	48.86
623.789	48.49
623.981	48.36
624.172	48.57
624.363	48.68
624.555	48.46
624.746	48.86
624.937	48.21
625.129	48.51
625.32	48.6
625.511	48.7
625.702	49.39
625.893	50.03
626.085	49.53
626.276	49.79
626.467	49.63
626.658	49.7
626.849	49.38
627.04	50.16
627.231	50.19
627.422	50.17
627.614	50.06
627.805	50.08
627.996	49.28
628.187	50.16
628.378	49.95
628.569	49.89
628.76	50.25
628.951	50.66
629.142	50.21
629.332	50.12
629.523	49.99
629.714	49.9
629.905	50.14
630.096	50.42
630.287	50.09
630.478	49.79
630.669	49.83
630.859	49.77
631.05	49.69
631.241	49.31
631.432	49.34
631.623	49.37
631.813	49.68
632.004	49.35
632.195	48.76
632.385	48.61
632.576	48.98
632.767	49.13
632.957	48.98
633.148	49.07
633.339	48.82
633.529	48.94
633.72	48.54
633.91	48.41
634.101	48.05
634.292	48.89
634.482	49.21
634.673	49.2
634.863	49.33
635.054	49.13
635.244	50.02
635.435	50.81
635.625	50.96
635.815	51.86
636.006	52.36
636.196	53.07
636.387	53.07
636.577	52.99
636.767	52.8
636.958	52.15
637.148	52.87
637.338	52.48
637.529	52.28
637.719	52.26
637.909	51.78
638.099	52.38
638.29	52.17
638.48	52.78
638.67	52.77
638.86	52.89
639.05	53.18
639.241	53.54
639.431	53.57
639.621	54.31
639.811	54.27
640.001	54.8
640.191	54.1
640.381	54.41
640.571	53.86
640.761	54.85
640.951	55.4
641.141	56.36
641.331	55.63
641.521	55.34
641.711	54.52
641.901	54.17
642.091	54.17
642.281	54.22
642.471	53.87
642.661	54.03
642.851	53.26
643.041	52.67
643.231	52.17
643.42	52.42
643.61	52.41
643.8	52.79
643.99	53.36
644.18	52.77
644.369	53
644.559	52.56
644.749	52.39
644.939	52.64
645.128	53.06
645.318	53.16
645.508	52.81
645.697	52.95
645.887	54.17
646.076	54.39
646.266	55.21
646.456	54.72
646.645	55.04
646.835	55.28
647.024	55.2
647.214	55.21
647.403	55.07
647.593	55.22
647.782	55.32
647.972	54.32
648.161	54.48
648.351	54.33
648.54	55.46
648.73	56.46
648.919	56.13
649.108	55.7
649.298	55.69
649.487	55.87
649.677	56.75
649.866	56.65
650.055	56.21
650.244	55.68
650.434	56.1
650.623	55.29
650.812	53.92
651.002	54
651.191	54.52
651.38	54.18
651.569	54.11
651.758	53.86
651.947	53.69
652.137	53.79
652.326	53.72
652.515	52.84
652.704	52.8
652.893	53.93
653.082	54.62
653.271	54.78
653.46	54.27
653.649	53.81
653.838	53.49
654.027	54.14
654.216	54.6
654.405	55.75
654.594	55.94
654.783	56
654.972	55.75
655.161	54.58
655.35	54.84
655.539	56.11
655.728	56.53
655.916	55.94
656.105	56.05
656.294	55.43
656.483	54.44
656.672	54.21
656.86	53.79
657.049	53.3
657.238	53.57
657.427	53.23
657.615	52.95
657.804	53.32
657.993	53.46
658.181	53.79
658.37	53.86
658.559	53.69
658.747	54.63
658.936	54.97
659.125	55.82
659.313	55.68
659.502	55.76
659.69	55.01
659.879	54.8
660.067	55.17
660.256	54.48
660.444	55.17
660.633	55.98
660.821	55.18
661.01	55.45
661.198	55.09
661.387	55.39
661.575	56.24
661.763	57.27
661.952	56.97
662.14	57.42
662.328	57.59
662.517	57.37
662.705	57.05
662.893	57.5
663.082	57.49
663.27	57.47
663.458	57.71
663.646	56.55
663.834	55.54
664.023	55.5
664.211	54.7
664.399	54.99
664.587	55.42
664.775	55.56
664.963	55.93
665.152	55.89
665.34	56.53
665.528	57.57
665.716	58.84
665.904	60.1
666.092	61.09
666.28	62.32
666.468	61.64
666.656	61.09
666.844	60.64
667.032	59.3
667.22	60.03
667.408	59.46
667.596	58.72
667.784	58.54
667.971	57.97
668.159	57.75
668.347	57.11
668.535	57.35
668.723	57.31
668.911	57.48
669.098	58.17
669.286	57.98
669.474	58.52
669.662	58.2
669.849	57.06
670.037	58.87
670.225	58.35
670.413	57.33
670.6	57.04
670.788	57.05
670.976	57.46
671.163	57.34
671.351	56.88
671.538	55.84
671.726	57
671.913	57.6
672.101	54.98
672.289	55.08
672.476	56.33
672.664	56.67
672.851	56.88
673.039	57.63
673.226	57.98
673.413	57.95
673.601	58.53
673.788	57.2
673.976	57.47
674.163	59.87
674.35	58.85
674.538	58.36
674.725	57.99
674.912	57.2
675.1	56.72
675.287	56.92
675.474	56.3
675.662	56.4
675.849	56.59
676.036	56.26
676.223	56.34
676.411	57.18
676.598	56.92
676.785	57.6
676.972	58.28
677.159	58.33
677.346	57.6
677.533	58.8
677.721	58.49
677.908	58.3
678.095	58.61
678.282	58.24
678.469	57.76
678.656	58.03
678.843	57.39
679.03	56.95
679.217	56.43
679.404	56.35
679.591	55.77
679.778	55.55
679.964	56.36
680.151	56.58
680.338	55.19
680.525	55.75
680.712	56.34
680.899	56.81
681.086	57.78
681.272	57.8
681.459	59.09
681.646	59.15
681.833	59.72
682.02	59.07
682.206	58.64
682.393	60.14
682.58	60.99
682.766	63.29
682.953	63.85
683.14	63.64
683.326	64.11
683.513	64.51
683.7	65.03
683.886	64.83
684.073	65.67
684.259	65.76
684.446	66.09
684.632	65.45
684.819	62.08
685.005	61.94
685.192	62.01
685.378	62.51
685.565	62.4
685.751	61.52
685.938	61.05
686.124	61.03
686.31	60.25
686.497	59.98
686.683	60.4
686.87	61.23
687.056	60.19
687.242	59.47
687.429	59.49
687.615	58.67
687.801	59.42
687.987	60.36
688.174	59.55
688.36	59.67
688.546	59.38
688.732	59.59
688.918	58.8
689.105	59.9
689.291	61.54
689.477	61.52
689.663	61.81
689.849	62.11
690.035	62.72
690.221	63.6
690.407	64.63
690.593	64.35
690.779	63.75
690.965	66.19
691.151	66.79
691.337	66.43
691.523	65.45
691.709	65.47
691.895	65.61
692.081	64.8
692.267	64.62
692.453	65.07
692.639	65.86
692.825	66.23
693.011	64.38
693.196	64.21
693.382	63.09
693.568	63.33
693.754	64.89
693.94	64.77
694.125	64.55
694.311	63.59
694.497	63.52
694.682	62.63
694.868	63.47
695.054	64.15
695.239	64.51
695.425	65.34
695.611	64.4
695.796	61.54
695.982	61.72
696.168	61.34
696.353	61.76
696.539	61.74
696.724	61.4
696.91	60.36
697.095	59.34
697.281	58.24
697.466	57.64
697.652	57.99
697.837	57.95
698.023	57.34
698.208	57.77
698.393	57.58
698.579	56.84
698.764	56.92
698.949	57.18
699.135	57.88
699.32	58.56
699.505	59.12
699.691	59.99
699.876	60.52
700.061	61.86
700.246	62.52
700.432	63.36
700.617	62.95
700.802	62.58
700.987	62.97
701.172	64.5
701.358	64.7
701.543	65.39
701.728	65.81
701.913	65.96
702.098	65.5
702.283	64.94
702.468	64.11
702.653	66.81
702.838	68.25
703.023	67.7
703.208	65.17
703.393	66.16
703.578	65.71
703.763	65.47
703.948	66.8
704.133	66.45
704.318	67.21
704.503	68.47
704.688	67.61
704.873	66.82
705.057	65.41
705.242	67.39
705.427	65.34
705.612	64.46
705.797	64.71
705.981	64.33
706.166	65.61
706.351	64.72
706.536	65.8
706.72	65.69
706.905	66.16
707.09	69.12
707.274	67.43
707.459	67.87
707.644	68.9
707.828	67.69
708.013	68.67
708.197	67
708.382	66.23
708.567	63.85
708.751	64.63
708.936	65
709.12	63.49
709.305	63.01
709.489	62.31
709.673	61.08
709.858	61.21
710.042	59.71
710.227	59.88
710.411	62.37
710.596	63.23
710.78	62.36
710.964	62.79
711.149	63.11
711.333	65.32
711.517	65.66
711.702	66.67
711.886	67.55
712.07	68.17
712.254	68.28
712.438	67.11
712.623	66.7
712.807	67.24
712.991	67.05
713.175	67.69
713.359	66.6
713.544	66.92
713.728	67.35
713.912	67.29
714.096	67.71
714.28	66.8
714.464	67.28
714.648	67.74
714.832	68.62
715.016	69.65
715.2	69.3
715.384	68.21
715.568	69.23
715.752	68.15
715.936	68.09
716.12	68.46
716.304	69.1
716.488	67.97
716.671	69.91
716.855	70.28
717.039	68.56
717.223	68.8
717.407	70.61
717.59	69.42
717.774	71.03
717.958	71.71
718.142	71.77
718.325	73.64
718.509	75.18
718.693	72.77
718.877	72.47
719.06	75.17
719.244	74.78
719.428	76.01
719.611	76.88
719.795	74.96
719.978	75.01
720.162	75.73
720.345	74.36
720.529	74.11
720.713	74.35
720.896	73.8
721.08	72.21
721.263	74.03
721.446	72.95
721.63	72.16
721.813	73.94
721.997	73.83
722.18	73.88
722.364	75.84
722.547	78.2
722.73	79.87
722.914	78.68
723.097	77.73
723.28	76.4
723.464	76.5
723.647	78.08
723.83	77.06
724.013	76.68
724.197	74.81
724.38	73.41
724.563	69.52
724.746	70.13
724.929	71.49
725.112	72.71
725.296	70.5
725.479	69.86
725.662	69.96
725.845	69.98
726.028	69.31
726.211	69.51
726.394	68.84
726.577	69.96
726.76	67.27
726.943	66.06
727.126	65.58
727.309	66.69
727.492	64.62
727.675	64.45
727.858	65.5
728.041	65.33
728.224	66.36
728.407	65.36
728.589	64.43
728.772	66.53
728.955	66.89
729.138	68.55
729.321	68.42
729.503	70.49
729.686	69.92
729.869	67.79
730.052	69.69
730.234	69.25
730.417	70.78
730.6	72.61
730.782	72.21
730.965	72.26
731.148	70.63
731.33	72.81
731.513	72.76
731.695	72.8
731.878	74.65
732.061	72.82
732.243	72.65
732.426	72.67
732.608	71.85
732.791	71.03
732.973	71.07
733.156	69.78
733.338	68.88
733.52	69.01
733.703	68.51
733.885	69.07
734.068	69.37
734.25	70
734.432	71.81
734.615	70.29
734.797	70.68
734.979	71.9
735.162	72.99
735.344	72.76
735.526	73.25
735.708	74.09
735.891	73.11
736.073	73.32
736.255	71.33
736.437	69.48
736.619	69.86
736.802	69.26
736.984	69.56
737.166	67.72
737.348	67.77
737.53	68.25
737.712	67.63
737.894	67.19
738.076	67.58
738.258	70.02
738.44	69.74
738.622	70.84
738.804	72.82
738.986	70.68
739.168	74.29
739.35	75.13
739.532	76.07
739.714	77.75
739.896	80.12
740.078	81.28
740.259	79.88
740.441	80.68
740.623	81.79
740.805	80.97
740.987	82.54
741.168	82.42
741.35	84.09
741.532	83.11
741.714	82.6
741.895	80.18
742.077	78.4
742.259	79.12
742.44	78.79
742.622	77.56
742.804	76.88
742.985	76.56
743.167	76.12
743.348	73.09
743.53	73.66
743.711	75.74
743.893	76.8
744.075	79.62
744.256	79.55
744.438	77.89
744.619	78.27
744.8	78.95
744.982	79.67
745.163	79.34
745.345	81.81
745.526	82.65
745.707	81.36
745.889	80.82
746.07	79.9
746.252	82.15
746.433	83.2
746.614	82.9
746.795	83.06
746.977	84.22
747.158	83.41
747.339	81.95
747.52	80.34
747.702	79.59
747.883	81.36
748.064	83.45
748.245	84.01
748.426	84.81
748.607	83.49
748.788	82.31
748.97	80.86
749.151	80.6
749.332	82.16
749.513	81.4
749.694	82.62
749.875	81.76
750.056	78.87
750.237	77.98
750.418	79.6
750.599	83.26
750.78	81.64
750.96	81.1
751.141	82.47
751.322	79.01
751.503	80.34
751.684	81.48
751.865	79.01
752.046	80.33
752.226	76.78
752.407	74.74
752.588	76.52
752.769	78.28
752.949	77.62
753.13	77.09
753.311	79.24
753.492	79.3
753.672	76.68
753.853	80.91
754.034	78.09
754.214	79.92
754.395	78.6
754.575	75.57
754.756	76.35
754.937	77.9
755.117	77.29
755.298	78.17
755.478	78.2
755.659	78.37
755.839	76.16
756.02	78.24
756.2	80.33
756.381	82.28
756.561	82.33
756.741	83.69
756.922	83.8
757.102	82.17
757.283	81.12
757.463	79.95
757.643	79.53
757.823	80.46
758.004	79.37
758.184	77.6
758.364	76.5
758.545	75.57
758.725	74.94
758.905	74.31
759.085	75.37
759.265	76.89
759.446	77.7
759.626	79.95
759.806	79.31
759.986	80.47
760.166	80.21
760.346	82.68
760.526	82.8
760.706	81.36
760.886	79.38
761.066	80.77
761.246	78.18
761.426	76.74
761.606	72.82
761.786	71.86
761.966	70.17
762.146	69.52
762.326	68.83
762.506	67.36
762.686	66.79
762.866	67.27
763.046	65.13
763.225	66.64
763.405	66.61
763.585	67.5
763.765	68.66
763.945	69.4
764.124	69.11
764.304	69.03
764.484	69.75
764.664	69.92
764.843	72.45
765.023	75.99
765.203	73
765.382	74.71
765.562	75.66
765.741	76.01
765.921	76.5
766.101	77.35
766.28	77
766.46	79.58
766.639	80.81
766.819	79.24
766.998	79.48
767.178	79.67
767.357	80.84
767.537	81.77
767.716	82.04
767.896	82.9
768.075	83.38
768.254	82.22
768.434	80.87
768.613	83.44
768.792	84.32
768.972	82.67
769.151	86.24
769.33	85.36
769.51	86.83
769.689	87.28
769.868	87.1
770.047	89.26
770.226	92.23
770.406	93.7
770.585	91.59
770.764	89.33
770.943	89.05
771.122	88.99
771.301	90.04
771.48	89.95
771.66	91.06
771.839	90.94
772.018	91.27
772.197	92.37
772.376	94.22
772.555	96.67
772.734	103.61
772.913	108.33
773.092	108.62
773.271	105.55
773.449	110.67
773.628	104.76
773.807	109.72
773.986	111.74
774.165	107.62
774.344	104.11
774.523	99.68
774.701	97.18
774.88	96.07
775.059	95.44
775.238	99.72
775.417	95.26
775.595	97.37
775.774	94.95
775.953	91.83
776.131	95.44
776.31	91.2
776.489	91.81
776.667	89.47
776.846	90.04
777.025	91.73
777.203	88.84
777.382	85.96
777.56	86.77
777.739	84.29
777.917	85.45
778.096	84.36
778.274	89.72
778.453	92.81
778.631	94.91
778.81	94.88
778.988	95.8
779.166	100.28
779.345	101.53
779.523	104.13
779.702	110.4
779.88	111.71
780.058	108.47
780.237	107.55
780.415	107.39
780.593	105.14
780.771	100.42
780.95	93.34
781.128	88.54
781.306	93.48
781.484	93.75
781.662	89.84
781.841	87.22
782.019	92.5
782.197	96.25
782.375	94.95
782.553	95.26
782.731	100.07
782.909	109.7
783.087	112.38
783.265	109.41
783.443	110.58
783.621	114.7
783.799	118.82
783.977	117.37
784.155	111.57
784.333	112.69
784.511	109.96
784.689	108.64
784.867	101.23
785.045	101.14
785.223	97.56
785.4	98.12
785.578	99.88
785.756	100.84
785.934	99.93
786.112	101.95
786.289	106.44
786.467	105.18
786.645	106.48
786.823	107.89
787	108.19
787.178	109.42
787.356	106.51
787.533	99.08
787.711	95.33
787.889	92.08
788.066	89.62
788.244	85.14
788.421	89.88
788.599	87.13
788.776	86.03
788.954	88.95
789.131	89.14
789.309	88.19
789.486	86.51
789.664	86.85
789.841	88.55
790.019	90.5
790.196	92.68
790.373	93.52
790.551	96.02
790.728	99.6
790.906	94.92
791.083	92.32
791.26	92.21
791.437	98.86
791.615	102.79
791.792	102.09
791.969	102.45
792.146	103.43
792.324	99.66
792.501	99.71
792.678	100.05
792.855	98.7
793.032	103.5
793.209	100.71
793.387	101.55
793.564	96.75
793.741	102.6
793.918	95.84
794.095	97.52
794.272	95.17
794.449	93.95
794.626	92.63
794.803	96.07
794.98	91.89
795.157	98.91
795.334	98.61
795.511	98.73
795.688	92.36
795.864	100.95
796.041	99.65
796.218	98.32
796.395	100.74
796.572	95.88
796.749	98.03
796.925	99.09
797.102	93.98
797.279	89.52
797.456	92.95
797.632	95.38
797.809	92.75
797.986	91.05
798.162	92.97
798.339	92.03
798.516	97.22
798.692	91.19
798.869	90.59
799.046	88.45
799.222	92.81
799.399	83.25
799.575	81.91
799.752	79.36
799.928	79.04
800.105	82.05
800.281	81.64
800.458	81.82
800.634	80.79
800.811	79.62
800.987	83.15
801.163	78.87
801.34	85.3
801.516	87.91
801.692	91.54
801.869	94.26
802.045	93.65
802.221	94.74
802.398	97.44
802.574	99.23
802.75	102.24
802.926	101.54
803.103	107.13
803.279	110.07
803.455	109.36
803.631	105.79
803.807	104.36
803.983	107.09
804.16	107.79
804.336	101.32
804.512	104.45
804.688	103.87
804.864	100.85
805.04	96.18
805.216	96.76
805.392	97.59
805.568	102.89
805.744	104.79
805.92	102.24
806.096	101.08
806.272	110.51
806.448	106.52
806.623	103.58
806.799	108.51
806.975	110.73
807.151	106.89
807.327	97.36
807.503	89.99
807.678	83.4
807.854	86.17
808.03	89.61
808.206	89.27
808.381	96.55
808.557	101.03
808.733	102.29
808.908	102.61
809.084	104.59
809.26	115.27
809.435	118.81
809.611	122.12
809.787	118.06
809.962	112.06
810.138	108.51
810.313	102.24
810.489	103.38
810.664	102.93
810.84	106.35
811.015	105.8
811.191	102.92
811.366	110.02
811.542	115.33
811.717	119.99
811.892	124.34
812.068	128.65
812.243	132.12
812.419	126.35
812.594	126.92
812.769	128.97
812.944	133.66
813.12	133.77
813.295	125.9
813.47	126.73
813.645	127.44
813.821	125.9
813.996	117.42
814.171	113.65
814.346	110.95
814.521	112.39
814.697	108.71
814.872	106.42
815.047	105.71
815.222	102.43
815.397	95.44
815.572	87.22
815.747	88.41
815.922	89.68
816.097	90.71
816.272	98
816.447	99.97
816.622	98.09
816.797	99.26
816.972	99.81
817.147	96.06
817.322	99.88
817.496	103.73
817.671	109.17
817.846	110.23
818.021	104.49
818.196	100.08
818.371	97.02
818.545	94.23
818.72	91.22
818.895	92.23
819.069	94.62
819.244	89.82
819.419	84.95
819.594	78.2
819.768	73.69
819.943	73
820.117	67.46
820.292	64.06
820.467	62.97
820.641	61.74
820.816	59.4
820.99	58.63
821.165	57.29
821.339	55.97
821.514	55.55
821.688	55.58
821.863	54.95
822.037	55.54
822.212	55.56
822.386	54.98
822.56	53.94
822.735	54.25
822.909	54.36
823.084	54.52
823.258	54.86
823.432	55.09
823.606	55.28
823.781	55.13
823.955	55.87
824.129	55.56
824.303	56
824.478	57.25
824.652	58.07
824.826	57.4
825	58.24
825.174	59
825.348	59.24
825.523	59.12
825.697	60.21
825.871	60.39
826.045	59.95
826.219	61.2
826.393	61.65
826.567	62.33
826.741	63.84
826.915	62.7
827.089	64.01
827.263	63.87
827.437	63.94
827.611	64.18
827.784	65.18
827.958	69.04
828.132	68.25
828.306	69.35
828.48	70.84
828.654	71.35
828.827	74.14
829.001	73.82
829.175	75.86
829.349	79.38
829.522	81.36
829.696	79.84
829.87	79.52
830.044	84.25
830.217	82.25
830.391	86.56
830.565	88.68
830.738	89.05
830.912	91.79
831.085	91.28
831.259	89.39
831.432	90.61
831.606	91.32
831.779	85.64
831.953	81.7
832.126	84.33
832.3	80.57
832.473	79.29
832.647	75.28
832.82	74.06
832.994	74.82
833.167	73.05
833.34	70.73
833.514	69.02
833.687	69.85
833.86	73.28
834.034	70.57
834.207	67.38
834.38	66.03
834.553	66.87
834.727	67.58
834.9	65.68
835.073	69.12
835.246	68.4
835.419	70.38
835.593	69.89
835.766	64.27
835.939	69.47
836.112	72.11
836.285	76.07
836.458	78.64
836.631	77.2
836.804	85.62
836.977	86.91
837.15	90.69
837.323	100.05
837.496	105.19
837.669	115.55
837.842	110.91
838.015	115.09
838.188	117.51
838.361	117.12
838.533	122.46
838.706	118.05
838.879	111.02
839.052	111.68
839.225	106.39
839.398	112.61
839.57	108.83
839.743	111.55
839.916	108.7
840.088	107.32
840.261	116.15
840.434	110.98
840.607	108.1
840.779	115.11
840.952	116.17
841.124	118.95
841.297	112.4
841.47	117.19
841.642	109.53
841.815	109.07
841.987	118.98
842.16	116.54
842.332	120.82
842.505	117.78
842.677	117.9
842.85	123.28
843.022	129.29
843.194	123.25
843.367	124
843.539	130.02
843.712	138.12
843.884	139.38
844.056	138.02
844.229	147.32
844.401	160.82
844.573	163.93
844.745	166.47
844.918	187.01
845.09	204.79
845.262	222.51
845.434	243.01
845.606	249.17
845.779	219.67
845.951	203.72
846.123	203.33
846.295	217.59
846.467	243.02
846.639	224.78
846.811	223.51
846.983	208.7
847.155	209.48
847.327	195.18
847.499	196.35
847.671	208.27
847.843	200
848.015	187.57
848.187	174.26
848.359	173.44
848.531	184.21
848.703	171.86
848.875	210.83
849.047	206.46
849.218	201.51
849.39	185.82
849.562	209.18
849.734	247.54
849.905	234.04
850.077	261.17
850.249	246.91
850.421	210.7
850.592	202.37
850.764	167.36
850.936	151.14
851.107	149.92
851.279	164.42
851.451	136.71
851.622	141.87
851.794	150.18
851.965	150.2
852.137	143.62
852.308	150.81
852.48	149.35
852.651	161.06
852.823	164.8
852.994	162.2
853.166	158.15
853.337	184.84
853.509	181.53
853.68	173.54
853.851	168.75
854.023	167.24
854.194	149.08
854.365	177.38
854.537	145.97
854.708	166.96
854.879	161.17
855.05	169.31
855.222	148.35
855.393	154.14
855.564	157.38
855.735	157.09
855.906	157.33
856.078	168.6
856.249	136.63
856.42	154.94
856.591	146.16
856.762	147.87
856.933	144.18
857.104	139.35
857.275	130.94
857.446	137.44
857.617	130.66
857.788	134.27
857.959	135.75
858.13	155.51
858.301	154.02
858.472	152.76
858.643	159.73
858.814	166.49
858.985	196.15
859.155	244.28
859.326	224.27
859.497	273.88
859.668	439.16
859.839	408.84
860.009	281.22
860.18	318.88
860.351	261.71
860.522	237.03
860.692	210.57
860.863	187.5
861.034	176.63
861.204	164.21
861.375	136.36
861.546	125.91
861.716	123.91
861.887	150.45
862.057	170.3
862.228	187.98
862.398	177.43
862.569	203.28
862.739	241.28
862.91	210.49
863.08	212.03
863.251	237.89
863.421	232.47
863.592	276.39
863.762	225.65
863.932	175.36
864.103	172.23
864.273	188.21
864.443	156.04
864.614	145.29
864.784	146.3
864.954	168.72
865.125	193.99
865.295	194.08
865.465	218.3
865.635	236.69
865.805	239.48
865.976	261.29
866.146	220.05
866.316	254.03
866.486	285.77
866.656	294.2
866.826	316.92
866.996	266.92
867.166	347.56
867.336	270.18
867.506	191.07
867.676	179.53
867.846	170.38
868.016	181.85
868.186	168.28
868.356	151.92
868.526	148.89
868.696	135.67
868.866	129.89
869.036	131.38
869.206	129.17
869.376	140.28
869.545	149.06
869.715	161.68
869.885	163.45
870.055	165.88
870.224	159.15
870.394	177.23
870.564	204.23
870.734	207.36
870.903	207.27
871.073	206.69
871.243	225.63
871.412	231.88
871.582	202.99
871.751	203.69
871.921	215.94
872.091	269.97
872.26	204.06
872.43	178.99
872.599	179.48
872.769	182.37
872.938	204.55
873.108	185.47
873.277	167.38
873.446	170.53
873.616	176.59
873.785	174.31
873.955	168.37
874.124	169.01
874.293	177.42
874.463	169.75
874.632	162.71
874.801	154.8
874.971	151.33
875.14	190.01
875.309	185.67
875.478	141.74
875.647	126.71
875.817	122.54
875.986	133.17
876.155	127.8
876.324	140.94
876.493	132.94
876.662	130.3
876.831	136.57
877	127
877.17	124.61
877.339	138.08
877.508	148.58
877.677	153.1
877.846	140.55
878.015	145.08
878.184	117.52
878.352	117.82
878.521	119.02
878.69	112.46
878.859	105.33
879.028	101.13
879.197	102.83
879.366	100.94
879.534	95.52
879.703	89.21
879.872	86.14
880.041	87.17
880.21	83.63
880.378	72.77
880.547	69.96
880.716	67.7
880.884	66.97
881.053	63.13
881.222	61.42
881.39	61.71
881.559	59.33
881.727	58.09
881.896	55.61
882.065	55.04
882.233	55.99
882.402	55.54
882.57	56.49
882.739	56.22
882.907	57
883.076	56.63
883.244	54.05
883.412	57.85
883.581	59.38
883.749	63.2
883.918	64.02
884.086	66.45
884.254	69.92
884.423	73.9
884.591	74.83
884.759	77.27
884.927	81.34
885.096	88.95
885.264	89.01
885.432	92.69
885.6	96.24
885.769	102.34
885.937	110.84
886.105	120.34
886.273	113.75
886.441	118.27
886.609	123.05
886.777	113.59
886.945	119.87
887.113	122.05
887.281	115.54
887.449	125.29
887.617	129.25
887.785	120.3
887.953	116.48
888.121	128.61
888.289	139.67
888.457	145.84
888.625	158.41
888.793	153.87
888.961	172.75
889.129	179.64
889.296	182.76
889.464	186.26
889.632	215.51
889.8	236.77
889.967	215.03
890.135	195.54
