Data from JASIL_3304_Reflection_2.txt Node
Date: Tue Nov 17 19:47:08 EST 2015
User: Geneva
Spectrometer: USB4E03002
Autoset integration time: false
Trigger mode: 4
Integration Time (sec): 1.000000E-1
Scans to average: 10
Electric dark correction enabled: false
Nonlinearity correction enabled: false
Boxcar width: 5
Stray light correction enabled: false
XAxis mode: Wavelengths
Stop averaging: false
Number of Pixels in Spectrum: 3648
>>>>>Begin Spectral Data<<<<<
177.575	-296.04
177.794	-409.78
178.014	-528.09
178.233	-922.64
178.452	-863.33
178.672	-419.69
178.891	-775.86
179.11	4730
179.33	893.48
179.549	772.55
179.768	-5136.36
179.987	496.97
180.207	311.07
180.426	428.08
180.645	558.4
180.864	3858.82
181.084	438.55
181.303	369.64
181.522	454.02
181.741	460.67
181.96	791.92
182.179	3905.88
182.398	-772.73
182.618	-219.9
182.837	-214.29
183.056	-216.39
183.275	-211.11
183.494	-96.14
183.713	-84.27
183.932	-51.88
184.151	-40.12
184.37	-27.85
184.589	-48.85
184.808	-54.66
185.027	-41.96
185.246	-82.49
185.465	-73.54
185.684	-92.24
185.903	-105.5
186.122	-171.67
186.341	-483.19
186.56	-347.02
186.779	-1970.37
186.998	-213.76
187.216	-165
187.435	-232.12
187.654	-253.94
187.873	-217.41
188.092	-294.23
188.311	-501.43
188.53	-363.59
188.748	-157.14
188.967	-175.76
189.186	-94.98
189.405	-209.92
189.623	-169.38
189.842	-173.18
190.061	-116.22
190.28	-68.98
190.498	-94.61
190.717	-56.56
190.936	-41.45
191.154	-134.62
191.373	-337.93
191.592	946.51
191.81	294.17
192.029	403.16
192.248	178.92
192.466	293.92
192.685	123.16
192.904	300
193.122	204.76
193.341	289.08
193.559	359.32
193.778	446.41
193.996	430.33
194.215	1236.23
194.433	546.43
194.652	488.81
194.87	358.12
195.089	433.85
195.307	780.7
195.526	-556.12
195.744	-376.26
195.963	-475.33
196.181	-599.17
196.399	-855.17
196.618	1268.42
196.836	882.27
197.055	799.32
197.273	876.87
197.491	1051.35
197.71	521.83
197.928	461.59
198.146	446.23
198.365	2535.71
198.583	1441.27
198.801	-654.03
199.019	-165.12
199.238	-91.54
199.456	-113.95
199.674	-151.48
199.892	-88.29
200.111	-65.96
200.329	-38.44
200.547	-58.33
200.765	643.14
200.983	-314.53
201.202	571.05
201.42	204.29
201.638	163.28
201.856	253.85
202.074	328.67
202.292	253.57
202.51	230.33
202.728	271.33
202.946	1807.14
203.165	934.62
203.383	180.14
203.601	264.47
203.819	548.18
204.037	-1409.09
204.255	-1748.15
204.473	-280.42
204.691	-257.65
204.909	-162.83
205.127	-818.75
205.345	284.85
205.562	-211.63
205.78	-35.22
205.998	-40.54
206.216	13.65
206.434	-16.23
206.652	-35.78
206.87	-154.49
207.088	-56.19
207.306	-139.88
207.523	-168.33
207.741	-174.85
207.959	-344.14
208.177	-459.59
208.395	-403.43
208.612	-457.41
208.83	-325.08
209.048	-316.62
209.266	-245.3
209.483	-183.5
209.701	-216.86
209.919	-194.69
210.136	-208.43
210.354	-228.61
210.572	-238.51
210.79	-258.67
211.007	-585.92
211.225	-5333.33
211.442	1176.27
211.66	3848
211.878	343.19
212.095	456.54
212.313	694.07
212.53	326.54
212.748	215.54
212.966	159.13
213.183	170.43
213.401	-977.78
213.618	6.75
213.836	13.31
214.053	39.91
214.271	43.27
214.488	54.02
214.705	135.15
214.923	74.48
215.14	51.35
215.358	45.08
215.575	38.89
215.793	1.75
216.01	-98.58
216.227	-229.31
216.445	-164.58
216.662	-19.4
216.879	-50
217.097	-6.4
217.314	-17.51
217.531	3675
217.749	306.93
217.966	201.1
218.183	144.98
218.4	74.84
218.618	26.32
218.835	7.63
219.052	21.32
219.269	53.87
219.487	89.06
219.704	75.5
219.921	61.67
220.138	97.24
220.355	95.32
220.572	85.16
220.79	120.6
221.007	177.01
221.224	290.49
221.441	309.09
221.658	314.1
221.875	-917.14
222.092	-456.82
222.309	1727.27
222.526	395.15
222.743	345.41
222.96	407.19
223.177	802.33
223.394	655.26
223.611	346.15
223.828	240
224.045	197.72
224.262	155.5
224.479	210.7
224.696	279.33
224.913	420.66
225.13	447.17
225.347	277.93
225.564	200.64
225.781	94.38
225.997	87.84
226.214	83.08
226.431	75.68
226.648	84.57
226.865	40.39
227.082	38.88
227.298	47.95
227.515	40.22
227.732	45.2
227.949	41.62
228.165	37.48
228.382	34.26
228.599	32.16
228.816	33.8
229.032	31.26
229.249	41.27
229.466	44.73
229.682	35.43
229.899	35.61
230.116	41.84
230.332	48.55
230.549	57.26
230.765	51.01
230.982	43.67
231.199	45.24
231.415	41.88
231.632	45.93
231.848	40.84
232.065	41
232.281	38.25
232.498	38.12
232.714	23.85
232.931	28.17
233.147	32.8
233.364	35.61
233.58	29.54
233.797	37.13
234.013	36.38
234.23	48.07
234.446	44.99
234.662	63.42
234.879	55.24
235.095	65.09
235.312	55.03
235.528	69.17
235.744	85.91
235.961	101.01
236.177	118.51
236.393	127.27
236.61	100.62
236.826	87.35
237.042	46.6
237.258	43.26
237.475	47.61
237.691	58.65
237.907	35.56
238.123	48.59
238.339	52.77
238.556	37.12
238.772	38.63
238.988	31.34
239.204	29.65
239.42	37
239.636	38.41
239.853	37.49
240.069	34.67
240.285	34.53
240.501	30.02
240.717	27.31
240.933	27.72
241.149	25.32
241.365	26.16
241.581	28.07
241.797	31.23
242.013	27.88
242.229	25.28
242.445	20.14
242.661	15.56
242.877	15.15
243.093	14.63
243.309	15.67
243.525	17.92
243.741	20.01
243.957	16.14
244.173	11.27
244.388	16.68
244.604	14.84
244.82	17.73
245.036	21
245.252	22.98
245.468	23.48
245.683	21.4
245.899	21.11
246.115	19.04
246.331	19.2
246.547	19.22
246.762	19.26
246.978	20.69
247.194	21.38
247.409	18.21
247.625	14.96
247.841	15.43
248.057	17.3
248.272	17.18
248.488	20.41
248.703	21.56
248.919	25.76
249.135	21.16
249.35	23.81
249.566	28.01
249.782	33.87
249.997	33.53
250.213	33.02
250.428	28.16
250.644	27.17
250.859	21.83
251.075	18.43
251.29	12.03
251.506	13.78
251.721	13.73
251.937	9.47
252.152	7.71
252.368	9.69
252.583	7.92
252.798	4.56
253.014	0.82
253.229	0.08
253.445	8.23
253.66	17.94
253.875	18.81
254.091	13.67
254.306	16.1
254.521	8.79
254.737	0.61
254.952	4.9
255.167	11.67
255.383	10.14
255.598	13.08
255.813	10.48
256.028	5.18
256.244	9.86
256.459	13.48
256.674	14.3
256.889	17.46
257.104	18.21
257.32	12.43
257.535	12.59
257.75	15.76
257.965	14.1
258.18	11.78
258.395	9.96
258.61	9.48
258.826	8.28
259.041	7.2
259.256	5.6
259.471	5.44
259.686	6.46
259.901	6.44
260.116	5.48
260.331	7.49
260.546	9.87
260.761	12.94
260.976	12.08
261.191	12.46
261.406	12.86
261.621	14.24
261.836	14.98
262.05	13.86
262.265	15.84
262.48	13
262.695	13.07
262.91	9.65
263.125	4.34
263.34	4.87
263.555	3.61
263.769	4.81
263.984	0.38
264.199	6.11
264.414	11.35
264.629	6.67
264.843	14.31
265.058	11.16
265.273	8.23
265.488	11.22
265.702	12.4
265.917	14.63
266.132	14.3
266.346	17.61
266.561	16.44
266.776	15.14
266.99	17.13
267.205	14.57
267.42	11.78
267.634	12.69
267.849	11.59
268.063	6.15
268.278	4.7
268.492	5.29
268.707	5.98
268.922	5.95
269.136	8.14
269.351	6.87
269.565	8.96
269.78	12.42
269.994	13.95
270.209	12.21
270.423	13.87
270.637	14.03
270.852	13.91
271.066	13.25
271.281	15.33
271.495	14.6
271.709	16.65
271.924	14.58
272.138	13.88
272.353	13.48
272.567	15.97
272.781	17.4
272.996	17
273.21	15.74
273.424	15.73
273.638	12.63
273.853	12.44
274.067	10.47
274.281	10.78
274.495	11.23
274.71	13.37
274.924	11.43
275.138	11.66
275.352	12.74
275.566	14.79
275.781	12.33
275.995	14.8
276.209	11.46
276.423	10.6
276.637	10.95
276.851	9.1
277.065	7.81
277.279	6.58
277.493	4.48
277.707	3.08
277.921	1.04
278.135	4.63
278.349	2.26
278.563	6.56
278.777	6.54
278.991	5.71
279.205	8.95
279.419	6.35
279.633	8.27
279.847	11.77
280.061	10.64
280.275	12.37
280.489	11.55
280.703	8.45
280.917	8.2
281.131	9.3
281.344	9.69
281.558	6.14
281.772	7.1
281.986	6.77
282.2	4.66
282.414	6.92
282.627	5.4
282.841	6.41
283.055	6.48
283.269	6.41
283.482	6.03
283.696	5.88
283.91	6.51
284.123	5.97
284.337	7.53
284.551	7.13
284.764	5.33
284.978	4.88
285.192	2.8
285.405	4.51
285.619	3.95
285.833	4.14
286.046	5.67
286.26	7.34
286.473	9.41
286.687	7.75
286.9	9.06
287.114	10.93
287.327	11.89
287.541	14.42
287.754	14.46
287.968	16.21
288.181	15.06
288.395	13.01
288.608	13.28
288.822	11.85
289.035	13.62
289.248	13.75
289.462	13.41
289.675	14.01
289.889	12.94
290.102	11.23
290.315	9.27
290.529	10.95
290.742	10.2
290.955	10.71
291.169	13.57
291.382	12.66
291.595	11.83
291.808	12.5
292.022	11.79
292.235	13.17
292.448	14.57
292.661	16.18
292.875	16.66
293.088	18.28
293.301	14.12
293.514	10.78
293.727	8.92
293.94	7.15
294.153	6.92
294.367	7.8
294.58	6.02
294.793	5.65
295.006	3.31
295.219	2.11
295.432	-0.38
295.645	2.84
295.858	5.68
296.071	5.62
296.284	6.83
296.497	6.53
296.71	7.49
296.923	8.1
297.136	8.02
297.349	9.77
297.562	9.8
297.775	11.75
297.988	11.08
298.201	10.26
298.414	12.1
298.626	10.83
298.839	10.59
299.052	10.95
299.265	11.38
299.478	12.91
299.691	11.9
299.903	11.34
300.116	11.03
300.329	10.28
300.542	9.28
300.755	8.9
300.967	10.84
301.18	12.45
301.393	9.16
301.605	8.35
301.818	7.52
302.031	9.29
302.243	9.7
302.456	10.82
302.669	11.31
302.881	10.33
303.094	11.73
303.307	10.8
303.519	11.67
303.732	14.28
303.944	15.87
304.157	17.97
304.37	16.47
304.582	16.46
304.795	15.81
305.007	17.47
305.22	18.76
305.432	16.01
305.645	15.91
305.857	14.18
306.069	10.48
306.282	8.98
306.494	7.27
306.707	8.64
306.919	7.89
307.132	8.17
307.344	6.23
307.556	4.85
307.769	3.72
307.981	5.1
308.193	4.3
308.406	4.73
308.618	4.09
308.83	2.54
309.043	1.98
309.255	2.44
309.467	2.25
309.679	1.87
309.892	2.6
310.104	4.74
310.316	5.57
310.528	6.14
310.74	6.93
310.953	7.26
311.165	8.82
311.377	9.61
311.589	10.73
311.801	10.12
312.013	11.28
312.225	10.1
312.437	10.26
312.649	7.8
312.862	9.34
313.074	8.66
313.286	8.42
313.498	7.82
313.71	5.7
313.922	6
314.134	6.94
314.346	6.32
314.558	8.22
314.77	7.4
314.982	8.62
315.193	7.52
315.405	8.27
315.617	7.4
315.829	8.24
316.041	10.65
316.253	9.54
316.465	10.72
316.677	10.94
316.888	12.63
317.1	13.28
317.312	15.17
317.524	16.24
317.736	18.36
317.947	20.91
318.159	21.5
318.371	21.84
318.583	20.21
318.794	19.81
319.006	20.37
319.218	19.49
319.43	18.14
319.641	18.81
319.853	17.63
320.064	16.39
320.276	17.97
320.488	16.4
320.699	13.83
320.911	14.72
321.123	14.28
321.334	13.24
321.546	11.77
321.757	14.64
321.969	13.22
322.18	13.94
322.392	14.36
322.603	10.95
322.815	11.3
323.026	12.21
323.238	12.21
323.449	11.73
323.661	11.71
323.872	10.93
324.083	10.02
324.295	9.2
324.506	8.64
324.718	7.09
324.929	8.31
325.14	9.26
325.352	9.5
325.563	9.84
325.774	9.5
325.986	10.2
326.197	12.79
326.408	10.72
326.62	11.48
326.831	11.71
327.042	12.2
327.253	13.2
327.464	13.47
327.676	13.69
327.887	14.49
328.098	14.94
328.309	15.28
328.52	16.09
328.732	16.91
328.943	18
329.154	17.51
329.365	18.1
329.576	17.29
329.787	16.83
329.998	15.9
330.209	17.14
330.42	17.18
330.631	16.56
330.842	17.23
331.053	17.96
331.264	17.25
331.475	16.11
331.686	17.5
331.897	16.03
332.108	16.92
332.319	17.67
332.53	15.48
332.741	16.21
332.952	17.54
333.163	16.05
333.374	18.07
333.585	17.96
333.795	18.5
334.006	17.47
334.217	19.24
334.428	17.42
334.639	17.69
334.849	19.28
335.06	20.04
335.271	20.55
335.482	19.87
335.692	19.23
335.903	18.27
336.114	19.64
336.325	19.2
336.535	18.28
336.746	18.79
336.957	17.96
337.167	17.15
337.378	17.35
337.589	15.71
337.799	13.9
338.01	13.21
338.22	13.57
338.431	12.17
338.642	13.72
338.852	14.37
339.063	13.7
339.273	14.16
339.484	13.65
339.694	12.43
339.905	13.27
340.115	16.16
340.326	15.82
340.536	16.81
340.746	17.04
340.957	15.45
341.167	16.7
341.378	17.17
341.588	16.91
341.799	17.11
342.009	17.49
342.219	16.92
342.43	16.24
342.64	15.67
342.85	15.09
343.061	15.31
343.271	15.78
343.481	14.27
343.691	14.8
343.902	16.46
344.112	17.28
344.322	15.25
344.532	15.05
344.743	14.88
344.953	15.18
345.163	14.51
345.373	14.89
345.583	14.8
345.793	16.16
346.004	16.53
346.214	16.29
346.424	15.07
346.634	16.63
346.844	17.5
347.054	17.6
347.264	18.17
347.474	17.31
347.684	17.16
347.894	16.65
348.104	14.36
348.314	14.57
348.524	13.23
348.734	14.34
348.944	13.81
349.154	13.18
349.364	12.08
349.574	11.42
349.784	12.81
349.994	13.48
350.204	13.13
350.413	13.59
350.623	12.14
350.833	12.93
351.043	12.98
351.253	13.13
351.463	12.07
351.672	12.86
351.882	12.29
352.092	12.22
352.302	11.91
352.511	13.38
352.721	13.37
352.931	13.75
353.141	13.86
353.35	13.64
353.56	13.88
353.77	13.92
353.979	13.53
354.189	13.95
354.399	13.52
354.608	12.76
354.818	12.1
355.027	13.39
355.237	13.25
355.447	13.52
355.656	13.43
355.866	12.96
356.075	14.56
356.285	14.89
356.494	15.57
356.704	16.9
356.913	17.24
357.123	16.95
357.332	16.9
357.542	16.76
357.751	16.13
357.96	15.41
358.17	15.54
358.379	13.99
358.589	13.49
358.798	13.53
359.007	13.3
359.217	13.45
359.426	12.96
359.635	12.72
359.845	13.18
360.054	12.9
360.263	13.49
360.472	13.67
360.682	14.15
360.891	14.53
361.1	14.09
361.309	13.96
361.519	13.42
361.728	13.35
361.937	13.74
362.146	13.98
362.355	13.88
362.564	12.87
362.774	13.16
362.983	12.9
363.192	12.87
363.401	13.4
363.61	13.29
363.819	13.5
364.028	14.29
364.237	13.47
364.446	13.17
364.655	13.29
364.864	14.02
365.073	14.25
365.282	14.14
365.491	14.57
365.7	14.64
365.909	13.85
366.118	14.11
366.327	14.04
366.536	13.12
366.745	13.45
366.954	13.92
367.162	14.7
367.371	14.39
367.58	15.08
367.789	14.46
367.998	14.05
368.207	13.94
368.415	14.27
368.624	14.49
368.833	15.32
369.042	14.84
369.25	14.62
369.459	14.66
369.668	14.22
369.877	14.56
370.085	14.28
370.294	13.57
370.503	14.5
370.711	14.21
370.92	13.65
371.129	13.64
371.337	13.03
371.546	12.84
371.754	12
371.963	12.07
372.171	10.14
372.38	10.31
372.589	11.17
372.797	11.2
373.006	10.78
373.214	9.9
373.423	9.41
373.631	9.79
373.84	8.53
374.048	9
374.256	9.76
374.465	11.3
374.673	11.98
374.882	10.82
375.09	9.53
375.298	10.23
375.507	11.09
375.715	11.56
375.923	12.69
376.132	13.65
376.34	12.04
376.548	12.11
376.757	12.09
376.965	11.3
377.173	12.64
377.381	13.16
377.59	12.8
377.798	13.1
378.006	12.72
378.214	11.99
378.423	11.39
378.631	12.06
378.839	11.56
379.047	11.46
379.255	12.18
379.463	11.91
379.671	12.01
379.879	12.27
380.088	12.14
380.296	12.98
380.504	12.39
380.712	12.57
380.92	12.72
381.128	12.93
381.336	12.67
381.544	11.9
381.752	11.56
381.96	11.72
382.168	10.32
382.376	10.89
382.584	10.8
382.791	10.65
382.999	10.19
383.207	10.53
383.415	10.56
383.623	10.45
383.831	9.97
384.039	10.25
384.247	9.67
384.454	10.28
384.662	9.62
384.87	9.55
385.078	9.38
385.285	9.09
385.493	9.47
385.701	9.11
385.909	9.38
386.116	10.35
386.324	9.12
386.532	8.91
386.739	8.9
386.947	8.41
387.155	7.7
387.362	7.62
387.57	8.1
387.778	6.68
387.985	6.14
388.193	5.4
388.4	5.12
388.608	5.18
388.816	5.15
389.023	5.35
389.231	6.15
389.438	6.6
389.646	6.98
389.853	7.39
390.061	8.35
390.268	8.4
390.475	8.53
390.683	8.36
390.89	8.78
391.098	9.44
391.305	8.37
391.512	8.82
391.72	8.14
391.927	8.52
392.135	8.06
392.342	7.66
392.549	6.99
392.756	7.37
392.964	6.89
393.171	7.82
393.378	7.41
393.586	7.88
393.793	7.13
394	7.58
394.207	6.84
394.414	7.6
394.622	7.99
394.829	9.19
395.036	8.19
395.243	8.6
395.45	7.95
395.657	7.41
395.864	8.24
396.072	8.89
396.279	9.23
396.486	8.97
396.693	8.25
396.9	7.78
397.107	7.94
397.314	8.6
397.521	8.46
397.728	8.1
397.935	8.13
398.142	7.42
398.349	6.1
398.556	5.42
398.763	6.25
398.97	7.08
399.177	6.9
399.383	6.29
399.59	6.61
399.797	6.95
400.004	7.72
400.211	7.95
400.418	7.65
400.625	8.26
400.831	8.65
401.038	7.4
401.245	6.85
401.452	7.01
401.658	6.85
401.865	6.26
402.072	5.85
402.279	4.89
402.485	6.04
402.692	6.44
402.899	6.08
403.105	6.22
403.312	7.18
403.519	7.12
403.725	6.94
403.932	7.06
404.138	8.03
404.345	7.45
404.552	7.68
404.758	7.31
404.965	7.29
405.171	7.62
405.378	7.87
405.584	8.05
405.791	7.83
405.997	8.19
406.204	8.65
406.41	7.79
406.617	8.22
406.823	7.61
407.029	6.75
407.236	6.77
407.442	6.18
407.649	5.54
407.855	4.82
408.061	5.14
408.268	5.12
408.474	4.96
408.68	5.27
408.887	5.89
409.093	6.91
409.299	7.02
409.505	7.25
409.712	7.63
409.918	7.64
410.124	7.69
410.33	7.48
410.537	7.3
410.743	6.86
410.949	7.32
411.155	6.58
411.361	5.57
411.567	5.07
411.773	4.88
411.98	4.36
412.186	4.93
412.392	5.61
412.598	5.18
412.804	4.92
413.01	5.41
413.216	4.72
413.422	4.9
413.628	5.62
413.834	6.19
414.04	6.22
414.246	6.34
414.452	5.79
414.658	5.01
414.864	5.79
415.07	6.15
415.275	5.66
415.481	5.77
415.687	5.64
415.893	5.31
416.099	5.93
416.305	5.59
416.511	5.95
416.716	5.99
416.922	6.42
417.128	6.01
417.334	6.05
417.539	6.36
417.745	6.5
417.951	6.16
418.157	6.62
418.362	6.1
418.568	6.48
418.774	6.42
418.979	6.54
419.185	6.28
419.391	6.26
419.596	6.01
419.802	5.8
420.008	5.18
420.213	5.68
420.419	5.42
420.624	5.6
420.83	5.42
421.035	5.56
421.241	5.57
421.446	5.67
421.652	5.79
421.857	5.89
422.063	6.22
422.268	6.46
422.474	6.15
422.679	5.97
422.885	5.62
423.09	5.86
423.295	5.7
423.501	5.34
423.706	5.33
423.911	5.44
424.117	5.24
424.322	5.2
424.527	5.27
424.733	5.64
424.938	5.46
425.143	5.66
425.349	5.31
425.554	5.39
425.759	5.46
425.964	4.94
426.169	4.77
426.375	5.57
426.58	5.39
426.785	5.52
426.99	5.13
427.195	5.26
427.4	5.31
427.605	5.82
427.811	6.03
428.016	6.1
428.221	6.97
428.426	7.53
428.631	6.73
428.836	6.31
429.041	6.12
429.246	6.22
429.451	6.32
429.656	6.54
429.861	6.09
430.066	5.96
430.271	6.37
430.476	6.22
430.681	5.5
430.886	5.89
431.09	6.15
431.295	6.2
431.5	6.24
431.705	6.54
431.91	6.17
432.115	6.42
432.32	6.13
432.524	6.09
432.729	5.77
432.934	5.88
433.139	5.64
433.343	5.61
433.548	5.26
433.753	5.01
433.958	4.92
434.162	5.15
434.367	5.09
434.572	5.18
434.776	5.04
434.981	5.31
435.186	5.09
435.39	5.24
435.595	4.95
435.799	5.3
436.004	5.21
436.209	5.33
436.413	5.06
436.618	4.73
436.822	4.67
437.027	4.95
437.231	4.53
437.436	4.7
437.64	4.73
437.845	4.75
438.049	4.52
438.253	4.57
438.458	4.34
438.662	4.22
438.867	4.36
439.071	4.3
439.275	4.27
439.48	4.51
439.684	4.69
439.888	4.64
440.093	4.65
440.297	4.98
440.501	5.23
440.706	5.35
440.91	5.33
441.114	5.2
441.318	5.36
441.523	5.22
441.727	5.26
441.931	5.22
442.135	5.3
442.339	5.54
442.543	5.38
442.748	5.15
442.952	4.89
443.156	4.85
443.36	5.08
443.564	4.92
443.768	5
443.972	5.59
444.176	5.32
444.38	5.07
444.584	4.88
444.788	4.97
444.992	4.99
445.196	5.04
445.4	5.19
445.604	4.85
445.808	4.91
446.012	4.67
446.216	4.3
446.42	4.26
446.624	4.4
446.828	4.48
447.032	4.24
447.235	4.3
447.439	4.35
447.643	4.56
447.847	4.93
448.051	4.84
448.254	4.9
448.458	4.84
448.662	4.86
448.866	4.77
449.069	4.46
449.273	4.5
449.477	4.6
449.681	4.78
449.884	4.54
450.088	4.29
450.292	4.48
450.495	4.29
450.699	4.47
450.902	4.56
451.106	4.4
451.31	4.88
451.513	5.45
451.717	5.19
451.92	5.01
452.124	5.2
452.327	5.31
452.531	5.53
452.734	5.48
452.938	5.19
453.141	5.31
453.345	5.25
453.548	5.34
453.752	5.19
453.955	5.06
454.158	5.28
454.362	4.9
454.565	4.42
454.769	4.68
454.972	4.92
455.175	5.38
455.379	5.5
455.582	5.96
455.785	5.56
455.988	5.09
456.192	4.98
456.395	4.52
456.598	4.72
456.801	5.4
457.005	4.91
457.208	4.65
457.411	4.23
457.614	3.7
457.817	3.29
458.021	3.17
458.224	3.32
458.427	3.32
458.63	3.5
458.833	3.81
459.036	3.5
459.239	3.39
459.442	3.52
459.645	3.52
459.848	3.88
460.051	4.1
460.254	4.62
460.457	4.85
460.66	5.25
460.863	5.28
461.066	4.94
461.269	4.82
461.472	5.32
461.675	5.17
461.878	5.09
462.081	5.24
462.284	5.35
462.486	4.47
462.689	4.04
462.892	4.1
463.095	4.19
463.298	4.26
463.5	4.55
463.703	4.25
463.906	4.46
464.109	4.93
464.311	4.78
464.514	4.76
464.717	5.02
464.92	5.5
465.122	5.39
465.325	5.28
465.528	5.05
465.73	4.98
465.933	5.02
466.135	4.95
466.338	4.7
466.541	4.66
466.743	4.66
466.946	4.69
467.148	4.42
467.351	4.54
467.553	4.65
467.756	4.77
467.958	5.03
468.161	4.97
468.363	5
468.566	5.01
468.768	4.67
468.971	4.48
469.173	4.9
469.375	5.18
469.578	4.65
469.78	4.45
469.983	4.44
470.185	4.07
470.387	4.05
470.59	3.79
470.792	3.75
470.994	3.96
471.196	3.94
471.399	3.53
471.601	3.32
471.803	3.71
472.005	3.67
472.208	3.89
472.41	4.13
472.612	4.09
472.814	4.64
473.016	4.54
473.218	4.9
473.421	4.82
473.623	5.15
473.825	5.12
474.027	5.09
474.229	5.44
474.431	5
474.633	5.05
474.835	4.78
475.037	4.65
475.239	4.83
475.441	4.61
475.643	4.65
475.845	4.63
476.047	4.69
476.249	4.44
476.451	4.17
476.653	4.39
476.855	4.29
477.057	4.45
477.258	4.16
477.46	4.1
477.662	4.15
477.864	4.27
478.066	4.27
478.268	4.24
478.469	4.65
478.671	4.42
478.873	4.37
479.075	4.28
479.276	4.16
479.478	4.19
479.68	4.33
479.882	4.24
480.083	4.35
480.285	4.23
480.487	4.32
480.688	4.13
480.89	4.41
481.091	4.34
481.293	4.29
481.495	4.4
481.696	4.4
481.898	4.29
482.099	4.31
482.301	4.07
482.502	3.97
482.704	3.83
482.905	3.79
483.107	3.76
483.308	3.75
483.51	3.77
483.711	3.7
483.913	3.79
484.114	3.74
484.315	3.61
484.517	3.88
484.718	4
484.92	4.24
485.121	4.29
485.322	4.26
485.524	4.34
485.725	4.5
485.926	4.44
486.127	4.35
486.329	4.36
486.53	4.39
486.731	4.16
486.932	4.04
487.134	3.9
487.335	3.86
487.536	3.91
487.737	3.89
487.938	3.71
488.139	3.87
488.341	3.88
488.542	3.98
488.743	4.05
488.944	4.03
489.145	4.01
489.346	3.9
489.547	3.86
489.748	3.96
489.949	3.9
490.15	4
490.351	3.94
490.552	3.95
490.753	3.83
490.954	3.7
491.155	3.86
491.356	3.87
491.557	3.93
491.758	4.16
491.959	4.06
492.159	4.24
492.36	4.33
492.561	4.25
492.762	4.2
492.963	4.27
493.164	4.56
493.364	4.61
493.565	4.93
493.766	4.98
493.967	4.92
494.167	4.94
494.368	4.7
494.569	4.3
494.769	4.56
494.97	4.39
495.171	4.62
495.371	4.3
495.572	4.39
495.773	4.31
495.973	4.32
496.174	4.24
496.375	4.43
496.575	4.21
496.776	4.26
496.976	4.01
497.177	4.08
497.377	3.73
497.578	3.91
497.778	3.47
497.979	3.72
498.179	3.49
498.38	3.54
498.58	3.44
498.78	3.83
498.981	4.1
499.181	4.28
499.382	4.49
499.582	4.81
499.782	5.13
499.983	5.49
500.183	5.42
500.383	5.66
500.584	5.5
500.784	5.33
500.984	5.22
501.184	5.2
501.385	5.1
501.585	5.1
501.785	4.98
501.985	4.69
502.185	4.88
502.386	5.1
502.586	5.2
502.786	5.36
502.986	5.37
503.186	5.34
503.386	5.61
503.586	6.12
503.786	6.35
503.987	6.44
504.187	6.27
504.387	6.22
504.587	5.54
504.787	5.54
504.987	5.69
505.187	5.7
505.387	5.78
505.587	5.61
505.786	5.3
505.986	5.16
506.186	4.8
506.386	5.14
506.586	5.35
506.786	5.71
506.986	5.49
507.186	5.55
507.386	5.6
507.585	5.79
507.785	5.85
507.985	5.82
508.185	6.07
508.384	6.81
508.584	7.13
508.784	7.28
508.984	7.53
509.183	8
509.383	7.85
509.583	8.04
509.782	7.83
509.982	8.12
510.182	8.17
510.381	7.92
510.581	7.36
510.781	7.22
510.98	7.01
511.18	6.88
511.379	6.49
511.579	6.42
511.778	6.37
511.978	6.53
512.177	6.15
512.377	6.26
512.576	6.48
512.776	6.55
512.975	6.16
513.175	6.18
513.374	6.47
513.573	6.82
513.773	7.12
513.972	7.45
514.172	7.64
514.371	7.57
514.57	8.01
514.77	7.98
514.969	8.1
515.168	8.73
515.367	8.84
515.567	8.63
515.766	8.63
515.965	8.66
516.164	8.47
516.364	8.44
516.563	8.59
516.762	8.31
516.961	8.26
517.16	8.51
517.359	8.32
517.559	8.24
517.758	8.26
517.957	8.43
518.156	8.56
518.355	8.64
518.554	8.67
518.753	8.59
518.952	8.48
519.151	8.34
519.35	8.56
519.549	8.8
519.748	8.91
519.947	8.75
520.146	8.51
520.345	8.49
520.544	8.33
520.743	8.66
520.942	8.97
521.141	9.03
521.339	9.39
521.538	9.31
521.737	9.27
521.936	9.4
522.135	9.71
522.333	10.21
522.532	10.47
522.731	10.86
522.93	10.72
523.129	10.91
523.327	11.28
523.526	11.23
523.725	11.3
523.923	11.26
524.122	11.11
524.321	11.17
524.519	11.03
524.718	10.79
524.917	10.87
525.115	10.93
525.314	10.76
525.512	10.78
525.711	10.94
525.909	10.9
526.108	11.14
526.306	11.39
526.505	11.44
526.703	11.46
526.902	11.45
527.1	11.46
527.299	11.45
527.497	11.55
527.696	11.55
527.894	11.59
528.092	11.68
528.291	11.57
528.489	11.59
528.688	11.67
528.886	11.74
529.084	11.85
529.283	11.95
529.481	12.04
529.679	12.14
529.877	12.35
530.076	12.45
530.274	12.59
530.472	12.62
530.67	12.73
530.869	12.78
531.067	12.99
531.265	13.11
531.463	13.1
531.661	13.4
531.859	13.68
532.057	13.61
532.255	13.77
532.454	13.64
532.652	13.76
532.85	13.77
533.048	13.84
533.246	13.96
533.444	13.92
533.642	14.05
533.84	14.12
534.038	13.95
534.236	13.98
534.434	14.16
534.632	14.5
534.83	14.72
535.027	14.86
535.225	14.99
535.423	14.99
535.621	15.14
535.819	15.31
536.017	15.36
536.215	15.63
536.412	15.8
536.61	15.58
536.808	15.58
537.006	15.66
537.203	15.86
537.401	15.87
537.599	15.97
537.797	16.17
537.994	16.08
538.192	16.19
538.39	16.08
538.587	16.27
538.785	16.44
538.983	16.73
539.18	16.84
539.378	16.7
539.575	16.82
539.773	16.7
539.97	16.83
540.168	17
540.366	16.94
540.563	17.02
540.761	17.03
540.958	17.01
541.155	16.85
541.353	16.89
541.55	17.08
541.748	17.1
541.945	17.24
542.143	17.19
542.34	17.23
542.537	17.39
542.735	17.65
542.932	17.72
543.129	17.85
543.327	17.96
543.524	17.9
543.721	18
543.919	18.15
544.116	18.24
544.313	18.73
544.51	18.85
544.708	18.91
544.905	18.6
545.102	18.86
545.299	19.03
545.496	19.14
545.693	19.51
545.891	19.34
546.088	19.34
546.285	19.58
546.482	19.36
546.679	19.3
546.876	19.3
547.073	19.59
547.27	19.6
547.467	19.63
547.664	19.47
547.861	19.59
548.058	19.97
548.255	20.28
548.452	20.17
548.649	20.53
548.846	20.9
549.043	20.95
549.24	21.12
549.437	21.04
549.633	21.43
549.83	22
550.027	21.76
550.224	21.48
550.421	21.62
550.618	21.61
550.814	21.62
551.011	21.32
551.208	21.39
551.405	21.72
551.601	21.69
551.798	21.42
551.995	21.31
552.191	21.69
552.388	22.01
552.585	22.46
552.781	22.56
552.978	22.68
553.175	22.69
553.371	22.55
553.568	22.83
553.764	23.21
553.961	23.62
554.157	23.82
554.354	23.15
554.55	23.07
554.747	22.48
554.943	23.01
555.14	23.01
555.336	23.33
555.533	23.73
555.729	23.25
555.926	22.9
556.122	22.62
556.318	22.81
556.515	23.52
556.711	24.03
556.907	23.95
557.104	23.77
557.3	23.9
557.496	23.94
557.693	23.84
557.889	23.81
558.085	24.43
558.281	24.85
558.478	24.9
558.674	24.93
558.87	24.74
559.066	24.95
559.262	24.86
559.459	24.82
559.655	24.8
559.851	24.77
560.047	24.95
560.243	24.71
560.439	24.58
560.635	24.71
560.831	24.92
561.027	24.95
561.223	25.22
561.419	25.41
561.615	25.54
561.811	25.62
562.007	25.76
562.203	25.96
562.399	26.05
562.595	26
562.791	26.27
562.987	26.15
563.183	26.15
563.379	25.91
563.575	25.79
563.771	25.42
563.966	25.68
564.162	25.9
564.358	25.98
564.554	25.97
564.75	26.55
564.945	26.17
565.141	26.34
565.337	26.22
565.533	26.63
565.728	26.93
565.924	27.34
566.12	27.02
566.315	26.98
566.511	26.52
566.707	26.74
566.902	26.5
567.098	26.96
567.293	26.93
567.489	27.26
567.684	26.99
567.88	26.75
568.076	26.7
568.271	27.26
568.467	27.27
568.662	27.6
568.858	27.47
569.053	27.51
569.248	27.34
569.444	27.34
569.639	27.39
569.835	27.68
570.03	28.02
570.225	27.99
570.421	28.03
570.616	28.29
570.812	28.4
571.007	28.69
571.202	28.84
571.397	28.8
571.593	28.86
571.788	28.94
571.983	28.54
572.178	28.17
572.374	27.96
572.569	27.63
572.764	27.89
572.959	27.99
573.154	27.96
573.35	27.77
573.545	27.93
573.74	27.9
573.935	27.83
574.13	28.23
574.325	28.52
574.52	28.54
574.715	28.8
574.91	28.63
575.105	29.08
575.3	28.93
575.495	28.96
575.69	29.14
575.885	28.95
576.08	28.8
576.275	28.95
576.47	29.31
576.665	29.39
576.86	29.08
577.055	29.13
577.25	28.63
577.444	28.74
577.639	28.83
577.834	28.85
578.029	29.42
578.224	29.64
578.418	29.61
578.613	29.23
578.808	30.05
579.003	30.04
579.197	29.87
579.392	29.96
579.587	30.16
579.781	30.08
579.976	30.05
580.171	30.13
580.365	29.83
580.56	29.54
580.755	29.6
580.949	29.39
581.144	29.95
581.338	29.93
581.533	29.94
581.727	30.11
581.922	30.08
582.116	29.94
582.311	29.35
582.505	30.42
582.7	30.94
582.894	31.48
583.089	31.41
583.283	31.1
583.478	31.48
583.672	31.48
583.866	31.33
584.061	31.47
584.255	31.77
584.449	32.42
584.644	31.97
584.838	32.22
585.032	32.07
585.226	32.31
585.421	33.15
585.615	33.08
585.809	33.22
586.003	33.14
586.198	33.71
586.392	33.82
586.586	33.92
586.78	34.24
586.974	33.55
587.168	33.79
587.363	33.83
587.557	33.39
587.751	33.63
587.945	34.14
588.139	33.99
588.333	33.95
588.527	33.54
588.721	33.7
588.915	33.28
589.109	33.57
589.303	33.34
589.497	33.61
589.691	33.48
589.885	33.44
590.079	32.76
590.273	32.88
590.466	32.98
590.66	33.27
590.854	32.88
591.048	33.06
591.242	33.41
591.436	33.13
591.629	32.69
591.823	32.94
592.017	32.55
592.211	32.83
592.404	33.45
592.598	33.06
592.792	33.05
592.986	33
593.179	32.88
593.373	32.61
593.567	32.68
593.76	32.99
593.954	32.86
594.147	32.98
594.341	32.97
594.535	32.99
594.728	33.07
594.922	32.96
595.115	32.92
595.309	33.04
595.502	33.2
595.696	33.39
595.889	33.12
596.083	33.27
596.276	33.08
596.47	33.04
596.663	32.8
596.856	32.8
597.05	32.98
597.243	32.88
597.437	33.07
597.63	32.92
597.823	32.87
598.017	32.99
598.21	32.29
598.403	32.38
598.596	32.56
598.79	33.28
598.983	33.56
599.176	33
599.369	33.59
599.563	33.36
599.756	33.71
599.949	33.73
600.142	34.18
600.335	34.68
600.528	35.01
600.722	35.08
600.915	34.49
601.108	34.36
601.301	34.54
601.494	33.92
601.687	34.04
601.88	33.62
602.073	33.35
602.266	33.15
602.459	33.64
602.652	33.48
602.845	33.38
603.038	33.19
603.231	33.07
603.424	33.41
603.617	34
603.809	34.21
604.002	34.35
604.195	34.75
604.388	34.73
604.581	34.56
604.774	34.98
604.966	35.11
605.159	35.11
605.352	34.89
605.545	34.72
605.737	34.24
605.93	34.01
606.123	33.85
606.316	34.04
606.508	33.7
606.701	33.62
606.894	32.93
607.086	32.97
607.279	33.21
607.471	33.72
607.664	33.59
607.857	33.92
608.049	34.32
608.242	34.55
608.434	34.54
608.627	35.17
608.819	35.14
609.012	35.64
609.204	35.35
609.397	35.21
609.589	35.07
609.782	35.23
609.974	35.22
610.166	34.67
610.359	35.02
610.551	34.68
610.743	34.37
610.936	34.22
611.128	34.24
611.32	34.64
611.513	34.95
611.705	35.21
611.897	35.75
612.09	36.02
612.282	36.72
612.474	36.79
612.666	37.7
612.858	38.1
613.051	38.78
613.243	38.13
613.435	38.59
613.627	38.21
613.819	38.13
614.011	37.02
614.203	37.15
614.395	37.01
614.588	36.73
614.78	36.01
614.972	36.45
615.164	36.57
615.356	37.17
615.548	36.89
615.74	37.41
615.932	36.96
616.124	38.15
616.315	38.03
616.507	38.01
616.699	37.9
616.891	38.46
617.083	37.97
617.275	38.19
617.467	38.22
617.659	38.4
617.85	38.83
618.042	40.21
618.234	39.67
618.426	39.91
618.618	39.7
618.809	39.68
619.001	39.69
619.193	39.98
619.384	39.63
619.576	39.99
619.768	39.47
619.959	38.84
620.151	38.17
620.343	38.57
620.534	38.76
620.726	39.16
620.917	39.84
621.109	39.53
621.301	39.7
621.492	39.64
621.684	39.27
621.875	39.22
622.067	38.87
622.258	39.31
622.45	38.9
622.641	38.47
622.832	38.56
623.024	37.34
623.215	37.7
623.407	37.07
623.598	37.1
623.789	37.52
623.981	37.9
624.172	38.77
624.363	38.08
624.555	38.04
624.746	37.66
624.937	37.58
625.129	38.11
625.32	37.61
625.511	37.78
625.702	37.48
625.893	37.08
626.085	37.09
626.276	36.81
626.467	36.78
626.658	36.85
626.849	37.2
627.04	36.95
627.231	37.53
627.422	37.8
627.614	37.59
627.805	37.71
627.996	38.19
628.187	37.99
628.378	37.91
628.569	38.2
628.76	38.68
628.951	38.87
629.142	39.28
629.332	38.8
629.523	38.9
629.714	39.01
629.905	39.24
630.096	38.64
630.287	39.05
630.478	38.91
630.669	38.55
630.859	38.08
631.05	38.25
631.241	37.45
631.432	37.37
631.623	37.05
631.813	36.75
632.004	36.29
632.195	36.48
632.385	36.32
632.576	36.54
632.767	37.34
632.957	38.06
633.148	37.87
633.339	37.97
633.529	38.33
633.72	38.13
633.91	37.53
634.101	38.43
634.292	39.21
634.482	39
634.673	39.37
634.863	38.69
635.054	38.27
635.244	38.77
635.435	39.33
635.625	39.21
635.815	39.8
636.006	40.69
636.196	41.08
636.387	40.79
636.577	41.31
636.767	40.64
636.958	40.93
637.148	40.75
637.338	40.7
637.529	40.35
637.719	40.69
637.909	41.12
638.099	41.94
638.29	40.83
638.48	40.62
638.67	40.41
638.86	40.91
639.05	40.83
639.241	41.15
639.431	40.39
639.621	41.08
639.811	40.58
640.001	40.02
640.191	39.24
640.381	39.83
640.571	40.58
640.761	41.15
640.951	40.99
641.141	41.46
641.331	41.11
641.521	41.94
641.711	41.54
641.901	42.04
642.091	41.9
642.281	42.1
642.471	42.26
642.661	42.03
642.851	41.11
643.041	40.66
643.231	40.7
643.42	41.46
643.61	41.26
643.8	41.28
643.99	40.84
644.18	40.66
644.369	41.27
644.559	41.37
644.749	40.98
644.939	41.14
645.128	42.03
645.318	41.46
645.508	41.16
645.697	41.24
645.887	41.39
646.076	42.14
646.266	42.77
646.456	41.78
646.645	41.52
646.835	41.82
647.024	41.95
647.214	41.34
647.403	41.66
647.593	41.91
647.782	41.62
647.972	41.61
648.161	40.42
648.351	40.39
648.54	40.98
648.73	41.19
648.919	40.5
649.108	40.55
649.298	41.1
649.487	41.63
649.677	41.66
649.866	42.09
650.055	41.83
650.244	42.61
650.434	42.73
650.623	42.56
650.812	42.83
651.002	43.96
651.191	43.63
651.38	43.39
651.569	43.23
651.758	43.13
651.947	42.65
652.137	43.08
652.326	43.16
652.515	42.87
652.704	43.15
652.893	42.77
653.082	42.37
653.271	43.13
653.46	42.23
653.649	41.31
653.838	41.54
654.027	42.01
654.216	41.68
654.405	41.76
654.594	41.82
654.783	41.57
654.972	41.87
655.161	41.68
655.35	41.68
655.539	43.05
655.728	43.53
655.916	42.73
656.105	42.56
656.294	42.94
656.483	42.42
656.672	41.87
656.86	41.7
657.049	41.03
657.238	40.49
657.427	40.54
657.615	39.52
657.804	39.62
657.993	39.74
658.181	39.99
658.37	39.83
658.559	39.31
658.747	39.97
658.936	40.02
659.125	40.16
659.313	40.02
659.502	39.72
659.69	40.5
659.879	40.89
660.067	40.69
660.256	40.66
660.444	41.96
660.633	42.58
660.821	42.49
661.01	42.7
661.198	43.13
661.387	43.82
661.575	44.5
661.763	45.26
661.952	44.89
662.14	45.57
662.328	45.05
662.517	44.49
662.705	45
662.893	45.5
663.082	46.22
663.27	46.06
663.458	46.36
663.646	45.64
663.834	44.6
664.023	44.85
664.211	44.92
664.399	45.64
664.587	44.85
664.775	44.51
664.963	44.09
665.152	43.98
665.34	43.67
665.528	43.98
665.716	44.52
665.904	45.91
666.092	45.14
666.28	45.08
666.468	44.34
666.656	44.86
666.844	46.06
667.032	45.69
667.22	45.38
667.408	45.26
667.596	45.25
667.784	45.03
667.971	43.74
668.159	44.39
668.347	44.3
668.535	44.23
668.723	42.84
668.911	41.16
669.098	40.77
669.286	40.8
669.474	41.41
669.662	40.4
669.849	39.78
670.037	40.74
670.225	41.25
670.413	40.67
670.6	40.31
670.788	40.96
670.976	42.41
671.163	42.57
671.351	42.06
671.538	41.24
671.726	42.22
671.913	43.62
672.101	42.45
672.289	42.06
672.476	43.03
672.664	44.11
672.851	43.43
673.039	42.87
673.226	43.07
673.413	43.4
673.601	44.4
673.788	44.7
673.976	43.26
674.163	44.08
674.35	44.88
674.538	44.6
674.725	44.17
674.912	44.83
675.1	45.23
675.287	45.31
675.474	45.25
675.662	44.64
675.849	43.85
676.036	43.84
676.223	44.14
676.411	43.34
676.598	43.26
676.785	44.01
676.972	45.35
677.159	45.44
677.346	44.86
677.533	45.88
677.721	45.65
677.908	46.01
678.095	46.4
678.282	45.96
678.469	44.53
678.656	44.48
678.843	43.48
679.03	42.59
679.217	42.22
679.404	42.56
679.591	42.5
679.778	43.1
679.964	43.16
680.151	43.13
680.338	42.99
680.525	44.3
680.712	44.38
680.899	44.57
681.086	45.28
681.272	45.75
681.459	45.51
681.646	44.19
681.833	44.25
682.02	44.67
682.206	45.8
682.393	46.17
682.58	46.63
682.766	49.27
682.953	50.24
683.14	49.85
683.326	50.01
683.513	51.1
683.7	52.75
683.886	54.13
684.073	53.7
684.259	53.34
684.446	53.42
684.632	53.7
684.819	51.21
685.005	50.69
685.192	49.94
685.378	49.31
685.565	48.66
685.751	46.95
685.938	44.65
686.124	43.54
686.31	42.98
686.497	43.36
686.683	43.27
686.87	43.09
687.056	43.18
687.242	43.33
687.429	43.52
687.615	43.64
687.801	45.13
687.987	45.63
688.174	46.56
688.36	47.26
688.546	46.29
688.732	45.71
688.918	45.59
689.105	45.42
689.291	46.54
689.477	46.08
689.663	46.39
689.849	46.35
690.035	47.25
690.221	47.49
690.407	47.01
690.593	47.18
690.779	47.51
690.965	47.84
691.151	48.05
691.337	48.02
691.523	47.84
691.709	48.49
691.895	48.14
692.081	48.18
692.267	48.28
692.453	48.61
692.639	50.07
692.825	50.3
693.011	50.13
693.196	50.15
693.382	49.54
693.568	50.05
693.754	50.57
693.94	50.98
694.125	50.88
694.311	50.79
694.497	50.03
694.682	49.66
694.868	48.69
695.054	47.82
695.239	48.86
695.425	49.69
695.611	48.44
695.796	46.68
695.982	46.45
696.168	46.3
696.353	46.3
696.539	46.47
696.724	45.89
696.91	45.89
697.095	46.56
697.281	46.47
697.466	45.28
697.652	46.51
697.837	46.68
698.023	46.66
698.208	46.84
698.393	46.83
698.579	46.33
698.764	46.01
698.949	45.9
699.135	46.08
699.32	45.69
699.505	46.85
699.691	46.45
699.876	46.77
700.061	47.14
700.246	46.74
700.432	46.58
700.617	47.42
700.802	47.13
700.987	48.94
701.172	49.87
701.358	49.22
701.543	49.08
701.728	50.43
701.913	50.94
702.098	50.94
702.283	51.38
702.468	51.64
702.653	51.91
702.838	52.84
703.023	51.97
703.208	51.2
703.393	53.12
703.578	52.51
703.763	52.19
703.948	51.81
704.133	52.09
704.318	52.77
704.503	52.37
704.688	52.49
704.873	51.65
705.057	52.36
705.242	52.28
705.427	51.78
705.612	51.5
705.797	50.24
705.981	49.61
706.166	50.14
706.351	49.46
706.536	50.54
706.72	50.56
706.905	51.4
707.09	51.04
707.274	51.64
707.459	50.94
707.644	51.59
707.828	51.78
708.013	53.24
708.197	50.83
708.382	49.97
708.567	49.16
708.751	49.47
708.936	50.14
709.12	50.23
709.305	50.6
709.489	51.05
709.673	49.83
709.858	50.62
710.042	50.16
710.227	51.7
710.411	53.74
710.596	53.79
710.78	52.67
710.964	51.7
711.149	51.12
711.333	49.9
711.517	49.26
711.702	50.1
711.886	49.85
712.07	48.67
712.254	49.54
712.438	48.68
712.623	47.93
712.807	47.87
712.991	48.7
713.175	49.26
713.359	50.84
713.544	51.01
713.728	52.71
713.912	53.2
714.096	54.21
714.28	52.18
714.464	51.37
714.648	52.45
714.832	53.44
715.016	53.07
715.2	52.3
715.384	51.44
715.568	51.52
715.752	48.6
715.936	47.07
716.12	46.96
716.304	47.94
716.488	48.43
716.671	49.39
716.855	50.79
717.039	50.93
717.223	50.36
717.407	50.79
717.59	50.24
717.774	53.48
717.958	54.89
718.142	56.19
718.325	56.17
718.509	57.19
718.693	57.33
718.877	56.43
719.06	58.18
719.244	59.21
719.428	61.07
719.611	62.59
719.795	59.99
719.978	61.56
720.162	59.17
720.345	60.33
720.529	60.91
720.713	60.51
720.896	60.65
721.08	61.07
721.263	62.35
721.446	60.73
721.63	60.11
721.813	61.78
721.997	60.03
722.18	62.74
722.364	62.66
722.547	60.53
722.73	61.12
722.914	60.26
723.097	58.9
723.28	57.29
723.464	56.11
723.647	55.54
723.83	54.19
724.013	54.78
724.197	53.14
724.38	52.88
724.563	54.53
724.746	54.81
724.929	55.4
725.112	53.62
725.296	55
725.479	53.78
725.662	54.56
725.845	54.38
726.028	54.06
726.211	52.9
726.394	53.54
726.577	52.38
726.76	50.1
726.943	50.47
727.126	51.65
727.309	50.67
727.492	51.05
727.675	50.03
727.858	51.86
728.041	52.13
728.224	54.09
728.407	51.45
728.589	52.15
728.772	53
728.955	52.77
729.138	52.75
729.321	53.62
729.503	53.99
729.686	54.85
729.869	52.26
730.052	51.94
730.234	51.83
730.417	52.93
730.6	52.62
730.782	51.98
730.965	51.83
731.148	51.74
731.33	51.07
731.513	51.3
731.695	51.26
731.878	52.47
732.061	51.58
732.243	51.24
732.426	51.61
732.608	51.79
732.791	51.72
732.973	51.36
733.156	51.86
733.338	52.83
733.52	53.11
733.703	53.6
733.885	56.03
734.068	57.21
734.25	59.15
734.432	60.81
734.615	60.71
734.797	61.54
734.979	62.35
735.162	62.19
735.344	59.85
735.526	60.44
735.708	59.5
735.891	57.96
736.073	57.92
736.255	56.37
736.437	55.18
736.619	54
736.802	53.82
736.984	53.62
737.166	52.79
737.348	55.09
737.53	54.42
737.712	54.76
737.894	54.7
738.076	54.15
738.258	54.92
738.44	54.04
738.622	55.07
738.804	56.66
738.986	54.35
739.168	55.82
739.35	54.67
739.532	55.91
739.714	57.44
739.896	58.39
740.078	60.46
740.259	58.77
740.441	58.25
740.623	58.03
740.805	55.61
740.987	58.1
741.168	56.98
741.35	57.82
741.532	56.33
741.714	56.07
741.895	54.47
742.077	53.35
742.259	54.3
742.44	54.87
742.622	56.36
742.804	57.12
742.985	56.95
743.167	58.84
743.348	58.45
743.53	60.64
743.711	59.77
743.893	60.25
744.075	61.88
744.256	60.49
744.438	61.69
744.619	59.28
744.8	59.99
744.982	59.14
745.163	58.66
745.345	58.83
745.526	57.5
745.707	58.41
745.889	58.67
746.07	58.82
746.252	62.41
746.433	62.86
746.614	66.24
746.795	66.53
746.977	70.34
747.158	69.88
747.339	69.39
747.52	67.73
747.702	67.3
747.883	67.35
748.064	66.85
748.245	64.27
748.426	64.72
748.607	62.24
748.788	60.46
748.97	56.82
749.151	54.6
749.332	55.64
749.513	56.69
749.694	55.69
749.875	56.23
750.056	53.92
750.237	54.8
750.418	56.54
750.599	56.2
750.78	56.33
750.96	58.09
751.141	58.26
751.322	58.09
751.503	58.72
751.684	59.69
751.865	58.2
752.046	60.54
752.226	59.54
752.407	55.8
752.588	60.36
752.769	61.49
752.949	60.35
753.13	60.41
753.311	59.22
753.492	60.45
753.672	60.68
753.853	63.39
754.034	60.57
754.214	60.41
754.395	61.02
754.575	55.93
754.756	54.7
754.937	55.57
755.117	57.16
755.298	59.73
755.478	59.68
755.659	59.83
755.839	59.36
756.02	60.66
756.2	62.92
756.381	64.04
756.561	66.47
756.741	67.5
756.922	66.47
757.102	62.98
757.283	60.76
757.463	60.21
757.643	59.46
757.823	60.45
758.004	59.93
758.184	57.57
758.364	58.44
758.545	58.83
758.725	60.9
758.905	61.41
759.085	64.83
759.265	66.86
759.446	66.18
759.626	69.09
759.806	68.9
759.986	67.28
760.166	67.13
760.346	66.68
760.526	64.56
760.706	62.09
760.886	61.64
761.066	61.73
761.246	59.42
761.426	59.5
761.606	56.92
761.786	55.66
761.966	56.49
762.146	56.67
762.326	55.33
762.506	55.29
762.686	55.39
762.866	54.49
763.046	53.01
763.225	52.68
763.405	51.14
763.585	50.78
763.765	51.14
763.945	52.11
764.124	51.54
764.304	51.43
764.484	52.43
764.664	52.34
764.843	53.29
765.023	54.09
765.203	52.95
765.382	56.47
765.562	56.99
765.741	56.59
765.921	56.41
766.101	57.7
766.28	58.27
766.46	57.79
766.639	58.75
766.819	60.6
766.998	61.92
767.178	66.23
767.357	63.34
767.537	65.28
767.716	67.38
767.896	68.23
768.075	67.05
768.254	65.86
768.434	64.87
768.613	66.82
768.792	65.77
768.972	67.19
769.151	65.08
769.33	65.18
769.51	63.65
769.689	62.15
769.868	62.35
770.047	64.67
770.226	67.49
770.406	68.98
770.585	66.26
770.764	64.43
770.943	61.48
771.122	64.37
771.301	65.71
771.48	66.8
771.66	68.07
771.839	66.91
772.018	67.18
772.197	68.27
772.376	67.23
772.555	69.42
772.734	71.57
772.913	73.91
773.092	73.92
773.271	73.61
773.449	75.67
773.628	75.68
773.807	76.54
773.986	76.07
774.165	73.41
774.344	75.16
774.523	73.55
774.701	74.04
774.88	72.93
775.059	72.84
775.238	73.59
775.417	71.46
775.595	72.03
775.774	73.64
775.953	70.83
776.131	70.78
776.31	70.81
776.489	65.76
776.667	66.2
776.846	69.41
777.025	68.8
777.203	69.57
777.382	72.68
777.56	68.93
777.739	64.47
777.917	65.59
778.096	67.02
778.274	66.3
778.453	71.3
778.631	72.75
778.81	70.23
778.988	70.29
779.166	71.92
779.345	68.09
779.523	72.67
779.702	76.63
779.88	79.07
780.058	78.22
780.237	76.08
780.415	76.96
780.593	75.13
780.771	74.74
780.95	72.34
781.128	69.47
781.306	71.43
781.484	72.48
781.662	72.36
781.841	69.42
782.019	70.2
782.197	72.41
782.375	72.51
782.553	72.37
782.731	73.89
782.909	74.07
783.087	75.53
783.265	76.68
783.443	73.37
783.621	75.54
783.799	75.44
783.977	74.02
784.155	73.83
784.333	73.45
784.511	70.37
784.689	66.02
784.867	67.04
785.045	68.43
785.223	65.26
785.4	66.93
785.578	69.48
785.756	69.65
785.934	69.78
786.112	71.27
786.289	70.05
786.467	69.43
786.645	73.9
786.823	71.98
787	67.95
787.178	68.54
787.356	64.29
787.533	58.33
787.711	60.08
787.889	57.79
788.066	55.57
788.244	55.8
788.421	61.63
788.599	57.96
788.776	57.83
788.954	62.18
789.131	63.37
789.309	65.01
789.486	63.04
789.664	61.58
789.841	62.45
790.019	66.3
790.196	68.49
790.373	65.81
790.551	67.56
790.728	70.72
790.906	66.62
791.083	62.29
791.26	63.05
791.437	69.19
791.615	73.41
791.792	75.22
791.969	73.19
792.146	71.42
792.324	67.13
792.501	70.71
792.678	69.62
792.855	70.6
793.032	76.5
793.209	76.96
793.387	78.24
793.564	74.26
793.741	77.47
793.918	76.63
794.095	77.52
794.272	80.59
794.449	74.74
794.626	78.08
794.803	82.25
794.98	80.38
795.157	80.78
795.334	76.73
795.511	77.49
795.688	70.51
795.864	74.37
796.041	74.32
796.218	72.27
796.395	75.27
796.572	68.87
796.749	71.93
796.925	70.21
797.102	70.98
797.279	68.36
797.456	69.72
797.632	71.62
797.809	64.04
797.986	61.47
798.162	63.72
798.339	67.47
798.516	66.79
798.692	57.44
798.869	58.78
799.046	56.57
799.222	59.37
799.399	53.71
799.575	54.6
799.752	57.58
799.928	61.08
800.105	61.78
800.281	58.93
800.458	64.05
800.634	66.4
800.811	62.64
800.987	62.01
801.163	62.11
801.34	68.33
801.516	69.17
801.692	69.9
801.869	70.9
802.045	73.28
802.221	74.44
802.398	75.46
802.574	75.9
802.75	78.36
802.926	75.96
803.103	79.98
803.279	79.78
803.455	77.64
803.631	79.63
803.807	81.12
803.983	81.05
804.16	77.87
804.336	73.43
804.512	73.8
804.688	76.8
804.864	78.16
805.04	73.68
805.216	73.12
805.392	74.04
805.568	75.85
805.744	73.01
805.92	69.07
806.096	69.55
806.272	75.31
806.448	74.69
806.623	71.61
806.799	69.21
806.975	69.68
807.151	66.58
807.327	66.5
807.503	62.95
807.678	57.73
807.854	56.18
808.03	57.56
808.206	57.69
808.381	61.87
808.557	62.7
808.733	68.78
808.908	73.11
809.084	76.55
809.26	80.17
809.435	81.89
809.611	88.99
809.787	90.11
809.962	88.07
810.138	85.36
810.313	82.21
810.489	84.55
810.664	86.63
810.84	86.21
811.015	84.05
811.191	81.3
811.366	81.11
811.542	81.62
811.717	82.93
811.892	90.61
812.068	94.5
812.243	101.93
812.419	96.82
812.594	98.19
812.769	95.03
812.944	99.36
813.12	102.7
813.295	102.61
813.47	101.48
813.645	106.77
813.821	98.52
813.996	93.2
814.171	87.4
814.346	90.02
814.521	81.24
814.697	82.31
814.872	81.14
815.047	79.17
815.222	76.65
815.397	76.02
815.572	67.6
815.747	70.97
815.922	71.07
816.097	67.21
816.272	64.48
816.447	72.27
816.622	74.62
816.797	71.91
816.972	74.35
817.147	73.65
817.322	73.7
817.496	74.76
817.671	74.95
817.846	78.31
818.021	75.73
818.196	82.32
818.371	75.24
818.545	69.3
818.72	70
818.895	69.17
819.069	68.32
819.244	65.78
819.419	63.03
819.594	60.12
819.768	54.97
819.943	54.97
820.117	49.4
820.292	49.36
820.467	47.17
820.641	46.32
820.816	44.28
820.99	42.65
821.165	41.23
821.339	40.88
821.514	40.23
821.688	39.98
821.863	38.92
822.037	39.05
822.212	38.6
822.386	38.9
822.56	38.06
822.735	38.7
822.909	39.29
823.084	39.47
823.258	39.48
823.432	39.97
823.606	40.33
823.781	42.16
823.955	42.11
824.129	42.1
824.303	42.74
824.478	43.8
824.652	44.19
824.826	44.08
825	44.95
825.174	46.05
825.348	46.49
825.523	46.62
825.697	44.16
825.871	44.85
826.045	45.5
826.219	44.62
826.393	43.93
826.567	43.07
826.741	43.3
826.915	43.75
827.089	43.35
827.263	41.63
827.437	42.54
827.611	44.27
827.784	44.32
827.958	44.64
828.132	44.73
828.306	44.88
828.48	47.59
828.654	49.16
828.827	47.95
829.001	48.01
829.175	50.11
829.349	49.34
829.522	50.91
829.696	51.79
829.87	53.53
830.044	56.44
830.217	61.76
830.391	63.17
830.565	63.06
830.738	64.99
830.912	65.78
831.085	68.96
831.259	71.2
831.432	72.32
831.606	68.7
831.779	66.57
831.953	65.22
832.126	62.65
832.3	60.11
832.473	62.26
832.647	60.16
832.82	58.24
832.994	54.67
833.167	55.42
833.34	52.91
833.514	52.94
833.687	49.94
833.86	50.95
834.034	51.03
834.207	52
834.38	49.32
834.553	47.85
834.727	50.4
834.9	51.61
835.073	49.49
835.246	52.41
835.419	53.22
835.593	55.56
835.766	54.36
835.939	57.49
836.112	56.42
836.285	56.35
836.458	59.53
836.631	61.38
836.804	64.68
836.977	71.31
837.15	60.22
837.323	63.5
837.496	62.82
837.669	66.43
837.842	64.04
838.015	67.73
838.188	71.53
838.361	71.55
838.533	72.39
838.706	68.31
838.879	64.76
839.052	71.63
839.225	69.65
839.398	72.51
839.57	75.64
839.743	77.16
839.916	75.45
840.088	75.88
840.261	81.38
840.434	81.56
840.607	89.82
840.779	89.5
840.952	89.23
841.124	93.33
841.297	92.65
841.47	93.1
841.642	90.79
841.815	87.84
841.987	94.01
842.16	87.41
842.332	84.29
842.505	85.43
842.677	90.22
842.85	99.24
843.022	102.56
843.194	102.44
843.367	103.77
843.539	105.77
843.712	114.51
843.884	119.8
844.056	126.78
844.229	129.82
844.401	139.44
844.573	141.21
844.745	130.19
844.918	138.07
845.09	141.63
845.262	143.63
845.434	159.58
845.606	158.54
845.779	138.72
845.951	120.94
846.123	117.34
846.295	112.17
846.467	134.94
846.639	138.79
846.811	138.61
846.983	150.23
847.155	141.53
847.327	131.3
847.499	125.18
847.671	142.49
847.843	142.52
848.015	144.11
848.187	140.46
848.359	132.32
848.531	139.03
848.703	133.46
848.875	142.82
849.047	143.58
849.218	144.83
849.39	133.43
849.562	138.11
849.734	161.74
849.905	160.55
850.077	181.6
850.249	177.36
850.421	152.57
850.592	160.65
850.764	148.27
850.936	143.75
851.107	135.34
851.279	150.25
851.451	138.33
851.622	132.4
851.794	134.03
851.965	117.96
852.137	115.43
852.308	125.6
852.48	128.82
852.651	130.5
852.823	134.34
852.994	133.17
853.166	139.49
853.337	148.11
853.509	162.98
853.68	149.84
853.851	156.5
854.023	144.28
854.194	125.61
854.365	134.28
854.537	129.4
854.708	129.98
854.879	124.17
855.05	124.7
855.222	109.18
855.393	104.97
855.564	115.09
855.735	117.98
855.906	129.52
856.078	139.02
856.249	110.35
856.42	113.31
856.591	106.53
856.762	106.08
856.933	98.63
857.104	88.85
857.275	90.94
857.446	86.18
857.617	82.08
857.788	84.03
857.959	87.73
858.13	104.6
858.301	96.4
858.472	101.94
858.643	103.19
858.814	113.68
858.985	139.87
859.155	156.89
859.326	164.83
859.497	193.94
859.668	291.57
859.839	265.75
860.009	170.96
860.18	178.42
860.351	136.62
860.522	139.3
860.692	127.87
860.863	116.85
861.034	121.98
861.204	110.23
861.375	97.84
861.546	91.74
861.716	85.63
861.887	106.22
862.057	121.55
862.228	141.74
862.398	133.74
862.569	148.27
862.739	173.65
862.91	142.53
863.08	154.58
863.251	171.64
863.421	162.77
863.592	172.11
863.762	150.22
863.932	130.51
864.103	124.49
864.273	130.01
864.443	97.6
864.614	80.07
864.784	97.28
864.954	96.6
865.125	112.7
865.295	126.38
865.465	151.44
865.635	144.26
865.805	125.45
865.976	132.11
866.146	116.21
866.316	147.1
866.486	184.29
866.656	154.48
866.826	177.5
866.996	158.38
867.166	148.98
867.336	123.7
867.506	96.83
867.676	100.09
867.846	100.47
868.016	103.61
868.186	103.96
868.356	97.29
868.526	94.39
868.696	83.11
868.866	76.3
869.036	88.27
869.206	79.95
869.376	84.88
869.545	90.19
869.715	99.51
869.885	111.17
870.055	101.11
870.224	98.58
870.394	117.11
870.564	144.41
870.734	146.45
870.903	152.31
871.073	163.38
871.243	180.46
871.412	186.57
871.582	172.06
871.751	154.94
871.921	161.68
872.091	207.02
872.26	141.44
872.43	112.49
872.599	108.78
872.769	106.54
872.938	118.12
873.108	111.03
873.277	96.49
873.446	91.63
873.616	105.79
873.785	104.81
873.955	88.76
874.124	100.94
874.293	106.8
874.463	112.14
874.632	106.33
874.801	106.7
874.971	104.97
875.14	136.13
875.309	119.98
875.478	96.23
875.647	94.67
875.817	96.69
875.986	104.46
876.155	109.59
876.324	108.06
876.493	100.93
876.662	96.8
876.831	93.22
877	80.79
877.17	92.78
877.339	98.23
877.508	103.17
877.677	116.36
877.846	105.34
878.015	101.57
878.184	85.23
878.352	96.04
878.521	96.07
878.69	87.74
878.859	78.47
879.028	72.71
879.197	67.68
879.366	68.47
879.534	53.88
879.703	44.63
879.872	43.31
880.041	36.3
880.21	31.2
880.378	29.8
880.547	34.45
880.716	35.62
880.884	36.43
881.053	36.01
881.222	34.84
881.39	37.87
881.559	38.62
881.727	39.35
881.896	41.25
882.065	41.47
882.233	43.97
882.402	41.5
882.57	43.63
882.739	42.43
882.907	42.6
883.076	42.66
883.244	42.14
883.412	44.19
883.581	43.33
883.749	45.06
883.918	45.6
884.086	43.74
884.254	46.04
884.423	47.33
884.591	47.39
884.759	48.7
884.927	52.2
885.096	53.33
885.264	55.87
885.432	59.47
885.6	62.34
885.769	64.79
885.937	69
886.105	80.87
886.273	81.59
886.441	91.51
886.609	102.49
886.777	95.68
886.945	97.5
887.113	103.79
887.281	96.53
887.449	95.14
887.617	97.33
887.785	94.75
887.953	89.25
888.121	97.96
888.289	94.82
888.457	86.01
888.625	89.07
888.793	87.66
888.961	83.87
889.129	100.32
889.296	96.59
889.464	93.76
889.632	97.01
889.8	97.51
889.967	76.22
890.135	82.95
