Data from JASIL_3239_Reflection_2.txt Node
Date: Mon Nov 16 20:25:14 EST 2015
User: Geneva
Spectrometer: USB4E03002
Autoset integration time: false
Trigger mode: 4
Integration Time (sec): 1.000000E-1
Scans to average: 10
Electric dark correction enabled: false
Nonlinearity correction enabled: false
Boxcar width: 5
Stray light correction enabled: false
XAxis mode: Wavelengths
Stop averaging: false
Number of Pixels in Spectrum: 3648
>>>>>Begin Spectral Data<<<<<
177.575	-48.72
177.794	-52.14
178.014	-29.52
178.233	-5.61
178.452	-72.29
178.672	-63.64
178.891	-178.3
179.11	781.08
179.33	301.79
179.549	-1486.36
179.768	225.42
179.987	181.72
180.207	93.55
180.426	104.88
180.645	142.91
180.864	179.87
181.084	102.57
181.303	82.87
181.522	132.27
181.741	302.82
181.96	130.2
182.179	138.29
182.398	167.11
182.618	220.76
182.837	190.34
183.056	127.78
183.275	125.29
183.494	138.84
183.713	131.11
183.932	97.95
184.151	100.44
184.37	112.01
184.589	113.36
184.808	95.46
185.027	63.01
185.246	65.6
185.465	97.07
185.684	121.09
185.903	245.98
186.122	189.69
186.341	302.25
186.56	178.42
186.779	266.84
186.998	316.92
187.216	372.44
187.435	369.46
187.654	394.05
187.873	202.8
188.092	156.69
188.311	154.58
188.53	190.03
188.748	151.55
188.967	236.8
189.186	127.59
189.405	122.94
189.623	70.83
189.842	48.56
190.061	-56.46
190.28	-228.21
190.498	250
190.717	-23.02
190.936	266.1
191.154	122.32
191.373	-1016.67
191.592	-745.45
191.81	-110.92
192.029	-230.53
192.248	-41.71
192.466	-83.33
192.685	-118.85
192.904	-173.63
193.122	-81.07
193.341	-184.32
193.559	-163.96
193.778	-253.33
193.996	-209.92
194.215	9200
194.433	-600
194.652	189.66
194.87	128.57
195.089	77.29
195.307	12.11
195.526	-164.41
195.744	-50
195.963	34.07
196.181	-1412.5
196.399	77.78
196.618	-995
196.836	-2900
197.055	41.8
197.273	24.14
197.491	-115.56
197.71	-421.57
197.928	490
198.146	1097.62
198.365	-3550
198.583	208.23
198.801	343.86
199.019	727.27
199.238	-1366.67
199.456	589.62
199.674	266.1
199.892	193.41
200.111	231.15
200.329	221.89
200.547	187.61
200.765	142.67
200.983	116.27
201.202	78.57
201.42	141.34
201.638	112.26
201.856	83.81
202.074	299.17
202.292	355.56
202.51	190.48
202.728	218.56
202.946	-302.5
203.165	1254.55
203.383	-497.94
203.601	-654.65
203.819	1086
204.037	3800
204.255	486.6
204.473	151.4
204.691	199.33
204.909	198.78
205.127	273.49
205.345	253.98
205.562	158.42
205.78	109.06
205.998	85.71
206.216	130.71
206.434	155.41
206.652	117.88
206.87	120.47
207.088	123.06
207.306	122.74
207.523	118.73
207.741	87.27
207.959	96.42
208.177	83.45
208.395	78.18
208.612	53.05
208.83	61.17
209.048	91.53
209.266	105.08
209.483	88.24
209.701	92.81
209.919	82.25
210.136	131.12
210.354	246
210.572	317.19
210.79	425.93
211.007	226.64
211.225	345.74
211.442	-1090.48
211.66	-331.94
211.878	-21.53
212.095	124
212.313	136
212.53	198.61
212.748	121.39
212.966	101.41
213.183	112.59
213.401	121.72
213.618	97.93
213.836	114.21
214.053	101.92
214.271	105.74
214.488	212.61
214.705	133.03
214.923	117.1
215.14	67.62
215.358	60.31
215.575	61.79
215.793	100.91
216.01	188.96
216.227	67.66
216.445	67.75
216.662	88
216.879	73.46
217.097	53.17
217.314	11.63
217.531	47.18
217.749	62.28
217.966	52.67
218.183	28.65
218.4	46.58
218.618	150.39
218.835	156.2
219.052	131.65
219.269	101.33
219.487	146.53
219.704	146.64
219.921	115.69
220.138	110.04
220.355	94.5
220.572	104
220.79	83.47
221.007	62.8
221.224	10.64
221.441	-9.28
221.658	-4.03
221.875	19.23
222.092	4.74
222.309	-37.68
222.526	-158.47
222.743	-92.86
222.96	-142.45
223.177	-32.7
223.394	-54.07
223.611	11.78
223.828	-2.29
224.045	4.54
224.262	-16.59
224.479	-16.05
224.696	-19.97
224.913	-5.86
225.13	-3.31
225.347	5.72
225.564	13.46
225.781	13.55
225.997	15.35
226.214	10.03
226.431	9.29
226.648	1.22
226.865	4.59
227.082	8.77
227.298	2.28
227.515	0.27
227.732	-1.86
227.949	-8.79
228.165	-7.38
228.382	-10.98
228.599	-12.6
228.816	-13.4
229.032	-8.57
229.249	-13.69
229.466	-12.37
229.682	-12.05
229.899	-14.99
230.116	-15.88
230.332	-8.17
230.549	-2.69
230.765	-3.71
230.982	3.36
231.199	6.7
231.415	3.95
231.632	10
231.848	8.98
232.065	12.81
232.281	9.63
232.498	14.75
232.714	15.45
232.931	8.22
233.147	12.3
233.364	7.44
233.58	2.96
233.797	14.76
234.013	7.47
234.23	8.81
234.446	8.29
234.662	11.46
234.879	16.9
235.095	13.52
235.312	19.24
235.528	14.2
235.744	15.74
235.961	16.85
236.177	11.48
236.393	20.62
236.61	17.72
236.826	18.19
237.042	11.74
237.258	-3.16
237.475	-2.45
237.691	-7.62
237.907	0.61
238.123	2.8
238.339	0.55
238.556	1.27
238.772	-0.66
238.988	1.48
239.204	1.42
239.42	9.85
239.636	10.37
239.853	9.62
240.069	7.88
240.285	10.14
240.501	7.51
240.717	11.17
240.933	8.67
241.149	8.88
241.365	7.83
241.581	7.94
241.797	7.34
242.013	8.26
242.229	8.58
242.445	8.84
242.661	7.7
242.877	8.26
243.093	6.88
243.309	8.8
243.525	9.23
243.741	11.49
243.957	11.31
244.173	12.75
244.388	13.81
244.604	14.27
244.82	12.77
245.036	11.14
245.252	11.06
245.468	8.25
245.683	6.57
245.899	4.73
246.115	4.62
246.331	4.19
246.547	4.09
246.762	3.84
246.978	4.71
247.194	4.76
247.409	4.37
247.625	4.1
247.841	5.46
248.057	5.58
248.272	7.05
248.488	9.15
248.703	9.27
248.919	9.05
249.135	9.76
249.35	8.02
249.566	10.03
249.782	10.23
249.997	10.05
250.213	10.52
250.428	11.19
250.644	12.71
250.859	8.95
251.075	6.91
251.29	9.12
251.506	7.64
251.721	7.61
251.937	4.99
252.152	5.59
252.368	5.77
252.583	5.86
252.798	6.78
253.014	4.02
253.229	2.69
253.445	7.11
253.66	5.32
253.875	6.2
254.091	10
254.306	11.22
254.521	11.1
254.737	12.74
254.952	12.97
255.167	11.78
255.383	12.43
255.598	13.02
255.813	13.74
256.028	11
256.244	12.2
256.459	6.02
256.674	7.95
256.889	6.3
257.104	3.8
257.32	5.86
257.535	5.23
257.75	4.47
257.965	4.56
258.18	4.93
258.395	5.63
258.61	5.28
258.826	6.96
259.041	6.77
259.256	8.35
259.471	8.92
259.686	7.48
259.901	6.53
260.116	7.2
260.331	8.19
260.546	7.46
260.761	7.93
260.976	8.03
261.191	7.08
261.406	5.85
261.621	5.21
261.836	5.75
262.05	7.23
262.265	9.38
262.48	9.83
262.695	7.03
262.91	5.69
263.125	3.97
263.34	3.62
263.555	6.25
263.769	8.59
263.984	7.95
264.199	8.45
264.414	6.71
264.629	4.04
264.843	2.38
265.058	3.41
265.273	4.43
265.488	4.93
265.702	6.05
265.917	5.9
266.132	3.49
266.346	4.76
266.561	3.28
266.776	4.89
266.99	8.21
267.205	8.9
267.42	10.07
267.634	10.57
267.849	11.38
268.063	10.29
268.278	9.68
268.492	11.73
268.707	11.28
268.922	11.35
269.136	9.71
269.351	6.96
269.565	5.99
269.78	4.68
269.994	4.61
270.209	3.14
270.423	3.53
270.637	3.37
270.852	2.27
271.066	2.31
271.281	3.48
271.495	3.18
271.709	4.07
271.924	6.26
272.138	7.39
272.353	7.89
272.567	9.2
272.781	8.9
272.996	7.71
273.21	7.34
273.424	8.41
273.638	9.3
273.853	9.89
274.067	9.49
274.281	8.54
274.495	7.71
274.71	6.12
274.924	4.53
275.138	3.91
275.352	4.72
275.566	7.15
275.781	3.94
275.995	1.53
276.209	1.79
276.423	3.61
276.637	1.7
276.851	2.58
277.065	4.65
277.279	5.86
277.493	6.73
277.707	6.21
277.921	4.9
278.135	6.66
278.349	8.19
278.563	7.08
278.777	5.95
278.991	6.51
279.205	7.2
279.419	6.3
279.633	6.63
279.847	5.86
280.061	7.53
280.275	7.31
280.489	5.36
280.703	3.05
280.917	4.26
281.131	3.43
281.344	5.56
281.558	5.44
281.772	5.49
281.986	6.62
282.2	7.98
282.414	5.01
282.627	4.95
282.841	4.94
283.055	5.77
283.269	5.25
283.482	5.67
283.696	4.93
283.91	4.92
284.123	4.95
284.337	3.38
284.551	1.84
284.764	3.15
284.978	2.72
285.192	4.03
285.405	3.94
285.619	4
285.833	4.42
286.046	3.49
286.26	2.09
286.473	0.86
286.687	1.61
286.9	3.42
287.114	4.12
287.327	5.75
287.541	5.47
287.754	5.67
287.968	5
288.181	5.42
288.395	5.83
288.608	7.2
288.822	8.66
289.035	8.85
289.248	8.66
289.462	8.64
289.675	7.89
289.889	8.19
290.102	7.13
290.315	7.64
290.529	6.47
290.742	6.05
290.955	6
291.169	6.04
291.382	5.03
291.595	5.5
291.808	5.24
292.022	6.38
292.235	6.34
292.448	8.41
292.661	8.11
292.875	10.49
293.088	10.67
293.301	10.04
293.514	7.55
293.727	8.16
293.94	5.65
294.153	6.69
294.367	5.85
294.58	5.27
294.793	4.36
295.006	6.16
295.219	4.47
295.432	5.27
295.645	5.14
295.858	6.88
296.071	6.6
296.284	6.9
296.497	6.15
296.71	5.72
296.923	6.3
297.136	5.68
297.349	4.91
297.562	5.43
297.775	5.57
297.988	5.11
298.201	5.39
298.414	5.55
298.626	5.94
298.839	5.55
299.052	5.68
299.265	5.33
299.478	5.35
299.691	5.28
299.903	4.83
300.116	4.6
300.329	4.99
300.542	3.79
300.755	3.95
300.967	4.09
301.18	3.93
301.393	4.46
301.605	5.28
301.818	5.8
302.031	7.18
302.243	8.58
302.456	8.51
302.669	8.44
302.881	9.35
303.094	9.09
303.307	8.75
303.519	10.57
303.732	10.94
303.944	9.87
304.157	10.27
304.37	9.3
304.582	9.36
304.795	9.41
305.007	8.91
305.22	7.95
305.432	8.62
305.645	9.55
305.857	7.99
306.069	7.14
306.282	6.78
306.494	6.43
306.707	6.25
306.919	4.16
307.132	3.34
307.344	5.32
307.556	6.1
307.769	6.04
307.981	5.35
308.193	4.74
308.406	4.86
308.618	5.7
308.83	7.79
309.043	6.7
309.255	8.52
309.467	8.93
309.679	7.9
309.892	7.71
310.104	7.36
310.316	8.36
310.528	7.88
310.74	7.74
310.953	7.41
311.165	6.88
311.377	7.75
311.589	6.89
311.801	5.93
312.013	6.34
312.225	7.5
312.437	6.93
312.649	6.27
312.862	7.73
313.074	7.22
313.286	8.53
313.498	8.7
313.71	8.22
313.922	9.31
314.134	10.28
314.346	9.67
314.558	8.55
314.77	8.21
314.982	8.48
315.193	8.65
315.405	9.61
315.617	8.65
315.829	9.08
316.041	8.48
316.253	7.87
316.465	8.54
316.677	8.34
316.888	8.85
317.1	9.34
317.312	7.78
317.524	7.76
317.736	7.5
317.947	8.31
318.159	6.89
318.371	5.83
318.583	5.39
318.794	5.6
319.006	5.82
319.218	4.55
319.43	5.92
319.641	8.23
319.853	9.04
320.064	9.11
320.276	8.9
320.488	8.33
320.699	9.63
320.911	10.18
321.123	9.89
321.334	11.5
321.546	12.58
321.757	11.93
321.969	12.24
322.18	9.74
322.392	10.02
322.603	11.26
322.815	11
323.026	11.6
323.238	11.69
323.449	10.7
323.661	9.59
323.872	9.45
324.083	9.57
324.295	8.87
324.506	10.44
324.718	9.49
324.929	7.98
325.14	9.35
325.352	11.04
325.563	12.14
325.774	11.33
325.986	11.63
326.197	10.82
326.408	11.28
326.62	10.78
326.831	11.96
327.042	14.17
327.253	14.2
327.464	14.88
327.676	13.24
327.887	12.63
328.098	13.94
328.309	15.16
328.52	16.32
328.732	16.39
328.943	18.9
329.154	17.31
329.365	16.64
329.576	17.62
329.787	17.51
329.998	19.79
330.209	18.49
330.42	18.49
330.631	18.49
330.842	19.54
331.053	21.35
331.264	21.19
331.475	20.52
331.686	20.08
331.897	19.71
332.108	20.11
332.319	19.42
332.53	20.52
332.741	21.74
332.952	22.35
333.163	21.45
333.374	19.36
333.585	17.97
333.795	20.47
334.006	22.25
334.217	22.02
334.428	21.34
334.639	22.1
334.849	22.48
335.06	22.17
335.271	22.31
335.482	23.74
335.692	24.97
335.903	24.38
336.114	24.79
336.325	24.37
336.535	25.85
336.746	26.15
336.957	25.98
337.167	25.92
337.378	26.62
337.589	24.94
337.799	24.83
338.01	25.91
338.22	26.75
338.431	26.92
338.642	25.75
338.852	24.65
339.063	25.63
339.273	25.37
339.484	25.95
339.694	25.53
339.905	26.92
340.115	27.51
340.326	26.07
340.536	25.9
340.746	25.06
340.957	25.87
341.167	26.62
341.378	27
341.588	26.57
341.799	27.41
342.009	27.6
342.219	28.6
342.43	28.33
342.64	28.58
342.85	29.4
343.061	28.85
343.271	28.26
343.481	28.16
343.691	26.24
343.902	26.33
344.112	25.26
344.322	25.57
344.532	24.83
344.743	25.9
344.953	25.48
345.163	25.69
345.373	26.13
345.583	27.63
345.793	27.85
346.004	28.14
346.214	28.86
346.424	28.78
346.634	27.63
346.844	27.14
347.054	25.56
347.264	26.04
347.474	26.56
347.684	26.76
347.894	25.75
348.104	25.44
348.314	26.4
348.524	26.37
348.734	26.42
348.944	28.1
349.154	28.81
349.364	28.77
349.574	28.19
349.784	27.81
349.994	27.51
350.204	27.74
350.413	28.25
350.623	27.47
350.833	26.62
351.043	26.45
351.253	25.64
351.463	25
351.672	24.14
351.882	25.3
352.092	24.87
352.302	24.85
352.511	25.14
352.721	24.73
352.931	24.75
353.141	25.65
353.35	25.09
353.56	26.44
353.77	26.63
353.979	28.17
354.189	27.51
354.399	26.39
354.608	27.5
354.818	26.87
355.027	26.65
355.237	26.13
355.447	25.69
355.656	26.18
355.866	24.47
356.075	24.48
356.285	24.52
356.494	24.53
356.704	25.64
356.913	24.53
357.123	24.97
357.332	24.8
357.542	24.86
357.751	24.39
357.96	25.55
358.17	25.83
358.379	26.44
358.589	25.71
358.798	25.74
359.007	25.19
359.217	24.75
359.426	24.72
359.635	25.44
359.845	25.39
360.054	26.3
360.263	25.82
360.472	25.95
360.682	25.7
360.891	26.1
361.1	26.22
361.309	26.27
361.519	26.96
361.728	27.46
361.937	27.05
362.146	27.8
362.355	27.12
362.564	26.96
362.774	26.68
362.983	26.66
363.192	26.66
363.401	26.73
363.61	26.88
363.819	26.96
364.028	25.73
364.237	25.96
364.446	25.23
364.655	25.44
364.864	25.2
365.073	25.88
365.282	25.54
365.491	24.6
365.7	24.05
365.909	23.85
366.118	23.13
366.327	23.89
366.536	23.91
366.745	23.98
366.954	24.53
367.162	24.77
367.371	23.87
367.58	23.9
367.789	24.77
367.998	25.13
368.207	24.99
368.415	25.73
368.624	25.21
368.833	24.86
369.042	25.11
369.25	24.29
369.459	23.92
369.668	24.94
369.877	25.01
370.085	24.45
370.294	24.58
370.503	24.88
370.711	24.22
370.92	24.45
371.129	24.69
371.337	25.03
371.546	24.72
371.754	24.51
371.963	24.09
372.171	23.45
372.38	23.88
372.589	23.99
372.797	24.01
373.006	24.28
373.214	24.64
373.423	24.39
373.631	24.18
373.84	24.15
374.048	23.91
374.256	24.04
374.465	24.65
374.673	23.84
374.882	23.28
375.09	23.53
375.298	24.13
375.507	24.15
375.715	24.13
375.923	23.92
376.132	24.03
376.34	23.73
376.548	23.42
376.757	24.21
376.965	24.74
377.173	24.8
377.381	24.61
377.59	24.53
377.798	23.9
378.006	23.75
378.214	23.97
378.423	24.08
378.631	24.78
378.839	24.37
379.047	24.55
379.255	25.39
379.463	25.44
379.671	25.52
379.879	25.1
380.088	25.84
380.296	26.19
380.504	26.48
380.712	26.96
380.92	26.74
381.128	27.45
381.336	26.24
381.544	25.85
381.752	26.09
381.96	26.51
382.168	26.32
382.376	25.42
382.584	24.79
382.791	24.16
382.999	24.16
383.207	23.87
383.415	24.02
383.623	24.1
383.831	23.33
384.039	23.24
384.247	23.31
384.454	24.04
384.662	23.88
384.87	24.14
385.078	24.22
385.285	24.32
385.493	24.54
385.701	24.2
385.909	24.43
386.116	24.64
386.324	24.04
386.532	23.15
386.739	22.27
386.947	22.95
387.155	23.48
387.362	22.93
387.57	22.43
387.778	22.63
387.985	22.93
388.193	23.06
388.4	23.05
388.608	23.48
388.816	23.46
389.023	23.57
389.231	23.19
389.438	23.01
389.646	24.19
389.853	24.26
390.061	24.15
390.268	23.57
390.475	22.93
390.683	22.31
390.89	22.15
391.098	21.86
391.305	22.26
391.512	22.6
391.72	22.01
391.927	21.45
392.135	22.08
392.342	21.59
392.549	21.95
392.756	22.41
392.964	23.23
393.171	23.58
393.378	24.16
393.586	24.04
393.793	23.85
394	24.92
394.207	24.84
394.414	24.38
394.622	24.88
394.829	24.69
395.036	24.5
395.243	24.53
395.45	24.22
395.657	24.24
395.864	23.86
396.072	23.99
396.279	23.53
396.486	23.71
396.693	23.57
396.9	23.69
397.107	23.45
397.314	23.6
397.521	23.42
397.728	23.53
397.935	23.23
398.142	22.89
398.349	22.73
398.556	22.02
398.763	21.77
398.97	22.19
399.177	22.4
399.383	23
399.59	23.43
399.797	23.19
400.004	23.21
400.211	23.48
400.418	24.63
400.625	25.4
400.831	25.55
401.038	25.69
401.245	25.43
401.452	25.22
401.658	24.66
401.865	23.8
402.072	23.51
402.279	23.6
402.485	23.51
402.692	22.99
402.899	22.1
403.105	22.11
403.312	22.47
403.519	22.45
403.725	22.25
403.932	22.56
404.138	22.23
404.345	22.62
404.552	22.6
404.758	22.64
404.965	22.01
405.171	22.36
405.378	22.57
405.584	22.27
405.791	22.18
405.997	22.61
406.204	22.45
406.41	23.29
406.617	23.15
406.823	22.84
407.029	23.01
407.236	23.28
407.442	23.16
407.649	23.38
407.855	24.01
408.061	24.12
408.268	24.31
408.474	24.57
408.68	23.84
408.887	24
409.093	24.55
409.299	24.35
409.505	24.65
409.712	24.22
409.918	24.01
410.124	23.53
410.33	23.25
410.537	23.19
410.743	22.83
410.949	23.52
411.155	23.26
411.361	23.07
411.567	23.03
411.773	23
411.98	22.9
412.186	23.11
412.392	22.99
412.598	22.63
412.804	22.49
413.01	22.99
413.216	23.28
413.422	23.36
413.628	23.1
413.834	23.47
414.04	23.59
414.246	24.69
414.452	24.71
414.658	24.78
414.864	25.7
415.07	25.66
415.275	25.83
415.481	25.53
415.687	25.62
415.893	25.59
416.099	25.52
416.305	25.64
416.511	25.01
416.716	24.41
416.922	24.29
417.128	24.15
417.334	24.18
417.539	23.83
417.745	24.12
417.951	23.61
418.157	23.51
418.362	23.35
418.568	23.11
418.774	22.95
418.979	23.26
419.185	23.09
419.391	22.91
419.596	22.99
419.802	23.02
420.008	22.4
420.213	24.83
420.419	24.98
420.624	24.74
420.83	24.66
421.035	24.62
421.241	24.5
421.446	24.81
421.652	24.6
421.857	24.26
422.063	24.18
422.268	24.56
422.474	22.61
422.679	22.4
422.885	22.36
423.09	22.32
423.295	22.43
423.501	22.45
423.706	22.13
423.911	22.44
424.117	22.41
424.322	22.36
424.527	22.07
424.733	21.99
424.938	22.32
425.143	22.33
425.349	22.16
425.554	22.18
425.759	22.19
425.964	22.26
426.169	21.7
426.375	21.92
426.58	21.95
426.785	22.07
426.99	21.71
427.195	21.61
427.4	21.32
427.605	21.87
427.811	21.59
428.016	21.63
428.221	22.08
428.426	22.53
428.631	22.36
428.836	22.3
429.041	22.4
429.246	22.97
429.451	23.07
429.656	23.59
429.861	23.32
430.066	23.37
430.271	23.51
430.476	23.09
430.681	23.25
430.886	23.1
431.09	22.93
431.295	22.98
431.5	22.81
431.705	22.18
431.91	22.03
432.115	22.05
432.32	22
432.524	21.83
432.729	21.87
432.934	21.8
433.139	22.02
433.343	22.33
433.548	22
433.753	22.12
433.958	22.65
434.162	22.54
434.367	22.74
434.572	23.07
434.776	23.11
434.981	23.17
435.186	23.23
435.39	23.24
435.595	23.27
435.799	23.33
436.004	23.08
436.209	22.99
436.413	22.95
436.618	22.69
436.822	22.71
437.027	22.36
437.231	21.74
437.436	21.37
437.64	21.18
437.845	20.92
438.049	20.8
438.253	20.89
438.458	20.66
438.662	20.96
438.867	20.8
439.071	20.56
439.275	20.75
439.48	21.44
439.684	21.67
439.888	21.47
440.093	21.79
440.297	21.83
440.501	21.74
440.706	21.66
440.91	21.63
441.114	21.61
441.318	22.06
441.523	21.94
441.727	21.78
441.931	21.66
442.135	21.89
442.339	21.9
442.543	22.13
442.748	22.26
442.952	22.4
443.156	22.39
443.36	22.64
443.564	22.54
443.768	22.47
443.972	22.57
444.176	22.31
444.38	22.21
444.584	21.77
444.788	21.57
444.992	21.45
445.196	21.42
445.4	21.42
445.604	21.51
445.808	21.43
446.012	21.56
446.216	21.36
446.42	21.57
446.624	21.76
446.828	21.94
447.032	22.11
447.235	22.27
447.439	22.3
447.643	22.13
447.847	22.12
448.051	21.95
448.254	21.89
448.458	21.89
448.662	21.99
448.866	21.74
449.069	21.53
449.273	21.54
449.477	21.19
449.681	21.03
449.884	20.9
450.088	20.83
450.292	21.13
450.495	21.2
450.699	21.3
450.902	21.35
451.106	21.64
451.31	21.95
451.513	21.78
451.717	22.18
451.92	22.48
452.124	22.69
452.327	22.45
452.531	22.1
452.734	22.42
452.938	22.06
453.141	21.81
453.345	21.72
453.548	21.48
453.752	21.75
453.955	21.82
454.158	21.57
454.362	21.26
454.565	21.36
454.769	21.64
454.972	21.49
455.175	21.67
455.379	21.85
455.582	21.69
455.785	21.44
455.988	21.25
456.192	20.81
456.395	20.78
456.598	21.05
456.801	21.2
457.005	21.04
457.208	20.87
457.411	21.12
457.614	21.17
457.817	21.4
458.021	21.88
458.224	21.79
458.427	21.92
458.63	21.9
458.833	21.75
459.036	21.44
459.239	21.23
459.442	21.26
459.645	21.29
459.848	21.37
460.051	21.13
460.254	20.92
460.457	20.87
460.66	20.69
460.863	20.65
461.066	20.63
461.269	20.99
461.472	21.03
461.675	20.83
461.878	20.84
462.081	20.74
462.284	20.8
462.486	20.85
462.689	20.99
462.892	21.53
463.095	21.67
463.298	22.37
463.5	22.35
463.703	22.52
463.906	22.68
464.109	22.23
464.311	22.23
464.514	22.34
464.717	22.56
464.92	22.32
465.122	22.22
465.325	22.36
465.528	22.01
465.73	21.87
465.933	21.66
466.135	21.84
466.338	22.01
466.541	21.97
466.743	21.97
466.946	21.33
467.148	21.63
467.351	21.77
467.553	21.74
467.756	22.1
467.958	22.08
468.161	22.39
468.363	22.32
468.566	22.01
468.768	21.87
468.971	22.06
469.173	22.44
469.375	22.12
469.578	21.91
469.78	21.77
469.983	21.35
470.185	21.56
470.387	21.65
470.59	21.72
470.792	22.18
470.994	21.99
471.196	21.83
471.399	22.06
471.601	22.44
471.803	22.38
472.005	22.81
472.208	22.94
472.41	22.65
472.612	22.72
472.814	22.18
473.016	22.09
473.218	22.27
473.421	22.4
473.623	22.29
473.825	22.08
474.027	22.15
474.229	22
474.431	21.82
474.633	22.19
474.835	21.89
475.037	22.24
475.239	22.49
475.441	22.8
475.643	22.81
475.845	22.85
476.047	22.97
476.249	23.13
476.451	22.76
476.653	22.74
476.855	22.63
477.057	22.82
477.258	22.99
477.46	23.14
477.662	23.08
477.864	22.84
478.066	23.08
478.268	23.24
478.469	22.95
478.671	23.18
478.873	23.21
479.075	23.02
479.276	22.85
479.478	22.75
479.68	22.54
479.882	22.55
480.083	22.6
480.285	22.42
480.487	22.26
480.688	22.51
480.89	22.47
481.091	22.57
481.293	22.47
481.495	22.61
481.696	22.68
481.898	22.56
482.099	22.35
482.301	22.17
482.502	21.93
482.704	21.82
482.905	21.57
483.107	21.41
483.308	21.29
483.51	21.2
483.711	21.05
483.913	20.83
484.114	20.69
484.315	20.75
484.517	20.77
484.718	20.83
484.92	20.84
485.121	20.84
485.322	20.92
485.524	20.88
485.725	21.07
485.926	21.17
486.127	21.34
486.329	21.47
486.53	21.36
486.731	21.32
486.932	21.27
487.134	21.17
487.335	21.1
487.536	21.04
487.737	21.02
487.938	20.97
488.139	20.95
488.341	20.86
488.542	20.92
488.743	21.01
488.944	21.09
489.145	21.24
489.346	21.48
489.547	21.79
489.748	22.01
489.949	22.09
490.15	22.17
490.351	22.12
490.552	22.21
490.753	22.17
490.954	22.05
491.155	22.09
491.356	22.09
491.557	21.99
491.758	21.88
491.959	21.74
492.159	21.82
492.36	21.72
492.561	21.91
492.762	22.07
492.963	22.22
493.164	22.21
493.364	22.12
493.565	22.19
493.766	22.28
493.967	22.21
494.167	22.46
494.368	22.44
494.569	22.44
494.769	22.5
494.97	22.59
495.171	22.56
495.371	23.05
495.572	23.26
495.773	23.07
495.973	23.1
496.174	23.29
496.375	23.44
496.575	23.39
496.776	23.34
496.976	22.83
497.177	22.57
497.377	22.39
497.578	22.33
497.778	22.33
497.979	22.48
498.179	22.33
498.38	22.28
498.58	22.27
498.78	22.38
498.981	22.46
499.181	23
499.382	23.14
499.582	23.06
499.782	22.78
499.983	22.99
500.183	22.87
500.383	23.11
500.584	23.12
500.784	23.17
500.984	23.4
501.184	23.56
501.385	23.52
501.585	23.4
501.785	23.89
501.985	24.16
502.185	24.03
502.386	24.15
502.586	24.29
502.786	24.5
502.986	24.22
503.186	24.28
503.386	24.43
503.586	24.28
503.786	24.54
503.987	24.27
504.187	24.65
504.387	25
504.587	24.75
504.787	24.93
504.987	25.16
505.187	25.54
505.387	25.38
505.587	25.42
505.786	25.78
505.986	26.08
506.186	26.36
506.386	26.06
506.586	25.89
506.786	26.09
506.986	25.71
507.186	25.65
507.386	25.5
507.585	25.93
507.785	26
507.985	26.07
508.185	25.77
508.384	25.82
508.584	25.84
508.784	25.74
508.984	25.89
509.183	26.18
509.383	26.4
509.583	26.55
509.782	26.73
509.982	27.02
510.182	27.05
510.381	27.56
510.581	27.6
510.781	27.72
510.98	27.91
511.18	28.23
511.379	28.05
511.579	27.98
511.778	27.97
511.978	27.75
512.177	27.76
512.377	27.87
512.576	27.91
512.776	28.33
512.975	28.28
513.175	28.51
513.374	28.44
513.573	28.75
513.773	28.96
513.972	29.16
514.172	29.18
514.371	29.32
514.57	29.45
514.77	29.21
514.969	29.2
515.168	29.47
515.367	29.63
515.567	30.07
515.766	30.45
515.965	30.26
516.164	30.7
516.364	31.05
516.563	30.98
516.762	30.96
516.961	31.3
517.16	31.53
517.359	31.64
517.559	31.88
517.758	31.86
517.957	31.69
518.156	32.02
518.355	31.81
518.554	31.79
518.753	31.89
518.952	32.04
519.151	32.11
519.35	32.14
519.549	32.21
519.748	32.21
519.947	32.41
520.146	32.81
520.345	32.94
520.544	33.18
520.743	33.25
520.942	33.41
521.141	33.69
521.339	33.89
521.538	33.94
521.737	34.21
521.936	33.96
522.135	34.01
522.333	34.21
522.532	34.19
522.731	34.3
522.93	34.41
523.129	34.54
523.327	34.89
523.526	35.09
523.725	35.37
523.923	35.48
524.122	35.91
524.321	36.1
524.519	35.9
524.718	36.18
524.917	36.3
525.115	36.4
525.314	36.44
525.512	36.28
525.711	36.32
525.909	36.33
526.108	36.22
526.306	36.13
526.505	36.12
526.703	36.23
526.902	36.21
527.1	36.34
527.299	36.44
527.497	36.47
527.696	36.54
527.894	36.55
528.092	36.44
528.291	36.49
528.489	36.59
528.688	36.54
528.886	36.51
529.084	36.47
529.283	36.45
529.481	36.38
529.679	36.53
529.877	36.55
530.076	36.75
530.274	37.04
530.472	37.21
530.67	37.3
530.869	37.41
531.067	37.73
531.265	38.05
531.463	38.09
531.661	38.48
531.859	38.44
532.057	38.54
532.255	38.42
532.454	38.41
532.652	38.52
532.85	38.6
533.048	38.64
533.246	38.57
533.444	38.54
533.642	38.72
533.84	38.68
534.038	38.8
534.236	38.98
534.434	39.03
534.632	39
534.83	39.09
535.027	39.06
535.225	39.31
535.423	39.58
535.621	39.81
535.819	39.81
536.017	39.69
536.215	39.76
536.412	39.62
536.61	39.75
536.808	39.83
537.006	39.95
537.203	40.15
537.401	40.04
537.599	39.95
537.797	39.92
537.994	39.73
538.192	40.12
538.39	40.4
538.587	40.55
538.785	40.52
538.983	40.7
539.18	40.8
539.378	40.89
539.575	41.1
539.773	41.33
539.97	41.38
540.168	41.55
540.366	41.51
540.563	41.39
540.761	41.34
540.958	41.51
541.155	41.55
541.353	41.36
541.55	41.4
541.748	41.54
541.945	41.43
542.143	41.46
542.34	41.58
542.537	41.55
542.735	41.54
542.932	41.66
543.129	41.64
543.327	41.72
543.524	42.03
543.721	42.12
543.919	41.94
544.116	42.11
544.313	42.18
544.51	42.12
544.708	42.37
544.905	42.58
545.102	42.83
545.299	43.05
545.496	43
545.693	43.14
545.891	43.11
546.088	43.28
546.285	43.47
546.482	43.4
546.679	43.47
546.876	43.31
547.073	43.27
547.27	43.05
547.467	42.89
547.664	43.02
547.861	42.88
548.058	42.86
548.255	43.22
548.452	43.21
548.649	43.59
548.846	43.85
549.043	43.97
549.24	44.33
549.437	44.41
549.633	44.57
549.83	44.61
550.027	44.75
550.224	44.68
550.421	44.46
550.618	44.48
550.814	43.96
551.011	43.99
551.208	44.35
551.405	44.15
551.601	44.13
551.798	44.12
551.995	44.04
552.191	44.04
552.388	44.35
552.585	44.44
552.781	44.16
552.978	44.41
553.175	44.54
553.371	44.4
553.568	44.43
553.764	44.5
553.961	44.35
554.157	44.48
554.354	44.56
554.55	44.48
554.747	44.43
554.943	44.4
555.14	44.74
555.336	44.81
555.533	44.84
555.729	45.06
555.926	45.61
556.122	45.48
556.318	45.8
556.515	45.77
556.711	45.98
556.907	45.86
557.104	46.2
557.3	46.14
557.496	45.76
557.693	45.9
557.889	46.16
558.085	45.96
558.281	46.6
558.478	46.43
558.674	46.55
558.87	46.4
559.066	46.19
559.262	46.47
559.459	46.26
559.655	46.61
559.851	46.52
560.047	46.18
560.243	45.97
560.439	45.61
560.635	45.74
560.831	46.16
561.027	45.96
561.223	46.12
561.419	45.8
561.615	46.46
561.811	46.61
562.007	47.12
562.203	46.92
562.399	46.97
562.595	47.09
562.791	47.25
562.987	47
563.183	47.63
563.379	47.91
563.575	48.12
563.771	47.78
563.966	47.39
564.162	46.6
564.358	46.95
564.554	46.8
564.75	46.88
564.945	46.7
565.141	46.36
565.337	46.23
565.533	46.47
565.728	46.4
565.924	46.38
566.12	46.74
566.315	46.9
566.511	46.88
566.707	47.38
566.902	47.63
567.098	47.67
567.293	47.84
567.489	47.56
567.684	47.12
567.88	47.32
568.076	47.53
568.271	47.3
568.467	47.24
568.662	47.27
568.858	47.34
569.053	47.36
569.248	47.46
569.444	47.86
569.639	48.3
569.835	48.28
570.03	48.18
570.225	47.83
570.421	47.83
570.616	47.84
570.812	47.78
571.007	47.49
571.202	47.27
571.397	47.41
571.593	47.07
571.788	47.15
571.983	47.38
572.178	47.68
572.374	47.96
572.569	48.09
572.764	48.23
572.959	48.41
573.154	48.67
573.35	48.76
573.545	48.57
573.74	48.98
573.935	49.18
574.13	49.37
574.325	49.36
574.52	49.21
574.715	49.59
574.91	49.85
575.105	49.72
575.3	49.76
575.495	49.97
575.69	50.08
575.885	50.18
576.08	50.07
576.275	50.09
576.47	49.97
576.665	50.2
576.86	49.8
577.055	49.62
577.25	49.57
577.444	49.38
577.639	49.28
577.834	49.6
578.029	49.17
578.224	49.21
578.418	49.65
578.613	49.62
578.808	49.85
579.003	49.92
579.197	50.34
579.392	50.31
579.587	50.35
579.781	50.27
579.976	50.08
580.171	50.41
580.365	50.15
580.56	49.72
580.755	50.04
580.949	50.13
581.144	50.52
581.338	50.66
581.533	50.71
581.727	50.78
581.922	50.89
582.116	51.26
582.311	51.08
582.505	51.15
582.7	51.59
582.894	51.56
583.089	51.27
583.283	51.43
583.478	51.07
583.672	51.45
583.866	51.42
584.061	51.13
584.255	50.72
584.449	50.83
584.644	50.43
584.838	49.91
585.032	50.28
585.226	50.22
585.421	50.15
585.615	50.51
585.809	50.59
586.003	50.66
586.198	50.76
586.392	51.08
586.586	51.38
586.78	51.77
586.974	51.78
587.168	51.03
587.363	51.05
587.557	51.08
587.751	50.81
587.945	50.72
588.139	51.18
588.333	52.09
588.527	51.74
588.721	51.73
588.915	52.07
589.109	52.03
589.303	52.53
589.497	52.41
589.691	52.93
589.885	52.78
590.079	52.8
590.273	52.42
590.466	51.94
590.66	52.26
590.854	51.67
591.048	51.42
591.242	51.87
591.436	51.64
591.629	51.89
591.823	51.46
592.017	51.89
592.211	52.14
592.404	52.14
592.598	51.88
592.792	51.61
592.986	52.55
593.179	52.88
593.373	52.45
593.567	52.67
593.76	52.46
593.954	51.78
594.147	51.8
594.341	51.85
594.535	51.89
594.728	51.99
594.922	51.99
595.115	51.52
595.309	51.18
595.502	51.27
595.696	51.31
595.889	51.56
596.083	52.06
596.276	51.84
596.47	52.1
596.663	52.43
596.856	52.51
597.05	52.55
597.243	52.83
597.437	53.41
597.63	53.48
597.823	53.37
598.017	53.51
598.21	53.18
598.403	53.51
598.596	53.28
598.79	52.83
598.983	52.9
599.176	52.72
599.369	52.45
599.563	51.96
599.756	52.15
599.949	52.42
600.142	52.52
600.335	52.66
600.528	52.74
600.722	52.42
600.915	52.59
601.108	52.44
601.301	52.35
601.494	52.61
601.687	52.65
601.88	52.94
602.073	52.86
602.266	52.6
602.459	52.72
602.652	52.87
602.845	53.35
603.038	52.99
603.231	53.22
603.424	53.58
603.617	53.99
603.809	54.07
604.002	53.69
604.195	53.45
604.388	53.27
604.581	53.2
604.774	52.9
604.966	52.31
605.159	52.92
605.352	52.71
605.545	52.67
605.737	52.09
605.93	52.28
606.123	52.46
606.316	52.5
606.508	52.88
606.701	52.95
606.894	52.92
607.086	53.58
607.279	53.39
607.471	53.59
607.664	53.79
607.857	53.65
608.049	53.16
608.242	53.21
608.434	53.67
608.627	53.55
608.819	53.07
609.012	53.41
609.204	53.32
609.397	53.17
609.589	53.19
609.782	52.87
609.974	53.05
610.166	52.73
610.359	52.32
610.551	51.89
610.743	51.92
610.936	52.35
611.128	51.97
611.32	51.94
611.513	52.44
611.705	52.72
611.897	53.17
612.09	53.3
612.282	54.33
612.474	55.04
612.666	54.97
612.858	54.69
613.051	54.84
613.243	54.54
613.435	54.31
613.627	53.99
613.819	53.73
614.011	53.69
614.203	53.24
614.395	52.95
614.588	52.58
614.78	52.83
614.972	53.86
615.164	54.66
615.356	55.32
615.548	55.66
615.74	55.33
615.932	55.39
616.124	54.91
616.315	55.35
616.507	55.45
616.699	55.75
616.891	55.75
617.083	55.25
617.275	54.85
617.467	54.86
617.659	54.83
617.85	54.79
618.042	54.8
618.234	55.17
618.426	55.07
618.618	54.83
618.809	54.44
619.001	55.12
619.193	55.28
619.384	55.35
619.576	55.33
619.768	55.2
619.959	55.59
620.151	55.31
620.343	55.07
620.534	55.28
620.726	55.11
620.917	54.94
621.109	54.47
621.301	54.57
621.492	54.28
621.684	54.84
621.875	55.35
622.067	55.22
622.258	54.76
622.45	55.28
622.641	55.42
622.832	55.18
623.024	55.68
623.215	55.5
623.407	54.94
623.598	55.44
623.789	54.77
623.981	54.37
624.172	53.93
624.363	54.42
624.555	54.04
624.746	53.58
624.937	54.02
625.129	54.16
625.32	54.19
625.511	54.61
625.702	54.31
625.893	54.33
626.085	54.08
626.276	54.74
626.467	54.51
626.658	54.93
626.849	55.5
627.04	55.8
627.231	55.54
627.422	55.39
627.614	55.25
627.805	55.14
627.996	55.5
628.187	55.74
628.378	55.39
628.569	56.02
628.76	55.64
628.951	55.06
629.142	55
629.332	55.01
629.523	55.15
629.714	55.35
629.905	55.49
630.096	55.01
630.287	54.95
630.478	55.76
630.669	55.82
630.859	56.06
631.05	56.52
631.241	56.68
631.432	57.11
631.623	57.24
631.813	57.44
632.004	56.87
632.195	56.75
632.385	56.93
632.576	56.26
632.767	55.83
632.957	55.86
633.148	55.91
633.339	55.44
633.529	54.97
633.72	54.59
633.91	54.24
634.101	54.75
634.292	55.54
634.482	55.32
634.673	55.44
634.863	55.46
635.054	56.02
635.244	55.98
635.435	56.38
635.625	56.79
635.815	56.79
636.006	56.91
636.196	57.25
636.387	56.8
636.577	57.29
636.767	57.13
636.958	57.29
637.148	56.97
637.338	57.03
637.529	56.97
637.719	56.85
637.909	57.28
638.099	57.57
638.29	57.3
638.48	57.21
638.67	56.7
638.86	56.88
639.05	57.04
639.241	56.61
639.431	56.24
639.621	56.27
639.811	56.44
640.001	56.64
640.191	55.83
640.381	56.13
640.571	55.68
640.761	55.94
640.951	55.96
641.141	56.3
641.331	56.16
641.521	55.99
641.711	56.11
641.901	55.64
642.091	55.46
642.281	55.98
642.471	55.6
642.661	56.34
642.851	56.13
643.041	56.36
643.231	56.14
643.42	56.28
643.61	56.36
643.8	56.44
643.99	56.03
644.18	56.09
644.369	56.53
644.559	56.71
644.749	56.26
644.939	56.63
645.128	56.41
645.318	56.4
645.508	56.28
645.697	57.01
645.887	56.56
646.076	57.15
646.266	56.86
646.456	56.05
646.645	55.98
646.835	56.18
647.024	55.7
647.214	55.47
647.403	54.35
647.593	54.85
647.782	54.42
647.972	54.12
648.161	53.95
648.351	54.99
648.54	55.41
648.73	55.58
648.919	55.61
649.108	55.99
649.298	56.57
649.487	56.97
649.677	57.17
649.866	57.69
650.055	58.65
650.244	59.33
650.434	57.74
650.623	58.21
650.812	58.12
651.002	58.08
651.191	58.29
651.38	57.82
651.569	58.02
651.758	58.14
651.947	57.84
652.137	57.58
652.326	57.34
652.515	57.57
652.704	56.95
652.893	57.19
653.082	57.16
653.271	56.89
653.46	57.22
653.649	57.62
653.838	56.64
654.027	56.51
654.216	56.54
654.405	56.21
654.594	57.36
654.783	57.71
654.972	57.51
655.161	58.08
655.35	57.58
655.539	57.21
655.728	57.34
655.916	57.39
656.105	57.29
656.294	56.61
656.483	56.79
656.672	56.33
656.86	55.76
657.049	56.66
657.238	55.82
657.427	56.47
657.615	56.76
657.804	56.26
657.993	56.32
658.181	55.9
658.37	56.71
658.559	57.15
658.747	57.25
658.936	57.62
659.125	56.86
659.313	57.34
659.502	57.76
659.69	56.89
659.879	57.23
660.067	57.21
660.256	57.8
660.444	57.72
660.633	57.54
660.821	57.49
661.01	57.37
661.198	56.87
661.387	57.08
661.575	56.6
661.763	57.03
661.952	56.9
662.14	57.48
662.328	57.53
662.517	57.01
662.705	56.15
662.893	56.57
663.082	56.53
663.27	56.87
663.458	56.83
663.646	56.35
663.834	56.9
664.023	57.02
664.211	56.89
664.399	56.64
664.587	56.42
664.775	56.94
664.963	56.9
665.152	57.07
665.34	56.98
665.528	56.41
665.716	56.16
665.904	56.65
666.092	56.62
666.28	57.66
666.468	57.66
666.656	58.23
666.844	58.66
667.032	58.6
667.22	57.61
667.408	57.84
667.596	58.24
667.784	59.22
667.971	59.08
668.159	58.89
668.347	57.78
668.535	58.42
668.723	58.26
668.911	58.03
669.098	57.62
669.286	58.32
669.474	58.4
669.662	58.29
669.849	57.8
670.037	57.69
670.225	57.61
670.413	57.54
670.6	56.92
670.788	57.27
670.976	56.76
671.163	56.63
671.351	56.55
671.538	56.35
671.726	56.22
671.913	56.33
672.101	55.57
672.289	56.74
672.476	57.11
672.664	56.56
672.851	56.07
673.039	57.09
673.226	57.38
673.413	57.97
673.601	58.09
673.788	59
673.976	59.04
674.163	60.35
674.35	59.07
674.538	59.49
674.725	60.27
674.912	60.82
675.1	60.42
675.287	60.58
675.474	60.71
675.662	59.86
675.849	59.22
676.036	58.89
676.223	58.74
676.411	59.33
676.598	57.92
676.785	58.34
676.972	58.2
677.159	57.46
677.346	57.88
677.533	57.84
677.721	58.82
677.908	58.54
678.095	59.45
678.282	59.52
678.469	59.45
678.656	59.1
678.843	59.26
679.03	58.67
679.217	58.92
679.404	58.69
679.591	59.43
679.778	59.15
679.964	59.11
680.151	58.76
680.338	57.87
680.525	58.09
680.712	59.48
680.899	58.75
681.086	59.26
681.272	59.77
681.459	60.35
681.646	59.46
681.833	60
682.02	60.04
682.206	59.76
682.393	59.58
682.58	58.84
682.766	57.98
682.953	58.79
683.14	58.15
683.326	57.78
683.513	56.88
683.7	56.51
683.886	56.45
684.073	56.79
684.259	56.28
684.446	57.1
684.632	57.53
684.819	58.31
685.005	57.76
685.192	57.95
685.378	58.6
685.565	58.64
685.751	59.02
685.938	59.22
686.124	59.81
686.31	60.63
686.497	61.41
686.683	61.39
686.87	60.83
687.056	60.25
687.242	60.95
687.429	59.62
687.615	58.67
687.801	58.53
687.987	58.65
688.174	58.36
688.36	58.31
688.546	57.37
688.732	58.06
688.918	58.85
689.105	59.38
689.291	59.04
689.477	59.67
689.663	61.56
689.849	61.6
690.035	61.32
690.221	60.24
690.407	60.59
690.593	60.49
690.779	59.01
690.965	58.44
691.151	58.31
691.337	59.02
691.523	58.39
691.709	57.67
691.895	56.84
692.081	57.04
692.267	57.48
692.453	57.13
692.639	57.8
692.825	58.39
693.011	58.78
693.196	60.17
693.382	60.14
693.568	61.59
693.754	61.61
693.94	62.21
694.125	62.42
694.311	62.85
694.497	62.54
694.682	61.57
694.868	62.1
695.054	62.65
695.239	61.45
695.425	60.44
695.611	60.24
695.796	60.13
695.982	59.66
696.168	59.65
696.353	59.86
696.539	60.02
696.724	60.35
696.91	60.12
697.095	59.81
697.281	59.48
697.466	59.66
697.652	59.88
697.837	59.43
698.023	59.77
698.208	59.19
698.393	59.13
698.579	59.15
698.764	59.43
698.949	59.03
699.135	58.92
699.32	59.33
699.505	59.63
699.691	58.54
699.876	58.85
700.061	58.3
700.246	58.77
700.432	58.46
700.617	58.71
700.802	58.67
700.987	59.31
701.172	58.77
701.358	58.39
701.543	57.65
701.728	59.11
701.913	60.28
702.098	60.88
702.283	60.17
702.468	60.16
702.653	60.35
702.838	59.82
703.023	60.19
703.208	59.95
703.393	60.28
703.578	60.84
703.763	60.06
703.948	58.93
704.133	60.18
704.318	60.42
704.503	61.45
704.688	60.44
704.873	60.03
705.057	60.76
705.242	60.67
705.427	60.72
705.612	61.4
705.797	62.47
705.981	63
706.166	62.94
706.351	63.04
706.536	62.66
706.72	61.69
706.905	61.81
707.09	61.37
707.274	63.22
707.459	63.87
707.644	63.17
707.828	63.15
708.013	62.96
708.197	62.75
708.382	62.43
708.567	61.38
708.751	61.64
708.936	62.68
709.12	63.14
709.305	62.03
709.489	61.69
709.673	61.79
709.858	62.64
710.042	63.35
710.227	61.71
710.411	62.71
710.596	63.23
710.78	64.09
710.964	62.7
711.149	61.58
711.333	62.2
711.517	61.71
711.702	62.78
711.886	61.49
712.07	59.57
712.254	60.19
712.438	59.05
712.623	59.69
712.807	60.15
712.991	59.57
713.175	59.53
713.359	58.95
713.544	58.45
713.728	56.51
713.912	56.39
714.096	57.82
714.28	57.96
714.464	58.1
714.648	56.58
714.832	56.36
715.016	57.68
715.2	57.42
715.384	58.2
715.568	58.79
715.752	59.77
715.936	59.45
716.12	58.76
716.304	58.28
716.488	57.86
716.671	58.29
716.855	57.42
717.039	58.78
717.223	59.41
717.407	58.84
717.59	59.61
717.774	60.27
717.958	60.73
718.142	61.02
718.325	62.63
718.509	63.36
718.693	63.54
718.877	65
719.06	64.03
719.244	64.25
719.428	64.13
719.611	63.62
719.795	63.36
719.978	63.98
720.162	62.57
720.345	61.27
720.529	59.82
720.713	60.54
720.896	60.87
721.08	60.91
721.263	61.69
721.446	62.89
721.63	63.14
721.813	61.7
721.997	61.16
722.18	61.68
722.364	63.5
722.547	64.1
722.73	62.41
722.914	60.37
723.097	62.21
723.28	62.06
723.464	62.39
723.647	61.69
723.83	61.64
724.013	62.87
724.197	65.01
724.38	63.1
724.563	63.98
724.746	66.94
724.929	68.18
725.112	65.28
725.296	64.81
725.479	62.14
725.662	62.29
725.845	62.06
726.028	62.42
726.211	60.63
726.394	61.01
726.577	61.89
726.76	61.39
726.943	60.96
727.126	62.05
727.309	61.26
727.492	63.43
727.675	63.45
727.858	63.9
728.041	62.05
728.224	61.28
728.407	62
728.589	62.6
728.772	60.62
728.955	61.08
729.138	60.93
729.321	61.56
729.503	61.51
729.686	61.16
729.869	61.04
730.052	60.86
730.234	61.89
730.417	60.3
730.6	58.67
730.782	59.65
730.965	58.88
731.148	58.02
731.33	56.78
731.513	57.02
731.695	55.91
731.878	56.44
732.061	56.23
732.243	54.53
732.426	56.62
732.608	56.91
732.791	58.03
732.973	58.41
733.156	60.66
733.338	61.58
733.52	61.65
733.703	62.97
733.885	63.08
734.068	63.47
734.25	65.75
734.432	65.48
734.615	65.55
734.797	64.03
734.979	64.5
735.162	63.24
735.344	62.7
735.526	61.87
735.708	61.64
735.891	59.94
736.073	60.47
736.255	59.98
736.437	59.17
736.619	59.46
736.802	59.41
736.984	59.21
737.166	59.07
737.348	59.26
737.53	60.05
737.712	60.1
737.894	61.57
738.076	60.86
738.258	61.85
738.44	61.59
738.622	60.95
738.804	60.99
738.986	61.79
739.168	63.41
739.35	63.69
739.532	61.47
739.714	61.87
739.896	60.76
740.078	61.97
740.259	61.64
740.441	63.07
740.623	62.39
740.805	61.78
740.987	60.29
741.168	58.58
741.35	58.47
741.532	59
741.714	58.49
741.895	58.39
742.077	56.07
742.259	56.68
742.44	54.46
742.622	56.19
742.804	57.4
742.985	57.69
743.167	57.28
743.348	57.46
743.53	57.43
743.711	57.67
743.893	59.58
744.075	61.6
744.256	59.63
744.438	61.41
744.619	62.14
744.8	59.19
744.982	61.59
745.163	64.28
745.345	62.48
745.526	62.94
745.707	64.75
745.889	64.37
746.07	64.72
746.252	64.86
746.433	62.8
746.614	61.95
746.795	62.62
746.977	61.47
747.158	60.19
747.339	61.21
747.52	61.85
747.702	60.42
747.883	59.64
748.064	58.68
748.245	59.54
748.426	59.46
748.607	58.37
748.788	62.54
748.97	62.39
749.151	61.84
749.332	63.95
749.513	62.71
749.694	63.41
749.875	66.16
750.056	67.55
750.237	67.32
750.418	69.46
750.599	71.05
750.78	67.88
750.96	65.07
751.141	64.75
751.322	64.07
751.503	63.5
751.684	64.12
751.865	60.59
752.046	58.64
752.226	57.06
752.407	57.15
752.588	56.7
752.769	58.23
752.949	59.3
753.13	58.71
753.311	56.54
753.492	58.04
753.672	56.75
753.853	58.71
754.034	61.55
754.214	60.99
754.395	61.21
754.575	60.37
754.756	59.43
754.937	61.65
755.117	63.19
755.298	65.34
755.478	64.41
755.659	65.99
755.839	66.43
756.02	65.31
756.2	68.56
756.381	68.31
756.561	68.17
756.741	67.83
756.922	67.01
757.102	66.82
757.283	66.33
757.463	66.03
757.643	64.3
757.823	61.48
758.004	61.57
758.184	59.37
758.364	59.5
758.545	59.58
758.725	59.44
758.905	59.97
759.085	56.49
759.265	55.66
759.446	57.35
759.626	56.21
759.806	55.27
759.986	54.66
760.166	56.99
760.346	57.23
760.526	55.99
760.706	56.93
760.886	56.7
761.066	59.98
761.246	59.21
761.426	57.31
761.606	57.45
761.786	59.09
761.966	59.09
762.146	58.12
762.326	57.95
762.506	60.32
762.686	59.29
762.866	60.62
763.046	59.83
763.225	60.84
763.405	61.4
763.585	60.74
763.765	60.61
763.945	60.54
764.124	60.92
764.304	60.56
764.484	61.6
764.664	61.65
764.843	60.75
765.023	61.1
765.203	59.02
765.382	60.33
765.562	61.61
765.741	61.74
765.921	62.6
766.101	64.47
766.28	63.59
766.46	63.01
766.639	62.83
766.819	61.02
766.998	60.47
767.178	61.14
767.357	59.77
767.537	61.9
767.716	64.42
767.896	62.63
768.075	60.15
768.254	59.79
768.434	56.33
768.613	56.4
768.792	58.61
768.972	57.09
769.151	58.73
769.33	58.25
769.51	57.04
769.689	55.9
769.868	58.15
770.047	56.84
770.226	57.42
770.406	57.53
770.585	57.83
770.764	58.15
770.943	57.87
771.122	57.16
771.301	59.27
771.48	58.49
771.66	58.54
771.839	57.69
772.018	59.86
772.197	62.37
772.376	63.01
772.555	66.93
772.734	66.6
772.913	70.22
773.092	72.61
773.271	69.54
773.449	73.88
773.628	72.38
773.807	74.52
773.986	72.41
774.165	68.68
774.344	72.53
774.523	68.27
774.701	67.96
774.88	66.25
775.059	65.83
775.238	67.27
775.417	64.37
775.595	63.27
775.774	61.12
775.953	64.56
776.131	66.85
776.31	64.36
776.489	63.39
776.667	65.76
776.846	65.04
777.025	62.5
777.203	61.11
777.382	59.59
777.56	62.29
777.739	61.36
777.917	60.64
778.096	60.98
778.274	60.26
778.453	62.19
778.631	58.51
778.81	58.88
778.988	59.58
779.166	61.61
779.345	64.54
779.523	63.6
779.702	66.22
779.88	64.38
780.058	61.34
780.237	61.92
780.415	59.57
780.593	60.16
780.771	61.97
780.95	64.85
781.128	63.6
781.306	58.99
781.484	59.65
781.662	60.34
781.841	58.22
782.019	60.52
782.197	59.24
782.375	57.69
782.553	59.22
782.731	58.32
782.909	56.27
783.087	56.72
783.265	60.25
783.443	63.69
783.621	61.04
783.799	62.63
783.977	65.16
784.155	69.29
784.333	72.02
784.511	71.13
784.689	72.77
784.867	72.11
785.045	77.1
785.223	72.76
785.4	67.99
785.578	65.56
785.756	66.83
785.934	63.01
786.112	60.84
786.289	59.64
786.467	58.84
786.645	59.06
786.823	61.98
787	56.96
787.178	59.54
787.356	59.54
787.533	64.25
787.711	65.01
787.889	65.31
788.066	62.02
788.244	66.55
788.421	67.31
788.599	69.74
788.776	69.14
788.954	69.92
789.131	67.85
789.309	68.98
789.486	66.33
789.664	67.73
789.841	68.86
790.019	71.06
790.196	69.51
790.373	69.01
790.551	62.73
790.728	66.3
790.906	67.91
791.083	70.34
791.26	71.39
791.437	71.28
791.615	70.88
791.792	68.53
791.969	69.71
792.146	67.33
792.324	67.19
792.501	70.22
792.678	66.07
792.855	59.84
793.032	58.53
793.209	58.9
793.387	59.18
793.564	57.38
793.741	62.93
793.918	63.74
794.095	62.54
794.272	62.77
794.449	62.81
794.626	64.8
794.803	68.85
794.98	63.98
795.157	61.53
795.334	58.36
795.511	58.39
795.688	58.83
795.864	56.91
796.041	58.34
796.218	58.12
796.395	57.82
796.572	55.13
796.749	57.46
796.925	63.56
797.102	60.65
797.279	62.97
797.456	65.08
797.632	60.94
797.809	62.24
797.986	65.48
798.162	67.21
798.339	69.71
798.516	72.19
798.692	71.88
798.869	71.79
799.046	79.94
799.222	76.89
799.399	73.95
799.575	80.5
799.752	82
799.928	78.19
800.105	71.78
800.281	70.59
800.458	70.44
800.634	67.94
800.811	68.39
800.987	70.19
801.163	71.64
801.34	75.19
801.516	72.54
801.692	67.45
801.869	67.61
802.045	71.18
802.221	69.41
802.398	68.27
802.574	67.41
802.75	66.92
802.926	63.19
803.103	66.56
803.279	59.12
803.455	51.27
803.631	58.78
803.807	59.09
803.983	64.99
804.16	63.4
804.336	65.26
804.512	65.35
804.688	65.78
804.864	68.15
805.04	66.45
805.216	69.98
805.392	78.95
805.568	76.35
805.744	73.7
805.92	63.66
806.096	69.16
806.272	68.41
806.448	68.42
806.623	67.94
806.799	76.48
806.975	76.09
807.151	75.91
807.327	75.71
807.503	73.3
807.678	73.46
807.854	79.74
808.03	76.95
808.206	73.43
808.381	74.84
808.557	70.15
808.733	63.29
808.908	60.83
809.084	62.37
809.26	58.75
809.435	62.21
809.611	64.18
809.787	59.62
809.962	64.78
810.138	69.65
810.313	71.56
810.489	72.86
810.664	69.24
810.84	69.62
811.015	64.92
811.191	69.55
811.366	71.4
811.542	73.5
811.717	74.97
811.892	68.79
812.068	67.87
812.243	64.94
812.419	67.45
812.594	68.75
812.769	71.66
812.944	80.25
813.12	71
813.295	69.41
813.47	63.15
813.645	68.7
813.821	73.25
813.996	75.8
814.171	75.48
814.346	78.29
814.521	75.22
814.697	68.89
814.872	60.9
815.047	66.99
815.222	58.21
815.397	61.81
815.572	60.16
815.747	58.91
815.922	51
816.097	51.69
816.272	49.41
816.447	51.85
816.622	53.48
816.797	54.12
816.972	54.51
817.147	58.75
817.322	56.8
817.496	55.48
817.671	54.09
817.846	59.1
818.021	61.07
818.196	57.6
818.371	60.13
818.545	58.35
818.72	57.63
818.895	58.25
819.069	57.76
819.244	60.37
819.419	62.97
819.594	60.14
819.768	57.4
819.943	55.61
820.117	57.83
820.292	57.14
820.467	59.67
820.641	61.07
820.816	62.43
820.99	61.45
821.165	61.03
821.339	59.49
821.514	60.12
821.688	60.27
821.863	60.13
822.037	60.21
822.212	59.46
822.386	59.33
822.56	58.87
822.735	57.85
822.909	58.49
823.084	58.87
823.258	59.32
823.432	59.4
823.606	60.5
823.781	58.94
823.955	59.76
824.129	60.47
824.303	59.1
824.478	60.79
824.652	61.42
824.826	62.36
825	61.71
825.174	61.23
825.348	60.49
825.523	58.66
825.697	61.08
825.871	59.11
826.045	59.94
826.219	60.67
826.393	58.75
826.567	58.55
826.741	58.39
826.915	58.63
827.089	60.33
827.263	61.19
827.437	61.48
827.611	63.15
827.784	63.09
827.958	62.64
828.132	64.72
828.306	65.24
828.48	65
828.654	63.82
828.827	62.6
829.001	61.45
829.175	61.97
829.349	62.54
829.522	59.57
829.696	61.19
829.87	62.23
830.044	63.49
830.217	65.55
830.391	67.76
830.565	65.97
830.738	63.22
830.912	60.65
831.085	58.37
831.259	53.53
831.432	55.76
831.606	56.85
831.779	55
831.953	51.49
832.126	48.43
832.3	48.42
832.473	49.76
832.647	54.5
832.82	54.46
832.994	56.14
833.167	58.7
833.34	59.66
833.514	57.37
833.687	56.96
833.86	58.06
834.034	61.02
834.207	61.5
834.38	64.22
834.553	63.47
834.727	66.38
834.9	65.4
835.073	67.3
835.246	66.76
835.419	70.35
835.593	72.1
835.766	68.77
835.939	68.29
836.112	69.83
836.285	63.16
836.458	65.25
836.631	63.9
836.804	64.02
836.977	63.46
837.15	60.81
837.323	54.83
837.496	53.44
837.669	59.52
837.842	56.38
838.015	56.44
838.188	59.15
838.361	50.2
838.533	51.31
838.706	46.57
838.879	53.33
839.052	57.1
839.225	71.83
839.398	78.02
839.57	74.63
839.743	78.21
839.916	77.79
840.088	78.79
840.261	87.38
840.434	91.12
840.607	86.94
840.779	83.97
840.952	82.44
841.124	68.85
841.297	68.69
841.47	68.57
841.642	54.83
841.815	55.86
841.987	62.44
842.16	54.38
842.332	63.71
842.505	64.31
842.677	60.83
842.85	67.15
843.022	75.62
843.194	75.12
843.367	79.62
843.539	86.33
843.712	72.51
843.884	77.77
844.056	82.09
844.229	76.63
844.401	85.74
844.573	88.64
844.745	85.15
844.918	86.31
845.09	83.09
845.262	74.9
845.434	83.15
845.606	90.44
845.779	73.36
845.951	89.36
846.123	80.52
846.295	81.9
846.467	85.04
846.639	76.53
846.811	68.97
846.983	61.46
847.155	74.77
847.327	70.03
847.499	66.27
847.671	83.78
847.843	77.89
848.015	99
848.187	99.87
848.359	82.3
848.531	100
848.703	107.2
848.875	144.36
849.047	124.04
849.218	177.6
849.39	171.67
849.562	108.63
849.734	90.83
849.905	82.22
850.077	82
850.249	116.45
850.421	124.19
850.592	115.64
850.764	107.07
850.936	126.67
851.107	131.94
851.279	142.99
851.451	134.49
851.622	119.05
851.794	102.01
851.965	82.41
852.137	77.81
852.308	68.21
852.48	78.69
852.651	64.41
852.823	71.73
852.994	66.64
853.166	71.87
853.337	78.06
853.509	94.25
853.68	105.54
853.851	94.28
854.023	114.81
854.194	108.79
854.365	89.48
854.537	82.13
854.708	63.07
854.879	16.92
855.05	-36.41
855.222	-12.65
855.393	-48.38
855.564	-27.89
855.735	36.72
855.906	30.19
856.078	36.96
856.249	54.6
856.42	66.67
856.591	63.54
856.762	81.17
856.933	121.42
857.104	122.22
857.275	139.8
857.446	90.29
857.617	76.06
857.788	86.41
857.959	91.34
858.13	79.78
858.301	85.82
858.472	105.15
858.643	106.67
858.814	122.52
858.985	97.31
859.155	86.52
859.326	140.18
859.497	171.16
859.668	139.04
859.839	164.81
860.009	162.47
860.18	112.07
860.351	79.76
860.522	60.78
860.692	44.22
860.863	60
861.034	76.74
861.204	59.1
861.375	49.75
861.546	54.82
861.716	55.8
861.887	42.67
862.057	61.34
862.228	48.14
862.398	73.91
862.569	75.27
862.739	61.77
862.91	70.6
863.08	103.34
863.251	88.17
863.421	81.75
863.592	86.21
863.762	78.3
863.932	70.42
864.103	83.8
864.273	78.3
864.443	104.4
864.614	96.35
864.784	81.87
864.954	72.48
865.125	98.69
865.295	106.96
865.465	107.69
865.635	145.13
865.805	139.38
865.976	158.35
866.146	154.25
866.316	139.57
866.486	197.49
866.656	148.52
866.826	142.83
866.996	114.77
867.166	116.72
867.336	121.68
867.506	85.85
867.676	83.7
867.846	72.43
868.016	76.08
868.186	74.69
868.356	83.65
868.526	87.68
868.696	93.45
868.866	107.79
869.036	117.97
869.206	91.02
869.376	92.93
869.545	94.62
869.715	96
869.885	104.35
870.055	104.51
870.224	105.82
870.394	125
870.564	105.68
870.734	90.85
870.903	55.42
871.073	71.96
871.243	91.62
871.412	93.89
871.582	90.34
871.751	100.93
871.921	99.22
872.091	90.62
872.26	87.36
872.43	66.4
872.599	64.35
872.769	72.37
872.938	73.07
873.108	74.83
873.277	93.73
873.446	110.98
873.616	88.14
873.785	92.66
873.955	115.33
874.124	106.99
874.293	271.79
874.463	377.84
874.632	473.48
874.801	711.76
874.971	235.71
875.14	196.11
875.309	130.78
875.478	107.59
875.647	96.19
875.817	78.95
875.986	89.93
876.155	78.56
876.324	71.22
876.493	75.24
876.662	68.55
876.831	84.86
877	93.86
877.17	101.82
877.339	127.05
877.508	118.11
877.677	147.92
877.846	152.74
878.015	134.75
878.184	105.06
878.352	90.32
878.521	83.23
878.69	70.36
878.859	58.56
879.028	71.91
879.197	69.57
879.366	71.49
879.534	49.85
879.703	45.29
879.872	41.82
880.041	54.98
880.21	53.48
880.378	47.73
880.547	56.27
880.716	65.14
880.884	59.26
881.053	55.39
881.222	58.1
881.39	57.17
881.559	59.17
881.727	59.76
881.896	58.31
882.065	58.05
882.233	57.28
882.402	53.98
882.57	48.84
882.739	47.5
882.907	50.58
883.076	52.27
883.244	55.18
883.412	52.49
883.581	50.93
883.749	52.8
883.918	53.62
884.086	51.24
884.254	54.04
884.423	56.72
884.591	61.51
884.759	60.25
884.927	52.35
885.096	47.29
885.264	53.05
885.432	59.06
885.6	60.73
885.769	59.46
885.937	56.66
886.105	55.59
886.273	56.04
886.441	49.7
886.609	45.22
886.777	58.81
886.945	68.53
887.113	70.8
887.281	64.11
887.449	61.08
887.617	56.95
887.785	71.42
887.953	63.02
888.121	55.09
888.289	70.57
888.457	83.99
888.625	64.15
888.793	53.81
888.961	37.89
889.129	49.41
889.296	53.24
889.464	64.63
889.632	65.75
889.8	80.67
889.967	98.82
890.135	90.51
