Data from JASIL_3230_Reflection_1.txt Node
Date: Mon Nov 16 20:08:17 EST 2015
User: Geneva
Spectrometer: USB4E03002
Autoset integration time: false
Trigger mode: 4
Integration Time (sec): 1.000000E-1
Scans to average: 10
Electric dark correction enabled: false
Nonlinearity correction enabled: false
Boxcar width: 5
Stray light correction enabled: false
XAxis mode: Wavelengths
Stop averaging: false
Number of Pixels in Spectrum: 3648
>>>>>Begin Spectral Data<<<<<
177.575	1146.08
177.794	2062.12
178.014	1293.94
178.233	1121.64
178.452	790.36
178.672	1533.12
178.891	2033.85
179.11	1764.33
179.33	1998.57
179.549	1248.21
179.768	1244.59
179.987	801.14
180.207	641.11
180.426	894.05
180.645	989.23
180.864	1134.52
181.084	735.73
181.303	880.25
181.522	1008.63
181.741	760.9
181.96	676.37
182.179	837.29
182.398	1100.37
182.618	4108.82
182.837	3148.15
183.056	3092.13
183.275	1803.75
183.494	3600
183.713	1521.51
183.932	876.07
184.151	1372.17
184.37	1576.8
184.589	1463.47
184.808	1540
185.027	978.51
185.246	835.46
185.465	838.82
185.684	1546.08
185.903	1081.42
186.122	1212.95
186.341	4915.62
186.56	2028.67
186.779	-3641.56
186.998	-2724.24
187.216	-1559.88
187.435	-6578.05
187.654	-3532
187.873	-4803.57
188.092	-7316.67
188.311	-25810
188.53	-2474.49
188.748	3677.03
188.967	-4355.74
189.186	3365.79
189.405	1601.18
189.623	1306.7
189.842	2503.81
190.061	3794.2
190.28	1596.39
190.498	1989.06
190.717	3814.71
190.936	2697.03
191.154	6337.21
191.373	3706.33
191.592	3156.67
191.81	3798.65
192.029	3079.35
192.248	-6748.72
192.466	-7997.06
192.685	-1088.21
192.904	-1660.13
193.122	-1135.81
193.341	-2832.22
193.559	-1701.3
193.778	-2278.07
193.996	5354.72
194.215	-5852.17
194.433	-1348.96
194.652	-1326.09
194.87	-1302.48
195.089	-2444.14
195.307	-1446.84
195.526	-1858.5
195.744	-1166.21
195.963	-836.5
196.181	-611.24
196.399	-383.76
196.618	-312.42
196.836	-728.01
197.055	-718.67
197.273	-39216.67
197.491	-7236.36
197.71	1741.3
197.928	5870
198.146	3901.59
198.365	1724.03
198.583	975.27
198.801	718.72
199.019	458.45
199.238	613.98
199.456	564.4
199.674	824.17
199.892	734
200.111	840.13
200.329	657.44
200.547	868.11
200.765	1312
200.983	9013.79
201.202	-2437.5
201.42	-2053.97
201.638	-4455.74
201.856	10673.08
202.074	2642.06
202.292	6150
202.51	-4527.59
202.728	4785.45
202.946	2489.72
203.165	1423.74
203.383	1322.12
203.601	1052.36
203.819	1916.89
204.037	3698.63
204.255	8179.41
204.473	-4627.42
204.691	-12218.18
204.909	-15717.65
205.127	-2230
205.345	6495.35
205.562	1873.65
205.78	1180.31
205.998	911.29
206.216	736.96
206.434	877.97
206.652	805.8
206.87	928.44
207.088	752.62
207.306	1092.52
207.523	1779.78
207.741	5485.96
207.959	19662.5
208.177	-8430.56
208.395	-1704.85
208.612	-2240.16
208.83	2465.22
209.048	2462.61
209.266	266000
209.483	-2575.73
209.701	13270
209.919	2008.73
210.136	877.3
210.354	591.32
210.572	450.09
210.79	384.89
211.007	389.06
211.225	468.52
211.442	493.51
211.66	380.74
211.878	395.89
212.095	434.88
212.313	437.15
212.53	580.06
212.748	682.56
212.966	881.84
213.183	1121.41
213.401	983.76
213.618	1076.6
213.836	885.48
214.053	1032.41
214.271	627.27
214.488	540.55
214.705	586.65
214.923	442.83
215.14	804.8
215.358	582.46
215.575	812.07
215.793	799.69
216.01	478.24
216.227	579.27
216.445	570.82
216.662	757.56
216.879	866.13
217.097	550.6
217.314	544.83
217.531	446.27
217.749	478.95
217.966	428.55
218.183	463.42
218.4	1015.91
218.618	775.93
218.835	707.11
219.052	683.83
219.269	737.44
219.487	1960.14
219.704	2793.2
219.921	1447.5
220.138	1379.64
220.355	778.81
220.572	1370.83
220.79	896.84
221.007	980.52
221.224	971.33
221.441	1492.43
221.658	1291.89
221.875	1165.02
222.092	1781.94
222.309	45433.33
222.526	2729.29
222.743	6509.52
222.96	1547.28
223.177	543.51
223.394	550.19
223.611	507.06
223.828	526.36
224.045	431.39
224.262	345.5
224.479	345.01
224.696	302.42
224.913	301.49
225.13	300
225.347	237.29
225.564	274.19
225.781	229.26
225.997	234.84
226.214	184.64
226.431	160.89
226.648	152.27
226.865	137.74
227.082	129.13
227.298	114.19
227.515	97.46
227.732	95.78
227.949	88.91
228.165	80.95
228.382	71.52
228.599	69.43
228.816	69.37
229.032	67.64
229.249	68.29
229.466	64.31
229.682	66.67
229.899	76.91
230.116	77.74
230.332	82.68
230.549	87.75
230.765	98.96
230.982	102.74
231.199	109.67
231.415	117.01
231.632	120.03
231.848	127.38
232.065	136.72
232.281	130.95
232.498	127.1
232.714	135.56
232.931	136.96
233.147	131.87
233.364	137.08
233.58	131.82
233.797	120.65
234.013	113.1
234.23	112.36
234.446	106.36
234.662	107.33
234.879	114.37
235.095	106.57
235.312	107.13
235.528	109.44
235.744	110.59
235.961	117.83
236.177	126.91
236.393	132.28
236.61	133.72
236.826	135.33
237.042	143.77
237.258	135.73
237.475	147.1
237.691	148.8
237.907	143.4
238.123	132.29
238.339	124.31
238.556	115.27
238.772	112.74
238.988	101.9
239.204	94.21
239.42	84.96
239.636	82.32
239.853	76.62
240.069	70.8
240.285	67.71
240.501	64.27
240.717	61.25
240.933	58.39
241.149	53.74
241.365	54.18
241.581	51.56
241.797	49.53
242.013	47.78
242.229	46.39
242.445	46.3
242.661	44.62
242.877	47.25
243.093	46.71
243.309	48.91
243.525	52.8
243.741	52.19
243.957	53.92
244.173	52.24
244.388	53.6
244.604	53.25
244.82	51.43
245.036	47.2
245.252	41.33
245.468	40.19
245.683	36.19
245.899	33.78
246.115	32.24
246.331	29.82
246.547	28.56
246.762	27.92
246.978	26.92
247.194	25.68
247.409	26.06
247.625	27.53
247.841	27.17
248.057	30.2
248.272	29.66
248.488	32.84
248.703	36.95
248.919	41.51
249.135	44.67
249.35	50.4
249.566	52.62
249.782	58.62
249.997	59.86
250.213	58.54
250.428	55.41
250.644	57.76
250.859	54.84
251.075	53.3
251.29	50.49
251.506	49.22
251.721	48.16
251.937	52.23
252.152	50.79
252.368	49.61
252.583	55.99
252.798	57.07
253.014	58.79
253.229	62.28
253.445	64
253.66	68.61
253.875	70.44
254.091	70.25
254.306	67.96
254.521	70.08
254.737	77.48
254.952	74.2
255.167	80.48
255.383	76.52
255.598	73.36
255.813	74.7
256.028	71.95
256.244	70.75
256.459	67.23
256.674	65.14
256.889	60.66
257.104	57.42
257.32	54.12
257.535	49
257.75	46.33
257.965	43.83
258.18	38.09
258.395	35.08
258.61	32.29
258.826	30.61
259.041	28.61
259.256	26.59
259.471	23.58
259.686	21.31
259.901	20.92
260.116	20.6
260.331	20.72
260.546	23.08
260.761	24.22
260.976	25.19
261.191	26.51
261.406	28.4
261.621	31.52
261.836	34.22
262.05	40.16
262.265	42.2
262.48	43.18
262.695	45.07
262.91	44.23
263.125	45.61
263.34	47.66
263.555	48.66
263.769	48.32
263.984	48.06
264.199	49.69
264.414	45.86
264.629	44.34
264.843	45.31
265.058	45.06
265.273	45.11
265.488	42.62
265.702	40.21
265.917	39.4
266.132	38.68
266.346	37.04
266.561	36.49
266.776	35.76
266.99	34.37
267.205	32.85
267.42	30.89
267.634	29.19
267.849	28.8
268.063	28.28
268.278	28.36
268.492	28.88
268.707	27.69
268.922	28.13
269.136	27.42
269.351	29.33
269.565	30.72
269.78	31.35
269.994	31.2
270.209	31.06
270.423	31.61
270.637	29.61
270.852	30.41
271.066	30.78
271.281	29.89
271.495	29.63
271.709	27.85
271.924	27.86
272.138	28.29
272.353	29.14
272.567	30.66
272.781	31.3
272.996	33.74
273.21	34.33
273.424	35.55
273.638	35.26
273.853	36.62
274.067	39.18
274.281	40.37
274.495	39.82
274.71	38.02
274.924	37.35
275.138	35.64
275.352	35.69
275.566	33.57
275.781	33.78
275.995	36.8
276.209	37.83
276.423	36.44
276.637	36.13
276.851	35.92
277.065	37.17
277.279	37.53
277.493	39.28
277.707	38.2
277.921	38.74
278.135	37.86
278.349	37.54
278.563	37.21
278.777	36.87
278.991	35.75
279.205	35.66
279.419	36.76
279.633	37.37
279.847	36.18
280.061	35.39
280.275	35.38
280.489	36.51
280.703	33.95
280.917	33.27
281.131	32.88
281.344	34.21
281.558	33.83
281.772	33.71
281.986	33.47
282.2	32.73
282.414	32.11
282.627	31.09
282.841	30.54
283.055	30.37
283.269	29.7
283.482	30
283.696	27.34
283.91	27.05
284.123	25.01
284.337	23.61
284.551	23.2
284.764	24.07
284.978	23.92
285.192	22.21
285.405	22.95
285.619	22.82
285.833	23.81
286.046	25.14
286.26	26.54
286.473	26.88
286.687	27.08
286.9	28.14
287.114	27.72
287.327	28.41
287.541	29.79
287.754	29.67
287.968	30.76
288.181	29.26
288.395	29.68
288.608	28.97
288.822	28.8
289.035	29.48
289.248	28.73
289.462	28.96
289.675	28.7
289.889	28.18
290.102	27.74
290.315	28.04
290.529	28.17
290.742	28.19
290.955	27.69
291.169	27.56
291.382	27.34
291.595	29.9
291.808	30.54
292.022	30.88
292.235	31.58
292.448	32.03
292.661	30.81
292.875	31.47
293.088	29.91
293.301	30.44
293.514	29.83
293.727	29.13
293.94	27.25
294.153	27.44
294.367	26.55
294.58	26.32
294.793	24.83
295.006	24.38
295.219	22.6
295.432	22.56
295.645	21.94
295.858	22.82
296.071	22.92
296.284	22.04
296.497	21.5
296.71	20.64
296.923	19.99
297.136	21.01
297.349	21.85
297.562	22.12
297.775	22.12
297.988	22.14
298.201	23.22
298.414	22.72
298.626	23.62
298.839	23.16
299.052	25.21
299.265	26.29
299.478	25.86
299.691	25.52
299.903	25.31
300.116	25.34
300.329	25.94
300.542	24.74
300.755	25.6
300.967	25.6
301.18	25.45
301.393	24.65
301.605	24.68
301.818	24.48
302.031	24.14
302.243	24.65
302.456	24.97
302.669	24.79
302.881	26.92
303.094	26.39
303.307	25.88
303.519	27.11
303.732	27.42
303.944	28.31
304.157	29.39
304.37	29.52
304.582	29.89
304.795	29.37
305.007	28.81
305.22	27.3
305.432	28.05
305.645	27.95
305.857	28.07
306.069	27.92
306.282	26.95
306.494	25.19
306.707	25.35
306.919	25.13
307.132	25.3
307.344	26.35
307.556	25.62
307.769	24.83
307.981	25.5
308.193	24.44
308.406	23.71
308.618	23.57
308.83	24.33
309.043	23.89
309.255	24.84
309.467	26.05
309.679	25.91
309.892	25.17
310.104	25.24
310.316	24.24
310.528	23.42
310.74	24.54
310.953	24.51
311.165	24.39
311.377	24.85
311.589	24.5
311.801	23.11
312.013	22.99
312.225	25.28
312.437	26.03
312.649	27.49
312.862	28.62
313.074	29.82
313.286	30.49
313.498	32.48
313.71	32.17
313.922	32.66
314.134	33.25
314.346	33.25
314.558	31.36
314.77	31.09
314.982	29.78
315.193	31.33
315.405	29.62
315.617	29.57
315.829	27.3
316.041	27.87
316.253	27.05
316.465	29.04
316.677	29.45
316.888	30.18
317.1	30.04
317.312	31.25
317.524	30.33
317.736	29.59
317.947	29.42
318.159	31.23
318.371	31.61
318.583	32.86
318.794	32.34
319.006	32.2
319.218	32.55
319.43	32.65
319.641	32.07
319.853	32.59
320.064	35.81
320.276	36.63
320.488	36.64
320.699	37.23
320.911	38.45
321.123	40.13
321.334	41.28
321.546	42.15
321.757	42.42
321.969	43.58
322.18	42.64
322.392	40.16
322.603	39.37
322.815	40.86
323.026	38.84
323.238	36.26
323.449	33.77
323.661	33.67
323.872	31.82
324.083	31.71
324.295	30.71
324.506	30.01
324.718	29.64
324.929	29.16
325.14	27.33
325.352	29.15
325.563	29.28
325.774	29.8
325.986	29.42
326.197	29.86
326.408	31.16
326.62	31.23
326.831	33.12
327.042	34.7
327.253	34.58
327.464	35.6
327.676	34.84
327.887	35.38
328.098	34.65
328.309	34.61
328.52	33.95
328.732	33.67
328.943	33.99
329.154	32.79
329.365	32.24
329.576	34.15
329.787	33.3
329.998	32.47
330.209	33.42
330.42	33.93
330.631	33.19
330.842	34.08
331.053	33.31
331.264	32.11
331.475	32.29
331.686	31.32
331.897	30.13
332.108	31.1
332.319	32.37
332.53	33.07
332.741	33.63
332.952	33.73
333.163	34.49
333.374	34.52
333.585	35.04
333.795	35.19
334.006	35.79
334.217	36.81
334.428	37.06
334.639	37.36
334.849	36.71
335.06	36.61
335.271	35.53
335.482	35.77
335.692	36.14
335.903	36.42
336.114	35.83
336.325	36.5
336.535	36.09
336.746	35.5
336.957	33.69
337.167	33.87
337.378	33.7
337.589	35.61
337.799	35.04
338.01	36.17
338.22	37.18
338.431	37.92
338.642	38.33
338.852	38.66
339.063	38.31
339.273	39.38
339.484	39.18
339.694	38.49
339.905	38.73
340.115	39.66
340.326	38.97
340.536	38.46
340.746	37.75
340.957	36.05
341.167	35.33
341.378	35.1
341.588	34.88
341.799	34.86
342.009	36.04
342.219	34.96
342.43	34.19
342.64	34.19
342.85	33.56
343.061	33.57
343.271	35.07
343.481	35.32
343.691	35.67
343.902	35.99
344.112	34.45
344.322	33.81
344.532	34.57
344.743	34.65
344.953	33.04
345.163	33.37
345.373	34.12
345.583	33.3
345.793	31.89
346.004	31.44
346.214	30.96
346.424	30.57
346.634	30.84
346.844	29.66
347.054	29.31
347.264	29.79
347.474	30.11
347.684	29.67
347.894	29
348.104	29.45
348.314	29.43
348.524	28.95
348.734	30.48
348.944	30.27
349.154	29.6
349.364	29.73
349.574	29.79
349.784	29.85
349.994	30.56
350.204	30.14
350.413	31.7
350.623	33.33
350.833	33.51
351.043	32.51
351.253	32.49
351.463	33.4
351.672	33.55
351.882	32.56
352.092	32.32
352.302	31.98
352.511	32.01
352.721	30.08
352.931	29.03
353.141	29.38
353.35	29.87
353.56	29.15
353.77	28.01
353.979	28.14
354.189	28.84
354.399	28.62
354.608	27.97
354.818	28.78
355.027	29.89
355.237	29.61
355.447	29.23
355.656	29.24
355.866	29.17
356.075	30.1
356.285	29.71
356.494	29.32
356.704	29.53
356.913	29.26
357.123	29.07
357.332	28.68
357.542	28.48
357.751	29.28
357.96	29
358.17	28.58
358.379	28.95
358.589	28.47
358.798	28.78
359.007	27.48
359.217	27.33
359.426	26.57
359.635	26.47
359.845	26.31
360.054	25.51
360.263	25.37
360.472	25.25
360.682	24.64
360.891	24.84
361.1	24.65
361.309	24.91
361.519	25.05
361.728	25.37
361.937	25.34
362.146	25.64
362.355	25.71
362.564	25.84
362.774	26.21
362.983	26.63
363.192	26.71
363.401	27.04
363.61	27.32
363.819	27.44
364.028	27.3
364.237	27.56
364.446	27.16
364.655	27.4
364.864	27.6
365.073	27.87
365.282	27.29
365.491	26.58
365.7	26.24
365.909	27.08
366.118	27.4
366.327	27.59
366.536	26.82
366.745	27.94
366.954	26.74
367.162	27.26
367.371	27.11
367.58	28.18
367.789	29.3
367.998	30.1
368.207	29.68
368.415	29.24
368.624	29.01
368.833	29.26
369.042	28.47
369.25	29.27
369.459	28.55
369.668	28.69
369.877	27.49
370.085	27.06
370.294	25.96
370.503	25.98
370.711	25.9
370.92	26.1
371.129	26.62
371.337	26.66
371.546	25.68
371.754	26.13
371.963	25.76
372.171	26.57
372.38	26.3
372.589	26.48
372.797	26.55
373.006	27.23
373.214	27.4
373.423	26.9
373.631	26.77
373.84	28.38
374.048	27.85
374.256	27.55
374.465	26.55
374.673	27.07
374.882	26.91
375.09	26.88
375.298	26.28
375.507	26.11
375.715	26.28
375.923	26.04
376.132	25.61
376.34	25.68
376.548	25.9
376.757	26.48
376.965	26.42
377.173	27.04
377.381	26.71
377.59	27.54
377.798	27.82
378.006	27.36
378.214	28.13
378.423	28.11
378.631	28.33
378.839	28.92
379.047	29.07
379.255	28.39
379.463	28.13
379.671	28.82
379.879	27.35
380.088	26.61
380.296	26.92
380.504	26.66
380.712	26.78
380.92	26.15
381.128	26.07
381.336	25.43
381.544	25.46
381.752	25.88
381.96	26.12
382.168	26.67
382.376	27.18
382.584	27.35
382.791	26.67
382.999	26.15
383.207	26.17
383.415	25.95
383.623	26.24
383.831	26.58
384.039	26.58
384.247	25.78
384.454	26.18
384.662	25.89
384.87	25.86
385.078	25.7
385.285	25.99
385.493	25.81
385.701	24.95
385.909	24.81
386.116	24.68
386.324	24.21
386.532	24.21
386.739	24.04
386.947	24.2
387.155	24.22
387.362	24.37
387.57	24.6
387.778	25.4
387.985	26.13
388.193	26.2
388.4	26.22
388.608	26.21
388.816	25.7
389.023	25.81
389.231	25.31
389.438	24.97
389.646	24.99
389.853	25
390.061	24.19
390.268	23.68
390.475	22.98
390.683	23.06
390.89	22.83
391.098	22.92
391.305	22.47
391.512	22.54
391.72	22.75
391.927	22.42
392.135	22.22
392.342	22.14
392.549	22.7
392.756	23.07
392.964	22.9
393.171	23.18
393.378	22.96
393.586	22.99
393.793	23.39
394	23.4
394.207	23.47
394.414	22.91
394.622	23.78
394.829	23.56
395.036	23.81
395.243	23.45
395.45	23.2
395.657	23.43
395.864	23.58
396.072	23.28
396.279	23.16
396.486	23.12
396.693	23.77
396.9	22.87
397.107	22.86
397.314	22.37
397.521	22.82
397.728	23.09
397.935	23.55
398.142	23.7
398.349	23.99
398.556	23.99
398.763	25.12
398.97	24.9
399.177	25.54
399.383	25.79
399.59	26.12
399.797	26.15
400.004	26.13
400.211	26.14
400.418	25.87
400.625	26.08
400.831	25.99
401.038	25.31
401.245	25.38
401.452	25.11
401.658	24.92
401.865	25.25
402.072	25.56
402.279	25.2
402.485	24.84
402.692	24.65
402.899	24.16
403.105	23.88
403.312	23.5
403.519	23.19
403.725	22.84
403.932	22.88
404.138	22.24
404.345	21.84
404.552	22.14
404.758	22.37
404.965	22.79
405.171	22.71
405.378	22.83
405.584	23.01
405.791	23.3
405.997	23.57
406.204	23.79
406.41	24.18
406.617	24.24
406.823	24.18
407.029	24.15
407.236	24.3
407.442	24.32
407.649	24.96
407.855	24.47
408.061	24.15
408.268	24.14
408.474	23.42
408.68	23.58
408.887	24.1
409.093	23.54
409.299	23.26
409.505	22.39
409.712	22.53
409.918	21.74
410.124	21.7
410.33	21.78
410.537	22.05
410.743	22.55
410.949	22.97
411.155	22.52
411.361	22.89
411.567	22.97
411.773	23.9
411.98	23.47
412.186	24.09
412.392	24.14
412.598	24.18
412.804	24.19
413.01	24.62
413.216	24.21
413.422	24.48
413.628	24.6
413.834	24.73
414.04	24.26
414.246	24.69
414.452	24.19
414.658	24.78
414.864	24.99
415.07	24.82
415.275	23.81
415.481	23.7
415.687	23.2
415.893	23.36
416.099	22.93
416.305	22.81
416.511	22.34
416.716	22.59
416.922	22.11
417.128	21.98
417.334	21.98
417.539	21.59
417.745	21.1
417.951	20.77
418.157	20.24
418.362	20.09
418.568	19.98
418.774	19.8
418.979	19.48
419.185	19.41
419.391	19.32
419.596	19.13
419.802	19.45
420.008	19.49
420.213	21.57
420.419	21.7
420.624	21.82
420.83	21.54
421.035	21.54
421.241	21.31
421.446	21.12
421.652	20.94
421.857	20.71
422.063	20.67
422.268	20.48
422.474	18.72
422.679	18.53
422.885	18.35
423.09	18.65
423.295	18.75
423.501	18.81
423.706	19.14
423.911	19.23
424.117	19.11
424.322	19.01
424.527	19.16
424.733	18.85
424.938	19.18
425.143	19.31
425.349	19.29
425.554	19.46
425.759	19.68
425.964	19.74
426.169	19.81
426.375	20.33
426.58	20.64
426.785	20.79
426.99	21.07
427.195	21.02
427.4	21.29
427.605	21.62
427.811	21.93
428.016	22.14
428.221	22.24
428.426	22.37
428.631	22.37
428.836	22.43
429.041	22.63
429.246	22.98
429.451	22.74
429.656	22.93
429.861	22.63
430.066	22.64
430.271	22.54
430.476	22.15
430.681	22.12
430.886	22
431.09	21.94
431.295	21.75
431.5	21.76
431.705	21.71
431.91	21.64
432.115	21.66
432.32	21.7
432.524	21.6
432.729	21.7
432.934	21.58
433.139	21.61
433.343	21.32
433.548	21.26
433.753	21.22
433.958	21.28
434.162	21.03
434.367	20.92
434.572	20.69
434.776	20.61
434.981	20.48
435.186	20.75
435.39	20.63
435.595	21
435.799	21.04
436.004	20.67
436.209	20.51
436.413	20.76
436.618	21.19
436.822	20.96
437.027	20.98
437.231	21.21
437.436	20.56
437.64	20.58
437.845	20.47
438.049	20.5
438.253	20.8
438.458	20.97
438.662	20.86
438.867	20.63
439.071	20.81
439.275	20.82
439.48	20.64
439.684	21.08
439.888	21.15
440.093	21.12
440.297	20.98
440.501	21.19
440.706	20.95
440.91	20.98
441.114	20.76
441.318	20.68
441.523	20.84
441.727	20.93
441.931	20.94
442.135	20.91
442.339	21
442.543	21.05
442.748	20.69
442.952	20.9
443.156	20.61
443.36	20.45
443.564	20.07
443.768	19.9
443.972	19.97
444.176	19.76
444.38	19.73
444.584	19.55
444.788	19.66
444.992	19.39
445.196	19.35
445.4	19.33
445.604	19.44
445.808	19.83
446.012	19.93
446.216	19.56
446.42	19.69
446.624	19.49
446.828	19.5
447.032	19.45
447.235	19.67
447.439	19.89
447.643	19.99
447.847	20.25
448.051	20.18
448.254	20.21
448.458	20.6
448.662	20.39
448.866	20.5
449.069	20.69
449.273	20.83
449.477	20.84
449.681	20.86
449.884	21.17
450.088	20.97
450.292	20.88
450.495	21.05
450.699	20.81
450.902	20.87
451.106	21.1
451.31	21.1
451.513	21.17
451.717	21.41
451.92	21.55
452.124	21.31
452.327	21.36
452.531	21.39
452.734	21.25
452.938	21.6
453.141	21.88
453.345	22.03
453.548	21.9
453.752	21.71
453.955	21.47
454.158	21.22
454.362	21.35
454.565	21.26
454.769	21.45
454.972	21.48
455.175	21.53
455.379	21.61
455.582	21.4
455.785	21.5
455.988	21.67
456.192	21.55
456.395	21.34
456.598	21.07
456.801	21.08
457.005	21.19
457.208	20.75
457.411	20.63
457.614	20.46
457.817	20.43
458.021	20.13
458.224	19.69
458.427	19.54
458.63	19.53
458.833	19.55
459.036	19.52
459.239	19.17
459.442	19.21
459.645	19.1
459.848	19.01
460.051	18.83
460.254	18.99
460.457	19.18
460.66	19.14
460.863	19.38
461.066	19.37
461.269	19.22
461.472	19.24
461.675	19.51
461.878	19.6
462.081	20.02
462.284	20.37
462.486	20.39
462.689	20.56
462.892	21.25
463.095	20.93
463.298	21.3
463.5	22.22
463.703	22.3
463.906	22
464.109	22.13
464.311	21.9
464.514	21.84
464.717	21.63
464.92	21.42
465.122	21.03
465.325	21.48
465.528	21.39
465.73	21.02
465.933	20.93
466.135	21.11
466.338	20.98
466.541	21.01
466.743	21.09
466.946	21.48
467.148	21.66
467.351	21.51
467.553	21.19
467.756	21.1
467.958	20.99
468.161	21.1
468.363	20.96
468.566	20.96
468.768	20.95
468.971	20.75
469.173	20.76
469.375	20.61
469.578	20.99
469.78	20.95
469.983	21.01
470.185	21.04
470.387	21.11
470.59	21.6
470.792	21.72
470.994	21.61
471.196	21.73
471.399	21.5
471.601	21.62
471.803	21.25
472.005	21.12
472.208	21.14
472.41	21.05
472.612	20.86
472.814	20.48
473.016	20.33
473.218	20.33
473.421	20.28
473.623	20.23
473.825	20.06
474.027	20.29
474.229	20.43
474.431	20.49
474.633	20.28
474.835	20.2
475.037	20.42
475.239	20.35
475.441	20.49
475.643	20.49
475.845	20.61
476.047	20.45
476.249	20.33
476.451	20.39
476.653	20.13
476.855	20.16
477.057	20.47
477.258	19.99
477.46	20.08
477.662	19.84
477.864	19.47
478.066	19.68
478.268	19.86
478.469	19.81
478.671	19.75
478.873	19.79
479.075	19.87
479.276	19.55
479.478	19.67
479.68	19.43
479.882	19.47
480.083	19.48
480.285	19.08
480.487	19.22
480.688	19.23
480.89	19.19
481.091	18.85
481.293	18.67
481.495	18.58
481.696	18.42
481.898	18.33
482.099	17.99
482.301	17.77
482.502	17.5
482.704	17.08
482.905	16.8
483.107	16.39
483.308	16.32
483.51	16.1
483.711	16.06
483.913	15.95
484.114	15.75
484.315	15.79
484.517	15.8
484.718	15.71
484.92	15.66
485.121	15.59
485.322	15.78
485.524	15.81
485.725	15.96
485.926	16.01
486.127	16.02
486.329	16.12
486.53	16.14
486.731	16.2
486.932	16.27
487.134	16.52
487.335	16.7
487.536	16.67
487.737	16.72
487.938	16.69
488.139	16.69
488.341	16.76
488.542	16.94
488.743	16.89
488.944	16.83
489.145	16.96
489.346	16.84
489.547	16.85
489.748	16.96
489.949	17.04
490.15	17.06
490.351	17.04
490.552	17.07
490.753	17.02
490.954	16.99
491.155	17.1
491.356	17.07
491.557	17.15
491.758	17.14
491.959	17.18
492.159	17.17
492.36	17.26
492.561	17.47
492.762	17.6
492.963	17.72
493.164	18.12
493.364	18.41
493.565	18.63
493.766	18.9
493.967	18.96
494.167	19.12
494.368	19.31
494.569	19.46
494.769	19.28
494.97	19.4
495.171	19.5
495.371	19.14
495.572	19.33
495.773	19.38
495.973	19.31
496.174	19.51
496.375	19.54
496.575	19.16
496.776	18.99
496.976	19.23
497.177	18.94
497.377	18.9
497.578	18.84
497.778	18.61
497.979	18.45
498.179	18.36
498.38	18.59
498.58	18.54
498.78	19.01
498.981	19.21
499.181	19.06
499.382	19.58
499.582	19.58
499.782	19.61
499.983	19.75
500.183	20.13
500.383	20.54
500.584	20.31
500.784	20.42
500.984	20.28
501.184	20.32
501.385	20.44
501.585	20.35
501.785	20.47
501.985	20.39
502.185	20.13
502.386	19.96
502.586	19.5
502.786	19.26
502.986	19.05
503.186	19.31
503.386	19.09
503.586	19.12
503.786	19.23
503.987	19.17
504.187	19.37
504.387	19.6
504.587	19.71
504.787	19.95
504.987	20.25
505.187	20.34
505.387	20.57
505.587	21
505.786	20.98
505.986	20.69
506.186	20.43
506.386	20.38
506.586	20.49
506.786	20.29
506.986	20.3
507.186	20.28
507.386	20.57
507.585	20.12
507.785	19.96
507.985	19.94
508.185	20
508.384	19.93
508.584	20.1
508.784	19.84
508.984	20.04
509.183	19.88
509.383	19.88
509.583	19.7
509.782	19.87
509.982	19.84
510.182	19.8
510.381	19.76
510.581	20.19
510.781	20.42
510.98	20.68
511.18	20.92
511.379	21.23
511.579	21.22
511.778	21.37
511.978	21.28
512.177	21.61
512.377	21.85
512.576	21.89
512.776	21.75
512.975	21.54
513.175	21.14
513.374	20.74
513.573	20.52
513.773	20.69
513.972	20.5
514.172	20.5
514.371	20.3
514.57	20.08
514.77	20.12
514.969	20.48
515.168	20.44
515.367	21.2
515.567	21.6
515.766	21.35
515.965	21.42
516.164	21.43
516.364	21.55
516.563	21.7
516.762	21.72
516.961	21.89
517.16	21.5
517.359	21.59
517.559	21.32
517.758	21.16
517.957	21.28
518.156	21.09
518.355	21.2
518.554	21.19
518.753	21.02
518.952	20.95
519.151	21.04
519.35	21.43
519.549	21.54
519.748	21.5
519.947	21.45
520.146	21.57
520.345	21.85
520.544	21.91
520.743	21.9
520.942	22.15
521.141	22.4
521.339	22.27
521.538	22.14
521.737	22.28
521.936	22.24
522.135	22.35
522.333	22.59
522.532	22.53
522.731	22.59
522.93	22.88
523.129	22.98
523.327	23.19
523.526	23.18
523.725	23.22
523.923	23.13
524.122	23.25
524.321	23.32
524.519	23.18
524.718	23.35
524.917	23.36
525.115	23.18
525.314	22.94
525.512	22.87
525.711	22.88
525.909	22.82
526.108	22.7
526.306	22.75
526.505	22.75
526.703	22.65
526.902	22.49
527.1	22.36
527.299	22.29
527.497	22.39
527.696	22.32
527.894	22.37
528.092	22.37
528.291	22.42
528.489	22.39
528.688	22.46
528.886	22.51
529.084	22.48
529.283	22.54
529.481	22.55
529.679	22.55
529.877	22.76
530.076	22.82
530.274	22.89
530.472	23.08
530.67	23.16
530.869	23.15
531.067	23.4
531.265	23.66
531.463	23.92
531.661	24.26
531.859	24.41
532.057	24.34
532.255	24.29
532.454	24.22
532.652	24.1
532.85	24.3
533.048	24.42
533.246	24.38
533.444	24.27
533.642	24.26
533.84	24.16
534.038	24.24
534.236	24.23
534.434	24.37
534.632	24.62
534.83	24.76
535.027	24.88
535.225	24.93
535.423	25.29
535.621	25.42
535.819	25.47
536.017	25.63
536.215	25.58
536.412	25.74
536.61	25.85
536.808	25.94
537.006	26.19
537.203	26.12
537.401	26.08
537.599	25.99
537.797	26.17
537.994	26.48
538.192	26.75
538.39	27.02
538.587	27.17
538.785	27.3
538.983	27.42
539.18	27.37
539.378	27.3
539.575	27.55
539.773	27.58
539.97	27.82
540.168	27.49
540.366	27.36
540.563	27.29
540.761	27.25
540.958	27.08
541.155	26.99
541.353	26.92
541.55	27.02
541.748	26.88
541.945	26.89
542.143	26.71
542.34	26.86
542.537	27.04
542.735	27.07
542.932	27.02
543.129	27.32
543.327	27.5
543.524	27.53
543.721	27.58
543.919	27.91
544.116	28.07
544.313	28.45
544.51	28.71
544.708	28.98
544.905	29.22
545.102	29.61
545.299	29.69
545.496	29.98
545.693	30.08
545.891	30.1
546.088	30.2
546.285	30.27
546.482	30.09
546.679	30.19
546.876	30.05
547.073	29.98
547.27	29.88
547.467	29.93
547.664	29.69
547.861	30.2
548.058	30.71
548.255	30.95
548.452	31.01
548.649	31.51
548.846	31.53
549.043	31.64
549.24	32.03
549.437	32.57
549.633	32.79
549.83	33.3
550.027	33.24
550.224	33.64
550.421	33.55
550.618	33.75
550.814	33.64
551.011	33.9
551.208	34.32
551.405	34.32
551.601	34.17
551.798	34.09
551.995	33.95
552.191	34.23
552.388	33.7
552.585	33.96
552.781	33.92
552.978	34
553.175	34.17
553.371	34.25
553.568	34.3
553.764	34.63
553.961	34.88
554.157	35.26
554.354	35.38
554.55	35.81
554.747	36.2
554.943	36.34
555.14	36.6
555.336	36.61
555.533	36.79
555.729	36.97
555.926	36.64
556.122	36.94
556.318	36.78
556.515	36.98
556.711	37
556.907	36.88
557.104	36.93
557.3	36.92
557.496	36.82
557.693	36.68
557.889	36.69
558.085	36.84
558.281	36.88
558.478	37.48
558.674	37.14
558.87	37.36
559.066	37.55
559.262	37.45
559.459	37.71
559.655	38.1
559.851	38.43
560.047	38.98
560.243	39.29
560.439	39.48
560.635	39.03
560.831	39.26
561.027	39.23
561.223	39.11
561.419	39.88
561.615	39.65
561.811	39.88
562.007	39.82
562.203	39.57
562.399	39.36
562.595	39.35
562.791	39.36
562.987	39.54
563.183	39.39
563.379	39.53
563.575	39.26
563.771	39.81
563.966	39.95
564.162	40.17
564.358	40.24
564.554	40.64
564.75	40.38
564.945	40.49
565.141	40.31
565.337	40.48
565.533	40.4
565.728	40.28
565.924	39.89
566.12	39.63
566.315	39.39
566.511	39.25
566.707	39.26
566.902	39.31
567.098	39.33
567.293	39.5
567.489	39.4
567.684	39.32
567.88	39.67
568.076	40.1
568.271	39.83
568.467	39.87
568.662	40.09
568.858	40.17
569.053	40.45
569.248	40.57
569.444	40.61
569.639	40.78
569.835	41.08
570.03	40.92
570.225	40.91
570.421	41.11
570.616	40.85
570.812	40.84
571.007	40.55
571.202	40.54
571.397	40.49
571.593	40.21
571.788	40.02
571.983	39.9
572.178	39.8
572.374	39.71
572.569	40.03
572.764	40.36
572.959	40.06
573.154	40.14
573.35	39.93
573.545	39.98
573.74	40.15
573.935	40.38
574.13	40.02
574.325	40.08
574.52	40.38
574.715	40.46
574.91	40.27
575.105	40.69
575.3	41.08
575.495	41.3
575.69	41.34
575.885	41.64
576.08	41.63
576.275	42.01
576.47	42.68
576.665	42.67
576.86	42.32
577.055	42.48
577.25	42.42
577.444	42.32
577.639	42.6
577.834	42.85
578.029	43.11
578.224	43.52
578.418	43.85
578.613	43.73
578.808	43.72
579.003	44.23
579.197	44.76
579.392	45.15
579.587	45.17
579.781	45.14
579.976	45.07
580.171	45
580.365	45.04
580.56	44.93
580.755	44.83
580.949	44.48
581.144	44.34
581.338	43.94
581.533	43.9
581.727	44.16
581.922	44.34
582.116	44.58
582.311	44.36
582.505	44.54
582.7	44.36
582.894	44.61
583.089	45.1
583.283	45.13
583.478	45.01
583.672	44.82
583.866	44.63
584.061	44.84
584.255	44.99
584.449	45.34
584.644	45.19
584.838	45.38
585.032	45.17
585.226	45.18
585.421	45
585.615	45.49
585.809	46.39
586.003	46.41
586.198	46.25
586.392	46.37
586.586	46.3
586.78	46.42
586.974	46.69
587.168	46.46
587.363	46.17
587.557	46.05
587.751	46.38
587.945	45.85
588.139	46.32
588.333	45.81
588.527	45.73
588.721	45.54
588.915	45.33
589.109	45.25
589.303	45.74
589.497	46.25
589.691	47.07
589.885	46.8
590.079	46.92
590.273	46.44
590.466	47.13
590.66	47.21
590.854	47.73
591.048	47.7
591.242	47.5
591.436	47.21
591.629	46.47
591.823	46.75
592.017	46.78
592.211	46.49
592.404	46.8
592.598	46.34
592.792	46.32
592.986	46.07
593.179	45.95
593.373	46.39
593.567	46.72
593.76	47.19
593.954	46.38
594.147	46.69
594.341	46.77
594.535	46.59
594.728	46.93
594.922	46.85
595.115	46.79
595.309	46.81
595.502	46.65
595.696	46.33
595.889	46.38
596.083	46.45
596.276	46.47
596.47	46.65
596.663	46.74
596.856	46.93
597.05	47.09
597.243	46.99
597.437	47.47
597.63	47.63
597.823	47.72
598.017	47.86
598.21	48.28
598.403	48.28
598.596	48.5
598.79	48.66
598.983	48.71
599.176	48.79
599.369	49.24
599.563	49.12
599.756	49.58
599.949	50.18
600.142	50.42
600.335	50.17
600.528	50.18
600.722	49.6
600.915	50.69
601.108	50.31
601.301	49.66
601.494	49.15
601.687	48.87
601.88	48.31
602.073	48.05
602.266	47.5
602.459	47.13
602.652	46.62
602.845	47.01
603.038	46.29
603.231	46.42
603.424	46.99
603.617	47.53
603.809	47.44
604.002	47.41
604.195	47.48
604.388	47.79
604.581	48.47
604.774	48.99
604.966	49.09
605.159	49.04
605.352	49.06
605.545	49.01
605.737	49.1
605.93	49.51
606.123	50.06
606.316	49.84
606.508	49.75
606.701	49.64
606.894	49.63
607.086	50.14
607.279	50.26
607.471	50.45
607.664	50.31
607.857	49.76
608.049	49.71
608.242	49.19
608.434	49.3
608.627	49.67
608.819	49.55
609.012	49.52
609.204	49.12
609.397	49.32
609.589	49.28
609.782	49.64
609.974	50.08
610.166	50.5
610.359	50.76
610.551	50.98
610.743	51.28
610.936	51.78
611.128	51.97
611.32	51.98
611.513	51.95
611.705	52.31
611.897	52.15
612.09	52.87
612.282	53.09
612.474	53.49
612.666	54.2
612.858	53.95
613.051	53.76
613.243	53.66
613.435	53.75
613.627	54.08
613.819	53.88
614.011	54.65
614.203	54.49
614.395	53.8
614.588	53.79
614.78	53.27
614.972	53.45
615.164	53.61
615.356	53.58
615.548	54.05
615.74	53.93
615.932	54.55
616.124	53.83
616.315	53.84
616.507	54.35
616.699	54.46
616.891	54.13
617.083	54.06
617.275	53.91
617.467	54.73
617.659	54.5
617.85	54.75
618.042	54.75
618.234	55.32
618.426	55.35
618.618	55.38
618.809	55.15
619.001	55.57
619.193	55.89
619.384	56.06
619.576	55.56
619.768	55.53
619.959	55.04
620.151	54.88
620.343	54.63
620.534	54.33
620.726	54.24
620.917	54.54
621.109	54.82
621.301	54.73
621.492	54.29
621.684	54.17
621.875	54
622.067	53.98
622.258	54.06
622.45	54.72
622.641	54.74
622.832	54.84
623.024	55.1
623.215	55.49
623.407	55.44
623.598	56.15
623.789	56.62
623.981	56.38
624.172	56.53
624.363	55.53
624.555	54.78
624.746	54.36
624.937	54.13
625.129	54.41
625.32	53.74
625.511	53.33
625.702	52.75
625.893	52.38
626.085	52.65
626.276	52.72
626.467	53.63
626.658	53.57
626.849	53.81
627.04	53.9
627.231	53.16
627.422	53.59
627.614	53.52
627.805	53.93
627.996	53.81
628.187	54.43
628.378	54.88
628.569	55.06
628.76	55.29
628.951	55.26
629.142	55.54
629.332	55.59
629.523	55.37
629.714	56.1
629.905	55.76
630.096	56.17
630.287	56.09
630.478	55.54
630.669	54.73
630.859	54.76
631.05	54.89
631.241	54.69
631.432	55.06
631.623	54.97
631.813	54.63
632.004	54.04
632.195	54.14
632.385	53.79
632.576	53.29
632.767	53.79
632.957	53.4
633.148	53.66
633.339	53.67
633.529	53.47
633.72	53.05
633.91	53.07
634.101	53.64
634.292	53.87
634.482	53.75
634.673	54.38
634.863	54.19
635.054	54.41
635.244	54.18
635.435	54.23
635.625	54.15
635.815	55.15
636.006	55.36
636.196	55.5
636.387	55.52
636.577	55.9
636.767	56.01
636.958	56.17
637.148	55.71
637.338	56.38
637.529	56.97
637.719	57.25
637.909	56.92
638.099	56.68
638.29	57.6
638.48	58.02
638.67	58.53
638.86	59.47
639.05	59.49
639.241	60.95
639.431	60.59
639.621	60.44
639.811	60.28
640.001	59.51
640.191	59.93
640.381	59.23
640.571	58.6
640.761	58.2
640.951	58.32
641.141	58.97
641.331	58.42
641.521	58.49
641.711	59.28
641.901	58.87
642.091	59.66
642.281	59.89
642.471	59.6
642.661	60.37
642.851	60.67
643.041	60.11
643.231	60.1
643.42	60.2
643.61	59.63
643.8	58.54
643.99	59.34
644.18	59.71
644.369	59.32
644.559	59.23
644.749	58.56
644.939	58.41
645.128	57.63
645.318	56.82
645.508	56.58
645.697	57.56
645.887	58.12
646.076	58.72
646.266	59.08
646.456	59.25
646.645	60.47
646.835	60.24
647.024	60.33
647.214	61.05
647.403	61.74
647.593	61.32
647.782	60.82
647.972	60.51
648.161	60
648.351	59.04
648.54	59.13
648.73	58.7
648.919	58.41
649.108	57.89
649.298	57.6
649.487	57.31
649.677	58.01
649.866	58.6
650.055	58.18
650.244	58.91
650.434	58.89
650.623	58.53
650.812	58.02
651.002	58.45
651.191	58.31
651.38	58.88
651.569	59
651.758	58.68
651.947	57.77
652.137	58.4
652.326	57.38
652.515	57.76
652.704	58.46
652.893	58.48
653.082	58.3
653.271	58.87
653.46	58.17
653.649	57.94
653.838	57.7
654.027	58.44
654.216	58.56
654.405	58.57
654.594	59.01
654.783	58.61
654.972	59.14
655.161	59.78
655.35	60.03
655.539	60.38
655.728	61.29
655.916	61.77
656.105	61.69
656.294	61.55
656.483	61.59
656.672	61.04
656.86	60.1
657.049	59.9
657.238	59.84
657.427	59.14
657.615	58.95
657.804	58.35
657.993	58.02
658.181	57.43
658.37	56.84
658.559	56.7
658.747	56.67
658.936	57.88
659.125	58.31
659.313	58.41
659.502	58.46
659.69	58.13
659.879	58.23
660.067	58.44
660.256	58.8
660.444	59.18
660.633	59.47
660.821	59.69
661.01	59.39
661.198	59.44
661.387	59.77
661.575	60.04
661.763	60.44
661.952	60.55
662.14	61.71
662.328	62.32
662.517	62.66
662.705	63.46
662.893	63.35
663.082	63.54
663.27	63.75
663.458	63.33
663.646	63.68
663.834	64.84
664.023	65.35
664.211	64.1
664.399	64.36
664.587	64.79
664.775	64.1
664.963	65.32
665.152	65.19
665.34	64.57
665.528	64.89
665.716	65.14
665.904	65.06
666.092	64.38
666.28	65.49
666.468	64.82
666.656	65.15
666.844	65.72
667.032	64.8
667.22	64.18
667.408	64.22
667.596	64.59
667.784	63.96
667.971	63.3
668.159	63.35
668.347	62.7
668.535	63.17
668.723	62.6
668.911	62.25
669.098	62.34
669.286	63.35
669.474	63.67
669.662	62.76
669.849	62.98
670.037	62.95
670.225	63.3
670.413	63.32
670.6	63.3
670.788	64.23
670.976	64.74
671.163	65.73
671.351	65.47
671.538	65.13
671.726	65.1
671.913	65.57
672.101	65.68
672.289	65.9
672.476	66.18
672.664	66.54
672.851	65.89
673.039	66.29
673.226	65.47
673.413	65.67
673.601	66.41
673.788	67.62
673.976	68.41
674.163	68.91
674.35	68.47
674.538	68
674.725	67.75
674.912	67.44
675.1	67.49
675.287	68.1
675.474	68.52
675.662	67.69
675.849	66.28
676.036	64.89
676.223	64.44
676.411	64.99
676.598	65.48
676.785	65.33
676.972	65.62
677.159	65.5
677.346	64.8
677.533	63.58
677.721	63.9
677.908	64.58
678.095	65.1
678.282	64.96
678.469	64.1
678.656	64.08
678.843	63.21
679.03	63.65
679.217	63.69
679.404	63.86
679.591	64.49
679.778	64.28
679.964	64.34
680.151	63.41
680.338	63.69
680.525	64.16
680.712	64.36
680.899	64.66
681.086	64.1
681.272	63.92
681.459	63.99
681.646	64.28
681.833	64.04
682.02	63.09
682.206	64.01
682.393	63.81
682.58	63.8
682.766	63.7
682.953	64.73
683.14	64.94
683.326	66.25
683.513	66.39
683.7	65.9
683.886	67.41
684.073	69.32
684.259	68.82
684.446	69.35
684.632	69.35
684.819	69.56
685.005	69.18
685.192	69.65
685.378	68.14
685.565	68.46
685.751	68.46
685.938	67.55
686.124	67.3
686.31	67.09
686.497	66.83
686.683	67.49
686.87	66.98
687.056	67.28
687.242	66.45
687.429	66.67
687.615	66.1
687.801	66
687.987	66.29
688.174	65.3
688.36	66.86
688.546	67.26
688.732	67.35
688.918	68.25
689.105	68.66
689.291	68.81
689.477	68.26
689.663	68.89
689.849	69.35
690.035	69.84
690.221	70.8
690.407	71.1
690.593	71.53
690.779	70.95
690.965	70.58
691.151	70.09
691.337	70.39
691.523	71.25
691.709	71.55
691.895	71.34
692.081	70.24
692.267	70.54
692.453	70.02
692.639	69.77
692.825	70.45
693.011	70.71
693.196	71.41
693.382	71.72
693.568	71.54
693.754	70.94
693.94	72.22
694.125	73.14
694.311	73.32
694.497	72.86
694.682	72.8
694.868	72.42
695.054	72.27
695.239	71.63
695.425	70.97
695.611	70.65
695.796	70.1
695.982	69.44
696.168	68.35
696.353	67.26
696.539	67.47
696.724	67.78
696.91	67.85
697.095	67.09
697.281	66.57
697.466	66.29
697.652	65.59
697.837	65.91
698.023	65.31
698.208	65.11
698.393	65.23
698.579	64.84
698.764	63.47
698.949	63.01
699.135	63.07
699.32	63.32
699.505	63.78
699.691	64.46
699.876	64.42
700.061	64.8
700.246	65.31
700.432	65.42
700.617	66.58
700.802	67.5
700.987	68.25
701.172	68.69
701.358	68.87
701.543	70.04
701.728	70.35
701.913	70.81
702.098	71.47
702.283	72.65
702.468	72
702.653	71.53
702.838	73.74
703.023	74.21
703.208	74.3
703.393	74.62
703.578	74.11
703.763	73.96
703.948	74.33
704.133	74.98
704.318	74.97
704.503	75.57
704.688	76.23
704.873	75.36
705.057	74.87
705.242	75.62
705.427	75.55
705.612	76.19
705.797	75.89
705.981	75.73
706.166	75.32
706.351	75.5
706.536	76.68
706.72	75.19
706.905	75.08
707.09	75.22
707.274	75.22
707.459	75.74
707.644	74.93
707.828	75.7
708.013	74.69
708.197	74.52
708.382	73.92
708.567	72.91
708.751	73.68
708.936	72.63
709.12	73.24
709.305	73.26
709.489	72.47
709.673	71.66
709.858	71.73
710.042	72.46
710.227	71.57
710.411	71.72
710.596	72.66
710.78	72.98
710.964	73.37
711.149	72.39
711.333	72.36
711.517	73.82
711.702	75.51
711.886	75.38
712.07	75.98
712.254	78
712.438	77.49
712.623	76.55
712.807	75.4
712.991	75.4
713.175	76.29
713.359	76.37
713.544	75.21
713.728	72.67
713.912	71.45
714.096	71.5
714.28	69.92
714.464	70.72
714.648	71.05
714.832	71.71
715.016	72.08
715.2	72.65
715.384	71.56
715.568	71.57
715.752	72.23
715.936	73.64
716.12	73.73
716.304	74.44
716.488	72.7
716.671	73.51
716.855	73.77
717.039	73.45
717.223	74
717.407	75.18
717.59	75.29
717.774	76.56
717.958	77.14
718.142	77.44
718.325	78.94
718.509	81.23
718.693	80.66
718.877	79.35
719.06	79.92
719.244	78.11
719.428	79.54
719.611	80.71
719.795	80.51
719.978	79.05
720.162	78.61
720.345	77.58
720.529	77.92
720.713	79.23
720.896	81.04
721.08	79.38
721.263	80.19
721.446	78.77
721.63	79.4
721.813	81.32
721.997	82.53
722.18	83.27
722.364	83.93
722.547	84.11
722.73	84.1
722.914	85.69
723.097	87.2
723.28	85.69
723.464	85.25
723.647	85.8
723.83	84.45
724.013	85.55
724.197	86.43
724.38	85.58
724.563	85.1
724.746	84.6
724.929	83.7
725.112	84.75
725.296	87.24
725.479	88.38
725.662	85.85
725.845	86.37
726.028	85.76
726.211	83.63
726.394	84.34
726.577	84.82
726.76	84.43
726.943	83.3
727.126	82.22
727.309	83.45
727.492	83.21
727.675	83.45
727.858	81.85
728.041	80.97
728.224	81.89
728.407	81
728.589	79.87
728.772	77.84
728.955	78.89
729.138	77.36
729.321	74.96
729.503	74.6
729.686	75.51
729.869	77.5
730.052	77.18
730.234	76.54
730.417	77.35
730.6	77.5
730.782	80.34
730.965	81.06
731.148	85.14
731.33	83.98
731.513	84.17
731.695	82.77
731.878	81.79
732.061	81.96
732.243	81.5
732.426	81.66
732.608	81.94
732.791	82.03
732.973	81.78
733.156	78.56
733.338	80.81
733.52	81.41
733.703	81.89
733.885	82.07
734.068	82.62
734.25	83.63
734.432	83.16
734.615	83.68
734.797	83.26
734.979	81.48
735.162	81.88
735.344	81.9
735.526	81.89
735.708	82.39
735.891	83.72
736.073	84.22
736.255	83.86
736.437	83.73
736.619	82.93
736.802	82.31
736.984	85.16
737.166	86.56
737.348	85.8
737.53	85.37
737.712	85.74
737.894	85.22
738.076	86.31
738.258	85.58
738.44	84.93
738.622	87.47
738.804	88.11
738.986	87.19
739.168	86.82
739.35	87
739.532	87.56
739.714	88.37
739.896	88.86
740.078	88.65
740.259	90.89
740.441	93.29
740.623	91.48
740.805	90.34
740.987	88.47
741.168	90.52
741.35	88.61
741.532	88.63
741.714	87.35
741.895	87.08
742.077	85.93
742.259	85.88
742.44	86.99
742.622	86.07
742.804	88.5
742.985	90.31
743.167	89.8
743.348	94.03
743.53	94.07
743.711	93.41
743.893	94.93
744.075	95.19
744.256	96.84
744.438	96.05
744.619	98.3
744.8	95.28
744.982	96.07
745.163	94.14
745.345	90.01
745.526	90.34
745.707	91.63
745.889	90.29
746.07	92
746.252	90.72
746.433	88.81
746.614	89.53
746.795	90.95
746.977	91.24
747.158	90.95
747.339	93.52
747.52	94.03
747.702	95.21
747.883	94.64
748.064	93.69
748.245	92.98
748.426	95.27
748.607	92.68
748.788	92.92
748.97	93.85
749.151	95.26
749.332	95.48
749.513	94.88
749.694	92.7
749.875	94.08
750.056	94.53
750.237	94.22
750.418	95.05
750.599	98.48
750.78	100.4
750.96	100
751.141	99.95
751.322	101.7
751.503	103.32
751.684	107.32
751.865	106.79
752.046	108.66
752.226	108.57
752.407	106.31
752.588	104.58
752.769	104.5
752.949	103.23
753.13	104.14
753.311	101.91
753.492	101.52
753.672	99.53
753.853	98.7
754.034	96.48
754.214	99.19
754.395	98.98
754.575	101.4
754.756	101.08
754.937	100.13
755.117	97.49
755.298	97.05
755.478	97.15
755.659	95.56
755.839	97.03
756.02	98.21
756.2	94.19
756.381	92.57
756.561	91.64
756.741	91.27
756.922	91.1
757.102	95.47
757.283	98.64
757.463	98.43
757.643	101.31
757.823	98.48
758.004	96.9
758.184	97.06
758.364	99.85
758.545	98.48
758.725	97.29
758.905	98.14
759.085	95.09
759.265	92.82
759.446	89.91
759.626	87.95
759.806	88.52
759.986	90.29
760.166	93.28
760.346	92.78
760.526	92.61
760.706	93.03
760.886	92.25
761.066	92.4
761.246	89.9
761.426	89.24
761.606	89.19
761.786	88.58
761.966	87.79
762.146	83.9
762.326	81.26
762.506	78.74
762.686	78.37
762.866	77.06
763.046	76.05
763.225	76.78
763.405	76.78
763.585	75.9
763.765	75.52
763.945	75.95
764.124	76.12
764.304	78.04
764.484	80
764.664	79.87
764.843	81.96
765.023	84.26
765.203	83.53
765.382	85.6
765.562	86.72
765.741	87.66
765.921	88.15
766.101	90.48
766.28	89.3
766.46	90.46
766.639	91.15
766.819	90.31
766.998	89.31
767.178	91.1
767.357	92.83
767.537	93.65
767.716	97.95
767.896	96.79
768.075	98.26
768.254	99.59
768.434	99.38
768.613	100.2
768.792	101.53
768.972	102.44
769.151	104.79
769.33	100.68
769.51	101.95
769.689	98.47
769.868	101.37
770.047	102.5
770.226	103.97
770.406	103.58
770.585	106.14
770.764	105.41
770.943	104.6
771.122	104.51
771.301	107.42
771.48	107.29
771.66	110.24
771.839	108.1
772.018	109.4
772.197	110.62
772.376	113.55
772.555	112.3
772.734	115.73
772.913	116.02
773.092	114.47
773.271	113.78
773.449	114.17
773.628	111.22
773.807	111.09
773.986	110.45
774.165	110.66
774.344	110.75
774.523	110.74
774.701	107.53
774.88	111.17
775.059	114.66
775.238	117.48
775.417	116.48
775.595	121.85
775.774	126.88
775.953	125.1
776.131	121.35
776.31	118.03
776.489	123.51
776.667	125.66
776.846	125.52
777.025	121.53
777.203	122.41
777.382	120.34
777.56	116.37
777.739	110.78
777.917	110.18
778.096	113.55
778.274	118.47
778.453	112.47
778.631	112.87
778.81	108.63
778.988	108.31
779.166	108.11
779.345	112.46
779.523	112.77
779.702	111.87
779.88	114.92
780.058	113.59
780.237	111.44
780.415	112.14
780.593	113.69
780.771	115.68
780.95	120.64
781.128	119.73
781.306	120.34
781.484	122.79
781.662	135.7
781.841	129.3
782.019	129.1
782.197	128.73
782.375	128.92
782.553	126.06
782.731	127.69
782.909	123.39
783.087	125.76
783.265	125.26
783.443	125.01
783.621	117.47
783.799	125.09
783.977	131.21
784.155	135.51
784.333	134.75
784.511	132.3
784.689	138.34
784.867	140.19
785.045	141.07
785.223	139.96
785.4	139.96
785.578	138.13
785.756	132.26
785.934	123.8
786.112	120.05
786.289	120.95
786.467	119.96
786.645	114.65
786.823	111.62
787	108.28
787.178	107.37
787.356	104.81
787.533	107.55
787.711	105.87
787.889	107.85
788.066	107.97
788.244	108.07
788.421	109.91
788.599	108.41
788.776	107.41
788.954	107.81
789.131	106.22
789.309	110.44
789.486	109.96
789.664	111.3
789.841	107.2
790.019	105.73
790.196	108.38
790.373	108.99
790.551	116.04
790.728	120.8
790.906	120.76
791.083	121.46
791.26	116.83
791.437	114.46
791.615	121.87
791.792	131.85
791.969	136.8
792.146	133.44
792.324	134.25
792.501	131.05
792.678	131.46
792.855	129.29
793.032	133.58
793.209	137.01
793.387	134.64
793.564	130.89
793.741	128.51
793.918	125.57
794.095	129.49
794.272	132.86
794.449	125.5
794.626	126.39
794.803	126.1
794.98	124.76
795.157	119.17
795.334	124.88
795.511	120.03
795.688	118.44
795.864	118.48
796.041	115.26
796.218	116.95
796.395	117.83
796.572	118.39
796.749	125.8
796.925	126.15
797.102	131.05
797.279	131.34
797.456	135.66
797.632	138.59
797.809	143.56
797.986	150.24
798.162	146.04
798.339	152.17
798.516	152.71
798.692	150.09
798.869	145.83
799.046	145.53
799.222	139.99
799.399	143
799.575	142.05
799.752	138
799.928	132.74
800.105	135.98
800.281	139.5
800.458	138
800.634	136.34
800.811	148.33
800.987	159.19
801.163	168.31
801.34	170.48
801.516	171.61
801.692	194.29
801.869	192.98
802.045	203.66
802.221	194.46
802.398	189.89
802.574	187.46
802.75	176.51
802.926	167.33
803.103	165.87
803.279	162.64
803.455	162.57
803.631	147.85
803.807	150.02
803.983	144.52
804.16	150.43
804.336	155.55
804.512	157.23
804.688	156.63
804.864	156.64
805.04	156.6
805.216	158.47
805.392	159.72
805.568	170.71
805.744	169.85
805.92	172.49
806.096	166.06
806.272	166.82
806.448	176
806.623	185.69
806.799	181.21
806.975	178.6
807.151	181.81
807.327	188.46
807.503	177.93
807.678	181.77
807.854	176.56
808.03	178.77
808.206	175.53
808.381	165.5
808.557	157.02
808.733	154.98
808.908	164.03
809.084	159.95
809.26	152.82
809.435	154.4
809.611	152.45
809.787	148.58
809.962	150.37
810.138	150.9
810.313	149.43
810.489	146.68
810.664	151.97
810.84	153.57
811.015	156.1
811.191	161.71
811.366	162.82
811.542	156.98
811.717	158.05
811.892	153.57
812.068	157.99
812.243	160.7
812.419	165.07
812.594	167.9
812.769	160.3
812.944	156.99
813.12	154.09
813.295	156.68
813.47	161.49
813.645	171.67
813.821	176.2
813.996	173.03
814.171	183.73
814.346	181.25
814.521	176.45
814.697	181.06
814.872	175.97
815.047	177.99
815.222	171.83
815.397	170.65
815.572	166.78
815.747	162.76
815.922	169.21
816.097	163.02
816.272	164.25
816.447	159.6
816.622	154.8
816.797	157.84
816.972	157.76
817.147	159.59
817.322	157.98
817.496	159.78
817.671	153.2
817.846	147.07
818.021	145.34
818.196	135.58
818.371	131.08
818.545	129.97
818.72	130.27
818.895	125.16
819.069	121.07
819.244	118.16
819.419	112.09
819.594	116.3
819.768	111.17
819.943	103.84
820.117	101.91
820.292	98.03
820.467	88.58
820.641	82.55
820.816	78.76
820.99	75.21
821.165	71.67
821.339	69.61
821.514	67.49
821.688	65.11
821.863	63.95
822.037	62.81
822.212	61.65
822.386	62.1
822.56	61.31
822.735	61.77
822.909	61.19
823.084	61.39
823.258	61.24
823.432	61.21
823.606	62.76
823.781	64.19
823.955	64.47
824.129	66.81
824.303	69.35
824.478	72.48
824.652	71.62
824.826	73.44
825	74.15
825.174	76.71
825.348	76.24
825.523	77.71
825.697	78.55
825.871	80.86
826.045	80.57
826.219	79.87
826.393	81.5
826.567	82.89
826.741	86.03
826.915	85.4
827.089	85.16
827.263	87.55
827.437	85.02
827.611	84.88
827.784	84.11
827.958	85.49
828.132	87.89
828.306	89.21
828.48	91.3
828.654	91.38
828.827	93.91
829.001	93.91
829.175	92.76
829.349	96.18
829.522	100.34
829.696	106.25
829.87	108.16
830.044	112.1
830.217	112.78
830.391	115.99
830.565	117.31
830.738	123.02
830.912	125.37
831.085	135.41
831.259	148.12
831.432	144.32
831.606	140.71
831.779	139.26
831.953	135.47
832.126	129.77
832.3	126.19
832.473	122.43
832.647	118.61
832.82	116.87
832.994	109.38
833.167	106.15
833.34	103.44
833.514	99.58
833.687	100.06
833.86	99.45
834.034	99.25
834.207	100.93
834.38	101.41
834.553	99.96
834.727	101.16
834.9	106.22
835.073	108.33
835.246	111.75
835.419	118
835.593	119.18
835.766	121.38
835.939	124.53
836.112	125.12
836.285	134.81
836.458	149.28
836.631	157.61
836.804	155.64
836.977	152.44
837.15	161.7
837.323	166.79
837.496	170.41
837.669	166.97
837.842	168.07
838.015	182.79
838.188	178.54
838.361	180.08
838.533	178.47
838.706	185.84
838.879	194.12
839.052	190.36
839.225	190.95
839.398	191.73
839.57	197.54
839.743	201.16
839.916	194.99
840.088	185.75
840.261	190.47
840.434	180.95
840.607	190.29
840.779	186.41
840.952	179.87
841.124	197.6
841.297	216.01
841.47	226.18
841.642	237.63
841.815	227.93
841.987	253.21
842.16	227.03
842.332	279.86
842.505	273.93
842.677	257.44
842.85	237.83
843.022	227.5
843.194	222.41
843.367	256.37
843.539	236.21
843.712	243.51
843.884	240.45
844.056	268.79
844.229	251.54
844.401	248.47
844.573	281.49
844.745	363.71
844.918	373.86
845.09	340.1
845.262	305.03
845.434	343.96
845.606	365.94
845.779	469.79
845.951	466.08
846.123	583.77
846.295	529.59
846.467	424.69
846.639	429.49
846.811	407.87
846.983	398.46
847.155	370.84
847.327	394.71
847.499	413.83
847.671	392.19
847.843	350.89
848.015	305.86
848.187	384.09
848.359	388.51
848.531	346.07
848.703	301.2
848.875	365.73
849.047	333.44
849.218	324.34
849.39	304.82
849.562	259.5
849.734	281.14
849.905	327.04
850.077	300.98
850.249	319.27
850.421	327.82
850.592	335.63
850.764	327.97
850.936	344.32
851.107	348
851.279	340.39
851.451	418.43
851.622	371.81
851.794	332.33
851.965	336.11
852.137	328.34
852.308	315.82
852.48	362.19
852.651	298.76
852.823	319.86
852.994	329.56
853.166	347.06
853.337	355.66
853.509	411.06
853.68	466.71
853.851	407.81
854.023	375.26
854.194	330.45
854.365	321.6
854.537	362.94
854.708	333.97
854.879	343.78
855.05	341.1
855.222	279.26
855.393	260.27
855.564	240.2
855.735	247.84
855.906	279.52
856.078	394.58
856.249	374.32
856.42	370.83
856.591	380.32
856.762	386.8
856.933	362.69
857.104	448.64
857.275	445.3
857.446	498.25
857.617	451.34
857.788	427.66
857.959	334.22
858.13	337.28
858.301	323.28
858.472	312.22
858.643	288.86
858.814	297.55
858.985	321.4
859.155	373.98
859.326	401.37
859.497	687.38
859.668	1198.63
859.839	1263.59
860.009	1359.46
860.18	6788.89
860.351	-7853.13
860.522	7225.71
860.692	-12952.63
860.863	3661.29
861.034	1493.49
861.204	942.4
861.375	455.98
861.546	348.88
861.716	368.31
861.887	344.71
862.057	342.81
862.228	340.21
862.398	387.53
862.569	340.09
862.739	353.48
862.91	334.86
863.08	344
863.251	401.21
863.421	481.01
863.592	658.06
863.762	1347.55
863.932	867.41
864.103	717.19
864.273	648.49
864.443	763.29
864.614	1025.87
864.784	570.77
864.954	476.57
865.125	405.24
865.295	383.51
865.465	291.83
865.635	266.7
865.805	267.97
865.976	294.65
866.146	293.47
866.316	308.5
866.486	268.12
866.656	324.31
866.826	353.01
866.996	345.71
867.166	302.87
867.336	356.92
867.506	313.34
867.676	310.44
867.846	306.23
868.016	324.3
868.186	301.5
868.356	314.37
868.526	298.03
868.696	325.53
868.866	330.51
869.036	399.33
869.206	381.8
869.376	432.54
869.545	380.46
869.715	386.2
869.885	350.66
870.055	327.52
870.224	319.33
870.394	350.32
870.564	309.28
870.734	350.32
870.903	346.55
871.073	340.94
871.243	285.88
871.412	349.77
871.582	337.31
871.751	369.11
871.921	459.33
872.091	467.58
872.26	433.24
872.43	475.04
872.599	418.96
872.769	370.31
872.938	432.39
873.108	548.7
873.277	520.81
873.446	473.93
873.616	444.73
873.785	409.47
873.955	433.99
874.124	320.95
874.293	315.32
874.463	318.03
874.632	281.75
874.801	266.94
874.971	311.1
875.14	312.47
875.309	299.4
875.478	298.66
875.647	282.74
875.817	247.69
875.986	324.71
876.155	310.33
876.324	334.98
876.493	428.57
876.662	319.69
876.831	259.93
877	272.5
877.17	317.99
877.339	361.26
877.508	397.13
877.677	422.73
877.846	360.61
878.015	425.22
878.184	439.27
878.352	393.5
878.521	428.69
878.69	452.34
878.859	401.71
879.028	346.27
879.197	327.81
879.366	373.43
879.534	358.25
879.703	330.03
879.872	274.86
880.041	225.66
880.21	211.91
880.378	203.86
880.547	184.42
880.716	159.08
880.884	157.08
881.053	146.02
881.222	129.24
881.39	121.51
881.559	116.54
881.727	108.4
881.896	104.24
882.065	99.27
882.233	100.22
882.402	99.1
882.57	101.03
882.739	96.62
882.907	95.13
883.076	92.18
883.244	94.54
883.412	96.11
883.581	104.06
883.749	109.36
883.918	114.28
884.086	116.91
884.254	119.05
884.423	122.08
884.591	130.75
884.759	136.33
884.927	145.38
885.096	146.62
885.264	159.57
885.432	163.44
885.6	171.44
885.769	195.92
885.937	200.62
886.105	222.79
886.273	231.32
886.441	248.96
886.609	276.94
886.777	288.85
886.945	313.43
887.113	341.96
887.281	396.39
887.449	389.64
887.617	328.3
887.785	337.84
887.953	357.93
888.121	472.07
888.289	446.03
888.457	386.65
888.625	402.65
888.793	481.23
888.961	427.8
889.129	425.17
889.296	388.07
889.464	404.26
889.632	431.33
889.8	400.52
889.967	345.96
890.135	325.64
