Data from JASIL_3048_Reflection_01.txt Node
Date: Mon Nov 09 11:16:15 EST 2015
User: Geneva
Spectrometer: USB4E03002
Autoset integration time: false
Trigger mode: 4
Integration Time (sec): 1.000000E-1
Scans to average: 10
Electric dark correction enabled: false
Nonlinearity correction enabled: false
Boxcar width: 5
Stray light correction enabled: false
XAxis mode: Wavelengths
Stop averaging: false
Number of Pixels in Spectrum: 3648
>>>>>Begin Spectral Data<<<<<
177.575	98.48
177.794	2700
178.014	-28700
178.233	-528.3
178.452	-300
178.672	-1400
178.891	927.78
179.11	490.41
179.33	643.75
179.549	-2284.62
179.768	-1243.75
179.987	-203.05
180.207	-4528.57
180.426	991.18
180.645	257.47
180.864	440.69
181.084	560.29
181.303	-71700
181.522	-741.35
181.741	-801.32
181.96	-374.07
182.179	-120.27
182.398	-97.56
182.618	-47.52
182.837	-57.51
183.056	-34.49
183.275	10.04
183.494	17.38
183.713	7.87
183.932	65.75
184.151	50.69
184.37	85.35
184.589	325.42
184.808	207.27
185.027	52.81
185.246	77.53
185.465	85.05
185.684	30.88
185.903	77.27
186.122	71.07
186.341	47.21
186.56	22.66
186.779	6.56
186.998	35.25
187.216	20.42
187.435	-10.23
187.654	6.68
187.873	14.58
188.092	41.18
188.311	71.93
188.53	114.08
188.748	62.5
188.967	63.98
189.186	63.55
189.405	61.58
189.623	38.67
189.842	43.9
190.061	77.3
190.28	80.89
190.498	-6.15
190.717	-24.38
190.936	14
191.154	55.11
191.373	4400
191.592	-21600
191.81	832.5
192.029	626.92
192.248	-357.14
192.466	-907.32
192.685	1345.45
192.904	-3015.79
193.122	-978.18
193.341	-613.56
193.559	2000
193.778	425
193.996	7840
194.215	-213.79
194.433	-1985.71
194.652	-1833.33
194.87	-383.13
195.089	-150.57
195.307	-120.97
195.526	571.43
195.744	-114.77
195.963	1650
196.181	-139.24
196.399	-103.85
196.618	-131.06
196.836	3.95
197.055	-10.06
197.273	29.7
197.491	29.82
197.71	85.41
197.928	254.46
198.146	97.77
198.365	107.49
198.583	274.45
198.801	656.9
199.019	172.06
199.238	81.86
199.456	122.27
199.674	6.86
199.892	55.79
200.111	-150
200.329	-42.02
200.547	51.06
200.765	210
200.983	-64.94
201.202	270.83
201.42	-167.92
201.638	-61.46
201.856	-38.19
202.074	-47.06
202.292	-29.73
202.51	-181.54
202.728	-110.39
202.946	-82.32
203.165	11.31
203.383	-61.67
203.601	-33.04
203.819	-85
204.037	32.88
204.255	20.71
204.473	-156.63
204.691	-302.44
204.909	-81.25
205.127	103.45
205.345	-142.65
205.562	-104.48
205.78	-274.07
205.998	-263.16
206.216	-48.78
206.434	99.21
206.652	-6.72
206.87	-58.75
207.088	-122.92
207.306	-1116.67
207.523	-52.11
207.741	-4.26
207.959	-32.21
208.177	-19.48
208.395	-815.38
208.612	163.2
208.83	121.13
209.048	1.72
209.266	31.75
209.483	-175.41
209.701	617.65
209.919	-208.72
210.136	-136.87
210.354	-311.39
210.572	-301.9
210.79	-220.18
211.007	213.82
211.225	-104.4
211.442	-12.42
211.66	14.01
211.878	26.06
212.095	72.07
212.313	261.64
212.53	176.92
212.748	166.91
212.966	285.85
213.183	-9.45
213.401	348.65
213.618	-65.44
213.836	-8.96
214.053	13.82
214.271	53.97
214.488	104.72
214.705	321.9
214.923	43.67
215.14	45.01
215.358	55.82
215.575	47.37
215.793	58.3
216.01	65.69
216.227	74.57
216.445	21.22
216.662	-98.52
216.879	-378.23
217.097	-374.71
217.314	-200
217.531	738
217.749	503.7
217.966	199.62
218.183	338.95
218.4	916.9
218.618	-23366.67
218.835	-592.41
219.052	-883.33
219.269	-475.41
219.487	-106.67
219.704	-430.1
219.921	-423.21
220.138	748.19
220.355	-6500
220.572	-4283.33
220.79	-66.27
221.007	70.15
221.224	107.3
221.441	160
221.658	104.35
221.875	32.14
222.092	-65.19
222.309	25.43
222.526	-1922.22
222.743	-375.76
222.96	34.78
223.177	312.5
223.394	-76.92
223.611	173.26
223.828	70.79
224.045	-8.42
224.262	5
224.479	43.4
224.696	763.16
224.913	-19.76
225.13	-60.06
225.347	-8.77
225.564	28.93
225.781	13.82
225.997	33.49
226.214	13.59
226.431	-0.69
226.648	-1
226.865	-6.16
227.082	-16.24
227.298	-13.42
227.515	-14.49
227.732	-25.55
227.949	-30.28
228.165	-22.05
228.382	-23.52
228.599	-30.96
228.816	-29.75
229.032	-41.85
229.249	-34.54
229.466	-26.69
229.682	-32.4
229.899	-24.38
230.116	-34.47
230.332	-36.12
230.549	-92.59
230.765	-102.87
230.982	-74.02
231.199	-62.5
231.415	-59.9
231.632	-107.32
231.848	-62.32
232.065	-40.03
232.281	-61.12
232.498	-58.39
232.714	-58.19
232.931	-32.46
233.147	-34.84
233.364	-24.72
233.58	-40.82
233.797	-16.45
234.013	-19.68
234.23	-26.82
234.446	-25.87
234.662	-9.08
234.879	-5.2
235.095	-3.67
235.312	8.45
235.528	7.57
235.744	4.51
235.961	6.53
236.177	-24.76
236.393	-9.84
236.61	1.88
236.826	5.6
237.042	5.98
237.258	9.5
237.475	4.76
237.691	-7.68
237.907	-23.51
238.123	-14.41
238.339	8.29
238.556	24.24
238.772	19.41
238.988	11.97
239.204	-0.27
239.42	5.12
239.636	4.14
239.853	8.41
240.069	11.83
240.285	19.07
240.501	13.85
240.717	6.25
240.933	0.35
241.149	-4.12
241.365	-4.51
241.581	1.41
241.797	-2.74
242.013	-5.71
242.229	-4.16
242.445	0.81
242.661	-3.18
242.877	0.37
243.093	-5.35
243.309	-6.97
243.525	-0.04
243.741	0.98
243.957	0.58
244.173	-3.07
244.388	0.72
244.604	-3.03
244.82	-5.82
245.036	-5.53
245.252	-3.13
245.468	2.02
245.683	3.29
245.899	5.22
246.115	3.44
246.331	2.75
246.547	5.77
246.762	6.11
246.978	7.55
247.194	5.81
247.409	5.47
247.625	3.58
247.841	2.07
248.057	0.33
248.272	-3.74
248.488	-5.4
248.703	-8.94
248.919	-20.5
249.135	-33.1
249.35	-40.88
249.566	-32.15
249.782	-36.7
249.997	-24.28
250.213	-20.55
250.428	-19.16
250.644	-12.59
250.859	-12.16
251.075	-6.34
251.29	1.79
251.506	4.42
251.721	5.68
251.937	0.07
252.152	1.12
252.368	-7.4
252.583	-9.72
252.798	-9.55
253.014	-4.05
253.229	4.5
253.445	-3.65
253.66	-9.18
253.875	-5.13
254.091	-14.5
254.306	-10.99
254.521	-16.6
254.737	-9.01
254.952	-10.66
255.167	-14.46
255.383	-39.78
255.598	-40.19
255.813	-32.02
256.028	-25.23
256.244	-15.37
256.459	-5.18
256.674	0.84
256.889	7.07
257.104	4.8
257.32	2.91
257.535	3.72
257.75	6.14
257.965	5.31
258.18	4.64
258.395	5.35
258.61	5.3
258.826	6.1
259.041	5.64
259.256	3.66
259.471	4.84
259.686	8.08
259.901	11
260.116	12.07
260.331	12
260.546	10.96
260.761	9.53
260.976	5.19
261.191	-1.08
261.406	-2.72
261.621	0.62
261.836	-3.59
262.05	-5.4
262.265	-10.26
262.48	-10.24
262.695	-8.39
262.91	-11.71
263.125	-15.46
263.34	-12.67
263.555	-4.65
263.769	-9.18
263.984	-13.12
264.199	-11.38
264.414	-10.62
264.629	-12.57
264.843	-12.29
265.058	-8.27
265.273	-1.31
265.488	-0.36
265.702	-2.19
265.917	-1.94
266.132	3.8
266.346	4.01
266.561	5.51
266.776	2.62
266.99	2.84
267.205	-0.76
267.42	-2.27
267.634	-3.65
267.849	-3.17
268.063	-2
268.278	-4.88
268.492	-9.22
268.707	-9.37
268.922	-8.08
269.136	-8.89
269.351	-6.61
269.565	-4.07
269.78	-4.12
269.994	-4.48
270.209	-2.33
270.423	-2.54
270.637	-2.43
270.852	-4.11
271.066	-3.79
271.281	-5.25
271.495	-4.85
271.709	-5.02
271.924	-2.62
272.138	-1.03
272.353	-2.35
272.567	-5.23
272.781	-2.23
272.996	-1.04
273.21	-1.09
273.424	1.36
273.638	1.2
273.853	1.48
274.067	0.78
274.281	0.7
274.495	0.21
274.71	1.94
274.924	3.59
275.138	-0.91
275.352	-1.5
275.566	2.23
275.781	-2.11
275.995	-2.24
276.209	-3.44
276.423	-5.48
276.637	-5.24
276.851	-7.35
277.065	-6.16
277.279	-6.43
277.493	-3.33
277.707	-4.11
277.921	-6.9
278.135	-7.25
278.349	-6.66
278.563	-7
278.777	-4.02
278.991	-5.84
279.205	-7.41
279.419	-10.01
279.633	-13.38
279.847	-14.86
280.061	-13.05
280.275	-8.22
280.489	-3.52
280.703	-3.92
280.917	-2.98
281.131	-1.37
281.344	-2.77
281.558	-2.04
281.772	-1.34
281.986	1.63
282.2	4.02
282.414	2.59
282.627	-0.56
282.841	-2.27
283.055	-2.83
283.269	-2.09
283.482	-7.75
283.696	-8.94
283.91	-7.15
284.123	-7.19
284.337	-9.51
284.551	-9.53
284.764	-9.44
284.978	-8.07
285.192	-8.19
285.405	-7.81
285.619	-5.77
285.833	-4.06
286.046	0.16
286.26	-0.86
286.473	0.11
286.687	1.27
286.9	-1.44
287.114	-1.5
287.327	-1.98
287.541	1.82
287.754	1.39
287.968	-0.92
288.181	3.81
288.395	2.26
288.608	4.06
288.822	5.94
289.035	9.73
289.248	9.12
289.462	8.53
289.675	5.83
289.889	2.33
290.102	2.31
290.315	2.43
290.529	-0.03
290.742	-2.4
290.955	-3.87
291.169	-8.22
291.382	-10.64
291.595	-7.93
291.808	-4.89
292.022	-2.64
292.235	-2.98
292.448	-2.55
292.661	-2.99
292.875	-5.06
293.088	-3.26
293.301	-3.96
293.514	-1.21
293.727	-1.83
293.94	-0.87
294.153	-3.42
294.367	-2.39
294.58	-1.99
294.793	-2.49
295.006	-2.54
295.219	-2.43
295.432	-3.92
295.645	-3.8
295.858	-3.32
296.071	-4
296.284	-3.74
296.497	-3.57
296.71	-3.62
296.923	-4.7
297.136	-4.08
297.349	-4.45
297.562	-6.27
297.775	-4.54
297.988	-3.04
298.201	-4.46
298.414	-4.85
298.626	-7.56
298.839	-7.56
299.052	-5.01
299.265	-3.13
299.478	-4.02
299.691	-2.75
299.903	-0.27
300.116	0.54
300.329	-3.14
300.542	-2.52
300.755	-5.2
300.967	-3.37
301.18	-1.4
301.393	-6.66
301.605	-8.72
301.818	-6.24
302.031	-8.66
302.243	-5.42
302.456	-6.12
302.669	-2.62
302.881	-0.87
303.094	4.07
303.307	5.95
303.519	4.12
303.732	4.39
303.944	6.1
304.157	4.68
304.37	7.6
304.582	5.5
304.795	2.37
305.007	2.39
305.22	-2.28
305.432	-4.27
305.645	-6.83
305.857	-10.03
306.069	-5.19
306.282	-2.53
306.494	-2.83
306.707	-2.82
306.919	-2.28
307.132	-0.27
307.344	3.7
307.556	5.31
307.769	4.83
307.981	8.11
308.193	10.34
308.406	7.69
308.618	6.38
308.83	6.13
309.043	4.62
309.255	7.57
309.467	10.98
309.679	6.19
309.892	6.25
310.104	7.22
310.316	3.03
310.528	2.63
310.74	3.9
310.953	4.47
311.165	4.1
311.377	5.71
311.589	3.88
311.801	-0.16
312.013	-1.13
312.225	-2.24
312.437	-2.65
312.649	-2.03
312.862	-2.05
313.074	-2.09
313.286	-1.08
313.498	1.57
313.71	4.89
313.922	4.7
314.134	5.56
314.346	6.54
314.558	7.35
314.77	5.24
314.982	6.85
315.193	9.64
315.405	8.92
315.617	8.03
315.829	6.21
316.041	2.95
316.253	2.82
316.465	1.2
316.677	3.58
316.888	3.83
317.1	5.5
317.312	5.84
317.524	4.8
317.736	6.86
317.947	4.58
318.159	7.21
318.371	5.19
318.583	4.97
318.794	4.85
319.006	1.17
319.218	3.5
319.43	0.62
319.641	-0.61
319.853	-2.3
320.064	-4.39
320.276	-2.91
320.488	-5.98
320.699	-4.51
320.911	-6.87
321.123	0.61
321.334	0.94
321.546	-2.05
321.757	0.47
321.969	-0.82
322.18	-3.3
322.392	-1.84
322.603	-0.88
322.815	2.25
323.026	1.11
323.238	0.92
323.449	-1.95
323.661	-1.29
323.872	-2.21
324.083	-1.26
324.295	0.15
324.506	3.59
324.718	2.63
324.929	0.46
325.14	-2.24
325.352	-0.32
325.563	0.46
325.774	-0
325.986	2.05
326.197	3.39
326.408	0.81
326.62	0.96
326.831	0.27
327.042	2.39
327.253	0.16
327.464	2.06
327.676	2.83
327.887	5.36
328.098	3.51
328.309	-0.02
328.52	-0.75
328.732	1.64
328.943	1.33
329.154	1.51
329.365	-1.09
329.576	2.08
329.787	1.08
329.998	2.5
330.209	-0.77
330.42	-3.78
330.631	-3.61
330.842	-2.22
331.053	-3.04
331.264	-3.57
331.475	-5.03
331.686	-2.49
331.897	0.62
332.108	1.26
332.319	-2.45
332.53	-1.83
332.741	2.2
332.952	5.12
333.163	4.44
333.374	6.71
333.585	7.33
333.795	6.91
334.006	4.11
334.217	1.25
334.428	-0.12
334.639	0.71
334.849	2.88
335.06	2.85
335.271	0.88
335.482	-0.6
335.692	-2.07
335.903	-5.65
336.114	-5.08
336.325	-0.47
336.535	1.12
336.746	3.06
336.957	3.48
337.167	0.13
337.378	1.84
337.589	2.72
337.799	6.6
338.01	6.97
338.22	7.43
338.431	5.34
338.642	3.57
338.852	3.23
339.063	3.67
339.273	3.25
339.484	4.21
339.694	6.2
339.905	7.19
340.115	6.09
340.326	4.11
340.536	6.14
340.746	8.61
340.957	6.12
341.167	6.62
341.378	3.38
341.588	5.18
341.799	4.81
342.009	1.93
342.219	0.87
342.43	1.37
342.64	3.2
342.85	2.29
343.061	-0.76
343.271	1.69
343.481	2.99
343.691	5.14
343.902	3.75
344.112	6.45
344.322	7.43
344.532	5.12
344.743	3.74
344.953	2.24
345.163	2.48
345.373	5.11
345.583	2.01
345.793	1.25
346.004	-1.24
346.214	-1.24
346.424	-5.1
346.634	-7.58
346.844	-2.27
347.054	-3.19
347.264	-1.37
347.474	1.34
347.684	3.33
347.894	6.56
348.104	5.96
348.314	7.69
348.524	7.46
348.734	9.99
348.944	9.88
349.154	9.08
349.364	6.31
349.574	4.75
349.784	6.51
349.994	3.42
350.204	0.08
350.413	0.31
350.623	0.96
350.833	-0.29
351.043	-1.15
351.253	0.9
351.463	-0.7
351.672	4.05
351.882	4.92
352.092	1.14
352.302	1.09
352.511	3.67
352.721	2.48
352.931	2.5
353.141	4.74
353.35	1.92
353.56	1.73
353.77	1.56
353.979	1.32
354.189	0.55
354.399	1.63
354.608	2.12
354.818	1.43
355.027	1.41
355.237	2.12
355.447	0.56
355.656	1.97
355.866	2.05
356.075	3.75
356.285	5.42
356.494	6.59
356.704	5.1
356.913	5.47
357.123	6.51
357.332	8.25
357.542	8.99
357.751	8.87
357.96	9.6
358.17	7.74
358.379	6.4
358.589	2.77
358.798	0.69
359.007	2.69
359.217	4.15
359.426	3.64
359.635	4.41
359.845	2.83
360.054	4.28
360.263	4.51
360.472	5.98
360.682	7.81
360.891	9.16
361.1	10.57
361.309	10.5
361.519	9.88
361.728	9.93
361.937	9.29
362.146	10.41
362.355	9.5
362.564	9.85
362.774	9.03
362.983	7.89
363.192	7.73
363.401	8.09
363.61	8.57
363.819	7.38
364.028	7.93
364.237	7.46
364.446	5.85
364.655	6.57
364.864	6.76
365.073	6.15
365.282	5.09
365.491	4.29
365.7	3.45
365.909	3.59
366.118	3.96
366.327	0.99
366.536	1.26
366.745	1.58
366.954	0.27
367.162	-0.09
367.371	0.86
367.58	0.19
367.789	-0.03
367.998	0.35
368.207	0.16
368.415	0.14
368.624	2.46
368.833	1.59
369.042	2.83
369.25	5.15
369.459	3.07
369.668	3.84
369.877	4.02
370.085	3.84
370.294	3.67
370.503	2.68
370.711	3.39
370.92	3.51
371.129	4.86
371.337	3.05
371.546	0.35
371.754	2.91
371.963	3.03
372.171	3.92
372.38	4.56
372.589	4.61
372.797	5.78
373.006	4.99
373.214	4.98
373.423	4.4
373.631	5.75
373.84	6.45
374.048	5.52
374.256	5.56
374.465	4.3
374.673	4.72
374.882	6.41
375.09	5.67
375.298	5.56
375.507	6.45
375.715	7.68
375.923	7.38
376.132	8.99
376.34	9.49
376.548	9.17
376.757	10.45
376.965	10.98
377.173	8.52
377.381	8.39
377.59	9.4
377.798	8.49
378.006	5.21
378.214	5.82
378.423	5.2
378.631	4.26
378.839	3.02
379.047	2.06
379.255	2.75
379.463	4.5
379.671	4.42
379.879	3.52
380.088	4.03
380.296	4.57
380.504	5.08
380.712	4.33
380.92	5.01
381.128	4.86
381.336	5.62
381.544	4.81
381.752	4.81
381.96	5.52
382.168	5.74
382.376	6.43
382.584	6.75
382.791	6.25
382.999	6.19
383.207	4.37
383.415	4.44
383.623	2.96
383.831	1.14
384.039	0.81
384.247	0.21
384.454	-0.24
384.662	-2.39
384.87	-1.11
385.078	-1.73
385.285	-1.08
385.493	0.68
385.701	1.7
385.909	2.27
386.116	3.28
386.324	2.69
386.532	2.73
386.739	3.21
386.947	3.02
387.155	2.31
387.362	2.83
387.57	3.62
387.778	3.37
387.985	2.76
388.193	2.87
388.4	2.2
388.608	1.85
388.816	1.78
389.023	0.6
389.231	1.91
389.438	0.6
389.646	1.35
389.853	-0.4
390.061	0.72
390.268	0.95
390.475	2.45
390.683	4.09
390.89	5.59
391.098	5.42
391.305	5.84
391.512	4.72
391.72	6.58
391.927	4.29
392.135	5.11
392.342	4.11
392.549	4.59
392.756	3.45
392.964	2.9
393.171	0.8
393.378	-0.44
393.586	-0.37
393.793	1.88
394	1.35
394.207	2.34
394.414	0.59
394.622	0.93
394.829	0.62
395.036	0.01
395.243	0.24
395.45	1.67
395.657	2.78
395.864	2.12
396.072	1.24
396.279	0.97
396.486	0.78
396.693	3.25
396.9	3.79
397.107	4.34
397.314	3.94
397.521	4.21
397.728	4.28
397.935	4.28
398.142	5.58
398.349	4.98
398.556	5.71
398.763	6.82
398.97	6.84
399.177	5
399.383	2.82
399.59	2.39
399.797	1.36
400.004	1.34
400.211	1.79
400.418	1.43
400.625	2.07
400.831	1.99
401.038	1.54
401.245	0.19
401.452	1.55
401.658	2.47
401.865	4.01
402.072	5.13
402.279	5.53
402.485	5.22
402.692	5.5
402.899	4.53
403.105	4.37
403.312	4.89
403.519	5.75
403.725	4.98
403.932	5.39
404.138	4.96
404.345	3.67
404.552	2.06
404.758	1.97
404.965	2.25
405.171	2.84
405.378	1.67
405.584	1.46
405.791	0.46
405.997	2.49
406.204	2.5
406.41	2.72
406.617	2.98
406.823	4.87
407.029	6.08
407.236	5.23
407.442	5.21
407.649	6.22
407.855	5.51
408.061	6.17
408.268	3.82
408.474	4.23
408.68	4.99
408.887	5.36
409.093	5.42
409.299	4.67
409.505	5.07
409.712	5.32
409.918	4.77
410.124	5.07
410.33	3.63
410.537	4.09
410.743	3.82
410.949	3.13
411.155	2.43
411.361	0.5
411.567	0.69
411.773	0.67
411.98	0.23
412.186	1.17
412.392	1.26
412.598	2.02
412.804	2.11
413.01	2.02
413.216	2.1
413.422	2.62
413.628	4.77
413.834	4.97
414.04	4.76
414.246	4.4
414.452	4.5
414.658	4.18
414.864	4.98
415.07	4.58
415.275	4.54
415.481	5.51
415.687	5.74
415.893	4.96
416.099	5.01
416.305	5.17
416.511	5.19
416.716	4.94
416.922	5.04
417.128	4.44
417.334	5.04
417.539	4.88
417.745	4.11
417.951	4.27
418.157	3.77
418.362	3.71
418.568	3.57
418.774	3.63
418.979	3.66
419.185	3.49
419.391	3.45
419.596	3.72
419.802	4.28
420.008	4.52
420.213	0.43
420.419	1.2
420.624	1.07
420.83	0.99
421.035	1.49
421.241	0.83
421.446	1
421.652	1.17
421.857	1.12
422.063	0.63
422.268	0.65
422.474	4.27
422.679	3.84
422.885	3.14
423.09	2.96
423.295	3.07
423.501	3.77
423.706	4.05
423.911	4.4
424.117	4.49
424.322	4.75
424.527	4.57
424.733	4.78
424.938	4.75
425.143	6.03
425.349	6.48
425.554	6.23
425.759	5.18
425.964	4.98
426.169	4.58
426.375	4.37
426.58	4.87
426.785	4.66
426.99	4.67
427.195	5.07
427.4	3.67
427.605	3.69
427.811	3.54
428.016	4.41
428.221	4.58
428.426	5
428.631	4.23
428.836	3.4
429.041	3.47
429.246	3.68
429.451	3.01
429.656	4.13
429.861	4.68
430.066	5.34
430.271	5.35
430.476	5.33
430.681	4.91
430.886	5.32
431.09	5.4
431.295	5.58
431.5	5.43
431.705	5.82
431.91	5.07
432.115	4.14
432.32	3.8
432.524	3.81
432.729	3.61
432.934	3.79
433.139	4.07
433.343	3.57
433.548	2.83
433.753	2.51
433.958	1.99
434.162	2.86
434.367	3.87
434.572	3.41
434.776	3.58
434.981	3.76
435.186	3.97
435.39	3.83
435.595	4
435.799	5.34
436.004	5.04
436.209	5.13
436.413	4.33
436.618	4.29
436.822	4.65
437.027	4.2
437.231	3.35
437.436	2.87
437.64	3.49
437.845	3.69
438.049	2.75
438.253	3.11
438.458	3.2
438.662	3.32
438.867	2.4
439.071	2.18
439.275	2.31
439.48	3.19
439.684	3.18
439.888	3.22
440.093	3.41
440.297	3.6
440.501	3.8
440.706	3.22
440.91	2.78
441.114	2.97
441.318	3.04
441.523	2.83
441.727	2.19
441.931	2.28
442.135	1.51
442.339	1.11
442.543	1.07
442.748	1.01
442.952	1.42
443.156	2.3
443.36	2.53
443.564	2.25
443.768	2.38
443.972	2.77
444.176	3.59
444.38	3.9
444.584	3.54
444.788	3.62
444.992	4.3
445.196	5.07
445.4	4.74
445.604	4.66
445.808	4.71
446.012	4.85
446.216	4.92
446.42	4.49
446.624	4.43
446.828	4.99
447.032	5.54
447.235	4.82
447.439	3.99
447.643	4.31
447.847	4.76
448.051	4.24
448.254	4.89
448.458	5.11
448.662	4.25
448.866	4.44
449.069	4.94
449.273	4.26
449.477	4.91
449.681	5.44
449.884	4.9
450.088	4.56
450.292	5.67
450.495	4.79
450.699	4.45
450.902	5.79
451.106	5.82
451.31	5.39
451.513	6.06
451.717	5.23
451.92	4.94
452.124	5.33
452.327	5.59
452.531	4.97
452.734	5.1
452.938	6.09
453.141	5.25
453.345	5.05
453.548	4.8
453.752	4.67
453.955	5.26
454.158	5.37
454.362	4.98
454.565	5.03
454.769	5.61
454.972	6.11
455.175	5.21
455.379	5.59
455.582	5.54
455.785	5.76
455.988	5.05
456.192	5.04
456.395	5.6
456.598	6.09
456.801	5.78
457.005	5.93
457.208	5.75
457.411	5.44
457.614	5.4
457.817	5.12
458.021	5.08
458.224	5.44
458.427	5.06
458.63	4.87
458.833	4.39
459.036	4.5
459.239	4.39
459.442	4.46
459.645	4.83
459.848	4.86
460.051	5.3
460.254	5.19
460.457	5.03
460.66	5.5
460.863	5.34
461.066	5.53
461.269	5.63
461.472	6.29
461.675	5.87
461.878	5.91
462.081	5.36
462.284	5.18
462.486	5.03
462.689	6.19
462.892	5.98
463.095	5.44
463.298	6.05
463.5	6.31
463.703	6.22
463.906	6.45
464.109	6.02
464.311	6.04
464.514	5.87
464.717	6.15
464.92	5.17
465.122	5.18
465.325	5.78
465.528	4.97
465.73	4.67
465.933	3.68
466.135	3.64
466.338	3.03
466.541	3.22
466.743	2.99
466.946	2.71
467.148	3.41
467.351	3.48
467.553	3.34
467.756	3.47
467.958	2.56
468.161	3.53
468.363	3.24
468.566	4.14
468.768	4.37
468.971	4.73
469.173	4.76
469.375	3.51
469.578	2.96
469.78	3.16
469.983	3.84
470.185	3.59
470.387	2.81
470.59	3.69
470.792	2.82
470.994	2.46
471.196	2.75
471.399	2.89
471.601	2.9
471.803	3.81
472.005	3.83
472.208	4.06
472.41	4.85
472.612	5.11
472.814	4.33
473.016	4.91
473.218	5.65
473.421	5.09
473.623	4.68
473.825	5.01
474.027	4.51
474.229	4.32
474.431	3.71
474.633	4.1
474.835	3.68
475.037	4.33
475.239	4.71
475.441	3.71
475.643	3.47
475.845	4.19
476.047	4.19
476.249	4.37
476.451	5.5
476.653	5.95
476.855	4.83
477.057	5.07
477.258	4.46
477.46	4.61
477.662	5.56
477.864	6.25
478.066	6.24
478.268	6.41
478.469	6.33
478.671	5.35
478.873	5.1
479.075	6.2
479.276	6.1
479.478	5.96
479.68	5.7
479.882	5.15
480.083	4.86
480.285	5
480.487	4.72
480.688	4.74
480.89	4.65
481.091	4.93
481.293	4.79
481.495	4.78
481.696	4.89
481.898	4.83
482.099	4.98
482.301	5.04
482.502	5.22
482.704	5.18
482.905	5.12
483.107	5.2
483.308	5.15
483.51	5.16
483.711	5.12
483.913	5.18
484.114	5.06
484.315	5.08
484.517	5.16
484.718	5.07
484.92	5.15
485.121	5.39
485.322	5.2
485.524	5.08
485.725	4.98
485.926	5.46
486.127	5.4
486.329	5.59
486.53	5.54
486.731	5.48
486.932	5.21
487.134	5.31
487.335	5
487.536	5.1
487.737	5.16
487.938	5.25
488.139	4.71
488.341	4.74
488.542	4.94
488.743	5.11
488.944	5.21
489.145	5.57
489.346	5.58
489.547	5.76
489.748	5.88
489.949	5.96
490.15	6.01
490.351	6.33
490.552	6.29
490.753	6.27
490.954	6.05
491.155	5.77
491.356	5.41
491.557	5.85
491.758	6.01
491.959	6.05
492.159	5.95
492.36	5.85
492.561	5.65
492.762	5.57
492.963	5.08
493.164	5.37
493.364	5.38
493.565	5.82
493.766	5.05
493.967	4.82
494.167	4.95
494.368	5.13
494.569	5.5
494.769	5.76
494.97	5.93
495.171	6.13
495.371	6.42
495.572	6.12
495.773	5.9
495.973	6.08
496.174	6.32
496.375	5.85
496.575	5.44
496.776	5.32
496.976	5.34
497.177	5.38
497.377	5.62
497.578	5.31
497.778	5.51
497.979	6.03
498.179	5.86
498.38	5.39
498.58	6
498.78	6.35
498.981	6.14
499.181	5.86
499.382	6.26
499.582	5.91
499.782	5.39
499.983	6.01
500.183	5.34
500.383	5.24
500.584	5.33
500.784	4.54
500.984	4.74
501.184	4.53
501.385	4.7
501.585	4.95
501.785	5.08
501.985	5.35
502.185	5.26
502.386	5.52
502.586	5.22
502.786	5.4
502.986	5.93
503.186	5.46
503.386	5.54
503.586	5.26
503.786	4.37
503.987	4.27
504.187	4.53
504.387	4.52
504.587	4.45
504.787	4.96
504.987	5.14
505.187	5.22
505.387	5.63
505.587	5.97
505.786	6.28
505.986	6.73
506.186	7.03
506.386	6.8
506.586	6.75
506.786	7
506.986	6.27
507.186	5.79
507.386	6.08
507.585	5.92
507.785	6.06
507.985	5.98
508.185	5.87
508.384	5.77
508.584	6.07
508.784	5.68
508.984	5.41
509.183	5.92
509.383	6.25
509.583	5.78
509.782	5.64
509.982	5.27
510.182	5.27
510.381	5.2
510.581	5.71
510.781	5.64
510.98	5.94
511.18	5.98
511.379	6.38
511.579	6.16
511.778	6.12
511.978	6.96
512.177	7.11
512.377	7.2
512.576	7.5
512.776	6.85
512.975	6.87
513.175	7.25
513.374	7.74
513.573	7.84
513.773	8.1
513.972	8.6
514.172	8.19
514.371	7.99
514.57	7.83
514.77	7.81
514.969	8.13
515.168	8.46
515.367	8.19
515.567	8.1
515.766	7.98
515.965	7.98
516.164	7.88
516.364	7.66
516.563	8.42
516.762	8.43
516.961	8.54
517.16	8.36
517.359	8.42
517.559	9.09
517.758	9.15
517.957	9.09
518.156	9.3
518.355	9.55
518.554	9.66
518.753	9.47
518.952	9.96
519.151	9.78
519.35	10.11
519.549	9.78
519.748	9.07
519.947	8.41
520.146	8.78
520.345	8.86
520.544	8.9
520.743	8.94
520.942	8.92
521.141	9.02
521.339	9.3
521.538	9.11
521.737	9.26
521.936	9.46
522.135	10.27
522.333	9.77
522.532	10.07
522.731	9.98
522.93	10.05
523.129	10.22
523.327	10.21
523.526	10.48
523.725	10.44
523.923	10.5
524.122	10.64
524.321	10.55
524.519	11.14
524.718	10.85
524.917	10.54
525.115	10.72
525.314	10.8
525.512	10.84
525.711	10.91
525.909	11.05
526.108	11.12
526.306	11.35
526.505	11.21
526.703	11.24
526.902	11.33
527.1	11.75
527.299	11.87
527.497	11.96
527.696	11.97
527.894	12.04
528.092	12.13
528.291	12.32
528.489	12.42
528.688	12.67
528.886	12.75
529.084	12.98
529.283	12.83
529.481	12.82
529.679	12.89
529.877	12.82
530.076	12.89
530.274	12.92
530.472	12.76
530.67	12.66
530.869	12.89
531.067	12.52
531.265	12.46
531.463	12.7
531.661	12.85
531.859	12.7
532.057	12.86
532.255	12.67
532.454	12.57
532.652	12.65
532.85	12.65
533.048	12.41
533.246	12.52
533.444	12.8
533.642	12.72
533.84	12.87
534.038	12.92
534.236	12.93
534.434	13.14
534.632	13.33
534.83	13.59
535.027	13.77
535.225	14.07
535.423	13.92
535.621	13.97
535.819	13.69
536.017	13.14
536.215	12.76
536.412	12.87
536.61	12.56
536.808	12.67
537.006	12.26
537.203	12.03
537.401	11.77
537.599	12.39
537.797	12
537.994	12.45
538.192	12.87
538.39	13.38
538.587	13.49
538.785	13.5
538.983	13.3
539.18	13.66
539.378	13.99
539.575	14.23
539.773	14.26
539.97	14.48
540.168	14.41
540.366	14.51
540.563	14.55
540.761	14.68
540.958	14.81
541.155	15.13
541.353	15.14
541.55	15.17
541.748	15.04
541.945	15.08
542.143	15.02
542.34	15.04
542.537	15.2
542.735	15.25
542.932	14.95
543.129	15.2
543.327	15.04
543.524	15.33
543.721	15.45
543.919	15.39
544.116	15.19
544.313	15.2
544.51	15.39
544.708	14.95
544.905	15.08
545.102	15.5
545.299	15.32
545.496	15.65
545.693	15.82
545.891	15.6
546.088	15.26
546.285	15.6
546.482	15.77
546.679	16.01
546.876	16.62
547.073	16.51
547.27	15.85
547.467	16.21
547.664	15.84
547.861	14.94
548.058	14.73
548.255	14.73
548.452	14.28
548.649	14.32
548.846	13.87
549.043	13.72
549.24	14.45
549.437	14.87
549.633	14.59
549.83	14.47
550.027	15.13
550.224	15.63
550.421	16.41
550.618	16.37
550.814	15.61
551.011	15.31
551.208	15.18
551.405	14.53
551.601	14.48
551.798	14.47
551.995	14.78
552.191	14.93
552.388	14.65
552.585	14.93
552.781	15.35
552.978	15.77
553.175	15.89
553.371	15.74
553.568	16.1
553.764	15.66
553.961	15.85
554.157	16.14
554.354	15.74
554.55	16.24
554.747	15.77
554.943	15.02
555.14	14.58
555.336	15.21
555.533	15.32
555.729	15.55
555.926	16.74
556.122	16.71
556.318	17.07
556.515	17.83
556.711	17.25
556.907	17.89
557.104	18.3
557.3	19.13
557.496	18.67
557.693	18.34
557.889	17.57
558.085	17.11
558.281	17.65
558.478	17.09
558.674	16.52
558.87	16.39
559.066	16.1
559.262	16.2
559.459	15.95
559.655	16.32
559.851	17.45
560.047	17.97
560.243	18.13
560.439	17.61
560.635	17.47
560.831	16.84
561.027	17.32
561.223	17.38
561.419	17.15
561.615	17.16
561.811	16.75
562.007	16.41
562.203	16.42
562.399	16.94
562.595	16.96
562.791	17.5
562.987	18.43
563.183	18.59
563.379	18.74
563.575	18.93
563.771	18.87
563.966	19.62
564.162	19.32
564.358	19.83
564.554	19.57
564.75	19.33
564.945	19.05
565.141	18.44
565.337	18.3
565.533	17.74
565.728	17.69
565.924	17.87
566.12	17.22
566.315	17.68
566.511	17.36
566.707	17.06
566.902	17.02
567.098	17.07
567.293	17.2
567.489	16.17
567.684	16.86
567.88	17.6
568.076	17.53
568.271	17.55
568.467	17.11
568.662	17.49
568.858	17.26
569.053	16.91
569.248	17.3
569.444	17.73
569.639	18.8
569.835	17.9
570.03	17.46
570.225	17.53
570.421	17.95
570.616	17.92
570.812	17.51
571.007	17.79
571.202	17.74
571.397	16.98
571.593	16.98
571.788	16.94
571.983	17.02
572.178	16.66
572.374	16.62
572.569	16.31
572.764	16.56
572.959	16.56
573.154	16.87
573.35	17.54
573.545	17.98
573.74	17.71
573.935	17.26
574.13	17.77
574.325	17.91
574.52	18.38
574.715	18.46
574.91	18.4
575.105	17.97
575.3	18.01
575.495	18.29
575.69	18.1
575.885	18.02
576.08	18.5
576.275	18.7
576.47	18.88
576.665	18.53
576.86	19.17
577.055	19.53
577.25	19.78
577.444	19.73
577.639	19.4
577.834	19.9
578.029	19.83
578.224	19.54
578.418	19.06
578.613	19.42
578.808	19.41
579.003	18.88
579.197	17.68
579.392	17.49
579.587	17.1
579.781	17.65
579.976	17.57
580.171	18.3
580.365	18.77
580.56	18.71
580.755	18.69
580.949	18.45
581.144	18.22
581.338	19.21
581.533	19.54
581.727	19.5
581.922	19.31
582.116	18.79
582.311	18.11
582.505	17.4
582.7	17.96
582.894	17.98
583.089	18.4
583.283	19.02
583.478	19.01
583.672	18.3
583.866	18.4
584.061	18.16
584.255	17.6
584.449	18.17
584.644	18.42
584.838	17.82
585.032	18.01
585.226	17.13
585.421	17.65
585.615	16.86
585.809	17.74
586.003	17.2
586.198	17.33
586.392	18.65
586.586	19.04
586.78	19.27
586.974	19.26
587.168	18.91
587.363	19.5
587.557	18.81
587.751	19.65
587.945	18.87
588.139	19.35
588.333	19.02
588.527	18.65
588.721	18.04
588.915	17.28
589.109	17.31
589.303	17.15
589.497	16.59
589.691	16.53
589.885	16.12
590.079	16.95
590.273	17.05
590.466	17.84
590.66	17.95
590.854	17.85
591.048	18.53
591.242	19.37
591.436	19.32
591.629	19.94
591.823	20.16
592.017	20.67
592.211	20.52
592.404	20.83
592.598	20.41
592.792	20.3
592.986	20.34
593.179	20.78
593.373	20.14
593.567	20.12
593.76	20.82
593.954	20.89
594.147	20.25
594.341	20.08
594.535	20.02
594.728	19.83
594.922	19.52
595.115	19.52
595.309	19.67
595.502	20.04
595.696	20.14
595.889	19.13
596.083	18.73
596.276	19.35
596.47	19.94
596.663	19.41
596.856	19.69
597.05	20.5
597.243	20.76
597.437	20.16
597.63	20.66
597.823	21.06
598.017	20.84
598.21	20.21
598.403	19.05
598.596	18.55
598.79	19.35
598.983	19.26
599.176	18.54
599.369	18.28
599.563	17.81
599.756	17.03
599.949	17.28
600.142	18.6
600.335	19.94
600.528	19.83
600.722	20.65
600.915	20.19
601.108	20.04
601.301	20.4
601.494	20.88
601.687	20.94
601.88	20.77
602.073	20.49
602.266	19.94
602.459	20.24
602.652	20.55
602.845	20.16
603.038	20.09
603.231	20.38
603.424	19.91
603.617	19.47
603.809	19.78
604.002	19.91
604.195	19.45
604.388	19.77
604.581	19.16
604.774	19.73
604.966	19.64
605.159	19.27
605.352	18.68
605.545	18.75
605.737	18.39
605.93	19.15
606.123	19.38
606.316	19.4
606.508	19.2
606.701	18.59
606.894	18.77
607.086	18.44
607.279	19.41
607.471	20.07
607.664	20.12
607.857	20.77
608.049	20.44
608.242	20.25
608.434	20.58
608.627	20.82
608.819	21.75
609.012	20.68
609.204	20.33
609.397	20.46
609.589	20.13
609.782	20.52
609.974	20.04
610.166	20.69
610.359	20.84
610.551	20.74
610.743	20.42
610.936	19.94
611.128	20.34
611.32	21.22
611.513	20.25
611.705	20.74
611.897	20.45
612.09	21.87
612.282	20.53
612.474	20.66
612.666	20.78
612.858	21.2
613.051	20.89
613.243	22.28
613.435	21.91
613.627	21.79
613.819	22.16
614.011	22.06
614.203	21.06
614.395	20.86
614.588	20.66
614.78	20.98
614.972	20.45
615.164	20.37
615.356	20.17
615.548	20.23
615.74	19.79
615.932	19.28
616.124	19.49
616.315	19.88
616.507	20.05
616.699	19.32
616.891	18.59
617.083	19.49
617.275	19.93
617.467	19.15
617.659	20.13
617.85	21.57
618.042	22.36
618.234	21.94
618.426	21.36
618.618	21.44
618.809	22.56
619.001	23.53
619.193	22.23
619.384	22.37
619.576	23.83
619.768	22.68
619.959	22.03
620.151	21.27
620.343	20.63
620.534	20.75
620.726	20.39
620.917	19.47
621.109	19.6
621.301	19.02
621.492	19.01
621.684	17.69
621.875	18.68
622.067	19.39
622.258	19.37
622.45	21.02
622.641	21.18
622.832	21.56
623.024	22.43
623.215	22.14
623.407	23.14
623.598	22.68
623.789	22.67
623.981	21.29
624.172	21.1
624.363	21.07
624.555	20.09
624.746	19.78
624.937	19.8
625.129	19.31
625.32	18.93
625.511	19.23
625.702	19.78
625.893	19.2
626.085	20.17
626.276	19.72
626.467	19.19
626.658	19.86
626.849	19.28
627.04	19.77
627.231	19.41
627.422	19.34
627.614	18.83
627.805	17.73
627.996	17.95
628.187	18.42
628.378	17.84
628.569	18.42
628.76	18.44
628.951	19.09
629.142	18.59
629.332	19.56
629.523	19.47
629.714	19.43
629.905	21.29
630.096	21.13
630.287	20.25
630.478	21.36
630.669	21.36
630.859	21.02
631.05	21.13
631.241	20.75
631.432	19.94
631.623	19.28
631.813	19.09
632.004	18
632.195	17.06
632.385	16.99
632.576	17.87
632.767	19.02
632.957	20.21
633.148	20.58
633.339	21.08
633.529	22.12
633.72	22.92
633.91	23.21
634.101	23.22
634.292	24.75
634.482	25.18
634.673	23.83
634.863	23.12
635.054	22.21
635.244	21.2
635.435	20.67
635.625	19.77
635.815	20.49
636.006	20.83
636.196	21.32
636.387	21.22
636.577	21.96
636.767	22.38
636.958	21.23
637.148	22.23
637.338	22.87
637.529	23.74
637.719	22.42
637.909	21.5
638.099	21.94
638.29	20.51
638.48	20.06
638.67	19.25
638.86	19.37
639.05	19.74
639.241	19.38
639.431	19.72
639.621	19.13
639.811	21.42
640.001	21.56
640.191	21.2
640.381	22.63
640.571	21.87
640.761	21.75
640.951	20.66
641.141	18.8
641.331	17.67
641.521	18.41
641.711	19.29
641.901	18.66
642.091	18.4
642.281	17.21
642.471	16.75
642.661	17.94
642.851	17.76
643.041	17.91
643.231	20.48
643.42	20.56
643.61	18.82
643.8	17.88
643.99	17.51
644.18	17.83
644.369	17.82
644.559	18.55
644.749	18.52
644.939	19.09
645.128	19.65
645.318	19.72
645.508	18.73
645.697	18.9
645.887	19.99
646.076	18.98
646.266	18.26
646.456	18.7
646.645	18.2
646.835	18.24
647.024	16.2
647.214	15.82
647.403	14.66
647.593	16.37
647.782	17.22
647.972	16.09
648.161	17.64
648.351	18.36
648.54	19.24
648.73	19.21
648.919	19.28
649.108	21.85
649.298	21.35
649.487	21.24
649.677	20.97
649.866	21.74
650.055	22.65
650.244	22.54
650.434	22.99
650.623	23.44
650.812	23.5
651.002	22.54
651.191	20.45
651.38	21.26
651.569	21.35
651.758	20.76
651.947	20.76
652.137	19.61
652.326	19.42
652.515	18.27
652.704	16.07
652.893	16.43
653.082	19.03
653.271	19.88
653.46	20.78
653.649	20.49
653.838	20.74
654.027	18.29
654.216	18.7
654.405	18.86
654.594	18.71
654.783	20.78
654.972	22.12
655.161	19.4
655.35	19.74
655.539	19.03
655.728	20.86
655.916	21.98
656.105	22.47
656.294	22.79
656.483	22.14
656.672	21.29
656.86	20.75
657.049	19.34
657.238	20.45
657.427	20.92
657.615	21.05
657.804	20.21
657.993	19.51
658.181	20.18
658.37	19.46
658.559	19.89
658.747	20.91
658.936	22.27
659.125	24.25
659.313	24.18
659.502	23.64
659.69	23.41
659.879	22.54
660.067	22.57
660.256	21.41
660.444	22.1
660.633	22.74
660.821	22.42
661.01	21.2
661.198	18.48
661.387	17.88
661.575	18.16
661.763	18.49
661.952	19.83
662.14	18
662.328	19.58
662.517	20.34
662.705	20.67
662.893	21.54
663.082	21.47
663.27	23.29
663.458	23.72
663.646	22.96
663.834	23.13
664.023	22.94
664.211	24.39
664.399	24.97
664.587	23.27
664.775	22.42
664.963	21.71
665.152	22.74
665.34	21.85
665.528	22.26
665.716	22.84
665.904	22.67
666.092	22.1
666.28	20.81
666.468	19.11
666.656	21.15
666.844	20.93
667.032	21.16
667.22	20.34
667.408	20.09
667.596	19.9
667.784	18.69
667.971	17.77
668.159	18.85
668.347	21.5
668.535	22.18
668.723	20.9
668.911	20.93
669.098	21.93
669.286	19.49
669.474	19.19
669.662	18.85
669.849	21.37
670.037	21.5
670.225	20.85
670.413	20.16
670.6	20.54
670.788	21.08
670.976	21.63
671.163	20.73
671.351	22.04
671.538	21.99
671.726	22.24
671.913	20.65
672.101	21.21
672.289	21.01
672.476	19.56
672.664	20.46
672.851	19.29
673.039	19.34
673.226	19.54
673.413	19.75
673.601	20.22
673.788	20.62
673.976	19.1
674.163	20.71
674.35	21.15
674.538	20.16
674.725	18.91
674.912	19.83
675.1	20.31
675.287	19.91
675.474	19.35
675.662	19.31
675.849	18.37
676.036	19.61
676.223	19
676.411	20.01
676.598	21.87
676.785	21.03
676.972	20.93
677.159	18.87
677.346	18.2
677.533	20.63
677.721	20.79
677.908	20.53
678.095	21.1
678.282	19.72
678.469	19.06
678.656	18.07
678.843	18.35
679.03	19.07
679.217	19.85
679.404	19.85
679.591	17.92
679.778	17.83
679.964	17.48
680.151	16.31
680.338	17
680.525	15.83
680.712	17.21
680.899	18.39
681.086	18.02
681.272	18.32
681.459	18.43
681.646	20.21
681.833	19.63
682.02	19.54
682.206	20.83
682.393	21.19
682.58	21.43
682.766	19.08
682.953	19.28
683.14	18.18
683.326	17.81
683.513	18.2
683.7	16.71
683.886	17.43
684.073	18.54
684.259	17.89
684.446	17.15
684.632	18.95
684.819	20.71
685.005	19.38
685.192	19.9
685.378	20.37
685.565	20.18
685.751	20.47
685.938	19.1
686.124	20.52
686.31	21.08
686.497	20.69
686.683	18.47
686.87	18.6
687.056	19.39
687.242	18.53
687.429	17.17
687.615	18.17
687.801	18.3
687.987	19.35
688.174	17.89
688.36	17.46
688.546	18.48
688.732	19.77
688.918	19.15
689.105	18.38
689.291	17.77
689.477	17.45
689.663	17.3
689.849	16.62
690.035	17.48
690.221	18.54
690.407	18.14
690.593	17.86
690.779	17.47
690.965	18.33
691.151	18.43
691.337	22.02
691.523	21.51
691.709	21.5
691.895	21.75
692.081	22.26
692.267	21.69
692.453	23.25
692.639	22.34
692.825	23.38
693.011	23.34
693.196	23.97
693.382	19.57
693.568	22.67
693.754	20.29
693.94	19.71
694.125	18.34
694.311	16.26
694.497	15.87
694.682	17.13
694.868	18.02
695.054	17.62
695.239	16.61
695.425	18.37
695.611	16.26
695.796	18.77
695.982	19.96
696.168	20.94
696.353	23.13
696.539	23.14
696.724	22.39
696.91	21.35
697.095	21.04
697.281	22.57
697.466	23.09
697.652	25.07
697.837	25.16
698.023	25.06
698.208	24.37
698.393	23.63
698.579	21.8
698.764	22.27
698.949	22.86
699.135	23.27
699.32	22.69
699.505	22.18
699.691	20.96
699.876	21.41
700.061	22.75
700.246	22.54
700.432	22.13
700.617	22.58
700.802	21.32
700.987	21.41
701.172	21.56
701.358	19.9
701.543	19.56
701.728	18.65
701.913	14.91
702.098	12.98
702.283	13.45
702.468	14.17
702.653	17.3
702.838	20.32
703.023	19.17
703.208	17.25
703.393	18.44
703.578	20.04
703.763	22.56
703.948	25.37
704.133	24.04
704.318	22.53
704.503	22.84
704.688	21.47
704.873	19.21
705.057	18.8
705.242	20.79
705.427	21.23
705.612	21.23
705.797	18.1
705.981	18.72
706.166	21.13
706.351	23.04
706.536	23.01
706.72	24.66
706.905	25.57
707.09	26.11
707.274	27.26
707.459	26.65
707.644	27.46
707.828	29.02
708.013	28.03
708.197	28.2
708.382	27.5
708.567	26.14
708.751	24.62
708.936	23.98
709.12	24.06
709.305	21.1
709.489	21.79
709.673	21.35
709.858	20.2
710.042	19.69
710.227	21.05
710.411	21.63
710.596	21.31
710.78	23.19
710.964	23.81
711.149	25.74
711.333	27.76
711.517	26.41
711.702	25.68
711.886	26.81
712.07	26.7
712.254	22.95
712.438	21.03
712.623	20.23
712.807	17.46
712.991	14.76
713.175	12.75
713.359	12.03
713.544	14.73
713.728	12.84
713.912	10.55
714.096	11.91
714.28	11.77
714.464	13.48
714.648	15.01
714.832	15.2
715.016	15.61
715.2	14.92
715.384	16.55
715.568	15.24
715.752	16.68
715.936	16.51
716.12	14.23
716.304	17.89
716.488	18.35
716.671	18.6
716.855	19.31
717.039	21.52
717.223	21.19
717.407	19
717.59	18.99
717.774	17.36
717.958	16.96
718.142	19.46
718.325	15.09
718.509	11.38
718.693	11.37
718.877	13.38
719.06	12.9
719.244	11.17
719.428	11.01
719.611	9.53
719.795	12.55
719.978	16.73
720.162	17.31
720.345	17.67
720.529	18.06
720.713	17.69
720.896	14.75
721.08	14.07
721.263	15.78
721.446	14.77
721.63	17.55
721.813	16.84
721.997	13.43
722.18	13.98
722.364	17.89
722.547	19.56
722.73	20.65
722.914	20.65
723.097	22.45
723.28	24.05
723.464	28.86
723.647	28.86
723.83	25.47
724.013	29.38
724.197	29.37
724.38	27.47
724.563	29.48
724.746	28.16
724.929	29.28
725.112	29.75
725.296	28.46
725.479	25.53
725.662	22.41
725.845	23.82
726.028	21.61
726.211	22.79
726.394	23.97
726.577	23.53
726.76	25.68
726.943	24.77
727.126	20.32
727.309	19.92
727.492	19.59
727.675	17.59
727.858	19.39
728.041	18.53
728.224	17.61
728.407	17.72
728.589	19.64
728.772	17.37
728.955	14.98
729.138	15.31
729.321	14.57
729.503	14.09
729.686	17.07
729.869	16.01
730.052	16.86
730.234	13.42
730.417	12.27
730.6	8.08
730.782	7.59
730.965	10.99
731.148	13.52
731.33	15.59
731.513	15.96
731.695	17.65
731.878	17.29
732.061	18.2
732.243	23.15
732.426	22.96
732.608	22.53
732.791	23.25
732.973	24.15
733.156	24.98
733.338	27.93
733.52	28.89
733.703	28.59
733.885	31
734.068	29.62
734.25	25.14
734.432	23.26
734.615	24.97
734.797	26.47
734.979	26.2
735.162	23.74
735.344	19.22
735.526	19.12
735.708	22.09
735.891	17.78
736.073	13.26
736.255	13.85
736.437	16.84
736.619	16.01
736.802	13.08
736.984	9.71
737.166	8.56
737.348	9.83
737.53	10.53
737.712	8.11
737.894	10.01
738.076	11.96
738.258	12.05
738.44	11.1
738.622	14.09
738.804	15.1
738.986	15.44
739.168	17.22
739.35	11.96
739.532	12.61
739.714	12.03
739.896	12.48
740.078	18.88
740.259	22.08
740.441	25.52
740.623	24.16
740.805	23.6
740.987	23.61
741.168	26.74
741.35	33.31
741.532	33.37
741.714	31.21
741.895	33.78
742.077	33.47
742.259	31.59
742.44	27.37
742.622	27.47
742.804	29.92
742.985	32.82
743.167	31.91
743.348	31
743.53	31.29
743.711	32.66
743.893	31.03
744.075	24.17
744.256	22.31
744.438	25.89
744.619	20.7
744.8	21.77
744.982	22.7
745.163	21.43
745.345	24.85
745.526	21.7
745.707	21.81
745.889	22.91
746.07	28.38
746.252	26.98
746.433	23.5
746.614	28.05
746.795	22.63
746.977	22.84
747.158	24.75
747.339	16.41
747.52	20.88
747.702	18.98
747.883	17.17
748.064	16.28
748.245	18.72
748.426	17.74
748.607	17.09
748.788	21.43
748.97	18.68
749.151	7.06
749.332	7.12
749.513	5
749.694	10.76
749.875	13.17
750.056	10.76
750.237	8.03
750.418	4.16
750.599	4.91
750.78	3.82
750.96	9.21
751.141	14.31
751.322	16.21
751.503	10.54
751.684	9.57
751.865	10.94
752.046	7.98
752.226	7.81
752.407	17.27
752.588	18.96
752.769	18.36
752.949	15.2
753.13	17.8
753.311	20.66
753.492	23.99
753.672	18.31
753.853	15.55
754.034	17.99
754.214	20.87
754.395	20.52
754.575	23.4
754.756	19.27
754.937	16.32
755.117	20.72
755.298	19.44
755.478	17.45
755.659	23.88
755.839	24.63
756.02	24.55
756.2	23.17
756.381	22.09
756.561	18.93
756.741	27.96
756.922	27.33
757.102	29.09
757.283	25.88
757.463	27.67
757.643	25.89
757.823	21.13
758.004	17.17
758.184	19.61
758.364	21.91
758.545	19.51
758.725	17.57
758.905	19.96
759.085	13
759.265	18.05
759.446	18.2
759.626	19.75
759.806	23.61
759.986	27.54
760.166	28.41
760.346	24.83
760.526	23.49
760.706	19.8
760.886	22.81
761.066	28.12
761.246	24.87
761.426	25.6
761.606	24.48
761.786	23.62
761.966	21.65
762.146	21.61
762.326	21.29
762.506	22.25
762.686	24.58
762.866	23.61
763.046	20.18
763.225	22.1
763.405	20.96
763.585	21.09
763.765	23.12
763.945	25.95
764.124	27.22
764.304	30.47
764.484	33.66
764.664	31.35
764.843	31.8
765.023	33.14
765.203	32.34
765.382	35.92
765.562	35.44
765.741	32.96
765.921	31.9
766.101	34.05
766.28	30.45
766.46	30.76
766.639	33.28
766.819	35.37
766.998	40.43
767.178	45.13
767.357	39.51
767.537	38.37
767.716	42.5
767.896	42.47
768.075	39.92
768.254	42.38
768.434	41.74
768.613	36.56
768.792	33.87
768.972	29.28
769.151	27.85
769.33	28.16
769.51	28.81
769.689	30.13
769.868	30.6
770.047	28.91
770.226	28.67
770.406	27.91
770.585	30.66
770.764	34.44
770.943	32.16
771.122	28.81
771.301	31.02
771.48	37.04
771.66	36.27
771.839	38.6
772.018	42.49
772.197	45.92
772.376	40.21
772.555	47.25
772.734	40.94
772.913	37.61
773.092	42.33
773.271	39.54
773.449	35.42
773.628	33.75
773.807	26.74
773.986	26.42
774.165	23.72
774.344	31.97
774.523	29.01
774.701	33.95
774.88	41.7
775.059	34.09
775.238	42.69
775.417	40.66
775.595	38.46
775.774	42.76
775.953	38.39
776.131	39.79
776.31	31.04
776.489	26.59
776.667	26.17
776.846	26.4
777.025	31.75
777.203	26.47
777.382	23.39
777.56	27.23
777.739	22.29
777.917	24.7
778.096	22.15
778.274	32.11
778.453	30.76
778.631	25.98
778.81	26.1
778.988	19.58
779.166	25.03
779.345	22.4
779.523	20.54
779.702	26.2
779.88	26.72
780.058	26.47
780.237	21.83
780.415	19.34
780.593	17.54
780.771	15.41
780.95	18.92
781.128	12.21
781.306	24.93
781.484	23.53
781.662	8.84
781.841	10.57
782.019	17.64
782.197	20.13
782.375	27.32
782.553	24.4
782.731	19.38
782.909	24.53
783.087	26.59
783.265	15.81
783.443	14.3
783.621	22.46
783.799	21.52
783.977	23.13
784.155	15.18
784.333	11.13
784.511	14.91
784.689	16.14
784.867	20.39
785.045	16.49
785.223	18.4
785.4	15.38
785.578	14.63
785.756	11.95
785.934	-8.32
786.112	-0.58
786.289	1.08
786.467	5.06
786.645	1.29
786.823	-15.5
787	-9.99
787.178	-4.96
787.356	-5.24
787.533	-6.96
787.711	-12.25
787.889	-5.14
788.066	-6.73
788.244	-12.17
788.421	-9.3
788.599	3.93
788.776	16.31
788.954	16.13
789.131	19.78
789.309	28.73
789.486	33.44
789.664	32.92
789.841	33.01
790.019	32.48
790.196	44.05
790.373	44.93
790.551	39.54
790.728	26.89
790.906	25.64
791.083	15.95
791.26	-3.11
791.437	-0.94
791.615	6.35
791.792	2.13
791.969	2.19
792.146	-7.59
792.324	-8.41
792.501	-14.16
792.678	-10.12
792.855	-6.29
793.032	-4.7
793.209	18.63
793.387	15.88
793.564	19.26
793.741	33.61
793.918	37.61
794.095	37.8
794.272	38.48
794.449	38.11
794.626	43.74
794.803	49.23
794.98	46.05
795.157	34.31
795.334	34.93
795.511	31.04
795.688	33.92
795.864	31
796.041	31.24
796.218	35.09
796.395	35.54
796.572	33.66
796.749	27.95
796.925	27.62
797.102	23
797.279	16.28
797.456	18.56
797.632	11.72
797.809	14.2
797.986	18
798.162	12.07
798.339	8.14
798.516	10.47
798.692	9.6
798.869	8.95
799.046	17.92
799.222	22.35
799.399	17.34
799.575	22.1
799.752	14.5
799.928	10.12
800.105	15.11
800.281	28.3
800.458	13.36
800.634	15.8
800.811	20.12
800.987	18.21
801.163	14.95
801.34	18.89
801.516	8.26
801.692	8.65
801.869	19.38
802.045	8.82
802.221	19.58
802.398	41.52
802.574	41
802.75	43.78
802.926	53.28
803.103	55.31
803.279	58.92
803.455	55.14
803.631	49.02
803.807	34.08
803.983	51.67
804.16	38.31
804.336	52
804.512	55.77
804.688	59.66
804.864	70.25
805.04	83.33
805.216	62.27
805.392	67.2
805.568	85.16
805.744	90.82
805.92	82.69
806.096	57.76
806.272	26.57
806.448	24.84
806.623	23.17
806.799	17.21
806.975	18.59
807.151	29.63
807.327	37.32
807.503	35.95
807.678	45.94
807.854	39.87
808.03	54.97
808.206	51.33
808.381	45.35
808.557	37.03
808.733	31.36
808.908	27.65
809.084	20.98
809.26	11.32
809.435	8.12
809.611	-18.9
809.787	-12.06
809.962	-24.76
810.138	-15.66
810.313	2.76
810.489	1.47
810.664	6.52
810.84	7.73
811.015	18.25
811.191	11.71
811.366	13.58
811.542	30.59
811.717	31.67
811.892	27.14
812.068	25.58
812.243	-7.11
812.419	-5.4
812.594	6.1
812.769	-8.16
812.944	-30.65
813.12	-5.85
813.295	-10.26
813.47	-37.18
813.645	-54.57
813.821	-60.1
813.996	-121.26
814.171	-30.81
814.346	-10.78
814.521	-18.66
814.697	-11.27
814.872	0
815.047	3.18
815.222	2.69
815.397	14.65
815.572	6.86
815.747	11.23
815.922	18.14
816.097	19.88
816.272	16.13
816.447	15.87
816.622	22.95
816.797	19.17
816.972	24.03
817.147	30.12
817.322	34.41
817.496	44.67
817.671	31.4
817.846	18.42
818.021	12.29
818.196	24.27
818.371	20.8
818.545	13.14
818.72	18.72
818.895	8.12
819.069	3.06
819.244	-3.4
819.419	-15.61
819.594	-1.41
819.768	8.46
819.943	12.39
820.117	10.67
820.292	14.25
820.467	16.87
820.641	16.44
820.816	15.47
820.99	17.06
821.165	18.81
821.339	18.77
821.514	17.67
821.688	16.96
821.863	15.94
822.037	15.9
822.212	15.19
822.386	14.05
822.56	15.48
822.735	19.61
822.909	15.47
823.084	14.77
823.258	17.87
823.432	18.34
823.606	18.22
823.781	19.83
823.955	20.28
824.129	19.43
824.303	16.43
824.478	15.79
824.652	7.89
824.826	14.21
825	14.39
825.174	12.94
825.348	11.98
825.523	15.16
825.697	14.12
825.871	14.02
826.045	15.53
826.219	21.38
826.393	18.94
826.567	20.88
826.741	18.84
826.915	21.82
827.089	22.15
827.263	23.54
827.437	17.82
827.611	20.77
827.784	25.1
827.958	22.26
828.132	16.32
828.306	16.4
828.48	20.07
828.654	19.61
828.827	10.07
829.001	5.16
829.175	-1.42
829.349	-14.94
829.522	-29.67
829.696	-47.77
829.87	-47.8
830.044	-51.08
830.217	-26.49
830.391	-36.83
830.565	-18.93
830.738	-11.53
830.912	-11.28
831.085	-3.78
831.259	4.59
831.432	22.43
831.606	24.56
831.779	20.31
831.953	14.46
832.126	12.29
832.3	9.65
832.473	0.68
832.647	-1.71
832.82	3.74
832.994	9.41
833.167	15.95
833.34	8.4
833.514	5.85
833.687	6.26
833.86	6.95
834.034	1.86
834.207	0.38
834.38	8.8
834.553	4.93
834.727	0.18
834.9	-4.37
835.073	-11.59
835.246	-13.67
835.419	-14.65
835.593	-12.72
835.766	1.78
835.939	-2.11
836.112	4.12
836.285	-6.22
836.458	16.61
836.631	14.58
836.804	1.33
836.977	-2.19
837.15	-5.53
837.323	5.75
837.496	0.1
837.669	-15.28
837.842	-8.79
838.015	5.86
838.188	12.2
838.361	9.95
838.533	21.21
838.706	26.78
838.879	41.7
839.052	38.07
839.225	39.38
839.398	33.62
839.57	49.79
839.743	56.28
839.916	42.2
840.088	26.25
840.261	21.06
840.434	7.58
840.607	21.2
840.779	23.21
840.952	29.88
841.124	17.61
841.297	57.45
841.47	68.65
841.642	78.79
841.815	81.06
841.987	63.81
842.16	55.28
842.332	72.25
842.505	64.32
842.677	30.59
842.85	1683.33
843.022	743.75
843.194	-1068.18
843.367	1251.61
843.539	578.82
843.712	726.32
843.884	685.19
844.056	996.36
844.229	-111.68
844.401	-236.09
844.573	-377.71
844.745	-101.39
844.918	-90.89
845.09	-171.07
845.262	-82.82
845.434	-37.32
845.606	-56.31
845.779	16.79
845.951	12.55
846.123	-39.65
846.295	-9.23
846.467	74.12
846.639	75.26
846.811	104.51
846.983	168.57
847.155	32.58
847.327	156.9
847.499	-726.67
847.671	412
847.843	1009.09
848.015	292.86
848.187	205.8
848.359	570
848.531	298.67
848.703	203.65
848.875	252.26
849.047	220.67
849.218	141.47
849.39	126.51
849.562	121.55
849.734	153.95
849.905	70.91
850.077	10.55
850.249	-376
850.421	277.42
850.592	121.97
850.764	177.92
850.936	126.2
851.107	129.43
851.279	98.6
851.451	60.95
851.622	65.24
851.794	41.02
851.965	33.13
852.137	13.67
852.308	-29.68
852.48	-67.77
852.651	-83.04
852.823	-68.73
852.994	-58.24
853.166	-70.48
853.337	-36.31
853.509	-132.75
853.68	-1000
853.851	1540.54
854.023	263.94
854.194	-93.08
854.365	6.79
854.537	24.4
854.708	48.86
854.879	138.36
855.05	100.62
855.222	-1107.69
855.393	-248.11
855.564	-89.32
855.735	-1343.48
855.906	-190.3
856.078	347.51
856.249	398.94
856.42	495.35
856.591	1536.59
856.762	776.62
856.933	424.59
857.104	224.6
857.275	226.23
857.446	89.85
857.617	46.09
857.788	90.7
857.959	52.46
858.13	76.39
858.301	-71.88
858.472	-124.56
858.643	-259.26
858.814	27.69
858.985	11.97
859.155	74
859.326	-2.95
859.497	-41.46
859.668	9.28
859.839	-70.8
860.009	-11.22
860.18	95.58
860.351	-105
860.522	-1366.67
860.692	-32.86
860.863	666.67
861.034	-97.44
861.204	-318.18
861.375	-10.31
861.546	31.75
861.716	-891.67
861.887	241.67
862.057	-4700
862.228	1238.89
862.398	2512.5
862.569	-235.44
862.739	-28
862.91	-312.12
863.08	-1.65
863.251	342.86
863.421	212
863.592	-46.77
863.762	396
863.932	213.59
864.103	164.89
864.273	150.43
864.443	362.03
864.614	152.38
864.784	203.98
864.954	2400
865.125	336.36
865.295	221.79
865.465	500
865.635	306.06
865.805	300
865.976	-546.43
866.146	-32.13
866.316	-88.59
866.486	-261.9
866.656	-84.85
866.826	-22.55
866.996	-63.46
867.166	-74.28
867.336	-21.47
867.506	-35.28
867.676	-54.71
867.846	-14.29
868.016	-619.51
868.186	-121.5
868.356	-857.5
868.526	-450
868.696	1633.33
868.866	14.48
869.036	3.25
869.206	-78.08
869.376	-82.79
869.545	-105.41
869.715	-240.54
869.885	22.22
870.055	442.86
870.224	-850
870.394	101.5
870.564	237.04
870.734	134.69
870.903	123.75
871.073	132.03
871.243	146.48
871.412	207.94
871.582	288.17
871.751	1100
871.921	-170.92
872.091	-70.96
872.26	-45.45
872.43	-31.49
872.599	-13.95
872.769	3.58
872.938	17.06
873.108	15.15
873.277	-1.47
873.446	30.8
873.616	48.61
873.785	45.22
873.955	36.93
874.124	43.36
874.293	34.55
874.463	27.23
874.632	22.85
874.801	9.51
874.971	15.06
875.14	8.61
875.309	-1.27
875.478	-42.38
875.647	-32.55
875.817	-35.23
875.986	-83.81
876.155	-201.48
876.324	-121.23
876.493	-62.17
876.662	-37.94
876.831	-50.65
877	-72.84
877.17	-49.9
877.339	-25.4
877.508	-36.4
877.677	-34.91
877.846	-3.95
878.015	-1.96
878.184	3.36
878.352	-163.74
878.521	-167.31
878.69	-307.23
878.859	-18.65
879.028	-85.88
879.197	88.34
879.366	32.11
879.534	32.56
879.703	22.68
879.872	29.89
880.041	17.46
880.21	22.28
880.378	19.84
880.547	19.03
880.716	16.17
880.884	15.25
881.053	-0.14
881.222	6.48
881.39	2.52
881.559	2.27
881.727	-4.48
881.896	-0.29
882.065	4.49
882.233	8.26
882.402	18.43
882.57	13.1
882.739	10.75
882.907	28.81
883.076	24.66
883.244	34
883.412	40.95
883.581	44.44
883.749	42.89
883.918	36.83
884.086	42.01
884.254	34.7
884.423	34.16
884.591	41.1
884.759	12.17
884.927	-21.72
885.096	-46.25
885.264	-58.92
885.432	-93.43
885.6	-94.63
885.769	-51.49
885.937	-123.35
886.105	-171.5
886.273	-108.21
886.441	-77.45
886.609	-10.66
886.777	67.51
886.945	60.79
887.113	76.02
887.281	120.69
887.449	-1014.29
887.617	246.15
887.785	214.1
887.953	-160
888.121	45.86
888.289	22.97
888.457	42.62
888.625	-16.13
888.793	37.56
888.961	19.14
889.129	72.27
889.296	142.86
889.464	109.09
889.632	84.58
889.8	70.91
889.967	85.15
890.135	327.45
