Data from JASIL_2906_Reflection_1.txt Node
Date: Sat Nov 07 20:20:20 EST 2015
User: Geneva
Spectrometer: USB4E03002
Autoset integration time: false
Trigger mode: 4
Integration Time (sec): 1.000000E-1
Scans to average: 10
Electric dark correction enabled: true
Nonlinearity correction enabled: false
Boxcar width: 5
Stray light correction enabled: false
XAxis mode: Wavelengths
Stop averaging: false
Number of Pixels in Spectrum: 3648
>>>>>Begin Spectral Data<<<<<
177.575	132.87
177.794	108.33
178.014	77.56
178.233	50.09
178.452	51.54
178.672	81.52
178.891	-322.09
179.11	170.32
179.33	113.27
179.549	114.46
179.768	76.18
179.987	73.51
180.207	41.65
180.426	24.94
180.645	38.39
180.864	49.02
181.084	38.94
181.303	36.73
181.522	36.47
181.741	39.94
181.96	52.63
182.179	66.31
182.398	67.87
182.618	86.41
182.837	95.23
183.056	71.71
183.275	45.54
183.494	55.49
183.713	63.69
183.932	63.07
184.151	59.75
184.37	53.78
184.589	57.68
184.808	55.99
185.027	50.95
185.246	42.21
185.465	42.42
185.684	49.12
185.903	50.99
186.122	56.62
186.341	51.42
186.56	50.79
186.779	43.98
186.998	49.51
187.216	45.62
187.435	38.58
187.654	46.06
187.873	46.23
188.092	46.12
188.311	47.69
188.53	40.76
188.748	49.23
188.967	51.36
189.186	57.64
189.405	51.82
189.623	50.47
189.842	68.83
190.061	67.54
190.28	70.17
190.498	65.66
190.717	65.13
190.936	60.93
191.154	53.31
191.373	48.67
191.592	49.59
191.81	47.25
192.029	43.94
192.248	21.42
192.466	35.31
192.685	36.03
192.904	31.92
193.122	33.59
193.341	25.37
193.559	23.65
193.778	35.81
193.996	31.57
194.215	31.53
194.433	28.98
194.652	35.2
194.87	28.47
195.089	27.71
195.307	33.05
195.526	34.54
195.744	45.72
195.963	47.43
196.181	38.54
196.399	39.06
196.618	41.84
196.836	47.72
197.055	46.69
197.273	47.58
197.491	51.52
197.71	52.61
197.928	55.33
198.146	54.58
198.365	53.54
198.583	47.1
198.801	51.46
199.019	46.39
199.238	42.22
199.456	31.85
199.674	35.99
199.892	28.79
200.111	35.32
200.329	36.74
200.547	27.18
200.765	36.87
200.983	46.09
201.202	29.78
201.42	40.32
201.638	47.48
201.856	61.86
202.074	57.47
202.292	51.68
202.51	46.16
202.728	44.23
202.946	55.99
203.165	44.65
203.383	46.65
203.601	59.29
203.819	57.34
204.037	60.89
204.255	52.53
204.473	47.97
204.691	49.9
204.909	43.47
205.127	41.09
205.345	34.33
205.562	40.31
205.78	38.55
205.998	31.54
206.216	22.86
206.434	23.95
206.652	36.37
206.87	34.06
207.088	39.96
207.306	43.82
207.523	52.47
207.741	52.64
207.959	53.64
208.177	43.73
208.395	39.26
208.612	44.7
208.83	40.38
209.048	34.48
209.266	37.53
209.483	33.01
209.701	33.67
209.919	29.34
210.136	33.45
210.354	35.22
210.572	44.93
210.79	49.34
211.007	48.02
211.225	45.48
211.442	44.66
211.66	45.48
211.878	52.53
212.095	91.68
212.313	87.13
212.53	81.29
212.748	76.47
212.966	75.63
213.183	73.07
213.401	79.72
213.618	87.04
213.836	90.55
214.053	89.41
214.271	87.14
214.488	49.05
214.705	46
214.923	51.71
215.14	52.44
215.358	50.43
215.575	47.29
215.793	45.61
216.01	44.18
216.227	41.33
216.445	44.08
216.662	39.16
216.879	40.35
217.097	40.56
217.314	35.25
217.531	36.9
217.749	39.27
217.966	40.74
218.183	38.44
218.4	29.25
218.618	28.98
218.835	22.02
219.052	20.3
219.269	23.77
219.487	24.75
219.704	24.88
219.921	23.35
220.138	24.78
220.355	24.69
220.572	24.78
220.79	33.59
221.007	33.73
221.224	34.91
221.441	37.97
221.658	37.18
221.875	35.26
222.092	34.9
222.309	33.21
222.526	33.52
222.743	34.73
222.96	34.5
223.177	29.23
223.394	26.39
223.611	27.61
223.828	24.35
224.045	23.15
224.262	23.56
224.479	24.27
224.696	26.35
224.913	23.78
225.13	22.26
225.347	21.17
225.564	20.44
225.781	20.38
225.997	19.6
226.214	20.18
226.431	18.23
226.648	17.49
226.865	16.81
227.082	16.03
227.298	15.28
227.515	15.73
227.732	16.08
227.949	16.71
228.165	17.07
228.382	16.38
228.599	15.74
228.816	16.28
229.032	16.4
229.249	16.5
229.466	16.9
229.682	18.09
229.899	17.95
230.116	17.51
230.332	16.28
230.549	15.78
230.765	17.16
230.982	16.46
231.199	15.9
231.415	15.39
231.632	15.61
231.848	15.84
232.065	14.14
232.281	13.62
232.498	13.93
232.714	15.4
232.931	15.13
233.147	14.54
233.364	15.3
233.58	15.3
233.797	15.99
234.013	15.92
234.23	14.91
234.446	14.98
234.662	14.8
234.879	14.95
235.095	14.34
235.312	14.6
235.528	14.86
235.744	15.34
235.961	16.33
236.177	15.43
236.393	15.52
236.61	17.26
236.826	16.92
237.042	17.3
237.258	17.06
237.475	16.56
237.691	16.95
237.907	16.81
238.123	16.71
238.339	16.54
238.556	17.3
238.772	17.13
238.988	15.69
239.204	15.81
239.42	16.12
239.636	15.67
239.853	15.53
240.069	15.56
240.285	15.27
240.501	14.83
240.717	14.8
240.933	14.2
241.149	13.9
241.365	13.76
241.581	13.79
241.797	13.6
242.013	13.66
242.229	13.97
242.445	13.5
242.661	13.08
242.877	13.33
243.093	13.24
243.309	12.99
243.525	13.14
243.741	13.45
243.957	13.3
244.173	12.91
244.388	12.95
244.604	12.43
244.82	12.25
245.036	12.14
245.252	11.75
245.468	11.56
245.683	11.75
245.899	11.58
246.115	11.59
246.331	11.44
246.547	11.26
246.762	11.04
246.978	11.15
247.194	11.07
247.409	11.15
247.625	11.44
247.841	11.35
248.057	11.45
248.272	11.2
248.488	11.04
248.703	10.8
248.919	11.31
249.135	11.49
249.35	11.19
249.566	11.48
249.782	11.5
249.997	10.89
250.213	10.74
250.428	10.24
250.644	10.97
250.859	10.55
251.075	11.23
251.29	10.48
251.506	10.32
251.721	10.16
251.937	9.87
252.152	9.72
252.368	9.78
252.583	10.25
252.798	10.55
253.014	9.95
253.229	10.11
253.445	9.84
253.66	10.61
253.875	10.21
254.091	10.63
254.306	10.39
254.521	10.81
254.737	11.12
254.952	10.21
255.167	10.07
255.383	10.2
255.598	10.37
255.813	9.87
256.028	9.76
256.244	9.83
256.459	9.91
256.674	9.76
256.889	9.08
257.104	8.93
257.32	9.28
257.535	9.26
257.75	8.99
257.965	8.99
258.18	9.19
258.395	9.03
258.61	8.95
258.826	8.86
259.041	9.05
259.256	9.11
259.471	8.99
259.686	8.88
259.901	8.93
260.116	9.05
260.331	8.8
260.546	8.71
260.761	8.77
260.976	8.84
261.191	8.71
261.406	8.61
261.621	8.49
261.836	8.52
262.05	8.17
262.265	7.89
262.48	7.74
262.695	8.09
262.91	8.2
263.125	8.25
263.34	8.35
263.555	8.87
263.769	9.1
263.984	9.23
264.199	9.28
264.414	9.47
264.629	9.72
264.843	9.9
265.058	10.08
265.273	9.66
265.488	9.57
265.702	9.51
265.917	9.24
266.132	9.1
266.346	9.44
266.561	9.3
266.776	9.57
266.99	8.93
267.205	8.94
267.42	8.8
267.634	8.68
267.849	8.55
268.063	8.62
268.278	8.63
268.492	8.5
268.707	8.06
268.922	8.04
269.136	7.87
269.351	8.21
269.565	8.29
269.78	8.02
269.994	8.25
270.209	8.34
270.423	8.22
270.637	8.16
270.852	8.16
271.066	8.22
271.281	8.51
271.495	8.48
271.709	8.64
271.924	8.24
272.138	8.35
272.353	8.4
272.567	8.39
272.781	8.49
272.996	8.54
273.21	8.71
273.424	8.71
273.638	8.36
273.853	8.4
274.067	8.39
274.281	8.74
274.495	8.67
274.71	8.68
274.924	8.47
275.138	8.5
275.352	8.49
275.566	8.42
275.781	8.47
275.995	8.64
276.209	8.58
276.423	8.48
276.637	8.09
276.851	7.98
277.065	7.74
277.279	7.69
277.493	7.55
277.707	7.59
277.921	7.46
278.135	7.14
278.349	6.91
278.563	6.98
278.777	7.03
278.991	7.33
279.205	7.5
279.419	7.53
279.633	7.73
279.847	7.81
280.061	7.8
280.275	7.83
280.489	8.15
280.703	8.15
280.917	8.07
281.131	8.06
281.344	8.16
281.558	8.01
281.772	8.17
281.986	7.96
282.2	7.99
282.414	7.83
282.627	7.91
282.841	7.91
283.055	8.07
283.269	8.15
283.482	8.02
283.696	7.91
283.91	7.84
284.123	7.67
284.337	7.79
284.551	7.58
284.764	7.69
284.978	7.46
285.192	7.34
285.405	7.25
285.619	7.14
285.833	7.15
286.046	7.03
286.26	7.04
286.473	7.16
286.687	7.06
286.9	7.33
287.114	7.12
287.327	7.34
287.541	7.37
287.754	7.37
287.968	7.36
288.181	7.42
288.395	7.5
288.608	7.73
288.822	7.67
289.035	7.62
289.248	7.44
289.462	7.86
289.675	7.68
289.889	7.68
290.102	7.65
290.315	7.61
290.529	7.64
290.742	7.61
290.955	7.6
291.169	7.49
291.382	7.52
291.595	7.53
291.808	7.14
292.022	6.9
292.235	6.95
292.448	6.95
292.661	6.96
292.875	6.72
293.088	6.54
293.301	6.28
293.514	6.25
293.727	6.43
293.94	6.56
294.153	6.49
294.367	6.85
294.58	6.52
294.793	6.51
295.006	6.53
295.219	6.75
295.432	6.89
295.645	7.07
295.858	7.09
296.071	6.95
296.284	6.85
296.497	6.95
296.71	6.83
296.923	7.11
297.136	7.04
297.349	7.23
297.562	7.13
297.775	7.18
297.988	7.08
298.201	7.14
298.414	7.28
298.626	7.26
298.839	7.14
299.052	7.34
299.265	7.32
299.478	7.38
299.691	7.25
299.903	7.37
300.116	7.41
300.329	7.38
300.542	7.37
300.755	7.33
300.967	7.37
301.18	7.43
301.393	7.28
301.605	7.25
301.818	7.29
302.031	7.41
302.243	7.41
302.456	7.44
302.669	7.52
302.881	7.51
303.094	7.43
303.307	7.19
303.519	7.25
303.732	7.35
303.944	7.29
304.157	7.37
304.37	7.24
304.582	7.12
304.795	6.97
305.007	7.12
305.22	7.24
305.432	7.43
305.645	7.61
305.857	7.59
306.069	7.4
306.282	7.47
306.494	7.56
306.707	7.56
306.919	7.57
307.132	7.38
307.344	7.15
307.556	7.13
307.769	7.29
307.981	7.23
308.193	7.21
308.406	7.23
308.618	7.13
308.83	6.9
309.043	6.87
309.255	6.93
309.467	7.12
309.679	7.19
309.892	7.06
310.104	6.86
310.316	6.94
310.528	6.91
310.74	6.96
310.953	7.06
311.165	7.31
311.377	7.24
311.589	7.23
311.801	7.19
312.013	7.19
312.225	7.31
312.437	7.38
312.649	7.6
312.862	7.56
313.074	7.46
313.286	7.47
313.498	7.39
313.71	7.5
313.922	7.54
314.134	7.67
314.346	7.59
314.558	7.65
314.77	7.81
314.982	7.93
315.193	7.97
315.405	8.17
315.617	8.02
315.829	7.78
316.041	7.95
316.253	7.91
316.465	7.9
316.677	8.05
316.888	8.01
317.1	7.88
317.312	7.57
317.524	7.74
317.736	7.73
317.947	8.04
318.159	8.29
318.371	8.05
318.583	8.02
318.794	7.86
319.006	7.66
319.218	7.81
319.43	7.68
319.641	7.86
319.853	8.05
320.064	8.17
320.276	8.03
320.488	8.05
320.699	8.23
320.911	8.24
321.123	8.66
321.334	9
321.546	8.89
321.757	9.06
321.969	8.95
322.18	8.72
322.392	8.63
322.603	8.55
322.815	8.59
323.026	8.38
323.238	8.11
323.449	7.86
323.661	7.81
323.872	7.78
324.083	7.84
324.295	7.85
324.506	7.84
324.718	7.84
324.929	7.78
325.14	7.86
325.352	8.03
325.563	8.4
325.774	8.42
325.986	8.56
326.197	8.71
326.408	8.72
326.62	8.69
326.831	8.71
327.042	8.77
327.253	8.87
327.464	8.82
327.676	8.96
327.887	8.88
328.098	8.9
328.309	8.62
328.52	8.55
328.732	8.49
328.943	8.72
329.154	8.83
329.365	9.04
329.576	9.07
329.787	9.05
329.998	9
330.209	8.99
330.42	9.13
330.631	9.46
330.842	9.5
331.053	9.63
331.264	9.53
331.475	9.54
331.686	9.24
331.897	9.31
332.108	9.2
332.319	9.17
332.53	9.22
332.741	9.26
332.952	9.34
333.163	9.36
333.374	9.46
333.585	9.39
333.795	9.41
334.006	9.61
334.217	9.65
334.428	9.84
334.639	9.87
334.849	9.81
335.06	9.58
335.271	9.51
335.482	9.48
335.692	9.28
335.903	9.27
336.114	9.27
336.325	9.22
336.535	9.18
336.746	9.24
336.957	9.25
337.167	9.37
337.378	9.52
337.589	9.57
337.799	9.57
338.01	9.59
338.22	9.54
338.431	9.46
338.642	9.41
338.852	9.5
339.063	9.29
339.273	9.28
339.484	9.21
339.694	9.24
339.905	9.22
340.115	9.17
340.326	9.08
340.536	9.06
340.746	9.17
340.957	9.2
341.167	9.23
341.378	9.36
341.588	9.28
341.799	9.25
342.009	9.07
342.219	8.93
342.43	9.03
342.64	9.05
342.85	9.09
343.061	8.9
343.271	8.96
343.481	8.75
343.691	8.58
343.902	8.47
344.112	8.47
344.322	8.57
344.532	8.66
344.743	8.5
344.953	8.52
345.163	8.4
345.373	8.55
345.583	8.45
345.793	8.4
346.004	8.54
346.214	8.69
346.424	8.68
346.634	8.58
346.844	8.68
347.054	8.77
347.264	8.99
347.474	9.17
347.684	9.07
347.894	9.09
348.104	9.28
348.314	9.2
348.524	9.1
348.734	9.06
348.944	9.12
349.154	8.97
349.364	8.8
349.574	8.53
349.784	8.43
349.994	8.38
350.204	8.16
350.413	8
350.623	7.98
350.833	7.91
351.043	7.81
351.253	7.77
351.463	7.7
351.672	7.71
351.882	7.77
352.092	7.7
352.302	7.76
352.511	8.09
352.721	8.19
352.931	8.15
353.141	8.37
353.35	8.68
353.56	8.63
353.77	8.78
353.979	8.78
354.189	8.72
354.399	8.75
354.608	8.59
354.818	8.44
355.027	8.38
355.237	8.38
355.447	8.16
355.656	7.94
355.866	7.93
356.075	7.82
356.285	7.93
356.494	7.95
356.704	7.95
356.913	8.1
357.123	8.1
357.332	8.04
357.542	8.14
357.751	8.19
357.96	8.23
358.17	8.18
358.379	8.18
358.589	8.18
358.798	8.08
359.007	8.08
359.217	8.01
359.426	7.93
359.635	7.98
359.845	8.01
360.054	7.95
360.263	8.01
360.472	8.05
360.682	8
360.891	7.83
361.1	7.94
361.309	7.84
361.519	7.84
361.728	7.89
361.937	7.86
362.146	7.74
362.355	7.84
362.564	7.63
362.774	7.65
362.983	7.59
363.192	7.71
363.401	7.73
363.61	7.78
363.819	7.77
364.028	7.73
364.237	7.65
364.446	7.6
364.655	7.46
364.864	7.64
365.073	7.68
365.282	7.7
365.491	7.62
365.7	7.49
365.909	7.53
366.118	7.41
366.327	7.35
366.536	7.38
366.745	7.5
366.954	7.59
367.162	7.53
367.371	7.47
367.58	7.48
367.789	7.59
367.998	7.58
368.207	7.52
368.415	7.67
368.624	7.67
368.833	7.66
369.042	7.65
369.25	7.63
369.459	7.75
369.668	7.64
369.877	7.58
370.085	7.39
370.294	7.39
370.503	7.26
370.711	7.3
370.92	7.35
371.129	7.29
371.337	7.18
371.546	7.09
371.754	7
371.963	6.98
372.171	7.04
372.38	7.06
372.589	7.09
372.797	7.13
373.006	6.94
373.214	6.9
373.423	6.92
373.631	6.83
373.84	6.77
374.048	6.65
374.256	6.63
374.465	6.67
374.673	6.67
374.882	6.56
375.09	6.61
375.298	6.72
375.507	6.58
375.715	6.63
375.923	6.6
376.132	6.67
376.34	6.7
376.548	6.73
376.757	6.69
376.965	6.71
377.173	6.75
377.381	6.93
377.59	6.94
377.798	7.04
378.006	6.87
378.214	6.92
378.423	6.88
378.631	6.75
378.839	6.68
379.047	6.63
379.255	6.65
379.463	6.62
379.671	6.37
379.879	6.35
380.088	6.33
380.296	6.4
380.504	6.42
380.712	6.5
380.92	6.61
381.128	6.75
381.336	6.54
381.544	6.52
381.752	6.45
381.96	6.47
382.168	6.45
382.376	6.41
382.584	6.45
382.791	6.45
382.999	6.37
383.207	6.28
383.415	6.23
383.623	6.32
383.831	6.28
384.039	6.34
384.247	6.35
384.454	6.28
384.662	6.26
384.87	6.28
385.078	6.23
385.285	6.11
385.493	6.12
385.701	6.01
385.909	6
386.116	6.04
386.324	6
386.532	5.86
386.739	5.82
386.947	5.85
387.155	5.81
387.362	5.74
387.57	5.87
387.778	5.91
387.985	5.97
388.193	6.02
388.4	5.98
388.608	5.98
388.816	6
389.023	6.02
389.231	6.06
389.438	6.08
389.646	6.02
389.853	6
390.061	5.92
390.268	5.85
390.475	5.78
390.683	5.78
390.89	5.81
391.098	5.83
391.305	5.85
391.512	5.7
391.72	5.6
391.927	5.62
392.135	5.65
392.342	5.61
392.549	5.67
392.756	5.67
392.964	5.6
393.171	5.64
393.378	5.66
393.586	5.59
393.793	5.6
394	5.59
394.207	5.61
394.414	5.58
394.622	5.62
394.829	5.59
395.036	5.58
395.243	5.53
395.45	5.39
395.657	5.44
395.864	5.5
396.072	5.56
396.279	5.68
396.486	5.66
396.693	5.57
396.9	5.56
397.107	5.44
397.314	5.43
397.521	5.45
397.728	5.45
397.935	5.41
398.142	5.3
398.349	5.29
398.556	5.15
398.763	5.12
398.97	5.16
399.177	5.21
399.383	5.26
399.59	5.25
399.797	5.29
400.004	5.31
400.211	5.25
400.418	5.23
400.625	5.17
400.831	5.25
401.038	5.28
401.245	5.26
401.452	5.2
401.658	5.14
401.865	5.13
402.072	5.01
402.279	4.98
402.485	4.92
402.692	4.99
402.899	5
403.105	4.97
403.312	5
403.519	5.03
403.725	4.99
403.932	5.12
404.138	5.12
404.345	5.15
404.552	5.16
404.758	5.27
404.965	5.18
405.171	5.19
405.378	5.11
405.584	5.1
405.791	4.94
405.997	5.01
406.204	4.96
406.41	5.01
406.617	5.01
406.823	4.94
407.029	4.95
407.236	5.03
407.442	5.04
407.649	5.12
407.855	5.05
408.061	5.19
408.268	5.21
408.474	5.11
408.68	5.04
408.887	5.08
409.093	5.09
409.299	5.02
409.505	4.99
409.712	4.97
409.918	4.97
410.124	4.98
410.33	4.94
410.537	4.87
410.743	4.89
410.949	4.93
411.155	4.97
411.361	5.06
411.567	5.07
411.773	5.08
411.98	5.04
412.186	5.1
412.392	5.16
412.598	5.17
412.804	5.13
413.01	5.1
413.216	5.07
413.422	5.07
413.628	5.01
413.834	4.94
414.04	4.98
414.246	5.02
414.452	5
414.658	5
414.864	4.99
415.07	4.96
415.275	5.01
415.481	4.97
415.687	4.95
415.893	4.97
416.099	4.98
416.305	4.81
416.511	4.81
416.716	4.72
416.922	4.65
417.128	4.67
417.334	4.74
417.539	4.72
417.745	4.69
417.951	4.65
418.157	4.64
418.362	4.63
418.568	4.69
418.774	4.69
418.979	4.69
419.185	4.71
419.391	4.69
419.596	4.68
419.802	4.66
420.008	4.64
420.213	4.7
420.419	4.68
420.624	4.66
420.83	4.65
421.035	4.62
421.241	4.61
421.446	4.55
421.652	4.54
421.857	4.54
422.063	4.51
422.268	4.53
422.474	4.46
422.679	4.45
422.885	4.48
423.09	4.45
423.295	4.43
423.501	4.45
423.706	4.5
423.911	4.48
424.117	4.5
424.322	4.54
424.527	4.55
424.733	4.55
424.938	4.55
425.143	4.53
425.349	4.57
425.554	4.59
425.759	4.57
425.964	4.55
426.169	4.56
426.375	4.54
426.58	4.52
426.785	4.48
426.99	4.51
427.195	4.52
427.4	4.5
427.605	4.53
427.811	4.58
428.016	4.6
428.221	4.6
428.426	4.61
428.631	4.58
428.836	4.56
429.041	4.58
429.246	4.53
429.451	4.55
429.656	4.61
429.861	4.55
430.066	4.54
430.271	4.51
430.476	4.48
430.681	4.44
430.886	4.47
431.09	4.49
431.295	4.44
431.5	4.43
431.705	4.37
431.91	4.29
432.115	4.28
432.32	4.23
432.524	4.25
432.729	4.26
432.934	4.25
433.139	4.27
433.343	4.27
433.548	4.34
433.753	4.39
433.958	4.44
434.162	4.49
434.367	4.53
434.572	4.52
434.776	4.54
434.981	4.55
435.186	4.59
435.39	4.58
435.595	4.56
435.799	4.51
436.004	4.44
436.209	4.4
436.413	4.34
436.618	4.32
436.822	4.32
437.027	4.23
437.231	4.24
437.436	4.24
437.64	4.21
437.845	4.25
438.049	4.29
438.253	4.3
438.458	4.28
438.662	4.32
438.867	4.31
439.071	4.31
439.275	4.37
439.48	4.37
439.684	4.31
439.888	4.32
440.093	4.31
440.297	4.26
440.501	4.32
440.706	4.35
440.91	4.33
441.114	4.33
441.318	4.32
441.523	4.34
441.727	4.3
441.931	4.31
442.135	4.32
442.339	4.31
442.543	4.35
442.748	4.3
442.952	4.24
443.156	4.26
443.36	4.26
443.564	4.32
443.768	4.23
443.972	4.23
444.176	4.21
444.38	4.19
444.584	4.16
444.788	4.14
444.992	4.12
445.196	4.14
445.4	4.1
445.604	4.07
445.808	4.02
446.012	4.07
446.216	4.05
446.42	4.09
446.624	4.1
446.828	4.06
447.032	4.05
447.235	4.05
447.439	4.07
447.643	4.14
447.847	4.19
448.051	4.24
448.254	4.25
448.458	4.29
448.662	4.31
448.866	4.31
449.069	4.35
449.273	4.44
449.477	4.48
449.681	4.5
449.884	4.4
450.088	4.39
450.292	4.3
450.495	4.27
450.699	4.29
450.902	4.29
451.106	4.27
451.31	4.33
451.513	4.24
451.717	4.24
451.92	4.23
452.124	4.27
452.327	4.26
452.531	4.34
452.734	4.31
452.938	4.29
453.141	4.27
453.345	4.28
453.548	4.23
453.752	4.26
453.955	4.3
454.158	4.3
454.362	4.32
454.565	4.32
454.769	4.33
454.972	4.41
455.175	4.39
455.379	4.37
455.582	4.32
455.785	4.32
455.988	4.32
456.192	4.25
456.395	4.25
456.598	4.26
456.801	4.24
457.005	4.18
457.208	4.13
457.411	4.13
457.614	4.09
457.817	4.12
458.021	4.1
458.224	4.06
458.427	4.06
458.63	4.04
458.833	4
459.036	3.98
459.239	4.01
459.442	4.01
459.645	4.02
459.848	4.07
460.051	4.05
460.254	4.08
460.457	4.11
460.66	4.11
460.863	4.16
461.066	4.13
461.269	4.16
461.472	4.2
461.675	4.2
461.878	4.23
462.081	4.2
462.284	4.23
462.486	4.18
462.689	4.18
462.892	4.2
463.095	4.21
463.298	4.24
463.5	4.2
463.703	4.16
463.906	4.17
464.109	4.16
464.311	4.15
464.514	4.17
464.717	4.25
464.92	4.22
465.122	4.21
465.325	4.19
465.528	4.21
465.73	4.24
465.933	4.22
466.135	4.12
466.338	4.12
466.541	4.09
466.743	4.05
466.946	4.04
467.148	4.08
467.351	4.08
467.553	4.04
467.756	4.07
467.958	4.06
468.161	4.07
468.363	4.13
468.566	4.13
468.768	4.12
468.971	4.11
469.173	4.1
469.375	4.05
469.578	3.93
469.78	3.94
469.983	3.94
470.185	3.95
470.387	3.98
470.59	4.04
470.792	4.05
470.994	4.07
471.196	4.08
471.399	4.11
471.601	4.11
471.803	4.18
472.005	4.17
472.208	4.18
472.41	4.16
472.612	4.09
472.814	4.09
473.016	4.12
473.218	4.18
473.421	4.17
473.623	4.18
473.825	4.22
474.027	4.27
474.229	4.25
474.431	4.22
474.633	4.28
474.835	4.32
475.037	4.26
475.239	4.22
475.441	4.16
475.643	4.21
475.845	4.14
476.047	4.15
476.249	4.15
476.451	4.15
476.653	4.12
476.855	4.09
477.057	4.09
477.258	4.07
477.46	4.08
477.662	4.11
477.864	4.09
478.066	4.09
478.268	4.05
478.469	4.03
478.671	4.01
478.873	4.02
479.075	4.01
479.276	3.98
479.478	4.05
479.68	4.05
479.882	4.07
480.083	4.07
480.285	4.07
480.487	4.04
480.688	4.05
480.89	4.07
481.091	4.04
481.293	4.03
481.495	4.04
481.696	4.01
481.898	4.01
482.099	3.97
482.301	3.94
482.502	3.92
482.704	3.9
482.905	3.89
483.107	3.87
483.308	3.87
483.51	3.85
483.711	3.85
483.913	3.86
484.114	3.85
484.315	3.87
484.517	3.87
484.718	3.89
484.92	3.92
485.121	3.93
485.322	3.93
485.524	3.94
485.725	3.94
485.926	3.93
486.127	3.93
486.329	3.92
486.53	3.92
486.731	3.92
486.932	3.91
487.134	3.9
487.335	3.89
487.536	3.92
487.737	3.93
487.938	3.95
488.139	3.95
488.341	3.94
488.542	3.96
488.743	3.96
488.944	3.96
489.145	3.98
489.346	4
489.547	4
489.748	3.98
489.949	3.96
490.15	3.95
490.351	3.93
490.552	3.93
490.753	3.92
490.954	3.91
491.155	3.92
491.356	3.91
491.557	3.92
491.758	3.93
491.959	3.95
492.159	3.98
492.36	4.02
492.561	4.04
492.762	4.08
492.963	4.09
493.164	4.13
493.364	4.15
493.565	4.2
493.766	4.19
493.967	4.18
494.167	4.22
494.368	4.2
494.569	4.18
494.769	4.21
494.97	4.17
495.171	4.19
495.371	4.14
495.572	4.14
495.773	4.11
495.973	4.15
496.174	4.17
496.375	4.14
496.575	4.12
496.776	4.14
496.976	4.13
497.177	4.16
497.377	4.16
497.578	4.19
497.778	4.2
497.979	4.22
498.179	4.23
498.38	4.24
498.58	4.26
498.78	4.3
498.981	4.3
499.181	4.34
499.382	4.36
499.582	4.35
499.782	4.39
499.983	4.43
500.183	4.44
500.383	4.43
500.584	4.45
500.784	4.45
500.984	4.46
501.184	4.44
501.385	4.43
501.585	4.44
501.785	4.43
501.985	4.48
502.185	4.49
502.386	4.51
502.586	4.5
502.786	4.5
502.986	4.53
503.186	4.54
503.386	4.58
503.586	4.59
503.786	4.6
503.987	4.6
504.187	4.57
504.387	4.56
504.587	4.54
504.787	4.57
504.987	4.56
505.187	4.58
505.387	4.57
505.587	4.61
505.786	4.61
505.986	4.62
506.186	4.63
506.386	4.63
506.586	4.61
506.786	4.64
506.986	4.61
507.186	4.61
507.386	4.62
507.585	4.61
507.785	4.63
507.985	4.64
508.185	4.66
508.384	4.68
508.584	4.66
508.784	4.69
508.984	4.71
509.183	4.79
509.383	4.82
509.583	4.81
509.782	4.86
509.982	4.86
510.182	4.86
510.381	4.88
510.581	4.91
510.781	4.97
510.98	5.03
511.18	5.05
511.379	5.04
511.579	5.08
511.778	5.09
511.978	5.12
512.177	5.14
512.377	5.18
512.576	5.18
512.776	5.21
512.975	5.27
513.175	5.27
513.374	5.31
513.573	5.35
513.773	5.38
513.972	5.4
514.172	5.44
514.371	5.45
514.57	5.49
514.77	5.58
514.969	5.58
515.168	5.55
515.367	5.56
515.567	5.56
515.766	5.55
515.965	5.56
516.164	5.61
516.364	5.61
516.563	5.61
516.762	5.61
516.961	5.6
517.16	5.63
517.359	5.61
517.559	5.61
517.758	5.6
517.957	5.64
518.156	5.66
518.355	5.68
518.554	5.71
518.753	5.76
518.952	5.75
519.151	5.77
519.35	5.78
519.549	5.84
519.748	5.92
519.947	5.97
520.146	6
520.345	6.01
520.544	6.05
520.743	6.08
520.942	6.09
521.141	6.14
521.339	6.18
521.538	6.23
521.737	6.26
521.936	6.23
522.135	6.25
522.333	6.29
522.532	6.31
522.731	6.32
522.93	6.33
523.129	6.37
523.327	6.43
523.526	6.45
523.725	6.45
523.923	6.47
524.122	6.5
524.321	6.52
524.519	6.54
524.718	6.55
524.917	6.57
525.115	6.63
525.314	6.64
525.512	6.65
525.711	6.66
525.909	6.7
526.108	6.71
526.306	6.73
526.505	6.74
526.703	6.73
526.902	6.74
527.1	6.73
527.299	6.73
527.497	6.74
527.696	6.73
527.894	6.74
528.092	6.72
528.291	6.75
528.489	6.77
528.688	6.8
528.886	6.83
529.084	6.87
529.283	6.92
529.481	6.94
529.679	6.99
529.877	7.05
530.076	7.11
530.274	7.18
530.472	7.23
530.67	7.27
530.869	7.26
531.067	7.31
531.265	7.31
531.463	7.34
531.661	7.36
531.859	7.38
532.057	7.38
532.255	7.36
532.454	7.37
532.652	7.37
532.85	7.38
533.048	7.44
533.246	7.47
533.444	7.51
533.642	7.51
533.84	7.54
534.038	7.59
534.236	7.62
534.434	7.69
534.632	7.75
534.83	7.79
535.027	7.82
535.225	7.8
535.423	7.81
535.621	7.83
535.819	7.83
536.017	7.83
536.215	7.82
536.412	7.85
536.61	7.86
536.808	7.86
537.006	7.87
537.203	7.89
537.401	7.96
537.599	7.99
537.797	8
537.994	8.07
538.192	8.11
538.39	8.15
538.587	8.13
538.785	8.13
538.983	8.2
539.18	8.23
539.378	8.24
539.575	8.26
539.773	8.28
539.97	8.3
540.168	8.31
540.366	8.33
540.563	8.35
540.761	8.39
540.958	8.41
541.155	8.39
541.353	8.42
541.55	8.44
541.748	8.45
541.945	8.46
542.143	8.5
542.34	8.54
542.537	8.54
542.735	8.59
542.932	8.61
543.129	8.66
543.327	8.71
543.524	8.77
543.721	8.8
543.919	8.85
544.116	8.9
544.313	8.93
544.51	8.93
544.708	8.99
544.905	9
545.102	9.07
545.299	9.1
545.496	9.12
545.693	9.1
545.891	9.16
546.088	9.16
546.285	9.2
546.482	9.2
546.679	9.25
546.876	9.28
547.073	9.31
547.27	9.33
547.467	9.35
547.664	9.43
547.861	9.47
548.058	9.51
548.255	9.57
548.452	9.6
548.649	9.68
548.846	9.7
549.043	9.74
549.24	9.8
549.437	9.81
549.633	9.85
549.83	9.83
550.027	9.87
550.224	9.91
550.421	9.9
550.618	9.91
550.814	9.93
551.011	9.93
551.208	9.91
551.405	9.87
551.601	9.88
551.798	9.85
551.995	9.87
552.191	9.92
552.388	9.94
552.585	10
552.781	10.02
552.978	10.04
553.175	10.11
553.371	10.19
553.568	10.26
553.764	10.31
553.961	10.35
554.157	10.41
554.354	10.41
554.55	10.43
554.747	10.41
554.943	10.45
555.14	10.52
555.336	10.52
555.533	10.52
555.729	10.54
555.926	10.56
556.122	10.61
556.318	10.59
556.515	10.61
556.711	10.55
556.907	10.6
557.104	10.64
557.3	10.63
557.496	10.68
557.693	10.68
557.889	10.72
558.085	10.72
558.281	10.77
558.478	10.81
558.674	10.84
558.87	10.93
559.066	10.95
559.262	10.94
559.459	10.98
559.655	10.98
559.851	11.07
560.047	11.14
560.243	11.17
560.439	11.17
560.635	11.13
560.831	11.17
561.027	11.21
561.223	11.24
561.419	11.3
561.615	11.34
561.811	11.39
562.007	11.37
562.203	11.38
562.399	11.46
562.595	11.45
562.791	11.52
562.987	11.55
563.183	11.56
563.379	11.58
563.575	11.61
563.771	11.61
563.966	11.6
564.162	11.64
564.358	11.63
564.554	11.61
564.75	11.64
564.945	11.72
565.141	11.73
565.337	11.77
565.533	11.79
565.728	11.79
565.924	11.83
566.12	11.87
566.315	11.9
566.511	11.91
566.707	11.95
566.902	12
567.098	12
567.293	12.02
567.489	12.03
567.684	12.07
567.88	12.12
568.076	12.19
568.271	12.26
568.467	12.25
568.662	12.28
568.858	12.36
569.053	12.37
569.248	12.34
569.444	12.33
569.639	12.38
569.835	12.36
570.03	12.39
570.225	12.34
570.421	12.37
570.616	12.43
570.812	12.46
571.007	12.41
571.202	12.44
571.397	12.47
571.593	12.46
571.788	12.46
571.983	12.53
572.178	12.57
572.374	12.66
572.569	12.63
572.764	12.62
572.959	12.6
573.154	12.64
573.35	12.62
573.545	12.67
573.74	12.71
573.935	12.71
574.13	12.71
574.325	12.67
574.52	12.63
574.715	12.65
574.91	12.67
575.105	12.73
575.3	12.75
575.495	12.82
575.69	12.83
575.885	12.89
576.08	12.91
576.275	12.91
576.47	12.96
576.665	13
576.86	13.03
577.055	13.02
577.25	13
577.444	13.05
577.639	13.12
577.834	13.12
578.029	13.21
578.224	13.21
578.418	13.27
578.613	13.25
578.808	13.24
579.003	13.2
579.197	13.25
579.392	13.26
579.587	13.27
579.781	13.21
579.976	13.26
580.171	13.19
580.365	13.22
580.56	13.19
580.755	13.23
580.949	13.22
581.144	13.28
581.338	13.28
581.533	13.4
581.727	13.38
581.922	13.39
582.116	13.34
582.311	13.34
582.505	13.35
582.7	13.35
582.894	13.35
583.089	13.43
583.283	13.41
583.478	13.4
583.672	13.33
583.866	13.3
584.061	13.36
584.255	13.37
584.449	13.32
584.644	13.35
584.838	13.38
585.032	13.48
585.226	13.44
585.421	13.53
585.615	13.58
585.809	13.63
586.003	13.69
586.198	13.68
586.392	13.73
586.586	13.78
586.78	13.78
586.974	13.82
587.168	13.7
587.363	13.7
587.557	13.67
587.751	13.67
587.945	13.66
588.139	13.73
588.333	13.75
588.527	13.78
588.721	13.86
588.915	13.92
589.109	13.91
589.303	13.98
589.497	13.98
589.691	13.98
589.885	14.01
590.079	14
590.273	13.88
590.466	13.86
590.66	13.82
590.854	13.79
591.048	13.7
591.242	13.71
591.436	13.66
591.629	13.66
591.823	13.72
592.017	13.71
592.211	13.68
592.404	13.71
592.598	13.67
592.792	13.72
592.986	13.75
593.179	13.83
593.373	13.89
593.567	13.94
593.76	13.95
593.954	13.99
594.147	14.02
594.341	14.08
594.535	14.07
594.728	14.16
594.922	14.17
595.115	14.17
595.309	14.14
595.502	14.12
595.696	14.1
595.889	14.14
596.083	14.1
596.276	14.12
596.47	14.11
596.663	14.16
596.856	14.17
597.05	14.18
597.243	14.19
597.437	14.25
597.63	14.23
597.823	14.24
598.017	14.23
598.21	14.26
598.403	14.21
598.596	14.28
598.79	14.29
598.983	14.26
599.176	14.26
599.369	14.23
599.563	14.24
599.756	14.33
599.949	14.43
600.142	14.41
600.335	14.39
600.528	14.44
600.722	14.36
600.915	14.46
601.108	14.45
601.301	14.43
601.494	14.53
601.687	14.48
601.88	14.42
602.073	14.27
602.266	14.3
602.459	14.3
602.652	14.29
602.845	14.34
603.038	14.25
603.231	14.29
603.424	14.27
603.617	14.23
603.809	14.22
604.002	14.24
604.195	14.33
604.388	14.33
604.581	14.34
604.774	14.35
604.966	14.32
605.159	14.34
605.352	14.32
605.545	14.39
605.737	14.41
605.93	14.46
606.123	14.48
606.316	14.45
606.508	14.49
606.701	14.57
606.894	14.52
607.086	14.58
607.279	14.59
607.471	14.62
607.664	14.59
607.857	14.58
608.049	14.63
608.242	14.63
608.434	14.71
608.627	14.72
608.819	14.7
609.012	14.82
609.204	14.87
609.397	14.94
609.589	15.07
609.782	15.13
609.974	15.24
610.166	15.27
610.359	15.34
610.551	15.33
610.743	15.34
610.936	15.38
611.128	15.33
611.32	15.33
611.513	15.33
611.705	15.17
611.897	15.13
612.09	15.02
612.282	14.98
612.474	14.89
612.666	14.98
612.858	15.11
613.051	15.11
613.243	15.16
613.435	15.21
613.627	15.19
613.819	15.3
614.011	15.52
614.203	15.59
614.395	15.57
614.588	15.58
614.78	15.48
614.972	15.41
615.164	15.35
615.356	15.26
615.548	15.12
615.74	15.22
615.932	15.12
616.124	14.93
616.315	14.93
616.507	15.03
616.699	15.06
616.891	15.06
617.083	15.04
617.275	15.07
617.467	15.11
617.659	15.17
617.85	15.08
618.042	15.14
618.234	15.09
618.426	15.06
618.618	15.06
618.809	15.09
619.001	15.06
619.193	15.06
619.384	15.06
619.576	15.1
619.768	15.12
619.959	15.06
620.151	15.06
620.343	15.15
620.534	15.17
620.726	15.16
620.917	15.12
621.109	15.2
621.301	15.22
621.492	15.22
621.684	15.24
621.875	15.23
622.067	15.31
622.258	15.25
622.45	15.18
622.641	15.09
622.832	15.01
623.024	14.97
623.215	15.04
623.407	15.04
623.598	15.01
623.789	14.98
623.981	14.99
624.172	14.97
624.363	15.02
624.555	15.08
624.746	15.1
624.937	15.1
625.129	15.17
625.32	15.13
625.511	15.13
625.702	15.1
625.893	15.14
626.085	15.13
626.276	15.09
626.467	15.08
626.658	15.08
626.849	15.17
627.04	15.21
627.231	15.21
627.422	15.17
627.614	15.18
627.805	15.27
627.996	15.2
628.187	15.26
628.378	15.29
628.569	15.29
628.76	15.34
628.951	15.29
629.142	15.21
629.332	15.2
629.523	15.21
629.714	15.2
629.905	15.24
630.096	15.24
630.287	15.24
630.478	15.27
630.669	15.23
630.859	15.17
631.05	15.13
631.241	15.2
631.432	15.22
631.623	15.27
631.813	15.27
632.004	15.2
632.195	15.21
632.385	15.16
632.576	15.17
632.767	15.2
632.957	15.2
633.148	15.32
633.339	15.3
633.529	15.34
633.72	15.29
633.91	15.28
634.101	15.22
634.292	15.25
634.482	15.26
634.673	15.29
634.863	15.32
635.054	15.32
635.244	15.26
635.435	15.29
635.625	15.25
635.815	15.24
636.006	15.23
636.196	15.35
636.387	15.36
636.577	15.37
636.767	15.35
636.958	15.47
637.148	15.48
637.338	15.47
637.529	15.45
637.719	15.48
637.909	15.53
638.099	15.57
638.29	15.51
638.48	15.54
638.67	15.55
638.86	15.64
639.05	15.57
639.241	15.54
639.431	15.59
639.621	15.59
639.811	15.54
640.001	15.55
640.191	15.5
640.381	15.4
640.571	15.38
640.761	15.39
640.951	15.35
641.141	15.35
641.331	15.33
641.521	15.26
641.711	15.33
641.901	15.35
642.091	15.25
642.281	15.31
642.471	15.43
642.661	15.42
642.851	15.47
643.041	15.46
643.231	15.34
643.42	15.42
643.61	15.56
643.8	15.5
643.99	15.47
644.18	15.54
644.369	15.59
644.559	15.57
644.749	15.58
644.939	15.55
645.128	15.53
645.318	15.55
645.508	15.57
645.697	15.51
645.887	15.55
646.076	15.61
646.266	15.61
646.456	15.59
646.645	15.63
646.835	15.67
647.024	15.58
647.214	15.59
647.403	15.65
647.593	15.61
647.782	15.65
647.972	15.65
648.161	15.67
648.351	15.69
648.54	15.66
648.73	15.56
648.919	15.54
649.108	15.59
649.298	15.61
649.487	15.65
649.677	15.62
649.866	15.61
650.055	15.64
650.244	15.61
650.434	15.74
650.623	15.71
650.812	15.86
651.002	15.9
651.191	15.86
651.38	15.98
651.569	15.92
651.758	15.94
651.947	16.04
652.137	15.98
652.326	15.98
652.515	15.84
652.704	15.93
652.893	15.91
653.082	15.91
653.271	15.95
653.46	15.84
653.649	15.95
653.838	15.98
654.027	15.89
654.216	15.91
654.405	15.92
654.594	15.9
654.783	15.93
654.972	15.93
655.161	15.94
655.35	15.94
655.539	15.91
655.728	15.91
655.916	15.94
656.105	15.94
656.294	16
656.483	16.02
656.672	16.02
656.86	15.88
657.049	15.88
657.238	15.84
657.427	15.91
657.615	15.94
657.804	15.92
657.993	15.94
658.181	15.88
658.37	15.85
658.559	15.86
658.747	15.85
658.936	15.9
659.125	16.08
659.313	16.08
659.502	16.09
659.69	16.06
659.879	15.99
660.067	16.04
660.256	16.08
660.444	16.03
660.633	16.02
660.821	16.08
661.01	16.09
661.198	15.88
661.387	15.85
661.575	15.79
661.763	15.87
661.952	16.03
662.14	16.02
662.328	16.03
662.517	16.12
662.705	16.13
662.893	16.16
663.082	16.31
663.27	16.31
663.458	16.44
663.646	16.42
663.834	16.35
664.023	16.33
664.211	16.27
664.399	16.34
664.587	16.28
664.775	16.23
664.963	16.25
665.152	16.19
665.34	16.19
665.528	16.09
665.716	16.14
665.904	16.13
666.092	16.06
666.28	16.04
666.468	16.05
666.656	16.03
666.844	16.16
667.032	16.12
667.22	16.12
667.408	16.18
667.596	16.35
667.784	16.34
667.971	16.44
668.159	16.48
668.347	16.43
668.535	16.27
668.723	16.28
668.911	16.16
669.098	16.2
669.286	16.13
669.474	16.11
669.662	15.98
669.849	15.98
670.037	15.93
670.225	15.92
670.413	15.92
670.6	16.06
670.788	16.16
670.976	16.29
671.163	16.28
671.351	16.28
671.538	16.19
671.726	16.23
671.913	16.32
672.101	16.36
672.289	16.25
672.476	16.22
672.664	16.14
672.851	16.09
673.039	16.04
673.226	15.97
673.413	15.97
673.601	16.03
673.788	15.98
673.976	15.88
674.163	15.74
674.35	15.79
674.538	15.97
674.725	16.05
674.912	15.96
675.1	15.94
675.287	16.11
675.474	16.2
675.662	16.21
675.849	16.28
676.036	16.3
676.223	16.38
676.411	16.36
676.598	16.22
676.785	16.26
676.972	16.35
677.159	16.3
677.346	16.13
677.533	16.17
677.721	16.17
677.908	16.23
678.095	16.2
678.282	16.2
678.469	16.18
678.656	16.27
678.843	16.24
679.03	16.25
679.217	16.36
679.404	16.43
679.591	16.33
679.778	16.35
679.964	16.32
680.151	16.38
680.338	16.42
680.525	16.45
680.712	16.46
680.899	16.51
681.086	16.58
681.272	16.5
681.459	16.5
681.646	16.64
681.833	16.67
682.02	16.62
682.206	16.73
682.393	16.81
682.58	16.81
682.766	16.77
682.953	16.83
683.14	16.75
683.326	16.91
683.513	16.95
683.7	16.81
683.886	16.75
684.073	16.76
684.259	16.62
684.446	16.72
684.632	16.82
684.819	16.91
685.005	16.83
685.192	16.9
685.378	16.82
685.565	16.75
685.751	16.72
685.938	16.72
686.124	16.89
686.31	16.87
686.497	16.61
686.683	16.57
686.87	16.53
687.056	16.53
687.242	16.43
687.429	16.34
687.615	16.4
687.801	16.49
687.987	16.5
688.174	16.39
688.36	16.39
688.546	16.49
688.732	16.59
688.918	16.55
689.105	16.61
689.291	16.63
689.477	16.83
689.663	16.9
689.849	16.84
690.035	17.03
690.221	17.03
690.407	17.22
690.593	17.23
690.779	17.17
690.965	17.2
691.151	17.18
691.337	17.22
691.523	17.09
691.709	17.14
691.895	17.29
692.081	17.16
692.267	17.13
692.453	17.02
692.639	17.15
692.825	17.09
693.011	17.1
693.196	17.06
693.382	16.92
693.568	16.97
693.754	16.95
693.94	16.92
694.125	16.92
694.311	16.91
694.497	16.92
694.682	16.65
694.868	16.61
695.054	16.67
695.239	16.6
695.425	16.68
695.611	16.79
695.796	16.67
695.982	16.61
696.168	16.56
696.353	16.58
696.539	16.53
696.724	16.6
696.91	16.7
697.095	16.68
697.281	16.68
697.466	16.7
697.652	16.57
697.837	16.55
698.023	16.59
698.208	16.64
698.393	16.62
698.579	16.66
698.764	16.64
698.949	16.55
699.135	16.58
699.32	16.56
699.505	16.61
699.691	16.59
699.876	16.55
700.061	16.55
700.246	16.56
700.432	16.5
700.617	16.36
700.802	16.42
700.987	16.62
701.172	16.51
701.358	16.57
701.543	16.66
701.728	16.75
701.913	16.88
702.098	17.02
702.283	17
702.468	17.05
702.653	17.37
702.838	17.54
703.023	17.38
703.208	17.36
703.393	17.32
703.578	17.26
703.763	17.2
703.948	17.25
704.133	17.1
704.318	17.1
704.503	17.31
704.688	17.24
704.873	17.05
705.057	17.19
705.242	17.33
705.427	17.33
705.612	17.35
705.797	17.62
705.981	17.59
706.166	17.88
706.351	17.74
706.536	17.59
706.72	17.58
706.905	17.62
707.09	17.57
707.274	17.47
707.459	17.57
707.644	17.62
707.828	17.48
708.013	17.57
708.197	17.25
708.382	17.42
708.567	17.39
708.751	17.34
708.936	17.29
709.12	17.32
709.305	17.42
709.489	17.35
709.673	17.33
709.858	17.22
710.042	17.15
710.227	17.19
710.411	17.25
710.596	17.42
710.78	17.5
710.964	17.64
711.149	17.63
711.333	17.56
711.517	17.59
711.702	17.66
711.886	17.68
712.07	17.57
712.254	17.78
712.438	17.6
712.623	17.37
712.807	17.36
712.991	17.27
713.175	17.24
713.359	17.32
713.544	17.37
713.728	17.27
713.912	17.35
714.096	17.53
714.28	17.36
714.464	17.58
714.648	17.71
714.832	17.67
715.016	17.75
715.2	17.8
715.384	17.9
715.568	18.01
715.752	17.89
715.936	17.94
716.12	17.89
716.304	17.89
716.488	17.67
716.671	17.71
716.855	17.7
717.039	17.72
717.223	17.7
717.407	17.53
717.59	17.57
717.774	17.69
717.958	17.7
718.142	17.66
718.325	17.66
718.509	17.82
718.693	17.77
718.877	17.85
719.06	17.81
719.244	17.67
719.428	17.68
719.611	17.43
719.795	17.43
719.978	17.38
720.162	17.33
720.345	17.45
720.529	17.48
720.713	17.61
720.896	17.6
721.08	17.46
721.263	17.56
721.446	17.72
721.63	17.93
721.813	17.76
721.997	17.66
722.18	17.92
722.364	17.8
722.547	17.69
722.73	17.44
722.914	17.25
723.097	17.32
723.28	17.45
723.464	17.44
723.647	17.34
723.83	17.62
724.013	17.75
724.197	17.69
724.38	17.87
724.563	17.86
724.746	18.19
724.929	18.5
725.112	18.6
725.296	18.43
725.479	18.25
725.662	18.11
725.845	17.97
726.028	17.88
726.211	17.73
726.394	17.56
726.577	17.58
726.76	17.28
726.943	17.16
727.126	17.15
727.309	17.16
727.492	17.22
727.675	17.32
727.858	17.2
728.041	17.42
728.224	17.67
728.407	17.65
728.589	17.83
728.772	17.9
728.955	18
729.138	17.99
729.321	18
729.503	18.1
729.686	18.14
729.869	18.2
730.052	17.96
730.234	17.92
730.417	17.86
730.6	17.73
730.782	17.79
730.965	17.83
731.148	18
731.33	18.06
731.513	18.03
731.695	18.05
731.878	18.01
732.061	17.92
732.243	17.98
732.426	17.91
732.608	18.08
732.791	18.03
732.973	17.85
733.156	17.72
733.338	17.63
733.52	17.71
733.703	17.69
733.885	18.05
734.068	18.22
734.25	18.21
734.432	18.29
734.615	17.91
734.797	17.87
734.979	17.68
735.162	17.44
735.344	17.53
735.526	17.61
735.708	17.35
735.891	17.23
736.073	17.18
736.255	16.98
736.437	17.09
736.619	17.34
736.802	17.41
736.984	17.62
737.166	18
737.348	18.23
737.53	18.13
737.712	18.39
737.894	18.23
738.076	18.29
738.258	18.26
738.44	18.4
738.622	18.39
738.804	18.27
738.986	18.37
739.168	18.09
739.35	17.87
739.532	17.68
739.714	17.75
739.896	17.76
740.078	17.86
740.259	17.76
740.441	17.76
740.623	17.77
740.805	18.08
740.987	18.01
741.168	17.86
741.35	17.8
741.532	18.08
741.714	18.02
741.895	18.15
742.077	18.17
742.259	18.12
742.44	17.85
742.622	17.94
742.804	17.71
742.985	17.68
743.167	17.94
743.348	18.05
743.53	17.55
743.711	17.4
743.893	17.53
744.075	17.13
744.256	17.4
744.438	17.5
744.619	17.4
744.8	17.63
744.982	17.6
745.163	17.34
745.345	17.26
745.526	17.84
745.707	18.06
745.889	17.7
746.07	17.78
746.252	18.01
746.433	18.01
746.614	17.96
746.795	17.37
746.977	17.42
747.158	17.66
747.339	17.61
747.52	17.45
747.702	17.25
747.883	17.6
748.064	17.83
748.245	17.44
748.426	17.29
748.607	17.64
748.788	17.8
748.97	17.89
749.151	18.03
749.332	18.04
749.513	17.78
749.694	17.96
749.875	17.75
750.056	17.73
750.237	17.77
750.418	18.08
750.599	17.93
750.78	18.22
750.96	18.22
751.141	18.1
751.322	18.33
751.503	18.88
751.684	18.91
751.865	18.7
752.046	18.56
752.226	18.79
752.407	18.79
752.588	18.65
752.769	18.89
752.949	18.85
753.13	19.04
753.311	18.8
753.492	18.39
753.672	18.54
753.853	19
754.034	19.22
754.214	19.04
754.395	18.73
754.575	18.71
754.756	18.39
754.937	18.37
755.117	18.1
755.298	18.27
755.478	18.13
755.659	17.82
755.839	17.74
756.02	17.74
756.2	17.78
756.381	17.74
756.561	17.89
756.741	18.13
756.922	18.22
757.102	18.35
757.283	18.4
757.463	18.56
757.643	18.77
757.823	18.6
758.004	18.4
758.184	18.48
758.364	18.81
758.545	18.85
758.725	18.72
758.905	18.55
759.085	18.61
759.265	18.7
759.446	18.73
759.626	18.51
759.806	18.58
759.986	18.76
760.166	18.98
760.346	18.89
760.526	18.89
760.706	18.91
760.886	19.15
761.066	19.01
761.246	18.9
761.426	19.09
761.606	19.25
761.786	19.08
761.966	18.94
762.146	18.85
762.326	18.99
762.506	18.87
762.686	18.86
762.866	18.58
763.046	18.69
763.225	18.78
763.405	18.59
763.585	18.41
763.765	18.52
763.945	18.5
764.124	18.36
764.304	18.41
764.484	18.28
764.664	18.35
764.843	18.72
765.023	18.72
765.203	18.69
765.382	18.5
765.562	18.8
765.741	18.81
765.921	18.86
766.101	18.77
766.28	18.76
766.46	19.03
766.639	19.16
766.819	19.07
766.998	19.18
767.178	18.83
767.357	19.17
767.537	18.76
767.716	18.79
767.896	18.92
768.075	19.03
768.254	18.62
768.434	18.78
768.613	19.32
768.792	19.04
768.972	19.19
769.151	19.25
769.33	18.9
769.51	19.37
769.689	19.41
769.868	19.5
770.047	20.17
770.226	20.32
770.406	20.32
770.585	19.3
770.764	19.64
770.943	19.36
771.122	19.57
771.301	20.24
771.48	20.05
771.66	19.9
771.839	19.66
772.018	19.14
772.197	19.33
772.376	18.95
772.555	19.11
772.734	18.91
772.913	19.08
773.092	18.79
773.271	18.28
773.449	18.32
773.628	18.37
773.807	18.47
773.986	18.54
774.165	18.37
774.344	18.81
774.523	18.84
774.701	18.63
774.88	18.54
775.059	18.46
775.238	18.74
775.417	19.09
775.595	18.92
775.774	18.84
775.953	18.7
776.131	18.42
776.31	18.22
776.489	17.98
776.667	18.26
776.846	17.65
777.025	18.11
777.203	17.78
777.382	17.67
777.56	17.68
777.739	17.87
777.917	17.68
778.096	17.93
778.274	17.97
778.453	18.33
778.631	18.51
778.81	18.73
778.988	18.54
779.166	18.56
779.345	18.28
779.523	18.75
779.702	18.97
779.88	19.1
780.058	18.72
780.237	18.62
780.415	18.6
780.593	18.19
780.771	18.52
780.95	18.84
781.128	19.08
781.306	19.33
781.484	19.12
781.662	18.14
781.841	18.48
782.019	19.11
782.197	19.23
782.375	19.5
782.553	19.72
782.731	19.83
782.909	19.64
783.087	19.87
783.265	19.63
783.443	19.56
783.621	20.05
783.799	19.97
783.977	19.79
784.155	19.74
784.333	20.18
784.511	19.84
784.689	19.65
784.867	19.86
785.045	19.44
785.223	19.52
785.4	19.56
785.578	19.47
785.756	19.31
785.934	19.19
786.112	19.23
786.289	18.79
786.467	18.61
786.645	18.49
786.823	18.15
787	18.36
787.178	18.39
787.356	18.43
787.533	18.53
787.711	18.43
787.889	18.36
788.066	18.23
788.244	18.05
788.421	18.61
788.599	18.74
788.776	18.89
788.954	18.86
789.131	18.76
789.309	18.84
789.486	19.47
789.664	19.42
789.841	19.5
790.019	19.68
790.196	19.62
790.373	19.44
790.551	19.92
790.728	20.24
790.906	20.7
791.083	20.66
791.26	20.66
791.437	20.08
791.615	20.48
791.792	20.94
791.969	21.12
792.146	21.29
792.324	21.15
792.501	21.38
792.678	20.9
792.855	20.14
793.032	19.96
793.209	19.73
793.387	20.14
793.564	20
793.741	19.38
793.918	19.78
794.095	19.36
794.272	19.61
794.449	18.6
794.626	18.69
794.803	19.26
794.98	19.62
795.157	19.84
795.334	19.83
795.511	19.65
795.688	19.97
795.864	19.58
796.041	19.74
796.218	19.6
796.395	19.95
796.572	20
796.749	19.73
796.925	19.64
797.102	19.69
797.279	19.38
797.456	18.93
797.632	19.18
797.809	19.04
797.986	19.24
798.162	18.99
798.339	18.79
798.516	19.39
798.692	20
798.869	19.87
799.046	19.54
799.222	19.75
799.399	20.18
799.575	19.97
799.752	20.32
799.928	20.34
800.105	21.29
800.281	21.4
800.458	20.92
800.634	20.23
800.811	20.37
800.987	20.69
801.163	20.4
801.34	21.11
801.516	20.86
801.692	20.51
801.869	20.59
802.045	20.08
802.221	19.99
802.398	20
802.574	20.63
802.75	21.06
802.926	21.38
803.103	21.77
803.279	21.36
803.455	21.68
803.631	21.3
803.807	21.36
803.983	22.02
804.16	22.07
804.336	21.7
804.512	21.04
804.688	20.08
804.864	19.81
805.04	19.33
805.216	19.61
805.392	19.61
805.568	20.14
805.744	20.31
805.92	20.26
806.096	20.62
806.272	21.32
806.448	22.05
806.623	22.34
806.799	22.63
806.975	23.13
807.151	23.03
807.327	22.26
807.503	21.64
807.678	20.83
807.854	20.95
808.03	20.92
808.206	21.06
808.381	20.42
808.557	21.16
808.733	20.27
808.908	19.6
809.084	19.48
809.26	20.46
809.435	21.52
809.611	22.29
809.787	21.61
809.962	21.87
810.138	21.32
810.313	21.33
810.489	21.07
810.664	21.69
810.84	21.82
811.015	22.36
811.191	21.76
811.366	21.46
811.542	21.36
811.717	21.42
811.892	21.77
812.068	22.44
812.243	22.63
812.419	22.29
812.594	22.31
812.769	23.01
812.944	22.4
813.12	22.27
813.295	22.36
813.47	22.47
813.645	23
813.821	22.42
813.996	21.91
814.171	22.28
814.346	22.34
814.521	22.32
814.697	22.47
814.872	22.43
815.047	23.17
815.222	23.42
815.397	22.83
815.572	21.89
815.747	21.75
815.922	21.91
816.097	21.76
816.272	22.24
816.447	21.9
816.622	21.83
816.797	21.6
816.972	21.52
817.147	21.08
817.322	21.13
817.496	21.48
817.671	22.09
817.846	21.95
818.021	21.74
818.196	21.75
818.371	21.46
818.545	21.04
818.72	21.58
818.895	21.45
819.069	21.23
819.244	21.68
819.419	21.59
819.594	21.01
819.768	20.9
819.943	20.58
820.117	20.36
820.292	20.31
820.467	20.5
820.641	20.45
820.816	20.34
820.99	20.22
821.165	20.09
821.339	20.11
821.514	20.26
821.688	20.12
821.863	20.04
822.037	19.82
822.212	19.89
822.386	19.79
822.56	19.64
822.735	19.66
822.909	19.71
823.084	19.62
823.258	19.56
823.432	19.34
823.606	19.38
823.781	19.6
823.955	19.86
824.129	19.63
824.303	19.6
824.478	19.59
824.652	19.47
824.826	19.34
825	19.49
825.174	19.51
825.348	19.47
825.523	19.43
825.697	19.62
825.871	19.63
826.045	19.94
826.219	20.06
826.393	20.21
826.567	20.32
826.741	20.55
826.915	20.37
827.089	20.23
827.263	20.42
827.437	20.33
827.611	20.15
827.784	20.2
827.958	20.33
828.132	20.56
828.306	20.56
828.48	20.82
828.654	20.85
828.827	21.04
829.001	21.11
829.175	21.17
829.349	22.11
829.522	21.85
829.696	22.18
829.87	22.36
830.044	22.14
830.217	22.26
830.391	22.02
830.565	21.4
830.738	21.89
830.912	22.16
831.085	22.44
831.259	22.02
831.432	22.38
831.606	21.51
831.779	20.95
831.953	20.61
832.126	20.14
832.3	19.99
832.473	20.16
832.647	19.65
832.82	19.78
832.994	19.19
833.167	19.07
833.34	19.12
833.514	19.41
833.687	19.65
833.86	19.95
834.034	20.16
834.207	19.99
834.38	20.11
834.553	20.35
834.727	20.42
834.9	20.62
835.073	20.73
835.246	20.52
835.419	20.78
835.593	20.26
835.766	20.17
835.939	20.76
836.112	20.73
836.285	21.28
836.458	21.64
836.631	21.73
836.804	22.38
836.977	22.11
837.15	21.93
837.323	21.86
837.496	22.28
837.669	21.17
837.842	20.88
838.015	21.48
838.188	20.35
838.361	19.78
838.533	18.78
838.706	19
838.879	18.77
839.052	19.15
839.225	19.72
839.398	20.61
839.57	21.3
839.743	21.2
839.916	21.64
840.088	21.31
840.261	21.6
840.434	22.24
840.607	21.9
840.779	23.31
840.952	23.81
841.124	23.22
841.297	23.81
841.47	24.99
841.642	24.83
841.815	24.53
841.987	25.01
842.16	24.43
842.332	24.72
842.505	24.56
842.677	23.8
842.85	22.67
843.022	22.45
843.194	21.3
843.367	19.96
843.539	19.05
843.712	18.69
843.884	19.34
844.056	20.99
844.229	22.18
844.401	23.04
844.573	23.55
844.745	24.97
844.918	24.72
845.09	23.46
845.262	23.3
845.434	24.67
845.606	25.72
845.779	26.7
845.951	27.4
846.123	27.71
846.295	25.96
846.467	26.06
846.639	26.53
846.811	25.55
846.983	25.61
847.155	26.53
847.327	26.25
847.499	23.91
847.671	23.84
847.843	21.86
848.015	20.41
848.187	22.39
848.359	21.55
848.531	20.33
848.703	21.53
848.875	23.03
849.047	21.71
849.218	22.93
849.39	25.52
849.562	23.32
849.734	22.77
849.905	22.38
850.077	21.28
850.249	21.78
850.421	22.01
850.592	21.06
850.764	19.66
850.936	19.89
851.107	18.55
851.279	17.81
851.451	18.5
851.622	19.76
851.794	20.69
851.965	21.46
852.137	19.85
852.308	20.12
852.48	24.09
852.651	24.09
852.823	24.59
852.994	22.45
853.166	24.83
853.337	26.47
853.509	26.02
853.68	26.19
853.851	26.51
854.023	27.95
854.194	28.49
854.365	25.91
854.537	26.53
854.708	25.63
854.879	28.65
855.05	27.25
855.222	27.97
855.393	27.6
855.564	25.79
855.735	24.02
855.906	22.47
856.078	22.01
856.249	23.68
856.42	24.37
856.591	26.95
856.762	25.32
856.933	25.41
857.104	23.78
857.275	26.23
857.446	29.07
857.617	29.95
857.788	31.72
857.959	32.9
858.13	32.19
858.301	33.51
858.472	32.68
858.643	36.45
858.814	36.74
858.985	37.33
859.155	35.88
859.326	33.47
859.497	34.1
859.668	34.75
859.839	34.66
860.009	34.33
860.18	33.22
860.351	30.3
860.522	27.07
860.692	24.08
860.863	23
861.034	21.68
861.204	24.64
861.375	25.23
861.546	25.72
861.716	25.17
861.887	27.69
862.057	26.87
862.228	27.59
862.398	29.21
862.569	32.11
862.739	33.47
862.91	33.82
863.08	31.8
863.251	32.97
863.421	31.96
863.592	33.73
863.762	31.1
863.932	31.22
864.103	33.16
864.273	31.55
864.443	29.72
864.614	29.35
864.784	30.42
864.954	29.47
865.125	29.07
865.295	30.37
865.465	26.5
865.635	25.91
865.805	27.6
865.976	26.13
866.146	27.92
866.316	28.28
866.486	28.81
866.656	28.93
866.826	28.17
866.996	25.52
867.166	24.92
867.336	25.32
867.506	25.55
867.676	25.08
867.846	25.9
868.016	22.44
868.186	22.84
868.356	22.54
868.526	21.01
868.696	23.01
868.866	25.04
869.036	28.37
869.206	27.96
869.376	28.09
869.545	27.75
869.715	27.56
869.885	27.22
870.055	27.41
870.224	26.78
870.394	28.84
870.564	28.52
870.734	29.24
870.903	23.06
871.073	23.7
871.243	27.14
871.412	28.84
871.582	27.47
871.751	29.84
871.921	30.55
872.091	29.28
872.26	28.84
872.43	27.97
872.599	26.31
872.769	28.35
872.938	29.14
873.108	25.57
873.277	22.63
873.446	21.47
873.616	20.01
873.785	19.97
873.955	22.35
874.124	23.32
874.293	23.77
874.463	23.93
874.632	24.82
874.801	22.69
874.971	23.62
875.14	24.43
875.309	26.22
875.478	26.48
875.647	24.45
875.817	25.28
875.986	22.01
876.155	23.34
876.324	23.3
876.493	25.46
876.662	25.38
876.831	23.72
877	24.6
877.17	25.4
877.339	25.89
877.508	27.05
877.677	27.48
877.846	27.45
878.015	26.77
878.184	26.67
878.352	23.95
878.521	25.96
878.69	27.16
878.859	27.04
879.028	26.2
879.197	26.02
879.366	25.21
879.534	24.69
879.703	24.29
879.872	23.57
880.041	23.84
880.21	23.36
880.378	22.65
880.547	22.15
880.716	21.63
880.884	21.21
881.053	20.58
881.222	20.64
881.39	20.52
881.559	20.58
881.727	20.93
881.896	20.62
882.065	20.75
882.233	21.04
882.402	21.25
882.57	21.34
882.739	21.33
882.907	21.68
883.076	21.78
883.244	21.35
883.412	22
883.581	22.09
883.749	22.49
883.918	21.94
884.086	22.37
884.254	22.42
884.423	22.69
884.591	24.04
884.759	24.29
884.927	24.29
885.096	24.58
885.264	24.36
885.432	24.86
885.6	23.58
885.769	23.18
885.937	21.92
886.105	20.99
886.273	20.17
886.441	17.52
886.609	18.96
886.777	19.15
886.945	21.49
887.113	21.69
887.281	18.58
887.449	20.28
887.617	23.17
887.785	21.67
887.953	24.51
888.121	24.93
888.289	25.2
888.457	24.8
888.625	23.1
888.793	23.87
888.961	22.63
889.129	25.47
889.296	26.52
889.464	26.9
889.632	29.39
889.8	27.36
889.967	28.04
890.135	32.39
