Data from JASIL_3201_Reflection_02.txt Node
Date: Fri Nov 13 14:25:26 EST 2015
User: Geneva
Spectrometer: USB4E03002
Autoset integration time: false
Trigger mode: 4
Integration Time (sec): 1.000000E-1
Scans to average: 10
Electric dark correction enabled: false
Nonlinearity correction enabled: false
Boxcar width: 5
Stray light correction enabled: false
XAxis mode: Wavelengths
Stop averaging: false
Number of Pixels in Spectrum: 3648
>>>>>Begin Spectral Data<<<<<
177.575	167.57
177.794	181.77
178.014	176.22
178.233	160.57
178.452	155.7
178.672	157.48
178.891	161.66
179.11	161.79
179.33	149.61
179.549	157.47
179.768	168.14
179.987	169.52
180.207	161.95
180.426	163.54
180.645	198.25
180.864	197.54
181.084	206.64
181.303	189.28
181.522	179.4
181.741	205.64
181.96	198.55
182.179	177.62
182.398	192.86
182.618	187.24
182.837	183.59
183.056	156.07
183.275	159.59
183.494	153.15
183.713	163.67
183.932	156.44
184.151	145.13
184.37	137.61
184.589	137.62
184.808	142.6
185.027	151.91
185.246	156.63
185.465	173.62
185.684	169.93
185.903	160.35
186.122	155.16
186.341	166.42
186.56	171.73
186.779	176.13
186.998	181.41
187.216	164.92
187.435	150.81
187.654	153.57
187.873	148.08
188.092	148.42
188.311	147.78
188.53	154.15
188.748	153.37
188.967	151.16
189.186	141.74
189.405	135.65
189.623	130.86
189.842	144.09
190.061	131.89
190.28	133.2
190.498	138.35
190.717	140.12
190.936	123.11
191.154	127.41
191.373	132.13
191.592	138.59
191.81	136.68
192.029	131.04
192.248	130.61
192.466	136.51
192.685	129.28
192.904	127.36
193.122	131.92
193.341	148.08
193.559	142.33
193.778	135.64
193.996	129.96
194.215	132.57
194.433	146.1
194.652	143.6
194.87	149.32
195.089	154.58
195.307	154.95
195.526	164.73
195.744	173.63
195.963	164.01
196.181	157.02
196.399	174.49
196.618	176.46
196.836	172.08
197.055	170.81
197.273	169.86
197.491	181.18
197.71	178.54
197.928	174.08
198.146	164.79
198.365	178.31
198.583	182.54
198.801	170.95
199.019	163.61
199.238	180.87
199.456	186.37
199.674	181.33
199.892	177.67
200.111	189.94
200.329	190.77
200.547	196.1
200.765	196.85
200.983	199.62
201.202	184.05
201.42	203.34
201.638	176.62
201.856	160.35
202.074	155.51
202.292	140.79
202.51	127.59
202.728	122.37
202.946	119.7
203.165	126.82
203.383	133.38
203.601	139.69
203.819	146.05
204.037	149.43
204.255	146.3
204.473	154.66
204.691	169.79
204.909	187.47
205.127	202.99
205.345	240.31
205.562	205.9
205.78	193.44
205.998	185.46
206.216	170.07
206.434	170.66
206.652	184.4
206.87	181.58
207.088	174.18
207.306	161.05
207.523	154.78
207.741	145.72
207.959	150.22
208.177	144.46
208.395	147.97
208.612	144.01
208.83	127.8
209.048	121.07
209.266	122.44
209.483	124.03
209.701	123.72
209.919	120.25
210.136	116.47
210.354	129.44
210.572	129.14
210.79	135.08
211.007	129.47
211.225	142.26
211.442	148.71
211.66	147.42
211.878	155.79
212.095	89.77
212.313	91.2
212.53	88.77
212.748	83.4
212.966	86.88
213.183	83.67
213.401	85.16
213.618	87.76
213.836	88.67
214.053	88.8
214.271	85.14
214.488	154.84
214.705	165.15
214.923	163.77
215.14	162.11
215.358	165.57
215.575	155.74
215.793	171.5
216.01	168.96
216.227	172.7
216.445	160.81
216.662	158.71
216.879	139.04
217.097	132.5
217.314	143.87
217.531	151.11
217.749	151.3
217.966	157.42
218.183	151.43
218.4	150.32
218.618	149.12
218.835	182.78
219.052	174.12
219.269	184.24
219.487	179.59
219.704	177.23
219.921	191.98
220.138	215.06
220.355	201.42
220.572	199.77
220.79	190.51
221.007	190.37
221.224	166.73
221.441	176.6
221.658	176.05
221.875	185.26
222.092	159.57
222.309	146.31
222.526	140.85
222.743	148.67
222.96	148.62
223.177	153.27
223.394	144.53
223.611	155.75
223.828	148.36
224.045	138.03
224.262	139.52
224.479	157.25
224.696	164.2
224.913	159.66
225.13	163.02
225.347	158.33
225.564	157.97
225.781	159.34
225.997	151.15
226.214	147.58
226.431	155.73
226.648	149.87
226.865	135.55
227.082	120.93
227.298	111.17
227.515	101.69
227.732	97.4
227.949	91.87
228.165	92.39
228.382	89.44
228.599	92.12
228.816	89.17
229.032	84.69
229.249	89.94
229.466	90.04
229.682	90.62
229.899	95.14
230.116	98.95
230.332	102.69
230.549	99.75
230.765	94.12
230.982	92.63
231.199	95.65
231.415	101.85
231.632	102.83
231.848	99.4
232.065	97.7
232.281	98.09
232.498	100.79
232.714	100.04
232.931	109.8
233.147	112.24
233.364	113.12
233.58	110.12
233.797	110.59
234.013	105.2
234.23	113.18
234.446	119.64
234.662	115.76
234.879	105.95
235.095	106.17
235.312	100.1
235.528	97.98
235.744	100.87
235.961	102.01
236.177	97
236.393	95.4
236.61	97.64
236.826	98.86
237.042	100.56
237.258	102.15
237.475	107.6
237.691	109.97
237.907	113.77
238.123	114
238.339	110.98
238.556	109.2
238.772	105.08
238.988	102.43
239.204	101.63
239.42	101.33
239.636	100.85
239.853	94.95
240.069	85.69
240.285	86.59
240.501	78.79
240.717	78.29
240.933	78.97
241.149	79.94
241.365	76.93
241.581	73.56
241.797	74.04
242.013	72.43
242.229	72.34
242.445	77.95
242.661	76.96
242.877	78.44
243.093	74.54
243.309	73.98
243.525	74.36
243.741	71.09
243.957	68.57
244.173	63.85
244.388	62.82
244.604	60.2
244.82	56.9
245.036	50.78
245.252	49.69
245.468	47.6
245.683	46.4
245.899	42.25
246.115	42.44
246.331	42.11
246.547	40.12
246.762	39.95
246.978	41.19
247.194	39.83
247.409	43.27
247.625	43.49
247.841	46.48
248.057	49.78
248.272	51.57
248.488	55.12
248.703	56.27
248.919	62.62
249.135	66.39
249.35	66.03
249.566	69.39
249.782	67.24
249.997	73.4
250.213	73.71
250.428	70.68
250.644	74.67
250.859	70.89
251.075	71.76
251.29	69.17
251.506	70.79
251.721	72.59
251.937	73.24
252.152	77
252.368	74.73
252.583	74.69
252.798	78.12
253.014	77.03
253.229	79.43
253.445	80.02
253.66	79.43
253.875	79.28
254.091	81.16
254.306	85.06
254.521	84.41
254.737	83.35
254.952	85.84
255.167	81.12
255.383	81.57
255.598	81.68
255.813	81.92
256.028	85.04
256.244	78.43
256.459	76.65
256.674	71.11
256.889	70.31
257.104	65.86
257.32	61.5
257.535	58.07
257.75	53.31
257.965	53.51
258.18	50.67
258.395	46.79
258.61	46.73
258.826	44.33
259.041	41.86
259.256	37.94
259.471	38.89
259.686	40.53
259.901	44.08
260.116	45.47
260.331	43.66
260.546	43.17
260.761	44.6
260.976	47.93
261.191	52.05
261.406	55.38
261.621	61.77
261.836	62.73
262.05	59.37
262.265	58.39
262.48	62.13
262.695	64.93
262.91	66.82
263.125	72.4
263.34	75.63
263.555	73.46
263.769	74.07
263.984	73.09
264.199	74.91
264.414	81.24
264.629	77.49
264.843	76.43
265.058	73.44
265.273	69.42
265.488	63.9
265.702	57.79
265.917	54.81
266.132	54.43
266.346	55.55
266.561	54.13
266.776	52.6
266.99	54.44
267.205	52.68
267.42	52.48
267.634	55.94
267.849	54.84
268.063	54.46
268.278	56.95
268.492	55.55
268.707	51.87
268.922	53.26
269.136	53.75
269.351	53.69
269.565	51.46
269.78	51.15
269.994	51.76
270.209	49.96
270.423	48.89
270.637	47.93
270.852	46.61
271.066	47.7
271.281	48.13
271.495	46.93
271.709	46.14
271.924	47.13
272.138	48.53
272.353	46.58
272.567	48.81
272.781	49.95
272.996	51.14
273.21	53.42
273.424	54.34
273.638	53.42
273.853	53.33
274.067	53.36
274.281	50.98
274.495	52.61
274.71	53.41
274.924	56.18
275.138	60.03
275.352	60.9
275.566	59.63
275.781	58.17
275.995	58.61
276.209	62.43
276.423	63.05
276.637	67.36
276.851	64.4
277.065	62.01
277.279	57.79
277.493	54.35
277.707	50.82
277.921	49.16
278.135	47.96
278.349	49.95
278.563	47.68
278.777	47.95
278.991	45.86
279.205	44.25
279.419	44.31
279.633	45.06
279.847	45.05
280.061	47.92
280.275	49.55
280.489	50.58
280.703	49.11
280.917	48.18
281.131	46.21
281.344	46.97
281.558	49.82
281.772	52.01
281.986	51.72
282.2	52.74
282.414	50.02
282.627	49.3
282.841	49.74
283.055	48.08
283.269	46.35
283.482	47.29
283.696	45.07
283.91	46.06
284.123	45.15
284.337	46.47
284.551	44.66
284.764	45.59
284.978	43.58
285.192	42.65
285.405	42.65
285.619	42.13
285.833	42.2
286.046	41.53
286.26	38.31
286.473	38.46
286.687	37.99
286.9	38.22
287.114	37.56
287.327	39.91
287.541	39.46
287.754	40.05
287.968	42.53
288.181	41.96
288.395	41.82
288.608	41.41
288.822	41.82
289.035	40.6
289.248	41.03
289.462	41.99
289.675	40.63
289.889	41.89
290.102	40.23
290.315	39.39
290.529	39.1
290.742	40.09
290.955	43.9
291.169	45.32
291.382	47.93
291.595	50.01
291.808	51.48
292.022	55.29
292.235	55.5
292.448	54.62
292.661	52.03
292.875	52.52
293.088	53.13
293.301	53.21
293.514	49.93
293.727	46.83
293.94	46.46
294.153	42.36
294.367	39.05
294.58	38.61
294.793	40.05
295.006	42.16
295.219	40.84
295.432	40.41
295.645	38.98
295.858	36.86
296.071	35.88
296.284	33.56
296.497	34.62
296.71	34.67
296.923	35.27
297.136	35.08
297.349	34.66
297.562	35.23
297.775	35.21
297.988	33.82
298.201	36.19
298.414	38.6
298.626	39.3
298.839	39.92
299.052	40.73
299.265	42.54
299.478	43.48
299.691	43.9
299.903	44.55
300.116	44.71
300.329	45.96
300.542	45.75
300.755	44.73
300.967	47.87
301.18	46.65
301.393	48.56
301.605	47.11
301.818	48.54
302.031	49.98
302.243	48.34
302.456	51.24
302.669	50.81
302.881	51.64
303.094	52.16
303.307	51.74
303.519	54.59
303.732	53.38
303.944	52.32
304.157	52.02
304.37	51.25
304.582	54.45
304.795	51.96
305.007	52.38
305.22	52.32
305.432	52.55
305.645	52.49
305.857	51.07
306.069	51.12
306.282	50.48
306.494	49.19
306.707	47.95
306.919	46.24
307.132	45.04
307.344	42.97
307.556	41.12
307.769	39.72
307.981	37.08
308.193	36.37
308.406	35.72
308.618	37.35
308.83	36.91
309.043	38.67
309.255	37.11
309.467	37.96
309.679	38.69
309.892	38.52
310.104	39.8
310.316	40.06
310.528	39.98
310.74	38.47
310.953	36.2
311.165	36.46
311.377	34.21
311.589	34.87
311.801	35.35
312.013	39.79
312.225	41.04
312.437	41.11
312.649	42.87
312.862	42.98
313.074	43.62
313.286	45.21
313.498	45.75
313.71	48.37
313.922	48.97
314.134	48.7
314.346	45.2
314.558	46.12
314.77	46.6
314.982	47.57
315.193	47.15
315.405	48.09
315.617	48.52
315.829	48.11
316.041	46.09
316.253	45.52
316.465	46.92
316.677	46.86
316.888	47.39
317.1	47.9
317.312	47.16
317.524	47.03
317.736	50.46
317.947	54.9
318.159	58.26
318.371	58.83
318.583	61.2
318.794	59.24
319.006	59.34
319.218	59.49
319.43	59.52
319.641	59.54
319.853	61.02
320.064	58.07
320.276	54.92
320.488	52.7
320.699	52.66
320.911	49.65
321.123	50.16
321.334	49.42
321.546	50.9
321.757	50.92
321.969	51.13
322.18	50.65
322.392	51.98
322.603	52.28
322.815	51.08
323.026	52.9
323.238	52.76
323.449	53.52
323.661	53.07
323.872	52.13
324.083	49.65
324.295	48.09
324.506	47.91
324.718	48.43
324.929	47.22
325.14	49.07
325.352	47.07
325.563	48.76
325.774	49.9
325.986	50.82
326.197	50.72
326.408	50.9
326.62	51.16
326.831	51.94
327.042	50.43
327.253	51.97
327.464	50.74
327.676	48.4
327.887	49.03
328.098	48.88
328.309	48.91
328.52	49.86
328.732	49.36
328.943	49.2
329.154	47.83
329.365	48.81
329.576	47.08
329.787	50.04
329.998	54.46
330.209	53.87
330.42	52.1
330.631	50.67
330.842	48.55
331.053	51.43
331.264	51.58
331.475	52.23
331.686	51.06
331.897	53
332.108	50.12
332.319	47.97
332.53	45.55
332.741	46.52
332.952	47.13
333.163	47.67
333.374	44.49
333.585	44.35
333.795	43.66
334.006	43.7
334.217	40.91
334.428	41.97
334.639	43.31
334.849	45.49
335.06	43.69
335.271	46.27
335.482	46.15
335.692	46.3
335.903	46.77
336.114	47.44
336.325	49
336.535	52.31
336.746	51.11
336.957	50.94
337.167	50.5
337.378	51.22
337.589	48.52
337.799	47.72
338.01	50.14
338.22	49.04
338.431	47.52
338.642	45.66
338.852	44.98
339.063	46.88
339.273	46.68
339.484	45.27
339.694	45.23
339.905	44.84
340.115	45.58
340.326	43.26
340.536	42.96
340.746	42.58
340.957	41.81
341.167	40.57
341.378	39.06
341.588	40.67
341.799	42.01
342.009	42.07
342.219	41.43
342.43	41.73
342.64	41.83
342.85	42.35
343.061	42.83
343.271	43.77
343.481	42.47
343.691	42.49
343.902	40.39
344.112	38.02
344.322	37.39
344.532	37.87
344.743	36.64
344.953	37.87
345.163	39.2
345.373	38.95
345.583	39.36
345.793	38.76
346.004	41.03
346.214	40.47
346.424	42.64
346.634	42.79
346.844	42.79
347.054	43.22
347.264	44.01
347.474	41.35
347.684	39.99
347.894	40.53
348.104	41.8
348.314	38.66
348.524	38.68
348.734	38.08
348.944	37.76
349.154	38.16
349.364	38.37
349.574	34.26
349.784	35.26
349.994	37.97
350.204	37.47
350.413	37.29
350.623	36.57
350.833	35.31
351.043	34.64
351.253	33.84
351.463	34.56
351.672	33.5
351.882	36.08
352.092	35.5
352.302	33.98
352.511	34.01
352.721	32.4
352.931	33.33
353.141	34.9
353.35	35.18
353.56	37.07
353.77	38.16
353.979	36.94
354.189	36.61
354.399	38.19
354.608	39.05
354.818	38.16
355.027	40
355.237	39.65
355.447	38.6
355.656	38.49
355.866	36.24
356.075	35.72
356.285	36.37
356.494	36
356.704	36.18
356.913	35.4
357.123	34.97
357.332	33.52
357.542	33.33
357.751	33.82
357.96	33.13
358.17	33.25
358.379	32.22
358.589	32.66
358.798	31.69
359.007	30.94
359.217	31.45
359.426	31.32
359.635	32.29
359.845	32.35
360.054	31.95
360.263	32.64
360.472	33.07
360.682	32.69
360.891	32.11
361.1	32.09
361.309	31.13
361.519	31.18
361.728	31.06
361.937	30.89
362.146	31.07
362.355	30.89
362.564	31.59
362.774	31.85
362.983	31.75
363.192	31.47
363.401	33.05
363.61	32.76
363.819	33.12
364.028	34.73
364.237	34.32
364.446	33.89
364.655	33.17
364.864	32.99
365.073	33.55
365.282	34.3
365.491	35.2
365.7	33.85
365.909	34.92
366.118	35
366.327	34.39
366.536	35.58
366.745	36.05
366.954	37.28
367.162	36.73
367.371	36.2
367.58	36.43
367.789	35.79
367.998	37.37
368.207	37.34
368.415	36.48
368.624	36.19
368.833	34.59
369.042	34.09
369.25	34.51
369.459	34.48
369.668	34.8
369.877	34.69
370.085	34.6
370.294	33.29
370.503	33.64
370.711	34.04
370.92	33.7
371.129	34.11
371.337	33.24
371.546	32.53
371.754	33.05
371.963	31.88
372.171	30.78
372.38	32.05
372.589	31.82
372.797	30.26
373.006	29.38
373.214	28.49
373.423	28.62
373.631	30.37
373.84	30.3
374.048	29.79
374.256	30.88
374.465	33.08
374.673	32.25
374.882	33.18
375.09	33.64
375.298	34
375.507	34.53
375.715	34.93
375.923	33.36
376.132	33.31
376.34	33.5
376.548	33.42
376.757	32.2
376.965	31.77
377.173	30.95
377.381	31.64
377.59	31.93
377.798	31.13
378.006	29.91
378.214	31.29
378.423	31.75
378.631	30.2
378.839	31.04
379.047	31.54
379.255	31.79
379.463	31.79
379.671	32.98
379.879	33.19
380.088	34.08
380.296	34.91
380.504	34.85
380.712	34.67
380.92	35.03
381.128	33.23
381.336	32.79
381.544	32.77
381.752	32.53
381.96	31.51
382.168	33.4
382.376	32.65
382.584	32.08
382.791	31.64
382.999	30.88
383.207	30.94
383.415	32.93
383.623	32.22
383.831	32.97
384.039	33.38
384.247	32.66
384.454	30.97
384.662	32.94
384.87	32.8
385.078	32.65
385.285	33.06
385.493	33.94
385.701	33.95
385.909	33.88
386.116	33.22
386.324	32.79
386.532	33.32
386.739	33.45
386.947	32.8
387.155	33.87
387.362	34.45
387.57	35.24
387.778	34.17
387.985	32.71
388.193	33.09
388.4	34.21
388.608	34.45
388.816	32.94
389.023	31.55
389.231	31.02
389.438	30.28
389.646	30.35
389.853	29.69
390.061	30.51
390.268	29.75
390.475	29.74
390.683	28.03
390.89	27.59
391.098	28.43
391.305	29.5
391.512	29.91
391.72	30.37
391.927	29
392.135	28.56
392.342	28.39
392.549	29.97
392.756	29.87
392.964	29.92
393.171	30.47
393.378	30.44
393.586	30.52
393.793	30.53
394	29.37
394.207	30.38
394.414	31.05
394.622	30.96
394.829	30
395.036	29.86
395.243	30.62
395.45	31.05
395.657	31.16
395.864	31.92
396.072	30.97
396.279	31.47
396.486	31.48
396.693	31.17
396.9	30.59
397.107	30.45
397.314	30.83
397.521	30.51
397.728	29.62
397.935	29.04
398.142	27.53
398.349	28.91
398.556	29.19
398.763	29.7
398.97	29.24
399.177	30.34
399.383	29.7
399.59	29.1
399.797	30.06
400.004	30.43
400.211	30.88
400.418	31.27
400.625	31.11
400.831	31.31
401.038	30.53
401.245	31.1
401.452	31.43
401.658	32.29
401.865	32.67
402.072	32.24
402.279	32.41
402.485	30.81
402.692	30.76
402.899	30.55
403.105	29.77
403.312	30.48
403.519	30.3
403.725	30.01
403.932	30.35
404.138	30.42
404.345	30.69
404.552	29.81
404.758	31
404.965	30.97
405.171	30.97
405.378	32.43
405.584	32.34
405.791	33.33
405.997	33.96
406.204	33.8
406.41	33.5
406.617	33.29
406.823	34.01
407.029	34.22
407.236	34.9
407.442	34.83
407.649	34.91
407.855	34.31
408.061	32.74
408.268	32.42
408.474	33.52
408.68	34.12
408.887	33.91
409.093	34.19
409.299	34.69
409.505	34.14
409.712	34.26
409.918	33.12
410.124	33.31
410.33	34.18
410.537	34.25
410.743	34.38
410.949	34.59
411.155	35.07
411.361	35.44
411.567	35.93
411.773	36.27
411.98	36.56
412.186	37.5
412.392	38.05
412.598	37.69
412.804	37.69
413.01	35.18
413.216	35.65
413.422	35.52
413.628	34.31
413.834	34.09
414.04	33.76
414.246	33.62
414.452	33.06
414.658	33.04
414.864	33.05
415.07	33.18
415.275	34.15
415.481	33.54
415.687	33.1
415.893	33.56
416.099	32.96
416.305	33.14
416.511	32.73
416.716	32.25
416.922	31.78
417.128	31.47
417.334	31.13
417.539	30.49
417.745	30.07
417.951	29.34
418.157	29.35
418.362	28.71
418.568	28.2
418.774	27.79
418.979	27.93
419.185	27.4
419.391	27.77
419.596	27.61
419.802	27.37
420.008	27.26
420.213	27.7
420.419	27.46
420.624	27.6
420.83	27.84
421.035	27.67
421.241	27.7
421.446	27.71
421.652	27.52
421.857	26.95
422.063	27.38
422.268	27.19
422.474	27.14
422.679	26.94
422.885	27.19
423.09	26.92
423.295	27.16
423.501	27.29
423.706	27.34
423.911	26.85
424.117	26.98
424.322	27.29
424.527	28.02
424.733	27.93
424.938	28.21
425.143	28.79
425.349	28.87
425.554	28.7
425.759	29.11
425.964	29.35
426.169	29.99
426.375	30.81
426.58	30.86
426.785	30.53
426.99	31.26
427.195	31.86
427.4	31.49
427.605	31.74
427.811	33.11
428.016	32.21
428.221	33.19
428.426	32.57
428.631	32.16
428.836	32.22
429.041	32.33
429.246	31.69
429.451	31.13
429.656	31.53
429.861	31.85
430.066	31.87
430.271	32.9
430.476	31.84
430.681	32.57
430.886	32.26
431.09	31.65
431.295	31.5
431.5	31.59
431.705	31.76
431.91	31.08
432.115	30.97
432.32	30.27
432.524	29.45
432.729	29.71
432.934	29.66
433.139	29.67
433.343	29.91
433.548	29.82
433.753	30.03
433.958	29.94
434.162	30.15
434.367	29.93
434.572	30.15
434.776	30.3
434.981	29.86
435.186	29.75
435.39	29.95
435.595	30.51
435.799	30.41
436.004	30.57
436.209	31.51
436.413	31.32
436.618	31.48
436.822	31.16
437.027	30.76
437.231	31.6
437.436	30.85
437.64	30.33
437.845	29.92
438.049	30.83
438.253	30.68
438.458	29.92
438.662	29.82
438.867	29.52
439.071	29.19
439.275	29.47
439.48	29.04
439.684	29.06
439.888	29.59
440.093	29.29
440.297	28.33
440.501	28.37
440.706	28.47
440.91	28.62
441.114	28.64
441.318	28.84
441.523	29.26
441.727	29.79
441.931	30.4
442.135	30.19
442.339	30.62
442.543	31.46
442.748	31.2
442.952	31.29
443.156	31.53
443.36	31.77
443.564	32.19
443.768	32.19
443.972	31.67
444.176	31.14
444.38	30.76
444.584	30.8
444.788	30.08
444.992	30.39
445.196	30.13
445.4	29.6
445.604	29.17
445.808	28.91
446.012	28.57
446.216	28.37
446.42	28.83
446.624	29.62
446.828	29.85
447.032	30.06
447.235	29.93
447.439	29.64
447.643	29.99
447.847	30.59
448.051	31.25
448.254	31.56
448.458	31.97
448.662	32.25
448.866	32.09
449.069	32.12
449.273	32.24
449.477	32.09
449.681	33.07
449.884	33.72
450.088	33.61
450.292	33.34
450.495	33.44
450.699	34.1
450.902	34.19
451.106	34.12
451.31	34.15
451.513	34.46
451.717	34.65
451.92	33.92
452.124	33.21
452.327	33.32
452.531	32.88
452.734	32.83
452.938	32.13
453.141	31.97
453.345	32.07
453.548	31.88
453.752	31.69
453.955	32.18
454.158	32.92
454.362	33.12
454.565	33.32
454.769	34.12
454.972	34.44
455.175	34.45
455.379	34.93
455.582	34.75
455.785	34.74
455.988	35.1
456.192	35.32
456.395	34.98
456.598	35.16
456.801	35.09
457.005	34.53
457.208	33.62
457.411	33.53
457.614	32.29
457.817	31.75
458.021	31.14
458.224	30.57
458.427	29.28
458.63	29.17
458.833	28.58
459.036	28.07
459.239	28.11
459.442	28.32
459.645	28.5
459.848	28.62
460.051	28.86
460.254	29.12
460.457	29.42
460.66	30.29
460.863	30.44
461.066	30.7
461.269	30.99
461.472	31.28
461.675	31.58
461.878	31.37
462.081	32.05
462.284	32.54
462.486	32.71
462.689	32.64
462.892	32.7
463.095	32.4
463.298	32.59
463.5	33.3
463.703	33.1
463.906	33.13
464.109	33.57
464.311	34.1
464.514	34.51
464.717	34.69
464.92	34.59
465.122	34.47
465.325	34.96
465.528	35.45
465.73	35.13
465.933	34.89
466.135	34.83
466.338	34.14
466.541	33.45
466.743	32.57
466.946	32.41
467.148	32.78
467.351	33
467.553	32.92
467.756	33.08
467.958	32.42
468.161	32.04
468.363	32.13
468.566	32.42
468.768	32.97
468.971	33.7
469.173	34.44
469.375	34.08
469.578	34.02
469.78	34.13
469.983	33.99
470.185	34.94
470.387	35.29
470.59	35.4
470.792	35.61
470.994	35.11
471.196	34.38
471.399	34.47
471.601	34.52
471.803	34.06
472.005	33.97
472.208	33.36
472.41	33.32
472.612	33.51
472.814	33.15
473.016	33.59
473.218	34.36
473.421	34.9
473.623	34.09
473.825	34.45
474.027	34.94
474.229	34.98
474.431	35.48
474.633	35.48
474.835	35.83
475.037	35.89
475.239	35.5
475.441	35.11
475.643	34.92
475.845	34.94
476.047	34.58
476.249	34.87
476.451	34.74
476.653	34.65
476.855	34.31
477.057	34.43
477.258	34.01
477.46	33.86
477.662	34.08
477.864	33.73
478.066	33.52
478.268	33.9
478.469	33.3
478.671	33.05
478.873	32.82
479.075	32.83
479.276	32.52
479.478	32.78
479.68	32.55
479.882	32.04
480.083	32
480.285	32.02
480.487	31.66
480.688	31.26
480.89	30.87
481.091	30.25
481.293	29.76
481.495	28.92
481.696	28.35
481.898	27.64
482.099	27.03
482.301	26.53
482.502	26.07
482.704	25.52
482.905	25.15
483.107	24.87
483.308	24.71
483.51	24.41
483.711	24.32
483.913	24.25
484.114	24.46
484.315	24.44
484.517	24.43
484.718	24.47
484.92	24.51
485.121	24.65
485.322	24.69
485.524	24.81
485.725	25.19
485.926	25.25
486.127	25.33
486.329	25.08
486.53	25.06
486.731	25.1
486.932	25.04
487.134	25.07
487.335	25.11
487.536	25.21
487.737	25.3
487.938	25.42
488.139	25.64
488.341	25.66
488.542	26.1
488.743	26.69
488.944	27.01
489.145	27.34
489.346	27.61
489.547	27.83
489.748	28.19
489.949	28.48
490.15	28.33
490.351	28.21
490.552	28.32
490.753	28.02
490.954	27.74
491.155	27.75
491.356	27.61
491.557	27.74
491.758	27.94
491.959	28.03
492.159	27.96
492.36	28.17
492.561	28.65
492.762	29.04
492.963	29.82
493.164	30.55
493.364	31
493.565	31.85
493.766	32.53
493.967	32.96
494.167	33.61
494.368	33.67
494.569	33.73
494.769	33.69
494.97	34.1
495.171	34.39
495.371	34.02
495.572	33.76
495.773	33.49
495.973	32.87
496.174	32.88
496.375	32.25
496.575	32.85
496.776	33.08
496.976	33.13
497.177	33.03
497.377	32.8
497.578	32.85
497.778	32.9
497.979	33.19
498.179	33.8
498.38	33.69
498.58	34.15
498.78	34.25
498.981	34.15
499.181	34.53
499.382	34.75
499.582	34.43
499.782	34.45
499.983	34.85
500.183	35.05
500.383	34.78
500.584	34.99
500.784	34.79
500.984	34.52
501.184	34.32
501.385	33.98
501.585	33.62
501.785	34.03
501.985	34.39
502.185	34.48
502.386	34.6
502.586	34.29
502.786	34.41
502.986	33.76
503.186	33.86
503.386	33.98
503.586	34.22
503.786	34.49
503.987	33.94
504.187	33.74
504.387	33.81
504.587	33.17
504.787	33.59
504.987	33.89
505.187	34.93
505.387	34.86
505.587	35.56
505.786	35.03
505.986	34.59
506.186	34.66
506.386	34.53
506.586	34.23
506.786	34.52
506.986	34.78
507.186	34.44
507.386	34.42
507.585	34.23
507.785	33.61
507.985	33.58
508.185	33.74
508.384	34.11
508.584	34.03
508.784	34.3
508.984	34.01
509.183	33.89
509.383	34.18
509.583	34.11
509.782	34
509.982	34.44
510.182	34.68
510.381	35.01
510.581	34.91
510.781	35.35
510.98	35.7
511.18	36.05
511.379	35.73
511.579	35.14
511.778	34.87
511.978	35.34
512.177	34.84
512.377	34.6
512.576	34.31
512.776	34.45
512.975	34.39
513.175	34.22
513.374	34.4
513.573	35.07
513.773	35.34
513.972	36.09
514.172	36.15
514.371	36.79
514.57	37.72
514.77	38.39
514.969	38.24
515.168	38.54
515.367	38.25
515.567	38.01
515.766	37.38
515.965	37.4
516.164	37.54
516.364	37.05
516.563	36.58
516.762	35.71
516.961	35.18
517.16	34.92
517.359	34.38
517.559	34.33
517.758	34.23
517.957	34.24
518.156	34.13
518.355	33.43
518.554	33.63
518.753	33.62
518.952	34.05
519.151	34.1
519.35	34.73
519.549	35.23
519.748	35.75
519.947	36.23
520.146	36.73
520.345	36.84
520.544	37.21
520.743	37.67
520.942	38.26
521.141	38.28
521.339	38.73
521.538	39.04
521.737	39.19
521.936	38.97
522.135	38.66
522.333	38.2
522.532	38.73
522.731	38.68
522.93	38.18
523.129	37.55
523.327	37.42
523.526	36.84
523.725	36.33
523.923	35.72
524.122	35.53
524.321	35.18
524.519	35.48
524.718	35.11
524.917	35.17
525.115	35.35
525.314	35.35
525.512	35.29
525.711	35.13
525.909	34.44
526.108	34.03
526.306	33.59
526.505	33.45
526.703	33.12
526.902	32.66
527.1	32.18
527.299	31.75
527.497	31.48
527.696	30.99
527.894	30.76
528.092	30.97
528.291	31.16
528.489	31.27
528.688	31.37
528.886	31.48
529.084	32.03
529.283	32.36
529.481	32.74
529.679	33.27
529.877	34.08
530.076	34.8
530.274	35.32
530.472	35.6
530.67	35.79
530.869	35.99
531.067	36.05
531.265	35.88
531.463	35.94
531.661	35.65
531.859	35.53
532.057	35.29
532.255	35.12
532.454	35.04
532.652	35.1
532.85	35.46
533.048	35.63
533.246	35.59
533.444	35.72
533.642	36.01
533.84	36.57
534.038	36.87
534.236	37.16
534.434	37.74
534.632	38.05
534.83	38.21
535.027	38.11
535.225	38.12
535.423	38.52
535.621	38.67
535.819	38.36
536.017	38.14
536.215	38.35
536.412	38.52
536.61	38.55
536.808	38.88
537.006	39.52
537.203	39.99
537.401	40.39
537.599	40.72
537.797	40.78
537.994	41.23
538.192	41.57
538.39	41.47
538.587	41.08
538.785	40.88
538.983	40.82
539.18	40.08
539.378	39.67
539.575	39.21
539.773	38.6
539.97	38.06
540.168	37.9
540.366	37.85
540.563	37.42
540.761	37.62
540.958	37.51
541.155	37.19
541.353	37.3
541.55	37.42
541.748	37.73
541.945	37.87
542.143	38.33
542.34	38.57
542.537	38.83
542.735	39.36
542.932	39.67
543.129	40.09
543.327	40.62
543.524	40.96
543.721	41.31
543.919	41.68
544.116	42.26
544.313	42.6
544.51	42.81
544.708	42.84
544.905	42.98
545.102	43.22
545.299	43.22
545.496	43.05
545.693	43.33
545.891	43.11
546.088	43.16
546.285	43.15
546.482	43.19
546.679	43.48
546.876	43.73
547.073	44.41
547.27	44.48
547.467	44.84
547.664	45.51
547.861	46.14
548.058	46.93
548.255	47.49
548.452	48.25
548.649	49.08
548.846	49.46
549.043	49.74
549.24	49.77
549.437	49.93
549.633	50.25
549.83	50.27
550.027	50.25
550.224	49.88
550.421	49.91
550.618	49.62
550.814	49.07
551.011	48.78
551.208	48.75
551.405	48.47
551.601	48.79
551.798	49.11
551.995	49.31
552.191	48.92
552.388	49.36
552.585	49.26
552.781	49.83
552.978	50.46
553.175	50.98
553.371	51.06
553.568	51.72
553.764	52.1
553.961	51.95
554.157	52.04
554.354	52.3
554.55	52.56
554.747	53.21
554.943	53.52
555.14	53.98
555.336	53.98
555.533	54.64
555.729	55.12
555.926	54.98
556.122	55.51
556.318	55.69
556.515	56.16
556.711	55.81
556.907	56.24
557.104	56.29
557.3	56.04
557.496	56.03
557.693	55.62
557.889	54.97
558.085	54.92
558.281	54.57
558.478	55.01
558.674	54.52
558.87	55.18
559.066	53.85
559.262	53.78
559.459	53.47
559.655	53.63
559.851	53.87
560.047	54.06
560.243	54.48
560.439	54.52
560.635	54.69
560.831	55.19
561.027	54.74
561.223	55.3
561.419	54.77
561.615	54.79
561.811	55.29
562.007	55.69
562.203	55.77
562.399	55.7
562.595	55.92
562.791	55.47
562.987	54.95
563.183	54.84
563.379	54.72
563.575	55.2
563.771	55.36
563.966	54.47
564.162	54.63
564.358	54.66
564.554	54.31
564.75	53.67
564.945	53.27
565.141	53.57
565.337	53.58
565.533	54.03
565.728	53.38
565.924	52.97
566.12	53.23
566.315	53.09
566.511	53.14
566.707	53.26
566.902	53.71
567.098	54.41
567.293	54.24
567.489	54.85
567.684	55.23
567.88	55.79
568.076	56.6
568.271	56.76
568.467	56.7
568.662	56.15
568.858	56.09
569.053	56.01
569.248	55.87
569.444	55.84
569.639	55.23
569.835	54.72
570.03	54.62
570.225	53.67
570.421	53.59
570.616	53.1
570.812	53.31
571.007	53.21
571.202	52.78
571.397	52.61
571.593	52.44
571.788	52.53
571.983	52
572.178	52.21
572.374	52.39
572.569	52.18
572.764	52.98
572.959	52.8
573.154	53.27
573.35	53.83
573.545	53.91
573.74	54.39
573.935	54.95
574.13	55.58
574.325	55.35
574.52	55.61
574.715	56.19
574.91	55.66
575.105	56.52
575.3	56.56
575.495	56.68
575.69	56.95
575.885	56.92
576.08	57.12
576.275	57.72
576.47	57.99
576.665	58.19
576.86	57.84
577.055	57.97
577.25	58
577.444	58.46
577.639	58.18
577.834	58.61
578.029	59.82
578.224	59.85
578.418	58.81
578.613	58.54
578.808	58.91
579.003	59.37
579.197	59.73
579.392	59.95
579.587	59.75
579.781	60.54
579.976	60.39
580.171	59.62
580.365	60.19
580.56	61.6
580.755	62.76
580.949	63.01
581.144	63.39
581.338	63.75
581.533	63.78
581.727	64.48
581.922	65.1
582.116	65.58
582.311	66
582.505	65.94
582.7	65.89
582.894	65.58
583.089	65.67
583.283	66.54
583.478	66.72
583.672	66.42
583.866	66.23
584.061	65.8
584.255	65.27
584.449	65.46
584.644	65.15
584.838	65.42
585.032	64.91
585.226	64.93
585.421	64.59
585.615	64.4
585.809	65.12
586.003	64.9
586.198	64.8
586.392	64.65
586.586	64.36
586.78	64.24
586.974	63.5
587.168	63.94
587.363	64.09
587.557	63.6
587.751	63.5
587.945	62.83
588.139	63.36
588.333	63.21
588.527	63.89
588.721	63.32
588.915	63.41
589.109	62.79
589.303	63.02
589.497	63.16
589.691	63.78
589.885	64.04
590.079	64.19
590.273	63.43
590.466	63.9
590.66	63.55
590.854	64.29
591.048	64.02
591.242	64.54
591.436	65.16
591.629	65.12
591.823	64.54
592.017	64.15
592.211	64.19
592.404	64.37
592.598	64.09
592.792	64.38
592.986	64.59
593.179	64.83
593.373	64.95
593.567	64.75
593.76	64.08
593.954	63.63
594.147	63.64
594.341	63.5
594.535	62.89
594.728	62.56
594.922	61.81
595.115	60.72
595.309	60.84
595.502	60.77
595.696	60.52
595.889	60.46
596.083	60.3
596.276	60.53
596.47	61.06
596.663	61.12
596.856	61.01
597.05	61.22
597.243	62.02
597.437	61.79
597.63	62.41
597.823	62.67
598.017	63.19
598.21	64.46
598.403	65.24
598.596	65.52
598.79	66.05
598.983	66.85
599.176	68.02
599.369	68.54
599.563	69.52
599.756	70.11
599.949	69.68
600.142	70.41
600.335	69.58
600.528	69.2
600.722	68.71
600.915	69.18
601.108	68.91
601.301	68.12
601.494	67.49
601.687	66.78
601.88	65.53
602.073	65.47
602.266	65.09
602.459	65.09
602.652	64.29
602.845	63.71
603.038	63.46
603.231	63.15
603.424	63.05
603.617	62.4
603.809	62
604.002	61.69
604.195	61.15
604.388	61.14
604.581	61.31
604.774	61.97
604.966	62.17
605.159	62.43
605.352	62.94
605.545	63.42
605.737	64.56
605.93	65.05
606.123	66.93
606.316	68.25
606.508	68.46
606.701	68.79
606.894	69.04
607.086	69.43
607.279	70.3
607.471	70.9
607.664	70.74
607.857	70.18
608.049	70.01
608.242	69.14
608.434	68.29
608.627	67.68
608.819	67.31
609.012	66.92
609.204	66.85
609.397	66.06
609.589	66.28
609.782	66.67
609.974	67.5
610.166	68.7
610.359	69.22
610.551	69.85
610.743	70.82
610.936	71.5
611.128	72.22
611.32	73.21
611.513	73.25
611.705	72.96
611.897	72.88
612.09	73.59
612.282	73.24
612.474	73.93
612.666	74.84
612.858	74.96
613.051	75.3
613.243	75.19
613.435	76.3
613.627	76.65
613.819	77.17
614.011	78.16
614.203	77.4
614.395	77.63
614.588	77.24
614.78	77.87
614.972	78.51
615.164	78.58
615.356	78.04
615.548	77.44
615.74	77.43
615.932	77.15
616.124	76.22
616.315	76.92
616.507	76.93
616.699	77.31
616.891	76.78
617.083	76.75
617.275	76.41
617.467	77.81
617.659	77.72
617.85	78.88
618.042	79.68
618.234	80.77
618.426	80.49
618.618	80.75
618.809	80.5
619.001	81.14
619.193	82.02
619.384	82.56
619.576	82.62
619.768	82.07
619.959	80.83
620.151	80.69
620.343	80
620.534	80.51
620.726	80.76
620.917	81.53
621.109	81.7
621.301	81.95
621.492	82.5
621.684	82.82
621.875	84.26
622.067	85.37
622.258	85.31
622.45	85.27
622.641	84.19
622.832	82.99
623.024	82.28
623.215	81
623.407	79.81
623.598	79.66
623.789	78.86
623.981	78.04
624.172	77.06
624.363	76.96
624.555	77.24
624.746	77.64
624.937	77.27
625.129	77.22
625.32	76.93
625.511	77.14
625.702	75.99
625.893	75.48
626.085	74.93
626.276	75.31
626.467	74.34
626.658	73.78
626.849	74.38
627.04	74.67
627.231	74.53
627.422	75.49
627.614	75.16
627.805	75.99
627.996	77.03
628.187	77.87
628.378	78.04
628.569	78.17
628.76	78.8
628.951	79.16
629.142	79.26
629.332	79.71
629.523	79.31
629.714	80.55
629.905	81.45
630.096	81.72
630.287	81.93
630.478	81.85
630.669	83.52
630.859	84.34
631.05	84.08
631.241	85.46
631.432	86.21
631.623	87.27
631.813	85.54
632.004	85.76
632.195	85.53
632.385	86.45
632.576	85.99
632.767	85.79
632.957	85.55
633.148	85.52
633.339	85.34
633.529	85.05
633.72	84.43
633.91	85.37
634.101	84.65
634.292	85.7
634.482	84.85
634.673	86.48
634.863	86.76
635.054	86.29
635.244	86.47
635.435	85.98
635.625	85.45
635.815	85.31
636.006	85.52
636.196	86.8
636.387	85.83
636.577	86.02
636.767	86.62
636.958	86.15
637.148	86.27
637.338	85.35
637.529	86.27
637.719	87.23
637.909	88.13
638.099	87.2
638.29	86.53
638.48	85.89
638.67	86.41
638.86	85.33
639.05	85.6
639.241	86.26
639.431	88.05
639.621	88.5
639.811	88.17
640.001	87.43
640.191	88.05
640.381	88
640.571	89.6
640.761	89.15
640.951	89.93
641.141	90.34
641.331	91.18
641.521	91.23
641.711	91.44
641.901	92.17
642.091	94.3
642.281	94.31
642.471	94
642.661	93.52
642.851	94.86
643.041	93.99
643.231	93.22
643.42	92.37
643.61	92.41
643.8	92.05
643.99	92.85
644.18	92.88
644.369	93.41
644.559	95.07
644.749	94.13
644.939	93.41
645.128	93.68
645.318	94.25
645.508	93.65
645.697	93.22
645.887	93.41
646.076	91.83
646.266	90.97
646.456	91.5
646.645	90.54
646.835	91.99
647.024	91.99
647.214	92.41
647.403	92.69
647.593	93.69
647.782	93.25
647.972	92.71
648.161	92.57
648.351	91.62
648.54	91.35
648.73	91.31
648.919	90.18
649.108	90.08
649.298	90.2
649.487	89.84
649.677	88.66
649.866	88.19
650.055	88.87
650.244	89.82
650.434	90.01
650.623	91.02
650.812	91.35
651.002	91.68
651.191	90.84
651.38	90.95
651.569	91.32
651.758	91.98
651.947	91.71
652.137	91.41
652.326	91.09
652.515	92.35
652.704	91.21
652.893	90.71
653.082	90.34
653.271	91.49
653.46	90.59
653.649	90.13
653.838	90.19
654.027	91.28
654.216	91.94
654.405	91.77
654.594	91.75
654.783	91.76
654.972	91.17
655.161	92.39
655.35	92.22
655.539	93.3
655.728	92.63
655.916	93.02
656.105	93.8
656.294	93.43
656.483	93.9
656.672	92.33
656.86	91.7
657.049	91.97
657.238	90.45
657.427	90.38
657.615	90.71
657.804	90.41
657.993	89.47
658.181	88.03
658.37	87.14
658.559	86.65
658.747	87.21
658.936	87.71
659.125	85.59
659.313	85.88
659.502	85.9
659.69	85
659.879	86.44
660.067	87.39
660.256	88.05
660.444	88.76
660.633	89.54
660.821	89.52
661.01	89.73
661.198	93.35
661.387	95.19
661.575	95.49
661.763	96.31
661.952	95.68
662.14	95.49
662.328	94.99
662.517	96.45
662.705	95.59
662.893	96.51
663.082	96.38
663.27	96.56
663.458	96.75
663.646	98.09
663.834	97.85
664.023	99.19
664.211	101.27
664.399	103.17
664.587	102.61
664.775	104.47
664.963	104.74
665.152	105.32
665.34	104.47
665.528	104.67
665.716	104.17
665.904	105.28
666.092	105.16
666.28	104.43
666.468	103.42
666.656	102.48
666.844	101.47
667.032	101.47
667.22	102.16
667.408	102.21
667.596	102.37
667.784	102.28
667.971	102.34
668.159	102.7
668.347	103.18
668.535	103.75
668.723	105.42
668.911	105.56
669.098	105.53
669.286	104.09
669.474	104.06
669.662	103.93
669.849	103.68
670.037	103.2
670.225	102.61
670.413	102.75
670.6	102.25
670.788	101.32
670.976	100.67
671.163	99.83
671.351	101.81
671.538	102.99
671.726	102.3
671.913	101.21
672.101	100.41
672.289	100.11
672.476	99.43
672.664	100.54
672.851	101.48
673.039	102.86
673.226	103.2
673.413	102.31
673.601	102.43
673.788	101.99
673.976	103.33
674.163	104.67
674.35	105.79
674.538	105.17
674.725	106.04
674.912	105.93
675.1	106.63
675.287	108.84
675.474	109.73
675.662	109.88
675.849	110.81
676.036	110.95
676.223	110.86
676.411	110.35
676.598	109.95
676.785	109.21
676.972	108.25
677.159	105.56
677.346	104.49
677.533	103.45
677.721	103.05
677.908	102.53
678.095	101.28
678.282	99.75
678.469	99.34
678.656	99.12
678.843	98.28
679.03	97.85
679.217	98.52
679.404	98.58
679.591	98.55
679.778	97.73
679.964	97.78
680.151	99
680.338	98.86
680.525	97.88
680.712	98.46
680.899	98.58
681.086	98.44
681.272	99.1
681.459	98.68
681.646	98.64
681.833	98.16
682.02	98.26
682.206	97.09
682.393	98.27
682.58	99.12
682.766	100.43
682.953	100.93
683.14	101.87
683.326	100.7
683.513	101.33
683.7	102.07
683.886	103.91
684.073	104.51
684.259	104.59
684.446	104.59
684.632	104.86
684.819	104.9
685.005	105.05
685.192	104.46
685.378	105.19
685.565	103.07
685.751	102.69
685.938	99.87
686.124	98.65
686.31	98.44
686.497	97.51
686.683	97.37
686.87	95.7
687.056	94.59
687.242	94.85
687.429	95.41
687.615	97.18
687.801	96
687.987	97.97
688.174	97.7
688.36	100.23
688.546	100.63
688.732	100.66
688.918	100.32
689.105	100.95
689.291	100.5
689.477	100.08
689.663	99.44
689.849	101.17
690.035	101.51
690.221	102.14
690.407	101.11
690.593	102.36
690.779	103.07
690.965	103.93
691.151	104.61
691.337	103.91
691.523	103.16
691.709	103.89
691.895	103.49
692.081	102.32
692.267	101.2
692.453	99.54
692.639	100.05
692.825	100.58
693.011	101.92
693.196	103.16
693.382	106.38
693.568	108.04
693.754	107.82
693.94	108.21
694.125	108.69
694.311	112.62
694.497	115
694.682	114.88
694.868	113.46
695.054	113
695.239	110.92
695.425	109.17
695.611	107.62
695.796	107.59
695.982	107.63
696.168	107.4
696.353	104.4
696.539	102.65
696.724	100.92
696.91	98.21
697.095	98.35
697.281	96.31
697.466	95.28
697.652	94.57
697.837	94
698.023	92.53
698.208	91.43
698.393	90.76
698.579	89.92
698.764	89.45
698.949	90.04
699.135	88.61
699.32	90.28
699.505	91.02
699.691	92.61
699.876	92.37
700.061	91.72
700.246	93.11
700.432	94.22
700.617	97.46
700.802	100.75
700.987	103.78
701.172	106.55
701.358	108.84
701.543	108.79
701.728	107.67
701.913	107.9
702.098	109.81
702.283	112.13
702.468	112.67
702.653	111.73
702.838	111.28
703.023	110.31
703.208	110.19
703.393	107.46
703.578	108.72
703.763	110.64
703.948	111.72
704.133	113.85
704.318	113.14
704.503	115.32
704.688	118.12
704.873	117.58
705.057	117.88
705.242	118.06
705.427	117.88
705.612	116.46
705.797	116.6
705.981	118.75
706.166	119.6
706.351	121.3
706.536	119.95
706.72	118.79
706.905	119.14
707.09	119.53
707.274	120.39
707.459	121.31
707.644	122.24
707.828	122.57
708.013	120.76
708.197	118.14
708.382	115.01
708.567	115.35
708.751	116.75
708.936	116.64
709.12	117.81
709.305	114.89
709.489	116.09
709.673	115.89
709.858	115.42
710.042	116.63
710.227	114.64
710.411	115.36
710.596	114.17
710.78	110.42
710.964	112.48
711.149	111.23
711.333	111.57
711.517	110.06
711.702	108.59
711.886	109.5
712.07	107.88
712.254	110.97
712.438	110.76
712.623	111.18
712.807	112.64
712.991	108.68
713.175	108.37
713.359	108.01
713.544	106.99
713.728	108.49
713.912	106.58
714.096	105.9
714.28	103.25
714.464	102.55
714.648	101.58
714.832	100.27
715.016	98.42
715.2	98.28
715.384	99.02
715.568	99.66
715.752	98.89
715.936	99.24
716.12	99.25
716.304	102.51
716.488	102.33
716.671	104.04
716.855	103.25
717.039	103.05
717.223	102.68
717.407	101.25
717.59	100.95
717.774	100.75
717.958	100.4
718.142	102.45
718.325	100
718.509	98.93
718.693	98.31
718.877	98.93
719.06	103.6
719.244	104.38
719.428	106.12
719.611	109.12
719.795	109.25
719.978	108.64
720.162	107.12
720.345	107.82
720.529	110.93
720.713	111.13
720.896	113.14
721.08	112.25
721.263	113.93
721.446	115
721.63	114.2
721.813	113.51
721.997	113.2
722.18	115.73
722.364	117.15
722.547	117.46
722.73	116.93
722.914	115.1
723.097	114.45
723.28	110.84
723.464	108.74
723.647	109.69
723.83	112.51
724.013	112.7
724.197	112.23
724.38	109.81
724.563	107.3
724.746	108.39
724.929	109.15
725.112	111.33
725.296	112.17
725.479	111.43
725.662	109.8
725.845	107.59
726.028	107.42
726.211	105.74
726.394	105.11
726.577	106.05
726.76	106.87
726.943	104.06
727.126	102.35
727.309	103.28
727.492	104.8
727.675	102.44
727.858	101.25
728.041	103.41
728.224	102.67
728.407	103.78
728.589	103.69
728.772	101.78
728.955	105.27
729.138	105.36
729.321	106.37
729.503	106.37
729.686	108.49
729.869	108.23
730.052	106.56
730.234	108.14
730.417	107.8
730.6	107.44
730.782	107.76
730.965	109.11
731.148	111.23
731.33	109.46
731.513	108.17
731.695	109.08
731.878	112.33
732.061	113.65
732.243	112.73
732.426	113.92
732.608	115.04
732.791	118.01
732.973	117.77
733.156	115.25
733.338	116.12
733.52	119.15
733.703	118.44
733.885	117.65
734.068	118.87
734.25	121.24
734.432	122.87
734.615	124.69
734.797	123.92
734.979	123.45
735.162	123.94
735.344	126.09
735.526	125.84
735.708	125.44
735.891	128.58
736.073	127.67
736.255	126.43
736.437	123.69
736.619	123.01
736.802	120.82
736.984	122.21
737.166	122.58
737.348	122.63
737.53	122
737.712	125.6
737.894	125.4
738.076	126.1
738.258	127.11
738.44	132.69
738.622	132.56
738.804	133.54
738.986	133.66
739.168	134.43
739.35	133.2
739.532	137.06
739.714	136.47
739.896	134.92
740.078	136.41
740.259	136.22
740.441	133.09
740.623	135.17
740.805	132.98
740.987	133.1
741.168	132.37
741.35	131.94
741.532	129.5
741.714	127.37
741.895	129.78
742.077	127.74
742.259	127.35
742.44	129.17
742.622	128.37
742.804	131.56
742.985	129.53
743.167	130.94
743.348	132.23
743.53	131.13
743.711	134.69
743.893	132.54
744.075	133.62
744.256	133.53
744.438	132.48
744.619	134.88
744.8	136.65
744.982	134.45
745.163	135.94
745.345	137.95
745.526	139.88
745.707	138.22
745.889	136.25
746.07	138.14
746.252	141.55
746.433	142.95
746.614	138.72
746.795	137
746.977	139.29
747.158	136.52
747.339	136.05
747.52	133.58
747.702	133.59
747.883	134.65
748.064	134.11
748.245	134.26
748.426	131.86
748.607	133.87
748.788	130.89
748.97	132
749.151	133.11
749.332	133.69
749.513	137.67
749.694	138.6
749.875	141.79
750.056	140.64
750.237	137.41
750.418	141.37
750.599	141.56
750.78	146.45
750.96	147.08
751.141	149.83
751.322	148.2
751.503	147.74
751.684	145.15
751.865	142.24
752.046	141.19
752.226	137.2
752.407	135.83
752.588	134.69
752.769	136.06
752.949	132
753.13	129.44
753.311	129.67
753.492	129.93
753.672	130.06
753.853	128.78
754.034	128.59
754.214	134.16
754.395	133.13
754.575	134.32
754.756	131.03
754.937	133.25
755.117	132.83
755.298	133.12
755.478	130.03
755.659	133.56
755.839	135.73
756.02	138.67
756.2	138.04
756.381	135.96
756.561	137.3
756.741	138.15
756.922	136.24
757.102	134.47
757.283	136.01
757.463	135.14
757.643	128.25
757.823	126.7
758.004	122.24
758.184	119.32
758.364	118.18
758.545	111.08
758.725	108.06
758.905	108.2
759.085	106.33
759.265	101.8
759.446	97.28
759.626	99.39
759.806	98.61
759.986	97.3
760.166	99.28
760.346	97.97
760.526	98.96
760.706	98.5
760.886	94.8
761.066	96.91
761.246	93.51
761.426	94.84
761.606	94.32
761.786	93.34
761.966	91.32
762.146	87.8
762.326	87.34
762.506	85.71
762.686	86.71
762.866	87.6
763.046	87
763.225	90.67
763.405	90.55
763.585	90.7
763.765	92.28
763.945	95.52
764.124	96.22
764.304	100.04
764.484	102.86
764.664	104.19
764.843	106.22
765.023	108.8
765.203	109.42
765.382	112.51
765.562	111.52
765.741	112.9
765.921	113.19
766.101	117.21
766.28	118
766.46	122.72
766.639	121.99
766.819	124.04
766.998	124.72
767.178	124.65
767.357	126.79
767.537	135.93
767.716	136.29
767.896	141.8
768.075	143.74
768.254	144.2
768.434	140.08
768.613	140.6
768.792	142.61
768.972	144.38
769.151	149.29
769.33	151.49
769.51	146.54
769.689	148.33
769.868	145.31
770.047	143.37
770.226	141.76
770.406	147.44
770.585	155.27
770.764	152.33
770.943	150.74
771.122	150.38
771.301	149.28
771.48	154.36
771.66	159
771.839	155.84
772.018	156.26
772.197	162.16
772.376	163.89
772.555	161.07
772.734	162.73
772.913	165.91
773.092	162.7
773.271	165.6
773.449	161.75
773.628	155.8
773.807	159.96
773.986	161.88
774.165	160.43
774.344	158.38
774.523	156.98
774.701	161.36
774.88	157.97
775.059	155.17
775.238	154.16
775.417	152.18
775.595	152.13
775.774	151.83
775.953	147.88
776.131	145.39
776.31	144.06
776.489	140.53
776.667	137.47
776.846	137.61
777.025	143.73
777.203	139.76
777.382	141.05
777.56	139.99
777.739	138.09
777.917	139.88
778.096	138.25
778.274	138.85
778.453	140.44
778.631	140.32
778.81	140.83
778.988	141.29
779.166	143.75
779.345	142.95
779.523	140.51
779.702	142.4
779.88	145.46
780.058	148.89
780.237	149.86
780.415	152.59
780.593	152.15
780.771	148.54
780.95	149.97
781.128	149.72
781.306	149.63
781.484	158.55
781.662	158.4
781.841	152.31
782.019	153.15
782.197	148.08
782.375	149.67
782.553	153.07
782.731	156.66
782.909	149.93
783.087	149.54
783.265	148.67
783.443	142.25
783.621	137.39
783.799	144.34
783.977	142.04
784.155	146.14
784.333	146.26
784.511	140.32
784.689	140.04
784.867	139.85
785.045	142.65
785.223	142.16
785.4	141.58
785.578	144.14
785.756	140.69
785.934	142.77
786.112	145.11
786.289	143.34
786.467	144.09
786.645	142.95
786.823	142.52
787	136.55
787.178	135.81
787.356	139.73
787.533	140.54
787.711	139.25
787.889	135.78
788.066	134.64
788.244	128.47
788.421	132.36
788.599	135.98
788.776	138.04
788.954	140.2
789.131	147.39
789.309	148.36
789.486	150.8
789.664	154.51
789.841	156.45
790.019	154.43
790.196	160.49
790.373	157.04
790.551	150.43
790.728	149.86
790.906	151.13
791.083	135.74
791.26	130.42
791.437	126.88
791.615	124.26
791.792	123.87
791.969	122.7
792.146	122.77
792.324	124.29
792.501	128.31
792.678	128.19
792.855	128.08
793.032	141.12
793.209	142.06
793.387	145.98
793.564	146.56
793.741	146.62
793.918	149.08
794.095	149.65
794.272	153.4
794.449	149.29
794.626	148.79
794.803	143.02
794.98	140.42
795.157	142.79
795.334	141.63
795.511	141.01
795.688	138.28
795.864	137.18
796.041	135.35
796.218	130.88
796.395	133.37
796.572	134.56
796.749	135.73
796.925	135.74
797.102	134.64
797.279	132.86
797.456	135.02
797.632	137.66
797.809	137
797.986	134.29
798.162	135.94
798.339	130.46
798.516	131.95
798.692	130.89
798.869	129.28
799.046	130.19
799.222	127.33
799.399	126.52
799.575	127.67
799.752	124.39
799.928	127.44
800.105	126.37
800.281	129.84
800.458	127.05
800.634	131.17
800.811	132.75
800.987	132.87
801.163	140.92
801.34	135.89
801.516	135.24
801.692	140.7
801.869	143.15
802.045	145.22
802.221	147
802.398	150.99
802.574	155.66
802.75	156.65
802.926	155.71
803.103	147.44
803.279	149.97
803.455	146.71
803.631	146.79
803.807	147.47
803.983	150.27
804.16	152.76
804.336	147.08
804.512	143.84
804.688	143.75
804.864	138.13
805.04	137.71
805.216	142.05
805.392	142.24
805.568	139.84
805.744	137.48
805.92	138.17
806.096	134.81
806.272	131.76
806.448	133.25
806.623	129.32
806.799	133.03
806.975	135.66
807.151	130.54
807.327	132.86
807.503	131.03
807.678	136.37
807.854	133.44
808.03	134.06
808.206	143.45
808.381	144.61
808.557	142.8
808.733	143.27
808.908	137.48
809.084	140.21
809.26	137.77
809.435	140.92
809.611	137.27
809.787	134.46
809.962	133.74
810.138	128.1
810.313	128.19
810.489	135.02
810.664	131.56
810.84	133.58
811.015	133.55
811.191	131.05
811.366	128.48
811.542	130.85
811.717	128.89
811.892	125.87
812.068	130.51
812.243	127.82
812.419	127.26
812.594	135.18
812.769	135.03
812.944	134.88
813.12	136.29
813.295	136.11
813.47	132.04
813.645	135.37
813.821	142.49
813.996	134.95
814.171	134.15
814.346	127.26
814.521	122.62
814.697	127.99
814.872	124.05
815.047	126.59
815.222	128.17
815.397	128.99
815.572	126.96
815.747	117.74
815.922	117.21
816.097	117.49
816.272	120.91
816.447	118.99
816.622	120.46
816.797	119.5
816.972	125.09
817.147	121.47
817.322	119.51
817.496	120.75
817.671	121.65
817.846	125.56
818.021	122.22
818.196	122.72
818.371	121.57
818.545	115.81
818.72	114.9
818.895	106.3
819.069	105.07
819.244	104.09
819.419	104.18
819.594	103.14
819.768	97.14
819.943	94.21
820.117	85.5
820.292	82.42
820.467	79.48
820.641	78.2
820.816	76.6
820.99	73.76
821.165	70.73
821.339	67.43
821.514	66.15
821.688	64.59
821.863	64.74
822.037	63.86
822.212	63.88
822.386	62.51
822.56	61.09
822.735	60.71
822.909	60.95
823.084	61.85
823.258	63.16
823.432	64.06
823.606	65.16
823.781	66.44
823.955	69.34
824.129	70.3
824.303	73.55
824.478	75.01
824.652	75.97
824.826	77.43
825	78.11
825.174	79.47
825.348	80.48
825.523	81.78
825.697	81.37
825.871	79.88
826.045	79.81
826.219	79.02
826.393	79.15
826.567	78.45
826.741	78.08
826.915	78.45
827.089	77.67
827.263	76.88
827.437	76.87
827.611	77.7
827.784	81.15
827.958	81.74
828.132	80.47
828.306	82.82
828.48	86.92
828.654	90.8
828.827	91.91
829.001	95.86
829.175	102.33
829.349	106.65
829.522	106.94
829.696	108.36
829.87	111.99
830.044	115.75
830.217	118.74
830.391	115.74
830.565	115.42
830.738	114.97
830.912	112.29
831.085	103.1
831.259	102.88
831.432	101.2
831.606	100.24
831.779	98.23
831.953	97.73
832.126	96.35
832.3	95.44
832.473	93.64
832.647	92.03
832.82	86.77
832.994	91.74
833.167	87.29
833.34	87.08
833.514	85.04
833.687	84.31
833.86	82.76
834.034	82.97
834.207	82.44
834.38	83.64
834.553	84.88
834.727	88.94
834.9	88.09
835.073	92.29
835.246	93.29
835.419	94.56
835.593	97.85
835.766	100.48
835.939	104.79
836.112	111.25
836.285	115.88
836.458	119.3
836.631	125.4
836.804	132.55
836.977	137.5
837.15	140.58
837.323	148.87
837.496	158.98
837.669	166.82
837.842	163.25
838.015	168.52
838.188	163.94
838.361	168.4
838.533	158.14
838.706	153.04
838.879	150.3
839.052	150.87
839.225	146
839.398	141.98
839.57	137.51
839.743	131.48
839.916	129.98
840.088	131.71
840.261	124.19
840.434	132.4
840.607	126.41
840.779	123.98
840.952	122.96
841.124	125.24
841.297	124.2
841.47	124.6
841.642	132.9
841.815	127.41
841.987	131.35
842.16	138.72
842.332	134.06
842.505	142.88
842.677	148.73
842.85	156.19
843.022	149.49
843.194	149.36
843.367	152.63
843.539	143.87
843.712	144.18
843.884	141.21
844.056	141.31
844.229	143.34
844.401	145.11
844.573	138.74
844.745	137.37
844.918	140.21
845.09	136.49
845.262	134.23
845.434	137.62
845.606	134.37
845.779	137.73
845.951	139.59
846.123	138.14
846.295	140.46
846.467	147.07
846.639	140.41
846.811	149.68
846.983	152.54
847.155	165.19
847.327	163.54
847.499	183.03
847.671	178.1
847.843	171.4
848.015	159.71
848.187	152.28
848.359	152.55
848.531	155.04
848.703	145.16
848.875	140.51
849.047	128.49
849.218	136.09
849.39	126.3
849.562	128.78
849.734	125.45
849.905	136.33
850.077	125.61
850.249	127.81
850.421	133.74
850.592	135.61
850.764	137.64
850.936	143.98
851.107	133.04
851.279	137.68
851.451	139.01
851.622	145.92
851.794	142.63
851.965	160.98
852.137	151.05
852.308	148.84
852.48	147.6
852.651	147.15
852.823	144.32
852.994	148.93
853.166	145.81
853.337	145.86
853.509	139.48
853.68	135.1
853.851	133.85
854.023	136.51
854.194	131.06
854.365	133.07
854.537	131.2
854.708	128.76
854.879	125.38
855.05	125.67
855.222	119.03
855.393	127.8
855.564	140.25
855.735	137.45
855.906	138.14
856.078	146.69
856.249	148.22
856.42	158.72
856.591	167.15
856.762	182.02
856.933	184.59
857.104	203.21
857.275	185.1
857.446	178.26
857.617	185.46
857.788	189.3
857.959	182.45
858.13	167.51
858.301	156.64
858.472	152.99
858.643	140.11
858.814	146.11
858.985	143.02
859.155	160.71
859.326	164.58
859.497	157.56
859.668	164.52
859.839	168.91
860.009	176.93
860.18	175.06
860.351	172.44
860.522	181.95
860.692	185.82
860.863	170.56
861.034	163.51
861.204	163.46
861.375	156.48
861.546	144.69
861.716	143.26
861.887	140.5
862.057	142.72
862.228	142.25
862.398	148.07
862.569	135.55
862.739	143.95
862.91	137.49
863.08	129.94
863.251	135.58
863.421	141.08
863.592	139.68
863.762	143.77
863.932	140.93
864.103	144.55
864.273	132.74
864.443	145.13
864.614	143.63
864.784	147.81
864.954	147.9
865.125	145.66
865.295	144.74
865.465	141.27
865.635	146.22
865.805	153.74
865.976	155.5
866.146	164.13
866.316	154.36
866.486	161.42
866.656	164.03
866.826	171.35
866.996	175.73
867.166	182.7
867.336	197.67
867.506	186.8
867.676	174.09
867.846	164
868.016	160.17
868.186	165.56
868.356	155.86
868.526	148.02
868.696	137.63
868.866	137.7
869.036	131.39
869.206	123.81
869.376	119.92
869.545	127.58
869.715	130.28
869.885	143.74
870.055	144.47
870.224	142.09
870.394	149.25
870.564	153.81
870.734	149.98
870.903	153.82
871.073	156.61
871.243	164.2
871.412	162.4
871.582	174.36
871.751	157.92
871.921	156.49
872.091	167.52
872.26	161.58
872.43	165.18
872.599	174.98
872.769	161.59
872.938	153.67
873.108	148.62
873.277	149.42
873.446	140.62
873.616	139.28
873.785	134.15
873.955	130.62
874.124	135.11
874.293	136.64
874.463	131.2
874.632	135.14
874.801	138.27
874.971	138.26
875.14	133.36
875.309	143.91
875.478	149.86
875.647	148.89
875.817	147.37
875.986	146.8
876.155	143.76
876.324	148.14
876.493	146.34
876.662	142.98
876.831	137.58
877	140.01
877.17	127
877.339	126.74
877.508	131.63
877.677	134.59
877.846	131.25
878.015	128.9
878.184	131.92
878.352	133.5
878.521	134.69
878.69	136.98
878.859	132.54
879.028	140.94
879.197	137.75
879.366	129.69
879.534	126.26
879.703	130.46
879.872	125.11
880.041	119.73
880.21	118.2
880.378	117.41
880.547	113.74
880.716	113.99
880.884	103.35
881.053	99.23
881.222	95.87
881.39	94.89
881.559	88.75
881.727	85.84
881.896	81.48
882.065	78.39
882.233	75.4
882.402	75.13
882.57	73.16
882.739	75.84
882.907	76.64
883.076	74.94
883.244	76.33
883.412	79.84
883.581	84.08
883.749	85.61
883.918	89.59
884.086	93.33
884.254	95.97
884.423	100.55
884.591	101.34
884.759	100.81
884.927	109.33
885.096	107.99
885.264	109.97
885.432	116.39
885.6	119.02
885.769	110.15
885.937	106.95
886.105	112.72
886.273	116.58
886.441	123.55
886.609	132.61
886.777	132.29
886.945	130.39
887.113	129.79
887.281	124.62
887.449	134.76
887.617	143.43
887.785	156.94
887.953	142.25
888.121	146.94
888.289	148.35
888.457	148.27
888.625	158.9
888.793	160.88
888.961	166.93
889.129	170.09
889.296	169.7
889.464	177.61
889.632	169.22
889.8	180.65
889.967	176.08
890.135	169.47
