Data from JASIL_3277_Reflection_1.txt Node
Date: Tue Nov 17 19:09:30 EST 2015
User: Geneva
Spectrometer: USB4E03002
Autoset integration time: false
Trigger mode: 4
Integration Time (sec): 1.000000E-1
Scans to average: 10
Electric dark correction enabled: false
Nonlinearity correction enabled: false
Boxcar width: 5
Stray light correction enabled: false
XAxis mode: Wavelengths
Stop averaging: false
Number of Pixels in Spectrum: 3648
>>>>>Begin Spectral Data<<<<<
177.575	72.06
177.794	31.31
178.014	51.32
178.233	-1625
178.452	379.17
178.672	109.69
178.891	145.63
179.11	266.25
179.33	233.83
179.549	263.43
179.768	379.35
179.987	507.2
180.207	577.78
180.426	685.51
180.645	-190.38
180.864	-48.54
181.084	11.05
181.303	-7.47
181.522	-20.77
181.741	15.43
181.96	40.3
182.179	35.68
182.398	42.23
182.618	-59.45
182.837	-105.79
183.056	2633.33
183.275	148.53
183.494	101.18
183.713	88.09
183.932	68.49
184.151	79.79
184.37	70.95
184.589	53.02
184.808	45.56
185.027	25.66
185.246	15.33
185.465	13.48
185.684	-985
185.903	104.1
186.122	78.88
186.341	81.08
186.56	33.72
186.779	40.34
186.998	30.97
187.216	12.7
187.435	6.6
187.654	45.03
187.873	27.06
188.092	45.54
188.311	53.63
188.53	76.24
188.748	71.57
188.967	91.25
189.186	69.01
189.405	62.08
189.623	82.32
189.842	104.29
190.061	24.14
190.28	41.33
190.498	4
190.717	800
190.936	103.88
191.154	251.64
191.373	208.23
191.592	1218.18
191.81	46.76
192.029	442.31
192.248	-30
192.466	97.86
192.685	231.34
192.904	93.92
193.122	68.53
193.341	69.91
193.559	104.86
193.778	127.79
193.996	118.38
194.215	132.78
194.433	197.49
194.652	119.53
194.87	297.65
195.089	138.7
195.307	319.32
195.526	737.93
195.744	8.77
195.963	55.38
196.181	65.41
196.399	67.34
196.618	20.42
196.836	-77.27
197.055	82.61
197.273	78.57
197.491	53.54
197.71	143.48
197.928	209.59
198.146	111.65
198.365	150
198.583	97.17
198.801	126.39
199.019	142.09
199.238	113.98
199.456	67.48
199.674	56.85
199.892	63.42
200.111	37.18
200.329	39.48
200.547	31
200.765	10.26
200.983	11.95
201.202	28.18
201.42	60.52
201.638	55.88
201.856	202.04
202.074	-23.08
202.292	229.41
202.51	-44.44
202.728	178.68
202.946	156.98
203.165	193.56
203.383	270.94
203.601	506.67
203.819	166.8
204.037	165.99
204.255	122.73
204.473	132.36
204.691	106.15
204.909	106.1
205.127	47.57
205.345	86.29
205.562	6.81
205.78	-122.61
205.998	28.18
206.216	16.67
206.434	47.18
206.652	56.25
206.87	62.24
207.088	57.14
207.306	94.26
207.523	102.56
207.741	94.67
207.959	95
208.177	73.55
208.395	75.19
208.612	76.42
208.83	51
209.048	37.8
209.266	40
209.483	41.32
209.701	33.55
209.919	25.73
210.136	-0.44
210.354	4.1
210.572	-18.34
210.79	-12.73
211.007	-0.71
211.225	7.44
211.442	10.72
211.66	-5.12
211.878	9.01
212.095	-78.04
212.313	-91.99
212.53	-60.54
212.748	-61.78
212.966	-78.91
213.183	-81.84
213.401	-112.95
213.618	-114.13
213.836	-174.49
214.053	-243.65
214.271	-175.97
214.488	16.07
214.705	8.21
214.923	33.85
215.14	7.19
215.358	16.92
215.575	26.16
215.793	90.48
216.01	85.02
216.227	85.19
216.445	73.39
216.662	57.84
216.879	59.17
217.097	65.56
217.314	50.1
217.531	78.52
217.749	87.6
217.966	63.22
218.183	36.76
218.4	26.49
218.618	-35.23
218.835	-20.11
219.052	16.33
219.269	49.52
219.487	21.19
219.704	20.62
219.921	2.69
220.138	11.64
220.355	21.43
220.572	32.47
220.79	27.44
221.007	58.64
221.224	55.09
221.441	40.3
221.658	14.49
221.875	43.63
222.092	38.07
222.309	39.55
222.526	20.33
222.743	-1.95
222.96	-2.41
223.177	-17.35
223.394	-41.33
223.611	-21.46
223.828	-33.53
224.045	-54.02
224.262	-63.95
224.479	-65.77
224.696	-54.94
224.913	-22.22
225.13	-10.19
225.347	5.04
225.564	23.69
225.781	20.37
225.997	20.7
226.214	19.35
226.431	26.17
226.648	33.33
226.865	33.33
227.082	31.82
227.298	23.73
227.515	24.98
227.732	18.87
227.949	18.9
228.165	18.52
228.382	16.8
228.599	14.7
228.816	13.22
229.032	8.92
229.249	9.77
229.466	14.39
229.682	17.21
229.899	16.76
230.116	13.13
230.332	15.75
230.549	16.9
230.765	19.14
230.982	29.73
231.199	35.43
231.415	39.01
231.632	36.75
231.848	22.61
232.065	27.59
232.281	28.33
232.498	28.32
232.714	16.8
232.931	18.23
233.147	16.73
233.364	12.23
233.58	5.51
233.797	-1.81
234.013	-1.17
234.23	0.55
234.446	-4.54
234.662	-5.28
234.879	-3.91
235.095	-7.74
235.312	-17.78
235.528	-10.73
235.744	-8.22
235.961	-9.09
236.177	-10.13
236.393	-1.2
236.61	-0.62
236.826	-0.06
237.042	-1.13
237.258	-0.69
237.475	15.01
237.691	19.57
237.907	7.86
238.123	2.17
238.339	-0.86
238.556	2.35
238.772	1.2
238.988	1.98
239.204	2.37
239.42	0.48
239.636	1.43
239.853	-3.37
240.069	-2.17
240.285	1.83
240.501	3.11
240.717	5.54
240.933	6.24
241.149	3.75
241.365	1.68
241.581	2.04
241.797	1.3
242.013	3.87
242.229	6.8
242.445	8.39
242.661	9.43
242.877	11.93
243.093	11.33
243.309	7.25
243.525	6.09
243.741	8.78
243.957	2.85
244.173	10.65
244.388	6.07
244.604	4.62
244.82	2.31
245.036	0.65
245.252	3.81
245.468	6.56
245.683	7.12
245.899	9.67
246.115	9.83
246.331	11.65
246.547	10.61
246.762	11.14
246.978	10.41
247.194	12.36
247.409	14.01
247.625	14.33
247.841	14.83
248.057	18.84
248.272	16.05
248.488	17.4
248.703	17.63
248.919	17.34
249.135	19.55
249.35	18.38
249.566	17.18
249.782	18.46
249.997	16.49
250.213	12.76
250.428	8.19
250.644	8.15
250.859	8.1
251.075	8.76
251.29	7.98
251.506	6.21
251.721	9.96
251.937	8.42
252.152	2.59
252.368	2.46
252.583	5.35
252.798	5.34
253.014	8.12
253.229	7.9
253.445	8.11
253.66	7.37
253.875	6.36
254.091	-0.92
254.306	5
254.521	12.05
254.737	5.37
254.952	-0.79
255.167	-2.66
255.383	-0.71
255.598	0.99
255.813	1.68
256.028	0.59
256.244	3.1
256.459	4.76
256.674	-0.09
256.889	-0.1
257.104	1.6
257.32	4.94
257.535	5.49
257.75	5.95
257.965	5.44
258.18	5.06
258.395	6.08
258.61	4.77
258.826	5.61
259.041	7.68
259.256	8.79
259.471	9.49
259.686	8.99
259.901	9.39
260.116	8.88
260.331	7.56
260.546	7.31
260.761	6.64
260.976	8.48
261.191	6.39
261.406	6.6
261.621	3.05
261.836	5.05
262.05	5.2
262.265	3.21
262.48	3.58
262.695	3.73
262.91	3.43
263.125	4.23
263.34	1.76
263.555	3.79
263.769	0.49
263.984	3.67
264.199	1.14
264.414	0.06
264.629	0.67
264.843	-0.95
265.058	0.18
265.273	1.45
265.488	0.42
265.702	2.13
265.917	2.9
266.132	2.65
266.346	0.7
266.561	4.48
266.776	5
266.99	5.2
267.205	6.43
267.42	7.15
267.634	7.72
267.849	8.08
268.063	6.82
268.278	6.85
268.492	10.23
268.707	10.3
268.922	6.81
269.136	7.48
269.351	8.24
269.565	7.26
269.78	8.22
269.994	5.38
270.209	4.87
270.423	5.79
270.637	5.8
270.852	3.5
271.066	4.23
271.281	3.93
271.495	3.47
271.709	3.02
271.924	3.06
272.138	4.43
272.353	4.6
272.567	6.21
272.781	5.28
272.996	6.73
273.21	6.56
273.424	7.13
273.638	7.52
273.853	9.43
274.067	9.56
274.281	11.7
274.495	9.13
274.71	11.73
274.924	11.79
275.138	12.07
275.352	10.9
275.566	10.53
275.781	10.37
275.995	10.37
276.209	9.03
276.423	12.44
276.637	10.08
276.851	7.82
277.065	6.37
277.279	5.62
277.493	4.99
277.707	5.95
277.921	6.24
278.135	2.73
278.349	3.16
278.563	2.93
278.777	-0.55
278.991	-0.6
279.205	3.59
279.419	3.49
279.633	1.83
279.847	4.16
280.061	3.71
280.275	3.7
280.489	7.04
280.703	7.14
280.917	7.02
281.131	6
281.344	7.22
281.558	4.09
281.772	4.89
281.986	5.22
282.2	2.74
282.414	2.71
282.627	4.06
282.841	1.9
283.055	1.33
283.269	1.64
283.482	1.47
283.696	1.38
283.91	2.34
284.123	1.79
284.337	2.74
284.551	5.64
284.764	4.45
284.978	5.4
285.192	6.56
285.405	5.62
285.619	5.83
285.833	7.69
286.046	6.79
286.26	8.18
286.473	6.9
286.687	5.8
286.9	4.01
287.114	4.09
287.327	1.34
287.541	0.83
287.754	2.43
287.968	1.19
288.181	0.13
288.395	1.61
288.608	0.91
288.822	4.19
289.035	4.76
289.248	3.88
289.462	3.82
289.675	4.67
289.889	5.91
290.102	3.58
290.315	5.9
290.529	5.81
290.742	5.78
290.955	6.03
291.169	3.18
291.382	3.57
291.595	4.58
291.808	5.27
292.022	4.25
292.235	3.53
292.448	5.73
292.661	4.41
292.875	5.4
293.088	5.23
293.301	4.77
293.514	5.18
293.727	5.87
293.94	5.39
294.153	5.76
294.367	6.82
294.58	5.56
294.793	6.54
295.006	5.52
295.219	2.92
295.432	2.47
295.645	4.14
295.858	4.52
296.071	4.56
296.284	4.96
296.497	4.97
296.71	4.3
296.923	4.86
297.136	3.66
297.349	4.85
297.562	5.57
297.775	5.58
297.988	3.35
298.201	3.94
298.414	3.28
298.626	4.12
298.839	2.72
299.052	1.43
299.265	1.85
299.478	2.03
299.691	1.62
299.903	3.67
300.116	2.49
300.329	3.39
300.542	2.54
300.755	2.2
300.967	1.36
301.18	2.7
301.393	5.06
301.605	5.33
301.818	5.21
302.031	3.7
302.243	3.28
302.456	4.64
302.669	5.28
302.881	6.73
303.094	7.45
303.307	6.18
303.519	6.06
303.732	6.85
303.944	6.22
304.157	6.01
304.37	7.53
304.582	7.56
304.795	7.51
305.007	8.68
305.22	8.19
305.432	7.71
305.645	7.82
305.857	8.15
306.069	6.99
306.282	7.04
306.494	7.34
306.707	7.21
306.919	7.38
307.132	8
307.344	7.32
307.556	6.78
307.769	6.6
307.981	6.94
308.193	6.47
308.406	6.73
308.618	5.73
308.83	6.64
309.043	5.91
309.255	5.12
309.467	4.04
309.679	3.53
309.892	2.93
310.104	3.42
310.316	3.95
310.528	4.51
310.74	4.76
310.953	5.59
311.165	4.48
311.377	4.39
311.589	4.91
311.801	6.4
312.013	6.71
312.225	7.12
312.437	7.41
312.649	8.21
312.862	6.68
313.074	6.2
313.286	6.37
313.498	9.3
313.71	9.92
313.922	10.24
314.134	9.72
314.346	10.05
314.558	10.26
314.77	9.33
314.982	7.41
315.193	8.59
315.405	8.34
315.617	9.91
315.829	6.61
316.041	6.53
316.253	5.39
316.465	4.28
316.677	4.7
316.888	5.11
317.1	5.14
317.312	5.51
317.524	5
317.736	6.26
317.947	5.61
318.159	6.91
318.371	5.68
318.583	5.21
318.794	7.81
319.006	6.57
319.218	6.6
319.43	8.33
319.641	8.56
319.853	10.41
320.064	8.41
320.276	5.3
320.488	4.92
320.699	5.98
320.911	6.32
321.123	4.28
321.334	3.48
321.546	2.23
321.757	0.75
321.969	0.97
322.18	-0.73
322.392	1.57
322.603	3.45
322.815	2.75
323.026	2.97
323.238	4.77
323.449	6.36
323.661	8.26
323.872	9.33
324.083	8.33
324.295	9.03
324.506	8.55
324.718	8.66
324.929	8.79
325.14	8.67
325.352	9.39
325.563	8.72
325.774	6.82
325.986	6.27
326.197	6.79
326.408	7.79
326.62	7.84
326.831	7.89
327.042	8.55
327.253	8.63
327.464	9.39
327.676	8.29
327.887	7.82
328.098	8.81
328.309	9.37
328.52	9.51
328.732	9.87
328.943	9.06
329.154	9.44
329.365	8.92
329.576	8.62
329.787	9.82
329.998	9.75
330.209	10.27
330.42	8.7
330.631	8.24
330.842	8.89
331.053	9.8
331.264	11.58
331.475	11.96
331.686	9.78
331.897	10.93
332.108	9.52
332.319	9.91
332.53	8.63
332.741	10.08
332.952	8.94
333.163	6.59
333.374	4.85
333.585	4.82
333.795	3.81
334.006	4.68
334.217	2.88
334.428	3.63
334.639	4.59
334.849	4.61
335.06	3.11
335.271	4.08
335.482	5.35
335.692	6.1
335.903	4.63
336.114	6.34
336.325	6.22
336.535	6.12
336.746	6.75
336.957	6.47
337.167	6.67
337.378	8.39
337.589	8.03
337.799	7.25
338.01	9.01
338.22	9.49
338.431	7.85
338.642	8.38
338.852	9.78
339.063	7.96
339.273	7.49
339.484	9.65
339.694	8.5
339.905	8.71
340.115	10.75
340.326	9.42
340.536	9.98
340.746	11.03
340.957	11.26
341.167	10.28
341.378	11.67
341.588	11.66
341.799	11.24
342.009	11.57
342.219	12.06
342.43	9.89
342.64	9.9
342.85	8.95
343.061	8.78
343.271	8.83
343.481	8.68
343.691	8.65
343.902	8.98
344.112	8.35
344.322	8.67
344.532	9.4
344.743	9.3
344.953	7.84
345.163	7.85
345.373	8.07
345.583	8.86
345.793	11
346.004	9.98
346.214	8.63
346.424	9.22
346.634	8
346.844	6.93
347.054	7.61
347.264	8.39
347.474	8.04
347.684	7.83
347.894	6.74
348.104	5.42
348.314	6.09
348.524	6.45
348.734	4.94
348.944	4.89
349.154	4.2
349.364	3.91
349.574	4.18
349.784	5.86
349.994	5.92
350.204	5.46
350.413	4.82
350.623	4.29
350.833	4.66
351.043	4.89
351.253	4.68
351.463	4.94
351.672	5.23
351.882	6
352.092	3.32
352.302	4.34
352.511	4.14
352.721	3.12
352.931	2.71
353.141	2.77
353.35	4.2
353.56	6.54
353.77	5.51
353.979	6.07
354.189	6.12
354.399	7.13
354.608	6.76
354.818	6.8
355.027	8.31
355.237	8.89
355.447	8.86
355.656	7.7
355.866	6.64
356.075	7.7
356.285	7.42
356.494	6.71
356.704	6.61
356.913	6.29
357.123	7.27
357.332	7.2
357.542	6.85
357.751	6.57
357.96	6.92
358.17	6.68
358.379	6.41
358.589	5.15
358.798	4.74
359.007	5.35
359.217	4.86
359.426	3.96
359.635	3.46
359.845	4.41
360.054	5
360.263	5.2
360.472	5.19
360.682	5.36
360.891	5.99
361.1	6.66
361.309	6.22
361.519	6.49
361.728	6.95
361.937	7.46
362.146	6.75
362.355	6.35
362.564	6.33
362.774	6.78
362.983	6.3
363.192	6.96
363.401	6.57
363.61	7.11
363.819	7.43
364.028	7.23
364.237	7.2
364.446	7.84
364.655	8.41
364.864	7.84
365.073	8.43
365.282	8.87
365.491	7.76
365.7	7.99
365.909	7.85
366.118	6.86
366.327	6.96
366.536	6.27
366.745	5.23
366.954	5.26
367.162	5.55
367.371	4.93
367.58	5.56
367.789	6.82
367.998	6.93
368.207	5.94
368.415	7.56
368.624	6.87
368.833	8.66
369.042	8.82
369.25	7.21
369.459	6.74
369.668	5.9
369.877	5.42
370.085	4.26
370.294	3.7
370.503	3.88
370.711	2
370.92	1.8
371.129	0.42
371.337	0.78
371.546	1.91
371.754	1.7
371.963	2.08
372.171	1.25
372.38	2.85
372.589	2.91
372.797	4.01
373.006	4.86
373.214	5.48
373.423	4.91
373.631	3.79
373.84	3.22
374.048	4.99
374.256	5.23
374.465	6.14
374.673	6
374.882	5.79
375.09	5.86
375.298	5.82
375.507	6.13
375.715	6.67
375.923	7.9
376.132	8.85
376.34	6.88
376.548	6.41
376.757	6.92
376.965	7.3
377.173	7.38
377.381	6.64
377.59	6.62
377.798	6.78
378.006	6.5
378.214	5.91
378.423	5.33
378.631	7.04
378.839	7.41
379.047	6.15
379.255	4.48
379.463	4.63
379.671	4.83
379.879	5.65
380.088	5.24
380.296	4.77
380.504	4.8
380.712	5.43
380.92	4.8
381.128	4.16
381.336	4.68
381.544	5.74
381.752	5.84
381.96	5.37
382.168	4.16
382.376	4.78
382.584	5.36
382.791	5.18
382.999	4.26
383.207	4.54
383.415	5.4
383.623	6.44
383.831	5.41
384.039	4.77
384.247	4.65
384.454	4.57
384.662	3.83
384.87	4.26
385.078	4.5
385.285	4.31
385.493	4.36
385.701	3.67
385.909	3.39
386.116	3.82
386.324	4.26
386.532	4.65
386.739	5.14
386.947	5.47
387.155	4.89
387.362	5.5
387.57	5.82
387.778	5.27
387.985	5.99
388.193	5.84
388.4	6.22
388.608	6.48
388.816	6.59
389.023	6.19
389.231	6.55
389.438	7.13
389.646	6.37
389.853	6.74
390.061	5.8
390.268	5.41
390.475	4.96
390.683	5.31
390.89	5.04
391.098	5.43
391.305	5.73
391.512	5.7
391.72	5.98
391.927	5.67
392.135	5.83
392.342	6.97
392.549	6.6
392.756	5.78
392.964	5.58
393.171	5.4
393.378	4.94
393.586	4.63
393.793	4.26
394	3.44
394.207	4.15
394.414	4.06
394.622	3.67
394.829	4.03
395.036	5.16
395.243	4.88
395.45	5.22
395.657	5.55
395.864	6.36
396.072	6.17
396.279	6.03
396.486	5.81
396.693	5.74
396.9	5.67
397.107	5.42
397.314	5.39
397.521	4.81
397.728	4.16
397.935	4.04
398.142	3.32
398.349	4.19
398.556	4.29
398.763	4.08
398.97	4.17
399.177	5.11
399.383	5.67
399.59	5.06
399.797	5.74
400.004	5.96
400.211	6.03
400.418	6.79
400.625	6.16
400.831	6.3
401.038	6.66
401.245	6.15
401.452	5.76
401.658	5.39
401.865	5.87
402.072	5.66
402.279	5.84
402.485	5.56
402.692	4.42
402.899	4.73
403.105	4.44
403.312	4.11
403.519	4.45
403.725	3.85
403.932	3.86
404.138	3.73
404.345	3.33
404.552	3.05
404.758	3.09
404.965	3.52
405.171	3.21
405.378	3.54
405.584	3.38
405.791	3.44
405.997	3.66
406.204	3.37
406.41	3.15
406.617	3.45
406.823	4.07
407.029	4.26
407.236	4.27
407.442	4.22
407.649	4.22
407.855	4.93
408.061	5.07
408.268	4.92
408.474	5.14
408.68	4.63
408.887	4.27
409.093	4.4
409.299	4.6
409.505	4.94
409.712	5.47
409.918	5.69
410.124	5.57
410.33	5.45
410.537	6.02
410.743	6.41
410.949	6.95
411.155	8.03
411.361	7.68
411.567	6.62
411.773	6.96
411.98	6.41
412.186	7.02
412.392	6.61
412.598	6.46
412.804	6.52
413.01	5.87
413.216	6.17
413.422	5.28
413.628	5.67
413.834	6.02
414.04	5.72
414.246	6.11
414.452	4.93
414.658	4.71
414.864	4.52
415.07	4
415.275	3.89
415.481	3.97
415.687	4.41
415.893	3.92
416.099	3.87
416.305	3.72
416.511	3.04
416.716	3.55
416.922	4.13
417.128	3.84
417.334	4.13
417.539	4.57
417.745	4.63
417.951	4.68
418.157	4.78
418.362	5.25
418.568	4.81
418.774	5.14
418.979	5.14
419.185	4.93
419.391	5.48
419.596	5.42
419.802	5.13
420.008	4.86
420.213	1.8
420.419	1.73
420.624	1.5
420.83	2.1
421.035	2.11
421.241	2.22
421.446	2.31
421.652	2.19
421.857	1.78
422.063	1.99
422.268	1.92
422.474	4.7
422.679	4.84
422.885	4.99
423.09	4.8
423.295	5.12
423.501	4.89
423.706	4.85
423.911	4.57
424.117	4.83
424.322	4.49
424.527	4.46
424.733	4.47
424.938	4.41
425.143	4.44
425.349	4.5
425.554	4.11
425.759	4.48
425.964	4.32
426.169	4.62
426.375	4.61
426.58	4.81
426.785	4.94
426.99	4.79
427.195	4.93
427.4	4.62
427.605	4.34
427.811	4.25
428.016	3.97
428.221	4.04
428.426	3.86
428.631	3.81
428.836	3.92
429.041	4.09
429.246	3.98
429.451	3.94
429.656	3.75
429.861	3.75
430.066	3.56
430.271	3.7
430.476	3.71
430.681	3.84
430.886	3.97
431.09	4.03
431.295	4.04
431.5	4.25
431.705	4.29
431.91	4.51
432.115	4.84
432.32	4.89
432.524	4.72
432.729	4.49
432.934	4.33
433.139	4.22
433.343	4.08
433.548	3.74
433.753	3.9
433.958	4.03
434.162	4.54
434.367	4.47
434.572	4.57
434.776	4.43
434.981	4.23
435.186	4.66
435.39	4.45
435.595	4.82
435.799	5.22
436.004	5.17
436.209	4.83
436.413	4.44
436.618	4.42
436.822	4.39
437.027	4.29
437.231	4.62
437.436	4.13
437.64	4.42
437.845	4.27
438.049	3.94
438.253	3.88
438.458	4.14
438.662	3.77
438.867	3.54
439.071	3.6
439.275	3.75
439.48	3.76
439.684	3.74
439.888	4.04
440.093	3.96
440.297	4.21
440.501	4.29
440.706	3.91
440.91	3.91
441.114	4.1
441.318	3.86
441.523	3.76
441.727	3.64
441.931	3.89
442.135	3.5
442.339	3.42
442.543	3.18
442.748	3.24
442.952	3.62
443.156	4.09
443.36	3.83
443.564	3.65
443.768	3.59
443.972	3.69
444.176	3.84
444.38	4.01
444.584	4
444.788	4.19
444.992	4.2
445.196	3.83
445.4	3.6
445.604	3.75
445.808	4.15
446.012	4.01
446.216	3.84
446.42	3.31
446.624	3.32
446.828	3.5
447.032	3.55
447.235	3.27
447.439	3.69
447.643	3.84
447.847	4
448.051	3.86
448.254	3.89
448.458	4.14
448.662	4.67
448.866	4.49
449.069	4.8
449.273	4.68
449.477	4.89
449.681	4.47
449.884	4.19
450.088	4.11
450.292	4.01
450.495	4.12
450.699	4.01
450.902	3.89
451.106	3.87
451.31	3.26
451.513	3.02
451.717	3.23
451.92	3.64
452.124	3.75
452.327	3.62
452.531	3.64
452.734	3.71
452.938	3.74
453.141	3.69
453.345	3.65
453.548	3.84
453.752	3.56
453.955	3.06
454.158	2.86
454.362	3.1
454.565	3.49
454.769	3.69
454.972	3.77
455.175	3.82
455.379	3.94
455.582	4.18
455.785	4.1
455.988	4.77
456.192	4.92
456.395	4.64
456.598	4.45
456.801	4.12
457.005	4.4
457.208	4.29
457.411	4.43
457.614	4.23
457.817	3.56
458.021	3.58
458.224	3.41
458.427	3.24
458.63	3.3
458.833	3.37
459.036	3.36
459.239	3.12
459.442	3.26
459.645	3.08
459.848	3.06
460.051	3.57
460.254	3.55
460.457	3.61
460.66	3.81
460.863	3.97
461.066	3.62
461.269	3.51
461.472	3.31
461.675	2.79
461.878	2.78
462.081	2.96
462.284	3.25
462.486	3.06
462.689	2.78
462.892	2.9
463.095	2.49
463.298	3.03
463.5	2.9
463.703	2.92
463.906	3.66
464.109	3.74
464.311	3.6
464.514	3.21
464.717	3.48
464.92	4.06
465.122	4.33
465.325	4.51
465.528	4.22
465.73	4.16
465.933	4.12
466.135	4.33
466.338	4.91
466.541	5.22
466.743	5.48
466.946	5.25
467.148	5.09
467.351	4.81
467.553	4.89
467.756	4.98
467.958	5.77
468.161	5.49
468.363	5.1
468.566	4.3
468.768	3.91
468.971	3.55
469.173	3.74
469.375	3.46
469.578	3.59
469.78	4.08
469.983	4.24
470.185	3.54
470.387	3.91
470.59	3.8
470.792	4.19
470.994	4.17
471.196	4.38
471.399	4.21
471.601	4.3
471.803	4.47
472.005	3.97
472.208	3.94
472.41	3.8
472.612	3.79
472.814	4.22
473.016	4.19
473.218	4.45
473.421	4.47
473.623	4.94
473.825	5.13
474.027	5.06
474.229	5.47
474.431	5.02
474.633	5.3
474.835	5.45
475.037	4.91
475.239	4.79
475.441	4.5
475.643	4.45
475.845	4.14
476.047	4.09
476.249	3.98
476.451	3.85
476.653	4.3
476.855	4.38
477.057	4.62
477.258	4.41
477.46	4.33
477.662	4.13
477.864	4.11
478.066	4.31
478.268	4.14
478.469	4.09
478.671	4.06
478.873	4.2
479.075	4.18
479.276	4.08
479.478	4.23
479.68	4.38
479.882	4.81
480.083	4.89
480.285	4.67
480.487	4.8
480.688	4.68
480.89	4.62
481.091	4.42
481.293	4.12
481.495	4.2
481.696	4.28
481.898	4.21
482.099	3.95
482.301	4.02
482.502	4.02
482.704	3.86
482.905	3.87
483.107	3.8
483.308	3.7
483.51	3.85
483.711	3.67
483.913	3.68
484.114	3.72
484.315	3.84
484.517	3.65
484.718	3.65
484.92	3.78
485.121	3.86
485.322	3.9
485.524	3.99
485.725	3.95
485.926	4.09
486.127	4.08
486.329	3.99
486.53	3.95
486.731	4.04
486.932	3.97
487.134	3.97
487.335	3.86
487.536	3.9
487.737	4.04
487.938	4
488.139	3.95
488.341	3.86
488.542	3.93
488.743	3.91
488.944	3.78
489.145	3.98
489.346	4.15
489.547	4.28
489.748	4.22
489.949	3.93
490.15	3.98
490.351	3.94
490.552	4.1
490.753	4.16
490.954	4.17
491.155	4.39
491.356	4.28
491.557	3.98
491.758	4
491.959	3.95
492.159	4.13
492.36	4.16
492.561	4.24
492.762	4.14
492.963	4.14
493.164	4.35
493.364	4.46
493.565	4.59
493.766	4.98
493.967	4.93
494.167	5.1
494.368	4.99
494.569	4.98
494.769	5.26
494.97	5.3
495.171	5.15
495.371	5.08
495.572	4.76
495.773	4.51
495.973	4.43
496.174	4.41
496.375	4.68
496.575	4.58
496.776	4.26
496.976	4.18
497.177	4.04
497.377	4.01
497.578	3.97
497.778	3.84
497.979	4.14
498.179	4.18
498.38	4.51
498.58	4.45
498.78	4.91
498.981	5.54
499.181	5.33
499.382	5.69
499.582	5.67
499.782	5.41
499.983	6.02
500.183	5.88
500.383	6
500.584	5.98
500.784	5.88
500.984	5.99
501.184	5.79
501.385	5.93
501.585	5.4
501.785	5.79
501.985	5.86
502.185	5.54
502.386	5.65
502.586	5.96
502.786	5.54
502.986	5.47
503.186	5.29
503.386	5.6
503.586	5.28
503.786	5.43
503.987	5.03
504.187	5.03
504.387	5.05
504.587	5.17
504.787	4.85
504.987	4.97
505.187	5.19
505.387	5.06
505.587	4.77
505.786	4.98
505.986	5.14
506.186	5.44
506.386	5.38
506.586	5.53
506.786	5.09
506.986	5.3
507.186	5.5
507.386	5.65
507.585	5.59
507.785	5.74
507.985	5.65
508.185	5.8
508.384	5.73
508.584	6.19
508.784	6.27
508.984	6.47
509.183	6.45
509.383	6.4
509.583	6.37
509.782	6.69
509.982	6.58
510.182	6.86
510.381	6.82
510.581	7.02
510.781	6.63
510.98	6.25
511.18	6.16
511.379	5.9
511.579	5.75
511.778	5.84
511.978	5.82
512.177	5.86
512.377	5.9
512.576	5.91
512.776	5.85
512.975	6.38
513.175	6.83
513.374	7.12
513.573	7.35
513.773	7.54
513.972	7.49
514.172	7.55
514.371	7.5
514.57	7.41
514.77	7.54
514.969	7.51
515.168	7.3
515.367	7.45
515.567	7.3
515.766	7.58
515.965	7.62
516.164	7.54
516.364	7.6
516.563	7.72
516.762	7.85
516.961	7.99
517.16	8.03
517.359	8.32
517.559	8.3
517.758	8.52
517.957	8.35
518.156	8.36
518.355	8.52
518.554	8.72
518.753	8.61
518.952	8.62
519.151	8.6
519.35	8.71
519.549	8.57
519.748	8.51
519.947	8.59
520.146	8.71
520.345	9.11
520.544	9.17
520.743	9.24
520.942	9.71
521.141	9.91
521.339	10.01
521.538	9.95
521.737	10.28
521.936	10.08
522.135	10.34
522.333	10.59
522.532	10.14
522.731	10.2
522.93	10.08
523.129	9.98
523.327	9.84
523.526	10.02
523.725	10.43
523.923	10.56
524.122	10.79
524.321	10.66
524.519	10.5
524.718	10.86
524.917	10.77
525.115	10.74
525.314	10.84
525.512	11.16
525.711	11.28
525.909	11.04
526.108	10.99
526.306	11.08
526.505	11.17
526.703	11.42
526.902	11.48
527.1	11.55
527.299	11.51
527.497	11.51
527.696	11.5
527.894	11.52
528.092	11.67
528.291	11.65
528.489	11.59
528.688	11.69
528.886	11.64
529.084	11.62
529.283	11.61
529.481	11.73
529.679	11.72
529.877	11.65
530.076	11.67
530.274	11.69
530.472	11.58
530.67	11.9
530.869	11.8
531.067	11.88
531.265	11.93
531.463	12.01
531.661	12.2
531.859	12.49
532.057	12.57
532.255	12.62
532.454	12.59
532.652	12.73
532.85	12.71
533.048	12.67
533.246	12.68
533.444	12.92
533.642	12.95
533.84	12.94
534.038	12.63
534.236	12.73
534.434	12.73
534.632	12.98
534.83	13.15
535.027	13.25
535.225	13.58
535.423	13.54
535.621	13.38
535.819	13.54
536.017	13.36
536.215	13.56
536.412	13.52
536.61	13.63
536.808	13.44
537.006	13.12
537.203	13.26
537.401	13.15
537.599	13.61
537.797	13.41
537.994	13.34
538.192	13.6
538.39	13.62
538.587	13.75
538.785	13.59
538.983	13.57
539.18	13.95
539.378	13.86
539.575	13.79
539.773	13.61
539.97	13.85
540.168	13.85
540.366	13.83
540.563	13.88
540.761	13.97
540.958	13.94
541.155	14.07
541.353	14.07
541.55	14.03
541.748	14.09
541.945	14.08
542.143	14.33
542.34	14.54
542.537	14.66
542.735	14.7
542.932	14.7
543.129	14.83
543.327	14.77
543.524	14.7
543.721	14.75
543.919	14.71
544.116	14.86
544.313	14.65
544.51	14.48
544.708	14.45
544.905	14.46
545.102	14.45
545.299	14.73
545.496	15.03
545.693	15.31
545.891	15.39
546.088	15.52
546.285	15.6
546.482	15.54
546.679	15.65
546.876	15.94
547.073	15.79
547.27	16.02
547.467	16.34
547.664	16.05
547.861	15.81
548.058	15.63
548.255	15.69
548.452	15.66
548.649	15.76
548.846	15.95
549.043	15.84
549.24	16.46
549.437	16.26
549.633	15.63
549.83	15.86
550.027	16.24
550.224	16.68
550.421	17.09
550.618	17.07
550.814	16.69
551.011	16.82
551.208	16.48
551.405	16.1
551.601	16.29
551.798	16.18
551.995	16.4
552.191	16.59
552.388	16.56
552.585	16.33
552.781	16.52
552.978	16.8
553.175	16.6
553.371	17.03
553.568	17.35
553.764	17.01
553.961	17.5
554.157	17.2
554.354	16.74
554.55	16.73
554.747	16.62
554.943	16.29
555.14	16.09
555.336	16.52
555.533	16.33
555.729	16.24
555.926	16.3
556.122	16.43
556.318	16.81
556.515	17.41
556.711	17.18
556.907	17.31
557.104	18.07
557.3	18.61
557.496	18.79
557.693	18.6
557.889	18.97
558.085	19.31
558.281	18.97
558.478	18.96
558.674	18.75
558.87	19.03
559.066	19.33
559.262	18.99
559.459	18.77
559.655	18.61
559.851	19.13
560.047	19.23
560.243	19.82
560.439	20.35
560.635	20.64
560.831	20.48
561.027	20.67
561.223	20.28
561.419	20.13
561.615	20.26
561.811	20.14
562.007	20.16
562.203	20.11
562.399	19.33
562.595	19.16
562.791	18.92
562.987	18.82
563.183	18.61
563.379	19.29
563.575	19.41
563.771	19.87
563.966	19.81
564.162	19.68
564.358	19.67
564.554	20.1
564.75	20.12
564.945	20.41
565.141	20.69
565.337	20.44
565.533	20.19
565.728	20.33
565.924	19.63
566.12	19.75
566.315	20
566.511	19.91
566.707	19.78
566.902	19.73
567.098	19.42
567.293	19.39
567.489	19.87
567.684	19.89
567.88	19.65
568.076	19.79
568.271	19.8
568.467	20.01
568.662	20.09
568.858	20.1
569.053	19.96
569.248	19.86
569.444	19.97
569.639	20.08
569.835	20.25
570.03	20.62
570.225	20.55
570.421	20.44
570.616	20.1
570.812	20.28
571.007	20.5
571.202	20.82
571.397	20.93
571.593	20.85
571.788	20.72
571.983	20.79
572.178	20.07
572.374	20.38
572.569	20.26
572.764	20.18
572.959	20.39
573.154	20.19
573.35	19.95
573.545	20.34
573.74	20.33
573.935	20.41
574.13	20.09
574.325	20.84
574.52	21.2
574.715	22.04
574.91	22.22
575.105	21.66
575.3	22.08
575.495	21.9
575.69	21.69
575.885	21.71
576.08	21.76
576.275	22.17
576.47	22.08
576.665	21.94
576.86	21.37
577.055	21.75
577.25	22.12
577.444	22.03
577.639	22.5
577.834	22.79
578.029	23.52
578.224	23.66
578.418	23.57
578.613	23.84
578.808	23.58
579.003	23.57
579.197	22.83
579.392	23.18
579.587	23.33
579.781	23.27
579.976	22.9
580.171	22.38
580.365	21.72
580.56	22.13
580.755	21.99
580.949	22.26
581.144	22.25
581.338	22.75
581.533	22.38
581.727	21.85
581.922	22.17
582.116	22.35
582.311	22.15
582.505	22.85
582.7	22.77
582.894	23.06
583.089	22.75
583.283	22.66
583.478	22.78
583.672	22.94
583.866	23.32
584.061	22.98
584.255	22.85
584.449	22.8
584.644	23.05
584.838	22.72
585.032	22.28
585.226	22.52
585.421	22.55
585.615	22.76
585.809	23.14
586.003	23.14
586.198	23.37
586.392	23.91
586.586	24
586.78	23.4
586.974	23.52
587.168	23.66
587.363	23.68
587.557	23.89
587.751	24.15
587.945	23.72
588.139	23.87
588.333	23.7
588.527	23.9
588.721	23.83
588.915	24.01
589.109	24.44
589.303	24.19
589.497	24.06
589.691	24.13
589.885	23.61
590.079	23.94
590.273	23.88
590.466	24.01
590.66	23.7
590.854	23.43
591.048	23.08
591.242	22.91
591.436	22.88
591.629	23.02
591.823	22.69
592.017	22.8
592.211	23.13
592.404	23.01
592.598	22.86
592.792	22.95
592.986	23.23
593.179	23.71
593.373	23.58
593.567	23.52
593.76	23.64
593.954	23.81
594.147	23.91
594.341	23.23
594.535	23.63
594.728	23.77
594.922	23.58
595.115	23.75
595.309	23.75
595.502	23.72
595.696	24.23
595.889	24.24
596.083	24.39
596.276	24.08
596.47	24.1
596.663	23.79
596.856	23.66
597.05	23.54
597.243	23.71
597.437	24.13
597.63	24.36
597.823	24.22
598.017	24.24
598.21	24.17
598.403	24.57
598.596	25.01
598.79	25.15
598.983	25.43
599.176	25.97
599.369	26.05
599.563	25.86
599.756	25.91
599.949	25.86
600.142	25.87
600.335	26.33
600.528	26.12
600.722	25.99
600.915	25.98
601.108	26.08
601.301	25.66
601.494	25.29
601.687	25.17
601.88	24.47
602.073	24.47
602.266	24.31
602.459	23.58
602.652	23.75
602.845	23.88
603.038	23.83
603.231	23.63
603.424	23.73
603.617	24.11
603.809	24
604.002	24.21
604.195	23.64
604.388	24.04
604.581	24.37
604.774	24.39
604.966	24.21
605.159	23.89
605.352	23.79
605.545	23.66
605.737	23.43
605.93	23.76
606.123	23.83
606.316	24.09
606.508	23.77
606.701	24.14
606.894	23.77
607.086	24.36
607.279	24.62
607.471	24.96
607.664	25.2
607.857	25.07
608.049	25.34
608.242	25.57
608.434	26.09
608.627	26.23
608.819	26.17
609.012	26.44
609.204	25.9
609.397	25.49
609.589	25.36
609.782	25.32
609.974	25.56
610.166	24.98
610.359	24.77
610.551	25.32
610.743	25.02
610.936	24.23
611.128	24.08
611.32	24.05
611.513	24.81
611.705	24.66
611.897	24.66
612.09	24.98
612.282	25.07
612.474	24.24
612.666	23.45
612.858	23.4
613.051	23.5
613.243	23.57
613.435	23.99
613.627	24.03
613.819	23.91
614.011	23.18
614.203	22.74
614.395	23.03
614.588	24.19
614.78	24.73
614.972	25.16
615.164	26.01
615.356	26.02
615.548	25.9
615.74	26.32
615.932	26.62
616.124	27.17
616.315	27.16
616.507	26.93
616.699	27.03
616.891	26.6
617.083	26.18
617.275	25.6
617.467	26.32
617.659	26.17
617.85	25.34
618.042	25.54
618.234	25.38
618.426	25.53
618.618	25.58
618.809	25.6
619.001	25.7
619.193	26.21
619.384	26.76
619.576	26.67
619.768	26.79
619.959	27.21
620.151	26.86
620.343	27.29
620.534	26.47
620.726	26.73
620.917	26.84
621.109	27.51
621.301	27.5
621.492	27.31
621.684	26.85
621.875	26.34
622.067	26.63
622.258	26.06
622.45	26.01
622.641	26.32
622.832	25.8
623.024	25.24
623.215	24.69
623.407	24.81
623.598	24.03
623.789	24.34
623.981	25.19
624.172	24.68
624.363	25.54
624.555	25.81
624.746	26.21
624.937	26.29
625.129	26.28
625.32	26.2
625.511	26.19
625.702	27.03
625.893	26.84
626.085	26.6
626.276	26.5
626.467	26.19
626.658	25.83
626.849	25.89
627.04	26.33
627.231	26.86
627.422	27.16
627.614	27.48
627.805	27.63
627.996	27.87
628.187	27.82
628.378	28.04
628.569	27.79
628.76	27.54
628.951	27.48
629.142	27.31
629.332	26.77
629.523	26.62
629.714	25.86
629.905	25.84
630.096	25.75
630.287	26.16
630.478	26.44
630.669	27.33
630.859	27.61
631.05	27.7
631.241	28.11
631.432	28.27
631.623	28.62
631.813	28.84
632.004	29.06
632.195	29.2
632.385	28.51
632.576	28.47
632.767	27.76
632.957	28.51
633.148	28
633.339	27.12
633.529	27.16
633.72	26.77
633.91	27.05
634.101	26.8
634.292	26.55
634.482	27.14
634.673	27.4
634.863	28.22
635.054	27.49
635.244	27.9
635.435	28.07
635.625	28.35
635.815	28.28
636.006	28.43
636.196	28.42
636.387	28.54
636.577	27.96
636.767	27.48
636.958	27.39
637.148	27.21
637.338	27.46
637.529	27.69
637.719	27.41
637.909	27.37
638.099	27.08
638.29	26.89
638.48	26.84
638.67	27.14
638.86	27.41
639.05	26.92
639.241	27.46
639.431	27.91
639.621	28.46
639.811	28.8
640.001	28.75
640.191	28.73
640.381	29.13
640.571	29
640.761	28.86
640.951	29.14
641.141	29.3
641.331	29.62
641.521	29.73
641.711	29.61
641.901	29.12
642.091	29.49
642.281	29.49
642.471	28.76
642.661	28.63
642.851	28.63
643.041	27.65
643.231	27.81
643.42	27.64
643.61	27.4
643.8	26.84
643.99	27.3
644.18	26.86
644.369	26.68
644.559	27.69
644.749	27.67
644.939	28.24
645.128	28.57
645.318	28.33
645.508	27.83
645.697	27.45
645.887	27.52
646.076	27
646.266	27.08
646.456	27.15
646.645	26.74
646.835	27
647.024	25.49
647.214	26.04
647.403	26.36
647.593	27.26
647.782	26.76
647.972	26.77
648.161	27.19
648.351	27.78
648.54	28.32
648.73	28.51
648.919	28.82
649.108	29.98
649.298	29.92
649.487	29.48
649.677	28.74
649.866	29.17
650.055	29.11
650.244	28.73
650.434	28.35
650.623	28.06
650.812	27.95
651.002	27.94
651.191	28.26
651.38	28.35
651.569	28.96
651.758	29.09
651.947	29.05
652.137	29.53
652.326	30.3
652.515	30.71
652.704	30.83
652.893	30.98
653.082	30.93
653.271	31.43
653.46	30.9
653.649	30.5
653.838	30.9
654.027	31.48
654.216	32.31
654.405	31.54
654.594	30.64
654.783	29.88
654.972	29.08
655.161	28.13
655.35	27.39
655.539	27.56
655.728	27.17
655.916	26.56
656.105	26.07
656.294	25.48
656.483	25.92
656.672	25.86
656.86	26.36
657.049	27.4
657.238	27.53
657.427	27.22
657.615	26.99
657.804	27.39
657.993	27.78
658.181	27.47
658.37	27.6
658.559	27.54
658.747	28.42
658.936	28.31
659.125	26.53
659.313	27.07
659.502	26.87
659.69	27.64
659.879	27.5
660.067	28.12
660.256	28.36
660.444	27.61
660.633	27.46
660.821	26.35
661.01	26.68
661.198	27.86
661.387	27.81
661.575	29.1
661.763	28.13
661.952	27.65
662.14	27.81
662.328	27.8
662.517	28.32
662.705	28.69
662.893	28.54
663.082	28.21
663.27	28.78
663.458	28.99
663.646	29
663.834	30.06
664.023	31.92
664.211	30.43
664.399	30.85
664.587	31.23
664.775	31.36
664.963	32.76
665.152	33.34
665.34	32.89
665.528	32.57
665.716	32.12
665.904	30.89
666.092	29.38
666.28	29.94
666.468	30.48
666.656	29.71
666.844	29.8
667.032	29.32
667.22	29.31
667.408	29.14
667.596	29.58
667.784	28.8
667.971	29.52
668.159	30.83
668.347	30.15
668.535	29.95
668.723	31.24
668.911	30.93
669.098	31.38
669.286	30.29
669.474	29.9
669.662	29.37
669.849	29.57
670.037	30.38
670.225	29.61
670.413	30.6
670.6	30.07
670.788	28.36
670.976	27.8
671.163	27.59
671.351	28.28
671.538	29.55
671.726	30.03
671.913	29.63
672.101	28.67
672.289	27.96
672.476	28.88
672.664	28.65
672.851	29.2
673.039	30.05
673.226	29.32
673.413	29.31
673.601	28.84
673.788	28.46
673.976	28.58
674.163	29.71
674.35	31.32
674.538	29.71
674.725	29.9
674.912	29.76
675.1	29.77
675.287	29.97
675.474	30.37
675.662	30.26
675.849	30.82
676.036	31.12
676.223	29.7
676.411	28.15
676.598	27.72
676.785	27.97
676.972	29.45
677.159	28.56
677.346	29.19
677.533	27.83
677.721	27.41
677.908	27.63
678.095	27.98
678.282	28.89
678.469	29.91
678.656	31.11
678.843	30.39
679.03	29.6
679.217	30.16
679.404	29.94
679.591	30.53
679.778	31.13
679.964	30.62
680.151	31.03
680.338	30.82
680.525	30.8
680.712	30.46
680.899	31.11
681.086	30.92
681.272	31.8
681.459	32.36
681.646	33.21
681.833	33.26
682.02	32.85
682.206	31.3
682.393	31.76
682.58	30.92
682.766	30.91
682.953	30.52
683.14	30.63
683.326	29
683.513	28.03
683.7	27.11
683.886	26.45
684.073	27.05
684.259	28.23
684.446	27.93
684.632	28.09
684.819	27.66
685.005	28
685.192	28.12
685.378	27.76
685.565	28.33
685.751	28.93
685.938	30.17
686.124	30.13
686.31	30.18
686.497	30.24
686.683	30.77
686.87	32.06
687.056	32.22
687.242	32.33
687.429	33.53
687.615	33.58
687.801	33.74
687.987	34.01
688.174	34.47
688.36	34.12
688.546	33.56
688.732	33.33
688.918	32.05
689.105	31.19
689.291	31.35
689.477	31.18
689.663	31.55
689.849	31.33
690.035	31.35
690.221	32.02
690.407	31.71
690.593	32.19
690.779	32.04
690.965	32.05
691.151	33.49
691.337	33.53
691.523	32.88
691.709	32.39
691.895	31.47
692.081	31
692.267	30.39
692.453	30.37
692.639	31.38
692.825	32.05
693.011	32.01
693.196	30.82
693.382	30.56
693.568	31.77
693.754	31.32
693.94	31.67
694.125	31.34
694.311	31.01
694.497	32.14
694.682	31.06
694.868	31.42
695.054	32.39
695.239	32.26
695.425	32.21
695.611	31.5
695.796	31.45
695.982	30.66
696.168	30.33
696.353	30.77
696.539	29.89
696.724	30.07
696.91	30.49
697.095	29.76
697.281	30.55
697.466	30.62
697.652	30.05
697.837	30.08
698.023	30.85
698.208	31.25
698.393	30.86
698.579	31.06
698.764	30.45
698.949	29.71
699.135	29.83
699.32	28.8
699.505	28.68
699.691	30.03
699.876	31.12
700.061	31.41
700.246	31.01
700.432	31.96
700.617	32.94
700.802	33.63
700.987	34.32
701.172	34.62
701.358	34.34
701.543	34.46
701.728	33.11
701.913	31.4
702.098	30.04
702.283	31.4
702.468	29.24
702.653	28.28
702.838	27.05
703.023	26.88
703.208	26.54
703.393	28.66
703.578	28.96
703.763	30.34
703.948	31.09
704.133	32.27
704.318	30.96
704.503	32.09
704.688	32.15
704.873	33.46
705.057	32.09
705.242	31.89
705.427	30.92
705.612	28.16
705.797	27.75
705.981	28.21
706.166	28.1
706.351	28.33
706.536	28.85
706.72	30.43
706.905	30.73
707.09	31.37
707.274	31.68
707.459	32.7
707.644	34.3
707.828	33.18
708.013	31.63
708.197	32.12
708.382	32.63
708.567	32.29
708.751	29.72
708.936	30.33
709.12	30.85
709.305	30.81
709.489	31.03
709.673	31.54
709.858	32.21
710.042	34.02
710.227	32.46
710.411	32.03
710.596	32.29
710.78	33.25
710.964	31.66
711.149	30.43
711.333	30.31
711.517	29.78
711.702	31.53
711.886	31.29
712.07	30.29
712.254	31.97
712.438	32.48
712.623	31.86
712.807	31.7
712.991	32.53
713.175	33.75
713.359	34.16
713.544	33.12
713.728	32.03
713.912	32.62
714.096	33.95
714.28	32.79
714.464	32.51
714.648	32.51
714.832	33.05
715.016	33.69
715.2	31.79
715.384	31.14
715.568	31.92
715.752	31.13
715.936	30.51
716.12	30.36
716.304	30.24
716.488	31.28
716.671	30.49
716.855	30.15
717.039	28.59
717.223	29.22
717.407	29
717.59	29.72
717.774	29.88
717.958	30.17
718.142	28.06
718.325	29.98
718.509	29.87
718.693	30.55
718.877	30.53
719.06	32.86
719.244	35.78
719.428	36.66
719.611	35.6
719.795	35.52
719.978	35.34
720.162	36.53
720.345	35.4
720.529	34.77
720.713	35.44
720.896	34.6
721.08	34.6
721.263	32.11
721.446	32.12
721.63	32.69
721.813	33.44
721.997	34.73
722.18	34.65
722.364	35.66
722.547	33.83
722.73	32.71
722.914	34.88
723.097	31.56
723.28	33.5
723.464	33.93
723.647	32.85
723.83	32.82
724.013	33.15
724.197	32.21
724.38	32.4
724.563	32.6
724.746	34.16
724.929	32.55
725.112	35.36
725.296	33.22
725.479	31.97
725.662	32.51
725.845	31.56
726.028	30.94
726.211	31.96
726.394	33.21
726.577	34.02
726.76	33.46
726.943	34.2
727.126	32.75
727.309	34.06
727.492	34.91
727.675	34.91
727.858	35.57
728.041	35.72
728.224	35.24
728.407	35.62
728.589	36.57
728.772	36.61
728.955	36.73
729.138	36.55
729.321	36.03
729.503	37
729.686	37.13
729.869	37.84
730.052	38.97
730.234	39.64
730.417	37.34
730.6	36.57
730.782	35.7
730.965	35.73
731.148	37.68
731.33	37.11
731.513	37.22
731.695	37.6
731.878	37.04
732.061	34.51
732.243	34.66
732.426	33.73
732.608	34.38
732.791	36.08
732.973	36.04
733.156	34.61
733.338	35.72
733.52	33.2
733.703	32.65
733.885	31.92
734.068	31.87
734.25	28.81
734.432	31.23
734.615	29.5
734.797	28.61
734.979	28.34
735.162	30.49
735.344	28.83
735.526	29.65
735.708	31.69
735.891	32.38
736.073	33.94
736.255	37.65
736.437	35.91
736.619	37.34
736.802	39.09
736.984	38.63
737.166	34.82
737.348	34.69
737.53	34.83
737.712	32.58
737.894	34.13
738.076	33.88
738.258	32.38
738.44	33.74
738.622	32.65
738.804	31.76
738.986	33.49
739.168	35.63
739.35	37.39
739.532	37.86
739.714	39.08
739.896	38.62
740.078	39.25
740.259	39.87
740.441	38.68
740.623	40.1
740.805	38.58
740.987	37.59
741.168	37.82
741.35	39.31
741.532	41.05
741.714	39.76
741.895	39.54
742.077	39.35
742.259	39.05
742.44	39.42
742.622	38.88
742.804	39.1
742.985	37.92
743.167	36.38
743.348	34.41
743.53	31.59
743.711	32.91
743.893	32.32
744.075	32.67
744.256	32.82
744.438	33.07
744.619	34.64
744.8	33.71
744.982	37.23
745.163	40.56
745.345	39.17
745.526	41.22
745.707	39.64
745.889	41.76
746.07	42.28
746.252	43.98
746.433	43.91
746.614	41.59
746.795	43.95
746.977	41.04
747.158	38.13
747.339	38.61
747.52	36.42
747.702	37.42
747.883	35.11
748.064	34.04
748.245	35.73
748.426	33.91
748.607	35.52
748.788	33.86
748.97	32.79
749.151	32.26
749.332	32.29
749.513	35.21
749.694	36.66
749.875	36.54
750.056	35.92
750.237	32.41
750.418	34.37
750.599	31.85
750.78	33.66
750.96	35.15
751.141	37.94
751.322	41.59
751.503	40.24
751.684	41.1
751.865	42.46
752.046	42.32
752.226	42.52
752.407	43.33
752.588	44.73
752.769	43.57
752.949	44.4
753.13	44.38
753.311	40.92
753.492	40.06
753.672	38.22
753.853	36.32
754.034	36.75
754.214	38.2
754.395	36.53
754.575	37.32
754.756	37.49
754.937	36.89
755.117	32.7
755.298	33.73
755.478	34.45
755.659	36.01
755.839	34.7
756.02	35.27
756.2	35.42
756.381	34.01
756.561	33.17
756.741	34.02
756.922	31.62
757.102	34.7
757.283	35.35
757.463	33.9
757.643	33.24
757.823	37.37
758.004	35.77
758.184	34.14
758.364	35.48
758.545	34.61
758.725	33.4
758.905	35.23
759.085	33.33
759.265	33.11
759.446	36.52
759.626	35.34
759.806	32.04
759.986	30.79
760.166	31.16
760.346	31.43
760.526	32.83
760.706	33.96
760.886	34.66
761.066	37.57
761.246	37.91
761.426	37.44
761.606	37.98
761.786	37.92
761.966	38.74
762.146	39.11
762.326	39.17
762.506	39.4
762.686	39.26
762.866	38.94
763.046	38.08
763.225	37.53
763.405	36.36
763.585	35.76
763.765	37.19
763.945	36.93
764.124	37.09
764.304	35.33
764.484	34.89
764.664	35.26
764.843	35.43
765.023	35.61
765.203	36.26
765.382	36.34
765.562	35.06
765.741	34.5
765.921	35.12
766.101	36.72
766.28	39.06
766.46	38.88
766.639	39.21
766.819	39.66
766.998	39.38
767.178	37.59
767.357	38.29
767.537	42.77
767.716	41.37
767.896	42.23
768.075	40.38
768.254	41.35
768.434	38.29
768.613	38.87
768.792	37.84
768.972	38.14
769.151	40.33
769.33	41.48
769.51	40.02
769.689	41.4
769.868	40.58
770.047	40.57
770.226	40.12
770.406	41
770.585	39.07
770.764	38.79
770.943	35.99
771.122	37.22
771.301	36.7
771.48	37.08
771.66	37.31
771.839	40.44
772.018	40.47
772.197	38.47
772.376	41.87
772.555	42.55
772.734	44.95
772.913	48.59
773.092	45.43
773.271	44.48
773.449	42.59
773.628	41.91
773.807	38.02
773.986	38.85
774.165	41.67
774.344	42.16
774.523	41.67
774.701	41.34
774.88	40.5
775.059	41.93
775.238	45.12
775.417	49.46
775.595	51.09
775.774	52.11
775.953	53.19
776.131	49.94
776.31	49.27
776.489	50.34
776.667	48.7
776.846	51.32
777.025	50.06
777.203	48.82
777.382	45.88
777.56	44.99
777.739	44.2
777.917	44.19
778.096	48.17
778.274	49.04
778.453	49.33
778.631	52.08
778.81	48.89
778.988	50.76
779.166	50.45
779.345	50.42
779.523	50.43
779.702	49.25
779.88	48.22
780.058	48.36
780.237	46.36
780.415	43.54
780.593	42
780.771	41.67
780.95	41.27
781.128	41.48
781.306	43.01
781.484	46.33
781.662	47.88
781.841	47.33
782.019	46.19
782.197	43.52
782.375	41.59
782.553	44.87
782.731	47.45
782.909	49.81
783.087	49.09
783.265	45.04
783.443	43.81
783.621	43.5
783.799	43.21
783.977	41.03
784.155	43.46
784.333	46.67
784.511	40.96
784.689	38.69
784.867	34.08
785.045	34.21
785.223	36.09
785.4	33.96
785.578	37.52
785.756	39.99
785.934	42.67
786.112	46.05
786.289	46.49
786.467	50.25
786.645	52.31
786.823	52.1
787	51.09
787.178	51.7
787.356	51.47
787.533	46.76
787.711	47.22
787.889	46.7
788.066	43.95
788.244	43.66
788.421	43.25
788.599	43.99
788.776	43.37
788.954	41.75
789.131	42.04
789.309	41.21
789.486	41.49
789.664	36.83
789.841	38.53
790.019	37.66
790.196	37.02
790.373	34.14
790.551	30.68
790.728	35.27
790.906	35.71
791.083	35.81
791.26	37.9
791.437	40.16
791.615	41.16
791.792	37.94
791.969	37.41
792.146	39.86
792.324	42.82
792.501	48.18
792.678	46.37
792.855	43.69
793.032	41.38
793.209	39.14
793.387	40.07
793.564	42.16
793.741	44.89
793.918	46.75
794.095	44.2
794.272	42.12
794.449	37.39
794.626	38.09
794.803	41.38
794.98	44.27
795.157	44.66
795.334	43.4
795.511	41.86
795.688	36.1
795.864	37.66
796.041	38.1
796.218	37.93
796.395	40.39
796.572	37.31
796.749	37.41
796.925	36.48
797.102	36.03
797.279	33.05
797.456	32.58
797.632	36.02
797.809	37.69
797.986	37.29
798.162	35.4
798.339	35.64
798.516	36.04
798.692	36.97
798.869	37.51
799.046	36.09
799.222	41.77
799.399	44.35
799.575	44.56
799.752	39.99
799.928	43.86
800.105	49.15
800.281	43.16
800.458	44.91
800.634	43.43
800.811	43.99
800.987	49.22
801.163	47.25
801.34	44.55
801.516	47.85
801.692	45.81
801.869	39.46
802.045	34.23
802.221	39.02
802.398	41
802.574	44.61
802.75	45.38
802.926	40.71
803.103	44.75
803.279	42.48
803.455	42.66
803.631	47.39
803.807	47.95
803.983	48.55
804.16	44.92
804.336	40.26
804.512	34.76
804.688	33.9
804.864	34.68
805.04	31.44
805.216	33.11
805.392	31.93
805.568	30.2
805.744	31.95
805.92	35.91
806.096	38.35
806.272	41.2
806.448	43.37
806.623	40.58
806.799	41.77
806.975	38.62
807.151	41.23
807.327	38.19
807.503	36.14
807.678	36.77
807.854	36.18
808.03	36.07
808.206	36.71
808.381	38.48
808.557	41.76
808.733	40.95
808.908	42.15
809.084	42.14
809.26	43.26
809.435	46.48
809.611	43.87
809.787	46.21
809.962	43.49
810.138	42.34
810.313	37.65
810.489	36.11
810.664	35.71
810.84	36.09
811.015	35.21
811.191	34.96
811.366	34.5
811.542	37.03
811.717	32.16
811.892	33.52
812.068	31.68
812.243	37.12
812.419	36.27
812.594	37.88
812.769	41.21
812.944	37.56
813.12	33.9
813.295	34.03
813.47	33.9
813.645	38.99
813.821	41.26
813.996	43.75
814.171	39.94
814.346	38.94
814.521	42.74
814.697	44.59
814.872	47.25
815.047	50.95
815.222	51.06
815.397	47.29
815.572	44.16
815.747	45.1
815.922	40.45
816.097	41.85
816.272	45.34
816.447	39.72
816.622	35.7
816.797	37.59
816.972	37.76
817.147	36.67
817.322	39.79
817.496	41.99
817.671	39.98
817.846	43.2
818.021	45.01
818.196	43.72
818.371	43.01
818.545	44.8
818.72	43.76
818.895	45.07
819.069	44.98
819.244	43.71
819.419	41.66
819.594	40.41
819.768	38.8
819.943	36.87
820.117	34.74
820.292	34.6
820.467	33.62
820.641	32.7
820.816	31.46
820.99	30.7
821.165	30.06
821.339	29.63
821.514	29.32
821.688	29.14
821.863	28.77
822.037	29.12
822.212	28.85
822.386	28.02
822.56	28.09
822.735	27.43
822.909	27.15
823.084	26.81
823.258	26.33
823.432	26.24
823.606	25.83
823.781	25.63
823.955	24.96
824.129	25.04
824.303	25.88
824.478	26.55
824.652	26.09
824.826	25.92
825	27.26
825.174	28.62
825.348	29.17
825.523	29.56
825.697	29.23
825.871	29.64
826.045	30.93
826.219	30.34
826.393	31.23
826.567	31.72
826.741	32.78
826.915	32.44
827.089	32.19
827.263	32.16
827.437	33.51
827.611	34.56
827.784	33.76
827.958	31.76
828.132	31.86
828.306	29.84
828.48	29.98
828.654	30.37
828.827	30.98
829.001	29.23
829.175	28.98
829.349	26.84
829.522	27.51
829.696	29.46
829.87	29.58
830.044	31.07
830.217	31.96
830.391	33.84
830.565	31.81
830.738	32.29
830.912	35.46
831.085	35.52
831.259	36.1
831.432	37.48
831.606	36.52
831.779	37.17
831.953	36.42
832.126	36.18
832.3	31.42
832.473	34.64
832.647	33.9
832.82	31.12
832.994	30.41
833.167	28.61
833.34	26.71
833.514	27.61
833.687	28.58
833.86	26.73
834.034	27.2
834.207	31.13
834.38	30.57
834.553	28.82
834.727	32.53
834.9	32.11
835.073	32.93
835.246	31.61
835.419	30.8
835.593	29.36
835.766	31.49
835.939	30.16
836.112	30.95
836.285	26.85
836.458	27.44
836.631	23.07
836.804	27.18
836.977	31.55
837.15	37.95
837.323	37.32
837.496	39.94
837.669	38.86
837.842	33.75
838.015	31.84
838.188	33.22
838.361	36.82
838.533	37.14
838.706	32.57
838.879	32.46
839.052	31.57
839.225	37.15
839.398	36.37
839.57	37.79
839.743	43.83
839.916	47.87
840.088	51.16
840.261	48.44
840.434	50.38
840.607	52.41
840.779	52.46
840.952	54.59
841.124	48.12
841.297	51.73
841.47	52.84
841.642	51.36
841.815	49.15
841.987	45.61
842.16	46.57
842.332	48.59
842.505	47.9
842.677	47.69
842.85	44.54
843.022	43.8
843.194	44.15
843.367	42.49
843.539	45.78
843.712	45.29
843.884	49.21
844.056	56.39
844.229	58.93
844.401	57.51
844.573	55.66
844.745	52.64
844.918	54.56
845.09	51.59
845.262	50.85
845.434	42.91
845.606	38.71
845.779	35.73
845.951	36.3
846.123	21.59
846.295	24.21
846.467	21.66
846.639	20.94
846.811	18.08
846.983	29.26
847.155	29.61
847.327	34.62
847.499	34.84
847.671	43.07
847.843	35.15
848.015	40.43
848.187	43.03
848.359	48.24
848.531	51.95
848.703	45.27
848.875	36.54
849.047	45.94
849.218	43.41
849.39	48.47
849.562	42.58
849.734	39.95
849.905	41.31
850.077	49.78
850.249	52.27
850.421	54.32
850.592	77.79
850.764	74.82
850.936	63.12
851.107	70.38
851.279	72.97
851.451	73.1
851.622	69.79
851.794	73.47
851.965	69.7
852.137	65.54
852.308	69.5
852.48	65.81
852.651	61.62
852.823	64.76
852.994	61.37
853.166	55.17
853.337	54.04
853.509	46.56
853.68	55.2
853.851	51.67
854.023	59.31
854.194	44.44
854.365	42.23
854.537	41.86
854.708	40.58
854.879	43.36
855.05	44.36
855.222	37.14
855.393	50.17
855.564	39.38
855.735	39.69
855.906	40.02
856.078	43.42
856.249	47.07
856.42	70.6
856.591	69.08
856.762	66.84
856.933	68.77
857.104	77.44
857.275	77.95
857.446	82.79
857.617	83.73
857.788	82.96
857.959	83.06
858.13	83.34
858.301	58.59
858.472	60.54
858.643	69.9
858.814	65.15
858.985	71.02
859.155	76.41
859.326	81.52
859.497	67.25
859.668	65.19
859.839	64.47
860.009	56.44
860.18	72.66
860.351	72.43
860.522	54.63
860.692	58.59
860.863	59.07
861.034	60.38
861.204	63.13
861.375	78.54
861.546	74.43
861.716	72.08
861.887	79.14
862.057	70.35
862.228	69.94
862.398	67.81
862.569	67.5
862.739	64.47
862.91	63.48
863.08	47.16
863.251	49.65
863.421	42.03
863.592	52.23
863.762	49.08
863.932	39.57
864.103	40.91
864.273	35.76
864.443	41.54
864.614	37.6
864.784	39.68
864.954	44.56
865.125	45.87
865.295	46.56
865.465	34.13
865.635	40.07
865.805	53.12
865.976	50
866.146	58.9
866.316	49.88
866.486	53.44
866.656	48.54
866.826	52.25
866.996	53.19
867.166	59.99
867.336	61.65
867.506	55.03
867.676	52.89
867.846	43.99
868.016	38.16
868.186	35.19
868.356	41.52
868.526	48.67
868.696	42.4
868.866	33.44
869.036	51.69
869.206	46.62
869.376	50.97
869.545	58.05
869.715	86.58
869.885	85.22
870.055	95.93
870.224	85.68
870.394	79.53
870.564	78.68
870.734	74.75
870.903	57.35
871.073	52.88
871.243	51.26
871.412	52.34
871.582	49.1
871.751	48.61
871.921	41.45
872.091	39.15
872.26	33.45
872.43	41.86
872.599	48.77
872.769	40.87
872.938	36.2
873.108	40.95
873.277	30.92
873.446	23.16
873.616	17.41
873.785	28.34
873.955	35.4
874.124	37.76
874.293	33.29
874.463	35.65
874.632	42.3
874.801	57.34
874.971	51.9
875.14	47.15
875.309	44.41
875.478	45.26
875.647	53.5
875.817	56.43
875.986	57.47
876.155	63.07
876.324	64.07
876.493	54.19
876.662	52.05
876.831	51.46
877	57.15
877.17	61.64
877.339	57.71
877.508	49.81
877.677	43.73
877.846	45.04
878.015	36.66
878.184	29.37
878.352	36.45
878.521	35.19
878.69	35.49
878.859	38.05
879.028	32.05
879.197	39.07
879.366	40.21
879.534	44.23
879.703	41.43
879.872	40.64
880.041	41.99
880.21	41.02
880.378	37.98
880.547	37.57
880.716	35.5
880.884	37.53
881.053	33.86
881.222	31.68
881.39	29.09
881.559	28.34
881.727	26.14
881.896	25.11
882.065	25.68
882.233	25.71
882.402	25.3
882.57	24.05
882.739	21.68
882.907	22.16
883.076	23.4
883.244	21.46
883.412	22.44
883.581	24.63
883.749	24.62
883.918	22.78
884.086	21.88
884.254	20.43
884.423	20.32
884.591	19.2
884.759	18.88
884.927	17.41
885.096	21.74
885.264	17.73
885.432	15.22
885.6	17.63
885.769	18.34
885.937	21.17
886.105	24.12
886.273	23.5
886.441	23.04
886.609	19.77
886.777	11.39
886.945	5.59
887.113	7.85
887.281	14.56
887.449	7.32
887.617	8.22
887.785	8.29
887.953	7.31
888.121	8.4
888.289	9.6
888.457	5.85
888.625	14.78
888.793	12.26
888.961	14.37
889.129	8.18
889.296	20.36
889.464	17.3
889.632	13.31
889.8	12.44
889.967	14.03
890.135	22.91
