Data from JASIL_3205_Reflection_02.txt Node
Date: Fri Nov 13 14:38:10 EST 2015
User: Geneva
Spectrometer: USB4E03002
Autoset integration time: false
Trigger mode: 4
Integration Time (sec): 1.000000E-1
Scans to average: 10
Electric dark correction enabled: false
Nonlinearity correction enabled: false
Boxcar width: 5
Stray light correction enabled: false
XAxis mode: Wavelengths
Stop averaging: false
Number of Pixels in Spectrum: 3648
>>>>>Begin Spectral Data<<<<<
177.575	85.49
177.794	88.73
178.014	93.44
178.233	93.94
178.452	97.98
178.672	97.78
178.891	106.68
179.11	116.79
179.33	125.37
179.549	124.07
179.768	126.62
179.987	121.72
180.207	119.65
180.426	123.68
180.645	123.33
180.864	127.48
181.084	124.98
181.303	117.99
181.522	114.72
181.741	109.52
181.96	110.55
182.179	108.13
182.398	107.13
182.618	112.63
182.837	104
183.056	107.56
183.275	103.59
183.494	106.64
183.713	110.87
183.932	109.65
184.151	113.35
184.37	118.79
184.589	119.19
184.808	123.33
185.027	121.22
185.246	123.68
185.465	118.48
185.684	124.13
185.903	124.2
186.122	124.14
186.341	122.26
186.56	121.58
186.779	117.42
186.998	118.96
187.216	124.23
187.435	118.94
187.654	122.2
187.873	125.27
188.092	121.43
188.311	120.62
188.53	120.18
188.748	117.07
188.967	117.17
189.186	114.95
189.405	116.44
189.623	111.84
189.842	113.48
190.061	109.82
190.28	109.14
190.498	108.61
190.717	110.22
190.936	107.24
191.154	113.03
191.373	111.13
191.592	115.99
191.81	112.12
192.029	108.72
192.248	113.32
192.466	116.78
192.685	115.51
192.904	116.41
193.122	114.59
193.341	115.85
193.559	112.05
193.778	114.06
193.996	106.57
194.215	114.14
194.433	119.09
194.652	115.25
194.87	114.37
195.089	111.75
195.307	113.54
195.526	116.51
195.744	117.13
195.963	118.62
196.181	114.12
196.399	116.09
196.618	111.44
196.836	105.71
197.055	104.38
197.273	104.11
197.491	105.04
197.71	101.28
197.928	102.21
198.146	99.31
198.365	99.22
198.583	102.48
198.801	101.32
199.019	99.65
199.238	103.26
199.456	105.58
199.674	103.92
199.892	104.74
200.111	105.48
200.329	102.8
200.547	106.36
200.765	104.52
200.983	106.7
201.202	109.12
201.42	116.76
201.638	119.36
201.856	114.04
202.074	119.49
202.292	124.2
202.51	126.49
202.728	121.9
202.946	122.36
203.165	125.64
203.383	123.61
203.601	122.68
203.819	113.73
204.037	110.31
204.255	114.93
204.473	111.27
204.691	105.39
204.909	102.51
205.127	109.07
205.345	106.36
205.562	106.11
205.78	103.56
205.998	110.96
206.216	124.42
206.434	123.12
206.652	121.76
206.87	117.37
207.088	127.03
207.306	126.41
207.523	121.61
207.741	120.46
207.959	114.11
208.177	115.78
208.395	110.48
208.612	110.52
208.83	112.15
209.048	113.36
209.266	121.56
209.483	113.18
209.701	116.05
209.919	114.06
210.136	126.12
210.354	133.82
210.572	132.03
210.79	135.53
211.007	131.94
211.225	132.15
211.442	134
211.66	129.61
211.878	132.24
212.095	118.38
212.313	121.46
212.53	114.45
212.748	114.56
212.966	116.55
213.183	120.98
213.401	121.02
213.618	124.84
213.836	127.62
214.053	129.42
214.271	125.74
214.488	142.03
214.705	141.89
214.923	143.32
215.14	142.98
215.358	144.76
215.575	134.14
215.793	136.88
216.01	139.32
216.227	128.31
216.445	119.5
216.662	131.33
216.879	124.98
217.097	125.87
217.314	133.78
217.531	137.26
217.749	133.17
217.966	131.13
218.183	127.16
218.4	124.06
218.618	127
218.835	132.21
219.052	126.87
219.269	136.4
219.487	136.01
219.704	131.69
219.921	128.52
220.138	133.1
220.355	128.45
220.572	126.96
220.79	122.69
221.007	117.37
221.224	117.16
221.441	117.35
221.658	114.49
221.875	116.4
222.092	115.09
222.309	111.89
222.526	110.37
222.743	117.91
222.96	115.46
223.177	115.36
223.394	120.27
223.611	120.16
223.828	119.53
224.045	113.03
224.262	106.22
224.479	102.5
224.696	102.19
224.913	97.61
225.13	93.95
225.347	95.7
225.564	92.33
225.781	92.11
225.997	87.43
226.214	86.1
226.431	91.92
226.648	90.26
226.865	90.18
227.082	91.95
227.298	88.49
227.515	89.32
227.732	84.26
227.949	83.06
228.165	79.4
228.382	82.73
228.599	79.92
228.816	77.02
229.032	77.44
229.249	78.84
229.466	77.11
229.682	80.21
229.899	79.95
230.116	81.85
230.332	85.78
230.549	90.07
230.765	88.91
230.982	93.73
231.199	91.78
231.415	91.62
231.632	89.52
231.848	91.22
232.065	94.75
232.281	91.58
232.498	91.14
232.714	93
232.931	88.23
233.147	83.33
233.364	82.55
233.58	81.56
233.797	81.05
234.013	79.84
234.23	83.2
234.446	81.66
234.662	84.81
234.879	88.06
235.095	83.83
235.312	86.78
235.528	92.29
235.744	93.03
235.961	93.06
236.177	97.05
236.393	99.02
236.61	93.18
236.826	91.38
237.042	95.12
237.258	89.54
237.475	92.31
237.691	90.63
237.907	89.78
238.123	89.55
238.339	91.53
238.556	89.4
238.772	87.28
238.988	88.95
239.204	91.41
239.42	88.09
239.636	90.65
239.853	90.46
240.069	90.34
240.285	88.57
240.501	81.02
240.717	80.12
240.933	79.6
241.149	78.09
241.365	74.41
241.581	74.3
241.797	72.86
242.013	69.7
242.229	69.54
242.445	68.66
242.661	67
242.877	68.43
243.093	67.26
243.309	69.4
243.525	68.17
243.741	67.15
243.957	63.99
244.173	63.48
244.388	62.03
244.604	55.79
244.82	52.77
245.036	50.75
245.252	51.12
245.468	47.45
245.683	45.02
245.899	43.38
246.115	42.5
246.331	40.52
246.547	38.74
246.762	40.52
246.978	41.25
247.194	43.31
247.409	45.1
247.625	45.32
247.841	45.33
248.057	45.74
248.272	46.55
248.488	48.73
248.703	50.97
248.919	53.18
249.135	53.69
249.35	57.47
249.566	57.81
249.782	58.05
249.997	59.42
250.213	63.06
250.428	61.7
250.644	63.39
250.859	64.53
251.075	63.46
251.29	66.43
251.506	67.27
251.721	65.12
251.937	64.45
252.152	65.75
252.368	64.8
252.583	64.24
252.798	67.16
253.014	67.98
253.229	65.06
253.445	68.99
253.66	65.27
253.875	67.81
254.091	70.16
254.306	72.19
254.521	73.22
254.737	72.35
254.952	70.68
255.167	70.48
255.383	70.48
255.598	73.12
255.813	71.34
256.028	72.6
256.244	70.26
256.459	69.61
256.674	67.52
256.889	62.9
257.104	61.48
257.32	61.24
257.535	57.48
257.75	53.68
257.965	50.52
258.18	47.2
258.395	45.54
258.61	42.89
258.826	39.94
259.041	38.08
259.256	36.01
259.471	37.19
259.686	37
259.901	38.45
260.116	40.88
260.331	41.57
260.546	42.76
260.761	44.07
260.976	45.24
261.191	48.46
261.406	51.68
261.621	55.54
261.836	56
262.05	56.93
262.265	58.43
262.48	58.29
262.695	59.43
262.91	62.03
263.125	62.99
263.34	65.12
263.555	64.48
263.769	62.43
263.984	64.32
264.199	63.04
264.414	63.9
264.629	60.93
264.843	58.8
265.058	58.96
265.273	57.2
265.488	54.8
265.702	53.15
265.917	53.88
266.132	55.01
266.346	52.97
266.561	52.59
266.776	52.01
266.99	55.05
267.205	55.21
267.42	54.91
267.634	54.42
267.849	55.13
268.063	53.76
268.278	53.64
268.492	53.34
268.707	55.19
268.922	56.77
269.136	56.89
269.351	56.45
269.565	55.04
269.78	52.68
269.994	52.85
270.209	53.95
270.423	54.44
270.637	51.46
270.852	50.18
271.066	49.41
271.281	48.14
271.495	46.36
271.709	44.54
271.924	43.68
272.138	44.54
272.353	44.24
272.567	43.42
272.781	43.39
272.996	45.38
273.21	44.72
273.424	43.31
273.638	43.98
273.853	44.57
274.067	45.27
274.281	46.69
274.495	49.94
274.71	50.29
274.924	51.34
275.138	52.05
275.352	52.18
275.566	53.57
275.781	54.79
275.995	54.34
276.209	55.16
276.423	53.34
276.637	53.7
276.851	50.21
277.065	49.83
277.279	48.62
277.493	47.31
277.707	46.59
277.921	45.64
278.135	44.89
278.349	44.37
278.563	43.52
278.777	45.56
278.991	43.76
279.205	43.74
279.419	43.17
279.633	40.96
279.847	40.54
280.061	39.79
280.275	40.03
280.489	39.66
280.703	40.39
280.917	41.54
281.131	40.63
281.344	43.01
281.558	42.93
281.772	43.25
281.986	45.05
282.2	44.82
282.414	44.49
282.627	43.8
282.841	44.7
283.055	42.6
283.269	40.83
283.482	40.91
283.696	39.23
283.91	39.57
284.123	37.07
284.337	36.37
284.551	35.43
284.764	37.62
284.978	37.44
285.192	37.1
285.405	36.99
285.619	36.79
285.833	36.43
286.046	35.61
286.26	34.96
286.473	36.89
286.687	37.19
286.9	38.2
287.114	35.63
287.327	35.59
287.541	35.1
287.754	36.19
287.968	37.23
288.181	36.74
288.395	37.51
288.608	38.19
288.822	39.03
289.035	38.49
289.248	38.09
289.462	40.19
289.675	41
289.889	40.41
290.102	39.01
290.315	38.47
290.529	39.56
290.742	39.31
290.955	40.52
291.169	39.57
291.382	40
291.595	39.99
291.808	38.88
292.022	37.36
292.235	37.89
292.448	38.28
292.661	37.04
292.875	37.4
293.088	38.78
293.301	37.39
293.514	37.13
293.727	36.86
293.94	37.45
294.153	37.1
294.367	36.83
294.58	35.15
294.793	35.34
295.006	36.08
295.219	33.68
295.432	32.26
295.645	32.18
295.858	30.5
296.071	29.65
296.284	29.58
296.497	29.28
296.71	29.25
296.923	30.53
297.136	31.16
297.349	32.04
297.562	32.68
297.775	32.83
297.988	33.24
298.201	33.58
298.414	34.36
298.626	35.81
298.839	36.11
299.052	37.51
299.265	39.72
299.478	40.25
299.691	40.8
299.903	41.88
300.116	42.49
300.329	42.76
300.542	43.37
300.755	43.1
300.967	42.14
301.18	43.68
301.393	44.17
301.605	41.01
301.818	41.24
302.031	40.56
302.243	40.14
302.456	39.72
302.669	38.6
302.881	40.91
303.094	41.34
303.307	42.66
303.519	41.84
303.732	42.77
303.944	43.36
304.157	43.15
304.37	42.48
304.582	45.25
304.795	45.67
305.007	47.28
305.22	45.7
305.432	46.49
305.645	45.41
305.857	44.8
306.069	43.69
306.282	43.79
306.494	44.11
306.707	46.01
306.919	42.33
307.132	41.97
307.344	41.37
307.556	41.1
307.769	40.24
307.981	38.41
308.193	39.71
308.406	38.72
308.618	39.1
308.83	37.92
309.043	37.82
309.255	38.42
309.467	37.29
309.679	34.81
309.892	35.64
310.104	35.79
310.316	37.31
310.528	36.44
310.74	37.16
310.953	37.07
311.165	37.31
311.377	36.65
311.589	36.13
311.801	37.11
312.013	41.27
312.225	40.31
312.437	40.47
312.649	40.8
312.862	41.37
313.074	41.24
313.286	41.84
313.498	43.26
313.71	43.95
313.922	43.25
314.134	44.75
314.346	43.21
314.558	44.37
314.77	46.3
314.982	43.17
315.193	43.13
315.405	44.13
315.617	43.98
315.829	43.03
316.041	43.42
316.253	44.46
316.465	44.95
316.677	45.17
316.888	46.93
317.1	44.84
317.312	47.4
317.524	46.51
317.736	47.19
317.947	49.18
318.159	49.41
318.371	47.89
318.583	47.93
318.794	47.13
319.006	45.96
319.218	45.52
319.43	46.03
319.641	48
319.853	49.4
320.064	47.3
320.276	46.23
320.488	46.07
320.699	47.61
320.911	48.02
321.123	47.5
321.334	46.95
321.546	45.12
321.757	45.64
321.969	44.77
322.18	42.91
322.392	42.55
322.603	41.69
322.815	42.62
323.026	43.33
323.238	43.79
323.449	44.1
323.661	44.41
323.872	45.95
324.083	45.23
324.295	44.2
324.506	44.96
324.718	45.87
324.929	44.67
325.14	44.4
325.352	43.07
325.563	42.06
325.774	41.72
325.986	43.24
326.197	42.03
326.408	41.62
326.62	42.19
326.831	43.02
327.042	43.27
327.253	44.9
327.464	45.11
327.676	44.79
327.887	47.12
328.098	46.78
328.309	45.08
328.52	45.8
328.732	44.98
328.943	45.1
329.154	44.75
329.365	43.99
329.576	42.54
329.787	43.77
329.998	44.86
330.209	42.32
330.42	41.43
330.631	41.98
330.842	41.76
331.053	43.65
331.264	42.6
331.475	42.26
331.686	42.96
331.897	44.38
332.108	41.03
332.319	40.02
332.53	41.56
332.741	42.45
332.952	43.49
333.163	42.95
333.374	41.65
333.585	41.67
333.795	43.61
334.006	41.3
334.217	38.84
334.428	39.83
334.639	39.9
334.849	38.14
335.06	38.58
335.271	37.84
335.482	38.53
335.692	39.25
335.903	39.66
336.114	38.3
336.325	40.8
336.535	42.76
336.746	41.55
336.957	41.6
337.167	42.46
337.378	42.29
337.589	43.1
337.799	42.67
338.01	43.31
338.22	43.59
338.431	44.13
338.642	44
338.852	44.78
339.063	46.57
339.273	47.24
339.484	47.62
339.694	47.02
339.905	46.72
340.115	48.85
340.326	48.61
340.536	48.69
340.746	46.85
340.957	45.33
341.167	44.81
341.378	41.78
341.588	39.52
341.799	38.89
342.009	39.56
342.219	38.09
342.43	36.39
342.64	35.83
342.85	37
343.061	36.26
343.271	37.39
343.481	36
343.691	37.72
343.902	37.52
344.112	37.22
344.322	36.56
344.532	37.28
344.743	37.91
344.953	37.34
345.163	36.2
345.373	36.13
345.583	34.98
345.793	34.25
346.004	34.79
346.214	35.71
346.424	36.13
346.634	36.31
346.844	35.73
347.054	34
347.264	35.33
347.474	33.73
347.684	34.99
347.894	35.78
348.104	37.01
348.314	36.66
348.524	36.7
348.734	36.82
348.944	35.5
349.154	36.51
349.364	37.31
349.574	35.09
349.784	36.84
349.994	38.05
350.204	39.31
350.413	38.21
350.623	38.17
350.833	38.29
351.043	36.33
351.253	36.56
351.463	36.64
351.672	35.64
351.882	37.47
352.092	36.62
352.302	36.21
352.511	34.89
352.721	34.46
352.931	34.56
353.141	35.1
353.35	35.59
353.56	35.41
353.77	34.96
353.979	34.54
354.189	33.77
354.399	33.32
354.608	32.78
354.818	34.2
355.027	35.59
355.237	35.07
355.447	34.01
355.656	33.93
355.866	34.25
356.075	32.83
356.285	34.5
356.494	35.38
356.704	36.48
356.913	35.01
357.123	33.66
357.332	31.61
357.542	32.13
357.751	32.37
357.96	33.2
358.17	32.55
358.379	34.03
358.589	32.38
358.798	29.08
359.007	28.25
359.217	29.27
359.426	28.54
359.635	29.55
359.845	29.2
360.054	28.55
360.263	27.21
360.472	27.42
360.682	26.57
360.891	25.24
361.1	26.28
361.309	26.03
361.519	25.8
361.728	25.4
361.937	25.81
362.146	25.87
362.355	26.43
362.564	26.74
362.774	26.87
362.983	26.49
363.192	27.93
363.401	30.29
363.61	29.35
363.819	29
364.028	29.84
364.237	29.71
364.446	29.2
364.655	28.21
364.864	30.18
365.073	31.39
365.282	32.2
365.491	31.74
365.7	29.56
365.909	30.7
366.118	30.55
366.327	30.61
366.536	31.39
366.745	31.94
366.954	33.11
367.162	32.65
367.371	32.07
367.58	32.18
367.789	33.71
367.998	34.9
368.207	34.66
368.415	35.51
368.624	35.73
368.833	33.62
369.042	34.33
369.25	34.02
369.459	33.32
369.668	33.25
369.877	33.41
370.085	33.19
370.294	32.18
370.503	32.23
370.711	31.76
370.92	30.35
371.129	31.56
371.337	30.81
371.546	30.58
371.754	30.62
371.963	30.08
372.171	29.02
372.38	29.04
372.589	29.48
372.797	28.73
373.006	28.79
373.214	29.46
373.423	28.52
373.631	28.87
373.84	28.24
374.048	27.94
374.256	28.62
374.465	29.39
374.673	28.78
374.882	28.83
375.09	28.07
375.298	28.36
375.507	28.6
375.715	29.73
375.923	28.24
376.132	28.87
376.34	28.99
376.548	28.59
376.757	27.51
376.965	27.09
377.173	26.83
377.381	27.27
377.59	27.97
377.798	27.54
378.006	26.69
378.214	28.51
378.423	28.23
378.631	27.87
378.839	28.58
379.047	29.6
379.255	29.51
379.463	29.93
379.671	31.92
379.879	31.3
380.088	31.13
380.296	32.08
380.504	32.35
380.712	32.15
380.92	31.71
381.128	30.47
381.336	30.53
381.544	31.31
381.752	30.75
381.96	29.55
382.168	29.7
382.376	30.48
382.584	29.08
382.791	27.57
382.999	27.42
383.207	27.43
383.415	28.4
383.623	28.4
383.831	28.08
384.039	28.68
384.247	28.7
384.454	28.52
384.662	27.96
384.87	28.51
385.078	28.69
385.285	28.74
385.493	28.22
385.701	28.01
385.909	27.19
386.116	27.99
386.324	27.8
386.532	27.79
386.739	27.42
386.947	27.97
387.155	28.73
387.362	29.15
387.57	29.06
387.778	29.01
387.985	28.22
388.193	28.92
388.4	28.45
388.608	29.51
388.816	29.28
389.023	29.63
389.231	29.28
389.438	27.63
389.646	27.71
389.853	28.03
390.061	28.09
390.268	27.84
390.475	27.07
390.683	27.3
390.89	25.44
391.098	25.41
391.305	25.79
391.512	26.27
391.72	27.04
391.927	26.44
392.135	26.32
392.342	26.33
392.549	27.43
392.756	27.6
392.964	26.64
393.171	27.36
393.378	27.88
393.586	26.61
393.793	25.38
394	25.59
394.207	25.86
394.414	26.56
394.622	27.06
394.829	25.89
395.036	26.21
395.243	26.8
395.45	26.67
395.657	26.04
395.864	27.16
396.072	28.4
396.279	27.64
396.486	27.2
396.693	27.06
396.9	26.57
397.107	25.98
397.314	26.63
397.521	26.56
397.728	25.77
397.935	26.51
398.142	24.87
398.349	24.85
398.556	25
398.763	25.8
398.97	25.69
399.177	26.12
399.383	26.49
399.59	25.7
399.797	27.08
400.004	28.09
400.211	26.89
400.418	28.03
400.625	28.92
400.831	29.31
401.038	28.77
401.245	28.97
401.452	29.42
401.658	29.98
401.865	29.08
402.072	27.67
402.279	28.07
402.485	27.74
402.692	28.04
402.899	27.31
403.105	26.77
403.312	27.67
403.519	27.16
403.725	26.13
403.932	25.97
404.138	26.65
404.345	26.13
404.552	25.66
404.758	26.7
404.965	26.34
405.171	25.67
405.378	26.44
405.584	26.16
405.791	26.24
405.997	28.01
406.204	28.37
406.41	28.2
406.617	29.08
406.823	28.41
407.029	28.78
407.236	29.04
407.442	29.58
407.649	29.32
407.855	28.87
408.061	28.51
408.268	27.51
408.474	28.41
408.68	29.05
408.887	28.73
409.093	29.47
409.299	28.65
409.505	28.45
409.712	28
409.918	28.17
410.124	28.39
410.33	28.78
410.537	28.49
410.743	28.11
410.949	28.04
411.155	27.9
411.361	28.33
411.567	28.44
411.773	28.43
411.98	28.5
412.186	28.73
412.392	28.68
412.598	29.03
412.804	29.67
413.01	29.51
413.216	29.54
413.422	29.67
413.628	28.73
413.834	28.72
414.04	28.39
414.246	29.29
414.452	28.8
414.658	28.44
414.864	28.11
415.07	27.55
415.275	27
415.481	27.13
415.687	26.75
415.893	26.74
416.099	26.66
416.305	26.46
416.511	24.66
416.716	24
416.922	24.33
417.128	23.34
417.334	23.05
417.539	23.01
417.745	22.16
417.951	21.75
418.157	21.66
418.362	21.19
418.568	20.88
418.774	21.12
418.979	20.85
419.185	20.18
419.391	20.52
419.596	20.49
419.802	20.4
420.008	19.86
420.213	20.39
420.419	20.13
420.624	20.22
420.83	20.38
421.035	20.16
421.241	20.55
421.446	20.54
421.652	20.42
421.857	20.39
422.063	20.3
422.268	20.94
422.474	20.67
422.679	20.64
422.885	20.97
423.09	21.02
423.295	21.29
423.501	21.26
423.706	21.27
423.911	20.86
424.117	20.6
424.322	20.8
424.527	21.14
424.733	21.18
424.938	21.09
425.143	20.96
425.349	20.98
425.554	21.37
425.759	21.93
425.964	22.15
426.169	22.55
426.375	23.37
426.58	23.53
426.785	23.28
426.99	23.53
427.195	24.08
427.4	24.3
427.605	24.52
427.811	24.74
428.016	24.34
428.221	24.5
428.426	24.67
428.631	24.34
428.836	24.22
429.041	24.54
429.246	24.55
429.451	24.74
429.656	25.22
429.861	25.47
430.066	25.2
430.271	25.14
430.476	25.24
430.681	25.98
430.886	25.75
431.09	25.67
431.295	25.62
431.5	25.24
431.705	24.54
431.91	23.67
432.115	23.54
432.32	23.17
432.524	23.04
432.729	22.82
432.934	22.22
433.139	22.31
433.343	22.15
433.548	21.62
433.753	21.9
433.958	22.39
434.162	22.37
434.367	21.46
434.572	21.76
434.776	22.05
434.981	21.54
435.186	21.69
435.39	22.15
435.595	22.54
435.799	22.95
436.004	22.79
436.209	22.94
436.413	23.07
436.618	22.94
436.822	22.75
437.027	22.24
437.231	22.6
437.436	22.24
437.64	21.29
437.845	21.2
438.049	20.8
438.253	20.96
438.458	20.94
438.662	20.6
438.867	21
439.071	21.21
439.275	21.17
439.48	21.23
439.684	21.04
439.888	21.53
440.093	20.95
440.297	20.81
440.501	20.76
440.706	20.58
440.91	20.56
441.114	20.92
441.318	20.87
441.523	21.08
441.727	20.73
441.931	21.45
442.135	21.21
442.339	22.08
442.543	22.89
442.748	22.64
442.952	22.77
443.156	23.57
443.36	23.6
443.564	23.62
443.768	23.52
443.972	24.52
444.176	24
444.38	23.83
444.584	23.48
444.788	22.71
444.992	22.67
445.196	22.53
445.4	21.74
445.604	21.03
445.808	20.91
446.012	20.88
446.216	20.17
446.42	20.26
446.624	20.48
446.828	20.36
447.032	20.65
447.235	20.62
447.439	20.39
447.643	20.93
447.847	21.31
448.051	21.37
448.254	21.78
448.458	22.33
448.662	22.37
448.866	22.47
449.069	22.92
449.273	22.88
449.477	23.14
449.681	23.67
449.884	23.86
450.088	23.98
450.292	24.81
450.495	24.58
450.699	24.21
450.902	24.33
451.106	24.51
451.31	24.24
451.513	23.95
451.717	23.59
451.92	23.2
452.124	23.01
452.327	23.53
452.531	22.55
452.734	23.1
452.938	23.12
453.141	23.32
453.345	23.27
453.548	23.07
453.752	23.32
453.955	23.99
454.158	24.51
454.362	24.58
454.565	24.14
454.769	24.68
454.972	24.05
455.175	24.03
455.379	24.13
455.582	24.15
455.785	24.42
455.988	25.04
456.192	24.95
456.395	24.11
456.598	24.46
456.801	24.52
457.005	24.12
457.208	23.95
457.411	23.34
457.614	22.34
457.817	21.79
458.021	21.5
458.224	20.84
458.427	20.43
458.63	20.91
458.833	20.41
459.036	19.76
459.239	20.15
459.442	20.07
459.645	20.37
459.848	20.49
460.051	20.95
460.254	20.76
460.457	20.9
460.66	21.36
460.863	21.12
461.066	21.49
461.269	21.96
461.472	21.58
461.675	21.94
461.878	22.14
462.081	22.94
462.284	23.4
462.486	23.89
462.689	23.77
462.892	23.68
463.095	24.15
463.298	24.19
463.5	25.01
463.703	25.34
463.906	25.14
464.109	25.27
464.311	24.84
464.514	23.94
464.717	24.31
464.92	24.8
465.122	24.37
465.325	24.58
465.528	24.7
465.73	24.12
465.933	23.59
466.135	23.38
466.338	23.28
466.541	23.46
466.743	23.76
466.946	23.39
467.148	22.99
467.351	23.24
467.553	22.32
467.756	22.2
467.958	21.84
468.161	21.57
468.363	21.89
468.566	22.15
468.768	21.94
468.971	22.23
469.173	22.63
469.375	23.03
469.578	23.31
469.78	23.85
469.983	24.09
470.185	25.21
470.387	25.65
470.59	25.87
470.792	25.47
470.994	25.81
471.196	25.51
471.399	25.71
471.601	25.7
471.803	24.91
472.005	25.26
472.208	24.19
472.41	23.81
472.612	23.87
472.814	23.3
473.016	23.59
473.218	23.41
473.421	23.25
473.623	22.67
473.825	22.76
474.027	23.11
474.229	22.78
474.431	23.81
474.633	23.76
474.835	24.13
475.037	23.89
475.239	23.92
475.441	24.13
475.643	24.62
475.845	24.71
476.047	24.43
476.249	24.37
476.451	24.18
476.653	23.75
476.855	23.69
477.057	23.61
477.258	23.92
477.46	23.49
477.662	23.52
477.864	23.29
478.066	22.91
478.268	22.8
478.469	22.85
478.671	22.79
478.873	22.54
479.075	22.45
479.276	22.27
479.478	22.22
479.68	21.93
479.882	21.75
480.083	21.23
480.285	21.23
480.487	21.08
480.688	20.74
480.89	20.77
481.091	20.2
481.293	19.82
481.495	18.91
481.696	18.26
481.898	17.77
482.099	17.12
482.301	17.02
482.502	16.76
482.704	16.38
482.905	16.08
483.107	15.55
483.308	15.47
483.51	15.19
483.711	15.21
483.913	15.15
484.114	15.21
484.315	15.32
484.517	15.11
484.718	15.04
484.92	14.99
485.121	15.13
485.322	15.47
485.524	15.59
485.725	15.69
485.926	15.72
486.127	15.91
486.329	15.98
486.53	15.98
486.731	16.19
486.932	16.26
487.134	16.27
487.335	16.31
487.536	16.18
487.737	16.2
487.938	16.36
488.139	16.63
488.341	16.72
488.542	16.97
488.743	17.24
488.944	17.29
489.145	17.52
489.346	18.09
489.547	18.15
489.748	18.44
489.949	18.61
490.15	18.73
490.351	18.45
490.552	18.39
490.753	18.1
490.954	17.89
491.155	17.7
491.356	17.53
491.557	17.41
491.758	17.35
491.959	17.35
492.159	17.5
492.36	17.69
492.561	17.95
492.762	18.45
492.963	19.25
493.164	19.9
493.364	20.59
493.565	20.98
493.766	21.33
493.967	22.05
494.167	22.12
494.368	22.47
494.569	22.16
494.769	22.64
494.97	22.71
495.171	22.48
495.371	22.03
495.572	21.81
495.773	21.7
495.973	21.07
496.174	20.78
496.375	20.87
496.575	20.21
496.776	20.46
496.976	20.14
497.177	19.87
497.377	19.9
497.578	20.15
497.778	20.23
497.979	20.51
498.179	21.23
498.38	21.39
498.58	21.63
498.78	22.21
498.981	22.41
499.181	23.11
499.382	23.52
499.582	23.76
499.782	23.62
499.983	23.88
500.183	24.22
500.383	24.26
500.584	24.62
500.784	24.77
500.984	24.78
501.184	24.62
501.385	24.46
501.585	24
501.785	24.01
501.985	24.29
502.185	24.38
502.386	24.08
502.586	23.58
502.786	24
502.986	23.55
503.186	23.31
503.386	23.58
503.586	23.12
503.786	23.24
503.987	22.94
504.187	22.68
504.387	22.84
504.587	23.23
504.787	23.4
504.987	23.12
505.187	23.41
505.387	24.16
505.587	24.35
505.786	24.9
505.986	25.09
506.186	25.2
506.386	25.39
506.586	25.36
506.786	24.81
506.986	24.84
507.186	24.29
507.386	24.46
507.585	23.83
507.785	23.67
507.985	23.14
508.185	22.8
508.384	22.78
508.584	22.49
508.784	22.42
508.984	22.88
509.183	22.81
509.383	23.04
509.583	23.08
509.782	23.05
509.982	22.83
510.182	23.05
510.381	23.53
510.581	23.51
510.781	23.88
510.98	23.88
511.18	24.04
511.379	24.1
511.579	23.86
511.778	23.95
511.978	24.14
512.177	24.05
512.377	23.99
512.576	23.8
512.776	24.07
512.975	24.05
513.175	23.91
513.374	23.9
513.573	24.37
513.773	24.85
513.972	24.99
514.172	25.24
514.371	25.77
514.57	26.43
514.77	27.22
514.969	26.79
515.168	27.13
515.367	27.41
515.567	26.78
515.766	26.59
515.965	26.44
516.164	26.03
516.364	25.74
516.563	25.58
516.762	24.9
516.961	24.33
517.16	24.15
517.359	23.88
517.559	23.79
517.758	23.99
517.957	23.94
518.156	23.85
518.355	23.91
518.554	24.38
518.753	24.35
518.952	24.56
519.151	24.6
519.35	25.19
519.549	25.72
519.748	25.93
519.947	25.97
520.146	25.93
520.345	26.16
520.544	26.43
520.743	26.45
520.942	26.34
521.141	26.46
521.339	26.64
521.538	26.63
521.737	26.6
521.936	26.33
522.135	26.59
522.333	26.8
522.532	27.15
522.731	26.67
522.93	26.29
523.129	26.18
523.327	26.07
523.526	26.08
523.725	26.22
523.923	25.54
524.122	25.62
524.321	25.57
524.519	25.48
524.718	24.97
524.917	25.15
525.115	25.34
525.314	25.25
525.512	25.32
525.711	25.08
525.909	24.5
526.108	24.47
526.306	24.33
526.505	24.15
526.703	23.89
526.902	23.74
527.1	23.56
527.299	23.3
527.497	23.1
527.696	22.77
527.894	22.65
528.092	22.71
528.291	22.73
528.489	22.79
528.688	22.99
528.886	23.23
529.084	23.52
529.283	23.6
529.481	23.72
529.679	24.29
529.877	24.67
530.076	24.96
530.274	25.21
530.472	25.65
530.67	25.84
530.869	25.45
531.067	25.77
531.265	25.84
531.463	26.12
531.661	26.09
531.859	25.75
532.057	25.82
532.255	26.04
532.454	26.05
532.652	26.06
532.85	26.3
533.048	26.59
533.246	26.45
533.444	26.45
533.642	26.64
533.84	27.01
534.038	27.48
534.236	27.61
534.434	27.92
534.632	28.27
534.83	28.34
535.027	28.11
535.225	28.26
535.423	28.12
535.621	28.38
535.819	27.91
536.017	27.88
536.215	28.18
536.412	28.24
536.61	28.17
536.808	28.62
537.006	28.83
537.203	29.4
537.401	29.72
537.599	30.14
537.797	29.97
537.994	30.8
538.192	31.14
538.39	30.5
538.587	30.86
538.785	30.69
538.983	30.45
539.18	30.33
539.378	30.05
539.575	30.07
539.773	29.84
539.97	29.9
540.168	29.7
540.366	29.46
540.563	29.43
540.761	29.29
540.958	29.1
541.155	28.73
541.353	28.97
541.55	28.89
541.748	28.93
541.945	28.84
542.143	28.96
542.34	29.15
542.537	29.34
542.735	29.72
542.932	30.05
543.129	30.61
543.327	31.41
543.524	31.47
543.721	31.79
543.919	31.97
544.116	32.54
544.313	32.77
544.51	32.92
544.708	33.21
544.905	33.37
545.102	33.44
545.299	33.37
545.496	33.13
545.693	33.04
545.891	33.37
546.088	33.63
546.285	33.79
546.482	33.98
546.679	34.23
546.876	34.65
547.073	35.17
547.27	35.12
547.467	35.67
547.664	36.21
547.861	36.71
548.058	36.67
548.255	36.5
548.452	36.97
548.649	37.75
548.846	38.15
549.043	38.27
549.24	37.91
549.437	38.72
549.633	38.83
549.83	39.37
550.027	39.56
550.224	40.08
550.421	40.7
550.618	41.12
550.814	40.91
551.011	40.53
551.208	40.27
551.405	40.89
551.601	40.56
551.798	40.47
551.995	39.94
552.191	39.71
552.388	39.81
552.585	39.58
552.781	39.55
552.978	39.92
553.175	40.1
553.371	40.53
553.568	40.48
553.764	41.18
553.961	41.63
554.157	41.94
554.354	43.14
554.55	43.6
554.747	44.33
554.943	44.38
555.14	44.76
555.336	45.2
555.533	45.41
555.729	45.54
555.926	45.37
556.122	45.28
556.318	45.54
556.515	45.3
556.711	45.1
556.907	45.59
557.104	46.29
557.3	45.33
557.496	44.85
557.693	44.82
557.889	45.09
558.085	44.92
558.281	45.31
558.478	45.55
558.674	45.08
558.87	44.92
559.066	44.29
559.262	44.03
559.459	44.48
559.655	44.82
559.851	44.7
560.047	44.25
560.243	44.59
560.439	44.55
560.635	44.69
560.831	45.25
561.027	45.7
561.223	45.68
561.419	45.36
561.615	45.24
561.811	46
562.007	46.3
562.203	46.7
562.399	46.46
562.595	46.64
562.791	46.74
562.987	46.29
563.183	45.93
563.379	46.01
563.575	46.09
563.771	46.51
563.966	45.84
564.162	46.1
564.358	46.3
564.554	46.9
564.75	45.94
564.945	45.55
565.141	45.28
565.337	45.67
565.533	45.66
565.728	45.41
565.924	45.07
566.12	45.4
566.315	45.12
566.511	45.34
566.707	44.85
566.902	45.32
567.098	45.94
567.293	46.6
567.489	46.74
567.684	47.12
567.88	47.74
568.076	47.98
568.271	47.89
568.467	48.33
568.662	48.32
568.858	49.04
569.053	49.49
569.248	48.83
569.444	48.68
569.639	48.45
569.835	48.16
570.03	47.96
570.225	48.35
570.421	48.81
570.616	48.43
570.812	48.47
571.007	48.09
571.202	47.88
571.397	48.26
571.593	48.32
571.788	48.49
571.983	48.19
572.178	48.7
572.374	48.98
572.569	48.7
572.764	49.16
572.959	49.51
573.154	49.36
573.35	49.48
573.545	49.58
573.74	49.31
573.935	49.28
574.13	49.96
574.325	49.6
574.52	49.16
574.715	49.5
574.91	48.82
575.105	48.64
575.3	49.02
575.495	49.14
575.69	49
575.885	49.57
576.08	49.62
576.275	49.59
576.47	49.76
576.665	50.31
576.86	50.56
577.055	50.65
577.25	50.14
577.444	50.39
577.639	51.35
577.834	51.98
578.029	52.79
578.224	53.57
578.418	54.63
578.613	54.64
578.808	54.71
579.003	54.12
579.197	54.96
579.392	56.09
579.587	56.45
579.781	56.09
579.976	55.79
580.171	55.2
580.365	55.28
580.56	54.67
580.755	55.59
580.949	55.47
581.144	56.4
581.338	56.54
581.533	56.49
581.727	56.23
581.922	56.15
582.116	57.25
582.311	57.37
582.505	56.84
582.7	57.05
582.894	56.45
583.089	56.54
583.283	56.81
583.478	56.63
583.672	56.52
583.866	57
584.061	56.85
584.255	55.84
584.449	56.36
584.644	57.64
584.838	57.07
585.032	57.61
585.226	57.46
585.421	57.05
585.615	57.49
585.809	57.6
586.003	57.94
586.198	58.03
586.392	58.26
586.586	57.95
586.78	56.6
586.974	57.55
587.168	57.17
587.363	57.27
587.557	57.2
587.751	57.24
587.945	56.84
588.139	56.16
588.333	56.6
588.527	56.58
588.721	55.91
588.915	56.48
589.109	55.66
589.303	56.03
589.497	55.82
589.691	55.5
589.885	55.3
590.079	55.44
590.273	55.97
590.466	55.87
590.66	55.99
590.854	57.34
591.048	57.37
591.242	57.9
591.436	57.41
591.629	58.48
591.823	58.77
592.017	58.31
592.211	59.11
592.404	57.99
592.598	57.64
592.792	57.67
592.986	57.17
593.179	56.59
593.373	56.23
593.567	56.3
593.76	55.16
593.954	54.99
594.147	56.23
594.341	55.44
594.535	55.82
594.728	55.77
594.922	55.54
595.115	55.43
595.309	55.24
595.502	55.61
595.696	55.02
595.889	55.4
596.083	55.19
596.276	54.57
596.47	54.52
596.663	54.85
596.856	55.16
597.05	55.44
597.243	55.57
597.437	55.94
597.63	56.44
597.823	57.51
598.017	57.15
598.21	58.11
598.403	58.37
598.596	59.16
598.79	59.38
598.983	59.78
599.176	60.26
599.369	60.72
599.563	60.79
599.756	59.99
599.949	59.85
600.142	60.4
600.335	60.3
600.528	60.36
600.722	60.28
600.915	60.15
601.108	60.17
601.301	59.94
601.494	59.22
601.687	59.31
601.88	59.45
602.073	59.41
602.266	58.8
602.459	58.56
602.652	57.99
602.845	57.25
603.038	56.89
603.231	56.59
603.424	56.5
603.617	56.4
603.809	56.32
604.002	56.15
604.195	56.26
604.388	56.41
604.581	55.96
604.774	56.27
604.966	56.35
605.159	56.69
605.352	56.43
605.545	56.36
605.737	56.82
605.93	57.36
606.123	57.7
606.316	58.31
606.508	59.21
606.701	59.83
606.894	59.58
607.086	59.84
607.279	59.57
607.471	60.4
607.664	60
607.857	59.92
608.049	59.66
608.242	59.99
608.434	58.69
608.627	58.19
608.819	57.63
609.012	57.9
609.204	58.57
609.397	58.74
609.589	58.57
609.782	59.04
609.974	59.14
610.166	59.34
610.359	59.16
610.551	60.33
610.743	60.57
610.936	61.47
611.128	62.25
611.32	62.28
611.513	62.92
611.705	63.18
611.897	63.74
612.09	64.31
612.282	64.69
612.474	64.17
612.666	63.92
612.858	64.3
613.051	64.61
613.243	63.89
613.435	64.71
613.627	64.82
613.819	65.13
614.011	66.34
614.203	65.95
614.395	65.55
614.588	66.62
614.78	66.9
614.972	67.3
615.164	67.33
615.356	67.64
615.548	67.24
615.74	67.46
615.932	67.08
616.124	65.11
616.315	65.99
616.507	66.57
616.699	66.1
616.891	65.62
617.083	65.12
617.275	65.68
617.467	66.36
617.659	65.6
617.85	64.96
618.042	65.16
618.234	66.51
618.426	66.18
618.618	66.12
618.809	65.8
619.001	65.74
619.193	65.37
619.384	64.64
619.576	65.36
619.768	65
619.959	65.51
620.151	65.2
620.343	64.98
620.534	64.21
620.726	63.84
620.917	64.61
621.109	65.24
621.301	66.29
621.492	66.73
621.684	66.22
621.875	67.2
622.067	66.93
622.258	67.15
622.45	66.67
622.641	67.07
622.832	66.93
623.024	66.76
623.215	67.4
623.407	67.29
623.598	66.93
623.789	66.33
623.981	66.3
624.172	66.14
624.363	66.4
624.555	66.04
624.746	65.9
624.937	65.48
625.129	65.3
625.32	64.01
625.511	63.68
625.702	63.66
625.893	62.97
626.085	62.53
626.276	62.43
626.467	61.78
626.658	62.52
626.849	62.96
627.04	63.74
627.231	64.07
627.422	64.92
627.614	65.55
627.805	66.55
627.996	67.11
628.187	66.74
628.378	67.44
628.569	68.66
628.76	68.63
628.951	68.88
629.142	67.94
629.332	68.58
629.523	68.72
629.714	67.97
629.905	67.81
630.096	68.4
630.287	68.61
630.478	68.41
630.669	68.49
630.859	68.44
631.05	68
631.241	68.35
631.432	68.25
631.623	68.35
631.813	68.54
632.004	68.47
632.195	68.34
632.385	69.13
632.576	68.85
632.767	67.57
632.957	67.62
633.148	66.7
633.339	67.43
633.529	67.39
633.72	67.91
633.91	68.17
634.101	67.63
634.292	67.71
634.482	67.96
634.673	68.53
634.863	69.51
635.054	69.55
635.244	70.19
635.435	69.88
635.625	69.46
635.815	68.66
636.006	68.71
636.196	69.51
636.387	70.42
636.577	70.92
636.767	71.06
636.958	71.71
637.148	71.82
637.338	72.37
637.529	73.78
637.719	74.35
637.909	74.41
638.099	74.82
638.29	74.5
638.48	73.38
638.67	72.69
638.86	72.77
639.05	71.9
639.241	72.33
639.431	73.04
639.621	72.26
639.811	72.22
640.001	73.45
640.191	73.88
640.381	74.56
640.571	75.45
640.761	76.01
640.951	76.84
641.141	77.72
641.331	78.06
641.521	78.2
641.711	79.15
641.901	78.42
642.091	77.52
642.281	77.44
642.471	76.83
642.661	77.17
642.851	76.5
643.041	75.67
643.231	76.27
643.42	76.02
643.61	75.69
643.8	75.46
643.99	76.06
644.18	76.98
644.369	76.36
644.559	75.94
644.749	76.39
644.939	76.83
645.128	76.92
645.318	75.23
645.508	75.08
645.697	75.19
645.887	75.66
646.076	75.57
646.266	75.56
646.456	75.64
646.645	76.39
646.835	75.34
647.024	75.61
647.214	75.64
647.403	76.27
647.593	76.21
647.782	76.07
647.972	75.02
648.161	75.85
648.351	73.91
648.54	75.4
648.73	74.75
648.919	74.86
649.108	73.7
649.298	73.06
649.487	72.76
649.677	73.01
649.866	74.57
650.055	74.42
650.244	74.59
650.434	76.37
650.623	75.85
650.812	77.52
651.002	77.73
651.191	79.29
651.38	80.99
651.569	81.79
651.758	81.38
651.947	79.24
652.137	80.01
652.326	79.5
652.515	79.22
652.704	78.47
652.893	77.36
653.082	77.9
653.271	77.05
653.46	76.07
653.649	75.36
653.838	75.11
654.027	75.85
654.216	76.31
654.405	76.86
654.594	75.2
654.783	74.81
654.972	74.77
655.161	74.03
655.35	74.96
655.539	75.18
655.728	76.35
655.916	77.22
656.105	77.47
656.294	76.14
656.483	75.75
656.672	77.08
656.86	76.71
657.049	76.06
657.238	75.45
657.427	74.48
657.615	73.45
657.804	71.98
657.993	70.72
658.181	70.12
658.37	70.14
658.559	69.43
658.747	69.54
658.936	70.05
659.125	72.58
659.313	73.16
659.502	73.68
659.69	74.13
659.879	74.7
660.067	76.05
660.256	76.97
660.444	77.25
660.633	77.98
660.821	78.92
661.01	79.29
661.198	77.38
661.387	77.36
661.575	78.21
661.763	78.76
661.952	79.53
662.14	80.25
662.328	80.02
662.517	81.3
662.705	82.1
662.893	81.1
663.082	81.08
663.27	80.96
663.458	82.81
663.646	81.91
663.834	82.15
664.023	83.03
664.211	83.27
664.399	83.07
664.587	83.43
664.775	83.25
664.963	83.52
665.152	83.47
665.34	84.14
665.528	84.01
665.716	83.72
665.904	83.77
666.092	83.01
666.28	81.5
666.468	81.82
666.656	81.22
666.844	80.46
667.032	80.69
667.22	82.38
667.408	81.39
667.596	79.75
667.784	79.63
667.971	79.48
668.159	80.3
668.347	80.8
668.535	80.79
668.723	80.93
668.911	81.22
669.098	81.59
669.286	80.7
669.474	81.42
669.662	82.25
669.849	82.67
670.037	82.97
670.225	82.75
670.413	83.66
670.6	84.88
670.788	84.64
670.976	85.56
671.163	85.65
671.351	86.16
671.538	86.74
671.726	86.25
671.913	85.81
672.101	85.85
672.289	85.46
672.476	84.83
672.664	84.09
672.851	84.63
673.039	84.76
673.226	85.32
673.413	84.15
673.601	82.55
673.788	82.8
673.976	83.69
674.163	83.93
674.35	83.29
674.538	83.92
674.725	83.5
674.912	81.47
675.1	81.24
675.287	81.31
675.474	81.85
675.662	83.55
675.849	83.6
676.036	83.49
676.223	83.77
676.411	84.61
676.598	83.99
676.785	84.34
676.972	86.15
677.159	86.13
677.346	86.05
677.533	85.11
677.721	83.52
677.908	82.44
678.095	81.97
678.282	80.82
678.469	79.71
678.656	79.27
678.843	79.32
679.03	77.66
679.217	76.28
679.404	75.27
679.591	76.1
679.778	76.22
679.964	77.21
680.151	78.04
680.338	79.29
680.525	79.6
680.712	79.71
680.899	79.05
681.086	80.12
681.272	81.48
681.459	81.53
681.646	81.42
681.833	81.47
682.02	82.22
682.206	81.69
682.393	81.45
682.58	82.56
682.766	84.23
682.953	85.69
683.14	86.02
683.326	85.38
683.513	85.84
683.7	85.75
683.886	85.18
684.073	84.07
684.259	84.7
684.446	84.83
684.632	84.33
684.819	82.91
685.005	81.52
685.192	81.4
685.378	82.25
685.565	82.61
685.751	82.36
685.938	82.67
686.124	83.01
686.31	82.64
686.497	81.86
686.683	81.97
686.87	82.23
687.056	82
687.242	81.33
687.429	82.04
687.615	81.35
687.801	81.84
687.987	82.29
688.174	82.07
688.36	82.42
688.546	82.68
688.732	81.85
688.918	81.2
689.105	82.71
689.291	84.15
689.477	83.12
689.663	83.82
689.849	83.43
690.035	83.85
690.221	83.75
690.407	82.36
690.593	83
690.779	83.76
690.965	85.09
691.151	84.77
691.337	83.93
691.523	84.22
691.709	84.66
691.895	86.67
692.081	87.22
692.267	88.47
692.453	90.61
692.639	89.69
692.825	89.05
693.011	87.39
693.196	86.83
693.382	87.17
693.568	87.68
693.754	86.8
693.94	84.1
694.125	84.5
694.311	83.97
694.497	82.72
694.682	83.86
694.868	84.76
695.054	85.32
695.239	84.55
695.425	84.81
695.611	84.35
695.796	83.48
695.982	83.94
696.168	82.75
696.353	81.95
696.539	81.12
696.724	80.13
696.91	79.8
697.095	80.11
697.281	79.04
697.466	78.58
697.652	77.17
697.837	77.75
698.023	77.67
698.208	77.66
698.393	77.36
698.579	77.59
698.764	77.29
698.949	76.08
699.135	76.07
699.32	77
699.505	77.2
699.691	79.09
699.876	79.55
700.061	79.61
700.246	79.83
700.432	80.86
700.617	82.16
700.802	81.71
700.987	84.79
701.172	88.37
701.358	90.49
701.543	90.3
701.728	90.73
701.913	91.12
702.098	92.56
702.283	93.88
702.468	92.63
702.653	92.6
702.838	94.68
703.023	94.02
703.208	90.61
703.393	90.5
703.578	92.05
703.763	91.89
703.948	92.7
704.133	92.76
704.318	92.01
704.503	93.97
704.688	95.33
704.873	95.93
705.057	95.82
705.242	96.39
705.427	95.71
705.612	95.17
705.797	94.88
705.981	94.33
706.166	94.03
706.351	93.53
706.536	93.69
706.72	93.22
706.905	92.88
707.09	92.37
707.274	92.73
707.459	92.49
707.644	93.66
707.828	93.26
708.013	92.57
708.197	91.61
708.382	93.54
708.567	93.24
708.751	91.82
708.936	91.56
709.12	92.47
709.305	92.31
709.489	91.74
709.673	90
709.858	90.27
710.042	89.3
710.227	90.88
710.411	89.19
710.596	89.03
710.78	90.34
710.964	91.74
711.149	91.23
711.333	90.88
711.517	93.61
711.702	94.76
711.886	95.25
712.07	96.09
712.254	95.81
712.438	96.45
712.623	94.89
712.807	94.36
712.991	92.36
713.175	91.74
713.359	91.34
713.544	88.6
713.728	88.89
713.912	88.19
714.096	88.28
714.28	86.65
714.464	85.21
714.648	85.87
714.832	85.15
715.016	84.82
715.2	84.68
715.384	84.42
715.568	85.44
715.752	83.94
715.936	83.23
716.12	82.62
716.304	83.53
716.488	84.15
716.671	82.95
716.855	82.64
717.039	82.78
717.223	83.23
717.407	84.04
717.59	84.19
717.774	83.02
717.958	83.66
718.142	84.38
718.325	86.98
718.509	86.39
718.693	87.9
718.877	88.1
719.06	87.66
719.244	88.6
719.428	86.7
719.611	86.5
719.795	88.47
719.978	89.02
720.162	90.51
720.345	89.56
720.529	90.57
720.713	91.11
720.896	91.64
721.08	92.61
721.263	92.65
721.446	93.32
721.63	93.16
721.813	92.67
721.997	91.52
722.18	88.26
722.364	86.84
722.547	86.87
722.73	85.1
722.914	85.88
723.097	86.08
723.28	85.38
723.464	85.52
723.647	85.94
723.83	86.4
724.013	88.21
724.197	89.49
724.38	89.41
724.563	90.91
724.746	93.32
724.929	93.06
725.112	92.47
725.296	94.46
725.479	96.1
725.662	93.86
725.845	94.07
726.028	93.74
726.211	93.3
726.394	92.9
726.577	91.91
726.76	90.13
726.943	90.07
727.126	90.97
727.309	89.01
727.492	88.74
727.675	91.1
727.858	90.74
728.041	89.09
728.224	88.69
728.407	89.31
728.589	88.28
728.772	89.63
728.955	89.09
729.138	87.42
729.321	88.23
729.503	86.73
729.686	84.74
729.869	84.8
730.052	86.42
730.234	86.83
730.417	86.77
730.6	86.86
730.782	86.33
730.965	87.51
731.148	89.12
731.33	90.32
731.513	91.24
731.695	92.6
731.878	92.97
732.061	93.52
732.243	94.24
732.426	95.04
732.608	95.29
732.791	95.53
732.973	95.23
733.156	95.46
733.338	93.66
733.52	93.18
733.703	92.76
733.885	93.43
734.068	92.92
734.25	94.81
734.432	93.65
734.615	96.21
734.797	97.7
734.979	98.05
735.162	96.25
735.344	96.32
735.526	96.77
735.708	96.69
735.891	95.45
736.073	95.83
736.255	94.21
736.437	93.29
736.619	91.8
736.802	90.83
736.984	91.53
737.166	95.01
737.348	97.88
737.53	97.47
737.712	99.56
737.894	102.12
738.076	101.7
738.258	102.64
738.44	104.6
738.622	104.95
738.804	103.9
738.986	104.12
739.168	102.29
739.35	100.1
739.532	102.78
739.714	102.81
739.896	100.73
740.078	98.91
740.259	100.83
740.441	100.7
740.623	100.82
740.805	104.38
740.987	103.41
741.168	104.29
741.35	104.15
741.532	104.16
741.714	104.64
741.895	105.84
742.077	110.57
742.259	108.05
742.44	109.53
742.622	110.68
742.804	109.32
742.985	109.44
743.167	111.09
743.348	113.26
743.53	111.94
743.711	112.03
743.893	112.91
744.075	109.07
744.256	110.64
744.438	112.02
744.619	108.61
744.8	107.37
744.982	107.2
745.163	106.62
745.345	106.71
745.526	105.47
745.707	105.04
745.889	104.63
746.07	106.79
746.252	106.69
746.433	104.58
746.614	106
746.795	104.68
746.977	105.47
747.158	105.56
747.339	104.77
747.52	103.45
747.702	102.7
747.883	102.48
748.064	101.74
748.245	102.32
748.426	103
748.607	104.59
748.788	103.97
748.97	104.61
749.151	102.68
749.332	103.36
749.513	103.32
749.694	103.65
749.875	105.14
750.056	105.71
750.237	105.26
750.418	103.66
750.599	102.01
750.78	102.21
750.96	101.61
751.141	102.2
751.322	101.89
751.503	104.05
751.684	105.47
751.865	103.19
752.046	103.88
752.226	101.8
752.407	102.72
752.588	103.24
752.769	105.02
752.949	104.45
753.13	105.01
753.311	104.27
753.492	105.62
753.672	103.3
753.853	104.55
754.034	101.6
754.214	102.16
754.395	104.26
754.575	105.3
754.756	104.47
754.937	105.44
755.117	104.85
755.298	104.63
755.478	103.33
755.659	102.69
755.839	101.07
756.02	100.92
756.2	99.97
756.381	97.25
756.561	95.72
756.741	97.69
756.922	96.77
757.102	94.79
757.283	92.66
757.463	90.65
757.643	91.53
757.823	90.82
758.004	90.92
758.184	89.93
758.364	88.96
758.545	89.34
758.725	88.1
758.905	86.8
759.085	88.9
759.265	89.95
759.446	91.11
759.626	90.68
759.806	92.16
759.986	93.22
760.166	93.26
760.346	92.9
760.526	90.92
760.706	89.82
760.886	87.55
761.066	87.49
761.246	87.16
761.426	84.39
761.606	82.78
761.786	80.35
761.966	77.73
762.146	77.96
762.326	79.31
762.506	78.96
762.686	79
762.866	81.23
763.046	79.68
763.225	80.17
763.405	81.84
763.585	83.15
763.765	84.57
763.945	87.91
764.124	87.62
764.304	86.69
764.484	87.59
764.664	87.71
764.843	87.07
765.023	88.75
765.203	89.45
765.382	90.27
765.562	90.53
765.741	91.05
765.921	89.46
766.101	91.44
766.28	93.44
766.46	93.73
766.639	95.73
766.819	96.92
766.998	99.3
767.178	99.74
767.357	101.75
767.537	102.51
767.716	105.54
767.896	108.55
768.075	110.9
768.254	113.81
768.434	115.06
768.613	114.67
768.792	116.19
768.972	112.79
769.151	116.58
769.33	117.69
769.51	119.32
769.689	117.95
769.868	117.3
770.047	117.15
770.226	112.52
770.406	114.08
770.585	112.89
770.764	112.4
770.943	114.26
771.122	111.81
771.301	110.16
771.48	107.11
771.66	107.5
771.839	106.85
772.018	106.6
772.197	108.4
772.376	109.55
772.555	110.86
772.734	112.37
772.913	111.83
773.092	111.5
773.271	112.33
773.449	114.65
773.628	114.56
773.807	113.72
773.986	113.31
774.165	109.37
774.344	108.4
774.523	110
774.701	108.65
774.88	111.74
775.059	113.81
775.238	113.68
775.417	113.46
775.595	112.57
775.774	114.47
775.953	115.29
776.131	120.02
776.31	120.25
776.489	115.64
776.667	119.16
776.846	118.79
777.025	118.27
777.203	117.88
777.382	123.9
777.56	124.87
777.739	122.31
777.917	118.76
778.096	122.1
778.274	122.38
778.453	125.51
778.631	122.36
778.81	120.52
778.988	119.26
779.166	120.82
779.345	116.35
779.523	112.08
779.702	113.69
779.88	115.38
780.058	113.03
780.237	112.21
780.415	114.08
780.593	116.18
780.771	115.45
780.95	115.51
781.128	114.05
781.306	112.64
781.484	119.1
781.662	118.66
781.841	119.74
782.019	120.39
782.197	120.32
782.375	116.29
782.553	113.42
782.731	113.6
782.909	114.9
783.087	114.01
783.265	113.82
783.443	109.41
783.621	109.28
783.799	107.67
783.977	107.76
784.155	108.78
784.333	109.88
784.511	111.32
784.689	113.94
784.867	112.69
785.045	113.92
785.223	114.55
785.4	115.3
785.578	115.7
785.756	117.16
785.934	111.84
786.112	110.91
786.289	111.65
786.467	109.22
786.645	106.84
786.823	107.68
787	107.98
787.178	105.5
787.356	105.68
787.533	106.9
787.711	107.02
787.889	110.88
788.066	109.59
788.244	108.97
788.421	109.44
788.599	108.62
788.776	107.88
788.954	107.41
789.131	109.09
789.309	107.38
789.486	105.62
789.664	104.13
789.841	103.16
790.019	103.21
790.196	103.65
790.373	105.14
790.551	107.27
790.728	106.75
790.906	105.49
791.083	101.98
791.26	102.18
791.437	103.83
791.615	105.4
791.792	106.24
791.969	106.68
792.146	105.83
792.324	102.79
792.501	101.86
792.678	100.87
792.855	103.1
793.032	106.99
793.209	107.37
793.387	107.9
793.564	108.75
793.741	109.12
793.918	110.3
794.095	113.12
794.272	115.42
794.449	116.93
794.626	119.3
794.803	116.58
794.98	115.46
795.157	113.72
795.334	112.98
795.511	111.62
795.688	113.73
795.864	113.85
796.041	113.31
796.218	116.38
796.395	115.47
796.572	116.78
796.749	119.13
796.925	122.7
797.102	123.45
797.279	121.06
797.456	118.84
797.632	116.7
797.809	116.11
797.986	116.14
798.162	112.28
798.339	113.35
798.516	108.11
798.692	103.44
798.869	103.57
799.046	104.76
799.222	107.31
799.399	111.17
799.575	111.85
799.752	111.42
799.928	109.52
800.105	109.63
800.281	106.44
800.458	108.48
800.634	110.7
800.811	107.54
800.987	108.32
801.163	110.05
801.34	106.61
801.516	105.97
801.692	103.83
801.869	105.6
802.045	105.69
802.221	107.84
802.398	108.35
802.574	113.06
802.75	115.36
802.926	117.69
803.103	114.61
803.279	115.52
803.455	115.7
803.631	118.2
803.807	116.72
803.983	114.66
804.16	114.22
804.336	113.31
804.512	110.19
804.688	110.1
804.864	109.23
805.04	108.23
805.216	109.89
805.392	111.01
805.568	111.26
805.744	111.61
805.92	115.69
806.096	117.63
806.272	125.58
806.448	127.95
806.623	129.47
806.799	128.66
806.975	127.6
807.151	125.76
807.327	120.87
807.503	118.91
807.678	118.31
807.854	114.78
808.03	112.17
808.206	106.89
808.381	101.73
808.557	98.49
808.733	97.7
808.908	94.99
809.084	94.81
809.26	94.55
809.435	93.91
809.611	93.28
809.787	95.83
809.962	94.57
810.138	94.45
810.313	97.34
810.489	97.58
810.664	95.99
810.84	99.78
811.015	99
811.191	99.97
811.366	103.09
811.542	103.43
811.717	104.5
811.892	110.6
812.068	110.49
812.243	109.55
812.419	112.13
812.594	115.89
812.769	114.49
812.944	115.45
813.12	117.38
813.295	116.43
813.47	118.39
813.645	114.01
813.821	107.2
813.996	104.35
814.171	105.55
814.346	104.08
814.521	104.82
814.697	105.87
814.872	108.65
815.047	105.58
815.222	101.21
815.397	99
815.572	102.01
815.747	105.29
815.922	106.76
816.097	108.7
816.272	104.97
816.447	103.34
816.622	102.85
816.797	99.63
816.972	100.46
817.147	103.79
817.322	105.78
817.496	104.51
817.671	101.55
817.846	100.64
818.021	97.35
818.196	97.48
818.371	97
818.545	98.89
818.72	95.63
818.895	95.7
819.069	94.15
819.244	92.95
819.419	88.86
819.594	87.85
819.768	86.42
819.943	82.51
820.117	81.94
820.292	77.87
820.467	73.77
820.641	73.65
820.816	72.07
820.99	69
821.165	65.68
821.339	64.03
821.514	63.41
821.688	61.99
821.863	61.27
822.037	61.59
822.212	62.2
822.386	61.38
822.56	61.59
822.735	60.99
822.909	62.23
823.084	62.5
823.258	63.69
823.432	62.69
823.606	63.95
823.781	66.58
823.955	65.38
824.129	65.97
824.303	67.89
824.478	64.89
824.652	64.81
824.826	65.08
825	66.47
825.174	66.72
825.348	68.54
825.523	67.99
825.697	68.2
825.871	69.21
826.045	70.18
826.219	70.33
826.393	73.71
826.567	73.68
826.741	74.81
826.915	74.91
827.089	76.41
827.263	76.36
827.437	79.24
827.611	78.97
827.784	80.47
827.958	80.28
828.132	80.38
828.306	80.47
828.48	83.55
828.654	85.16
828.827	86.02
829.001	85.63
829.175	86.64
829.349	86
829.522	86.27
829.696	88.57
829.87	90.45
830.044	91.33
830.217	92.15
830.391	91.99
830.565	89.68
830.738	90.04
830.912	92.79
831.085	94.33
831.259	92.9
831.432	93.59
831.606	90.57
831.779	89.88
831.953	88.35
832.126	88.1
832.3	87.56
832.473	87.82
832.647	87.03
832.82	82.83
832.994	82.51
833.167	81.85
833.34	83.47
833.514	82.77
833.687	80.9
833.86	81.49
834.034	82.24
834.207	81.3
834.38	82.09
834.553	83.76
834.727	87.74
834.9	89.6
835.073	91.1
835.246	88.71
835.419	90.32
835.593	92.35
835.766	91.7
835.939	91.8
836.112	95.3
836.285	96.98
836.458	95.23
836.631	93.42
836.804	90.97
836.977	94.29
837.15	97.04
837.323	102.14
837.496	104.31
837.669	105.54
837.842	110.96
838.015	105.86
838.188	106.07
838.361	106.06
838.533	109.2
838.706	115.92
838.879	114.6
839.052	112.43
839.225	106.56
839.398	102.45
839.57	103.21
839.743	100.41
839.916	104.94
840.088	100.88
840.261	104.47
840.434	103.61
840.607	102.11
840.779	102.96
840.952	106.14
841.124	105.45
841.297	104.83
841.47	104.33
841.642	104.33
841.815	103.82
841.987	103.18
842.16	101.92
842.332	103.85
842.505	103.29
842.677	104.19
842.85	100.97
843.022	106.36
843.194	109.29
843.367	112.51
843.539	111.23
843.712	109.18
843.884	110.92
844.056	110.25
844.229	109.79
844.401	110.84
844.573	110.89
844.745	110.48
844.918	109.38
845.09	109.02
845.262	106.32
845.434	107.95
845.606	110.9
845.779	114.37
845.951	114.52
846.123	110.36
846.295	108.88
846.467	105.41
846.639	104.02
846.811	100.47
846.983	102.72
847.155	101.14
847.327	101.87
847.499	101.94
847.671	100.23
847.843	104.31
848.015	106.16
848.187	107.43
848.359	112.61
848.531	112.28
848.703	116.64
848.875	119.55
849.047	125.01
849.218	123.87
849.39	122.17
849.562	125.43
849.734	125.68
849.905	126.92
850.077	123.99
850.249	115.64
850.421	114.82
850.592	114.44
850.764	111.94
850.936	111.29
851.107	112.45
851.279	115.09
851.451	117.79
851.622	114.73
851.794	114.12
851.965	118.73
852.137	120.99
852.308	127.41
852.48	127.28
852.651	127.75
852.823	124.98
852.994	122.74
853.166	119.76
853.337	120.63
853.509	122.3
853.68	121.96
853.851	119.58
854.023	122.53
854.194	121.66
854.365	121.41
854.537	119.71
854.708	119.11
854.879	121.77
855.05	120.86
855.222	115.54
855.393	116.26
855.564	116.62
855.735	116.4
855.906	110.51
856.078	109.61
856.249	108.32
856.42	106.49
856.591	114.24
856.762	113.08
856.933	117.14
857.104	122.81
857.275	124.11
857.446	126.62
857.617	125.96
857.788	133.84
857.959	139.64
858.13	141.64
858.301	145.39
858.472	137.85
858.643	131.26
858.814	126.63
858.985	121.23
859.155	118.92
859.326	116.71
859.497	116.63
859.668	115.03
859.839	113.11
860.009	108.19
860.18	106.66
860.351	103.92
860.522	106.92
860.692	113.92
860.863	115.42
861.034	113.57
861.204	112.11
861.375	110.09
861.546	110.52
861.716	110.11
861.887	115.05
862.057	117.74
862.228	117.93
862.398	116.54
862.569	114.43
862.739	114.04
862.91	114.18
863.08	115.77
863.251	116.91
863.421	116.89
863.592	116.87
863.762	116.65
863.932	109.52
864.103	107.01
864.273	112.45
864.443	111.87
864.614	113.29
864.784	112.29
864.954	111.78
865.125	112.69
865.295	113.62
865.465	115.62
865.635	116.67
865.805	121.4
865.976	121.66
866.146	116.27
866.316	112.29
866.486	112.48
866.656	114.85
866.826	113.56
866.996	111.96
867.166	112.54
867.336	114.47
867.506	111.58
867.676	109.4
867.846	110.75
868.016	114.42
868.186	112.71
868.356	111.65
868.526	112.51
868.696	116.93
868.866	113.87
869.036	113.36
869.206	103.54
869.376	105.76
869.545	105.76
869.715	105.19
869.885	102.44
870.055	104.53
870.224	104.65
870.394	104.97
870.564	103.48
870.734	107.22
870.903	104.43
871.073	109.02
871.243	108.56
871.412	110.66
871.582	114.46
871.751	113.41
871.921	116.26
872.091	114.88
872.26	113.67
872.43	113.08
872.599	112.46
872.769	112.31
872.938	114.48
873.108	112.63
873.277	113.18
873.446	116.03
873.616	115.19
873.785	111.02
873.955	109.08
874.124	106.89
874.293	106.38
874.463	110.31
874.632	112.91
874.801	106.6
874.971	110.98
875.14	116.42
875.309	112.38
875.478	116.27
875.647	115.35
875.817	121.05
875.986	124.17
876.155	130.16
876.324	120.02
876.493	116.89
876.662	121.7
876.831	120.35
877	113.69
877.17	117.16
877.339	113.79
877.508	118.39
877.677	113.16
877.846	111.93
878.015	106.31
878.184	110.11
878.352	113.87
878.521	111.52
878.69	109.42
878.859	105
879.028	104.14
879.197	110.2
879.366	106.43
879.534	105.75
879.703	104.41
879.872	100.13
880.041	97.21
880.21	97.14
880.378	94.38
880.547	88.51
880.716	88.75
880.884	82.58
881.053	76.96
881.222	76.73
881.39	74.83
881.559	72.17
881.727	72.87
881.896	72.18
882.065	69.84
882.233	69.32
882.402	73.57
882.57	75.3
882.739	77.02
882.907	77.24
883.076	79.47
883.244	80.62
883.412	82.66
883.581	84.29
883.749	85.3
883.918	85.33
884.086	88.15
884.254	84.86
884.423	84.69
884.591	88.25
884.759	92.58
884.927	92
885.096	96.2
885.264	100.26
885.432	100.94
885.6	105.04
885.769	109.18
885.937	108.12
886.105	114.52
886.273	118.37
886.441	114.98
886.609	113.23
886.777	112.41
886.945	109.73
887.113	108.32
887.281	107.4
887.449	110.12
887.617	108.73
887.785	111.34
887.953	113.66
888.121	114.54
888.289	115.49
888.457	117.16
888.625	115.32
888.793	129.38
888.961	127.4
889.129	128.93
889.296	124.6
889.464	128.44
889.632	129.36
889.8	125.34
889.967	124.62
890.135	126.23
