Data from JASIL_3282_Reflection_1.txt Node
Date: Tue Nov 17 19:15:56 EST 2015
User: Geneva
Spectrometer: USB4E03002
Autoset integration time: false
Trigger mode: 4
Integration Time (sec): 1.000000E-1
Scans to average: 10
Electric dark correction enabled: false
Nonlinearity correction enabled: false
Boxcar width: 5
Stray light correction enabled: false
XAxis mode: Wavelengths
Stop averaging: false
Number of Pixels in Spectrum: 3648
>>>>>Begin Spectral Data<<<<<
177.575	0
177.794	62.63
178.014	197.37
178.233	1737.5
178.452	-408.33
178.672	27.31
178.891	102.5
179.11	153.75
179.33	146.24
179.549	135.45
179.768	113.59
179.987	139.2
180.207	104.17
180.426	127.54
180.645	-42.31
180.864	16.79
181.084	41.3
181.303	67.53
181.522	54.23
181.741	53.86
181.96	80.44
182.179	80.5
182.398	119.35
182.618	117.51
182.837	114.74
183.056	-1366.67
183.275	9.92
183.494	15.54
183.713	30.73
183.932	4.21
184.151	-5.16
184.37	2.41
184.589	7
184.808	6.82
185.027	5.13
185.246	8.58
185.465	-5.12
185.684	-1295
185.903	189.23
186.122	174.5
186.341	95.95
186.56	112.26
186.779	116.19
186.998	89.74
187.216	109.72
187.435	113.03
187.654	180.37
187.873	273.73
188.092	201.27
188.311	115.79
188.53	103.87
188.748	119.35
188.967	127.35
189.186	129.93
189.405	77.98
189.623	57.68
189.842	74.92
190.061	17.93
190.28	46.44
190.498	24
190.717	-837.5
190.936	-29.13
191.154	29.51
191.373	17.09
191.592	-554.55
191.81	179.86
192.029	-719.23
192.248	1780
192.466	87.18
192.685	70.15
192.904	88.15
193.122	66.05
193.341	49.72
193.559	79.8
193.778	80.78
193.996	82.34
194.215	129.1
194.433	139.18
194.652	97.98
194.87	350.59
195.089	141.78
195.307	438.64
195.526	1889.66
195.744	-497.37
195.963	319.35
196.181	219.19
196.399	284.68
196.618	219.72
196.836	322.16
197.055	337.39
197.273	505.36
197.491	595.28
197.71	649.57
197.928	790.41
198.146	198.58
198.365	233.33
198.583	176.18
198.801	200.56
199.019	202.36
199.238	152.05
199.456	99.84
199.674	87.07
199.892	106.94
200.111	112.62
200.329	123.83
200.547	120.05
200.765	141.31
200.983	188.45
201.202	145.45
201.42	217.48
201.638	231.62
201.856	1377.55
202.074	-4607.69
202.292	3276.47
202.51	-1466.67
202.728	380.2
202.946	444.13
203.165	386.27
203.383	391.88
203.601	1024
203.819	367.21
204.037	455.33
204.255	290
204.473	191.55
204.691	190.5
204.909	188.89
205.127	173.54
205.345	156.57
205.562	108.09
205.78	146.96
205.998	81.84
206.216	57.78
206.434	58.16
206.652	110.05
206.87	105.87
207.088	98.51
207.306	70.49
207.523	63.43
207.741	116.8
207.959	112.5
208.177	104.43
208.395	107.25
208.612	94.82
208.83	87.18
209.048	76.46
209.266	71.15
209.483	72.28
209.701	86.22
209.919	99.56
210.136	88.53
210.354	90.54
210.572	113.81
210.79	124.23
211.007	138.12
211.225	122.73
211.442	89.69
211.66	104.36
211.878	89.79
212.095	-40.36
212.313	-74.72
212.53	-68.56
212.748	-66.18
212.966	-103.47
213.183	-101.1
213.401	-112.12
213.618	-121.51
213.836	-162.19
214.053	-275.85
214.271	-201.55
214.488	76.79
214.705	140.36
214.923	221.54
215.14	196.92
215.358	125.48
215.575	116.2
215.793	138.32
216.01	140.09
216.227	117.78
216.445	136.77
216.662	165.67
216.879	166.91
217.097	156.35
217.314	133.01
217.531	118.12
217.749	133.94
217.966	128.82
218.183	126.1
218.4	98.01
218.618	104.7
218.835	76.44
219.052	62.68
219.269	50.48
219.487	27.76
219.704	4.38
219.921	16.67
220.138	6.61
220.355	28.34
220.572	51.85
220.79	60.77
221.007	79.32
221.224	60.88
221.441	69.51
221.658	53.89
221.875	74.7
222.092	84.77
222.309	89.93
222.526	86.34
222.743	83.57
222.96	111.8
223.177	107.81
223.394	101.19
223.611	102.43
223.828	83.43
224.045	101.51
224.262	96.14
224.479	103.25
224.696	111.39
224.913	107.51
225.13	73.39
225.347	50.72
225.564	47.3
225.781	36.63
225.997	36.85
226.214	27.19
226.431	18.02
226.648	19.13
226.865	12.06
227.082	8.54
227.298	4.59
227.515	8.02
227.732	10.77
227.949	9.47
228.165	12.52
228.382	10.19
228.599	11.77
228.816	12.29
229.032	10.72
229.249	10.92
229.466	16.19
229.682	15.88
229.899	20.63
230.116	18.01
230.332	18.93
230.549	20.28
230.765	25.27
230.982	23.42
231.199	36.13
231.415	45.33
231.632	52.6
231.848	45.04
232.065	48.28
232.281	47.91
232.498	43.64
232.714	44.67
232.931	44.22
233.147	36.09
233.364	42.25
233.58	41.11
233.797	33.87
234.013	33.61
234.23	39.27
234.446	33.14
234.662	29.05
234.879	37.75
235.095	29.59
235.312	19.59
235.528	35.86
235.744	36.46
235.961	28.63
236.177	23.47
236.393	27.72
236.61	9.49
236.826	17.53
237.042	12.19
237.258	11.08
237.475	31.23
237.691	37.99
237.907	33.48
238.123	29.17
238.339	30.37
238.556	31.82
238.772	30.27
238.988	34.37
239.204	27.37
239.42	27.3
239.636	26.85
239.853	18.89
240.069	15.19
240.285	9.13
240.501	8.83
240.717	8.98
240.933	6.7
241.149	2.66
241.365	1.94
241.581	3.57
241.797	-1.07
242.013	-1.28
242.229	-0.25
242.445	-1.91
242.661	1.04
242.877	-0.18
243.093	1.15
243.309	3.81
243.525	6.52
243.741	8.42
243.957	7.35
244.173	13.55
244.388	11.11
244.604	9.01
244.82	10.31
245.036	8.93
245.252	11.59
245.468	9.01
245.683	8.51
245.899	8.49
246.115	7.64
246.331	7.84
246.547	7.13
246.762	7.69
246.978	5.77
247.194	8.18
247.409	10.32
247.625	10.65
247.841	15.24
248.057	16.75
248.272	17.22
248.488	19.93
248.703	24.13
248.919	25.85
249.135	22.99
249.35	23.33
249.566	19.22
249.782	19.85
249.997	16.14
250.213	8.16
250.428	7.04
250.644	6.74
250.859	5.39
251.075	3.74
251.29	5.12
251.506	6.74
251.721	13.26
251.937	11.51
252.152	4.88
252.368	8.04
252.583	13.3
252.798	13.85
253.014	16.87
253.229	20.8
253.445	25.79
253.66	21.94
253.875	20.31
254.091	12.94
254.306	16.96
254.521	20.54
254.737	19.45
254.952	15.85
255.167	11.78
255.383	9.57
255.598	8.53
255.813	7.45
256.028	11.63
256.244	14.45
256.459	16.88
256.674	13.54
256.889	11.68
257.104	9.67
257.32	10.64
257.535	10.96
257.75	10.37
257.965	9.42
258.18	6.87
258.395	5.6
258.61	5.13
258.826	4.43
259.041	6.36
259.256	7.86
259.471	7.32
259.686	6.89
259.901	7.77
260.116	7.6
260.331	7.32
260.546	7.63
260.761	7.25
260.976	9.2
261.191	7.36
261.406	6.35
261.621	4.49
261.836	6.3
262.05	6.59
262.265	5.01
262.48	7.82
262.695	4.56
262.91	4.19
263.125	6.77
263.34	3.81
263.555	4.85
263.769	3.97
263.984	5.97
264.199	6.78
264.414	5.45
264.629	4.9
264.843	3.16
265.058	7.21
265.273	10.35
265.488	6.42
265.702	7.52
265.917	9.26
266.132	8.66
266.346	9.29
266.561	11.66
266.776	11.46
266.99	10.9
267.205	10.91
267.42	11.55
267.634	10.31
267.849	11.05
268.063	11.38
268.278	10.56
268.492	11.27
268.707	9.13
268.922	5.9
269.136	5.99
269.351	7.76
269.565	7.78
269.78	8.8
269.994	8.08
270.209	8.22
270.423	8.5
270.637	8.76
270.852	8.13
271.066	8.82
271.281	9.33
271.495	9.39
271.709	6.68
271.924	7.42
272.138	6.36
272.353	6.16
272.567	7.44
272.781	7.22
272.996	8.39
273.21	8.69
273.424	8.44
273.638	7.26
273.853	9
274.067	12.52
274.281	14
274.495	13.18
274.71	14.3
274.924	13.92
275.138	14.29
275.352	15.13
275.566	15.59
275.781	16.14
275.995	16.94
276.209	17.97
276.423	17.68
276.637	15.48
276.851	13.7
277.065	11.88
277.279	9.49
277.493	8.01
277.707	5.84
277.921	6.11
278.135	4.93
278.349	5.78
278.563	5.6
278.777	5.13
278.991	6.58
279.205	11.16
279.419	10.42
279.633	10
279.847	10.81
280.061	11.11
280.275	10.05
280.489	11.83
280.703	10.56
280.917	7.62
281.131	7.53
281.344	7.1
281.558	4.61
281.772	5.15
281.986	6.37
282.2	4.89
282.414	4.28
282.627	6.26
282.841	4.77
283.055	4.54
283.269	6.66
283.482	4.92
283.696	5
283.91	4.43
284.123	3.79
284.337	5.05
284.551	6.45
284.764	6.44
284.978	5.88
285.192	6.68
285.405	6.97
285.619	6.13
285.833	7.62
286.046	6.95
286.26	7.77
286.473	7.51
286.687	5.91
286.9	4.16
287.114	4.13
287.327	3.67
287.541	1.96
287.754	1.84
287.968	1.65
288.181	1.09
288.395	1.48
288.608	1.58
288.822	4.43
289.035	5.23
289.248	4.85
289.462	5.11
289.675	2.68
289.889	3.42
290.102	3.13
290.315	3.91
290.529	3.55
290.742	2.9
290.955	2.29
291.169	0.5
291.382	1.36
291.595	1.43
291.808	1.9
292.022	5.07
292.235	5.31
292.448	6.81
292.661	5.73
292.875	8.4
293.088	8.73
293.301	8.22
293.514	7.89
293.727	8.28
293.94	9.11
294.153	7.55
294.367	7.25
294.58	5.5
294.793	4.91
295.006	4.57
295.219	1.08
295.432	1.67
295.645	3.77
295.858	3.36
296.071	2.71
296.284	2.54
296.497	3.62
296.71	2.3
296.923	3.99
297.136	3.89
297.349	5
297.562	5.07
297.775	3.88
297.988	1.82
298.201	2.3
298.414	1.68
298.626	2.06
298.839	1.11
299.052	1.39
299.265	0.31
299.478	-0.72
299.691	-2.75
299.903	-1
300.116	-1.1
300.329	0.42
300.542	2.43
300.755	2.74
300.967	2.34
301.18	3.75
301.393	4.05
301.605	2.3
301.818	3.46
302.031	5.67
302.243	5.62
302.456	5.94
302.669	6.54
302.881	5.4
303.094	6.39
303.307	6.43
303.519	5.71
303.732	7.17
303.944	8.57
304.157	9.55
304.37	8.52
304.582	8.98
304.795	8.86
305.007	7.76
305.22	7.96
305.432	6.62
305.645	7.22
305.857	8.59
306.069	7.51
306.282	7.9
306.494	6.76
306.707	6.99
306.919	6.61
307.132	7.41
307.344	9.03
307.556	8.6
307.769	8.71
307.981	8.79
308.193	7.11
308.406	7.18
308.618	7.53
308.83	7.58
309.043	6.98
309.255	7.33
309.467	6.48
309.679	5.77
309.892	6.11
310.104	6.15
310.316	5.57
310.528	6.1
310.74	6.81
310.953	7.19
311.165	6.41
311.377	6.63
311.589	5.82
311.801	7.19
312.013	6.7
312.225	5.82
312.437	7.16
312.649	7.42
312.862	5.83
313.074	5.33
313.286	4.32
313.498	5.73
313.71	6.5
313.922	7.82
314.134	7.22
314.346	7.98
314.558	9.09
314.77	6.34
314.982	5.72
315.193	6.3
315.405	5.33
315.617	7.27
315.829	6.96
316.041	5.91
316.253	5.63
316.465	6.27
316.677	7.15
316.888	6.4
317.1	7.1
317.312	7.4
317.524	6.98
317.736	8.16
317.947	7.67
318.159	7.99
318.371	8.65
318.583	9.2
318.794	10.71
319.006	9.8
319.218	9.77
319.43	10.12
319.641	11.8
319.853	13.82
320.064	12.75
320.276	11.27
320.488	10.35
320.699	9.96
320.911	9.2
321.123	8.82
321.334	7.97
321.546	6.48
321.757	7.75
321.969	5.23
322.18	3.77
322.392	4.5
322.603	4.69
322.815	4.68
323.026	4.82
323.238	3.87
323.449	2.9
323.661	4.27
323.872	5.14
324.083	3.48
324.295	5.74
324.506	6.09
324.718	7.73
324.929	8.18
325.14	8.68
325.352	9.52
325.563	9.81
325.774	9.96
325.986	9.53
326.197	11.85
326.408	12.96
326.62	12.41
326.831	11.89
327.042	11.81
327.253	12.11
327.464	12.9
327.676	11.71
327.887	11.57
328.098	10.81
328.309	11.05
328.52	9.59
328.732	10.55
328.943	10.61
329.154	11.14
329.365	9.67
329.576	9.1
329.787	9.28
329.998	10.06
330.209	10.78
330.42	11.51
330.631	11.63
330.842	12.87
331.053	11.94
331.264	12.02
331.475	12.77
331.686	12.19
331.897	12.07
332.108	10.82
332.319	11.38
332.53	11.58
332.741	12.07
332.952	10.51
333.163	9.05
333.374	9.08
333.585	9.83
333.795	9.46
334.006	10.44
334.217	9.86
334.428	9.95
334.639	10.78
334.849	9.98
335.06	8.2
335.271	9.07
335.482	9.33
335.692	9.7
335.903	7.62
336.114	8.11
336.325	7.86
336.535	9.25
336.746	9.41
336.957	8.63
337.167	7.88
337.378	9
337.589	8.7
337.799	8.55
338.01	8.26
338.22	9.26
338.431	8.59
338.642	7.92
338.852	6.25
339.063	4.73
339.273	4.02
339.484	7.5
339.694	8.83
339.905	10.27
340.115	10.75
340.326	10.23
340.536	10.24
340.746	10.82
340.957	11.2
341.167	12.14
341.378	13.58
341.588	14.27
341.799	12.19
342.009	10.09
342.219	9.56
342.43	9.53
342.64	9.47
342.85	9
343.061	10.17
343.271	11.27
343.481	11.92
343.691	12.1
343.902	11.12
344.112	10.75
344.322	11.88
344.532	11.73
344.743	10.8
344.953	10.77
345.163	11.06
345.373	9.41
345.583	9.25
345.793	10.22
346.004	9.27
346.214	9.68
346.424	10.71
346.634	9.78
346.844	10.11
347.054	11.99
347.264	12.59
347.474	11.55
347.684	12.3
347.894	11.95
348.104	10.18
348.314	10.56
348.524	11.44
348.734	10.29
348.944	10.44
349.154	8.95
349.364	7.56
349.574	6.89
349.784	8.37
349.994	7.87
350.204	7.1
350.413	8.06
350.623	9.06
350.833	8.77
351.043	9.92
351.253	10.23
351.463	12.05
351.672	11.01
351.882	11.65
352.092	11.35
352.302	11.92
352.511	11.41
352.721	10.96
352.931	8.33
353.141	7.72
353.35	7.11
353.56	6.62
353.77	5.02
353.979	6.94
354.189	7.6
354.399	7.23
354.608	7.32
354.818	8.11
355.027	8.22
355.237	9.04
355.447	9.26
355.656	8.66
355.866	9.38
356.075	11.09
356.285	11.11
356.494	10.04
356.704	10.22
356.913	10.12
357.123	11.19
357.332	11.22
357.542	11.18
357.751	11.32
357.96	12.44
358.17	11.25
358.379	10.63
358.589	9.5
358.798	9.2
359.007	9.56
359.217	8.17
359.426	6.58
359.635	5.95
359.845	6.54
360.054	6.38
360.263	5.64
360.472	5.71
360.682	5.89
360.891	6.61
361.1	6.63
361.309	5.65
361.519	6.68
361.728	7.8
361.937	8.11
362.146	8.32
362.355	8.46
362.564	8.84
362.774	9.07
362.983	8.14
363.192	8.15
363.401	8.75
363.61	8.89
363.819	8.52
364.028	7.69
364.237	7.01
364.446	6.74
364.655	6
364.864	6.23
365.073	7.06
365.282	7.22
365.491	6.39
365.7	5.97
365.909	6.81
366.118	6.56
366.327	6.8
366.536	6.65
366.745	6.42
366.954	6.76
367.162	7.02
367.371	7.37
367.58	7.78
367.789	8.16
367.998	9.31
368.207	8.62
368.415	8.83
368.624	8.31
368.833	9.43
369.042	9.67
369.25	9.8
369.459	8.61
369.668	7.68
369.877	7.34
370.085	7.22
370.294	6.05
370.503	6.29
370.711	5.64
370.92	6.07
371.129	5.49
371.337	5.3
371.546	5.12
371.754	5.36
371.963	5.42
372.171	5.13
372.38	5.12
372.589	4.4
372.797	4.57
373.006	5.21
373.214	5.87
373.423	5.85
373.631	5.38
373.84	5.58
374.048	6.28
374.256	6.65
374.465	7.34
374.673	7.94
374.882	8.77
375.09	9.14
375.298	9.65
375.507	8.02
375.715	8.28
375.923	9.06
376.132	9.63
376.34	9.45
376.548	9.08
376.757	10.09
376.965	9.94
377.173	9.81
377.381	8.81
377.59	8.64
377.798	9.79
378.006	9.77
378.214	9.33
378.423	8.29
378.631	9.24
378.839	9.63
379.047	8.34
379.255	7.86
379.463	7.84
379.671	7.9
379.879	8.48
380.088	8.07
380.296	7.7
380.504	8.68
380.712	9.42
380.92	8.72
381.128	8.04
381.336	8.82
381.544	9.49
381.752	10.17
381.96	10.64
382.168	9.33
382.376	9.79
382.584	9.31
382.791	8.29
382.999	7.8
383.207	7.65
383.415	8.41
383.623	8.49
383.831	8.28
384.039	7.34
384.247	7.11
384.454	7.68
384.662	7.71
384.87	8.52
385.078	8.43
385.285	8.41
385.493	8.42
385.701	8.61
385.909	8.68
386.116	8.66
386.324	9.74
386.532	10
386.739	9.61
386.947	9.06
387.155	9.27
387.362	9.72
387.57	9.71
387.778	9.22
387.985	8.83
388.193	8.89
388.4	8.88
388.608	8.1
388.816	8.35
389.023	7.96
389.231	8.11
389.438	7.86
389.646	7.01
389.853	7.38
390.061	6.73
390.268	6.74
390.475	5.65
390.683	5.61
390.89	5.88
391.098	6.03
391.305	6.83
391.512	6.86
391.72	7.46
391.927	7.96
392.135	7.81
392.342	9
392.549	9.04
392.756	8.9
392.964	8.32
393.171	7.95
393.378	7.61
393.586	7.21
393.793	7.38
394	6.47
394.207	6.51
394.414	6.94
394.622	6.8
394.829	6.45
395.036	7.98
395.243	8.3
395.45	8.19
395.657	8.09
395.864	8.5
396.072	7.93
396.279	7.69
396.486	7.84
396.693	7.11
396.9	6.65
397.107	6.25
397.314	5.15
397.521	5.13
397.728	4.87
397.935	5.15
398.142	5.25
398.349	5.83
398.556	6.72
398.763	6.52
398.97	6.89
399.177	7.29
399.383	7.9
399.59	7.45
399.797	8.14
400.004	8.37
400.211	8.13
400.418	8.4
400.625	8.18
400.831	7.78
401.038	7.5
401.245	6.82
401.452	6.41
401.658	6.67
401.865	7.11
402.072	7
402.279	6.96
402.485	7.31
402.692	6.68
402.899	7.01
403.105	6.97
403.312	6.93
403.519	7.33
403.725	7.11
403.932	7.2
404.138	7.72
404.345	7.18
404.552	7.37
404.758	7.44
404.965	7.91
405.171	8.15
405.378	8.18
405.584	8.2
405.791	9.22
405.997	9.63
406.204	9.52
406.41	8.64
406.617	8.72
406.823	9.09
407.029	8.46
407.236	8.18
407.442	7.72
407.649	7.7
407.855	8.26
408.061	7.62
408.268	7.23
408.474	7.27
408.68	7.2
408.887	6.9
409.093	6.71
409.299	7
409.505	6.73
409.712	7.04
409.918	7.08
410.124	7.1
410.33	7.19
410.537	7.5
410.743	7.12
410.949	7.4
411.155	8.12
411.361	8.55
411.567	8.19
411.773	8.49
411.98	7.95
412.186	8.71
412.392	8.46
412.598	8.15
412.804	8.18
413.01	8.33
413.216	8.22
413.422	7.5
413.628	7.69
413.834	7.9
414.04	7.94
414.246	7.74
414.452	6.97
414.658	6.72
414.864	6.81
415.07	6.92
415.275	6.44
415.481	6.86
415.687	7.65
415.893	7.19
416.099	6.99
416.305	6.92
416.511	7.09
416.716	7.42
416.922	7.81
417.128	7.41
417.334	7.19
417.539	7.32
417.745	7.56
417.951	7.07
418.157	6.75
418.362	7.05
418.568	6.64
418.774	6.62
418.979	6.45
419.185	6.46
419.391	6.68
419.596	6.33
419.802	6.64
420.008	6.58
420.213	6.55
420.419	6.68
420.624	6.47
420.83	6.81
421.035	6.89
421.241	6.97
421.446	6.78
421.652	6.74
421.857	7.23
422.063	6.93
422.268	6.54
422.474	6.58
422.679	6.62
422.885	6.65
423.09	6.6
423.295	6.97
423.501	6.88
423.706	6.88
423.911	6.82
424.117	6.83
424.322	7.08
424.527	7.32
424.733	7.35
424.938	7.57
425.143	7.82
425.349	7.77
425.554	7.72
425.759	7.93
425.964	8.17
426.169	8.33
426.375	8.03
426.58	7.8
426.785	7.75
426.99	7.71
427.195	7.95
427.4	8.03
427.605	8.29
427.811	7.63
428.016	7.7
428.221	7.46
428.426	7.31
428.631	7.16
428.836	7.2
429.041	6.95
429.246	6.93
429.451	6.82
429.656	6.47
429.861	6.31
430.066	6.21
430.271	5.94
430.476	5.8
430.681	5.67
430.886	5.98
431.09	6.38
431.295	6.56
431.5	6.71
431.705	6.68
431.91	6.64
432.115	7.01
432.32	6.91
432.524	6.97
432.729	7.46
432.934	7.53
433.139	7.5
433.343	7.22
433.548	7.26
433.753	7.52
433.958	7.48
434.162	7.66
434.367	7.5
434.572	7.61
434.776	7.54
434.981	6.92
435.186	7.16
435.39	7.47
435.595	7.22
435.799	7.07
436.004	6.8
436.209	6.27
436.413	6.04
436.618	6.03
436.822	6.39
437.027	6.26
437.231	6.55
437.436	6.37
437.64	6.14
437.845	6.19
438.049	6.13
438.253	6.02
438.458	6.28
438.662	6.44
438.867	6.33
439.071	6.27
439.275	6.55
439.48	6.46
439.684	6.52
439.888	6.82
440.093	6.99
440.297	7.17
440.501	7.48
440.706	7.38
440.91	7.37
441.114	7.62
441.318	7.57
441.523	7.39
441.727	7.31
441.931	7.3
442.135	6.74
442.339	6.62
442.543	6.57
442.748	6.13
442.952	6.35
443.156	6.37
443.36	6.05
443.564	5.93
443.768	5.79
443.972	6.02
444.176	6.07
444.38	6.42
444.584	6.59
444.788	6.45
444.992	6.89
445.196	6.68
445.4	6.55
445.604	6.41
445.808	6.65
446.012	6.72
446.216	6.46
446.42	6.4
446.624	6.74
446.828	6.74
447.032	7.01
447.235	6.74
447.439	7.26
447.643	7.56
447.847	7.91
448.051	7.8
448.254	8.05
448.458	8.31
448.662	8.08
448.866	7.67
449.069	7.7
449.273	7.28
449.477	7.25
449.681	6.81
449.884	6.42
450.088	6.06
450.292	5.81
450.495	5.42
450.699	5.72
450.902	6.05
451.106	5.96
451.31	5.86
451.513	5.92
451.717	5.88
451.92	5.84
452.124	6.1
452.327	6.56
452.531	6.82
452.734	7.12
452.938	6.97
453.141	6.96
453.345	7.02
453.548	7.13
453.752	7.01
453.955	7.35
454.158	7.4
454.362	7.39
454.565	7.33
454.769	7.23
454.972	6.88
455.175	6.51
455.379	6.41
455.582	6.32
455.785	6.22
455.988	6.65
456.192	6.03
456.395	5.8
456.598	5.55
456.801	5.65
457.005	6.3
457.208	6.37
457.411	6.66
457.614	6.54
457.817	6.54
458.021	6.36
458.224	6.39
458.427	6.34
458.63	6.55
458.833	6.69
459.036	6.39
459.239	5.98
459.442	5.9
459.645	5.81
459.848	5.79
460.051	5.84
460.254	6.16
460.457	6.22
460.66	6.53
460.863	6.48
461.066	6.37
461.269	6.39
461.472	6.16
461.675	6.37
461.878	6.15
462.081	6.43
462.284	6.72
462.486	6.43
462.689	6.27
462.892	6.57
463.095	6.36
463.298	6.19
463.5	6.19
463.703	6.16
463.906	6.53
464.109	7.03
464.311	6.9
464.514	6.62
464.717	6.79
464.92	7.08
465.122	6.97
465.325	6.87
465.528	7.36
465.73	7.18
465.933	7.46
466.135	7.66
466.338	7.72
466.541	8.14
466.743	8.07
466.946	8.14
467.148	8.39
467.351	8.21
467.553	8.54
467.756	8.39
467.958	9.16
468.161	8.85
468.363	8.4
468.566	7.97
468.768	7.4
468.971	7.57
469.173	7.55
469.375	6.81
469.578	6.92
469.78	6.97
469.983	7.03
470.185	6.61
470.387	6.72
470.59	6.66
470.792	6.83
470.994	6.62
471.196	6.43
471.399	6.15
471.601	6.31
471.803	6.64
472.005	6.54
472.208	6.28
472.41	6.06
472.612	6.53
472.814	6.87
473.016	7.2
473.218	7.95
473.421	8.25
473.623	8.5
473.825	8.7
474.027	8.75
474.229	8.74
474.431	8.82
474.633	8.82
474.835	8.8
475.037	8.51
475.239	8.52
475.441	8.05
475.643	7.94
475.845	7.76
476.047	7.52
476.249	7.07
476.451	7
476.653	7.15
476.855	7.19
477.057	7.18
477.258	7.05
477.46	6.91
477.662	6.88
477.864	6.67
478.066	6.73
478.268	6.63
478.469	6.68
478.671	6.8
478.873	6.72
479.075	6.65
479.276	6.59
479.478	6.67
479.68	6.8
479.882	6.97
480.083	7.14
480.285	7.11
480.487	7.26
480.688	7.24
480.89	7.04
481.091	6.92
481.293	6.71
481.495	6.63
481.696	6.58
481.898	6.15
482.099	6.06
482.301	5.96
482.502	5.93
482.704	5.74
482.905	5.64
483.107	5.51
483.308	5.44
483.51	5.53
483.711	5.53
483.913	5.5
484.114	5.68
484.315	5.8
484.517	5.75
484.718	5.76
484.92	5.96
485.121	5.99
485.322	6.14
485.524	6.19
485.725	6.31
485.926	6.3
486.127	6.28
486.329	6.31
486.53	6.27
486.731	6.25
486.932	6.27
487.134	6.17
487.335	6.16
487.536	6.13
487.737	6.18
487.938	6.05
488.139	5.98
488.341	5.97
488.542	5.73
488.743	5.61
488.944	5.7
489.145	5.87
489.346	5.98
489.547	5.97
489.748	6
489.949	5.91
490.15	5.97
490.351	6.07
490.552	6.04
490.753	6.34
490.954	6.39
491.155	6.42
491.356	6.24
491.557	6.15
491.758	6.35
491.959	6.31
492.159	6.52
492.36	6.63
492.561	6.71
492.762	6.9
492.963	6.84
493.164	7.11
493.364	7.3
493.565	7.43
493.766	7.69
493.967	7.8
494.167	7.94
494.368	7.92
494.569	7.63
494.769	7.61
494.97	7.59
495.171	7.31
495.371	7.05
495.572	6.94
495.773	6.73
495.973	6.85
496.174	6.73
496.375	6.87
496.575	6.77
496.776	6.93
496.976	6.87
497.177	6.85
497.377	7.04
497.578	7.25
497.778	7.38
497.979	7.84
498.179	7.64
498.38	7.8
498.58	7.86
498.78	8.02
498.981	8.04
499.181	7.92
499.382	8.34
499.582	8.22
499.782	7.91
499.983	7.93
500.183	7.8
500.383	8.07
500.584	8.11
500.784	8.24
500.984	8.38
501.184	8.58
501.385	8.91
501.585	8.71
501.785	9.2
501.985	9.34
502.185	9.23
502.386	9.1
502.586	9.18
502.786	8.85
502.986	8.75
503.186	8.78
503.386	8.76
503.586	8.34
503.786	8.2
503.987	7.9
504.187	7.78
504.387	7.75
504.587	7.91
504.787	7.54
504.987	7.82
505.187	7.87
505.387	7.73
505.587	7.79
505.786	8.16
505.986	8.08
506.186	8.16
506.386	8.05
506.586	8.28
506.786	8.01
506.986	8.4
507.186	8.35
507.386	8.39
507.585	8.48
507.785	8.45
507.985	8.41
508.185	8.53
508.384	8.45
508.584	8.75
508.784	8.77
508.984	8.73
509.183	8.49
509.383	8.39
509.583	8.12
509.782	8.29
509.982	8.16
510.182	7.96
510.381	7.78
510.581	7.94
510.781	8.11
510.98	7.94
511.18	8
511.379	8.09
511.579	8.05
511.778	8.44
511.978	8.31
512.177	8.51
512.377	8.71
512.576	8.72
512.776	8.68
512.975	8.33
513.175	8.44
513.374	8.63
513.573	8.66
513.773	8.93
513.972	8.99
514.172	8.92
514.371	8.91
514.57	8.71
514.77	8.81
514.969	8.69
515.168	9.12
515.367	9.12
515.567	9.02
515.766	9.2
515.965	8.84
516.164	8.69
516.364	8.69
516.563	8.61
516.762	8.52
516.961	8.71
517.16	8.7
517.359	8.54
517.559	8.46
517.758	8.49
517.957	8.38
518.156	8.62
518.355	8.62
518.554	8.68
518.753	8.83
518.952	9.25
519.151	9.2
519.35	9.31
519.549	9.58
519.748	9.49
519.947	9.75
520.146	9.7
520.345	9.93
520.544	9.99
520.743	9.87
520.942	10.11
521.141	9.98
521.339	10.08
521.538	10.14
521.737	10.29
521.936	10.44
522.135	10.47
522.333	10.6
522.532	10.36
522.731	10.4
522.93	10.55
523.129	9.95
523.327	9.86
523.526	9.81
523.725	10.11
523.923	9.91
524.122	9.8
524.321	9.84
524.519	9.78
524.718	9.6
524.917	9.37
525.115	9.43
525.314	9.69
525.512	9.74
525.711	9.56
525.909	9.21
526.108	9.2
526.306	9.23
526.505	8.91
526.703	8.8
526.902	8.98
527.1	9.02
527.299	8.87
527.497	8.73
527.696	8.76
527.894	8.94
528.092	9.03
528.291	8.95
528.489	8.8
528.688	8.97
528.886	9.1
529.084	9.19
529.283	9.35
529.481	9.46
529.679	9.55
529.877	9.55
530.076	9.6
530.274	9.73
530.472	9.6
530.67	9.85
530.869	9.75
531.067	9.71
531.265	9.64
531.463	9.5
531.661	9.59
531.859	9.75
532.057	9.75
532.255	9.72
532.454	9.6
532.652	9.79
532.85	9.89
533.048	9.91
533.246	9.96
533.444	9.88
533.642	10.04
533.84	9.96
534.038	9.79
534.236	9.97
534.434	10.01
534.632	10.28
534.83	10.22
535.027	10.45
535.225	10.77
535.423	10.74
535.621	10.8
535.819	10.7
536.017	10.67
536.215	10.8
536.412	10.77
536.61	10.82
536.808	10.78
537.006	11.09
537.203	11.14
537.401	11.05
537.599	11.23
537.797	11.31
537.994	11.32
538.192	11.56
538.39	11.77
538.587	11.8
538.785	11.57
538.983	11.39
539.18	11.47
539.378	11.28
539.575	11.12
539.773	11.15
539.97	11.24
540.168	11.25
540.366	11.27
540.563	11.21
540.761	11.2
540.958	11.28
541.155	11.35
541.353	11.36
541.55	11.35
541.748	11.54
541.945	11.5
542.143	11.62
542.34	11.94
542.537	11.99
542.735	12.04
542.932	12.14
543.129	12.14
543.327	12.11
543.524	11.98
543.721	12.32
543.919	12.37
544.116	12.53
544.313	12.63
544.51	12.23
544.708	12.46
544.905	12.77
545.102	13.07
545.299	13.29
545.496	13.46
545.693	13.58
545.891	13.49
546.088	13.51
546.285	13.57
546.482	13.5
546.679	13.92
546.876	13.98
547.073	13.94
547.27	13.78
547.467	14.01
547.664	14.33
547.861	14.73
548.058	14.73
548.255	15.06
548.452	15.3
548.649	15.58
548.846	15.95
549.043	16.02
549.24	16.22
549.437	16.41
549.633	16.25
549.83	16.17
550.027	15.86
550.224	16.24
550.421	16.35
550.618	16.38
550.814	16.3
551.011	16.35
551.208	16.23
551.405	16.24
551.601	16.15
551.798	16.27
551.995	16.29
552.191	16.63
552.388	16.71
552.585	16.8
552.781	17.02
552.978	16.89
553.175	16.76
553.371	17.01
553.568	17.29
553.764	17.46
553.961	17.89
554.157	18.16
554.354	18.13
554.55	17.45
554.747	17.52
554.943	17.27
555.14	17.85
555.336	18.23
555.533	18.17
555.729	18.52
555.926	18.82
556.122	18.89
556.318	19.25
556.515	19.3
556.711	20.11
556.907	20.38
557.104	20.89
557.3	21.01
557.496	20.82
557.693	20.91
557.889	20.54
558.085	20.41
558.281	20.39
558.478	20.29
558.674	20.46
558.87	20.63
559.066	20.64
559.262	20.58
559.459	20.7
559.655	20.53
559.851	20.99
560.047	21.14
560.243	21.56
560.439	21.84
560.635	22.02
560.831	21.96
561.027	22.27
561.223	21.9
561.419	22.28
561.615	22.22
561.811	22.32
562.007	22.28
562.203	22.58
562.399	22.23
562.595	22.04
562.791	21.76
562.987	21.81
563.183	21.54
563.379	22.19
563.575	21.91
563.771	22.11
563.966	22.01
564.162	21.93
564.358	21.64
564.554	21.95
564.75	21.87
564.945	22.2
565.141	22.45
565.337	22.82
565.533	22.54
565.728	22.57
565.924	22.15
566.12	22.71
566.315	22.77
566.511	23
566.707	22.93
566.902	23.09
567.098	23.07
567.293	23.22
567.489	23.18
567.684	23.32
567.88	23.34
568.076	23.67
568.271	23.52
568.467	23.82
568.662	23.88
568.858	24.31
569.053	24.57
569.248	24.79
569.444	24.67
569.639	24.28
569.835	24.52
570.03	24.73
570.225	24.77
570.421	25.26
570.616	24.98
570.812	25.09
571.007	25.12
571.202	25.28
571.397	25.31
571.593	25.48
571.788	25.48
571.983	25.84
572.178	25.71
572.374	25.54
572.569	25.26
572.764	25.26
572.959	25.59
573.154	25.67
573.35	25.77
573.545	25.7
573.74	25.81
573.935	26.53
574.13	26.14
574.325	26.28
574.52	26.8
574.715	26.98
574.91	27.7
575.105	27.48
575.3	27.52
575.495	27.37
575.69	27.6
575.885	27.44
576.08	27.41
576.275	27.47
576.47	28.04
576.665	28.65
576.86	28.69
577.055	28.4
577.25	28.68
577.444	29.12
577.639	29.7
577.834	30.02
578.029	30.82
578.224	30.82
578.418	31.28
578.613	31.98
578.808	32.13
579.003	32.33
579.197	32.26
579.392	32.51
579.587	32.17
579.781	32.17
579.976	32.02
580.171	31.95
580.365	31.91
580.56	32.37
580.755	31.96
580.949	31.72
581.144	31.8
581.338	32.49
581.533	32.65
581.727	33.08
581.922	33.28
582.116	33.9
582.311	33.98
582.505	34.89
582.7	34.84
582.894	34.65
583.089	34.33
583.283	34.66
583.478	34.21
583.672	34.4
583.866	34.45
584.061	34.19
584.255	34.11
584.449	34.77
584.644	34.83
584.838	34.91
585.032	34.89
585.226	35.25
585.421	35.7
585.615	35.82
585.809	35.63
586.003	36.2
586.198	36.75
586.392	36.78
586.586	36.63
586.78	36.33
586.974	36.7
587.168	36.64
587.363	36.48
587.557	36.39
587.751	36.74
587.945	36.93
588.139	35.85
588.333	35.68
588.527	36.14
588.721	35.56
588.915	35.42
589.109	34.99
589.303	35.53
589.497	35.94
589.691	36.09
589.885	36.17
590.079	36.32
590.273	37.37
590.466	37.44
590.66	37.02
590.854	37.58
591.048	37.9
591.242	37.79
591.436	37.85
591.629	38.16
591.823	38.23
592.017	38.11
592.211	38.2
592.404	38.25
592.598	38.56
592.792	39
592.986	39.02
593.179	38.75
593.373	39.33
593.567	39.24
593.76	39.08
593.954	39.13
594.147	39.86
594.341	40.05
594.535	39.45
594.728	39.55
594.922	39.31
595.115	39.01
595.309	39.26
595.502	38.85
595.696	38.84
595.889	38.85
596.083	38.84
596.276	38.48
596.47	38.11
596.663	38.67
596.856	38.56
597.05	38.61
597.243	39.45
597.437	39.52
597.63	40.42
597.823	40.54
598.017	40.9
598.21	41.19
598.403	41.6
598.596	42.23
598.79	42.4
598.983	42.62
599.176	42.73
599.369	42.65
599.563	42.83
599.756	42.09
599.949	42.46
600.142	42.19
600.335	42.21
600.528	41.86
600.722	41.77
600.915	41.28
601.108	41.6
601.301	41.34
601.494	40.87
601.687	40.34
601.88	40
602.073	39.85
602.266	39.73
602.459	38.97
602.652	38.61
602.845	38.43
603.038	38.72
603.231	38.02
603.424	38.35
603.617	38.61
603.809	38.64
604.002	38.94
604.195	38.53
604.388	38.78
604.581	39.14
604.774	39.76
604.966	39.85
605.159	39.73
605.352	40.5
605.545	40.81
605.737	41.03
605.93	42.17
606.123	42.1
606.316	42.42
606.508	42.35
606.701	42.92
606.894	42.87
607.086	42.86
607.279	42.83
607.471	42.59
607.664	42.29
607.857	41.49
608.049	41.52
608.242	41.81
608.434	42.18
608.627	42.38
608.819	42.4
609.012	42.4
609.204	42.48
609.397	42.63
609.589	42.53
609.782	43.02
609.974	43.58
610.166	43.18
610.359	43.76
610.551	44.15
610.743	44.71
610.936	44.88
611.128	45.36
611.32	45.9
611.513	46.37
611.705	46.92
611.897	46.93
612.09	47.89
612.282	48.06
612.474	47.93
612.666	47.95
612.858	47.97
613.051	47.74
613.243	48.03
613.435	48
613.627	47.6
613.819	47.62
614.011	47.84
614.203	47.42
614.395	48.26
614.588	49.3
614.78	49.27
614.972	49.44
615.164	50.12
615.356	49.77
615.548	50.15
615.74	50.98
615.932	52
616.124	52.33
616.315	52.52
616.507	52.21
616.699	51.48
616.891	51.78
617.083	51.47
617.275	51
617.467	51.86
617.659	51.88
617.85	51.92
618.042	50.99
618.234	50.01
618.426	49.89
618.618	50.06
618.809	50.79
619.001	50.43
619.193	50.75
619.384	50.5
619.576	49.77
619.768	49.94
619.959	49.89
620.151	49.75
620.343	50.45
620.534	50.13
620.726	50.38
620.917	50.53
621.109	51.64
621.301	52.04
621.492	52.62
621.684	53.27
621.875	52.46
622.067	52.58
622.258	52.79
622.45	53.14
622.641	53.55
622.832	53.11
623.024	51.9
623.215	50.87
623.407	50.25
623.598	50.6
623.789	50.65
623.981	50.9
624.172	50.61
624.363	50.96
624.555	50.55
624.746	50.01
624.937	49.58
625.129	49.19
625.32	49.32
625.511	49.14
625.702	48.6
625.893	48.31
626.085	48.57
626.276	48.89
626.467	48.69
626.658	48.68
626.849	49.11
627.04	49.46
627.231	51.33
627.422	51.62
627.614	52.23
627.805	53.06
627.996	53.39
628.187	53.8
628.378	53.67
628.569	53.57
628.76	53.53
628.951	53.62
629.142	54.61
629.332	53.35
629.523	53.27
629.714	53.31
629.905	53
630.096	53.27
630.287	54.36
630.478	54.35
630.669	55.09
630.859	55.78
631.05	56.32
631.241	56.16
631.432	56.68
631.623	57.36
631.813	57.84
632.004	57.98
632.195	58.08
632.385	56.41
632.576	56.68
632.767	56.17
632.957	56.06
633.148	55.74
633.339	55.61
633.529	55.1
633.72	54.58
633.91	53.66
634.101	53.74
634.292	53.2
634.482	53.81
634.673	54.74
634.863	54.66
635.054	54.56
635.244	55.01
635.435	54.97
635.625	55.38
635.815	56.22
636.006	56.78
636.196	57.03
636.387	58.04
636.577	58.59
636.767	57.95
636.958	58.48
637.148	58.96
637.338	59.08
637.529	58.96
637.719	59.07
637.909	58.62
638.099	58.62
638.29	58.63
638.48	58.45
638.67	57.74
638.86	58.17
639.05	58.86
639.241	59.52
639.431	59.96
639.621	60.13
639.811	61.2
640.001	61.76
640.191	62.51
640.381	63.39
640.571	63.8
640.761	65.02
640.951	64.81
641.141	64.63
641.331	63.52
641.521	63.02
641.711	63.67
641.901	62.95
642.091	62.9
642.281	64.13
642.471	63.5
642.661	62.9
642.851	62.71
643.041	63.08
643.231	62.98
643.42	64.23
643.61	65.3
643.8	65.75
643.99	66
644.18	65.24
644.369	63.35
644.559	63.99
644.749	64.2
644.939	64.88
645.128	64.25
645.318	64.4
645.508	63.78
645.697	62.69
645.887	62
646.076	62.03
646.266	62.08
646.456	62.72
646.645	61.79
646.835	61.51
647.024	60.32
647.214	60.6
647.403	60.16
647.593	60.17
647.782	60.31
647.972	60.79
648.161	61.06
648.351	61.22
648.54	61.38
648.73	61.43
648.919	61.83
649.108	62.23
649.298	62.18
649.487	63.29
649.677	63.4
649.866	63.91
650.055	63
650.244	62.91
650.434	62.45
650.623	62.49
650.812	63.01
651.002	63.13
651.191	63.59
651.38	63.98
651.569	63.23
651.758	63.88
651.947	63.57
652.137	63.85
652.326	63.73
652.515	64.63
652.704	64.52
652.893	63.94
653.082	64.07
653.271	63.71
653.46	63.93
653.649	64.11
653.838	63.43
654.027	63.38
654.216	64.97
654.405	64.91
654.594	65.16
654.783	64.19
654.972	63.76
655.161	64.32
655.35	64.24
655.539	64.04
655.728	64.33
655.916	64.46
656.105	63.91
656.294	63.03
656.483	63.13
656.672	62.42
656.86	62.98
657.049	63.49
657.238	61.51
657.427	61.1
657.615	60.04
657.804	58.93
657.993	57.69
658.181	57.66
658.37	57.14
658.559	56.36
658.747	56.66
658.936	56.55
659.125	54.74
659.313	55.86
659.502	56.28
659.69	57.45
659.879	58.02
660.067	59.61
660.256	60.26
660.444	60.07
660.633	61.09
660.821	61.11
661.01	61.31
661.198	64.36
661.387	64.54
661.575	65.16
661.763	64.78
661.952	65.66
662.14	65.17
662.328	65.39
662.517	66.66
662.705	67.94
662.893	69.44
663.082	70.19
663.27	69.55
663.458	69.86
663.646	70.68
663.834	71.62
664.023	72.28
664.211	72.34
664.399	73
664.587	73.31
664.775	72.62
664.963	71.83
665.152	72.03
665.34	73.28
665.528	72.36
665.716	72.04
665.904	71.5
666.092	70.56
666.28	70.65
666.468	69.89
666.656	69.19
666.844	69.12
667.032	69.48
667.22	70.23
667.408	69.57
667.596	69.94
667.784	69.38
667.971	69.73
668.159	70.49
668.347	71
668.535	71.7
668.723	71.37
668.911	71.08
669.098	71.08
669.286	69.72
669.474	69.36
669.662	69.83
669.849	70.97
670.037	71.48
670.225	71.08
670.413	71.64
670.6	72.41
670.788	73.06
670.976	73.03
671.163	72.68
671.351	73.08
671.538	74.11
671.726	74.18
671.913	73.03
672.101	72.55
672.289	72.95
672.476	73.01
672.664	72.11
672.851	72.15
673.039	71.99
673.226	71.82
673.413	72.82
673.601	72.6
673.788	73.27
673.976	73.48
674.163	74.01
674.35	74.15
674.538	73.96
674.725	75.05
674.912	75.51
675.1	76.32
675.287	76.59
675.474	77.01
675.662	75.3
675.849	74.48
676.036	74.94
676.223	73.62
676.411	73.19
676.598	72.88
676.785	71.95
676.972	72.1
677.159	71.64
677.346	71.39
677.533	69.33
677.721	69.1
677.908	69.45
678.095	68.26
678.282	69.17
678.469	69.05
678.656	69.35
678.843	67.73
679.03	66.41
679.217	66.21
679.404	65.41
679.591	65.72
679.778	66.89
679.964	66.57
680.151	66.82
680.338	66.49
680.525	66.38
680.712	65.94
680.899	68.07
681.086	68.22
681.272	68.22
681.459	69.65
681.646	69.94
681.833	70.34
682.02	70.16
682.206	70.9
682.393	71.37
682.58	72.72
682.766	72.45
682.953	71.21
683.14	72.88
683.326	73.04
683.513	72.01
683.7	72.91
683.886	72.65
684.073	73.01
684.259	73.25
684.446	73.04
684.632	71.89
684.819	72.88
685.005	73.88
685.192	72.48
685.378	73.08
685.565	74.35
685.751	74.7
685.938	74.29
686.124	74.25
686.31	74.22
686.497	74.54
686.683	75.18
686.87	74.98
687.056	75.11
687.242	76.2
687.429	75.91
687.615	75.98
687.801	75.39
687.987	76.35
688.174	76.97
688.36	76.9
688.546	77.23
688.732	76.95
688.918	77.36
689.105	76.43
689.291	75.87
689.477	75.68
689.663	76.52
689.849	76.92
690.035	77.3
690.221	77.81
690.407	76.77
690.593	76.75
690.779	76.62
690.965	76.22
691.151	78.36
691.337	79.54
691.523	80.81
691.709	79.86
691.895	80.43
692.081	81.53
692.267	81.93
692.453	83.51
692.639	84.26
692.825	84.55
693.011	84.84
693.196	83.78
693.382	83.57
693.568	84.25
693.754	84.18
693.94	84.57
694.125	83.51
694.311	82.22
694.497	82.54
694.682	81.55
694.868	82.47
695.054	82.53
695.239	81.74
695.425	79.82
695.611	77.89
695.796	77.78
695.982	75.27
696.168	74.38
696.353	74.36
696.539	71.83
696.724	71.23
696.91	69.26
697.095	67.38
697.281	66.1
697.466	66.35
697.652	65.09
697.837	63.93
698.023	63.81
698.208	63.55
698.393	62.6
698.579	63.97
698.764	63.3
698.949	64.77
699.135	65.68
699.32	67.06
699.505	67.69
699.691	69.8
699.876	71.08
700.061	72.55
700.246	73.93
700.432	76.17
700.617	75.99
700.802	78.77
700.987	78.85
701.172	80.73
701.358	81.4
701.543	83.15
701.728	84.35
701.913	85.67
702.098	86.9
702.283	88.48
702.468	89.21
702.653	90.01
702.838	88.65
703.023	89.25
703.208	89.64
703.393	91.89
703.578	93.22
703.763	92.96
703.948	92.33
704.133	91.48
704.318	91.5
704.503	90.96
704.688	91.11
704.873	92.55
705.057	91.61
705.242	92.16
705.427	88.64
705.612	86.63
705.797	86.78
705.981	87.53
706.166	87.87
706.351	87.92
706.536	87.4
706.72	87.84
706.905	86.8
707.09	87.66
707.274	87.72
707.459	89.51
707.644	90.77
707.828	90.26
708.013	87.82
708.197	88.28
708.382	86.38
708.567	86.09
708.751	86.19
708.936	86.85
709.12	86.58
709.305	86.08
709.489	86.71
709.673	85.45
709.858	84.66
710.042	86.17
710.227	84.27
710.411	84.13
710.596	84.93
710.78	84.51
710.964	84.55
711.149	84.02
711.333	82.69
711.517	82.8
711.702	84.1
711.886	84.75
712.07	83.43
712.254	85.7
712.438	86.19
712.623	85.57
712.807	85.34
712.991	84.08
713.175	85.11
713.359	86.19
713.544	83.8
713.728	83.24
713.912	84.44
714.096	85.64
714.28	84.32
714.464	84.09
714.648	85.31
714.832	85.38
715.016	85.96
715.2	85.65
715.384	84.89
715.568	87.27
715.752	87.66
715.936	87.54
716.12	87.59
716.304	88.18
716.488	88.67
716.671	87.63
716.855	89.38
717.039	91.18
717.223	92.39
717.407	93.75
717.59	93.98
717.774	93.48
717.958	93.86
718.142	92.62
718.325	94.11
718.509	95.95
718.693	97.58
718.877	96.78
719.06	96.28
719.244	95.98
719.428	97.28
719.611	96.71
719.795	99.39
719.978	98.81
720.162	101.34
720.345	100.11
720.529	101.08
720.713	102
720.896	103.12
721.08	104.57
721.263	104.03
721.446	104.66
721.63	105.69
721.813	103.77
721.997	104.5
722.18	108.19
722.364	109.11
722.547	106.58
722.73	107.23
722.914	106.4
723.097	104.58
723.28	104.07
723.464	104.36
723.647	103.27
723.83	102.92
724.013	101.85
724.197	97.26
724.38	99.04
724.563	100
724.746	96.93
724.929	95.64
725.112	97.51
725.296	96.99
725.479	97.08
725.662	96.32
725.845	96.84
726.028	97.07
726.211	96.44
726.394	93.32
726.577	92.25
726.76	94.38
726.943	93.97
727.126	93
727.309	93.59
727.492	91.37
727.675	92.35
727.858	92.44
728.041	92.86
728.224	95.27
728.407	98.23
728.589	97.26
728.772	97.62
728.955	98.53
729.138	96.69
729.321	95.6
729.503	97.14
729.686	95.76
729.869	94.56
730.052	93.99
730.234	92.54
730.417	91.14
730.6	91.02
730.782	90.13
730.965	90.11
731.148	94.38
731.33	95.32
731.513	94
731.695	96.48
731.878	96.96
732.061	97.77
732.243	97.74
732.426	97.44
732.608	100.13
732.791	98.1
732.973	97.31
733.156	95.18
733.338	95.22
733.52	95.45
733.703	93.74
733.885	94.14
734.068	94.74
734.25	96.33
734.432	97.47
734.615	94.4
734.797	96.2
734.979	98.05
735.162	97.38
735.344	100.56
735.526	100.97
735.708	101.63
735.891	101.8
736.073	100.02
736.255	98.84
736.437	97.19
736.619	102.16
736.802	102.24
736.984	102.56
737.166	103.03
737.348	99.84
737.53	101.86
737.712	101.65
737.894	101.83
738.076	102.88
738.258	104.25
738.44	106.2
738.622	103.91
738.804	105.32
738.986	105.7
739.168	107.35
739.35	109.1
739.532	107.94
739.714	108.92
739.896	109.55
740.078	110.03
740.259	109.47
740.441	110.12
740.623	111.43
740.805	111.77
740.987	110.92
741.168	108.56
741.35	110.62
741.532	112.54
741.714	112.59
741.895	113.51
742.077	112.62
742.259	113.81
742.44	112.15
742.622	110.17
742.804	107.23
742.985	107.52
743.167	108.84
743.348	105.96
743.53	105.39
743.711	106.47
743.893	106.12
744.075	107.7
744.256	106.4
744.438	110.43
744.619	112.12
744.8	114.96
744.982	115.91
745.163	117.29
745.345	118.49
745.526	118.12
745.707	117.59
745.889	118.55
746.07	116.89
746.252	122.52
746.433	119.23
746.614	118.9
746.795	115.94
746.977	115.11
747.158	112
747.339	111.44
747.52	110.4
747.702	110.44
747.883	108.95
748.064	109.5
748.245	106.17
748.426	104.87
748.607	105.12
748.788	105.82
748.97	108.18
749.151	110.87
749.332	114.73
749.513	117.13
749.694	119.23
749.875	121.94
750.056	125.19
750.237	125.02
750.418	126.68
750.599	128.26
750.78	129.97
750.96	127.55
751.141	127.57
751.322	125.52
751.503	123.74
751.684	122.06
751.865	119.25
752.046	118.3
752.226	117.65
752.407	116.97
752.588	116.76
752.769	116.96
752.949	115.65
753.13	114.08
753.311	110.91
753.492	110.93
753.672	110.23
753.853	111.67
754.034	110.74
754.214	111.09
754.395	110.97
754.575	108.85
754.756	108.83
754.937	112.1
755.117	112.79
755.298	115.29
755.478	113.69
755.659	116.53
755.839	114.26
756.02	115.1
756.2	116.21
756.381	117.44
756.561	117.94
756.741	117.56
756.922	115.28
757.102	116.37
757.283	115.35
757.463	116.41
757.643	112.34
757.823	113.56
758.004	112.69
758.184	112.34
758.364	110.94
758.545	110.93
758.725	113.17
758.905	113.72
759.085	113.09
759.265	112.98
759.446	112.97
759.626	113.6
759.806	110.95
759.986	111.17
760.166	110.01
760.346	109.56
760.526	109.97
760.706	107.48
760.886	105.18
761.066	103.82
761.246	101.37
761.426	99.2
761.606	96.93
761.786	95.77
761.966	93.7
762.146	91.96
762.326	90.9
762.506	89.21
762.686	86.12
762.866	85.49
763.046	84.48
763.225	84.06
763.405	84.68
763.585	85.65
763.765	87.43
763.945	88.32
764.124	88.04
764.304	88.52
764.484	91.17
764.664	93.01
764.843	93.37
765.023	94.84
765.203	97.56
765.382	97.96
765.562	98.4
765.741	100.78
765.921	101.66
766.101	105.69
766.28	107.21
766.46	105.48
766.639	109.72
766.819	116.31
766.998	117.93
767.178	117.53
767.357	120.17
767.537	123.1
767.716	122.4
767.896	124.23
768.075	123.01
768.254	123.37
768.434	125.81
768.613	125.31
768.792	122.67
768.972	125.34
769.151	126.11
769.33	123.56
769.51	122.72
769.689	123.62
769.868	122.2
770.047	119.99
770.226	121.13
770.406	123.03
770.585	122.39
770.764	123.62
770.943	120.63
771.122	123.85
771.301	125.9
771.48	127.09
771.66	125.23
771.839	128.81
772.018	136.51
772.197	138.36
772.376	136.49
772.555	138.02
772.734	135.3
772.913	141.09
773.092	141.51
773.271	142.59
773.449	147.28
773.628	150.48
773.807	150.02
773.986	147.64
774.165	145.45
774.344	148.82
774.523	152.52
774.701	152.62
774.88	145.65
775.059	146.93
775.238	144.02
775.417	138.04
775.595	141.06
775.774	139.18
775.953	142.25
776.131	143.35
776.31	139.45
776.489	133.69
776.667	135.64
776.846	142
777.025	138.95
777.203	139.31
777.382	141.48
777.56	138.6
777.739	138.3
777.917	135.14
778.096	136.47
778.274	134.84
778.453	137.95
778.631	138
778.81	132.49
778.988	132.86
779.166	134.44
779.345	132.97
779.523	133.15
779.702	134.91
779.88	133.35
780.058	130.16
780.237	132.2
780.415	130.53
780.593	132.19
780.771	134.19
780.95	136.34
781.128	140.33
781.306	141.45
781.484	141.25
781.662	141.07
781.841	143.29
782.019	150.17
782.197	149.32
782.375	154.69
782.553	156.54
782.731	149.66
782.909	148.23
783.087	140.29
783.265	139.44
783.443	137.9
783.621	136.53
783.799	138.63
783.977	135.34
784.155	141.36
784.333	138.72
784.511	131.37
784.689	138.1
784.867	135.34
785.045	140.44
785.223	139.87
785.4	148.95
785.578	151.11
785.756	152.85
785.934	148.66
786.112	146.7
786.289	143.98
786.467	145.05
786.645	140.9
786.823	141.78
787	136.17
787.178	139.8
787.356	134.7
787.533	131.12
787.711	126.78
787.889	130.64
788.066	127.03
788.244	129.77
788.421	132.11
788.599	135.06
788.776	132.89
788.954	137.74
789.131	139.94
789.309	135.64
789.486	138.22
789.664	139.72
789.841	135.98
790.019	140.46
790.196	137.5
790.373	137.02
790.551	130.38
790.728	129.5
790.906	127.01
791.083	124.34
791.26	134.29
791.437	138.66
791.615	137.18
791.792	139.62
791.969	139.07
792.146	140.22
792.324	142.11
792.501	149.04
792.678	151.81
792.855	161.56
793.032	159.11
793.209	151.22
793.387	148.32
793.564	153.17
793.741	151.63
793.918	155.1
794.095	155.55
794.272	157.09
794.449	156.98
794.626	155.34
794.803	146.03
794.98	146.99
795.157	146.29
795.334	144.07
795.511	139.33
795.688	137.46
795.864	134.87
796.041	131.66
796.218	131.46
796.395	126.03
796.572	127.15
796.749	132.14
796.925	127.78
797.102	126.38
797.279	123.36
797.456	125.82
797.632	126.49
797.809	124.55
797.986	126.17
798.162	118.73
798.339	122.59
798.516	123.62
798.692	120.52
798.869	120.86
799.046	119.89
799.222	123.02
799.399	120.27
799.575	118.93
799.752	123.03
799.928	122.22
800.105	126.39
800.281	125.99
800.458	127.01
800.634	120.68
800.811	122.86
800.987	127.93
801.163	126.32
801.34	128.32
801.516	129.22
801.692	127.88
801.869	128.24
802.045	131.9
802.221	129.62
802.398	131.03
802.574	136.15
802.75	137.57
802.926	139.32
803.103	151.66
803.279	146.53
803.455	147.39
803.631	145.76
803.807	149.58
803.983	144.76
804.16	146.84
804.336	143.2
804.512	145.92
804.688	144.1
804.864	135.91
805.04	131.2
805.216	135.77
805.392	140.41
805.568	135.54
805.744	136.86
805.92	144.31
806.096	144.65
806.272	145.88
806.448	140.6
806.623	142.61
806.799	138.88
806.975	130.72
807.151	130.14
807.327	128.08
807.503	125.98
807.678	125.96
807.854	121.68
808.03	120.57
808.206	124.53
808.381	129.77
808.557	130.56
808.733	136.56
808.908	139.96
809.084	139.8
809.26	140.29
809.435	148.43
809.611	141.89
809.787	146.81
809.962	148.34
810.138	141.57
810.313	136.52
810.489	135.77
810.664	135.44
810.84	135.21
811.015	142.95
811.191	139.78
811.366	137.67
811.542	143.5
811.717	140.89
811.892	141.68
812.068	148.69
812.243	150.23
812.419	151.13
812.594	146.21
812.769	136.38
812.944	133.18
813.12	139.53
813.295	134.18
813.47	131.21
813.645	131.36
813.821	133.21
813.996	129.87
814.171	133.27
814.346	129.04
814.521	134.59
814.697	138.66
814.872	137.04
815.047	130.66
815.222	131.54
815.397	134.22
815.572	134.01
815.747	127.69
815.922	127.19
816.097	129.36
816.272	127.12
816.447	126.15
816.622	134.41
816.797	128.29
816.972	129.05
817.147	130.59
817.322	125.42
817.496	123.44
817.671	123.34
817.846	121.95
818.021	118.14
818.196	120.55
818.371	113.73
818.545	107.61
818.72	110.6
818.895	106.7
819.069	105.33
819.244	104.61
819.419	102.44
819.594	97.17
819.768	89.93
819.943	83.31
820.117	76.75
820.292	73.06
820.467	67.29
820.641	61.67
820.816	57.81
820.99	54.18
821.165	52.08
821.339	48.18
821.514	46.79
821.688	45
821.863	43.76
822.037	43.22
822.212	43.35
822.386	43.73
822.56	43.97
822.735	43.73
822.909	44.33
823.084	44.17
823.258	45.3
823.432	45.53
823.606	46.87
823.781	48.01
823.955	48.21
824.129	49.83
824.303	50.73
824.478	52.29
824.652	54.73
824.826	53.19
825	53.1
825.174	55.12
825.348	56.42
825.523	56.56
825.697	58.1
825.871	59.6
826.045	58.11
826.219	57.48
826.393	58.26
826.567	56.81
826.741	60.42
826.915	62.29
827.089	61.94
827.263	62.4
827.437	62.51
827.611	61.54
827.784	62.37
827.958	62.87
828.132	62.9
828.306	60.93
828.48	63.92
828.654	64.15
828.827	65.84
829.001	69.1
829.175	70.82
829.349	73.66
829.522	73.85
829.696	77.5
829.87	81.78
830.044	86.9
830.217	92.16
830.391	92.72
830.565	92.92
830.738	94.33
830.912	93.3
831.085	94.16
831.259	92.92
831.432	97.15
831.606	90.43
831.779	85.85
831.953	82.94
832.126	80.37
832.3	77.49
832.473	75.08
832.647	71.96
832.82	69.42
832.994	66.98
833.167	68.31
833.34	66.76
833.514	70.01
833.687	69.26
833.86	67.26
834.034	69.97
834.207	72.93
834.38	74.52
834.553	74.59
834.727	79.35
834.9	81.91
835.073	82.03
835.246	81.71
835.419	80.56
835.593	83.36
835.766	90
835.939	88.07
836.112	90.35
836.285	91.09
836.458	92.77
836.631	92.18
836.804	96.76
836.977	98.77
837.15	103.6
837.323	107.95
837.496	114.53
837.669	107.93
837.842	116
838.015	112.93
838.188	114.77
838.361	118.17
838.533	113.27
838.706	105.38
838.879	104.55
839.052	108.47
839.225	105.71
839.398	99.25
839.57	102.45
839.743	98.05
839.916	96.8
840.088	97.14
840.261	95.86
840.434	96.39
840.607	100.16
840.779	106.59
840.952	106.67
841.124	116.61
841.297	122.39
841.47	129.49
841.642	132.86
841.815	138.84
841.987	142.14
842.16	143.59
842.332	151.1
842.505	150.98
842.677	145.01
842.85	145.18
843.022	134.4
843.194	138.24
843.367	134.07
843.539	138.54
843.712	148.73
843.884	147.92
844.056	150.16
844.229	146.53
844.401	159.14
844.573	168.52
844.745	165.25
844.918	172.91
845.09	163.59
845.262	164.42
845.434	158.79
845.606	164.18
845.779	156.68
845.951	164.94
846.123	161.85
846.295	162.05
846.467	168.48
846.639	172.26
846.811	171.52
846.983	182.24
847.155	183.24
847.327	179.11
847.499	171.4
847.671	169.97
847.843	172.71
848.015	179.49
848.187	180.81
848.359	172.96
848.531	173.34
848.703	178.8
848.875	180.8
849.047	189.63
849.218	201.84
849.39	203.75
849.562	232.37
849.734	228.19
849.905	234.07
850.077	224.51
850.249	227.14
850.421	235.34
850.592	221.94
850.764	227.23
850.936	192.56
851.107	204.82
851.279	184.93
851.451	171.64
851.622	162.84
851.794	163.47
851.965	163.49
852.137	160.91
852.308	165.82
852.48	168.09
852.651	155.24
852.823	182.34
852.994	157.95
853.166	159.75
853.337	174.26
853.509	167.34
853.68	173.38
853.851	184.09
854.023	190.72
854.194	189.6
854.365	188.56
854.537	204.5
854.708	189.74
854.879	200.29
855.05	205.46
855.222	196.69
855.393	200
855.564	174.4
855.735	178.02
855.906	176.25
856.078	184.47
856.249	196.39
856.42	205.56
856.591	214.69
856.762	226.65
856.933	229.17
857.104	233.38
857.275	249.16
857.446	272.29
857.617	231.84
857.788	224.79
857.959	203.43
858.13	187.46
858.301	175.07
858.472	156.36
858.643	163.75
858.814	159.16
858.985	162.76
859.155	165.83
859.326	169.74
859.497	173.34
859.668	174.59
859.839	171.27
860.009	163.71
860.18	167.35
860.351	181.77
860.522	162.12
860.692	158.65
860.863	151.15
861.034	150.92
861.204	158.31
861.375	166.79
861.546	173.04
861.716	173.99
861.887	191.64
862.057	190.19
862.228	195.5
862.398	172.19
862.569	165.32
862.739	175.88
862.91	182.02
863.08	154.36
863.251	139.56
863.421	128.13
863.592	140.22
863.762	133.14
863.932	131.14
864.103	127.73
864.273	143.79
864.443	146.73
864.614	136.32
864.784	136.18
864.954	138.93
865.125	144.87
865.295	136.87
865.465	137.09
865.635	129.78
865.805	122.09
865.976	124.32
866.146	126.79
866.316	126.7
866.486	126.49
866.656	122.81
866.826	136.99
866.996	146.19
867.166	151.64
867.336	138.63
867.506	141.22
867.676	144.47
867.846	146.07
868.016	164.26
868.186	176.16
868.356	180.05
868.526	168.89
868.696	158.92
868.866	151.21
869.036	160.96
869.206	187.99
869.376	182.15
869.545	193.05
869.715	187.93
869.885	179.5
870.055	176.62
870.224	173.53
870.394	172.5
870.564	175.39
870.734	175.9
870.903	169.09
871.073	168.66
871.243	198.88
871.412	186.04
871.582	182.56
871.751	163.42
871.921	171.32
872.091	180.68
872.26	172.54
872.43	188.9
872.599	190.72
872.769	221.22
872.938	211.18
873.108	198.53
873.277	233.75
873.446	237.5
873.616	291.99
873.785	285.67
873.955	242.54
874.124	225
874.293	194.86
874.463	170.79
874.632	143.52
874.801	135.03
874.971	134.19
875.14	124.71
875.309	118.29
875.478	112.34
875.647	118.83
875.817	118.64
875.986	130.01
876.155	137.05
876.324	136.05
876.493	129.67
876.662	130.05
876.831	123.63
877	126.25
877.17	125.65
877.339	116.36
877.508	111.72
877.677	98.73
877.846	101.48
878.015	97.46
878.184	101.85
878.352	105.92
878.521	94.3
878.69	89.05
878.859	88.13
879.028	95.7
879.197	92.75
879.366	88.24
879.534	86.85
879.703	82.51
879.872	74.53
880.041	71.2
880.21	69.88
880.378	66.9
880.547	64.29
880.716	60.39
880.884	57.53
881.053	52.87
881.222	49.26
881.39	48.75
881.559	45.19
881.727	43.95
881.896	42.48
882.065	39.55
882.233	39.84
882.402	38.48
882.57	36.75
882.739	34.52
882.907	35.96
883.076	37.34
883.244	36.74
883.412	39.46
883.581	37.27
883.749	38.41
883.918	39.53
884.086	41.1
884.254	43.83
884.423	47.93
884.591	51.84
884.759	54.36
884.927	53.3
885.096	58.78
885.264	55.17
885.432	64.68
885.6	65.27
885.769	68.44
885.937	73.09
886.105	75.96
886.273	74.44
886.441	75.88
886.609	75.75
886.777	85.7
886.945	85.14
887.113	94.33
887.281	91.05
887.449	91.33
887.617	98.37
887.785	90.27
887.953	88.56
888.121	92.72
888.289	97.69
888.457	95.31
888.625	89.43
888.793	85.45
888.961	91.93
889.129	100.35
889.296	106.93
889.464	101.47
889.632	103.24
889.8	111.74
889.967	109.05
890.135	100.12
