Data from JASIL_3000_Reflection_02.txt Node
Date: Mon Nov 09 10:00:44 EST 2015
User: Geneva
Spectrometer: USB4E03002
Autoset integration time: false
Trigger mode: 4
Integration Time (sec): 1.000000E-1
Scans to average: 10
Electric dark correction enabled: false
Nonlinearity correction enabled: false
Boxcar width: 5
Stray light correction enabled: false
XAxis mode: Wavelengths
Stop averaging: false
Number of Pixels in Spectrum: 3648
>>>>>Begin Spectral Data<<<<<
177.575	52.41
177.794	43.82
178.014	49.33
178.233	52.6
178.452	54.06
178.672	48.87
178.891	54.09
179.11	48.09
179.33	53.25
179.549	29.59
179.768	10.34
179.987	58.45
180.207	75.55
180.426	70.75
180.645	46.92
180.864	29.93
181.084	56.67
181.303	39.56
181.522	17.5
181.741	5.56
181.96	34.33
182.179	58.79
182.398	23.04
182.618	-9.72
182.837	3.25
183.056	47.07
183.275	52.46
183.494	75.42
183.713	87.06
183.932	110.4
184.151	113.46
184.37	84.53
184.589	51.04
184.808	72.05
185.027	70.59
185.246	61.48
185.465	13.83
185.684	27.2
185.903	-4.02
186.122	1.17
186.341	-50.36
186.56	-106.93
186.779	-33.16
186.998	-4.52
187.216	-11.83
187.435	-4.06
187.654	1.52
187.873	33.05
188.092	25.08
188.311	-25.68
188.53	-50.41
188.748	15.65
188.967	1.92
189.186	-14.56
189.405	-3.36
189.623	33.88
189.842	64.52
190.061	103.66
190.28	60.36
190.498	6.37
190.717	59.85
190.936	54.91
191.154	136.07
191.373	108.27
191.592	143.77
191.81	133.74
192.029	123.45
192.248	36.49
192.466	-5.2
192.685	57.1
192.904	101.97
193.122	75.86
193.341	73.84
193.559	100.48
193.778	41.06
193.996	-9.51
194.215	-3.14
194.433	20.53
194.652	27.4
194.87	72.16
195.089	44.92
195.307	-2.38
195.526	78.35
195.744	90.57
195.963	30.8
196.181	16.22
196.399	25.71
196.618	-17.55
196.836	-63.19
197.055	-47.61
197.273	-76.88
197.491	-80.79
197.71	-34.16
197.928	-54.5
198.146	-56.32
198.365	-41.76
198.583	19.24
198.801	40.07
199.019	71.48
199.238	137.5
199.456	122.27
199.674	119.96
199.892	110.43
200.111	164.62
200.329	208.16
200.547	191.06
200.765	172.98
200.983	246.27
201.202	415.65
201.42	325.21
201.638	154.23
201.856	266.2
202.074	-567.57
202.292	-336.59
202.51	170.44
202.728	142.46
202.946	190.91
203.165	129.5
203.383	104.3
203.601	52.1
203.819	160.47
204.037	151.64
204.255	167.01
204.473	95.28
204.691	145.28
204.909	113.99
205.127	140.21
205.345	104.37
205.562	134.83
205.78	67.19
205.998	100.91
206.216	33.05
206.434	-27.61
206.652	-38.05
206.87	-35.02
207.088	-68.75
207.306	-50.16
207.523	-126.85
207.741	-62.58
207.959	-22.13
208.177	-96.84
208.395	-28.27
208.612	-7.12
208.83	34.18
209.048	55.56
209.266	58.07
209.483	42.73
209.701	106.53
209.919	79.53
210.136	29.9
210.354	83.52
210.572	86.02
210.79	68.9
211.007	109.03
211.225	100.66
211.442	77.44
211.66	68.96
211.878	89.82
212.095	91.89
212.313	103.45
212.53	98.68
212.748	87.46
212.966	91.74
213.183	88.5
213.401	80.34
213.618	77.7
213.836	85.35
214.053	80.58
214.271	79.2
214.488	67.71
214.705	66.79
214.923	62.05
215.14	65.13
215.358	56.81
215.575	70.53
215.793	69.72
216.01	71.54
216.227	86.67
216.445	126.79
216.662	87.72
216.879	92.86
217.097	70.96
217.314	130.33
217.531	93.02
217.749	41.62
217.966	53.44
218.183	87.89
218.4	131.63
218.618	43
218.835	34.4
219.052	37.86
219.269	-138.6
219.487	28.65
219.704	-112.7
219.921	-121.05
220.138	-1212.82
220.355	-478.08
220.572	0
220.79	1360.61
221.007	337.12
221.224	468.38
221.441	223.96
221.658	257.28
221.875	271.08
222.092	116.74
222.309	84.22
222.526	62.96
222.743	52.58
222.96	55.4
223.177	50.12
223.394	79.49
223.611	40.47
223.828	43.23
224.045	16.91
224.262	45.94
224.479	70.19
224.696	54.9
224.913	36.11
225.13	46.33
225.347	13.55
225.564	5.37
225.781	-3.02
225.997	1.63
226.214	6.06
226.431	10.97
226.648	0.4
226.865	4.79
227.082	11.61
227.298	4.98
227.515	3.03
227.732	5.55
227.949	5.18
228.165	4.24
228.382	14.26
228.599	7.4
228.816	1.32
229.032	-7.27
229.249	-8.03
229.466	-10.05
229.682	-3.57
229.899	-1.01
230.116	2.88
230.332	-0.07
230.549	0.85
230.765	-42.01
230.982	-16.76
231.199	2.6
231.415	20.46
231.632	20.29
231.848	28.24
232.065	28.34
232.281	22.56
232.498	19.3
232.714	29.76
232.931	26.62
233.147	33.93
233.364	32.53
233.58	30.89
233.797	18.43
234.013	11.81
234.23	3.55
234.446	13.43
234.662	17.59
234.879	8.26
235.095	18.8
235.312	16.18
235.528	20.36
235.744	22.98
235.961	21.38
236.177	22.82
236.393	26.1
236.61	27.7
236.826	18.22
237.042	27.54
237.258	35.25
237.475	28.07
237.691	28.74
237.907	23.25
238.123	9.7
238.339	9.55
238.556	12.73
238.772	-0.67
238.988	2.15
239.204	7.22
239.42	0.5
239.636	9.92
239.853	15.66
240.069	17.15
240.285	19.14
240.501	28.03
240.717	23.63
240.933	24.6
241.149	27.59
241.365	25.96
241.581	21.49
241.797	22.77
242.013	16.02
242.229	11.63
242.445	13.87
242.661	15.42
242.877	2.57
243.093	3.07
243.309	1.72
243.525	-6.44
243.741	-3.27
243.957	5.16
244.173	6.25
244.388	8.77
244.604	7.95
244.82	8.66
245.036	8.71
245.252	16.23
245.468	17.62
245.683	16.32
245.899	18.89
246.115	17.62
246.331	15.01
246.547	14.04
246.762	16.19
246.978	17.57
247.194	16.89
247.409	15.48
247.625	12.02
247.841	10.85
248.057	11.97
248.272	17.15
248.488	19.71
248.703	24.58
248.919	21.97
249.135	19.86
249.35	19
249.566	16.59
249.782	15.94
249.997	16.96
250.213	13.51
250.428	15.03
250.644	7.87
250.859	9.24
251.075	7.61
251.29	13.81
251.506	11.95
251.721	8.16
251.937	10.1
252.152	14.87
252.368	15.69
252.583	22.87
252.798	25.84
253.014	27.1
253.229	23.78
253.445	17.62
253.66	15.61
253.875	13.33
254.091	14.71
254.306	16.91
254.521	15.22
254.737	22.27
254.952	21.43
255.167	14.86
255.383	11.99
255.598	8.88
255.813	19.22
256.028	13.63
256.244	19.11
256.459	17.22
256.674	19.19
256.889	17.06
257.104	11.73
257.32	8.58
257.535	9.21
257.75	9.43
257.965	10.99
258.18	8.39
258.395	8.26
258.61	7.71
258.826	7.48
259.041	6.91
259.256	4.71
259.471	5.06
259.686	7.31
259.901	7.93
260.116	6.34
260.331	3.77
260.546	6.61
260.761	10.4
260.976	8.24
261.191	10.48
261.406	7.77
261.621	15.26
261.836	13.63
262.05	8.58
262.265	7.03
262.48	7.75
262.695	9.37
262.91	9.34
263.125	4.63
263.34	4.72
263.555	4.5
263.769	7.8
263.984	6.26
264.199	4
264.414	7.38
264.629	13.12
264.843	17.46
265.058	16.59
265.273	13.46
265.488	17.35
265.702	15.83
265.917	18.18
266.132	17.39
266.346	15.16
266.561	18.82
266.776	18.41
266.99	14.56
267.205	16.82
267.42	17.98
267.634	14.57
267.849	11.49
268.063	13.9
268.278	11.25
268.492	9.89
268.707	9.42
268.922	6.54
269.136	1.87
269.351	1.27
269.565	0.69
269.78	2.28
269.994	5.83
270.209	6.68
270.423	4.97
270.637	4.44
270.852	6.57
271.066	5.04
271.281	6.57
271.495	11.65
271.709	11.26
271.924	7.53
272.138	5.87
272.353	6.44
272.567	5.67
272.781	7.15
272.996	7.78
273.21	4.71
273.424	1.83
273.638	0.13
273.853	-1.85
274.067	-0.46
274.281	-0.12
274.495	-0.29
274.71	-1.61
274.924	1.66
275.138	3.46
275.352	4.36
275.566	6.2
275.781	11.47
275.995	11.72
276.209	11.38
276.423	10.54
276.637	13.5
276.851	13.57
277.065	13.15
277.279	11.27
277.493	8.9
277.707	7.21
277.921	5.01
278.135	5.66
278.349	5.12
278.563	2.39
278.777	2.37
278.991	-0.02
279.205	1.16
279.419	0.89
279.633	-0.05
279.847	-0.45
280.061	-2.53
280.275	2.23
280.489	1.68
280.703	2.72
280.917	4.75
281.131	6.49
281.344	9.26
281.558	6.1
281.772	9.05
281.986	10.06
282.2	10.6
282.414	12.29
282.627	10.25
282.841	12.52
283.055	11.64
283.269	13.15
283.482	13.67
283.696	12.41
283.91	14.33
284.123	11.14
284.337	10.61
284.551	11.07
284.764	11.01
284.978	10.76
285.192	8.58
285.405	10.29
285.619	8.23
285.833	7.72
286.046	3.79
286.26	1.07
286.473	2.4
286.687	1.87
286.9	1.71
287.114	1.77
287.327	0.05
287.541	-1.9
287.754	-3.96
287.968	-2.21
288.181	-4.26
288.395	-2.98
288.608	-1.47
288.822	-1.89
289.035	-3.38
289.248	-3.83
289.462	-3.48
289.675	-1.97
289.889	-0.48
290.102	1.26
290.315	2.36
290.529	2.92
290.742	3.48
290.955	3.33
291.169	4.43
291.382	5.75
291.595	5.3
291.808	7.25
292.022	8.09
292.235	8.85
292.448	8.87
292.661	6.47
292.875	6.73
293.088	6.33
293.301	9.77
293.514	10.04
293.727	10.71
293.94	10.93
294.153	9.55
294.367	8.03
294.58	8.12
294.793	6.02
295.006	5.37
295.219	7.69
295.432	7.43
295.645	5.46
295.858	4.06
296.071	5.17
296.284	6.03
296.497	3.3
296.71	3.99
296.923	4.16
297.136	5.02
297.349	8.04
297.562	5.94
297.775	7.65
297.988	10.34
298.201	11.61
298.414	11.17
298.626	11.24
298.839	11.91
299.052	11.36
299.265	12.62
299.478	12.3
299.691	9.62
299.903	11.94
300.116	11.05
300.329	7.31
300.542	5.79
300.755	3.74
300.967	4.54
301.18	6.25
301.393	7.82
301.605	4.36
301.818	3.39
302.031	4.09
302.243	-1.57
302.456	-1.91
302.669	0.72
302.881	1.53
303.094	0.91
303.307	-0.86
303.519	-3.29
303.732	-1.97
303.944	-2.6
304.157	0.14
304.37	-0
304.582	3.5
304.795	5.76
305.007	4.48
305.22	4.24
305.432	4.03
305.645	5.99
305.857	9.31
306.069	8.05
306.282	9.76
306.494	8.69
306.707	7.13
306.919	6.21
307.132	3.43
307.344	0.91
307.556	1.69
307.769	5.1
307.981	3.11
308.193	2.84
308.406	1.89
308.618	2.74
308.83	4.3
309.043	8.64
309.255	9.41
309.467	10.06
309.679	11.78
309.892	11.5
310.104	10.11
310.316	10.99
310.528	12.11
310.74	12.75
310.953	11.44
311.165	12.02
311.377	8.71
311.589	9.08
311.801	8.7
312.013	8.57
312.225	10.41
312.437	10.33
312.649	8.47
312.862	6.16
313.074	3.22
313.286	4.5
313.498	0.91
313.71	2.43
313.922	4.83
314.134	8.12
314.346	8.5
314.558	6.32
314.77	9.43
314.982	12.36
315.193	13.55
315.405	13.53
315.617	11.48
315.829	12.55
316.041	11.29
316.253	7.18
316.465	4.37
316.677	7.18
316.888	8.68
317.1	5.52
317.312	4.73
317.524	6.77
317.736	12.4
317.947	13.79
318.159	13.78
318.371	14.22
318.583	12.76
318.794	13.98
319.006	10.48
319.218	6.85
319.43	8.12
319.641	9.49
319.853	7.04
320.064	3.66
320.276	1.65
320.488	0.76
320.699	0.15
320.911	-0.02
321.123	2.86
321.334	1.85
321.546	2.32
321.757	-2.45
321.969	-6.16
322.18	-3.67
322.392	-2.41
322.603	-1.24
322.815	1.87
323.026	2.89
323.238	8.04
323.449	4.09
323.661	5.79
323.872	5.86
324.083	10.57
324.295	11.87
324.506	10.93
324.718	8.77
324.929	10.34
325.14	8.08
325.352	11
325.563	11.3
325.774	11.3
325.986	13.03
326.197	14.14
326.408	11.28
326.62	10.19
326.831	10.28
327.042	9.96
327.253	9.29
327.464	10.04
327.676	6.79
327.887	3.43
328.098	5.36
328.309	5.17
328.52	6.98
328.732	8.9
328.943	9.32
329.154	8.24
329.365	7.34
329.576	8.17
329.787	6.83
329.998	10.39
330.209	9.71
330.42	9.49
330.631	5.64
330.842	3.81
331.053	4.03
331.264	2.82
331.475	0.87
331.686	1.93
331.897	1.7
332.108	2.14
332.319	0.53
332.53	-0.37
332.741	-0.96
332.952	2.89
333.163	2.81
333.374	1.38
333.585	3.26
333.795	7.42
334.006	12.56
334.217	14
334.428	14.19
334.639	14.17
334.849	14.94
335.06	14.99
335.271	13.54
335.482	14.93
335.692	14.44
335.903	14.38
336.114	12.14
336.325	12.03
336.535	10.41
336.746	11.32
336.957	11.48
337.167	13.46
337.378	14.23
337.589	13.75
337.799	11.84
338.01	11.25
338.22	9.92
338.431	9.68
338.642	6.21
338.852	6.72
339.063	7.04
339.273	8.28
339.484	9.22
339.694	7.18
339.905	6.59
340.115	8.33
340.326	8.72
340.536	7.44
340.746	8.93
340.957	8.99
341.167	9.32
341.378	7.84
341.588	3.43
341.799	1.17
342.009	4.67
342.219	3.04
342.43	2.63
342.64	3.25
342.85	5.64
343.061	3.57
343.271	3.58
343.481	2.6
343.691	2.53
343.902	5.09
344.112	5.27
344.322	2.62
344.532	4.71
344.743	3.83
344.953	3.48
345.163	4.98
345.373	7.35
345.583	7.94
345.793	7.31
346.004	9.27
346.214	8.75
346.424	8.82
346.634	9.04
346.844	8.83
347.054	11.04
347.264	8.91
347.474	7.78
347.684	7.37
347.894	7.32
348.104	7.85
348.314	6.74
348.524	7.16
348.734	6.57
348.944	6.21
349.154	7.37
349.364	6.4
349.574	8.27
349.784	7.9
349.994	7.38
350.204	5.31
350.413	5.48
350.623	6.97
350.833	7.73
351.043	7.27
351.253	7.53
351.463	7.63
351.672	8.15
351.882	9.77
352.092	7.83
352.302	7.83
352.511	10.34
352.721	9.74
352.931	10.45
353.141	8.21
353.35	10.37
353.56	10.39
353.77	7.56
353.979	6.98
354.189	7.23
354.399	6.99
354.608	8.75
354.818	7.83
355.027	7.81
355.237	6.27
355.447	7.04
355.656	3.95
355.866	5
356.075	5.53
356.285	5.07
356.494	3.08
356.704	3.83
356.913	0.17
357.123	-1.23
357.332	-1.64
357.542	-2.59
357.751	-2.58
357.96	-0.4
358.17	-2.14
358.379	-0.72
358.589	-0.02
358.798	1.58
359.007	2.49
359.217	3.71
359.426	4.48
359.635	4.29
359.845	3.9
360.054	2.76
360.263	3.51
360.472	4.83
360.682	4.46
360.891	4.27
361.1	3.05
361.309	2.4
361.519	1.94
361.728	3.27
361.937	3.85
362.146	4.64
362.355	6.08
362.564	5.74
362.774	5.07
362.983	5.2
363.192	4.93
363.401	7.51
363.61	7.91
363.819	9.14
364.028	7.21
364.237	7.05
364.446	6.93
364.655	6.02
364.864	6.38
365.073	6.19
365.282	5.55
365.491	7.09
365.7	5.24
365.909	5.08
366.118	6.78
366.327	6.37
366.536	6.55
366.745	6.48
366.954	7.68
367.162	6.85
367.371	6.21
367.58	6.74
367.789	5.86
367.998	6.2
368.207	7.87
368.415	5.3
368.624	6.49
368.833	7.09
369.042	7.06
369.25	6.06
369.459	5.98
369.668	6.16
369.877	6.83
370.085	7.06
370.294	7.34
370.503	5.2
370.711	5.06
370.92	5.98
371.129	5.75
371.337	5.33
371.546	5.83
371.754	4.9
371.963	5.89
372.171	4.99
372.38	4.23
372.589	4.02
372.797	3.74
373.006	4.53
373.214	1.95
373.423	3.42
373.631	4.37
373.84	4.59
374.048	5.16
374.256	4
374.465	4.81
374.673	4.22
374.882	3.52
375.09	5.46
375.298	5.11
375.507	6.4
375.715	5.86
375.923	6.06
376.132	5.38
376.34	5.77
376.548	6.73
376.757	5.82
376.965	6.57
377.173	7.36
377.381	6.3
377.59	6.62
377.798	6.28
378.006	3.87
378.214	3.33
378.423	4.39
378.631	4.15
378.839	4.17
379.047	4.84
379.255	4.81
379.463	4.73
379.671	4.91
379.879	3.73
380.088	3.85
380.296	6.21
380.504	5.82
380.712	4.91
380.92	5.29
381.128	6.27
381.336	5.98
381.544	5.2
381.752	5.16
381.96	5.28
382.168	5.74
382.376	6.19
382.584	4.53
382.791	5.4
382.999	6.02
383.207	4.68
383.415	3.07
383.623	3.27
383.831	4.83
384.039	3.62
384.247	3.58
384.454	3.81
384.662	4.64
384.87	5.36
385.078	4.15
385.285	3.9
385.493	4.92
385.701	5.32
385.909	5.4
386.116	4.53
386.324	6.84
386.532	5.44
386.739	5.45
386.947	4.04
387.155	5.44
387.362	6.68
387.57	5
387.778	5.26
387.985	5.44
388.193	6.05
388.4	5.79
388.608	3.94
388.816	5.16
389.023	4.51
389.231	4.58
389.438	4.28
389.646	4.6
389.853	5.72
390.061	5.21
390.268	4.45
390.475	4.27
390.683	3.38
390.89	3.83
391.098	4.6
391.305	5.53
391.512	5.91
391.72	5.31
391.927	3.91
392.135	3.48
392.342	4.22
392.549	5.63
392.756	5.49
392.964	5.88
393.171	5.46
393.378	4.6
393.586	4.77
393.793	4.46
394	4.2
394.207	5.47
394.414	6.86
394.622	6.2
394.829	5.48
395.036	5.04
395.243	5.51
395.45	6.72
395.657	6.34
395.864	4.89
396.072	4.91
396.279	6.35
396.486	5.4
396.693	5.8
396.9	6.99
397.107	7.07
397.314	6.67
397.521	6.28
397.728	6.09
397.935	6.44
398.142	8.09
398.349	7.65
398.556	6.63
398.763	6.74
398.97	5.65
399.177	4.81
399.383	4.22
399.59	3.3
399.797	3.62
400.004	2.88
400.211	2.61
400.418	1.81
400.625	2.84
400.831	3.11
401.038	2.89
401.245	1.16
401.452	1.2
401.658	1.23
401.865	3.29
402.072	3.61
402.279	3.17
402.485	4.32
402.692	3.51
402.899	4.7
403.105	3.96
403.312	4.21
403.519	5.33
403.725	5.88
403.932	7.13
404.138	6.45
404.345	5.75
404.552	6.1
404.758	5.15
404.965	7.21
405.171	6.49
405.378	6.95
405.584	7.79
405.791	9.3
405.997	8.14
406.204	6.59
406.41	5.87
406.617	6.14
406.823	5.46
407.029	6
407.236	4.28
407.442	4.51
407.649	4.56
407.855	3.1
408.061	2.57
408.268	2.98
408.474	3.47
408.68	5.19
408.887	5.47
409.093	6.15
409.299	6.37
409.505	7.56
409.712	5.79
409.918	5.72
410.124	6.64
410.33	6.29
410.537	7.64
410.743	7.44
410.949	5.81
411.155	5.86
411.361	6.22
411.567	6.25
411.773	5.34
411.98	5.5
412.186	5.95
412.392	5.3
412.598	5.19
412.804	3.02
413.01	3.12
413.216	3.92
413.422	4.19
413.628	4.29
413.834	5.03
414.04	4.8
414.246	5.72
414.452	5.51
414.658	5.29
414.864	4.35
415.07	5.31
415.275	5.67
415.481	6.27
415.687	5.73
415.893	5.04
416.099	3.79
416.305	4.34
416.511	3.66
416.716	3.45
416.922	3.79
417.128	3.85
417.334	2.99
417.539	3.42
417.745	3.09
417.951	3.05
418.157	3.36
418.362	3.76
418.568	3.34
418.774	3.54
418.979	3.62
419.185	4.04
419.391	4.07
419.596	4.72
419.802	4.78
420.008	5.15
420.213	5.55
420.419	5.14
420.624	4.9
420.83	5.25
421.035	5.39
421.241	5.15
421.446	4.5
421.652	4.77
421.857	4.53
422.063	3.89
422.268	3.1
422.474	2.62
422.679	3.39
422.885	3.41
423.09	2.85
423.295	2.87
423.501	2.69
423.706	2.75
423.911	2.56
424.117	2.75
424.322	3
424.527	3.2
424.733	3.45
424.938	2.31
425.143	2.18
425.349	2.55
425.554	2.75
425.759	3.01
425.964	3.25
426.169	3.8
426.375	3.95
426.58	3.84
426.785	3.89
426.99	3.68
427.195	4.84
427.4	5.34
427.605	4.67
427.811	4.78
428.016	5.12
428.221	5.34
428.426	5.18
428.631	4.33
428.836	4.31
429.041	5.09
429.246	5.3
429.451	5.35
429.656	5.2
429.861	5.85
430.066	5.44
430.271	4.93
430.476	4.12
430.681	3.58
430.886	3.74
431.09	3.76
431.295	3.01
431.5	3.42
431.705	3.48
431.91	3.96
432.115	4.46
432.32	4.48
432.524	4.38
432.729	4.95
432.934	4.99
433.139	5.58
433.343	5.73
433.548	6.61
433.753	6.41
433.958	6.47
434.162	6.5
434.367	6.14
434.572	5.74
434.776	6.42
434.981	5.81
435.186	6.2
435.39	6.27
435.595	6.19
435.799	4.96
436.004	4.91
436.209	5.01
436.413	3.85
436.618	3.21
436.822	3.49
437.027	3.28
437.231	3.42
437.436	3.8
437.64	3.3
437.845	2.44
438.049	3.21
438.253	3.21
438.458	2.79
438.662	3.12
438.867	3.7
439.071	3.55
439.275	3.5
439.48	3.66
439.684	3.39
439.888	3.4
440.093	3.55
440.297	2.99
440.501	2.89
440.706	2.96
440.91	2.89
441.114	2.67
441.318	3.11
441.523	3.39
441.727	3.39
441.931	3.15
442.135	3.42
442.339	3.35
442.543	3.89
442.748	3.9
442.952	3.72
443.156	3.68
443.36	3.64
443.564	3.22
443.768	2.82
443.972	2.42
444.176	2.48
444.38	2.11
444.584	2.58
444.788	2.33
444.992	2.26
445.196	2.15
445.4	2.82
445.604	3
445.808	2.98
446.012	2.91
446.216	3.32
446.42	3.43
446.624	3.62
446.828	3.52
447.032	3.84
447.235	3.55
447.439	3.7
447.643	3.15
447.847	2.97
448.051	2.82
448.254	2.95
448.458	3.08
448.662	3.3
448.866	3.3
449.069	4
449.273	3.3
449.477	4.02
449.681	4.57
449.884	4.92
450.088	4.3
450.292	4.13
450.495	4.16
450.699	4.36
450.902	4.29
451.106	4.66
451.31	4.35
451.513	5.08
451.717	4.66
451.92	4.06
452.124	3.77
452.327	4.52
452.531	4.92
452.734	4.93
452.938	4.8
453.141	4.65
453.345	3.79
453.548	3.31
453.752	3.39
453.955	3.86
454.158	3.47
454.362	4.58
454.565	5.16
454.769	5.76
454.972	6.3
455.175	5.59
455.379	4.86
455.582	5.12
455.785	5.33
455.988	3.86
456.192	3.33
456.395	4.45
456.598	3.26
456.801	1.74
457.005	1.62
457.208	0.62
457.411	1.63
457.614	1.85
457.817	2.08
458.021	1.83
458.224	2.21
458.427	2.02
458.63	1.48
458.833	1.12
459.036	1.62
459.239	1.29
459.442	2
459.645	1.64
459.848	1.6
460.051	1.41
460.254	1.96
460.457	2.12
460.66	2.19
460.863	2.03
461.066	2.52
461.269	2.33
461.472	2.31
461.675	2.17
461.878	2.48
462.081	2.8
462.284	3.39
462.486	2.9
462.689	3.68
462.892	4.29
463.095	4.87
463.298	4.8
463.5	5.33
463.703	5.45
463.906	4.83
464.109	4.7
464.311	4.83
464.514	4.56
464.717	5.14
464.92	4.63
465.122	4.07
465.325	3.85
465.528	4.07
465.73	4.12
465.933	4.33
466.135	4.17
466.338	4
466.541	4.19
466.743	4.7
466.946	4.62
467.148	4.89
467.351	5.12
467.553	4.65
467.756	4.29
467.958	4.25
468.161	3.4
468.363	3.38
468.566	2.99
468.768	2.18
468.971	0.88
469.173	0.27
469.375	-0.45
469.578	-0.74
469.78	-0.12
469.983	-0.19
470.185	-1.13
470.387	-0.76
470.59	-0.46
470.792	-0.5
470.994	-0.11
471.196	0.7
471.399	0.73
471.601	1.34
471.803	1
472.005	0.72
472.208	1.24
472.41	1.9
472.612	2.19
472.814	1.77
473.016	1.73
473.218	1.97
473.421	2.23
473.623	1.78
473.825	1.45
474.027	1.9
474.229	1.83
474.431	2.23
474.633	1.76
474.835	1.69
475.037	2.79
475.239	3.11
475.441	3.29
475.643	3.38
475.845	4.04
476.047	3.96
476.249	4.1
476.451	3.94
476.653	3.38
476.855	4.44
477.057	4.06
477.258	4.02
477.46	4.47
477.662	4.22
477.864	4.12
478.066	3.99
478.268	4.11
478.469	3.64
478.671	4.34
478.873	4.71
479.075	3.6
479.276	3.86
479.478	3.08
479.68	2.47
479.882	2.55
480.083	2.05
480.285	2.22
480.487	2.23
480.688	2.17
480.89	1.76
481.091	1.31
481.293	1.34
481.495	1.35
481.696	1.71
481.898	1.69
482.099	1.56
482.301	1.76
482.502	1.66
482.704	1.73
482.905	1.98
483.107	2.04
483.308	2.4
483.51	2.6
483.711	2.64
483.913	2.59
484.114	2.47
484.315	2.54
484.517	2.36
484.718	2.2
484.92	1.98
485.121	1.76
485.322	1.75
485.524	1.5
485.725	1.32
485.926	1.31
486.127	1.06
486.329	1.11
486.53	1.41
486.731	1.6
486.932	1.97
487.134	1.81
487.335	1.93
487.536	1.9
487.737	1.84
487.938	1.95
488.139	1.76
488.341	2.12
488.542	2.66
488.743	2.25
488.944	2.15
489.145	1.68
489.346	1.88
489.547	1.72
489.748	1.68
489.949	1.68
490.15	1.75
490.351	2.02
490.552	1.9
490.753	1.58
490.954	1.56
491.155	1.74
491.356	1.89
491.557	2.05
491.758	2.14
491.959	2.25
492.159	2.09
492.36	1.96
492.561	2.45
492.762	2.51
492.963	3.19
493.164	3.49
493.364	3.52
493.565	3.8
493.766	3.79
493.967	4.11
494.167	3.99
494.368	4.13
494.569	4.42
494.769	3.71
494.97	3.67
495.171	3.19
495.371	3.27
495.572	3.24
495.773	2.92
495.973	2.91
496.174	3.4
496.375	3.38
496.575	3.38
496.776	3.38
496.976	3.59
497.177	3.83
497.377	3.52
497.578	3.04
497.778	3.27
497.979	3.39
498.179	3.61
498.38	3.27
498.58	3.8
498.78	4.09
498.981	3.99
499.181	3.78
499.382	3.97
499.582	4.11
499.782	4.35
499.983	4.13
500.183	4.05
500.383	3.41
500.584	2.69
500.784	2.22
500.984	1.99
501.184	1.87
501.385	2.11
501.585	1.72
501.785	1.8
501.985	2.14
502.185	1.66
502.386	1.47
502.586	2.12
502.786	2.33
502.986	2.4
503.186	2.95
503.386	3.72
503.586	3.5
503.786	3.94
503.987	3.68
504.187	3.65
504.387	4.4
504.587	4.61
504.787	5.12
504.987	5.51
505.187	5.72
505.387	4.86
505.587	3.6
505.786	3.2
505.986	2.96
506.186	2.57
506.386	2.19
506.586	2.07
506.786	2.96
506.986	2.38
507.186	2.14
507.386	2.54
507.585	2.99
507.785	3.57
507.985	4.2
508.185	4.3
508.384	4.72
508.584	4.52
508.784	4.09
508.984	3.61
509.183	3.45
509.383	3.37
509.583	3.21
509.782	2.95
509.982	2.74
510.182	2.84
510.381	2.68
510.581	3.29
510.781	3.97
510.98	4.31
511.18	4.29
511.379	4.7
511.579	4.77
511.778	4.63
511.978	5.19
512.177	5.76
512.377	5.54
512.576	6.12
512.776	5.98
512.975	5.89
513.175	5.61
513.374	5.77
513.573	5.67
513.773	5.57
513.972	5.41
514.172	5.09
514.371	4.52
514.57	4.37
514.77	4.43
514.969	4.34
515.168	4.37
515.367	4.24
515.567	4.1
515.766	3.86
515.965	4.47
516.164	4.35
516.364	4.39
516.563	4.93
516.762	5.29
516.961	5.05
517.16	5.63
517.359	5.45
517.559	5.56
517.758	5.75
517.957	5.96
518.156	5.72
518.355	6
518.554	6.12
518.753	6.03
518.952	5.76
519.151	5.69
519.35	5.15
519.549	5.23
519.748	5.56
519.947	5.08
520.146	5.09
520.345	5.43
520.544	5.65
520.743	4.98
520.942	5.06
521.141	5.42
521.339	5.43
521.538	5.48
521.737	5.52
521.936	5.55
522.135	5.71
522.333	5.24
522.532	4.99
522.731	4.89
522.93	5.44
523.129	5.3
523.327	5.27
523.526	5.04
523.725	4.87
523.923	4.94
524.122	4.79
524.321	4.91
524.519	5.12
524.718	4.94
524.917	4.85
525.115	4.87
525.314	4.77
525.512	4.67
525.711	4.7
525.909	4.66
526.108	5.01
526.306	4.97
526.505	4.96
526.703	5.16
526.902	5.24
527.1	5.3
527.299	5.5
527.497	5.66
527.696	5.68
527.894	5.82
528.092	5.82
528.291	5.74
528.489	5.85
528.688	6
528.886	5.97
529.084	6.25
529.283	6.17
529.481	6.04
529.679	5.73
529.877	5.84
530.076	5.88
530.274	6.21
530.472	6.3
530.67	6.5
530.869	6.48
531.067	6.27
531.265	6.05
531.463	6.09
531.661	6.05
531.859	6.43
532.057	6.56
532.255	6.12
532.454	6.17
532.652	6.3
532.85	6.02
533.048	6
533.246	6.37
533.444	6.49
533.642	6.61
533.84	6.75
534.038	6.66
534.236	6.45
534.434	6.96
534.632	6.82
534.83	6.5
535.027	6.67
535.225	6.75
535.423	6.87
535.621	6.64
535.819	6.57
536.017	6.57
536.215	7.03
536.412	6.64
536.61	6.95
536.808	7.05
537.006	7.05
537.203	7.13
537.401	7.64
537.599	7.28
537.797	7.66
537.994	7.98
538.192	7.83
538.39	7.44
538.587	7.77
538.785	7.43
538.983	7.73
539.18	8.02
539.378	7.8
539.575	7.36
539.773	7.59
539.97	7.39
540.168	7.43
540.366	7.66
540.563	7.56
540.761	7.65
540.958	7.64
541.155	7.21
541.353	7.22
541.55	7.58
541.748	7.89
541.945	8.06
542.143	8.16
542.34	8.16
542.537	7.92
542.735	7.91
542.932	7.99
543.129	8.11
543.327	8.52
543.524	8.59
543.721	8.27
543.919	8.02
544.116	7.65
544.313	7.98
544.51	8.12
544.708	8.23
544.905	8.42
545.102	8.54
545.299	8.84
545.496	9.16
545.693	9.24
545.891	9.64
546.088	9.54
546.285	9.57
546.482	9.03
546.679	9.44
546.876	9.02
547.073	8.82
547.27	8.82
547.467	8.95
547.664	8.73
547.861	8.48
548.058	8.11
548.255	8.02
548.452	8.15
548.649	8.92
548.846	7.86
549.043	9.07
549.24	9.37
549.437	9.65
549.633	9.75
549.83	9.56
550.027	9.82
550.224	9.84
550.421	10.13
550.618	10.47
550.814	9.73
551.011	10.06
551.208	10.15
551.405	10.26
551.601	10.18
551.798	9.47
551.995	9.35
552.191	9.15
552.388	9.21
552.585	9.17
552.781	8.53
552.978	8.97
553.175	8.77
553.371	8.2
553.568	8.44
553.764	8.36
553.961	9.05
554.157	9.08
554.354	9.39
554.55	9.71
554.747	10.42
554.943	10.85
555.14	11.51
555.336	12.01
555.533	11.85
555.729	11.66
555.926	11.7
556.122	11.34
556.318	11.42
556.515	11.31
556.711	11.01
556.907	10.68
557.104	11.06
557.3	11.02
557.496	10.91
557.693	11.24
557.889	11.73
558.085	12.11
558.281	12.35
558.478	12.91
558.674	12.73
558.87	13
559.066	12.75
559.262	12.28
559.459	11.67
559.655	12
559.851	11.73
560.047	11.23
560.243	10.86
560.439	10.78
560.635	10.75
560.831	11.03
561.027	10.77
561.223	11.14
561.419	11.6
561.615	12.37
561.811	12.39
562.007	12.14
562.203	11.75
562.399	11.98
562.595	12.35
562.791	11.97
562.987	12.06
563.183	12.73
563.379	13.07
563.575	13.09
563.771	13.01
563.966	13.04
564.162	13.61
564.358	14.01
564.554	13.74
564.75	13.65
564.945	13.89
565.141	14.38
565.337	13.81
565.533	13.7
565.728	13.36
565.924	12.74
566.12	12.57
566.315	12.43
566.511	12.92
566.707	13.01
566.902	12.9
567.098	13.03
567.293	13
567.489	13.4
567.684	12.64
567.88	12.6
568.076	12.93
568.271	12.65
568.467	12.91
568.662	12.83
568.858	13.75
569.053	14.03
569.248	14.28
569.444	13.33
569.639	13.7
569.835	14.02
570.03	14.59
570.225	14.64
570.421	14.87
570.616	14.76
570.812	13.99
571.007	12.98
571.202	12.87
571.397	12.91
571.593	13.48
571.788	13.1
571.983	13.68
572.178	13.51
572.374	13.23
572.569	12.81
572.764	12.82
572.959	13.24
573.154	13.63
573.35	13.4
573.545	13.01
573.74	12.86
573.935	12.92
574.13	13.05
574.325	13.47
574.52	13.68
574.715	13.97
574.91	14.07
575.105	14.5
575.3	14.19
575.495	14.58
575.69	14.54
575.885	14.92
576.08	15.37
576.275	15.26
576.47	15.06
576.665	15.78
576.86	16.38
577.055	15.91
577.25	15.44
577.444	15.72
577.639	15.34
577.834	14.93
578.029	13.94
578.224	13.07
578.418	13.3
578.613	12.63
578.808	11.82
579.003	11.67
579.197	12.67
579.392	12.89
579.587	13.33
579.781	14.11
579.976	14.73
580.171	15.64
580.365	16.32
580.56	15.9
580.755	17.72
580.949	17.78
581.144	18.5
581.338	18.81
581.533	19.28
581.727	19.24
581.922	18.42
582.116	18.61
582.311	18.03
582.505	18.45
582.7	19.21
582.894	18.34
583.089	18.9
583.283	17.75
583.478	17.15
583.672	16.9
583.866	16.68
584.061	17.33
584.255	17.16
584.449	17.42
584.644	16.35
584.838	16.25
585.032	15.6
585.226	14.99
585.421	15.37
585.615	15.54
585.809	15.27
586.003	14.87
586.198	14.55
586.392	14.64
586.586	14.45
586.78	14.93
586.974	14.36
587.168	14.97
587.363	14.91
587.557	15.18
587.751	15.35
587.945	15.3
588.139	15.25
588.333	15.53
588.527	15.98
588.721	16.18
588.915	16.29
589.109	15.5
589.303	15.33
589.497	15.42
589.691	14.63
589.885	14.95
590.079	14.67
590.273	15.17
590.466	14.6
590.66	13.53
590.854	14.39
591.048	14.62
591.242	15.27
591.436	15.51
591.629	15.84
591.823	16.76
592.017	15.69
592.211	15.81
592.404	15.89
592.598	16.48
592.792	16.35
592.986	15.65
593.179	14.62
593.373	14.84
593.567	14
593.76	13.54
593.954	13.28
594.147	13.51
594.341	13.44
594.535	13.86
594.728	14.03
594.922	14.36
595.115	14.3
595.309	15.17
595.502	14.74
595.696	14.48
595.889	14.63
596.083	14.37
596.276	14.14
596.47	14.27
596.663	13.78
596.856	13.54
597.05	13.73
597.243	13.44
597.437	13.43
597.63	13.82
597.823	14.64
598.017	14.92
598.21	15.26
598.403	16.02
598.596	16.14
598.79	15.85
598.983	15.82
599.176	15.68
599.369	16.49
599.563	16.28
599.756	16.98
599.949	17.07
600.142	17.06
600.335	17.21
600.528	17
600.722	17.68
600.915	18.54
601.108	18.04
601.301	17.85
601.494	17.8
601.687	18
601.88	17.13
602.073	16.72
602.266	16.55
602.459	16.91
602.652	16.92
602.845	16.73
603.038	15.92
603.231	16.15
603.424	15.62
603.617	15.18
603.809	14.77
604.002	14.26
604.195	14.83
604.388	14.84
604.581	14.64
604.774	14.26
604.966	13.93
605.159	14.19
605.352	14.45
605.545	15.55
605.737	16.14
605.93	16.17
606.123	16.61
606.316	16.25
606.508	16.32
606.701	15.5
606.894	15.52
607.086	15.23
607.279	15.66
607.471	15.13
607.664	15.28
607.857	14.63
608.049	15.06
608.242	14.93
608.434	14.83
608.627	14.45
608.819	14.79
609.012	15.07
609.204	15.16
609.397	14.81
609.589	14.69
609.782	14.49
609.974	14.07
610.166	14.41
610.359	14.85
610.551	15.14
610.743	15.65
610.936	15.2
611.128	15.23
611.32	15.91
611.513	15.29
611.705	16.27
611.897	15.76
612.09	16.65
612.282	16.38
612.474	16.77
612.666	16.22
612.858	15.78
613.051	16.84
613.243	17.18
613.435	16.61
613.627	17.32
613.819	16.65
614.011	17.62
614.203	17.18
614.395	16.28
614.588	15.21
614.78	15.95
614.972	16.08
615.164	16.18
615.356	16.11
615.548	16.54
615.74	17.47
615.932	16.52
616.124	16.25
616.315	16.53
616.507	16.75
616.699	17.65
616.891	16.94
617.083	17.79
617.275	17.09
617.467	17.15
617.659	17.07
617.85	16.81
618.042	18.64
618.234	18.42
618.426	18.37
618.618	19.44
618.809	19.47
619.001	20.12
619.193	18.92
619.384	19.87
619.576	19.42
619.768	18.5
619.959	18.18
620.151	17.37
620.343	17.65
620.534	18.47
620.726	18.16
620.917	18.3
621.109	18.73
621.301	19.73
621.492	19.6
621.684	19.65
621.875	19.91
622.067	19.86
622.258	18.88
622.45	19.75
622.641	18.86
622.832	16.76
623.024	16.48
623.215	15.59
623.407	15.37
623.598	14.79
623.789	15.2
623.981	15.67
624.172	16.26
624.363	17.39
624.555	16.22
624.746	16.22
624.937	17.88
625.129	17.64
625.32	17.07
625.511	16.97
625.702	17.76
625.893	17.28
626.085	17.9
626.276	17.16
626.467	17.2
626.658	17.82
626.849	17.72
627.04	17.07
627.231	17.54
627.422	17.86
627.614	18.27
627.805	16.97
627.996	17.08
628.187	16.35
628.378	17.29
628.569	17.03
628.76	15.58
628.951	16.62
629.142	17.15
629.332	15.77
629.523	16.39
629.714	15.74
629.905	16.23
630.096	16.88
630.287	16.88
630.478	15.11
630.669	15.49
630.859	17.08
631.05	16.64
631.241	16.35
631.432	17.21
631.623	17.19
631.813	17.89
632.004	18.01
632.195	18
632.385	16.69
632.576	17.23
632.767	16.29
632.957	16.05
633.148	16.22
633.339	16.65
633.529	17.12
633.72	17.41
633.91	16.63
634.101	16.6
634.292	16.24
634.482	18.29
634.673	18.57
634.863	19.26
635.054	19.73
635.244	19.71
635.435	19.36
635.625	18.79
635.815	18.74
636.006	18.97
636.196	20.16
636.387	19.86
636.577	19.37
636.767	19.6
636.958	18.91
637.148	18.61
637.338	18.55
637.529	17.97
637.719	18.48
637.909	17.23
638.099	17.65
638.29	16.52
638.48	16.17
638.67	16.02
638.86	15.94
639.05	17.25
639.241	15.81
639.431	15.08
639.621	14.36
639.811	14.05
640.001	14.92
640.191	13.75
640.381	13.66
640.571	12.87
640.761	13.55
640.951	14.7
641.141	14.88
641.331	15.6
641.521	15.3
641.711	17.29
641.901	18.29
642.091	16.92
642.281	18.26
642.471	17.95
642.661	19.91
642.851	18.56
643.041	17.01
643.231	17.4
643.42	18.36
643.61	19.46
643.8	18.8
643.99	17.69
644.18	18.83
644.369	18.61
644.559	18.17
644.749	16.93
644.939	17.85
645.128	19.53
645.318	18.83
645.508	16.99
645.697	16.4
645.887	16.69
646.076	16.86
646.266	17.58
646.456	17.32
646.645	18.54
646.835	19.69
647.024	20.62
647.214	19.39
647.403	19.78
647.593	21.26
647.782	21.27
647.972	21.64
648.161	20.24
648.351	19.8
648.54	20.18
648.73	18.85
648.919	18.12
649.108	16.6
649.298	16.36
649.487	15.35
649.677	15.03
649.866	15.61
650.055	14.91
650.244	16.52
650.434	16.52
650.623	15.83
650.812	16.6
651.002	16.62
651.191	17.97
651.38	18.26
651.569	19.54
651.758	19.05
651.947	19.74
652.137	20.05
652.326	19.98
652.515	19.13
652.704	19.66
652.893	19.65
653.082	19.92
653.271	18.54
653.46	18.71
653.649	17.17
653.838	18.48
654.027	17.68
654.216	17.61
654.405	18.24
654.594	19.21
654.783	19.44
654.972	20.43
655.161	20.06
655.35	20.73
655.539	19.67
655.728	19.74
655.916	18.39
656.105	16.69
656.294	18.01
656.483	17.03
656.672	16.32
656.86	16.45
657.049	15.77
657.238	15.28
657.427	14.97
657.615	16.22
657.804	16.91
657.993	16.96
658.181	18.77
658.37	17.86
658.559	18.31
658.747	19.3
658.936	18.35
659.125	16.64
659.313	17.45
659.502	17.96
659.69	16.64
659.879	16.01
660.067	16.25
660.256	16.17
660.444	16.18
660.633	16.85
660.821	15.98
661.01	17.23
661.198	18.2
661.387	18.08
661.575	18.06
661.763	18.76
661.952	19.22
662.14	20.39
662.328	19
662.517	19.12
662.705	18.08
662.893	19.97
663.082	19.29
663.27	20.27
663.458	20.05
663.646	19.82
663.834	20.67
664.023	19.53
664.211	18
664.399	19.09
664.587	19.35
664.775	19.95
664.963	18.29
665.152	18.3
665.34	18.63
665.528	19.21
665.716	20.08
665.904	19.92
666.092	21.52
666.28	20.85
666.468	20.23
666.656	20.31
666.844	19.98
667.032	19.67
667.22	19.72
667.408	18.72
667.596	19.93
667.784	19.59
667.971	20.52
668.159	19.82
668.347	20.37
668.535	20.45
668.723	19.61
668.911	19.22
669.098	20.35
669.286	20.03
669.474	20.94
669.662	19.15
669.849	19.24
670.037	18.58
670.225	18.49
670.413	18.29
670.6	19.96
670.788	20.27
670.976	20.09
671.163	19.63
671.351	19
671.538	17.22
671.726	18.41
671.913	18.48
672.101	18.23
672.289	20.23
672.476	21.26
672.664	20.48
672.851	19.62
673.039	18.87
673.226	18.28
673.413	18.68
673.601	20.26
673.788	20.32
673.976	20.98
674.163	21.21
674.35	19.55
674.538	20.52
674.725	19.98
674.912	19.68
675.1	21.43
675.287	21.9
675.474	22.01
675.662	22.37
675.849	22.2
676.036	21.63
676.223	21.7
676.411	21.67
676.598	21.28
676.785	22.14
676.972	23.05
677.159	22.55
677.346	20.35
677.533	19.49
677.721	19.98
677.908	21.04
678.095	21.02
678.282	19.63
678.469	19.08
678.656	18.64
678.843	17.75
679.03	17.57
679.217	18.12
679.404	19.68
679.591	22.56
679.778	21.7
679.964	20.04
680.151	19.54
680.338	20.96
680.525	19.9
680.712	18.87
680.899	19.38
681.086	18.89
681.272	17.78
681.459	17.8
681.646	14.38
681.833	15.74
682.02	15.9
682.206	16.86
682.393	16.46
682.58	18
682.766	18.87
682.953	19.49
683.14	19.65
683.326	20.04
683.513	20.68
683.7	21.39
683.886	20.48
684.073	19.38
684.259	18.56
684.446	18.38
684.632	18.08
684.819	18.76
685.005	17.42
685.192	17.17
685.378	18.37
685.565	17.61
685.751	18.54
685.938	19.52
686.124	19.59
686.31	19.54
686.497	19.15
686.683	19.83
686.87	19.57
687.056	20.45
687.242	20.08
687.429	18.97
687.615	19.74
687.801	20.24
687.987	18.18
688.174	20.05
688.36	19.04
688.546	19.23
688.732	19.1
688.918	17.84
689.105	16.75
689.291	19
689.477	19.27
689.663	17.92
689.849	17.81
690.035	21.15
690.221	20.21
690.407	21.12
690.593	20.92
690.779	21.57
690.965	22.91
691.151	24.14
691.337	22.63
691.523	23.68
691.709	26.36
691.895	26.4
692.081	25.47
692.267	25.16
692.453	24.15
692.639	24.6
692.825	23.54
693.011	23.36
693.196	22.11
693.382	22.31
693.568	19.95
693.754	18.23
693.94	17.8
694.125	16.44
694.311	15.41
694.497	18.58
694.682	19.97
694.868	19.73
695.054	19.69
695.239	20.04
695.425	22.01
695.611	24.09
695.796	23.57
695.982	22.96
696.168	22.82
696.353	22.26
696.539	19.76
696.724	19.12
696.91	20.35
697.095	19.58
697.281	18.89
697.466	17.17
697.652	16.22
697.837	15.55
698.023	16.2
698.208	17.17
698.393	18.32
698.579	18.07
698.764	18.11
698.949	17.9
699.135	19.02
699.32	19.31
699.505	19.73
699.691	19.89
699.876	20.96
700.061	20.48
700.246	18.8
700.432	20.55
700.617	23.33
700.802	23.45
700.987	23.07
701.172	23
701.358	23.38
701.543	24.33
701.728	23.25
701.913	24.07
702.098	25.29
702.283	27.74
702.468	24.55
702.653	22.92
702.838	22.44
703.023	23.05
703.208	23.16
703.393	21.87
703.578	21.74
703.763	23.89
703.948	24.22
704.133	22.56
704.318	18.54
704.503	21.78
704.688	22.71
704.873	22.28
705.057	21.21
705.242	21.81
705.427	24.62
705.612	24.73
705.797	23.75
705.981	22.44
706.166	23.06
706.351	24.84
706.536	23.34
706.72	23.53
706.905	25.47
707.09	26.76
707.274	26.3
707.459	25.6
707.644	25.81
707.828	24.28
708.013	25.6
708.197	24.91
708.382	24.13
708.567	25.93
708.751	25.07
708.936	25.34
709.12	24.19
709.305	25.29
709.489	23.82
709.673	25.67
709.858	28.07
710.042	26.87
710.227	28.54
710.411	28.45
710.596	25.17
710.78	24.84
710.964	22.2
711.149	22.98
711.333	21.19
711.517	22.78
711.702	21.38
711.886	20.83
712.07	22.7
712.254	23.08
712.438	26.03
712.623	26.48
712.807	26.02
712.991	26.37
713.175	26.86
713.359	27.54
713.544	27.72
713.728	26.74
713.912	26.29
714.096	24
714.28	22.42
714.464	18.27
714.648	19.72
714.832	20.44
715.016	20.25
715.2	18.19
715.384	17.38
715.568	16.92
715.752	16.48
715.936	16.51
716.12	18.1
716.304	16.96
716.488	18.28
716.671	18.75
716.855	17.62
717.039	18.8
717.223	20.82
717.407	21.08
717.59	20.7
717.774	21.97
717.958	21.34
718.142	23.02
718.325	24.39
718.509	26.82
718.693	26.59
718.877	25.99
719.06	25.61
719.244	26.47
719.428	27.12
719.611	25.9
719.795	22.59
719.978	22.73
720.162	22.02
720.345	23.23
720.529	23.94
720.713	22.26
720.896	22.98
721.08	21.81
721.263	21.82
721.446	22.18
721.63	23.84
721.813	24.34
721.997	23.27
722.18	21.86
722.364	20.89
722.547	17.99
722.73	18.13
722.914	18.95
723.097	21.37
723.28	17.34
723.464	16.72
723.647	17.13
723.83	18.39
724.013	18.96
724.197	17.21
724.38	16.8
724.563	16.2
724.746	15.82
724.929	15.06
725.112	11.93
725.296	15
725.479	13.86
725.662	11.86
725.845	11.25
726.028	14.47
726.211	16.61
726.394	18.64
726.577	18.45
726.76	20.94
726.943	21.14
727.126	22
727.309	21.3
727.492	20.79
727.675	20.15
727.858	21.19
728.041	17.08
728.224	15.8
728.407	13.01
728.589	15.1
728.772	13.1
728.955	14.89
729.138	17.8
729.321	18.14
729.503	19.53
729.686	22.49
729.869	22.18
730.052	24.69
730.234	24.66
730.417	24.89
730.6	21.32
730.782	23.14
730.965	22.52
731.148	20.08
731.33	18.08
731.513	16.68
731.695	16.32
731.878	17.43
732.061	19.47
732.243	19.82
732.426	18.49
732.608	21.41
732.791	20.81
732.973	22.17
733.156	21.23
733.338	25.19
733.52	28.84
733.703	26.35
733.885	24.77
734.068	26.26
734.25	28.66
734.432	32.03
734.615	32.93
734.797	31.68
734.979	29.9
735.162	30.55
735.344	26.84
735.526	25.62
735.708	29.18
735.891	31.08
736.073	30.58
736.255	29.39
736.437	26.97
736.619	24.37
736.802	27.41
736.984	28.29
737.166	32.46
737.348	32.8
737.53	33.69
737.712	32.93
737.894	31.34
738.076	29.98
738.258	27.7
738.44	29.8
738.622	30.09
738.804	27.79
738.986	27.24
739.168	23.27
739.35	24.46
739.532	22
739.714	19.76
739.896	19.15
740.078	17.68
740.259	19.71
740.441	20
740.623	22.64
740.805	23.51
740.987	24.31
741.168	26.9
741.35	27.98
741.532	29.69
741.714	31.01
741.895	32.12
742.077	34.13
742.259	35.46
742.44	33.87
742.622	30.49
742.804	30.82
742.985	31.24
743.167	30.13
743.348	31.05
743.53	30.49
743.711	30.32
743.893	33.67
744.075	36.12
744.256	35.62
744.438	36.88
744.619	43.73
744.8	41.89
744.982	42.44
745.163	41.47
745.345	41.14
745.526	39.8
745.707	40.88
745.889	35.02
746.07	28.85
746.252	33.32
746.433	32.35
746.614	29.53
746.795	33.33
746.977	34.51
747.158	38.61
747.339	39.23
747.52	41.05
747.702	39.63
747.883	42.48
748.064	47.06
748.245	40.34
748.426	37.29
748.607	35.33
748.788	35.82
748.97	33.56
749.151	34.28
749.332	32.51
749.513	30.46
749.694	31.94
749.875	30.47
750.056	30.24
750.237	31.72
750.418	33.72
750.599	30.14
750.78	28.3
750.96	28.9
751.141	26.3
751.322	26.74
751.503	26.81
751.684	26.32
751.865	25.74
752.046	22.19
752.226	22.23
752.407	22.02
752.588	23.42
752.769	21.08
752.949	23.65
753.13	27.41
753.311	31.43
753.492	34.21
753.672	32.1
753.853	33.76
754.034	33.73
754.214	33.51
754.395	37.01
754.575	42.31
754.756	46.06
754.937	41.09
755.117	38.95
755.298	34.68
755.478	31.66
755.659	31.15
755.839	33.13
756.02	36.06
756.2	37.73
756.381	30.51
756.561	23.96
756.741	20.77
756.922	19.72
757.102	18.18
757.283	19.6
757.463	18.4
757.643	18.9
757.823	14.23
758.004	14.19
758.184	14.92
758.364	20.83
758.545	19.74
758.725	19.42
758.905	20.16
759.085	21.08
759.265	20.22
759.446	23.17
759.626	20.7
759.806	25.65
759.986	22.52
760.166	20.64
760.346	16.16
760.526	19.74
760.706	20.56
760.886	22.59
761.066	19.39
761.246	16.53
761.426	14.55
761.606	16.1
761.786	11.16
761.966	13.16
762.146	12.3
762.326	15.15
762.506	16.19
762.686	16.96
762.866	17.14
763.046	19.18
763.225	21.21
763.405	23.08
763.585	26.08
763.765	27.13
763.945	27.38
764.124	28.3
764.304	30.06
764.484	30.99
764.664	31
764.843	31.46
765.023	33.14
765.203	35.09
765.382	34.06
765.562	30.5
765.741	33.86
765.921	32.61
766.101	34.92
766.28	34.74
766.46	37.67
766.639	38.54
766.819	37.74
766.998	35.32
767.178	32.45
767.357	30.14
767.537	31.55
767.716	32.95
767.896	38.92
768.075	38.65
768.254	35.71
768.434	31.33
768.613	31.32
768.792	33.09
768.972	32.89
769.151	31.61
769.33	35.16
769.51	35.15
769.689	30.28
769.868	27.13
770.047	28.38
770.226	27.75
770.406	31.65
770.585	28.2
770.764	28.62
770.943	29.33
771.122	35.65
771.301	34.62
771.48	33.22
771.66	37.11
771.839	33.08
772.018	29.48
772.197	32.01
772.376	28.02
772.555	35.29
772.734	30.4
772.913	37.21
773.092	38.01
773.271	39.61
773.449	44.83
773.628	43.34
773.807	47.25
773.986	53.38
774.165	53.88
774.344	55.92
774.523	50.52
774.701	58.72
774.88	53.62
775.059	52.17
775.238	47.87
775.417	50.46
775.595	49.75
775.774	56.41
775.953	51.08
776.131	54.26
776.31	50.55
776.489	52.19
776.667	49.53
776.846	51.05
777.025	48.4
777.203	53.13
777.382	48.01
777.56	49.57
777.739	44.36
777.917	46.11
778.096	46.49
778.274	46.53
778.453	45.04
778.631	46.82
778.81	41.76
778.988	38.04
779.166	35.39
779.345	29.14
779.523	27.07
779.702	29.62
779.88	26.74
780.058	22.76
780.237	24.85
780.415	25.29
780.593	22.17
780.771	28.22
780.95	34.22
781.128	36.88
781.306	42.45
781.484	42.62
781.662	43.02
781.841	42.14
782.019	47.34
782.197	48.09
782.375	51.64
782.553	50.29
782.731	48.83
782.909	49.23
783.087	47.27
783.265	40.01
783.443	42.15
783.621	43.63
783.799	42.83
783.977	41.28
784.155	40.11
784.333	37.78
784.511	42
784.689	40.83
784.867	35.73
785.045	31.64
785.223	41.17
785.4	39.41
785.578	36.93
785.756	44.02
785.934	40.16
786.112	32.89
786.289	29.14
786.467	22.58
786.645	26.68
786.823	29.71
787	30.94
787.178	31.35
787.356	28.14
787.533	28.75
787.711	28.3
787.889	20.88
788.066	24.84
788.244	26.44
788.421	35.49
788.599	34.54
788.776	29.65
788.954	33.07
789.131	31.72
789.309	36.3
789.486	33.84
789.664	29.73
789.841	37.46
790.019	40.66
790.196	39.91
790.373	36.85
790.551	36.27
790.728	42.32
790.906	43.13
791.083	52.8
791.26	53.44
791.437	56.61
791.615	55.1
791.792	56.19
791.969	52.33
792.146	50.75
792.324	49.43
792.501	48.98
792.678	36.78
792.855	35.72
793.032	29.33
793.209	25.01
793.387	26.19
793.564	27.99
793.741	22.73
793.918	23.43
794.095	28.58
794.272	30.94
794.449	30.23
794.626	40.21
794.803	46
794.98	41.55
795.157	42.41
795.334	45.87
795.511	47.73
795.688	49.62
795.864	52.76
796.041	53.48
796.218	52.49
796.395	56.08
796.572	56.17
796.749	52.69
796.925	54.65
797.102	58.18
797.279	52.26
797.456	50.48
797.632	57.42
797.809	59.64
797.986	62.54
798.162	54.08
798.339	47.91
798.516	39.09
798.692	28.52
798.869	24.51
799.046	24.91
799.222	18.31
799.399	21.93
799.575	16.54
799.752	13.67
799.928	10.94
800.105	19.96
800.281	24.67
800.458	22.22
800.634	26.07
800.811	29.4
800.987	32.19
801.163	29.63
801.34	34.89
801.516	46.84
801.692	47.73
801.869	47.37
802.045	45.9
802.221	42.63
802.398	51.21
802.574	47.82
802.75	47.14
802.926	40.51
803.103	49.72
803.279	43.25
803.455	37.83
803.631	26.6
803.807	31.88
803.983	27.88
804.16	28.86
804.336	28.33
804.512	32.66
804.688	32.92
804.864	34.72
805.04	26.67
805.216	26.58
805.392	20.85
805.568	31.89
805.744	25.9
805.92	37.24
806.096	44.19
806.272	40.23
806.448	51.31
806.623	52.75
806.799	46.96
806.975	53.68
807.151	55.76
807.327	57.6
807.503	53.23
807.678	59.66
807.854	48.85
808.03	40.6
808.206	33.73
808.381	27.46
808.557	28.14
808.733	28.19
808.908	31.93
809.084	39.05
809.26	39.7
809.435	27
809.611	17.07
809.787	29.67
809.962	39.1
810.138	45.57
810.313	38.18
810.489	37.78
810.664	36.25
810.84	34.08
811.015	33.71
811.191	25.76
811.366	50.45
811.542	52.44
811.717	48.62
811.892	48.19
812.068	41.48
812.243	42.17
812.419	41.93
812.594	38.29
812.769	38.49
812.944	36.19
813.12	40.84
813.295	29.92
813.47	29.91
813.645	29.99
813.821	29.77
813.996	36.87
814.171	44.85
814.346	52.69
814.521	61.53
814.697	61.65
814.872	61.32
815.047	62.99
815.222	60.08
815.397	66.71
815.572	54.37
815.747	57.45
815.922	59.26
816.097	44.92
816.272	43.53
816.447	40.76
816.622	38.49
816.797	42.92
816.972	44.97
817.147	48.55
817.322	45.38
817.496	50.95
817.671	50.07
817.846	45.81
818.021	44.56
818.196	38.97
818.371	41.93
818.545	42.22
818.72	38.15
818.895	40.62
819.069	43.96
819.244	38.64
819.419	34.86
819.594	30.82
819.768	27.19
819.943	28.13
820.117	27.96
820.292	25.67
820.467	20.2
820.641	19.15
820.816	17.26
820.99	15.99
821.165	14.31
821.339	12.93
821.514	12.76
821.688	13.26
821.863	12.92
822.037	13.33
822.212	14.32
822.386	16.17
822.56	15.94
822.735	15.7
822.909	13.62
823.084	17.03
823.258	20.86
823.432	21.44
823.606	22.42
823.781	22.85
823.955	21.94
824.129	19.27
824.303	24.83
824.478	26.41
824.652	23.56
824.826	26.11
825	25.92
825.174	24.47
825.348	21.5
825.523	21.74
825.697	20.16
825.871	19.87
826.045	21.24
826.219	16.48
826.393	13.6
826.567	14.59
826.741	15.51
826.915	13.33
827.089	14.33
827.263	15.19
827.437	15.57
827.611	20.79
827.784	23.63
827.958	18.3
828.132	22.01
828.306	29.39
828.48	33.61
828.654	36.07
828.827	38.68
829.001	38.67
829.175	43.04
829.349	45.38
829.522	48.83
829.696	47.58
829.87	62.47
830.044	63.48
830.217	60.47
830.391	50.21
830.565	40.93
830.738	35.19
830.912	38.69
831.085	38.72
831.259	42.45
831.432	36.14
831.606	26.07
831.779	27.81
831.953	32.81
832.126	33.05
832.3	32.05
832.473	32.71
832.647	34.03
832.82	34.75
832.994	33.99
833.167	30.83
833.34	32.34
833.514	43.74
833.687	34.03
833.86	34.35
834.034	36.68
834.207	41.3
834.38	42.39
834.553	36.55
834.727	35.08
834.9	35.78
835.073	39.78
835.246	39.37
835.419	30.4
835.593	34.68
835.766	30.63
835.939	27.13
836.112	23.54
836.285	29.8
836.458	37.91
836.631	40.51
836.804	37.22
836.977	30.3
837.15	31.16
837.323	24.75
837.496	27.26
837.669	30.68
837.842	53.88
838.015	68.57
838.188	51.27
838.361	45.38
838.533	44.75
838.706	55.64
838.879	61.23
839.052	60.56
839.225	72.06
839.398	65.08
839.57	73.57
839.743	59.87
839.916	61.27
840.088	76.84
840.261	79.84
840.434	82.44
840.607	81.14
840.779	79.14
840.952	74.41
841.124	82.58
841.297	77.51
841.47	69.75
841.642	69.61
841.815	48.95
841.987	43.21
842.16	40.92
842.332	40.63
842.505	38.91
842.677	33.66
842.85	43.59
843.022	30.77
843.194	39.21
843.367	34.16
843.539	38
843.712	52.58
843.884	55.24
844.056	57.87
844.229	71.4
844.401	79.6
844.573	82.02
844.745	59.65
844.918	58.46
845.09	52.73
845.262	38.42
845.434	30.32
845.606	24.9
845.779	6.85
845.951	11.69
846.123	-2.84
846.295	30.99
846.467	22.37
846.639	16.41
846.811	69.89
846.983	11.61
847.155	115.13
847.327	41.73
847.499	48.47
847.671	39.71
847.843	42.33
848.015	49.72
848.187	63.86
848.359	47.19
848.531	133.33
848.703	92.75
848.875	308.06
849.047	247.71
849.218	470.34
849.39	254.09
849.562	506.73
849.734	178.48
849.905	113.72
850.077	88.89
850.249	87.37
850.421	63.97
850.592	70.21
850.764	49.57
850.936	60.1
851.107	28.38
851.279	23.53
851.451	36.99
851.622	37.72
851.794	56.3
851.965	53.22
852.137	41.84
852.308	44.26
852.48	51.46
852.651	71.26
852.823	34.95
852.994	93.7
853.166	93
853.337	101.73
853.509	90.67
853.68	91.99
853.851	100.12
854.023	96.77
854.194	90.47
854.365	87.98
854.537	61.29
854.708	68.54
854.879	65.57
855.05	67.19
855.222	69.56
855.393	73.03
855.564	75.4
855.735	77.48
855.906	98.53
856.078	94.93
856.249	84.28
856.42	128.07
856.591	123.33
856.762	84.26
856.933	22.56
857.104	29.02
857.275	-8.53
857.446	-20.12
857.617	-63.45
857.788	-14.21
857.959	28.33
858.13	28.23
858.301	24.84
858.472	36.45
858.643	57.48
858.814	68.76
858.985	66.72
859.155	75.77
859.326	112.64
859.497	153.12
859.668	107.34
859.839	91.24
860.009	93.01
860.18	109.79
860.351	111.7
860.522	81.02
860.692	96.26
860.863	85.06
861.034	127.38
861.204	96.82
861.375	88.19
861.546	75.85
861.716	95.64
861.887	113.24
862.057	77.53
862.228	94.98
862.398	111.46
862.569	108.15
862.739	100.58
862.91	51.25
863.08	43.32
863.251	24.35
863.421	40.19
863.592	29.88
863.762	17.46
863.932	19.31
864.103	21.17
864.273	23.29
864.443	28.81
864.614	38.85
864.784	50.58
864.954	63.79
865.125	74.93
865.295	77.73
865.465	78.63
865.635	75.11
865.805	74.26
865.976	82.98
866.146	74.72
866.316	64.11
866.486	66.96
866.656	63.65
866.826	67.38
866.996	68.54
867.166	66.63
867.336	62.1
867.506	86.29
867.676	95.83
867.846	77.86
868.016	83.71
868.186	117.15
868.356	115.87
868.526	743.75
868.696	22000
868.866	-228.24
869.036	214.68
869.206	414.52
869.376	814.63
869.545	179.44
869.715	199.32
869.885	214.6
870.055	156.83
870.224	100.32
870.394	64.55
870.564	28.43
870.734	6.2
870.903	-15.52
871.073	18.18
871.243	-4.41
871.412	-45.54
871.582	-15.84
871.751	-52.71
871.921	-23.47
872.091	19.59
872.26	21.03
872.43	49.15
872.599	58.13
872.769	61.75
872.938	67.95
873.108	45.6
873.277	62.79
873.446	74.75
873.616	67.09
873.785	65.12
873.955	58.63
874.124	53.78
874.293	41.9
874.463	31.07
874.632	30.79
874.801	36.44
874.971	60.78
875.14	54.27
875.309	53.72
875.478	64.08
875.647	65.76
875.817	84.71
875.986	96.06
876.155	105.44
876.324	115.87
876.493	125.59
876.662	140.95
876.831	83.14
877	77.71
877.17	55.86
877.339	68.26
877.508	56.21
877.677	57.85
877.846	53.97
878.015	57.61
878.184	66.88
878.352	55.73
878.521	50.92
878.69	56.98
878.859	32.62
879.028	51.43
879.197	28.94
879.366	37.58
879.534	22.99
879.703	21.9
879.872	25.03
880.041	16.13
880.21	11.94
880.378	11.9
880.547	10.55
880.716	20.17
880.884	15.43
881.053	20.38
881.222	19.33
881.39	22.59
881.559	27.86
881.727	26.86
881.896	33.33
882.065	41.66
882.233	40.22
882.402	43.51
882.57	40.53
882.739	40.24
882.907	41.06
883.076	37.51
883.244	39.62
883.412	37.9
883.581	45.07
883.749	26.9
883.918	20.64
884.086	24.44
884.254	18.06
884.423	29.13
884.591	37.83
884.759	19.97
884.927	34.69
885.096	36.14
885.264	-2.54
885.432	-26.41
885.6	14.66
885.769	18.98
885.937	33.54
886.105	54.45
886.273	49.36
886.441	81.68
886.609	72.83
886.777	56.53
886.945	56.05
887.113	87.18
887.281	63.92
887.449	48.16
887.617	55.03
887.785	36.39
887.953	39.89
888.121	42.51
888.289	18.68
888.457	31.69
888.625	38.24
888.793	50.81
888.961	58.49
889.129	82.25
889.296	114.33
889.464	122.11
889.632	126.95
889.8	164.54
889.967	186.97
890.135	201.97
