Data from JASIL_3332_Reflection_2.txt Node
Date: Tue Nov 17 20:17:06 EST 2015
User: Geneva
Spectrometer: USB4E03002
Autoset integration time: false
Trigger mode: 4
Integration Time (sec): 1.000000E-1
Scans to average: 10
Electric dark correction enabled: false
Nonlinearity correction enabled: false
Boxcar width: 5
Stray light correction enabled: false
XAxis mode: Wavelengths
Stop averaging: false
Number of Pixels in Spectrum: 3648
>>>>>Begin Spectral Data<<<<<
177.575	-284.16
177.794	-436.96
178.014	-466.29
178.233	-766.04
178.452	-748.33
178.672	-529.92
178.891	-1308.62
179.11	9150
179.33	2091.3
179.549	2045.1
179.768	-9318.18
179.987	895.45
180.207	497.54
180.426	878.77
180.645	1119.2
180.864	8105.88
181.084	811.45
181.303	631.7
181.522	753.45
181.741	722.47
181.96	1235.35
182.179	7011.76
182.398	-1518.18
182.618	-590.55
182.837	-515.71
183.056	-618.03
183.275	-564.44
183.494	-223.65
183.713	-154.09
183.932	-117.53
184.151	-107.31
184.37	-89.18
184.589	-126.32
184.808	-129.5
185.027	-113.16
185.246	-213.62
185.465	-177.25
185.684	-272.63
185.903	-479.94
186.122	-704.17
186.341	-1474.34
186.56	-990.48
186.779	-6207.41
186.998	-834.92
187.216	-780.56
187.435	-773.33
187.654	-693.94
187.873	-535.27
188.092	-681.41
188.311	-764.29
188.53	-515.76
188.748	-257.41
188.967	-250.17
189.186	-163.93
189.405	-308.78
189.623	-275.94
189.842	-281.56
190.061	-214.74
190.28	-131.55
190.498	-183.4
190.717	-126.06
190.936	-115.17
191.154	-393.96
191.373	-1074.71
191.592	2262.79
191.81	993.2
192.029	1056.84
192.248	542.16
192.466	650.83
192.685	289.89
192.904	621.29
193.122	467.4
193.341	607.14
193.559	755.37
193.778	812.15
193.996	701.42
194.215	2026.09
194.433	1025
194.652	1058.04
194.87	873.12
195.089	1080.77
195.307	2284.21
195.526	-1348.98
195.744	-933.81
195.963	-1014
196.181	-1200.83
196.399	-1714.94
196.618	2027.63
196.836	1181.56
197.055	1095.95
197.273	1198.51
197.491	1281.98
197.71	604.76
197.928	453.31
198.146	429.11
198.365	1952.38
198.583	1312.7
198.801	-570.97
199.019	-156.69
199.238	-115.9
199.456	-103.1
199.674	-141.72
199.892	-119.02
200.111	-136.38
200.329	-223.66
200.547	-298.08
200.765	2239.22
200.983	-1023.93
201.202	1722.37
201.42	544.64
201.638	359.55
201.856	534.62
202.074	776
202.292	503.57
202.51	399.7
202.728	452.33
202.946	4457.14
203.165	2484.62
203.383	421.66
203.601	609.64
203.819	962.73
204.037	-3369.7
204.255	-4662.96
204.473	-879.02
204.691	-675.88
204.909	-492.04
205.127	-2572.92
205.345	693.94
205.562	-757.36
205.78	-174
205.998	-147.75
206.216	-151.6
206.434	-214.92
206.652	-214.07
206.87	-421.56
207.088	-367.14
207.306	-533.53
207.523	-355.66
207.741	-291.72
207.959	-516.22
208.177	-717.62
208.395	-648.53
208.612	-654.63
208.83	-390.4
209.048	-440.52
209.266	-408.29
209.483	-250.49
209.701	-277.43
209.919	-262.85
210.136	-282.41
210.354	-282.84
210.572	-319.88
210.79	-419.67
211.007	-868.31
211.225	-7766.67
211.442	1788.14
211.66	4740
211.878	441.2
212.095	961.26
212.313	1523.73
212.53	862.56
212.748	725.5
212.966	546.38
213.183	645.53
213.401	-7272.22
213.618	-546.03
213.836	-465.87
214.053	-610.55
214.271	-415.71
214.488	-346.43
214.705	-282.85
214.923	-199.41
215.14	-128.48
215.358	-100
215.575	-103.3
215.793	-202.92
216.01	-494.79
216.227	-861.21
216.445	-777.08
216.662	-483.62
216.879	-528.7
217.097	-311.92
217.314	-422.18
217.531	14425
217.749	1191.09
217.966	659.89
218.183	406.92
218.4	746.45
218.618	759.21
218.835	446.59
219.052	368.75
219.269	331.65
219.487	178.71
219.704	174.73
219.921	211.67
220.138	284.14
220.355	256.82
220.572	246.75
220.79	221.65
221.007	285.55
221.224	455.51
221.441	471.97
221.658	509.4
221.875	-2905.71
222.092	-1080.68
222.309	3003.03
222.526	504.85
222.743	420.29
222.96	573.38
223.177	1727.91
223.394	1119.74
223.611	585.31
223.828	366.8
224.045	317.59
224.262	249.54
224.479	293.53
224.696	520.67
224.913	989.26
225.13	1041.51
225.347	782.76
225.564	387.9
225.781	259.24
225.997	208.11
226.214	192.09
226.431	144.27
226.648	125.76
226.865	94.56
227.082	74.57
227.298	65.79
227.515	60.15
227.732	63.89
227.949	53.28
228.165	45.6
228.382	38.9
228.599	43.89
228.816	53.09
229.032	56.74
229.249	64.68
229.466	70.07
229.682	73.18
229.899	86.14
230.116	88.73
230.332	105.38
230.549	118.16
230.765	112.06
230.982	91.43
231.199	89.03
231.415	93.02
231.632	97.64
231.848	95.9
232.065	88.18
232.281	71.85
232.498	68.57
232.714	67.61
232.931	58.99
233.147	63.36
233.364	87.6
233.58	93.76
233.797	97.48
234.013	105.96
234.23	127.34
234.446	140.29
234.662	171.21
234.879	257.21
235.095	210
235.312	179.87
235.528	180.38
235.744	193.44
235.961	247.73
236.177	193.4
236.393	238.35
236.61	198.96
236.826	166.9
237.042	113.22
237.258	126.28
237.475	128.52
237.691	180.38
237.907	137.19
238.123	117.49
238.339	108.45
238.556	101.92
238.772	76.64
238.988	65.33
239.204	63.09
239.42	66.26
239.636	51.58
239.853	51.69
240.069	49.57
240.285	48.43
240.501	39.39
240.717	33.17
240.933	35.47
241.149	36.45
241.365	35.67
241.581	34.48
241.797	39.51
242.013	40.84
242.229	39.84
242.445	38.89
242.661	39.88
242.877	49.28
243.093	58.37
243.309	59.12
243.525	58.44
243.741	60.85
243.957	53.42
244.173	45.26
244.388	44.38
244.604	42
244.82	36.95
245.036	34.7
245.252	30.22
245.468	27.27
245.683	26.27
245.899	25.02
246.115	22.97
246.331	22.78
246.547	23.52
246.762	22.83
246.978	23.13
247.194	24.81
247.409	25.82
247.625	27.32
247.841	27.19
248.057	28.76
248.272	28.16
248.488	29.47
248.703	33.08
248.919	38.9
249.135	39.54
249.35	39.85
249.566	41.35
249.782	42.03
249.997	39.34
250.213	39.87
250.428	37.05
250.644	36.47
250.859	33.38
251.075	32.59
251.29	26.99
251.506	26.97
251.721	27.26
251.937	23.98
252.152	25.34
252.368	27.08
252.583	26.46
252.798	31.06
253.014	33.12
253.229	36.59
253.445	38.38
253.66	45.46
253.875	43.14
254.091	40.17
254.306	50.67
254.521	44.52
254.737	41.77
254.952	36.8
255.167	31.04
255.383	31.16
255.598	29.59
255.813	26.32
256.028	22.57
256.244	24.13
256.459	26.9
256.674	22.69
256.889	21.31
257.104	20.93
257.32	21.5
257.535	19.21
257.75	17.73
257.965	17.48
258.18	18.17
258.395	17.82
258.61	17.87
258.826	16.32
259.041	16.79
259.256	15.99
259.471	16.55
259.686	17.41
259.901	17.89
260.116	17.92
260.331	19.78
260.546	21.68
260.761	21.38
260.976	21.8
261.191	23.29
261.406	21.58
261.621	24.75
261.836	26.25
262.05	23.94
262.265	27.62
262.48	31.96
262.695	31.15
262.91	24.48
263.125	26.13
263.34	25.3
263.555	20.78
263.769	26.53
263.984	20.12
264.199	18.9
264.414	19.09
264.629	17.37
264.843	15.71
265.058	13.85
265.273	14.77
265.488	17.42
265.702	18.75
265.917	23.23
266.132	23.3
266.346	27.44
266.561	27.66
266.776	29.1
266.99	28.3
267.205	30.48
267.42	26.04
267.634	26.05
267.849	24.7
268.063	22.69
268.278	20.11
268.492	17.63
268.707	14.47
268.922	13.23
269.136	12.69
269.351	12.46
269.565	11.57
269.78	16.65
269.994	17.64
270.209	17.56
270.423	17.11
270.637	15.71
270.852	15.52
271.066	17.51
271.281	19.07
271.495	19.81
271.709	19.74
271.924	17.89
272.138	17.3
272.353	17.91
272.567	18.47
272.781	18.58
272.996	20.39
273.21	22.52
273.424	22.1
273.638	21.5
273.853	21.61
274.067	22.41
274.281	24.06
274.495	24.08
274.71	26.3
274.924	24.69
275.138	28.72
275.352	28.21
275.566	25.18
275.781	24.78
275.995	26.11
276.209	24.26
276.423	21.61
276.637	20.22
276.851	19.92
277.065	15.28
277.279	12.82
277.493	10.73
277.707	10.75
277.921	12.34
278.135	14.75
278.349	11.87
278.563	12.36
278.777	13.44
278.991	14
279.205	15.94
279.419	16.35
279.633	18.07
279.847	18.23
280.061	16.57
280.275	19.25
280.489	15.79
280.703	15.54
280.917	16.76
281.131	17.14
281.344	18.38
281.558	16.89
281.772	16.79
281.986	17.11
282.2	15.8
282.414	16.29
282.627	13.93
282.841	16.19
283.055	14.38
283.269	13.57
283.482	15.03
283.696	13.93
283.91	14.92
284.123	14.48
284.337	13.74
284.551	13.77
284.764	13.91
284.978	14.37
285.192	13.47
285.405	14.64
285.619	14.94
285.833	15.28
286.046	16.44
286.26	16
286.473	17.32
286.687	19.1
286.9	21.39
287.114	22.15
287.327	23.98
287.541	23
287.754	23.8
287.968	24.01
288.181	22.65
288.395	22.6
288.608	21.6
288.822	21.86
289.035	21.08
289.248	19.42
289.462	18.63
289.675	15.86
289.889	17.18
290.102	17.42
290.315	16.27
290.529	16.1
290.742	14.42
290.955	15.81
291.169	15.84
291.382	15.63
291.595	16.06
291.808	17.01
292.022	18.51
292.235	17.38
292.448	16.87
292.661	19.22
292.875	20.57
293.088	21.42
293.301	21.2
293.514	18.13
293.727	16.93
293.94	14.58
294.153	13.17
294.367	12.29
294.58	11.86
294.793	11.55
295.006	10.28
295.219	8.63
295.432	7.65
295.645	8.16
295.858	9.83
296.071	10.07
296.284	10.54
296.497	11.37
296.71	11.62
296.923	11.85
297.136	12
297.349	13.17
297.562	13.79
297.775	13.68
297.988	11.96
298.201	12.39
298.414	14.15
298.626	15.08
298.839	15.29
299.052	15.58
299.265	15.92
299.478	17.57
299.691	16.16
299.903	15.03
300.116	16.21
300.329	16.44
300.542	16.39
300.755	15.42
300.967	15.03
301.18	16.2
301.393	15.31
301.605	14.66
301.818	12.32
302.031	11.54
302.243	11.73
302.456	11.88
302.669	13.56
302.881	12.72
303.094	13.75
303.307	13.15
303.519	12.78
303.732	13.52
303.944	13.9
304.157	15.46
304.37	15.22
304.582	16.46
304.795	16.5
305.007	15.83
305.22	16.07
305.432	15.31
305.645	16.34
305.857	14.94
306.069	14.58
306.282	14.44
306.494	13.9
306.707	14.61
306.919	13.71
307.132	13.37
307.344	12.85
307.556	13.51
307.769	11.08
307.981	10.78
308.193	10.98
308.406	10.98
308.618	11.09
308.83	10.21
309.043	9.8
309.255	9.79
309.467	10.5
309.679	9.88
309.892	10.12
310.104	11.48
310.316	12.51
310.528	12.04
310.74	11.53
310.953	11.49
311.165	12.35
311.377	14.45
311.589	15.58
311.801	14.76
312.013	15.96
312.225	14.71
312.437	14.74
312.649	14.74
312.862	16.22
313.074	17.46
313.286	18.28
313.498	18.07
313.71	16.15
313.922	15.26
314.134	15.53
314.346	16.05
314.558	16.26
314.77	17.07
314.982	17.77
315.193	17.11
315.405	16.12
315.617	15.75
315.829	17.47
316.041	19.17
316.253	19.45
316.465	20.14
316.677	19.39
316.888	22.24
317.1	21.57
317.312	21.44
317.524	23.25
317.736	26.62
317.947	26.93
318.159	25.43
318.371	25.61
318.583	26.38
318.794	26.11
319.006	26.87
319.218	24.31
319.43	25.97
319.641	25.67
319.853	26.01
320.064	23.45
320.276	24.11
320.488	23.54
320.699	22.85
320.911	20.8
321.123	22.42
321.334	21.07
321.546	19.71
321.757	19.58
321.969	18.49
322.18	16.99
322.392	17.23
322.603	17.04
322.815	16.8
323.026	15.39
323.238	15.57
323.449	13.48
323.661	13.98
323.872	16.34
324.083	17.52
324.295	18.02
324.506	16.91
324.718	16.29
324.929	16.68
325.14	18.91
325.352	19.42
325.563	20.01
325.774	20.58
325.986	21.15
326.197	20.15
326.408	16.66
326.62	16.55
326.831	17.24
327.042	17.09
327.253	16.68
327.464	15.88
327.676	16.35
327.887	14.97
328.098	14.98
328.309	13.7
328.52	14.49
328.732	17.45
328.943	18.48
329.154	19.32
329.365	21.55
329.576	21.25
329.787	21.14
329.998	21.73
330.209	23.93
330.42	24.66
330.631	26.41
330.842	27.04
331.053	24.84
331.264	24.19
331.475	23.61
331.686	23.04
331.897	22.34
332.108	23.29
332.319	22.67
332.53	21.07
332.741	20.47
332.952	19.37
333.163	19.48
333.374	21.76
333.585	21.88
333.795	22.34
334.006	20.06
334.217	21.53
334.428	19.44
334.639	19.29
334.849	20.93
335.06	21.41
335.271	23.27
335.482	23.82
335.692	22.75
335.903	21.6
336.114	22.39
336.325	23.59
336.535	23.19
336.746	25.72
336.957	27.18
337.167	25.98
337.378	27.45
337.589	26.77
337.799	23.6
338.01	24.14
338.22	25.72
338.431	24.6
338.642	24.95
338.852	23.74
339.063	21.8
339.273	21.3
339.484	21.56
339.694	20.98
339.905	20.48
340.115	21.89
340.326	21.34
340.536	19.74
340.746	19.2
340.957	19.68
341.167	21.55
341.378	21.61
341.588	21.39
341.799	21.49
342.009	19.25
342.219	18.48
342.43	19.17
342.64	18.56
342.85	19.63
343.061	20.42
343.271	20.23
343.481	18.15
343.691	17.68
343.902	17.4
344.112	18.4
344.322	18.58
344.532	19.27
344.743	19.06
344.953	19.1
345.163	18.16
345.373	19.44
345.583	18.94
345.793	21.13
346.004	22.24
346.214	21.37
346.424	21.4
346.634	22.32
346.844	23.77
347.054	23.6
347.264	23.66
347.474	23.4
347.684	22.01
347.894	21.91
348.104	19.73
348.314	19.82
348.524	19.81
348.734	18.91
348.944	18.29
349.154	16.83
349.364	17
349.574	17.03
349.784	18.37
349.994	18.45
350.204	18.04
350.413	17.65
350.623	16.31
350.833	18.28
351.043	19.56
351.253	20
351.463	19.43
351.672	20.31
351.882	19.76
352.092	19.74
352.302	20.58
352.511	22.08
352.721	22.36
352.931	22.77
353.141	22.52
353.35	21.87
353.56	21.94
353.77	21.92
353.979	22.07
354.189	22.58
354.399	22.14
354.608	20.42
354.818	19.56
355.027	20.39
355.237	20.73
355.447	20.83
355.656	20.5
355.866	19.93
356.075	20.04
356.285	19.14
356.494	19.03
356.704	19.14
356.913	19.88
357.123	19.58
357.332	19.3
357.542	19.57
357.751	19.52
357.96	18.22
358.17	18.46
358.379	18.09
358.589	17.93
358.798	18.78
359.007	19.46
359.217	19.67
359.426	19.92
359.635	20.02
359.845	19.9
360.054	18.44
360.263	19.42
360.472	20.06
360.682	21.01
360.891	21.14
361.1	20.93
361.309	20.66
361.519	19.79
361.728	19.43
361.937	19.78
362.146	19.34
362.355	19.9
362.564	18.85
362.774	18.21
362.983	17.31
363.192	17.66
363.401	17.86
363.61	17.76
363.819	18.25
364.028	18.65
364.237	18.16
364.446	18.38
364.655	17.79
364.864	19.17
365.073	18.8
365.282	17.76
365.491	16.97
365.7	16.72
365.909	15.99
366.118	16.99
366.327	16.82
366.536	16.44
366.745	16.83
366.954	17.54
367.162	17.11
367.371	18.39
367.58	19.72
367.789	20.61
367.998	20.64
368.207	21.35
368.415	20.74
368.624	21.33
368.833	21.9
369.042	21.55
369.25	21.27
369.459	21.86
369.668	21.25
369.877	21.4
370.085	20.6
370.294	20.42
370.503	20.54
370.711	20.41
370.92	19.79
371.129	19.92
371.337	19.07
371.546	19.32
371.754	19.09
371.963	19.12
372.171	18.61
372.38	18.55
372.589	18.77
372.797	17.77
373.006	17.86
373.214	16.29
373.423	15.62
373.631	16.36
373.84	15.13
374.048	14.8
374.256	14.28
374.465	15.95
374.673	16.65
374.882	15.22
375.09	14.67
375.298	15.1
375.507	15.42
375.715	14.99
375.923	15.1
376.132	16.35
376.34	15.81
376.548	16.42
376.757	15.26
376.965	14.62
377.173	15.68
377.381	16.12
377.59	15.43
377.798	16.03
378.006	14.83
378.214	14.98
378.423	14.04
378.631	14.63
378.839	13.99
379.047	15.47
379.255	16.45
379.463	16.65
379.671	17.83
379.879	18.09
380.088	18.23
380.296	20.07
380.504	19.61
380.712	20.19
380.92	19.67
381.128	20.16
381.336	18.74
381.544	17.92
381.752	17.32
381.96	15.87
382.168	14.98
382.376	15.63
382.584	15.81
382.791	16.15
382.999	15.31
383.207	14.68
383.415	15.72
383.623	15.11
383.831	14.9
384.039	15.02
384.247	15.93
384.454	17.06
384.662	17.09
384.87	17.4
385.078	16.76
385.285	16.78
385.493	18.18
385.701	16.49
385.909	17.52
386.116	17.97
386.324	17.51
386.532	16.07
386.739	15.77
386.947	15.62
387.155	15.59
387.362	15.9
387.57	16.03
387.778	14.6
387.985	13.95
388.193	13.28
388.4	13.21
388.608	13.31
388.816	14.71
389.023	14.4
389.231	14.64
389.438	13.69
389.646	13.6
389.853	14.13
390.061	14.71
390.268	15.22
390.475	14.99
390.683	15.09
390.89	15.12
391.098	15.26
391.305	15.37
391.512	15.05
391.72	15.38
391.927	16.01
392.135	16.18
392.342	15.91
392.549	15.97
392.756	16.48
392.964	15.74
393.171	16.58
393.378	16.17
393.586	15.86
393.793	16.37
394	16.78
394.207	16.17
394.414	16.05
394.622	16.23
394.829	16.77
395.036	15.95
395.243	16.74
395.45	16.54
395.657	15.95
395.864	16.37
396.072	15.41
396.279	14.81
396.486	15.17
396.693	14.62
396.9	15.15
397.107	15.03
397.314	15.82
397.521	15.64
397.728	15.13
397.935	15.27
398.142	15.34
398.349	15.18
398.556	14.68
398.763	14.69
398.97	15.64
399.177	15.88
399.383	16.23
399.59	16.31
399.797	15.87
400.004	16.74
400.211	16.78
400.418	16.2
400.625	16.71
400.831	17.78
401.038	17.34
401.245	17.15
401.452	16.55
401.658	16.35
401.865	16.17
402.072	15.98
402.279	15.79
402.485	16.04
402.692	16.4
402.899	15.6
403.105	15.28
403.312	15.55
403.519	15.27
403.725	15.09
403.932	14.55
404.138	14.68
404.345	14.93
404.552	14.9
404.758	15.59
404.965	15.03
405.171	15.6
405.378	16.15
405.584	16.61
405.791	16.45
405.997	16.86
406.204	17.6
406.41	17.47
406.617	17.85
406.823	17.04
407.029	16.37
407.236	17
407.442	17.13
407.649	16.51
407.855	16.42
408.061	16.78
408.268	16.59
408.474	16.23
408.68	16.2
408.887	16.5
409.093	17.21
409.299	17.33
409.505	16.81
409.712	16.62
409.918	16.17
410.124	15.61
410.33	15.96
410.537	15.76
410.743	15.55
410.949	15.89
411.155	14.76
411.361	14.24
411.567	13.57
411.773	14.04
411.98	14.46
412.186	15.94
412.392	16.16
412.598	15.33
412.804	15.26
413.01	15.53
413.216	15.16
413.422	16.04
413.628	16.25
413.834	16.44
414.04	15.96
414.246	15.53
414.452	14.61
414.658	14.51
414.864	14.75
415.07	15.2
415.275	14.9
415.481	15.01
415.687	15.13
415.893	15.22
416.099	15.37
416.305	15.29
416.511	15.25
416.716	15.18
416.922	15.27
417.128	15.31
417.334	15.41
417.539	15.66
417.745	15.69
417.951	15.35
418.157	15.6
418.362	15.87
418.568	16.2
418.774	16.39
418.979	16.53
419.185	16.36
419.391	16.26
419.596	16.11
419.802	15.91
420.008	15.88
420.213	16.52
420.419	16.03
420.624	16
420.83	16.01
421.035	16.07
421.241	15.97
421.446	15.79
421.652	16.09
421.857	15.92
422.063	15.93
422.268	16.1
422.474	15.31
422.679	15.26
422.885	14.81
423.09	14.81
423.295	14.6
423.501	14.4
423.706	14.6
423.911	14.41
424.117	14.54
424.322	14.5
424.527	14.31
424.733	14.41
424.938	14.54
425.143	14.72
425.349	14.25
425.554	14.17
425.759	14.6
425.964	14.2
426.169	14.28
426.375	14.49
426.58	14.76
426.785	14.46
426.99	14.79
427.195	14.82
427.4	14.89
427.605	15.71
427.811	15.61
428.016	15.05
428.221	15.57
428.426	15.61
428.631	15.44
428.836	15.12
429.041	15.49
429.246	15.07
429.451	15.45
429.656	15.55
429.861	15.26
430.066	15.67
430.271	16.25
430.476	16.4
430.681	15.91
430.886	15.63
431.09	15.4
431.295	15.45
431.5	15.5
431.705	15.16
431.91	15.29
432.115	15.22
432.32	14.94
432.524	14.73
432.729	14.43
432.934	14.76
433.139	15.19
433.343	15.43
433.548	15.47
433.753	15.45
433.958	15.36
434.162	15.42
434.367	15.44
434.572	15.11
434.776	14.98
434.981	15.03
435.186	14.94
435.39	14.82
435.595	14.79
435.799	14.79
436.004	14.84
436.209	15.04
436.413	14.86
436.618	14.67
436.822	14.97
437.027	15.14
437.231	15.11
437.436	15.44
437.64	15.38
437.845	15.41
438.049	15.24
438.253	15.34
438.458	15.12
438.662	15.26
438.867	15.36
439.071	15.47
439.275	15.63
439.48	15.82
439.684	15.75
439.888	15.96
440.093	15.95
440.297	15.92
440.501	16.13
440.706	16.22
440.91	15.94
441.114	16.05
441.318	15.98
441.523	15.83
441.727	15.59
441.931	15.38
442.135	15.19
442.339	15.01
442.543	15.28
442.748	14.98
442.952	15.08
443.156	15.06
443.36	14.9
443.564	14.93
443.768	15.09
443.972	15.57
444.176	15.28
444.38	14.97
444.584	15.05
444.788	14.73
444.992	14.67
445.196	14.59
445.4	14.61
445.604	14.54
445.808	14.6
446.012	14.33
446.216	14.1
446.42	14.33
446.624	14.42
446.828	14.67
447.032	14.83
447.235	14.91
447.439	15.1
447.643	15.3
447.847	15.41
448.051	15.22
448.254	15.21
448.458	15.19
448.662	15.08
448.866	15.41
449.069	15.2
449.273	15.08
449.477	15.36
449.681	15.15
449.884	15.31
450.088	15.24
450.292	15.34
450.495	15.17
450.699	15.36
450.902	15.2
451.106	14.63
451.31	14.63
451.513	14.9
451.717	14.69
451.92	14.99
452.124	14.73
452.327	14.84
452.531	15.25
452.734	15.74
452.938	15.72
453.141	16.06
453.345	16.02
453.548	15.89
453.752	15.93
453.955	16.39
454.158	16.47
454.362	16.45
454.565	16.59
454.769	16.6
454.972	16.5
455.175	16.62
455.379	16.61
455.582	16.85
455.785	16.87
455.988	16.68
456.192	16
456.395	15.53
456.598	15.71
456.801	15.7
457.005	15.46
457.208	15.3
457.411	14.81
457.614	14.36
457.817	14.23
458.021	14.22
458.224	13.97
458.427	14.08
458.63	13.98
458.833	14.06
459.036	14.09
459.239	13.87
459.442	13.75
459.645	13.85
459.848	14.15
460.051	14.48
460.254	14.63
460.457	14.72
460.66	14.61
460.863	14.86
461.066	14.46
461.269	14.29
461.472	14.7
461.675	15.02
461.878	15.28
462.081	15.61
462.284	15.58
462.486	15.41
462.689	15.5
462.892	16.04
463.095	15.98
463.298	16.22
463.5	16.39
463.703	16.57
463.906	16.48
464.109	16.24
464.311	16.16
464.514	16.01
464.717	15.97
464.92	15.94
465.122	15.5
465.325	15.81
465.528	15.84
465.73	15.65
465.933	15.18
466.135	15.1
466.338	15.37
466.541	15.03
466.743	14.79
466.946	14.61
467.148	14.73
467.351	14.91
467.553	14.77
467.756	14.76
467.958	14.53
468.161	14.75
468.363	14.8
468.566	14.38
468.768	14.28
468.971	14.31
469.173	15
469.375	15.08
469.578	14.94
469.78	14.73
469.983	14.94
470.185	15.25
470.387	15.61
470.59	15.53
470.792	15.44
470.994	15.67
471.196	16.04
471.399	15.21
471.601	15.3
471.803	15.44
472.005	15.41
472.208	15.22
472.41	15.23
472.612	14.83
472.814	15.2
473.016	15.54
473.218	15.66
473.421	15.37
473.623	16
473.825	15.75
474.027	15.56
474.229	15.83
474.431	15.65
474.633	15.68
474.835	15.41
475.037	15.22
475.239	15.5
475.441	15.58
475.643	16.05
475.845	15.81
476.047	15.98
476.249	15.79
476.451	15.73
476.653	15.84
476.855	15.71
477.057	16
477.258	15.5
477.46	15.28
477.662	15.5
477.864	15.14
478.066	15.22
478.268	15.28
478.469	15.62
478.671	15.54
478.873	15.56
479.075	15.62
479.276	15.42
479.478	15.61
479.68	15.67
479.882	15.18
480.083	15.28
480.285	15.08
480.487	15.04
480.688	14.85
480.89	14.69
481.091	14.65
481.293	14.68
481.495	14.81
481.696	14.78
481.898	14.55
482.099	14.64
482.301	14.5
482.502	14.51
482.704	14.41
482.905	14.43
483.107	14.47
483.308	14.37
483.51	14.25
483.711	14.18
483.913	14.29
484.114	14.31
484.315	14.28
484.517	14.35
484.718	14.36
484.92	14.46
485.121	14.37
485.322	14.25
485.524	14.32
485.725	14.47
485.926	14.43
486.127	14.42
486.329	14.4
486.53	14.32
486.731	14.34
486.932	14.23
487.134	14.17
487.335	14.17
487.536	14.38
487.737	14.47
487.938	14.43
488.139	14.52
488.341	14.48
488.542	14.6
488.743	14.77
488.944	14.94
489.145	15.09
489.346	15.09
489.547	15.02
489.748	14.85
489.949	14.87
490.15	14.88
490.351	14.78
490.552	14.76
490.753	14.77
490.954	14.58
491.155	14.45
491.356	14.39
491.557	14.46
491.758	14.85
491.959	15
492.159	14.95
492.36	14.99
492.561	14.99
492.762	14.95
492.963	14.99
493.164	15.28
493.364	15.29
493.565	15.67
493.766	15.62
493.967	15.49
494.167	15.34
494.368	15.27
494.569	15.25
494.769	15.52
494.97	15.44
495.171	15.66
495.371	15.6
495.572	15.74
495.773	15.66
495.973	15.55
496.174	15.53
496.375	15.92
496.575	16.24
496.776	16.45
496.976	16.48
497.177	16.7
497.377	16.6
497.578	16.51
497.778	16.49
497.979	16.63
498.179	16.64
498.38	16.59
498.58	16.28
498.78	16.32
498.981	16.31
499.181	16.39
499.382	16.57
499.582	16.46
499.782	16.85
499.983	16.99
500.183	17.01
500.383	17.31
500.584	17.29
500.784	17.47
500.984	17.19
501.184	16.89
501.385	16.96
501.585	16.84
501.785	16.84
501.985	16.49
502.185	16.27
502.386	16.21
502.586	16.4
502.786	16.51
502.986	16.02
503.186	16.23
503.386	16.56
503.586	16.49
503.786	16.49
503.987	16.64
504.187	16.75
504.387	17.12
504.587	17.09
504.787	16.9
504.987	17.24
505.187	17.76
505.387	17.72
505.587	17.52
505.786	17.5
505.986	17.62
506.186	17.48
506.386	17.95
506.586	17.97
506.786	18.07
506.986	18.17
507.186	17.98
507.386	18.09
507.585	18.36
507.785	18.62
507.985	18.83
508.185	18.77
508.384	19.44
508.584	19.25
508.784	19.3
508.984	19.7
509.183	19.92
509.383	19.85
509.583	20.18
509.782	19.95
509.982	20.18
510.182	20.41
510.381	20.63
510.581	20.17
510.781	20.53
510.98	20.48
511.18	20.2
511.379	19.9
511.579	20.03
511.778	19.9
511.978	20.41
512.177	20.16
512.377	19.97
512.576	19.64
512.776	19.76
512.975	19.37
513.175	19.3
513.374	19.66
513.573	20.35
513.773	20.54
513.972	20.69
514.172	20.44
514.371	20.78
514.57	21.06
514.77	21.79
514.969	21.59
515.168	22.03
515.367	22.19
515.567	21.85
515.766	21.45
515.965	21.45
516.164	21.23
516.364	21.29
516.563	21.35
516.762	21.41
516.961	21.27
517.16	21.5
517.359	21.33
517.559	21.13
517.758	21.38
517.957	21.69
518.156	21.83
518.355	22.05
518.554	22.09
518.753	21.85
518.952	21.78
519.151	21.81
519.35	22.08
519.549	22.24
519.748	22.85
519.947	22.8
520.146	22.71
520.345	22.81
520.544	22.66
520.743	23.01
520.942	23.4
521.141	23.67
521.339	23.69
521.538	24.05
521.737	24.27
521.936	24.1
522.135	24.08
522.333	24.2
522.532	24.24
522.731	24.39
522.93	24.17
523.129	24.34
523.327	24.29
523.526	24.39
523.725	24.04
523.923	24
524.122	24.05
524.321	24.4
524.519	24.36
524.718	24.46
524.917	24.67
525.115	24.75
525.314	24.68
525.512	24.82
525.711	24.69
525.909	24.88
526.108	25
526.306	24.84
526.505	24.71
526.703	24.64
526.902	24.61
527.1	24.6
527.299	24.63
527.497	24.73
527.696	24.59
527.894	24.68
528.092	24.67
528.291	24.64
528.489	24.88
528.688	24.91
528.886	25.03
529.084	25.06
529.283	25.12
529.481	25.23
529.679	25.37
529.877	25.56
530.076	25.76
530.274	26.01
530.472	25.95
530.67	25.86
530.869	25.91
531.067	26.07
531.265	26.1
531.463	26.12
531.661	26.1
531.859	26.23
532.057	26.22
532.255	26.21
532.454	26.13
532.652	26.27
532.85	26.35
533.048	26.42
533.246	26.47
533.444	26.65
533.642	26.91
533.84	27.27
534.038	27.18
534.236	27.17
534.434	27.27
534.632	27.35
534.83	27.49
535.027	27.64
535.225	27.64
535.423	27.51
535.621	27.48
535.819	27.49
536.017	27.22
536.215	27.37
536.412	27.5
536.61	27.4
536.808	27.28
537.006	27.23
537.203	27.04
537.401	27.18
537.599	27.55
537.797	27.52
537.994	27.29
538.192	27.41
538.39	27.04
538.587	27.31
538.785	27.3
538.983	27.25
539.18	27.42
539.378	27.64
539.575	27.63
539.773	27.49
539.97	27.65
540.168	27.82
540.366	27.78
540.563	27.88
540.761	27.98
540.958	28.11
541.155	28.21
541.353	28.25
541.55	28.52
541.748	28.54
541.945	28.63
542.143	28.49
542.34	28.62
542.537	28.79
542.735	28.99
542.932	28.83
543.129	28.96
543.327	29.2
543.524	29.05
543.721	28.73
543.919	28.78
544.116	28.81
544.313	29.29
544.51	29.07
544.708	29.04
544.905	28.93
545.102	28.84
545.299	28.94
545.496	28.88
545.693	29.18
545.891	29.05
546.088	29.05
546.285	29.1
546.482	28.82
546.679	29.06
546.876	29.07
547.073	29.12
547.27	29.48
547.467	29.44
547.664	29.48
547.861	29.35
548.058	29.63
548.255	30.04
548.452	30.21
548.649	30.78
548.846	30.97
549.043	31.43
549.24	31.62
549.437	31.63
549.633	31.76
549.83	31.93
550.027	32.09
550.224	32.19
550.421	32.11
550.618	32.22
550.814	31.95
551.011	31.52
551.208	31.38
551.405	31.6
551.601	31.58
551.798	31.25
551.995	31.29
552.191	31.22
552.388	31.53
552.585	31.94
552.781	31.8
552.978	31.6
553.175	31.85
553.371	31.63
553.568	31.64
553.764	31.75
553.961	32.14
554.157	32.07
554.354	32.03
554.55	32.02
554.747	31.48
554.943	31.99
555.14	32.6
555.336	32.71
555.533	32.93
555.729	32.95
555.926	32.76
556.122	33.31
556.318	33.5
556.515	34.14
556.711	34
556.907	34.22
557.104	33.87
557.3	33.88
557.496	33.93
557.693	33.89
557.889	33.79
558.085	33.94
558.281	33.86
558.478	33.94
558.674	33.62
558.87	34.09
559.066	34.21
559.262	33.84
559.459	33.57
559.655	33.46
559.851	33.3
560.047	33.35
560.243	33.63
560.439	33.42
560.635	33.55
560.831	33.78
561.027	33.43
561.223	33.42
561.419	34.12
561.615	34.03
561.811	34.01
562.007	34.22
562.203	34.22
562.399	33.75
562.595	33.68
562.791	33.66
562.987	33.42
563.183	33.3
563.379	33.58
563.575	33.5
563.771	33.67
563.966	33.47
564.162	34
564.358	34.3
564.554	34.26
564.75	34.27
564.945	34.43
565.141	34.8
565.337	34.81
565.533	34.68
565.728	34.64
565.924	34.76
566.12	35.29
566.315	35.11
566.511	34.81
566.707	35.52
566.902	35.84
567.098	35.8
567.293	35.7
567.489	35.84
567.684	35.95
567.88	36.24
568.076	36.27
568.271	36.36
568.467	36.4
568.662	36.1
568.858	36.2
569.053	36.01
569.248	35.8
569.444	35.65
569.639	35.94
569.835	35.85
570.03	35.39
570.225	35.34
570.421	35.15
570.616	35.29
570.812	35.71
571.007	35.79
571.202	36.15
571.397	36.24
571.593	36.38
571.788	36.13
571.983	35.94
572.178	36.35
572.374	36.39
572.569	36.26
572.764	36
572.959	35.74
573.154	35.45
573.35	35.43
573.545	35.44
573.74	35.24
573.935	35.37
574.13	35.73
574.325	35.51
574.52	35.69
574.715	36.42
574.91	36.86
575.105	37.67
575.3	37.89
575.495	37.69
575.69	38.23
575.885	38.79
576.08	38.74
576.275	38.99
576.47	39.61
576.665	39.48
576.86	38.72
577.055	38.75
577.25	38.1
577.444	38.03
577.639	38.36
577.834	38.21
578.029	38.39
578.224	38.64
578.418	38.13
578.613	37.87
578.808	38.07
579.003	38.28
579.197	38.04
579.392	38.35
579.587	38.91
579.781	38.82
579.976	38.48
580.171	38.46
580.365	38.19
580.56	38.76
580.755	38.39
580.949	37.83
581.144	38.14
581.338	38.17
581.533	37.92
581.727	37.91
581.922	37.83
582.116	38.12
582.311	38.23
582.505	38.57
582.7	38.49
582.894	39.18
583.089	39.79
583.283	39.84
583.478	40.05
583.672	40.68
583.866	39.88
584.061	39.94
584.255	40.31
584.449	40.12
584.644	40.69
584.838	40.69
585.032	40.28
585.226	40.2
585.421	40.62
585.615	41.03
585.809	40.59
586.003	41.66
586.198	42.22
586.392	41.88
586.586	42.03
586.78	41.49
586.974	41.53
587.168	41.97
587.363	42.16
587.557	41.89
587.751	41.61
587.945	41.96
588.139	41.3
588.333	41.07
588.527	41.23
588.721	40.98
588.915	40.96
589.109	40.81
589.303	40.2
589.497	40.28
589.691	40.65
589.885	40.57
590.079	40.46
590.273	40.97
590.466	41.17
590.66	41.13
590.854	41.52
591.048	41.93
591.242	42.25
591.436	42.84
591.629	42.99
591.823	42.64
592.017	43.02
592.211	43.41
592.404	42.97
592.598	43.01
592.792	43.43
592.986	43.34
593.179	43.69
593.373	43.6
593.567	43.56
593.76	43.22
593.954	43.13
594.147	42.74
594.341	42.01
594.535	42.41
594.728	41.85
594.922	41.44
595.115	41.12
595.309	40.83
595.502	41.24
595.696	41.37
595.889	41.4
596.083	41.57
596.276	41.71
596.47	42.13
596.663	42.11
596.856	42.58
597.05	43.15
597.243	43.39
597.437	43.84
597.63	43.77
597.823	43.69
598.017	44.1
598.21	43.96
598.403	44.25
598.596	44.4
598.79	44.78
598.983	44.98
599.176	43.99
599.369	43.79
599.563	42.95
599.756	42.65
599.949	43.12
600.142	43.06
600.335	43.26
600.528	42.8
600.722	42.9
600.915	42.4
601.108	42.05
601.301	42.5
601.494	42.63
601.687	42.92
601.88	43.28
602.073	42.6
602.266	42.54
602.459	42.33
602.652	42.19
602.845	41.94
603.038	41.64
603.231	41.92
603.424	42.2
603.617	42.01
603.809	41.84
604.002	41.67
604.195	42.11
604.388	41.96
604.581	42.23
604.774	42.57
604.966	42.71
605.159	43.24
605.352	43.46
605.545	43.05
605.737	43.4
605.93	44.14
606.123	44.05
606.316	44.08
606.508	44.33
606.701	44
606.894	43.97
607.086	44.14
607.279	44.26
607.471	43.83
607.664	43.87
607.857	44.28
608.049	43.8
608.242	43.75
608.434	43.97
608.627	44.65
608.819	44.79
609.012	45
609.204	45.07
609.397	44.76
609.589	45.05
609.782	45.43
609.974	45.33
610.166	45.59
610.359	45.76
610.551	45.68
610.743	45.2
610.936	45.92
611.128	46.36
611.32	46.2
611.513	46.73
611.705	46.62
611.897	47.32
612.09	47.43
612.282	47.72
612.474	48.52
612.666	48.53
612.858	48.14
613.051	47.95
613.243	47.15
613.435	47.95
613.627	47.79
613.819	47.35
614.011	46.13
614.203	47.07
614.395	47
614.588	47
614.78	47.72
614.972	49.28
615.164	49.74
615.356	50.72
615.548	50.23
615.74	50.5
615.932	50.81
616.124	52.29
616.315	52.05
616.507	52.2
616.699	51.5
616.891	50.84
617.083	50.15
617.275	50.29
617.467	50.06
617.659	50.04
617.85	49.86
618.042	50.49
618.234	49.08
618.426	48.87
618.618	48.42
618.809	49.3
619.001	49.63
619.193	49.87
619.384	49.62
619.576	49.35
619.768	49.74
619.959	50.1
620.151	50.13
620.343	51.55
620.534	51.68
620.726	51.73
620.917	51.88
621.109	51.82
621.301	51.64
621.492	51.28
621.684	51.63
621.875	51.55
622.067	51.01
622.258	50.34
622.45	49.59
622.641	49.16
622.832	50.04
623.024	48.54
623.215	48.2
623.407	47.74
623.598	48.38
623.789	47.94
623.981	47.73
624.172	48.12
624.363	48.38
624.555	48.37
624.746	48.01
624.937	47.36
625.129	48.79
625.32	49.13
625.511	49.68
625.702	49.32
625.893	49.69
626.085	49.66
626.276	49.7
626.467	49.79
626.658	49.67
626.849	49.64
627.04	50.25
627.231	50.15
627.422	49.93
627.614	49.83
627.805	50.1
627.996	50.03
628.187	50.2
628.378	50.25
628.569	50.01
628.76	50.2
628.951	50.88
629.142	51.24
629.332	50.76
629.523	50.89
629.714	50.72
629.905	50.9
630.096	51.17
630.287	50.66
630.478	50.2
630.669	50.38
630.859	50.69
631.05	50.57
631.241	49.65
631.432	49.41
631.623	49.43
631.813	49.23
632.004	49.34
632.195	48.67
632.385	49.32
632.576	49.66
632.767	50.01
632.957	49.83
633.148	49.27
633.339	49.2
633.529	49.48
633.72	49.28
633.91	49.65
634.101	49.32
634.292	50.04
634.482	50.16
634.673	50.75
634.863	50.45
635.054	50.27
635.244	51.71
635.435	52.28
635.625	52.29
635.815	52.75
636.006	52.84
636.196	53.16
636.387	53.46
636.577	53.22
636.767	53.37
636.958	53.36
637.148	53.94
637.338	53.68
637.529	53.63
637.719	53.9
637.909	54.3
638.099	54.6
638.29	53.98
638.48	54.57
638.67	54.39
638.86	54.3
639.05	55.13
639.241	55.33
639.431	54.88
639.621	55.24
639.811	55.29
640.001	55.95
640.191	55.36
640.381	55.38
640.571	54.54
640.761	55.23
640.951	55.27
641.141	54.88
641.331	54.27
641.521	54.27
641.711	54.46
641.901	54.34
642.091	53.31
642.281	53.41
642.471	54.24
642.661	54.58
642.851	54.16
643.041	53.41
643.231	54.31
643.42	54.28
643.61	54.54
643.8	54.88
643.99	54.98
644.18	54.74
644.369	56.09
644.559	55.48
644.749	54.76
644.939	54.55
645.128	55.66
645.318	55.7
645.508	56.1
645.697	55.6
645.887	55.34
646.076	55.96
646.266	56.88
646.456	55.8
646.645	55.71
646.835	56.43
647.024	56.64
647.214	56.16
647.403	54.78
647.593	55.18
647.782	55.87
647.972	55.6
648.161	55.7
648.351	55.84
648.54	56.01
648.73	56.8
648.919	56.74
649.108	56.58
649.298	56.55
649.487	57.7
649.677	57.92
649.866	58.14
650.055	58.15
650.244	57.57
650.434	57.07
650.623	57.16
650.812	56.74
651.002	55.95
651.191	56.84
651.38	56.62
651.569	56.65
651.758	56.71
651.947	56.55
652.137	56.59
652.326	57
652.515	57.46
652.704	57.65
652.893	58.05
653.082	59.5
653.271	59.44
653.46	59.33
653.649	58.94
653.838	58.25
654.027	58.15
654.216	58.74
654.405	59.18
654.594	58.87
654.783	57.9
654.972	57.77
655.161	56.94
655.35	57.08
655.539	57.31
655.728	56.77
655.916	56.12
656.105	56.36
656.294	55.93
656.483	55.1
656.672	54.5
656.86	53.95
657.049	53.38
657.238	53.13
657.427	52.87
657.615	53.3
657.804	53.62
657.993	54.13
658.181	54.08
658.37	53.69
658.559	53.21
658.747	53.7
658.936	54.43
659.125	54.89
659.313	54.98
659.502	55.18
659.69	55
659.879	55.31
660.067	55.55
660.256	55.43
660.444	56.33
660.633	56.96
660.821	57.53
661.01	57.93
661.198	58.07
661.387	59.07
661.575	59.01
661.763	59.49
661.952	59.53
662.14	59.88
662.328	59.84
662.517	59.32
662.705	60.23
662.893	59.32
663.082	59.18
663.27	58.67
663.458	58.43
663.646	58.86
663.834	57.22
664.023	57.42
664.211	56.42
664.399	57.18
664.587	56.68
664.775	55.98
664.963	56.89
665.152	57.51
665.34	57.76
665.528	58.27
665.716	58.27
665.904	60.16
666.092	60.42
666.28	61.93
666.468	61.3
666.656	62.74
666.844	62.91
667.032	62.31
667.22	62.27
667.408	62.38
667.596	61.63
667.784	62.14
667.971	62.09
668.159	61.07
668.347	60.63
668.535	60.5
668.723	60.15
668.911	59.95
669.098	60.11
669.286	60.02
669.474	61
669.662	60.81
669.849	60.3
670.037	60.74
670.225	61.07
670.413	60.18
670.6	59.78
670.788	58.92
670.976	59.25
671.163	59.04
671.351	59.91
671.538	59.15
671.726	60.34
671.913	60.71
672.101	59.88
672.289	60.1
672.476	60.8
672.664	61.17
672.851	60.87
673.039	61.27
673.226	62.22
673.413	60.95
673.601	61.77
673.788	61.27
673.976	60.53
674.163	60.78
674.35	60.87
674.538	60.99
674.725	61.3
674.912	62.16
675.1	61.6
675.287	60.9
675.474	60.5
675.662	59.84
675.849	60.1
676.036	60.94
676.223	61.01
676.411	61
676.598	60.94
676.785	61.12
676.972	61.23
677.159	60.83
677.346	60.5
677.533	61.56
677.721	60.78
677.908	60.6
678.095	59.55
678.282	58.74
678.469	57
678.656	57.23
678.843	56.47
679.03	56.9
679.217	57.43
679.404	57.11
679.591	56.84
679.778	57.76
679.964	57.12
680.151	57.72
680.338	57.85
680.525	60.4
680.712	60.68
680.899	61.72
681.086	61.67
681.272	62.12
681.459	62.67
681.646	62
681.833	61.26
682.02	61.59
682.206	61.82
682.393	63.2
682.58	62
682.766	64.45
682.953	65
683.14	64.59
683.326	64.56
683.513	64.98
683.7	67.01
683.886	68.28
684.073	69.26
684.259	69.34
684.446	68.78
684.632	68.84
684.819	65.08
685.005	63.51
685.192	63.38
685.378	63.5
685.565	62.73
685.751	61.81
685.938	60.12
686.124	58.96
686.31	58.56
686.497	58.36
686.683	58.76
686.87	60.08
687.056	59.95
687.242	59.45
687.429	58.87
687.615	59.5
687.801	60.23
687.987	61.5
688.174	61.47
688.36	62.54
688.546	62.88
688.732	62.57
688.918	62.12
689.105	63.22
689.291	65.45
689.477	65.82
689.663	65.41
689.849	65.05
690.035	64.52
690.221	65.49
690.407	65.03
690.593	64.83
690.779	65.39
690.965	66.09
691.151	66.34
691.337	65.97
691.523	66.32
691.709	67.14
691.895	66.8
692.081	67.17
692.267	67.67
692.453	67.42
692.639	67.38
692.825	66.95
693.011	65.39
693.196	66.6
693.382	65.25
693.568	64.63
693.754	66.28
693.94	66
694.125	67.16
694.311	65.7
694.497	66.51
694.682	67.57
694.868	67.93
695.054	68.52
695.239	68.37
695.425	68
695.611	68.06
695.796	65.06
695.982	64.76
696.168	63.18
696.353	62.83
696.539	62.02
696.724	60.53
696.91	59.89
697.095	59.45
697.281	58
697.466	57.76
697.652	56.91
697.837	57.06
698.023	57.59
698.208	57.89
698.393	58.57
698.579	58.68
698.764	58.7
698.949	58.37
699.135	59.01
699.32	59.61
699.505	60.18
699.691	62.17
699.876	62.54
700.061	62.67
700.246	64.15
700.432	64.95
700.617	65.93
700.802	67.5
700.987	68.49
701.172	71.18
701.358	70.8
701.543	71.77
701.728	73.28
701.913	73.9
702.098	73.89
702.283	72.61
702.468	72.55
702.653	73.06
702.838	73.72
703.023	74.27
703.208	71.85
703.393	73.87
703.578	74.01
703.763	72.74
703.948	73.85
704.133	74.87
704.318	76.34
704.503	75.41
704.688	74.62
704.873	74.28
705.057	75.05
705.242	76.43
705.427	76.68
705.612	75.61
705.797	73.52
705.981	74.18
706.166	74.07
706.351	73.15
706.536	75
706.72	74.09
706.905	72.91
707.09	74.14
707.274	73.5
707.459	71.93
707.644	73.94
707.828	74.79
708.013	73.96
708.197	72.17
708.382	71.37
708.567	69.2
708.751	70.26
708.936	71
709.12	68.49
709.305	66.94
709.489	66.6
709.673	64.57
709.858	65.05
710.042	63.7
710.227	65.06
710.411	66.34
710.596	66.7
710.78	66.64
710.964	66.67
711.149	67.48
711.333	69.23
711.517	69.5
711.702	70.33
711.886	68.78
712.07	70.54
712.254	70.06
712.438	69.75
712.623	69.11
712.807	68.41
712.991	69.02
713.175	67.98
713.359	66.41
713.544	66.21
713.728	66.95
713.912	67.72
714.096	66.66
714.28	65.57
714.464	64.25
714.648	65.5
714.832	66.54
715.016	65.84
715.2	67.06
715.384	67.53
715.568	67.98
715.752	66.7
715.936	67.47
716.12	67.88
716.304	68.68
716.488	69.8
716.671	70.54
716.855	72.63
717.039	73.52
717.223	73.82
717.407	75.7
717.59	74.93
717.774	76.15
717.958	76.3
718.142	77.89
718.325	78.98
718.509	80.84
718.693	80.76
718.877	78.14
719.06	79.57
719.244	78.95
719.428	79.28
719.611	82
719.795	82.25
719.978	83.6
720.162	82.36
720.345	81.92
720.529	80.8
720.713	79.19
720.896	80.55
721.08	79.35
721.263	79.06
721.446	76.99
721.63	77.7
721.813	78.28
721.997	77.57
722.18	78.73
722.364	80.35
722.547	80.63
722.73	84.66
722.914	82.22
723.097	81.92
723.28	83.27
723.464	85.43
723.647	83.37
723.83	83.3
724.013	84.11
724.197	83.13
724.38	82.23
724.563	81.88
724.746	80.61
724.929	81.98
725.112	80.92
725.296	79.81
725.479	77.93
725.662	79.51
725.845	77.38
726.028	76.25
726.211	74.88
726.394	74.25
726.577	74.08
726.76	71.97
726.943	70.38
727.126	71.4
727.309	72.13
727.492	72.44
727.675	71.87
727.858	73.56
728.041	73.49
728.224	74.71
728.407	74.78
728.589	74.01
728.772	74.09
728.955	76.21
729.138	76.53
729.321	75.52
729.503	74.28
729.686	73.7
729.869	72.71
730.052	73.77
730.234	74.65
730.417	74.57
730.6	74.3
730.782	75.68
730.965	74.46
731.148	73.76
731.33	74.56
731.513	74.83
731.695	74.23
731.878	74.86
732.061	74.97
732.243	74.66
732.426	74.58
732.608	74.95
732.791	74.13
732.973	75
733.156	74.28
733.338	76.63
733.52	77.53
733.703	77.93
733.885	80.21
734.068	79.44
734.25	79.13
734.432	80.98
734.615	82.41
734.797	83.23
734.979	84.05
735.162	85.87
735.344	82.63
735.526	84.48
735.708	85.89
735.891	84.14
736.073	83.45
736.255	82.32
736.437	81.32
736.619	80.53
736.802	81.38
736.984	81.14
737.166	78.75
737.348	79.39
737.53	78.13
737.712	76.21
737.894	74.24
738.076	74.87
738.258	76.51
738.44	77.45
738.622	77.89
738.804	79.68
738.986	78.82
739.168	80.76
739.35	81.57
739.532	81.94
739.714	83.85
739.896	87.33
740.078	87.06
740.259	85.4
740.441	83.14
740.623	83.09
740.805	80.97
740.987	80.16
741.168	79.89
741.35	81.54
741.532	81.95
741.714	80.6
741.895	77.66
742.077	78.38
742.259	80.53
742.44	82.22
742.622	81.97
742.804	83
742.985	84.35
743.167	85.8
743.348	84.79
743.53	84.94
743.711	85.28
743.893	84.51
744.075	85.35
744.256	84.2
744.438	81.7
744.619	81.18
744.8	79.98
744.982	79.9
745.163	80.95
745.345	80.86
745.526	80.28
745.707	80.04
745.889	82.37
746.07	82.6
746.252	85.32
746.433	88.35
746.614	90.2
746.795	92.4
746.977	95.45
747.158	91.21
747.339	91.79
747.52	92.54
747.702	95.5
747.883	96.72
748.064	96.88
748.245	94.99
748.426	95.03
748.607	93.44
748.788	92.22
748.97	90.31
749.151	90.25
749.332	89.63
749.513	88.4
749.694	88.91
749.875	87.61
750.056	86.25
750.237	86.38
750.418	87.54
750.599	88.98
750.78	85.31
750.96	85.11
751.141	88.02
751.322	87.09
751.503	89.48
751.684	89.31
751.865	88.49
752.046	91.08
752.226	87.28
752.407	84.67
752.588	86.24
752.769	91.17
752.949	91.09
753.13	88.83
753.311	90.72
753.492	88.8
753.672	85.01
753.853	87.51
754.034	83.58
754.214	84.96
754.395	84.77
754.575	82.2
754.756	80.27
754.937	80.08
755.117	81.23
755.298	79.91
755.478	78.04
755.659	81.04
755.839	80.23
756.02	82.88
756.2	85.13
756.381	87.21
756.561	89.6
756.741	90.65
756.922	89.46
757.102	87.91
757.283	86.97
757.463	89.62
757.643	88.44
757.823	89.69
758.004	88.52
758.184	87.22
758.364	86.99
758.545	84.91
758.725	84.36
758.905	85.18
759.085	88.52
759.265	90.85
759.446	91.08
759.626	92.67
759.806	94
759.986	92.3
760.166	93.18
760.346	92.81
760.526	92.35
760.706	91.67
760.886	88.96
761.066	87.43
761.246	84.54
761.426	83.52
761.606	79.87
761.786	77.81
761.966	76.88
762.146	74.7
762.326	73.7
762.506	73.14
762.686	70.39
762.866	71.58
763.046	69.74
763.225	70.13
763.405	70
763.585	69.87
763.765	69.55
763.945	70.95
764.124	70.65
764.304	71.48
764.484	71.93
764.664	73.83
764.843	75.17
765.023	77.21
765.203	76.03
765.382	77.77
765.562	80.17
765.741	82.4
765.921	81.96
766.101	84.25
766.28	85.33
766.46	86.56
766.639	85.66
766.819	86.93
766.998	90.69
767.178	93.61
767.357	92.86
767.537	94.24
767.716	93.85
767.896	95.45
768.075	95.14
768.254	94.17
768.434	94.55
768.613	98.58
768.792	97.84
768.972	94.52
769.151	96.58
769.33	95.32
769.51	94.23
769.689	93.67
769.868	94.36
770.047	99.42
770.226	99.02
770.406	101.83
770.585	103.37
770.764	101.7
770.943	101.2
771.122	101.28
771.301	103.49
771.48	104.4
771.66	105.86
771.839	104.73
772.018	102.27
772.197	108.87
772.376	106.4
772.555	104.11
772.734	107.59
772.913	111.72
773.092	112.5
773.271	109.94
773.449	115.71
773.628	114.89
773.807	119.27
773.986	120.77
774.165	114.72
774.344	115.75
774.523	116.6
774.701	119.93
774.88	117.14
775.059	118
775.238	118.95
775.417	112.91
775.595	112.04
775.774	113.52
775.953	109.99
776.131	114.81
776.31	113.37
776.489	110.96
776.667	105.45
776.846	108.68
777.025	106.63
777.203	109.34
777.382	110.71
777.56	113.08
777.739	107
777.917	109.2
778.096	104.79
778.274	107.94
778.453	110.54
778.631	111.23
778.81	109.89
778.988	111.79
779.166	115.56
779.345	109.81
779.523	111.53
779.702	117.4
779.88	121.78
780.058	119.72
780.237	116.15
780.415	117.73
780.593	117.31
780.771	114.65
780.95	109.84
781.128	106.92
781.306	116.66
781.484	116.44
781.662	115.32
781.841	107.48
782.019	113.12
782.197	114.66
782.375	111.29
782.553	110.93
782.731	115.15
782.909	118.84
783.087	121.67
783.265	120.45
783.443	117.85
783.621	119.07
783.799	130.35
783.977	128.42
784.155	125.67
784.333	127.4
784.511	126.9
784.689	127.28
784.867	123.46
785.045	124.39
785.223	118.79
785.4	116.94
785.578	116.62
785.756	112.45
785.934	111.41
786.112	113.38
786.289	118.21
786.467	116.84
786.645	116.41
786.823	116.44
787	109.39
787.178	111.12
787.356	111.95
787.533	107.73
787.711	106.68
787.889	103.85
788.066	101.6
788.244	97.53
788.421	100.91
788.599	98.48
788.776	98.72
788.954	101.58
789.131	101.42
789.309	100.7
789.486	99.87
789.664	99.35
789.841	99.81
790.019	100.07
790.196	102.37
790.373	99.49
790.551	101.54
790.728	105.46
790.906	102.93
791.083	105.12
791.26	106.85
791.437	109.4
791.615	113.13
791.792	112.65
791.969	112.95
792.146	110.02
792.324	106.36
792.501	108.04
792.678	108.76
792.855	109.14
793.032	104.43
793.209	101.39
793.387	104.15
793.564	98.45
793.741	103.95
793.918	104.97
794.095	110.23
794.272	111.71
794.449	105.74
794.626	105.01
794.803	109.84
794.98	112.51
795.157	115.35
795.334	113.39
795.511	118.29
795.688	111.58
795.864	110.91
796.041	111.95
796.218	112.57
796.395	117.66
796.572	112.34
796.749	109.9
796.925	109.35
797.102	108.73
797.279	107.2
797.456	106.9
797.632	106.9
797.809	106.9
797.986	99.26
798.162	98.9
798.339	102.87
798.516	106.07
798.692	103.16
798.869	106.18
799.046	105.2
799.222	111.06
799.399	102.77
799.575	105.14
799.752	104.56
799.928	107.19
800.105	108.86
800.281	104.15
800.458	105.17
800.634	102.42
800.811	98.43
800.987	100.54
801.163	94.49
801.34	97.46
801.516	98.12
801.692	101.6
801.869	101.76
802.045	103.72
802.221	101.93
802.398	101.8
802.574	109.35
802.75	108.84
802.926	109.05
803.103	112.16
803.279	117.59
803.455	115.22
803.631	115.21
803.807	115.58
803.983	118.86
804.16	116.47
804.336	114.69
804.512	113.84
804.688	113.96
804.864	112.29
805.04	111.62
805.216	113.32
805.392	122.21
805.568	117.66
805.744	116.33
805.92	105.99
806.096	113.51
806.272	120.81
806.448	116.22
806.623	121.86
806.799	127
806.975	127.95
807.151	119.92
807.327	109.04
807.503	109.37
807.678	104.11
807.854	112.01
808.03	109.25
808.206	102.09
808.381	106.37
808.557	102.58
808.733	95.93
808.908	97.06
809.084	101.33
809.26	110.64
809.435	109.84
809.611	117.5
809.787	113.79
809.962	113.4
810.138	116.46
810.313	115.21
810.489	118.05
810.664	125.15
810.84	130.21
811.015	128.86
811.191	125.62
811.366	132.15
811.542	135.47
811.717	138.38
811.892	144.37
812.068	141.97
812.243	144.71
812.419	141.6
812.594	139.91
812.769	134.45
812.944	139.99
813.12	143.3
813.295	135.09
813.47	129.95
813.645	128.06
813.821	118.38
813.996	118.73
814.171	111.93
814.346	108.54
814.521	104.74
814.697	107.85
814.872	105.68
815.047	101.14
815.222	103.04
815.397	97.94
815.572	98
815.747	103.32
815.922	109.71
816.097	113.89
816.272	116.6
816.447	124.79
816.622	125.01
816.797	122.44
816.972	118.39
817.147	114.21
817.322	123.85
817.496	123.36
817.671	119.78
817.846	115.04
818.021	108.34
818.196	107.06
818.371	98.56
818.545	93.03
818.72	92.66
818.895	95.49
819.069	98.44
819.244	90.88
819.419	83.44
819.594	78.14
819.768	71.51
819.943	69.78
820.117	66.4
820.292	64.61
820.467	61.45
820.641	57.8
820.816	55.06
820.99	52.38
821.165	50.86
821.339	51.04
821.514	49.96
821.688	49.99
821.863	48.56
822.037	48.33
822.212	47.41
822.386	47.4
822.56	46.83
822.735	47.76
822.909	47.26
823.084	46.98
823.258	46.46
823.432	48.09
823.606	47.79
823.781	48.58
823.955	48.72
824.129	49.58
824.303	49.64
824.478	50.92
824.652	51.2
824.826	51.23
825	51.54
825.174	53.05
825.348	52.5
825.523	53.27
825.697	54.04
825.871	54.29
826.045	53.49
826.219	54.64
826.393	55.03
826.567	53.34
826.741	54.96
826.915	56.55
827.089	57.14
827.263	57.04
827.437	57.8
827.611	58.52
827.784	59.09
827.958	62.93
828.132	62.42
828.306	62.57
828.48	65.76
828.654	68.72
828.827	70.05
829.001	70.23
829.175	72.3
829.349	73.32
829.522	74.79
829.696	79.71
829.87	79.96
830.044	84.95
830.217	86.14
830.391	89.73
830.565	93.59
830.738	96.58
830.912	97.62
831.085	99.98
831.259	102.17
831.432	104.71
831.606	97.56
831.779	92.7
831.953	89.51
832.126	91.34
832.3	86.79
832.473	83.16
832.647	78.41
832.82	77.32
832.994	76.81
833.167	74.41
833.34	70.34
833.514	68.15
833.687	67.21
833.86	65.81
834.034	65.19
834.207	66.51
834.38	64.93
834.553	64.75
834.727	66.98
834.9	64.18
835.073	67.94
835.246	71.64
835.419	72.41
835.593	75.59
835.766	75.66
835.939	77.58
836.112	80.28
836.285	82.05
836.458	86.29
836.631	91.74
836.804	106.68
836.977	110.64
837.15	117.24
837.323	132.45
837.496	125.93
837.669	135.52
837.842	130.95
838.015	135.09
838.188	137.18
838.361	127.78
838.533	121.22
838.706	113.82
838.879	104.75
839.052	101.06
839.225	98.97
839.398	107.36
839.57	103.5
839.743	105.09
839.916	104.91
840.088	104.62
840.261	114.6
840.434	112.91
840.607	115.82
840.779	123.94
840.952	121.36
841.124	132.67
841.297	130.06
841.47	134.11
841.642	141.77
841.815	139.31
841.987	145.19
842.16	147.36
842.332	153.18
842.505	145.04
842.677	147.28
842.85	164.37
843.022	153.89
843.194	138.42
843.367	149.93
843.539	150.15
843.712	151.81
843.884	161.1
844.056	157.8
844.229	159.41
844.401	177.7
844.573	189.72
844.745	176.75
844.918	201.06
845.09	227.42
845.262	225.02
845.434	234.33
845.606	232.08
845.779	218.74
845.951	205.19
846.123	206.46
846.295	221.12
846.467	238.57
846.639	234.19
846.811	253.47
846.983	255.95
847.155	261.17
847.327	251.48
847.499	251.17
847.671	246.01
847.843	235.12
848.015	227.86
848.187	207.18
848.359	199.31
848.531	219.44
848.703	185.38
848.875	220.34
849.047	216.76
849.218	206.04
849.39	203.82
849.562	239.07
849.734	293.96
849.905	282.61
850.077	308.36
850.249	279.23
850.421	245.81
850.592	260.22
850.764	215.37
850.936	189.47
851.107	190.45
851.279	208.98
851.451	180.17
851.622	171.11
851.794	187.87
851.965	189.46
852.137	191.62
852.308	195.23
852.48	197.67
852.651	194.91
852.823	205.01
852.994	195.85
853.166	186.14
853.337	203.02
853.509	209.08
853.68	193.86
853.851	186.75
854.023	182.11
854.194	172.99
854.365	190.78
854.537	174.49
854.708	180.26
854.879	177.44
855.05	192.63
855.222	160.9
855.393	161.3
855.564	165.32
855.735	169.92
855.906	176.05
856.078	176.08
856.249	154.16
856.42	162.62
856.591	156.14
856.762	166.34
856.933	167.15
857.104	166.15
857.275	161.23
857.446	157.5
857.617	143.25
857.788	143.35
857.959	145.7
858.13	152.65
858.301	154.97
858.472	167.34
858.643	176.11
858.814	170.29
858.985	209.8
859.155	251.17
859.326	264.39
859.497	311.25
859.668	481.93
859.839	459.67
860.009	310.09
860.18	382.37
860.351	360.22
860.522	293.17
860.692	272.39
860.863	238.7
861.034	226.44
861.204	207.19
861.375	178.26
861.546	164.64
861.716	154.6
861.887	180.37
862.057	187.66
862.228	193.16
862.398	200.57
862.569	216.06
862.739	254.01
862.91	228.98
863.08	234.44
863.251	266.36
863.421	270.67
863.592	310.38
863.762	281.28
863.932	241.7
864.103	235.76
864.273	240.94
864.443	213.5
864.614	191.74
864.784	201.07
864.954	202.96
865.125	213.38
865.295	208.31
865.465	241.15
865.635	254.34
865.805	223.93
865.976	251.03
866.146	212.62
866.316	245.83
866.486	301.66
866.656	291.74
866.826	349.81
866.996	316.46
867.166	383.94
867.336	307.19
867.506	210.95
867.676	199.83
867.846	183.82
868.016	197.17
868.186	176.63
868.356	154.63
868.526	158.8
868.696	139.08
868.866	141.4
869.036	138.44
869.206	126.52
869.376	132.87
869.545	145.58
869.715	149.33
869.885	157.43
870.055	167.06
870.224	154.74
870.394	156.2
870.564	187.4
870.734	176.13
870.903	191.88
871.073	209.85
871.243	238.66
871.412	243.71
871.582	228.76
871.751	218.35
871.921	223.47
872.091	303.44
872.26	224.73
872.43	190.9
872.599	192.65
872.769	196.27
872.938	213.38
873.108	196.32
873.277	174.56
873.446	177.54
873.616	182.38
873.785	184.88
873.955	180.55
874.124	192.32
874.293	213.02
874.463	199.71
874.632	179.84
874.801	184.42
874.971	181.42
875.14	235.39
875.309	214.22
875.478	188.6
875.647	159.71
875.817	144.93
875.986	154.08
876.155	155.11
876.324	166.44
876.493	148.2
876.662	140
876.831	141.15
877	132.46
877.17	138.35
877.339	145.61
877.508	158.75
877.677	175.75
877.846	167.95
878.015	156.69
878.184	143.65
878.352	160.63
878.521	157.34
878.69	147.06
878.859	134.75
879.028	121.92
879.197	111.42
879.366	108.32
879.534	92.51
879.703	85.04
879.872	81.32
880.041	74.68
880.21	69.13
880.378	61.76
880.547	55.45
880.716	54.33
880.884	53.92
881.053	50.8
881.222	50.18
881.39	50.95
881.559	48.8
881.727	47.83
881.896	45.55
882.065	44.57
882.233	44.89
882.402	46.65
882.57	48.9
882.739	49.31
882.907	51
883.076	48.66
883.244	47.58
883.412	49.41
883.581	50.29
883.749	53.17
883.918	55.53
884.086	58.1
884.254	60.42
884.423	64.72
884.591	66.41
884.759	70
884.927	76.5
885.096	83.33
885.264	89.28
885.432	93.3
885.6	97.83
885.769	100.2
885.937	108.74
886.105	121.5
886.273	114.41
886.441	112.45
886.609	115.46
886.777	107.83
886.945	108.93
887.113	113.25
887.281	109.75
887.449	113.4
887.617	113.44
887.785	108.64
887.953	109.28
888.121	115.59
888.289	123.15
888.457	127.54
888.625	136.19
888.793	134.09
888.961	138.52
889.129	150.77
889.296	155.55
889.464	167.23
889.632	182.31
889.8	177.09
889.967	167.13
890.135	168.8
