Data from JASIL_3056_Reflection_02.txt Node
Date: Mon Nov 09 11:25:52 EST 2015
User: Geneva
Spectrometer: USB4E03002
Autoset integration time: false
Trigger mode: 4
Integration Time (sec): 1.000000E-1
Scans to average: 10
Electric dark correction enabled: false
Nonlinearity correction enabled: false
Boxcar width: 5
Stray light correction enabled: false
XAxis mode: Wavelengths
Stop averaging: false
Number of Pixels in Spectrum: 3648
>>>>>Begin Spectral Data<<<<<
177.575	-60.87
177.794	41.46
178.014	82.28
178.233	37.25
178.452	53.96
178.672	78.68
178.891	93.35
179.11	88.04
179.33	92.94
179.549	112.95
179.768	87.97
179.987	98.05
180.207	81.79
180.426	59.68
180.645	-155.41
180.864	-165.52
181.084	184.06
181.303	221.82
181.522	895.83
181.741	-225
181.96	279.73
182.179	-131.25
182.398	23.18
182.618	-12.61
182.837	-350
183.056	14.81
183.275	113.07
183.494	114.78
183.713	150
183.932	95.27
184.151	43.64
184.37	62.11
184.589	-461.29
184.808	188.49
185.027	-312.35
185.246	-355.88
185.465	412.38
185.684	610.23
185.903	275.71
186.122	241.51
186.341	185
186.56	135.59
186.779	89.58
186.998	202.78
187.216	181.71
187.435	64.46
187.654	165.61
187.873	337.84
188.092	133.33
188.311	212.9
188.53	278.45
188.748	354.4
188.967	257.32
189.186	747.25
189.405	-13525
189.623	2073.68
189.842	246.89
190.061	435.59
190.28	216.78
190.498	469.23
190.717	818.92
190.936	-101.94
191.154	38.87
191.373	54.29
191.592	70.7
191.81	-37.85
192.029	-14.05
192.248	-120.38
192.466	-308.74
192.685	-64.34
192.904	3.33
193.122	-76.34
193.341	-61.59
193.559	-615.56
193.778	1744.44
193.996	-209.49
194.215	-19.91
194.433	-18.35
194.652	136.14
194.87	161.9
195.089	301.6
195.307	-121.39
195.526	548.48
195.744	-1730.77
195.963	-414.74
196.181	-138.71
196.399	-78.09
196.618	-102.61
196.836	-116.67
197.055	56.48
197.273	-28.48
197.491	-194.81
197.71	-75.3
197.928	-122.29
198.146	-305.77
198.365	-171
198.583	-127.65
198.801	-51.76
199.019	-165.12
199.238	-138.29
199.456	-179.26
199.674	-54.04
199.892	-1.24
200.111	-17.49
200.329	37.6
200.547	62.09
200.765	69.91
200.983	87.3
201.202	74.44
201.42	75.81
201.638	21.71
201.856	152.86
202.074	340.54
202.292	361.16
202.51	-12750
202.728	-1213.64
202.946	522.73
203.165	5166.67
203.383	-1580
203.601	287.97
203.819	401.05
204.037	1205.88
204.255	-224.44
204.473	-406.35
204.691	-55.56
204.909	-11.88
205.127	-160.71
205.345	-34.39
205.562	177.33
205.78	1766.67
205.998	-71.43
206.216	-327.27
206.434	187.1
206.652	127.66
206.87	-2.3
207.088	103.08
207.306	91.01
207.523	360
207.741	192.5
207.959	2057.14
208.177	274.51
208.395	137.86
208.612	205.47
208.83	218.3
209.048	156.69
209.266	127.5
209.483	92.35
209.701	105.11
209.919	118.14
210.136	180.26
210.354	184.92
210.572	252.47
210.79	-830.36
211.007	10566.67
211.225	1248.28
211.442	-13950
211.66	-82.9
211.878	26.75
212.095	59.19
212.313	95.68
212.53	127.57
212.748	139
212.966	161.61
213.183	1113.64
213.401	-303.7
213.618	111.8
213.836	58.78
214.053	68.91
214.271	-2333.33
214.488	186.87
214.705	-224.32
214.923	-2.99
215.14	23.4
215.358	-8.01
215.575	35.33
215.793	38.9
216.01	58.58
216.227	47.88
216.445	28.02
216.662	21.27
216.879	4.87
217.097	79.01
217.314	77.27
217.531	76.47
217.749	71.77
217.966	79.76
218.183	73.96
218.4	104.06
218.618	138.98
218.835	86.52
219.052	61.93
219.269	54.43
219.487	512.5
219.704	474.07
219.921	107.08
220.138	50.84
220.355	68.88
220.572	106.87
220.79	79.61
221.007	78.8
221.224	-126.56
221.441	-2100
221.658	446.39
221.875	175.11
222.092	181.98
222.309	667.14
222.526	-7414.29
222.743	329.37
222.96	158.73
223.177	152.24
223.394	185.51
223.611	110.84
223.828	122.24
224.045	126.74
224.262	111.71
224.479	82.98
224.696	66.13
224.913	56.63
225.13	60.93
225.347	67.36
225.564	64.23
225.781	49.21
225.997	44.35
226.214	30.93
226.431	7.38
226.648	1.2
226.865	3.33
227.082	5.66
227.298	-1.5
227.515	-0.95
227.732	-1.9
227.949	4.2
228.165	2.82
228.382	4.05
228.599	9.09
228.816	18.2
229.032	22.37
229.249	29.26
229.466	33.81
229.682	34.46
229.899	36.69
230.116	36.74
230.332	49
230.549	53.98
230.765	55.28
230.982	56.1
231.199	53.4
231.415	52.27
231.632	56.3
231.848	57.47
232.065	53.97
232.281	55.93
232.498	67.59
232.714	49.77
232.931	53.52
233.147	46.54
233.364	29.77
233.58	39.03
233.797	40.36
234.013	26.99
234.23	28.13
234.446	29.33
234.662	1.53
234.879	13.65
235.095	15.61
235.312	15.16
235.528	17.34
235.744	26.15
235.961	21.71
236.177	29.72
236.393	22.22
236.61	23.12
236.826	17.7
237.042	31.1
237.258	28.41
237.475	35.53
237.691	36.46
237.907	38
238.123	46.41
238.339	39.11
238.556	27.66
238.772	39.95
238.988	15.89
239.204	22.07
239.42	15.85
239.636	15.59
239.853	11.9
240.069	6.46
240.285	11.54
240.501	5.03
240.717	6.15
240.933	10.74
241.149	3.41
241.365	13.67
241.581	17.33
241.797	15.77
242.013	11.23
242.229	9.46
242.445	9.3
242.661	5.34
242.877	9.88
243.093	5.7
243.309	7.07
243.525	12.37
243.741	8.54
243.957	14.19
244.173	19.86
244.388	18.87
244.604	20.26
244.82	21.31
245.036	20
245.252	19.98
245.468	20.39
245.683	17.01
245.899	14.91
246.115	13.25
246.331	7.58
246.547	7.57
246.762	8.65
246.978	8.9
247.194	3.15
247.409	0.34
247.625	-2.28
247.841	-2.56
248.057	-2.33
248.272	0.35
248.488	7.36
248.703	13.98
248.919	12.89
249.135	12.72
249.35	12.02
249.566	23.88
249.782	23.32
249.997	17.55
250.213	16.79
250.428	17.87
250.644	17.18
250.859	13.16
251.075	12.71
251.29	10.06
251.506	12.6
251.721	11.51
251.937	8.53
252.152	9.78
252.368	14.73
252.583	12.04
252.798	12.98
253.014	11.75
253.229	11.19
253.445	10.14
253.66	18.41
253.875	18.22
254.091	19.6
254.306	18.86
254.521	18.36
254.737	16.85
254.952	19.23
255.167	22.77
255.383	28.04
255.598	28.26
255.813	30.78
256.028	19.4
256.244	16.24
256.459	19.38
256.674	13.4
256.889	12.73
257.104	15.06
257.32	16.18
257.535	9.74
257.75	6.05
257.965	2.38
258.18	-1.62
258.395	-0.1
258.61	-0.52
258.826	-1.95
259.041	0.6
259.256	1.18
259.471	-3.08
259.686	-6.38
259.901	-6.86
260.116	-6.23
260.331	-4.02
260.546	-2.07
260.761	-1.36
260.976	-1.62
261.191	-0.19
261.406	1.48
261.621	2.28
261.836	8.29
262.05	11.95
262.265	17.14
262.48	21.93
262.695	17.99
262.91	20.76
263.125	15.42
263.34	17.06
263.555	11.33
263.769	3.16
263.984	0.66
264.199	0.18
264.414	3.01
264.629	-0.57
264.843	-1.05
265.058	2.87
265.273	0.88
265.488	5.29
265.702	7.68
265.917	11.54
266.132	14.1
266.346	14.71
266.561	12.43
266.776	11.42
266.99	14.37
267.205	10.18
267.42	7.24
267.634	8.09
267.849	9.06
268.063	5.66
268.278	0.66
268.492	0.93
268.707	3.98
268.922	3.57
269.136	1.31
269.351	0.89
269.565	-1.51
269.78	3.89
269.994	4.4
270.209	3.85
270.423	1.34
270.637	2.16
270.852	-1.02
271.066	1.74
271.281	2.91
271.495	5.6
271.709	3.38
271.924	4.37
272.138	1.2
272.353	1.93
272.567	0.02
272.781	6.93
272.996	7.24
273.21	11.39
273.424	8.05
273.638	9.26
273.853	4.81
274.067	4.16
274.281	9.66
274.495	10.27
274.71	12.38
274.924	12.41
275.138	9.67
275.352	11.56
275.566	11.38
275.781	11.84
275.995	11.94
276.209	13.25
276.423	16.62
276.637	12.49
276.851	10.62
277.065	9.41
277.279	12.92
277.493	11.31
277.707	9.82
277.921	5.09
278.135	5.88
278.349	6.97
278.563	6.36
278.777	4.39
278.991	6.11
279.205	9.67
279.419	7.44
279.633	5.05
279.847	7.71
280.061	6.03
280.275	10.8
280.489	8.96
280.703	6.8
280.917	6.42
281.131	7.57
281.344	9.06
281.558	8.05
281.772	6.83
281.986	8.95
282.2	6.17
282.414	6.63
282.627	6.54
282.841	9.02
283.055	9.29
283.269	11.72
283.482	9.4
283.696	6.34
283.91	5.93
284.123	6.58
284.337	4.85
284.551	5.74
284.764	5.58
284.978	3.69
285.192	0.52
285.405	-0.25
285.619	-0.23
285.833	0.67
286.046	2.43
286.26	1.17
286.473	3.9
286.687	3.97
286.9	6.46
287.114	4.47
287.327	2.33
287.541	3.29
287.754	6.85
287.968	7.3
288.181	10.07
288.395	6.74
288.608	8.53
288.822	6.62
289.035	8.05
289.248	4.35
289.462	6.9
289.675	11.28
289.889	11.2
290.102	7.65
290.315	2.83
290.529	0.96
290.742	1.77
290.955	-0.1
291.169	-0.02
291.382	-1.08
291.595	2.53
291.808	4
292.022	4.12
292.235	3.41
292.448	4.28
292.661	6.7
292.875	7.5
293.088	6.62
293.301	7.98
293.514	6.87
293.727	6.47
293.94	5.45
294.153	2
294.367	1.51
294.58	0.35
294.793	1.39
295.006	1.85
295.219	1.29
295.432	3.85
295.645	2.13
295.858	2.38
296.071	2.38
296.284	0.72
296.497	2.95
296.71	1.97
296.923	2.86
297.136	3.7
297.349	2.5
297.562	1.53
297.775	2.22
297.988	4.57
298.201	2.24
298.414	1.69
298.626	5.31
298.839	3.27
299.052	3.12
299.265	5.76
299.478	4.94
299.691	4.84
299.903	5.2
300.116	1.85
300.329	-1.96
300.542	1.39
300.755	-0.57
300.967	-1.04
301.18	1.52
301.393	2.84
301.605	0.68
301.818	-1.5
302.031	0.65
302.243	2.17
302.456	3.1
302.669	7.55
302.881	5.51
303.094	7.82
303.307	6.29
303.519	4.83
303.732	4.11
303.944	3.11
304.157	7.07
304.37	6.86
304.582	6.49
304.795	9.32
305.007	4.03
305.22	5.85
305.432	3.52
305.645	6.05
305.857	8.88
306.069	9.44
306.282	8.77
306.494	7.59
306.707	6.04
306.919	5.66
307.132	3.33
307.344	7.71
307.556	8.4
307.769	10.79
307.981	7.82
308.193	6.48
308.406	4.25
308.618	4.46
308.83	4.94
309.043	4.97
309.255	5.87
309.467	6.11
309.679	5.95
309.892	7.75
310.104	6.36
310.316	7.09
310.528	5.67
310.74	6.94
310.953	6.72
311.165	5.49
311.377	7.01
311.589	2.81
311.801	4.09
312.013	1.42
312.225	-0.16
312.437	4.21
312.649	5.37
312.862	7.6
313.074	8.9
313.286	8.87
313.498	10.37
313.71	10.85
313.922	13.14
314.134	12.38
314.346	12.73
314.558	14.58
314.77	9.74
314.982	9.51
315.193	7.91
315.405	6.9
315.617	9.11
315.829	7.46
316.041	5.6
316.253	8.32
316.465	8.35
316.677	12.87
316.888	8.17
317.1	9.66
317.312	10.09
317.524	9.78
317.736	8.23
317.947	6.26
318.159	8.71
318.371	5.29
318.583	4.75
318.794	5.47
319.006	0.74
319.218	-2.06
319.43	0.37
319.641	-0.24
319.853	1.32
320.064	1.71
320.276	2.33
320.488	4.02
320.699	8.01
320.911	6.85
321.123	7.71
321.334	9.99
321.546	13.31
321.757	10.97
321.969	9.84
322.18	10.83
322.392	9.76
322.603	6.76
322.815	3.9
323.026	2.31
323.238	4.98
323.449	3.44
323.661	4.35
323.872	6.66
324.083	4.9
324.295	5.52
324.506	6.2
324.718	9.88
324.929	12.06
325.14	10.93
325.352	13.68
325.563	8.47
325.774	9.89
325.986	8.84
326.197	8.26
326.408	7.66
326.62	7.17
326.831	5.85
327.042	2.36
327.253	3.41
327.464	6.67
327.676	6.26
327.887	10.54
328.098	9.03
328.309	7.52
328.52	8.15
328.732	9.41
328.943	10.9
329.154	14.71
329.365	15.68
329.576	14.72
329.787	10.69
329.998	12.27
330.209	8.21
330.42	9.42
330.631	11.47
330.842	12
331.053	15.1
331.264	13.09
331.475	8.95
331.686	10.39
331.897	12.89
332.108	15.88
332.319	14.59
332.53	14.3
332.741	15.3
332.952	14.44
333.163	10.85
333.374	8.16
333.585	8.92
333.795	8.59
334.006	5.17
334.217	3.07
334.428	3.72
334.639	5.47
334.849	6.37
335.06	3.55
335.271	3.68
335.482	7.34
335.692	7.44
335.903	8.41
336.114	6.42
336.325	8.91
336.535	10.26
336.746	6.99
336.957	6.14
337.167	11.06
337.378	15.29
337.589	15.12
337.799	14.16
338.01	13.01
338.22	12.97
338.431	16.31
338.642	15.19
338.852	14.4
339.063	16.13
339.273	16.19
339.484	13.84
339.694	11.89
339.905	10.05
340.115	6.95
340.326	7.89
340.536	6.57
340.746	6.5
340.957	6.6
341.167	7.23
341.378	8.03
341.588	8.36
341.799	6.3
342.009	5.38
342.219	7.98
342.43	10.43
342.64	10.97
342.85	12.05
343.061	14.41
343.271	15.1
343.481	13.95
343.691	13.39
343.902	12.57
344.112	14.51
344.322	15.24
344.532	14.47
344.743	14.03
344.953	14.17
345.163	13.51
345.373	9.15
345.583	9.29
345.793	10.5
346.004	8.21
346.214	6.7
346.424	5.69
346.634	4.16
346.844	3.2
347.054	6.18
347.264	5.1
347.474	4.46
347.684	4.49
347.894	2.76
348.104	1
348.314	2.83
348.524	3.95
348.734	3.66
348.944	4.07
349.154	3.49
349.364	2.18
349.574	1.95
349.784	3.74
349.994	4.4
350.204	5.04
350.413	6
350.623	6.1
350.833	5.3
351.043	4.51
351.253	2.82
351.463	4.83
351.672	3.4
351.882	5.09
352.092	4.22
352.302	4.52
352.511	5.56
352.721	4.32
352.931	3.6
353.141	3.61
353.35	4.14
353.56	5.93
353.77	4.87
353.979	5.09
354.189	4.61
354.399	4.36
354.608	6.56
354.818	6.05
355.027	8.6
355.237	10.02
355.447	12.79
355.656	12.19
355.866	13.38
356.075	13.39
356.285	13.27
356.494	13.42
356.704	13.64
356.913	13.54
357.123	14.25
357.332	12.43
357.542	10.97
357.751	8.96
357.96	9.74
358.17	8.62
358.379	8.35
358.589	9.4
358.798	10.88
359.007	10.84
359.217	10.26
359.426	9.41
359.635	10.34
359.845	11.19
360.054	11.63
360.263	10.57
360.472	9.05
360.682	9.06
360.891	7.09
361.1	7.19
361.309	6.89
361.519	6.44
361.728	3.93
361.937	4.07
362.146	3.78
362.355	3.23
362.564	4.23
362.774	6.25
362.983	5.42
363.192	8.66
363.401	7.77
363.61	7.59
363.819	6.66
364.028	10.01
364.237	9.57
364.446	9.75
364.655	9.39
364.864	9.49
365.073	7.91
365.282	8.29
365.491	5.69
365.7	5.51
365.909	4.36
366.118	6.52
366.327	6.18
366.536	5.77
366.745	5.19
366.954	5.9
367.162	5.64
367.371	8.16
367.58	8.33
367.789	8.83
367.998	8.1
368.207	8.46
368.415	7.91
368.624	8.4
368.833	8.46
369.042	8.34
369.25	7.7
369.459	6.84
369.668	5.77
369.877	4.64
370.085	5.11
370.294	4.73
370.503	6.28
370.711	5.05
370.92	4.65
371.129	6.57
371.337	7.34
371.546	8.51
371.754	9.16
371.963	8.79
372.171	10.25
372.38	10.06
372.589	11.37
372.797	10.03
373.006	10.51
373.214	10.17
373.423	7.48
373.631	8.16
373.84	7.53
374.048	7.58
374.256	8.61
374.465	9.95
374.673	8.61
374.882	7.85
375.09	8.33
375.298	8.77
375.507	10.6
375.715	11.89
375.923	9.92
376.132	10.73
376.34	10.05
376.548	7.76
376.757	6.48
376.965	8.45
377.173	10.01
377.381	11.72
377.59	12.81
377.798	10.65
378.006	9.13
378.214	9.75
378.423	9.47
378.631	10.7
378.839	12.58
379.047	12.52
379.255	11.56
379.463	9.65
379.671	7.18
379.879	5.58
380.088	7.73
380.296	7.8
380.504	8.11
380.712	5.09
380.92	3.67
381.128	4.67
381.336	4.87
381.544	5.44
381.752	7.01
381.96	8.33
382.168	7.65
382.376	5.5
382.584	5.18
382.791	4.77
382.999	6.25
383.207	7.14
383.415	4.34
383.623	3.42
383.831	1.82
384.039	-2.25
384.247	-1.99
384.454	-2.79
384.662	-2.56
384.87	-0.55
385.078	-0.33
385.285	0.76
385.493	0.38
385.701	2.06
385.909	2.66
386.116	3.5
386.324	6.05
386.532	5.54
386.739	6.73
386.947	7.29
387.155	5.99
387.362	5.18
387.57	4.28
387.778	4.41
387.985	4.18
388.193	4.21
388.4	3.99
388.608	4.29
388.816	4.92
389.023	5.25
389.231	4.77
389.438	5.3
389.646	5.7
389.853	6.96
390.061	6.16
390.268	5.21
390.475	5.94
390.683	6.56
390.89	6.87
391.098	5.94
391.305	4.32
391.512	4.61
391.72	2.9
391.927	2.72
392.135	1.27
392.342	3.19
392.549	4.83
392.756	4.7
392.964	4.46
393.171	4.14
393.378	4.53
393.586	4.73
393.793	3.79
394	4.74
394.207	4.85
394.414	5.38
394.622	3.49
394.829	1.64
395.036	0.5
395.243	-0.93
395.45	-1.64
395.657	-1.38
395.864	-0.18
396.072	1.34
396.279	2.6
396.486	3.06
396.693	3.71
396.9	2.98
397.107	3.74
397.314	5.3
397.521	6.14
397.728	7.01
397.935	5.34
398.142	5.37
398.349	4.05
398.556	3.78
398.763	4.47
398.97	3.63
399.177	5.1
399.383	4.79
399.59	3.31
399.797	3.36
400.004	3.17
400.211	3.94
400.418	4.42
400.625	3.5
400.831	3
401.038	1.97
401.245	1.6
401.452	1.36
401.658	1.99
401.865	3.26
402.072	3.01
402.279	2.43
402.485	2.6
402.692	1.75
402.899	3.9
403.105	3.73
403.312	4.09
403.519	4.51
403.725	4.49
403.932	5.77
404.138	4.69
404.345	5.1
404.552	6.14
404.758	6.03
404.965	6.4
405.171	5.85
405.378	6.75
405.584	6.21
405.791	5.68
405.997	5.36
406.204	4.63
406.41	4.83
406.617	4.84
406.823	4.38
407.029	5.28
407.236	5.62
407.442	5.42
407.649	4.64
407.855	4.45
408.061	5.44
408.268	5.56
408.474	4.55
408.68	4.88
408.887	5.1
409.093	5.51
409.299	4.47
409.505	3.89
409.712	3.58
409.918	3.15
410.124	3.93
410.33	3.24
410.537	3.62
410.743	4.53
410.949	4.27
411.155	3.76
411.361	3.67
411.567	4.15
411.773	4.52
411.98	4.7
412.186	6.12
412.392	6.29
412.598	6.94
412.804	7.47
413.01	5.98
413.216	6.8
413.422	6.08
413.628	6.73
413.834	7.35
414.04	7.75
414.246	7.15
414.452	6.58
414.658	6.14
414.864	6.05
415.07	4.98
415.275	5.53
415.481	4.65
415.687	5.04
415.893	3.32
416.099	2.15
416.305	2.13
416.511	2.68
416.716	2.79
416.922	2.78
417.128	3.03
417.334	3.36
417.539	4.08
417.745	4.09
417.951	4.05
418.157	4.95
418.362	4.98
418.568	5.25
418.774	4.8
418.979	4.9
419.185	5.07
419.391	5.08
419.596	4.96
419.802	4.3
420.008	4.35
420.213	0.74
420.419	-0.08
420.624	0.63
420.83	-0.09
421.035	0.27
421.241	0.2
421.446	-0.2
421.652	-0.5
421.857	-0.71
422.063	-0.98
422.268	-1.22
422.474	2.64
422.679	3.22
422.885	2.59
423.09	2.46
423.295	2.49
423.501	2.16
423.706	2.1
423.911	1.85
424.117	1.83
424.322	1.82
424.527	1.99
424.733	2.03
424.938	1.92
425.143	2.37
425.349	2.52
425.554	2.67
425.759	2.33
425.964	2.65
426.169	2.61
426.375	3.08
426.58	2.89
426.785	2.76
426.99	2.78
427.195	2.26
427.4	2.73
427.605	2.68
427.811	2.53
428.016	3.68
428.221	3.68
428.426	3.98
428.631	3.96
428.836	5.32
429.041	5.6
429.246	5.49
429.451	6.15
429.656	5.37
429.861	5.8
430.066	5.65
430.271	5.02
430.476	4.94
430.681	4.54
430.886	4.08
431.09	4.25
431.295	4.03
431.5	4.71
431.705	4.7
431.91	3.97
432.115	3.98
432.32	4.43
432.524	4.73
432.729	5.05
432.934	4.82
433.139	5.15
433.343	4.55
433.548	5.29
433.753	4.81
433.958	4.11
434.162	4.55
434.367	4.76
434.572	4.85
434.776	4.6
434.981	4.3
435.186	4.89
435.39	4.95
435.595	4.35
435.799	3.5
436.004	3.88
436.209	4.45
436.413	4.87
436.618	4.89
436.822	4.78
437.027	4.31
437.231	4.14
437.436	4.03
437.64	3.51
437.845	3.91
438.049	4.18
438.253	3.41
438.458	3.24
438.662	2.69
438.867	2.6
439.071	2.08
439.275	2.44
439.48	2.8
439.684	2.62
439.888	3.11
440.093	3.72
440.297	3.64
440.501	3.58
440.706	3.74
440.91	4.27
441.114	3.81
441.318	3.94
441.523	3.98
441.727	4.07
441.931	4.67
442.135	4.03
442.339	3.53
442.543	3.45
442.748	3.7
442.952	3.24
443.156	2.98
443.36	3.79
443.564	4.64
443.768	4.37
443.972	3.63
444.176	3.33
444.38	3.98
444.584	3.87
444.788	3.67
444.992	4.03
445.196	4.23
445.4	4.74
445.604	4.01
445.808	3.63
446.012	3.79
446.216	4.18
446.42	4.36
446.624	3.79
446.828	3.83
447.032	4.37
447.235	4.17
447.439	3.65
447.643	3.29
447.847	3.64
448.051	3.29
448.254	3.09
448.458	3.7
448.662	3.38
448.866	4.68
449.069	4.42
449.273	4.54
449.477	5.11
449.681	5.85
449.884	6.07
450.088	6.26
450.292	5.74
450.495	6.03
450.699	5.59
450.902	5.74
451.106	5.03
451.31	4.47
451.513	4.19
451.717	3.55
451.92	3.95
452.124	3.21
452.327	2.97
452.531	3.58
452.734	3.66
452.938	3.23
453.141	2.35
453.345	2.31
453.548	2.03
453.752	2.21
453.955	2.08
454.158	1.32
454.362	1.68
454.565	1.1
454.769	0.86
454.972	0.54
455.175	0.43
455.379	1.29
455.582	0.67
455.785	2.16
455.988	1.48
456.192	1.6
456.395	2.16
456.598	2.04
456.801	2.02
457.005	2.49
457.208	2.87
457.411	2.57
457.614	2.64
457.817	2.86
458.021	2.95
458.224	2.87
458.427	3.34
458.63	2.76
458.833	2.48
459.036	2.8
459.239	2.52
459.442	2.21
459.645	1.89
459.848	1.99
460.051	2.04
460.254	1.47
460.457	1.64
460.66	1.06
460.863	1.05
461.066	1.33
461.269	1.48
461.472	1.5
461.675	1.5
461.878	2.22
462.081	1.87
462.284	2.2
462.486	1.78
462.689	2.16
462.892	2.15
463.095	2.8
463.298	3.08
463.5	3.45
463.703	3.81
463.906	4.2
464.109	5.03
464.311	4.75
464.514	4.46
464.717	5.51
464.92	4.84
465.122	4.69
465.325	4.76
465.528	5.53
465.73	5.1
465.933	5.19
466.135	4.74
466.338	3.82
466.541	4.31
466.743	4.17
466.946	3.67
467.148	3.98
467.351	3.9
467.553	3.98
467.756	3.43
467.958	3.52
468.161	3.4
468.363	3.63
468.566	4.38
468.768	3.76
468.971	4.53
469.173	5.11
469.375	5.08
469.578	5.44
469.78	5.4
469.983	5.15
470.185	5.19
470.387	4.69
470.59	4.85
470.792	4.51
470.994	5.26
471.196	4.77
471.399	3.78
471.601	4.04
471.803	3.95
472.005	3.84
472.208	4.65
472.41	4.63
472.612	4.83
472.814	4.59
473.016	4.84
473.218	4.69
473.421	4.63
473.623	5.6
473.825	5.2
474.027	5.33
474.229	5.12
474.431	4.49
474.633	4.36
474.835	4.71
475.037	4.43
475.239	4.27
475.441	3.76
475.643	3.43
475.845	2.92
476.047	3.11
476.249	2.67
476.451	2.42
476.653	1.96
476.855	1.8
477.057	1.92
477.258	2.15
477.46	2.29
477.662	2.52
477.864	3.03
478.066	3.11
478.268	3.44
478.469	4.14
478.671	3.93
478.873	4.06
479.075	3.65
479.276	3.3
479.478	3.01
479.68	3.18
479.882	3.38
480.083	3.11
480.285	3.13
480.487	3.07
480.688	2.19
480.89	2.7
481.091	3.05
481.293	3.33
481.495	3.22
481.696	3.29
481.898	2.9
482.099	2.88
482.301	2.93
482.502	2.86
482.704	2.78
482.905	2.91
483.107	2.92
483.308	2.59
483.51	2.57
483.711	2.52
483.913	2.45
484.114	2.78
484.315	2.65
484.517	2.68
484.718	2.62
484.92	2.64
485.121	2.81
485.322	2.62
485.524	2.76
485.725	2.97
485.926	2.97
486.127	3
486.329	2.59
486.53	2.85
486.731	2.74
486.932	2.81
487.134	2.68
487.335	2.6
487.536	2.86
487.737	3.15
487.938	3.01
488.139	3.12
488.341	3.29
488.542	3.28
488.743	2.87
488.944	2.87
489.145	3.03
489.346	3.06
489.547	3.05
489.748	2.64
489.949	2.36
490.15	2.23
490.351	2.13
490.552	1.77
490.753	1.9
490.954	1.97
491.155	1.97
491.356	2.18
491.557	2.24
491.758	2.29
491.959	2.41
492.159	2.31
492.36	2.69
492.561	2.6
492.762	2.99
492.963	3.05
493.164	3.37
493.364	3.11
493.565	2.64
493.766	2.6
493.967	2.39
494.167	2.5
494.368	2.47
494.569	2
494.769	2.33
494.97	2.39
495.171	2.59
495.371	2.25
495.572	2.6
495.773	2.52
495.973	2.61
496.174	3.1
496.375	3.14
496.575	3.54
496.776	3.89
496.976	3.75
497.177	3.67
497.377	3.52
497.578	3.37
497.778	3.43
497.979	3.49
498.179	3.33
498.38	2.66
498.58	2.73
498.78	2.65
498.981	2.29
499.181	2.31
499.382	2.69
499.582	2.74
499.782	3.28
499.983	2.99
500.183	3.19
500.383	3.33
500.584	3.8
500.784	3.93
500.984	3.68
501.184	4.14
501.385	4.32
501.585	4.36
501.785	4.57
501.985	4.14
502.185	4.45
502.386	4.07
502.586	3.98
502.786	3.49
502.986	2.95
503.186	3.07
503.386	2.87
503.586	2.87
503.786	2.45
503.987	2.39
504.187	2.5
504.387	2.19
504.587	2.85
504.787	2.94
504.987	3.57
505.187	3.78
505.387	4.06
505.587	4.22
505.786	3.62
505.986	3.78
506.186	3.59
506.386	3.63
506.586	4.19
506.786	4.15
506.986	4.26
507.186	3.88
507.386	3.65
507.585	3.51
507.785	3.13
507.985	3.84
508.185	4
508.384	3.9
508.584	3.87
508.784	4.29
508.984	3.89
509.183	3.86
509.383	4.03
509.583	4.15
509.782	4.34
509.982	4.45
510.182	4.21
510.381	4.01
510.581	3.93
510.781	3.91
510.98	2.98
511.18	2.92
511.379	2.77
511.579	2.53
511.778	2.48
511.978	2.32
512.177	2.65
512.377	3.08
512.576	2.99
512.776	3.23
512.975	3.27
513.175	3.88
513.374	3.96
513.573	4.5
513.773	5.06
513.972	5.84
514.172	5.7
514.371	5.6
514.57	5.58
514.77	5.83
514.969	5.76
515.168	5.87
515.367	5.34
515.567	5.32
515.766	4.95
515.965	4.8
516.164	4.36
516.364	4.49
516.563	3.82
516.762	3.68
516.961	3.98
517.16	3.97
517.359	3.96
517.559	4.03
517.758	4.21
517.957	4.2
518.156	4.09
518.355	4.02
518.554	4.16
518.753	4.55
518.952	4.11
519.151	4.01
519.35	3.99
519.549	4.39
519.748	4.29
519.947	4.33
520.146	4.48
520.345	4.46
520.544	4.46
520.743	3.94
520.942	4.18
521.141	5.05
521.339	4.98
521.538	5.27
521.737	5.18
521.936	5.08
522.135	5.44
522.333	5.14
522.532	5.67
522.731	6.25
522.93	6.69
523.129	6.74
523.327	6.42
523.526	6.5
523.725	6.03
523.923	5.78
524.122	6.31
524.321	6.04
524.519	6.22
524.718	5.68
524.917	5.14
525.115	5.26
525.314	4.84
525.512	4.72
525.711	4.66
525.909	4.39
526.108	4.39
526.306	4.38
526.505	4.11
526.703	4.25
526.902	4.42
527.1	4.42
527.299	4.37
527.497	4.59
527.696	4.61
527.894	4.51
528.092	4.88
528.291	4.9
528.489	4.79
528.688	4.99
528.886	4.74
529.084	4.67
529.283	4.86
529.481	4.84
529.679	5.02
529.877	4.91
530.076	4.94
530.274	5.01
530.472	4.85
530.67	5.01
530.869	4.86
531.067	5.1
531.265	5.28
531.463	5.31
531.661	5.55
531.859	5.45
532.057	5.82
532.255	5.92
532.454	5.77
532.652	5.97
532.85	5.8
533.048	6.19
533.246	6.17
533.444	6.24
533.642	6.07
533.84	5.75
534.038	5.43
534.236	5.29
534.434	5.27
534.632	5.47
534.83	5.45
535.027	5.37
535.225	4.87
535.423	4.97
535.621	4.84
535.819	4.97
536.017	5.22
536.215	5.72
536.412	5.5
536.61	5.29
536.808	5.41
537.006	5.44
537.203	5.49
537.401	5.76
537.599	5.8
537.797	5.82
537.994	5.76
538.192	5.77
538.39	5.53
538.587	6.06
538.785	6.29
538.983	6.28
539.18	5.81
539.378	6.06
539.575	6.35
539.773	6.13
539.97	6.33
540.168	6.28
540.366	6.08
540.563	6.09
540.761	5.66
540.958	5.7
541.155	5.78
541.353	5.99
541.55	6.09
541.748	5.8
541.945	5.92
542.143	5.89
542.34	6.11
542.537	6.38
542.735	6.22
542.932	6.54
543.129	6.48
543.327	6.17
543.524	6.67
543.721	6.46
543.919	6.89
544.116	7.22
544.313	7.26
544.51	7.51
544.708	7.47
544.905	7.94
545.102	7.74
545.299	7.66
545.496	7.68
545.693	7.54
545.891	7.88
546.088	7.71
546.285	7.5
546.482	7.1
546.679	6.36
546.876	6.43
547.073	6.6
547.27	6.4
547.467	6.49
547.664	6.66
547.861	6.61
548.058	6.27
548.255	6.63
548.452	6.56
548.649	7.32
548.846	8.22
549.043	8.56
549.24	8.38
549.437	8.51
549.633	8.15
549.83	8.22
550.027	8.29
550.224	7.87
550.421	7.23
550.618	7.65
550.814	7.42
551.011	7.27
551.208	7.13
551.405	7.2
551.601	8.02
551.798	8.11
551.995	8.49
552.191	8.49
552.388	8.97
552.585	9.25
552.781	9.35
552.978	9.5
553.175	9.47
553.371	9.61
553.568	9.35
553.764	9.23
553.961	10.4
554.157	9.98
554.354	10.35
554.55	9.99
554.747	10.12
554.943	9.7
555.14	10.11
555.336	10.36
555.533	10.23
555.729	11.39
555.926	11.64
556.122	11.06
556.318	10.97
556.515	11.24
556.711	12.41
556.907	12.2
557.104	12.02
557.3	11.72
557.496	11.98
557.693	11.82
557.889	11.01
558.085	11.26
558.281	11.38
558.478	11.58
558.674	10.73
558.87	10.47
559.066	10.78
559.262	11.57
559.459	11.34
559.655	11.96
559.851	11.96
560.047	12.07
560.243	12.09
560.439	12.04
560.635	12.69
560.831	13.57
561.027	13.53
561.223	14.18
561.419	13.97
561.615	14.54
561.811	13.81
562.007	14.32
562.203	14.62
562.399	14.23
562.595	14.93
562.791	14.79
562.987	14.51
563.183	14.23
563.379	13.41
563.575	13.94
563.771	14.02
563.966	13.18
564.162	12.77
564.358	12.35
564.554	12.66
564.75	12.21
564.945	12.03
565.141	11.96
565.337	12.3
565.533	12.87
565.728	12.57
565.924	11.86
566.12	12.89
566.315	13
566.511	13.73
566.707	13.42
566.902	13.66
567.098	13.76
567.293	13.66
567.489	13.44
567.684	13.38
567.88	13.51
568.076	13.6
568.271	13.69
568.467	14.07
568.662	13.62
568.858	13.75
569.053	13.46
569.248	13.4
569.444	13.19
569.639	13.38
569.835	13.15
570.03	13.88
570.225	14.16
570.421	13.84
570.616	13.36
570.812	13.14
571.007	13.01
571.202	13.47
571.397	13.47
571.593	14.59
571.788	14.13
571.983	14.05
572.178	12.95
572.374	12.8
572.569	12.79
572.764	12.75
572.959	12.75
573.154	13.25
573.35	12.9
573.545	12.27
573.74	12.15
573.935	13.2
574.13	13.44
574.325	13.46
574.52	13.82
574.715	13.97
574.91	14.41
575.105	14.73
575.3	14.73
575.495	14.89
575.69	15.55
575.885	14.43
576.08	13.84
576.275	14.1
576.47	14.61
576.665	14.86
576.86	14.09
577.055	13.73
577.25	14.05
577.444	13.28
577.639	13.2
577.834	13.32
578.029	14.52
578.224	14.44
578.418	14.16
578.613	14.2
578.808	14.07
579.003	15.32
579.197	15.43
579.392	14.7
579.587	15.4
579.781	15.42
579.976	15.34
580.171	14.73
580.365	15.3
580.56	15.83
580.755	15.38
580.949	15.01
581.144	14.12
581.338	13.93
581.533	13.56
581.727	13.81
581.922	13.77
582.116	13.39
582.311	13.56
582.505	12.45
582.7	12.18
582.894	12.62
583.089	13.65
583.283	14.44
583.478	14.67
583.672	15.25
583.866	15.19
584.061	15.01
584.255	15.35
584.449	15.42
584.644	16.51
584.838	15.46
585.032	15.02
585.226	13.99
585.421	13.69
585.615	14.35
585.809	14.39
586.003	13.82
586.198	13.7
586.392	13.66
586.586	13.92
586.78	12.64
586.974	14.68
587.168	15.4
587.363	15.59
587.557	15.32
587.751	15.23
587.945	16.5
588.139	17.3
588.333	17.29
588.527	17.37
588.721	16.7
588.915	17.05
589.109	16.38
589.303	16.26
589.497	16.51
589.691	17.13
589.885	16.49
590.079	15.29
590.273	15.43
590.466	16.32
590.66	16.49
590.854	17.13
591.048	17.56
591.242	17.15
591.436	17.22
591.629	17.05
591.823	16.32
592.017	16.72
592.211	17.2
592.404	16.89
592.598	16.62
592.792	16.59
592.986	16.32
593.179	16.61
593.373	16.83
593.567	16.78
593.76	16.98
593.954	16.63
594.147	16.61
594.341	16.19
594.535	15.36
594.728	15.24
594.922	15.43
595.115	15.97
595.309	15.54
595.502	15.4
595.696	15.23
595.889	15.11
596.083	16.03
596.276	16.53
596.47	16.24
596.663	17.04
596.856	16.85
597.05	16.41
597.243	15.75
597.437	15.93
597.63	16.05
597.823	16.19
598.017	16.41
598.21	16.99
598.403	16.26
598.596	17.53
598.79	17.37
598.983	18.1
599.176	18.98
599.369	19.05
599.563	19.11
599.756	19.24
599.949	19.46
600.142	18.93
600.335	18.25
600.528	18.6
600.722	18.5
600.915	18.33
601.108	17.58
601.301	17.08
601.494	17.11
601.687	17.72
601.88	17.45
602.073	16.87
602.266	16.97
602.459	16.74
602.652	16.65
602.845	16.14
603.038	16.84
603.231	17.25
603.424	17.59
603.617	17.75
603.809	17.6
604.002	17.75
604.195	18.03
604.388	18.23
604.581	18.43
604.774	18.23
604.966	17.66
605.159	17.52
605.352	17.46
605.545	17.46
605.737	17.92
605.93	17.85
606.123	17.71
606.316	18.2
606.508	18.04
606.701	18.45
606.894	18.77
607.086	19.19
607.279	19
607.471	18.97
607.664	19.38
607.857	18.85
608.049	18.36
608.242	18.58
608.434	17.85
608.627	18.55
608.819	17.63
609.012	18.24
609.204	18.18
609.397	17.97
609.589	18.56
609.782	17.73
609.974	17.32
610.166	17.66
610.359	17.94
610.551	18.59
610.743	17.2
610.936	17.98
611.128	17.84
611.32	19.13
611.513	19.43
611.705	18.3
611.897	18.36
612.09	18.7
612.282	18.87
612.474	19.18
612.666	18.68
612.858	19.65
613.051	19.79
613.243	19.21
613.435	17.73
613.627	16.82
613.819	17.96
614.011	17.77
614.203	18.03
614.395	17.76
614.588	17.04
614.78	17.63
614.972	18.53
615.164	18.99
615.356	19.09
615.548	20.06
615.74	20.51
615.932	20.39
616.124	21.36
616.315	22.09
616.507	23.32
616.699	22.96
616.891	22.84
617.083	22.29
617.275	21.51
617.467	22.02
617.659	22.6
617.85	23.23
618.042	22.93
618.234	23.08
618.426	23.84
618.618	22
618.809	22.35
619.001	22.73
619.193	21.57
619.384	22.4
619.576	21.18
619.768	21.04
619.959	20.31
620.151	19.76
620.343	19.35
620.534	18.66
620.726	19.94
620.917	19.52
621.109	18.33
621.301	19.2
621.492	18.52
621.684	18.84
621.875	18.23
622.067	18.7
622.258	18.74
622.45	17.72
622.641	17.84
622.832	17.7
623.024	18
623.215	18.64
623.407	18.81
623.598	18.28
623.789	19.53
623.981	18.94
624.172	17.87
624.363	17.77
624.555	19.08
624.746	18.66
624.937	18.68
625.129	18.1
625.32	17.93
625.511	17.27
625.702	18.28
625.893	18.1
626.085	17.65
626.276	18.84
626.467	19.18
626.658	19.18
626.849	18.74
627.04	17.96
627.231	18.71
627.422	19.29
627.614	19.93
627.805	19.32
627.996	19.02
628.187	20.07
628.378	18.82
628.569	18.98
628.76	18.22
628.951	17.54
629.142	17.6
629.332	16.96
629.523	17.29
629.714	16.88
629.905	17
630.096	17.34
630.287	16.51
630.478	17.31
630.669	18.01
630.859	18.4
631.05	20.01
631.241	20.45
631.432	21.06
631.623	20.42
631.813	20.98
632.004	21.34
632.195	20.52
632.385	20.15
632.576	19.72
632.767	19
632.957	18.32
633.148	17.73
633.339	17.98
633.529	18.29
633.72	18.94
633.91	18.11
634.101	16.96
634.292	16.87
634.482	18.23
634.673	17.78
634.863	16.9
635.054	17.63
635.244	16.84
635.435	17.12
635.625	16.19
635.815	15.18
636.006	16.51
636.196	17.09
636.387	17.5
636.577	16.41
636.767	16.65
636.958	18.3
637.148	18.72
637.338	18.92
637.529	19.33
637.719	20.42
637.909	20.82
638.099	20.1
638.29	19.25
638.48	18.91
638.67	18.99
638.86	19.15
639.05	19.04
639.241	19.05
639.431	20.7
639.621	20.3
639.811	20.28
640.001	21.17
640.191	21.78
640.381	22.27
640.571	22.39
640.761	23.34
640.951	24.7
641.141	24.22
641.331	24.04
641.521	23.48
641.711	22.89
641.901	21.89
642.091	20.37
642.281	19.86
642.471	20.8
642.661	21.37
642.851	22.09
643.041	21.93
643.231	21.83
643.42	21.59
643.61	20.63
643.8	21.62
643.99	22.53
644.18	23.4
644.369	24.09
644.559	23.48
644.749	22.3
644.939	20.97
645.128	21.25
645.318	20.27
645.508	20.76
645.697	21.87
645.887	21.17
646.076	21.77
646.266	21.19
646.456	20.46
646.645	21.65
646.835	22.64
647.024	24.04
647.214	25
647.403	26.1
647.593	25.73
647.782	25.99
647.972	26.29
648.161	24.41
648.351	24.61
648.54	24.41
648.73	24.58
648.919	24.67
649.108	23.63
649.298	21.71
649.487	21.46
649.677	21.97
649.866	21.71
650.055	21
650.244	22.13
650.434	22.55
650.623	23.26
650.812	23.78
651.002	24.27
651.191	24.64
651.38	24.74
651.569	24.26
651.758	23.45
651.947	23.8
652.137	24.26
652.326	22.87
652.515	22.48
652.704	21.76
652.893	20.62
653.082	19.69
653.271	19.58
653.46	19.42
653.649	20.35
653.838	20.87
654.027	19.54
654.216	19.43
654.405	20.03
654.594	19.96
654.783	20.03
654.972	19.38
655.161	19.68
655.35	19.5
655.539	20.47
655.728	19.16
655.916	19.04
656.105	19
656.294	19.34
656.483	19.8
656.672	20.3
656.86	19.38
657.049	20.55
657.238	21.19
657.427	21.91
657.615	21.44
657.804	22.21
657.993	22.21
658.181	22.42
658.37	22.29
658.559	22.5
658.747	22.14
658.936	22.65
659.125	22.99
659.313	22.55
659.502	21.16
659.69	20.72
659.879	20.44
660.067	20.62
660.256	20.49
660.444	21.2
660.633	21.48
660.821	21.66
661.01	22.01
661.198	21.35
661.387	21.74
661.575	23.1
661.763	23.25
661.952	24.03
662.14	24.77
662.328	25.55
662.517	26.3
662.705	25.7
662.893	26.52
663.082	27.47
663.27	27.2
663.458	27.04
663.646	26.91
663.834	28.38
664.023	28.05
664.211	28.08
664.399	27.86
664.587	27.55
664.775	27.18
664.963	26.8
665.152	25.88
665.34	25.59
665.528	24.66
665.716	25.65
665.904	24.26
666.092	24.6
666.28	24.23
666.468	23.4
666.656	23.16
666.844	22.96
667.032	21.3
667.22	20.81
667.408	21.04
667.596	22.58
667.784	22.72
667.971	22.73
668.159	23.07
668.347	22.32
668.535	22.86
668.723	21.23
668.911	22.29
669.098	24.5
669.286	25.18
669.474	25.33
669.662	24.08
669.849	23.18
670.037	24.81
670.225	24.18
670.413	24.32
670.6	23.1
670.788	22.86
670.976	22.27
671.163	21.09
671.351	22.24
671.538	21.32
671.726	21.53
671.913	19.96
672.101	18.27
672.289	18.77
672.476	20.19
672.664	22.89
672.851	23.72
673.039	23.12
673.226	23.33
673.413	22.9
673.601	23.31
673.788	23.78
673.976	25.44
674.163	26.24
674.35	25.6
674.538	23.31
674.725	22.16
674.912	21.51
675.1	22.92
675.287	23.86
675.474	23.71
675.662	24.18
675.849	23.85
676.036	22.47
676.223	22.66
676.411	22.79
676.598	22.62
676.785	22.26
676.972	23.45
677.159	23.15
677.346	23.29
677.533	23.7
677.721	23.14
677.908	24.16
678.095	25.98
678.282	26.48
678.469	25.29
678.656	26.86
678.843	27.64
679.03	28.25
679.217	28.02
679.404	25.92
679.591	26.1
679.778	27.02
679.964	26.46
680.151	25.86
680.338	25.77
680.525	26.54
680.712	26.1
680.899	25.68
681.086	25.29
681.272	25.91
681.459	27.77
681.646	27.62
681.833	27.31
682.02	26.62
682.206	25.84
682.393	24.4
682.58	25.07
682.766	25.15
682.953	25.81
683.14	25.23
683.326	23.88
683.513	23.58
683.7	23.35
683.886	23.6
684.073	24.29
684.259	23.37
684.446	22.25
684.632	21.4
684.819	21.27
685.005	20.56
685.192	20.36
685.378	21.4
685.565	20.59
685.751	20.22
685.938	20.53
686.124	21.54
686.31	23.47
686.497	25.11
686.683	25.12
686.87	24.95
687.056	25.53
687.242	25.31
687.429	25.31
687.615	26.5
687.801	26.37
687.987	24.9
688.174	23.95
688.36	23.68
688.546	22.99
688.732	24.42
688.918	24.61
689.105	24.37
689.291	25.48
689.477	24.46
689.663	24.95
689.849	26.11
690.035	29.01
690.221	28.51
690.407	29.01
690.593	31.05
690.779	30.44
690.965	30.05
691.151	29.85
691.337	29.04
691.523	29.09
691.709	27.03
691.895	25.23
692.081	22.51
692.267	23.17
692.453	23.56
692.639	21.62
692.825	19.84
693.011	20.94
693.196	21.68
693.382	22.38
693.568	23.43
693.754	24.64
693.94	25.58
694.125	26.05
694.311	27.21
694.497	26.72
694.682	26.41
694.868	26.24
695.054	26.53
695.239	25.85
695.425	24.3
695.611	23.57
695.796	23.17
695.982	23.85
696.168	23.84
696.353	21.4
696.539	20.46
696.724	20.06
696.91	20.04
697.095	20.85
697.281	21.17
697.466	22.01
697.652	22.51
697.837	23.16
698.023	22.81
698.208	23.37
698.393	24.36
698.579	24.05
698.764	25.35
698.949	27.26
699.135	24.52
699.32	23.97
699.505	23.22
699.691	23.11
699.876	23.32
700.061	22.9
700.246	22.03
700.432	23.2
700.617	22.67
700.802	24.26
700.987	23.04
701.172	26.37
701.358	26.97
701.543	28.6
701.728	28.55
701.913	27.47
702.098	28.15
702.283	28.06
702.468	26.57
702.653	27.07
702.838	25.44
703.023	26.24
703.208	24.06
703.393	23.3
703.578	21.28
703.763	22.15
703.948	23.43
704.133	23.85
704.318	23.37
704.503	25.17
704.688	29.24
704.873	30.72
705.057	30.36
705.242	31.04
705.427	31.09
705.612	32.89
705.797	33.32
705.981	31.17
706.166	31.47
706.351	33.62
706.536	33.74
706.72	30.34
706.905	29.47
707.09	31.51
707.274	32.11
707.459	32.28
707.644	33.71
707.828	32.96
708.013	34.19
708.197	33.87
708.382	32.6
708.567	30.18
708.751	29.6
708.936	27.47
709.12	25.69
709.305	26.37
709.489	27.19
709.673	22.93
709.858	23.23
710.042	22.84
710.227	22.96
710.411	20.55
710.596	21.7
710.78	22.96
710.964	24.47
711.149	23.83
711.333	23.43
711.517	21.44
711.702	23.68
711.886	24.1
712.07	25.21
712.254	23.61
712.438	25.69
712.623	24.34
712.807	24.14
712.991	25.05
713.175	26.32
713.359	25.47
713.544	26.77
713.728	26.41
713.912	25.78
714.096	24.48
714.28	23.46
714.464	22.23
714.648	21.93
714.832	22.86
715.016	21.72
715.2	21.33
715.384	20.62
715.568	19.14
715.752	21.16
715.936	20.67
716.12	22.99
716.304	24.94
716.488	25.32
716.671	27.33
716.855	27.57
717.039	27.41
717.223	26.46
717.407	25.57
717.59	26.36
717.774	23.95
717.958	23.04
718.142	20.35
718.325	20.75
718.509	23.35
718.693	23.8
718.877	23.26
719.06	21.75
719.244	22.38
719.428	25.59
719.611	25.54
719.795	27.28
719.978	30.29
720.162	33.96
720.345	33.31
720.529	32.88
720.713	33.89
720.896	34.02
721.08	37.81
721.263	37.6
721.446	38.04
721.63	38.5
721.813	35.7
721.997	33.6
722.18	32.91
722.364	30.86
722.547	27.6
722.73	24.68
722.914	25.54
723.097	21.45
723.28	21.45
723.464	17.26
723.647	16.85
723.83	19.15
724.013	19.37
724.197	16.8
724.38	20.25
724.563	22.76
724.746	23.97
724.929	23.08
725.112	23.23
725.296	21.38
725.479	22.51
725.662	22.69
725.845	23.91
726.028	25.37
726.211	22.86
726.394	25.27
726.577	23.71
726.76	26.43
726.943	25.75
727.126	27.18
727.309	29.29
727.492	28.79
727.675	30.83
727.858	29.71
728.041	28.12
728.224	31.58
728.407	29.22
728.589	27.29
728.772	24.45
728.955	26.6
729.138	26.74
729.321	25.15
729.503	25.8
729.686	22.04
729.869	22.13
730.052	22.21
730.234	22.04
730.417	21.56
730.6	23.04
730.782	25.6
730.965	22
731.148	22.62
731.33	26.8
731.513	27.31
731.695	29.1
731.878	28.68
732.061	28.19
732.243	29.59
732.426	30.23
732.608	31.48
732.791	29.34
732.973	30.09
733.156	29.26
733.338	26.05
733.52	25.58
733.703	26.19
733.885	25.74
734.068	29.54
734.25	30.64
734.432	32.42
734.615	33.02
734.797	34.7
734.979	34.93
735.162	35.28
735.344	35.73
735.526	36.45
735.708	35.09
735.891	35.14
736.073	32.84
736.255	30.3
736.437	28.76
736.619	30.64
736.802	28.29
736.984	30.13
737.166	29.48
737.348	26.96
737.53	28.7
737.712	30.51
737.894	32.8
738.076	32.69
738.258	32.98
738.44	32.8
738.622	32.64
738.804	33
738.986	30
739.168	32.18
739.35	37.89
739.532	40.5
739.714	37.79
739.896	38.95
740.078	38.57
740.259	35.57
740.441	35.97
740.623	33.13
740.805	35.91
740.987	38.59
741.168	38.38
741.35	37.44
741.532	33.43
741.714	33.99
741.895	29.69
742.077	29.56
742.259	32.43
742.44	29.99
742.622	32.43
742.804	32.68
742.985	33.63
743.167	35.61
743.348	36.14
743.53	34.92
743.711	38.21
743.893	42.75
744.075	47.47
744.256	46.43
744.438	46.46
744.619	47.16
744.8	48.85
744.982	51.48
745.163	51.05
745.345	50.05
745.526	48.2
745.707	44.99
745.889	41.29
746.07	40.17
746.252	40.83
746.433	44.87
746.614	45.63
746.795	44.71
746.977	46.92
747.158	47.92
747.339	48.11
747.52	48.59
747.702	52.14
747.883	52.27
748.064	49.57
748.245	52.41
748.426	50.63
748.607	49.55
748.788	49.46
748.97	43.9
749.151	38.11
749.332	36.92
749.513	40.83
749.694	36.87
749.875	37.92
750.056	37.79
750.237	40.15
750.418	41.05
750.599	40.39
750.78	42.89
750.96	42.68
751.141	46.01
751.322	48.35
751.503	46.23
751.684	50.29
751.865	48.1
752.046	48.85
752.226	48
752.407	48.71
752.588	52.22
752.769	51.28
752.949	53.76
753.13	50.93
753.311	54.02
753.492	55.34
753.672	52.83
753.853	53.52
754.034	55.85
754.214	52.39
754.395	51.78
754.575	47.64
754.756	46.83
754.937	44.53
755.117	48.33
755.298	42.8
755.478	39.85
755.659	40.84
755.839	39.33
756.02	35.82
756.2	34.31
756.381	29.68
756.561	28.74
756.741	24.7
756.922	25.63
757.102	22.8
757.283	25.4
757.463	23.48
757.643	18.13
757.823	17.28
758.004	19.31
758.184	19.89
758.364	21.73
758.545	23.4
758.725	24.49
758.905	22.98
759.085	22.03
759.265	16.95
759.446	17.79
759.626	20.76
759.806	24.2
759.986	21.48
760.166	20.9
760.346	23.74
760.526	24.37
760.706	19.19
760.886	18.94
761.066	19.57
761.246	20.53
761.426	22.13
761.606	22.48
761.786	20.04
761.966	21.35
762.146	22.78
762.326	19.5
762.506	18.68
762.686	21.76
762.866	22.66
763.046	23.44
763.225	25.17
763.405	20.83
763.585	22.77
763.765	22.72
763.945	22.35
764.124	20.89
764.304	25.63
764.484	27.23
764.664	30.3
764.843	33.19
765.023	36.15
765.203	36.77
765.382	42.39
765.562	41.85
765.741	45.61
765.921	46.22
766.101	50.17
766.28	51.26
766.46	50.58
766.639	51.67
766.819	54.91
766.998	56.87
767.178	61.15
767.357	67.3
767.537	68.79
767.716	70.89
767.896	71.33
768.075	69.81
768.254	71.48
768.434	74.86
768.613	74.99
768.792	70.52
768.972	65.57
769.151	62.66
769.33	58.18
769.51	58.77
769.689	56.45
769.868	55.02
770.047	57.76
770.226	57.53
770.406	54.95
770.585	55.48
770.764	54.73
770.943	56.27
771.122	55.59
771.301	54.73
771.48	57.77
771.66	60.99
771.839	66.43
772.018	66.95
772.197	70.99
772.376	67.53
772.555	67.59
772.734	73.53
772.913	76.43
773.092	83.17
773.271	90.44
773.449	92.11
773.628	84.27
773.807	83.39
773.986	82.13
774.165	77.69
774.344	85.27
774.523	82.31
774.701	75.25
774.88	74.8
775.059	71.81
775.238	61.86
775.417	64.04
775.595	63
775.774	66.59
775.953	67.41
776.131	67.51
776.31	61.85
776.489	58.75
776.667	64.79
776.846	63.63
777.025	56.96
777.203	61.01
777.382	58.98
777.56	58.59
777.739	54.13
777.917	48.87
778.096	51.8
778.274	55.93
778.453	57.36
778.631	54.19
778.81	49.19
778.988	57.18
779.166	55.43
779.345	54.98
779.523	55.23
779.702	47.02
779.88	52.93
780.058	48.59
780.237	42.04
780.415	42.5
780.593	39.86
780.771	47.94
780.95	42.22
781.128	50.46
781.306	48.76
781.484	50.8
781.662	65.42
781.841	59.16
782.019	56.87
782.197	62.07
782.375	61.92
782.553	67.47
782.731	67.52
782.909	64.28
783.087	60.59
783.265	62.99
783.443	59.24
783.621	56.18
783.799	64.78
783.977	67.33
784.155	69.44
784.333	70.4
784.511	64.48
784.689	56.81
784.867	60.63
785.045	54.04
785.223	50.3
785.4	48.62
785.578	51.46
785.756	52.7
785.934	47.88
786.112	46.46
786.289	41.32
786.467	45.69
786.645	52.39
786.823	52.4
787	53.19
787.178	52.64
787.356	56.45
787.533	51.35
787.711	46.49
787.889	46.66
788.066	47.51
788.244	47.46
788.421	48.98
788.599	46.57
788.776	51.99
788.954	49.26
789.131	50.55
789.309	53.78
789.486	55.09
789.664	58.18
789.841	57.33
790.019	57.5
790.196	54.29
790.373	45.93
790.551	39.59
790.728	36.49
790.906	39.25
791.083	45.61
791.26	40.73
791.437	40.94
791.615	39.58
791.792	39.15
791.969	41.46
792.146	45.35
792.324	52.2
792.501	62.1
792.678	66.67
792.855	61.63
793.032	53.11
793.209	50
793.387	46.22
793.564	43.47
793.741	44.54
793.918	40.06
794.095	42.77
794.272	33.9
794.449	35.44
794.626	28.95
794.803	33.49
794.98	35.76
795.157	45.62
795.334	39.68
795.511	43.96
795.688	45.51
795.864	51.16
796.041	47.91
796.218	60.79
796.395	64.56
796.572	61.76
796.749	60.84
796.925	64.21
797.102	60.65
797.279	68.48
797.456	63.85
797.632	61.67
797.809	61.15
797.986	64.52
798.162	52.79
798.339	45.98
798.516	58.02
798.692	60.09
798.869	49.29
799.046	59.38
799.222	59.13
799.399	60.59
799.575	60.71
799.752	55.69
799.928	58.05
800.105	58.21
800.281	56.82
800.458	56.9
800.634	56.71
800.811	55.43
800.987	47.48
801.163	46.64
801.34	40.51
801.516	46.97
801.692	46.09
801.869	46.8
802.045	53.82
802.221	50.84
802.398	49.29
802.574	42.87
802.75	48.65
802.926	46.55
803.103	48.96
803.279	59.4
803.455	56.32
803.631	52.72
803.807	53.77
803.983	54.89
804.16	55.61
804.336	56.08
804.512	59.5
804.688	55.51
804.864	56.55
805.04	46.98
805.216	47.2
805.392	52.52
805.568	50.42
805.744	35.58
805.92	34.1
806.096	42.01
806.272	40.25
806.448	36.25
806.623	46.67
806.799	41.93
806.975	48.51
807.151	43.85
807.327	38.74
807.503	36.69
807.678	60.96
807.854	74.22
808.03	79.07
808.206	74.98
808.381	94.81
808.557	79.73
808.733	83.91
808.908	86.73
809.084	90.05
809.26	92.82
809.435	99.67
809.611	84.21
809.787	61.04
809.962	62.06
810.138	65.92
810.313	64.58
810.489	68.46
810.664	61.3
810.84	50.95
811.015	42.77
811.191	21.81
811.366	19.32
811.542	15.84
811.717	19.64
811.892	7.16
812.068	5.57
812.243	-17.99
812.419	-17.88
812.594	9.79
812.769	30.56
812.944	52.74
813.12	49.66
813.295	38.25
813.47	49.79
813.645	59.24
813.821	53.05
813.996	50.59
814.171	57.18
814.346	54.1
814.521	66.28
814.697	65.97
814.872	57.81
815.047	65.71
815.222	74.04
815.397	70.08
815.572	69.77
815.747	71.74
815.922	73.11
816.097	70.37
816.272	72.5
816.447	66.51
816.622	64.53
816.797	63.6
816.972	72.86
817.147	69.56
817.322	77.01
817.496	78.1
817.671	75.26
817.846	70.07
818.021	70.15
818.196	70.07
818.371	62.72
818.545	61.12
818.72	62.6
818.895	57.19
819.069	58.85
819.244	51.64
819.419	46.75
819.594	44.39
819.768	41.96
819.943	33.74
820.117	28.38
820.292	26.82
820.467	24.66
820.641	22.12
820.816	20.04
820.99	18.86
821.165	18.6
821.339	16.59
821.514	16.23
821.688	14.61
821.863	18.18
822.037	18.9
822.212	17.79
822.386	18.87
822.56	20.29
822.735	21.5
822.909	21.95
823.084	21.73
823.258	24.33
823.432	22.77
823.606	22.95
823.781	18.84
823.955	23.09
824.129	23.25
824.303	19.95
824.478	21.59
824.652	19.78
824.826	18.48
825	17.82
825.174	18.25
825.348	19.85
825.523	15.66
825.697	14.29
825.871	11.25
826.045	15.74
826.219	18.22
826.393	16.12
826.567	15.97
826.741	16.04
826.915	19.89
827.089	21.02
827.263	23.7
827.437	31.4
827.611	36.68
827.784	31.99
827.958	29.52
828.132	28.06
828.306	28.43
828.48	33.36
828.654	39.78
828.827	40.46
829.001	37.84
829.175	34.8
829.349	36.34
829.522	26.93
829.696	48.97
829.87	45.72
830.044	43.97
830.217	36.94
830.391	49.16
830.565	34.31
830.738	22.54
830.912	37.96
831.085	40.38
831.259	37.93
831.432	35.66
831.606	27.58
831.779	32.01
831.953	35.24
832.126	40.49
832.3	40.74
832.473	47.8
832.647	45.6
832.82	41.22
832.994	39
833.167	37.37
833.34	39.92
833.514	48.19
833.687	40.39
833.86	35.74
834.034	33.38
834.207	25.56
834.38	21.13
834.553	19.07
834.727	14.39
834.9	6.74
835.073	9.86
835.246	2.8
835.419	-22
835.593	-17.45
835.766	1.43
835.939	10.37
836.112	28.7
836.285	40.31
836.458	82.41
836.631	78.73
836.804	112.02
836.977	107.35
837.15	118.91
837.323	101.09
837.496	79.85
837.669	76.43
837.842	106.65
838.015	82.8
838.188	58.77
838.361	45.58
838.533	51.4
838.706	43.52
838.879	32.05
839.052	22.64
839.225	24.3
839.398	42.72
839.57	42.74
839.743	46.64
839.916	37.43
840.088	36.52
840.261	41.83
840.434	37.14
840.607	47.57
840.779	52.61
840.952	53.25
841.124	52.86
841.297	16.53
841.47	33.77
841.642	-1.09
841.815	15.07
841.987	38.97
842.16	-125.49
842.332	-144.12
842.505	203.85
842.677	175
842.85	50
843.022	3780
843.194	896.77
843.367	17.38
843.539	-19.62
843.712	-99.58
843.884	-162.25
844.056	-182.72
844.229	-186
844.401	-682.3
844.573	-937.35
844.745	948.28
844.918	348.1
845.09	226.52
845.262	159.78
845.434	179.97
845.606	137.65
845.779	123.71
845.951	103.1
846.123	94.61
846.295	91.89
846.467	105.08
846.639	99.88
846.811	114.31
846.983	118.57
847.155	153.65
847.327	173.86
847.499	176.19
847.671	205.59
847.843	-2005.26
848.015	-1225.81
848.187	1022.41
848.359	4566.67
848.531	572.48
848.703	423.44
848.875	350.28
849.047	292.52
849.218	313.91
849.39	542.31
849.562	-9340
849.734	420.9
849.905	1846.67
850.077	177.08
850.249	85.88
850.421	179.19
850.592	185.66
850.764	175.29
850.936	170.59
851.107	172.61
851.279	219.79
851.451	121.72
851.622	134.48
851.794	117.68
851.965	105.81
852.137	168.36
852.308	198.02
852.48	227.05
852.651	211
852.823	252.44
852.994	167.14
853.166	185.3
853.337	203.1
853.509	285.66
853.68	540.97
853.851	-2835.71
854.023	714.05
854.194	734.51
854.365	-33300
854.537	-6181.82
854.708	2452.38
854.879	1055.32
855.05	209.41
855.222	176.44
855.393	206.19
855.564	62.54
855.735	53.83
855.906	43.17
856.078	31.71
856.249	44.82
856.42	41.47
856.591	63.69
856.762	73.03
856.933	106.49
857.104	119.69
857.275	108.81
857.446	155.31
857.617	197.49
857.788	230.54
857.959	184.65
858.13	388.39
858.301	257.23
858.472	136.03
858.643	74.83
858.814	92.57
858.985	88.95
859.155	119.07
859.326	83.05
859.497	75.18
859.668	91.86
859.839	100.44
860.009	77.81
860.18	94.44
860.351	106.57
860.522	92.85
860.692	72.12
860.863	59.31
861.034	58.63
861.204	74.7
861.375	73.7
861.546	58.99
861.716	72.12
861.887	64.44
862.057	88.97
862.228	74.3
862.398	109.42
862.569	112.23
862.739	180.6
862.91	185.4
863.08	534.62
863.251	476.7
863.421	500
863.592	228.9
863.762	-366.25
863.932	-441.94
864.103	-1429.17
864.273	-91.43
864.443	645.45
864.614	153.16
864.784	220.51
864.954	363.64
865.125	-566.67
865.295	-1422.22
865.465	792.59
865.635	196.94
865.805	199.57
865.976	220.96
866.146	148.29
866.316	142.05
866.486	132.68
866.656	101.56
866.826	93.97
866.996	89.35
867.166	102.02
867.336	68.98
867.506	104.68
867.676	85.13
867.846	78.09
868.016	60.13
868.186	78.59
868.356	110.44
868.526	377
868.696	518.99
868.866	182.07
869.036	121.56
869.206	-2429.41
869.376	-3040
869.545	3550
869.715	626.56
869.885	-539.44
870.055	-605.48
870.224	507.09
870.394	919.61
870.564	-491.55
870.734	373.04
870.903	339.82
871.073	118.92
871.243	172.79
871.412	152.69
871.582	127.22
871.751	114.64
871.921	130.16
872.091	60.41
872.26	65.8
872.43	52.76
872.599	54.39
872.769	55.86
872.938	66.19
873.108	69.54
873.277	62.48
873.446	51.46
873.616	29.49
873.785	31.98
873.955	69.22
874.124	92.15
874.293	131.59
874.463	92.51
874.632	73.44
874.801	64.01
874.971	12.05
875.14	47.77
875.309	77.3
875.478	136.4
875.647	60.39
875.817	87.66
875.986	62.62
876.155	49.79
876.324	79.7
876.493	124.37
876.662	123.54
876.831	134.31
877	118.2
877.17	97.89
877.339	84.97
877.508	127.44
877.677	84.53
877.846	114.6
878.015	127.86
878.184	101.46
878.352	72.45
878.521	67.28
878.69	102.39
878.859	101.68
879.028	83.97
879.197	75.19
879.366	58.8
879.534	73.1
879.703	60
879.872	59.62
880.041	53.22
880.21	43.48
880.378	35.12
880.547	31.76
880.716	29.81
880.884	33.42
881.053	36.51
881.222	34.29
881.39	36.16
881.559	36.42
881.727	36.71
881.896	40.28
882.065	43.47
882.233	45.35
882.402	45.67
882.57	49.77
882.739	61.8
882.907	63.27
883.076	58.75
883.244	51.49
883.412	61.01
883.581	69.38
883.749	68.34
883.918	70.94
884.086	68.96
884.254	56.99
884.423	60.84
884.591	45.89
884.759	40.71
884.927	41.19
885.096	48.86
885.264	57.93
885.432	47.72
885.6	48.4
885.769	47.82
885.937	76.75
886.105	107.47
886.273	96.92
886.441	102.07
886.609	111.27
886.777	86.67
886.945	88.55
887.113	74.48
887.281	72.9
887.449	71.68
887.617	85.67
887.785	66.71
887.953	70.44
888.121	77.89
888.289	89.06
888.457	93.43
888.625	139.1
888.793	159.4
888.961	126.97
889.129	108.1
889.296	117.89
889.464	75.81
889.632	32.89
889.8	-130.77
889.967	10.31
890.135	1.19
