Data from JASIL_3103_Relative_1.txt Node
Date: Thu Nov 12 19:34:46 EST 2015
User: Geneva
Spectrometer: USB4E03002
Autoset integration time: false
Trigger mode: 4
Integration Time (sec): 1.000000E-1
Scans to average: 10
Electric dark correction enabled: true
Nonlinearity correction enabled: false
Boxcar width: 5
Stray light correction enabled: false
XAxis mode: Wavelengths
Stop averaging: false
Number of Pixels in Spectrum: 3648
>>>>>Begin Spectral Data<<<<<
177.575	162.9
177.794	745.58
178.014	222.48
178.233	106.33
178.452	81.33
178.672	101.9
178.891	707.04
179.11	175.07
179.33	3445.24
179.549	-227.81
179.768	-499.8
179.987	2008.07
180.207	-606.27
180.426	-1648.01
180.645	7095.56
180.864	-292.86
181.084	-517.25
181.303	-308.06
181.522	-322.34
181.741	-4732.64
181.96	383.95
182.179	2766.78
182.398	-630.55
182.618	-1970.86
182.837	-2175.22
183.056	782.82
183.275	161.08
183.494	398.51
183.713	226.16
183.932	270.39
184.151	329.07
184.37	985.95
184.589	363.38
184.808	303.44
185.027	1061.49
185.246	285.5
185.465	379.96
185.684	653.33
185.903	408.1
186.122	520.49
186.341	1008.12
186.56	590.71
186.779	-480.47
186.998	-176.77
187.216	-3.63
187.435	-12.69
187.654	-41.67
187.873	-14.85
188.092	-0.48
188.311	-2.98
188.53	-19.53
188.748	-52.43
188.967	-49.75
189.186	-125.55
189.405	-188
189.623	-755.04
189.842	2106.95
190.061	-14698.73
190.28	1115.65
190.498	478.55
190.717	433.67
190.936	495.51
191.154	317.54
191.373	278.36
191.592	205.17
191.81	214.37
192.029	273.49
192.248	291.88
192.466	257.23
192.685	307.29
192.904	229.27
193.122	222.71
193.341	457.42
193.559	-893.6
193.778	1088.53
193.996	1412.15
194.215	779.28
194.433	515.3
194.652	3166.67
194.87	-671.94
195.089	-392.18
195.307	-321.69
195.526	-293.43
195.744	-605.59
195.963	-2103.66
196.181	4843.29
196.399	-429.68
196.618	-763.45
196.836	-658.02
197.055	-369.74
197.273	-191.06
197.491	-316.97
197.71	11241.11
197.928	704.04
198.146	467.58
198.365	533.1
198.583	7656.9
198.801	368.23
199.019	325.38
199.238	230.84
199.456	173.85
199.674	136.89
199.892	163.76
200.111	380.44
200.329	-661.84
200.547	-301.94
200.765	-130.98
200.983	-60.7
201.202	-42.2
201.42	-82.73
201.638	-135.38
201.856	-239.57
202.074	-163.48
202.292	-109.88
202.51	779.8
202.728	289.03
202.946	266.5
203.165	246.45
203.383	227.62
203.601	247.9
203.819	277.61
204.037	327.33
204.255	248.09
204.473	212.68
204.691	165.21
204.909	281.67
205.127	304.5
205.345	686.89
205.562	-4015.3
205.78	-401.11
205.998	-434.76
206.216	-1426.67
206.434	392.18
206.652	-4008.82
206.87	-312.92
207.088	-219.71
207.306	-1025.31
207.523	-198.22
207.741	-388.03
207.959	3815.83
208.177	44992
208.395	-522.7
208.612	-884.32
208.83	-341.99
209.048	-289.45
209.266	-1030.27
209.483	-225.05
209.701	10.36
209.919	-186.55
210.136	-251.7
210.354	-193.47
210.572	-45.76
210.79	-311.75
211.007	544.73
211.225	480.88
211.442	182.36
211.66	1493.25
211.878	377.45
212.095	256.22
212.313	376.96
212.53	274.24
212.748	264.92
212.966	179.99
213.183	149.07
213.401	187.5
213.618	257.49
213.836	337.63
214.053	360.6
214.271	382.06
214.488	805.27
214.705	378.68
214.923	-6375.69
215.14	9721.36
215.358	-394.14
215.575	-329.32
215.793	-547.38
216.01	-431.84
216.227	-47196.3
216.445	-2354.92
216.662	-596.13
216.879	-21198.11
217.097	-377.88
217.314	1185.06
217.531	-2423.42
217.749	574.06
217.966	740
218.183	3061.43
218.4	657.47
218.618	885.77
218.835	459.2
219.052	216.99
219.269	215.48
219.487	204.2
219.704	170.63
219.921	126.23
220.138	143.26
220.355	177.89
220.572	313.83
220.79	365.21
221.007	467.49
221.224	-392.37
221.441	-138.24
221.658	-121.55
221.875	-178.29
222.092	-128.1
222.309	-124.53
222.526	-230.5
222.743	-360.23
222.96	-237.73
223.177	-201.64
223.394	-100.44
223.611	-589.31
223.828	-255.19
224.045	-255.25
224.262	-134.64
224.479	-135.97
224.696	-139.47
224.913	-78.6
225.13	-75.36
225.347	-145.02
225.564	-109.85
225.781	-231.21
225.997	-149.06
226.214	-161.84
226.431	-238.1
226.648	-219.57
226.865	-166.54
227.082	-175.44
227.298	-189.74
227.515	-129.08
227.732	-82.34
227.949	-106.03
228.165	-101.62
228.382	-70.03
228.599	-72.82
228.816	-52.75
229.032	-34.39
229.249	-43.24
229.466	-30.76
229.682	-29.92
229.899	-31.91
230.116	-35.06
230.332	-21.29
230.549	-10.5
230.765	-16.1
230.982	-8.32
231.199	-17.33
231.415	-40.34
231.632	-7.46
231.848	-25.92
232.065	-15.53
232.281	-33.28
232.498	-37.55
232.714	-53.46
232.931	-128.09
233.147	-162.1
233.364	-176.71
233.58	-85.31
233.797	-82.67
234.013	-80.76
234.23	-89.83
234.446	-127.36
234.662	-133.67
234.879	-87.74
235.095	-109.35
235.312	-53.98
235.528	-55.78
235.744	-68.99
235.961	-77.48
236.177	-46.76
236.393	-74.71
236.61	-42.97
236.826	-29.9
237.042	-23.11
237.258	-25.02
237.475	-13.19
237.691	-24.12
237.907	-37.53
238.123	-36.13
238.339	-50.09
238.556	-69.78
238.772	-81.45
238.988	-74.87
239.204	-77.04
239.42	-80.78
239.636	-85.69
239.853	-63
240.069	-59.57
240.285	-42.47
240.501	-43.42
240.717	-41.97
240.933	-44.78
241.149	-35.76
241.365	-37.9
241.581	-33.85
241.797	-32.56
242.013	-28.27
242.229	-31.07
242.445	-22.14
242.661	-24.06
242.877	-14.69
243.093	-14.17
243.309	-10.65
243.525	-9.58
243.741	-11.38
243.957	-15.19
244.173	-15.26
244.388	-15.73
244.604	-13.79
244.82	-11.2
245.036	-8.53
245.252	-12.12
245.468	-11.53
245.683	-8.55
245.899	-9.96
246.115	-7.19
246.331	-4.17
246.547	-4.43
246.762	-4.91
246.978	-5.59
247.194	-10.27
247.409	-12.94
247.625	-14.6
247.841	-16.28
248.057	-16.86
248.272	-20.64
248.488	-24.2
248.703	-20.14
248.919	-19.34
249.135	-30.95
249.35	-25.38
249.566	-25.06
249.782	-18.18
249.997	-16.49
250.213	-9.06
250.428	-11.36
250.644	-4.92
250.859	-2.29
251.075	-6.72
251.29	-6.81
251.506	0.03
251.721	-5.18
251.937	-4.73
252.152	-12.31
252.368	-8.35
252.583	-19.41
252.798	-29.13
253.014	-38.12
253.229	-44.16
253.445	-61.79
253.66	-70.94
253.875	-67.46
254.091	-76.03
254.306	-76.32
254.521	-75.88
254.737	-112.95
254.952	-82.05
255.167	-77.85
255.383	-62.17
255.598	-61.48
255.813	-25.34
256.028	-19.77
256.244	-28.14
256.459	-20.89
256.674	-20.19
256.889	-20.76
257.104	-12.46
257.32	-14.4
257.535	-13.06
257.75	-6.9
257.965	-6.09
258.18	-11.35
258.395	-8.82
258.61	-5.72
258.826	-6.45
259.041	-6.11
259.256	-3.61
259.471	-5.08
259.686	-3.41
259.901	-3.18
260.116	-4.9
260.331	-6.88
260.546	-5.91
260.761	-6.41
260.976	-6.64
261.191	-7.46
261.406	-8.82
261.621	-15.72
261.836	-15.51
262.05	-14.14
262.265	-10.26
262.48	-19.98
262.695	-14.12
262.91	-19.18
263.125	-16.59
263.34	-26.31
263.555	-27.01
263.769	-29.34
263.984	-25.04
264.199	-30.53
264.414	-31.45
264.629	-38.46
264.843	-46.86
265.058	-42.21
265.273	-40.75
265.488	-38.86
265.702	-30.12
265.917	-24.15
266.132	-17.17
266.346	-15.45
266.561	-15.09
266.776	-18.82
266.99	-17.22
267.205	-5.9
267.42	-6.02
267.634	-6.33
267.849	-8.47
268.063	-11.94
268.278	-10.66
268.492	-13.99
268.707	-11.88
268.922	-8.43
269.136	-5.96
269.351	-3.93
269.565	-1.64
269.78	-4.03
269.994	-4.55
270.209	-4.87
270.423	-5.04
270.637	-6.48
270.852	-6.83
271.066	-12.59
271.281	-13.44
271.495	-14.08
271.709	-15.36
271.924	-20.57
272.138	-23.94
272.353	-19.98
272.567	-17.57
272.781	-18.95
272.996	-18.16
273.21	-15.99
273.424	-10.92
273.638	-12.03
273.853	-10.79
274.067	-8.36
274.281	-3.89
274.495	-1.73
274.71	-3.67
274.924	-6.02
275.138	-2.66
275.352	-3.63
275.566	-6.38
275.781	-6.25
275.995	-9.05
276.209	-13.08
276.423	-15.77
276.637	-19.18
276.851	-18.58
277.065	-20.07
277.279	-22.5
277.493	-24.17
277.707	-30.17
277.921	-28.99
278.135	-30.79
278.349	-21.02
278.563	-11.83
278.777	-13.03
278.991	-12.11
279.205	-10.17
279.419	-8.73
279.633	-6.31
279.847	-1.05
280.061	0.82
280.275	0.59
280.489	-2.27
280.703	-5.64
280.917	-5.94
281.131	-4.45
281.344	-5.57
281.558	-4.95
281.772	-7.9
281.986	-9.68
282.2	-13.2
282.414	-10.33
282.627	-9.11
282.841	-8.09
283.055	-6.22
283.269	-10.91
283.482	-8.88
283.696	-7.51
283.91	-7.14
284.123	-3.92
284.337	-3.72
284.551	-2.69
284.764	-4.72
284.978	-6.46
285.192	-5.88
285.405	-8.03
285.619	-4.97
285.833	-8.06
286.046	-6.31
286.26	-9.54
286.473	-12.37
286.687	-13.22
286.9	-14.64
287.114	-12.53
287.327	-13.25
287.541	-10.09
287.754	-8.96
287.968	-8.92
288.181	-7.69
288.395	-9.51
288.608	-6.96
288.822	-7.21
289.035	-5.9
289.248	-7.19
289.462	-6.46
289.675	-3.68
289.889	-5.58
290.102	-4.28
290.315	-5.19
290.529	-4.11
290.742	-2.55
290.955	-3.24
291.169	-2.63
291.382	-1.09
291.595	-2.87
291.808	-4.23
292.022	0.71
292.235	-0.22
292.448	0.85
292.661	1.08
292.875	1.79
293.088	-3.27
293.301	-0.73
293.514	-2.3
293.727	-4.51
293.94	-3.89
294.153	-1.61
294.367	-7.43
294.58	-5.66
294.793	-4.46
295.006	-3.45
295.219	-6.13
295.432	-2.8
295.645	-3.73
295.858	-1.4
296.071	-0.81
296.284	-2.35
296.497	-3.34
296.71	-1.84
296.923	-1.96
297.136	-3.13
297.349	-2.78
297.562	-1.22
297.775	-3.59
297.988	-4.06
298.201	-5
298.414	-4.74
298.626	-0.85
298.839	-1.31
299.052	-1.75
299.265	-1.59
299.478	-3.28
299.691	-8.45
299.903	-10.65
300.116	-8.4
300.329	-10.77
300.542	-10.62
300.755	-11.21
300.967	-15.03
301.18	-17.34
301.393	-14.78
301.605	-16.4
301.818	-15.11
302.031	-14.75
302.243	-14.02
302.456	-14.05
302.669	-9.75
302.881	-9.98
303.094	-8.96
303.307	-7.66
303.519	-8.41
303.732	-10.26
303.944	-13.41
304.157	-13.24
304.37	-11.29
304.582	-7.64
304.795	-8
305.007	-11.11
305.22	-6.83
305.432	-6.92
305.645	-8.1
305.857	-5.67
306.069	-7.88
306.282	-5.89
306.494	-6.97
306.707	-5.27
306.919	-6.75
307.132	-4.89
307.344	-4.48
307.556	-6.44
307.769	-5.56
307.981	-3.73
308.193	-1.99
308.406	0.1
308.618	-0.28
308.83	-0.1
309.043	1.25
309.255	-0.43
309.467	-2.87
309.679	-2.43
309.892	-4.67
310.104	-5.34
310.316	-2.74
310.528	-4.79
310.74	-4.6
310.953	-4.21
311.165	-5.79
311.377	-7.52
311.589	-7.14
311.801	-7.88
312.013	-6.51
312.225	-6.7
312.437	-8.29
312.649	-11.78
312.862	-12.88
313.074	-13.65
313.286	-14.01
313.498	-11.62
313.71	-15.43
313.922	-14.82
314.134	-9.93
314.346	-12.65
314.558	-13.92
314.77	-12.42
314.982	-8.73
315.193	-5.14
315.405	-7.26
315.617	-8.68
315.829	-6.64
316.041	-3.66
316.253	-2.06
316.465	-6.65
316.677	-6.28
316.888	-4.08
317.1	-6.22
317.312	-10.96
317.524	-11.99
317.736	-10.18
317.947	-9.52
318.159	-16.07
318.371	-15.67
318.583	-19.75
318.794	-17.77
319.006	-16.29
319.218	-12.84
319.43	-9.95
319.641	-10.94
319.853	-15.97
320.064	-16.36
320.276	-15.17
320.488	-10.55
320.699	-7.83
320.911	-5.64
321.123	-5.62
321.334	-4.37
321.546	-7.18
321.757	-7.62
321.969	-7.4
322.18	-6.47
322.392	-6.6
322.603	-6.86
322.815	-7.51
323.026	-9.93
323.238	-11.73
323.449	-11.56
323.661	-13.07
323.872	-11.64
324.083	-13.46
324.295	-11.28
324.506	-6.85
324.718	-6.61
324.929	-4.18
325.14	-4.84
325.352	-5.43
325.563	-3.37
325.774	-5.86
325.986	-8.29
326.197	-8.62
326.408	-7.18
326.62	-8.18
326.831	-10.96
327.042	-11.17
327.253	-13.9
327.464	-11.63
327.676	-12.13
327.887	-13.61
328.098	-12.12
328.309	-12.01
328.52	-12.7
328.732	-13.06
328.943	-10.12
329.154	-6.44
329.365	-8.16
329.576	-6.24
329.787	-5.17
329.998	-5.72
330.209	-3.88
330.42	-3.47
330.631	-1.47
330.842	-1.32
331.053	-1.45
331.264	-3.14
331.475	-5.52
331.686	-2.55
331.897	-2.57
332.108	-4.95
332.319	-2.94
332.53	-3.21
332.741	-2.97
332.952	-1.47
333.163	-0.8
333.374	0.72
333.585	-1.45
333.795	-3.32
334.006	-4.54
334.217	-6.47
334.428	-6.9
334.639	-6.53
334.849	-8.14
335.06	-6.7
335.271	-9.89
335.482	-10.96
335.692	-11.14
335.903	-4.93
336.114	-5.54
336.325	-6.13
336.535	-6.47
336.746	-8.06
336.957	-7.6
337.167	-4.06
337.378	-5.51
337.589	-3.67
337.799	-2.77
338.01	-4.13
338.22	-9.38
338.431	-9.94
338.642	-10.74
338.852	-7.94
339.063	-5.38
339.273	-7.22
339.484	-10.23
339.694	-9.16
339.905	-7.31
340.115	-6.19
340.326	-6.39
340.536	-2.68
340.746	-0.47
340.957	-0.13
341.167	1.25
341.378	1.49
341.588	5
341.799	4.43
342.009	3.91
342.219	1.11
342.43	0.9
342.64	2.49
342.85	0.22
343.061	3.01
343.271	1.61
343.481	-0.01
343.691	-0.66
343.902	-2.04
344.112	-0.5
344.322	-2.34
344.532	-2.42
344.743	-1.73
344.953	-3.15
345.163	-2.26
345.373	-4.1
345.583	-2.87
345.793	-2.33
346.004	-1.93
346.214	-3.72
346.424	-3.84
346.634	-0.82
346.844	-1.6
347.054	-4.34
347.264	-4.6
347.474	-4.61
347.684	-6.03
347.894	-4.15
348.104	-5.39
348.314	-4.63
348.524	-3
348.734	-2.28
348.944	-1.8
349.154	0.29
349.364	1.37
349.574	3.14
349.784	3.81
349.994	2.43
350.204	0.65
350.413	1.66
350.623	1.42
350.833	0.37
351.043	0.33
351.253	-0.22
351.463	0.07
351.672	0.74
351.882	1.2
352.092	-0.24
352.302	1.95
352.511	2.21
352.721	1.51
352.931	2.15
353.141	0.44
353.35	-0.54
353.56	-1
353.77	-1.83
353.979	-0.54
354.189	-1.09
354.399	0.6
354.608	1.25
354.818	2.63
355.027	2.61
355.237	1.69
355.447	4.45
355.656	5.09
355.866	6.04
356.075	5.91
356.285	3.01
356.494	1.64
356.704	0.2
356.913	0.55
357.123	1.29
357.332	1.14
357.542	0.66
357.751	0.5
357.96	-0.32
358.17	-2.58
358.379	-2.25
358.589	-0.84
358.798	-0.91
359.007	0.68
359.217	1.17
359.426	1.79
359.635	3.12
359.845	4.89
360.054	5.03
360.263	6.26
360.472	7.94
360.682	7.81
360.891	7.71
361.1	8
361.309	7.97
361.519	6.89
361.728	5.36
361.937	4.72
362.146	3.79
362.355	1.91
362.564	0.15
362.774	0.1
362.983	-0.07
363.192	0.63
363.401	1.36
363.61	0.52
363.819	1.07
364.028	0.91
364.237	0.54
364.446	-1.38
364.655	-0.2
364.864	0.88
365.073	-0.55
365.282	-0.42
365.491	-0.23
365.7	-1.78
365.909	-3.16
366.118	-3.87
366.327	-3.2
366.536	-2.07
366.745	-0.65
366.954	-0.41
367.162	-0.54
367.371	-1.42
367.58	-1.84
367.789	-2.62
367.998	-0.79
368.207	0.14
368.415	-0.89
368.624	-0.45
368.833	-1.29
369.042	-1
369.25	-0.81
369.459	-0.25
369.668	2.49
369.877	3.92
370.085	4.31
370.294	4.32
370.503	4.43
370.711	6.5
370.92	5.1
371.129	4.67
371.337	4.2
371.546	3.13
371.754	2.77
371.963	0.22
372.171	-1.06
372.38	-1.52
372.589	-4.54
372.797	-5.35
373.006	-5.73
373.214	-5.57
373.423	-7.09
373.631	-7.24
373.84	-5.91
374.048	-6.92
374.256	-4.91
374.465	-5
374.673	-4.26
374.882	-2.09
375.09	0.17
375.298	1.16
375.507	2.04
375.715	2.93
375.923	3.3
376.132	2.65
376.34	3.09
376.548	1.78
376.757	1.44
376.965	2.1
377.173	2.87
377.381	1.75
377.59	0.6
377.798	0.56
378.006	-0.11
378.214	-0.53
378.423	0.81
378.631	1.93
378.839	3.49
379.047	5.11
379.255	2.26
379.463	2.35
379.671	1.2
379.879	1.11
380.088	0.08
380.296	0.46
380.504	1.75
380.712	-0.05
380.92	-1.67
381.128	-2.21
381.336	-3.13
381.544	-2.48
381.752	-2.73
381.96	-1.13
382.168	-1.63
382.376	0.42
382.584	0.9
382.791	-0.26
382.999	-0.54
383.207	-0.6
383.415	-0.83
383.623	-2.06
383.831	-1.56
384.039	-1.97
384.247	-2.26
384.454	-2.29
384.662	-5.19
384.87	-3.52
385.078	-2.7
385.285	-2.51
385.493	-1.89
385.701	-1.33
385.909	0.5
386.116	1.39
386.324	0.65
386.532	0.2
386.739	0.36
386.947	1.6
387.155	0.09
387.362	0.37
387.57	0.32
387.778	-0.02
387.985	-0.75
388.193	-0.8
388.4	-1.72
388.608	-0.56
388.816	1.42
389.023	1.71
389.231	1.57
389.438	3.55
389.646	2.27
389.853	3.56
390.061	4.56
390.268	4.51
390.475	3.17
390.683	1.92
390.89	1.94
391.098	0.97
391.305	0.89
391.512	0.59
391.72	-0.54
391.927	-0.11
392.135	-0.24
392.342	0.16
392.549	0.54
392.756	0.71
392.964	1.88
393.171	1.42
393.378	1.36
393.586	1.56
393.793	1.58
394	1.71
394.207	1.88
394.414	1.23
394.622	-0.41
394.829	-1.07
395.036	-0.98
395.243	-1.19
395.45	-0.18
395.657	-1.03
395.864	-1.43
396.072	0.06
396.279	-0.77
396.486	-1.05
396.693	-0.39
396.9	0.68
397.107	0.24
397.314	0.1
397.521	0.35
397.728	-0.12
397.935	0.46
398.142	0.08
398.349	-2.47
398.556	-1.3
398.763	-0.47
398.97	-0.92
399.177	-1.38
399.383	-0.9
399.59	-0.68
399.797	-0.52
400.004	-1.96
400.211	-2.29
400.418	-2.76
400.625	0.07
400.831	-0.72
401.038	-0.23
401.245	-0.57
401.452	-0.27
401.658	-0.29
401.865	0.37
402.072	1.07
402.279	1.82
402.485	2.77
402.692	3.95
402.899	2.14
403.105	2.92
403.312	3.35
403.519	4.8
403.725	4.68
403.932	5.46
404.138	5.93
404.345	4.94
404.552	4.76
404.758	4.26
404.965	4.1
405.171	5.2
405.378	4.49
405.584	2.91
405.791	1.35
405.997	0.79
406.204	0.94
406.41	0.9
406.617	1.83
406.823	2.72
407.029	2.94
407.236	3
407.442	2.23
407.649	2.64
407.855	3.9
408.061	4.76
408.268	4.85
408.474	4.43
408.68	3.04
408.887	3.43
409.093	2.55
409.299	2.78
409.505	2.96
409.712	3.42
409.918	3.83
410.124	3.01
410.33	2.2
410.537	2.91
410.743	3.29
410.949	2.82
411.155	2.18
411.361	2.46
411.567	1.74
411.773	1.46
411.98	0.46
412.186	-1.48
412.392	-1.7
412.598	-1.7
412.804	-1.46
413.01	-1.97
413.216	-1.41
413.422	-1.38
413.628	-1.08
413.834	-1.52
414.04	-1.29
414.246	-0.31
414.452	1.52
414.658	1.55
414.864	2.16
415.07	2.53
415.275	2.33
415.481	3.1
415.687	2.76
415.893	2.87
416.099	2.97
416.305	2.98
416.511	3
416.716	2.48
416.922	2.54
417.128	2.28
417.334	1.94
417.539	2.19
417.745	1.59
417.951	1.85
418.157	1.84
418.362	2.64
418.568	3
418.774	3.06
418.979	3.38
419.185	3.82
419.391	4.17
419.596	4.16
419.802	4.14
420.008	5.1
420.213	4.94
420.419	5.15
420.624	5.03
420.83	4.84
421.035	5.12
421.241	5.03
421.446	4.74
421.652	4.59
421.857	5.05
422.063	5.04
422.268	4.47
422.474	4.99
422.679	4.76
422.885	5.03
423.09	4.59
423.295	4.73
423.501	4.66
423.706	4.97
423.911	5.22
424.117	4.79
424.322	4.8
424.527	5.08
424.733	4.8
424.938	4.83
425.143	4.88
425.349	5.51
425.554	5.35
425.759	5.22
425.964	4.96
426.169	4.71
426.375	4.57
426.58	4.61
426.785	4.09
426.99	3.66
427.195	3.91
427.4	3.13
427.605	2.65
427.811	2.43
428.016	2.36
428.221	2.83
428.426	2.68
428.631	2.57
428.836	2.81
429.041	2.95
429.246	3.67
429.451	3.6
429.656	4.04
429.861	4.21
430.066	3.51
430.271	4.05
430.476	4.27
430.681	4.74
430.886	5.26
431.09	5
431.295	5.51
431.5	5.48
431.705	5.31
431.91	4.81
432.115	5.13
432.32	5.54
432.524	5.53
432.729	4.79
432.934	4.28
433.139	3.43
433.343	3.81
433.548	3.52
433.753	3.25
433.958	3.52
434.162	3.91
434.367	3.96
434.572	3.76
434.776	4.4
434.981	4.48
435.186	4.98
435.39	6.17
435.595	5.8
435.799	5.38
436.004	5.31
436.209	5.21
436.413	4.52
436.618	4.47
436.822	5.02
437.027	4.38
437.231	3.93
437.436	3.82
437.64	3.49
437.845	3.27
438.049	4.12
438.253	4.04
438.458	3.61
438.662	4.05
438.867	3.67
439.071	3.48
439.275	3.63
439.48	4.12
439.684	4.3
439.888	4.54
440.093	5.37
440.297	4.97
440.501	5.07
440.706	5.67
440.91	5.51
441.114	5.74
441.318	5.62
441.523	5.05
441.727	5.23
441.931	4.93
442.135	4.77
442.339	4
442.543	4.08
442.748	3.63
442.952	2.9
443.156	3.51
443.36	3.16
443.564	3.29
443.768	3.69
443.972	3.34
444.176	4
444.38	4.05
444.584	4.25
444.788	4.29
444.992	5.27
445.196	5.58
445.4	5.42
445.604	5.51
445.808	5.39
446.012	5.12
446.216	5.35
446.42	5.34
446.624	5.03
446.828	5.09
447.032	5.24
447.235	4.79
447.439	4.73
447.643	4.52
447.847	4.5
448.051	4.57
448.254	4.49
448.458	4.25
448.662	3.64
448.866	3.66
449.069	3.55
449.273	3.02
449.477	3.24
449.681	2.59
449.884	2.62
450.088	2.69
450.292	2.19
450.495	2.85
450.699	2.81
450.902	2.74
451.106	3.27
451.31	2.72
451.513	3.15
451.717	2.47
451.92	3.13
452.124	2.96
452.327	2.96
452.531	3.22
452.734	2.88
452.938	2.2
453.141	2.56
453.345	2.03
453.548	2.75
453.752	1.96
453.955	2.81
454.158	2.91
454.362	4.05
454.565	4.07
454.769	5.12
454.972	5.05
455.175	5.85
455.379	5.57
455.582	5.24
455.785	5.22
455.988	5.35
456.192	5.1
456.395	4.7
456.598	3.32
456.801	3.3
457.005	3.12
457.208	3.76
457.411	3.69
457.614	3.79
457.817	4.4
458.021	4.26
458.224	4.68
458.427	4.31
458.63	4.34
458.833	4.48
459.036	4.16
459.239	3.85
459.442	3.64
459.645	3.68
459.848	3.66
460.051	3.51
460.254	3.59
460.457	3.5
460.66	3.81
460.863	3.68
461.066	3.87
461.269	4.38
461.472	4.03
461.675	3.91
461.878	4.29
462.081	4.53
462.284	4.44
462.486	4.24
462.689	3.95
462.892	3.61
463.095	4.16
463.298	4.04
463.5	4.08
463.703	4.25
463.906	4.16
464.109	3.9
464.311	3.24
464.514	3.36
464.717	3.82
464.92	4.11
465.122	4.88
465.325	4.52
465.528	4.68
465.73	4.26
465.933	4.29
466.135	3.93
466.338	4.04
466.541	4.52
466.743	4.47
466.946	3.74
467.148	3.65
467.351	3.02
467.553	3.28
467.756	3.26
467.958	3.09
468.161	2.99
468.363	3.49
468.566	3.03
468.768	2.84
468.971	2.68
469.173	3.01
469.375	3
469.578	3
469.78	2.61
469.983	2.8
470.185	2.9
470.387	3.06
470.59	2.79
470.792	2.79
470.994	2.67
471.196	2.94
471.399	2.78
471.601	3.11
471.803	3
472.005	3.17
472.208	3.11
472.41	3.38
472.612	3.11
472.814	3.08
473.016	3.06
473.218	3.29
473.421	3.39
473.623	3.34
473.825	3.35
474.027	3.76
474.229	3.87
474.431	4.16
474.633	4.72
474.835	5.08
475.037	5.15
475.239	5.72
475.441	6.09
475.643	5.73
475.845	5.61
476.047	5.22
476.249	4.97
476.451	4.81
476.653	4.64
476.855	4.38
477.057	4.09
477.258	4.18
477.46	3.99
477.662	3.48
477.864	3.87
478.066	3.99
478.268	4.08
478.469	3.89
478.671	3.93
478.873	3.73
479.075	3.52
479.276	4.16
479.478	3.98
479.68	3.7
479.882	3.75
480.083	3.46
480.285	3.76
480.487	3.96
480.688	4.48
480.89	4.71
481.091	5.05
481.293	5.35
481.495	5.12
481.696	5.44
481.898	5.66
482.099	5.79
482.301	5.74
482.502	5.77
482.704	5.65
482.905	5.61
483.107	5.51
483.308	5.47
483.51	5.39
483.711	5.49
483.913	5.55
484.114	5.58
484.315	5.69
484.517	5.73
484.718	5.73
484.92	5.82
485.121	5.6
485.322	5.83
485.524	5.8
485.725	5.78
485.926	5.62
486.127	5.4
486.329	5.31
486.53	5.17
486.731	5.19
486.932	5.04
487.134	5.15
487.335	5.38
487.536	5.32
487.737	5.26
487.938	5.21
488.139	5.35
488.341	5.32
488.542	5.21
488.743	5.11
488.944	5.11
489.145	5.13
489.346	5.07
489.547	4.88
489.748	4.79
489.949	4.94
490.15	5.26
490.351	5.21
490.552	5.34
490.753	5.46
490.954	5.72
491.155	5.9
491.356	5.85
491.557	5.82
491.758	5.8
491.959	5.76
492.159	5.64
492.36	5.19
492.561	4.9
492.762	4.76
492.963	4.62
493.164	4.32
493.364	4.08
493.565	4.09
493.766	4.09
493.967	4.14
494.167	4.17
494.368	3.7
494.569	3.92
494.769	4.17
494.97	4.08
495.171	4.31
495.371	4.04
495.572	3.54
495.773	3.28
495.973	3.32
496.174	3.6
496.375	3.25
496.575	3.72
496.776	3.79
496.976	4.13
497.177	4.24
497.377	4.17
497.578	4.13
497.778	4.74
497.979	5.11
498.179	4.76
498.38	4.56
498.58	5.12
498.78	5.14
498.981	5.67
499.181	5.66
499.382	5.37
499.582	5.82
499.782	6.09
499.983	6.15
500.183	6.5
500.383	6.81
500.584	6.98
500.784	7.28
500.984	7.31
501.184	6.78
501.385	6.56
501.585	6.99
501.785	6.79
501.985	6.5
502.185	6.36
502.386	5.97
502.586	5.93
502.786	5.67
502.986	5.27
503.186	4.93
503.386	5.1
503.586	5.13
503.786	4.96
503.987	4.46
504.187	4.66
504.387	4.7
504.587	5.06
504.787	4.49
504.987	4.27
505.187	4.36
505.387	4.74
505.587	4.66
505.786	4.44
505.986	4.07
506.186	4.34
506.386	4.61
506.586	4.53
506.786	4.35
506.986	4.87
507.186	4.91
507.386	5.01
507.585	5.05
507.785	4.94
507.985	4.9
508.185	5.52
508.384	5.38
508.584	5.14
508.784	5.3
508.984	4.52
509.183	4.54
509.383	4.72
509.583	4.46
509.782	4
509.982	3.87
510.182	4.4
510.381	4.1
510.581	4.33
510.781	4.51
510.98	4.47
511.18	5.33
511.379	5.62
511.579	5.8
511.778	5.81
511.978	6.18
512.177	6.29
512.377	5.87
512.576	6.2
512.776	6.29
512.975	6.53
513.175	6.34
513.374	6.62
513.573	6.22
513.773	6.04
513.972	6.12
514.172	6.56
514.371	6.54
514.57	6.28
514.77	6.32
514.969	6.25
515.168	5.35
515.367	5.34
515.567	4.91
515.766	5.33
515.965	5.56
516.164	6.07
516.364	6.14
516.563	6.46
516.762	6.83
516.961	6.68
517.16	6.94
517.359	7.71
517.559	7.77
517.758	7.82
517.957	7.73
518.156	7.7
518.355	7.38
518.554	6.93
518.753	6.94
518.952	6.91
519.151	6.9
519.35	6.67
519.549	6.37
519.748	6.63
519.947	6.59
520.146	6.23
520.345	6.55
520.544	6.64
520.743	6.96
520.942	7
521.141	7.36
521.339	7.46
521.538	7.11
521.737	7.14
521.936	7.27
522.135	7.04
522.333	7.29
522.532	7.42
522.731	6.93
522.93	6.75
523.129	6.66
523.327	6.69
523.526	6.6
523.725	6.68
523.923	6.83
524.122	7.06
524.321	7.4
524.519	7.47
524.718	7.14
524.917	7.75
525.115	7.91
525.314	8.05
525.512	8.13
525.711	8.06
525.909	8.39
526.108	8.28
526.306	8.09
526.505	8.2
526.703	8.24
526.902	8.42
527.1	8.33
527.299	8.32
527.497	8.42
527.696	8.32
527.894	8.49
528.092	8.61
528.291	8.8
528.489	8.78
528.688	8.74
528.886	8.81
529.084	8.96
529.283	9.16
529.481	9.33
529.679	9.37
529.877	9.39
530.076	9.53
530.274	9.29
530.472	9.15
530.67	9.46
530.869	9.58
531.067	9.72
531.265	9.49
531.463	9.61
531.661	9.4
531.859	9.49
532.057	9.5
532.255	9.82
532.454	10.08
532.652	10.35
532.85	10.31
533.048	10.35
533.246	10.33
533.444	10.38
533.642	10.07
533.84	10.2
534.038	10.45
534.236	10.58
534.434	10.2
534.632	10.23
534.83	9.99
535.027	9.93
535.225	10.27
535.423	10.22
535.621	10.49
535.819	10.72
536.017	10.73
536.215	10.42
536.412	10.45
536.61	10.61
536.808	10.61
537.006	10.75
537.203	10.78
537.401	10.31
537.599	10.61
537.797	10.33
537.994	10.57
538.192	10.81
538.39	10.91
538.587	11.09
538.785	11.35
538.983	11.4
539.18	11.53
539.378	11.44
539.575	11.43
539.773	11.61
539.97	11.71
540.168	11.37
540.366	11.54
540.563	11.49
540.761	11.53
540.958	11.54
541.155	11.63
541.353	11.85
541.55	12.06
541.748	12.34
541.945	12.25
542.143	12.42
542.34	12.52
542.537	12.5
542.735	12.59
542.932	12.75
543.129	12.69
543.327	12.77
543.524	12.7
543.721	12.4
543.919	12.34
544.116	12.37
544.313	12.45
544.51	12.96
544.708	12.7
544.905	12.65
545.102	12.66
545.299	12.63
545.496	12.12
545.693	12.05
545.891	12.19
546.088	11.97
546.285	12.03
546.482	11.89
546.679	11.63
546.876	11.75
547.073	11.79
547.27	11.55
547.467	11.29
547.664	12.13
547.861	12.43
548.058	12.46
548.255	12.38
548.452	12.34
548.649	12.25
548.846	12.08
549.043	12.33
549.24	12.25
549.437	12.95
549.633	13.66
549.83	13.63
550.027	13.41
550.224	13.44
550.421	14.32
550.618	14.46
550.814	14.41
551.011	15.02
551.208	15.27
551.405	15.72
551.601	15.48
551.798	15.31
551.995	14.58
552.191	14.39
552.388	14.46
552.585	14.49
552.781	14.59
552.978	15.38
553.175	15.32
553.371	14.94
553.568	14.56
553.764	14.55
553.961	14.65
554.157	15.58
554.354	15.61
554.55	15.81
554.747	15.7
554.943	15.47
555.14	14.62
555.336	14.1
555.533	14.03
555.729	14.15
555.926	13.91
556.122	14.13
556.318	14.05
556.515	13.74
556.711	14.22
556.907	14.06
557.104	13.71
557.3	13.83
557.496	14.25
557.693	14.53
557.889	14.99
558.085	15.49
558.281	15.75
558.478	15.74
558.674	16.06
558.87	15.75
559.066	15.7
559.262	16.44
559.459	17.06
559.655	16.76
559.851	17.22
560.047	17.25
560.243	17.5
560.439	17.03
560.635	16.77
560.831	17.75
561.027	17.57
561.223	17.91
561.419	17.44
561.615	17.27
561.811	17.87
562.007	17.72
562.203	17.24
562.399	17.34
562.595	17.9
562.791	18.2
562.987	16.76
563.183	16.79
563.379	16.87
563.575	17.46
563.771	18.01
563.966	18.43
564.162	18.77
564.358	19.49
564.554	19.77
564.75	19.49
564.945	19.65
565.141	20.24
565.337	20.6
565.533	20.1
565.728	20.09
565.924	19.89
566.12	19.44
566.315	19.83
566.511	19.82
566.707	19.74
566.902	20.25
567.098	20.27
567.293	20.32
567.489	20.27
567.684	21.22
567.88	21.61
568.076	21.33
568.271	21.89
568.467	21.14
568.662	21.47
568.858	21.85
569.053	21.62
569.248	21.94
569.444	21.86
569.639	21.95
569.835	21.93
570.03	22.02
570.225	22.62
570.421	22.69
570.616	22.8
570.812	22.63
571.007	22.3
571.202	22.54
571.397	22.22
571.593	22.83
571.788	23.05
571.983	22.99
572.178	23.3
572.374	23.09
572.569	22.87
572.764	23.09
572.959	23.15
573.154	23.37
573.35	23.2
573.545	22.92
573.74	22.48
573.935	22.62
574.13	22.85
574.325	22.33
574.52	22.2
574.715	22.29
574.91	22.49
575.105	22.77
575.3	22.68
575.495	22.58
575.69	22.63
575.885	22.49
576.08	22.04
576.275	22.06
576.47	22.62
576.665	23.37
576.86	24.21
577.055	23.86
577.25	23.72
577.444	23.65
577.639	23.91
577.834	24.22
578.029	25.4
578.224	26.12
578.418	26.24
578.613	25.81
578.808	25.06
579.003	23.97
579.197	24.35
579.392	24.55
579.587	24.65
579.781	24.8
579.976	25.57
580.171	25.13
580.365	24.49
580.56	24.25
580.755	24.5
580.949	25.13
581.144	25.84
581.338	26.32
581.533	26.67
581.727	26.23
581.922	25.75
582.116	25.81
582.311	25.54
582.505	25.63
582.7	25.96
582.894	26.36
583.089	26.02
583.283	25.55
583.478	25.61
583.672	25.12
583.866	25.31
584.061	25.85
584.255	25.4
584.449	25.67
584.644	26.18
584.838	26.19
585.032	25.46
585.226	25.64
585.421	25.94
585.615	25.85
585.809	25.67
586.003	26
586.198	26.22
586.392	26.54
586.586	27.33
586.78	27.92
586.974	27.61
587.168	28.25
587.363	28.74
587.557	28.94
587.751	29.22
587.945	28.98
588.139	29.62
588.333	29.95
588.527	30.16
588.721	29.93
588.915	29.3
589.109	29.62
589.303	28.65
589.497	28.46
589.691	28.01
589.885	27.22
590.079	27.46
590.273	26.46
590.466	25.77
590.66	25.39
590.854	25.52
591.048	25.84
591.242	26.19
591.436	27.75
591.629	28.03
591.823	28.5
592.017	28.98
592.211	29.64
592.404	30.35
592.598	30.89
592.792	31
592.986	30.66
593.179	30.23
593.373	29.95
593.567	29.54
593.76	29.28
593.954	29.89
594.147	29.54
594.341	29.63
594.535	29.08
594.728	28.84
594.922	28.97
595.115	29
595.309	29.42
595.502	29.49
595.696	29.25
595.889	28.97
596.083	28.7
596.276	29.35
596.47	28.9
596.663	29.38
596.856	29.4
597.05	29.63
597.243	29.89
597.437	30.5
597.63	30.65
597.823	30.75
598.017	31.39
598.21	31
598.403	30.87
598.596	31.38
598.79	31.35
598.983	31.57
599.176	31.54
599.369	30.39
599.563	30.13
599.756	29.92
599.949	30.02
600.142	29.95
600.335	30.3
600.528	29.67
600.722	29.34
600.915	28.97
601.108	29.21
601.301	28.93
601.494	29.92
601.687	29.11
601.88	28.74
602.073	29.26
602.266	29.78
602.459	29.64
602.652	30.23
602.845	29.9
603.038	30.02
603.231	29.42
603.424	29.86
603.617	29.74
603.809	30.32
604.002	30.54
604.195	30.01
604.388	29.09
604.581	28.9
604.774	28.48
604.966	29.25
605.159	29.66
605.352	29.97
605.545	29.17
605.737	29.69
605.93	29.43
606.123	29.63
606.316	29.26
606.508	29.25
606.701	30.33
606.894	30.59
607.086	29.84
607.279	30.09
607.471	29.86
607.664	30.54
607.857	30.09
608.049	30.01
608.242	30.11
608.434	30.87
608.627	31.23
608.819	30.8
609.012	31.04
609.204	31.71
609.397	30.39
609.589	30.79
609.782	30.33
609.974	30.51
610.166	30.4
610.359	30.87
610.551	30.66
610.743	30.32
610.936	30.35
611.128	30.15
611.32	30.03
611.513	30.82
611.705	30.79
611.897	30.8
612.09	30.23
612.282	30.73
612.474	30.02
612.666	30.27
612.858	31
613.051	30.28
613.243	30.44
613.435	29.72
613.627	30.51
613.819	31
614.011	31.22
614.203	31.94
614.395	31.9
614.588	31.79
614.78	31.01
614.972	32.12
615.164	33.44
615.356	33.28
615.548	33.62
615.74	32.92
615.932	32.04
616.124	32.48
616.315	32.43
616.507	32.13
616.699	31.87
616.891	33.1
617.083	31.33
617.275	29.98
617.467	30.23
617.659	30.53
617.85	29.5
618.042	29.43
618.234	30.06
618.426	29.89
618.618	29.76
618.809	29.8
619.001	29.76
619.193	29.69
619.384	30.64
619.576	30.71
619.768	29.88
619.959	31.65
620.151	32.27
620.343	31.28
620.534	30.73
620.726	30.79
620.917	31.03
621.109	30.31
621.301	30.6
621.492	30.16
621.684	30.78
621.875	31.99
622.067	31.79
622.258	31.95
622.45	31.64
622.641	32.01
622.832	33.19
623.024	33.83
623.215	33.61
623.407	33.36
623.598	33.96
623.789	33.29
623.981	32.73
624.172	31.95
624.363	31.3
624.555	31.87
624.746	32.23
624.937	31.58
625.129	31.61
625.32	31.62
625.511	32.18
625.702	31.77
625.893	31.52
626.085	31.53
626.276	32.19
626.467	32.63
626.658	32.87
626.849	33.05
627.04	32.73
627.231	32.55
627.422	33.17
627.614	33.19
627.805	33.43
627.996	34
628.187	34.72
628.378	35.51
628.569	35.81
628.76	35.79
628.951	36.09
629.142	35.33
629.332	35.66
629.523	35.3
629.714	35.07
629.905	34.91
630.096	33.73
630.287	33.26
630.478	32.22
630.669	32.11
630.859	31.08
631.05	31.13
631.241	33.07
631.432	32.57
631.623	32.43
631.813	32.89
632.004	32.73
632.195	33.5
632.385	33.29
632.576	33.8
632.767	33.81
632.957	34.95
633.148	34.9
633.339	33.37
633.529	33.07
633.72	33.75
633.91	33.57
634.101	34.12
634.292	33.94
634.482	33.18
634.673	32.45
634.863	32.37
635.054	32.75
635.244	32.87
635.435	33.51
635.625	33.58
635.815	33.69
636.006	33.85
636.196	33.41
636.387	34.34
636.577	35.21
636.767	35.45
636.958	35.67
637.148	34.37
637.338	34.34
637.529	34.66
637.719	35.02
637.909	34.39
638.099	34.54
638.29	34.73
638.48	33.82
638.67	35.11
638.86	36.24
639.05	35.87
639.241	35.89
639.431	35.49
639.621	35.46
639.811	35.74
640.001	35.92
640.191	36.02
640.381	36.03
640.571	36.51
640.761	35.6
640.951	34.96
641.141	35.1
641.331	36.19
641.521	35.85
641.711	36.13
641.901	35.61
642.091	36.04
642.281	35.23
642.471	34.77
642.661	34.8
642.851	33.97
643.041	34.89
643.231	35.29
643.42	34.85
643.61	34.5
643.8	32.68
643.99	31.98
644.18	31.13
644.369	31.99
644.559	31.73
644.749	31.56
644.939	31.53
645.128	30.61
645.318	29.97
645.508	30.54
645.697	30.45
645.887	31.66
646.076	32.55
646.266	32.78
646.456	33
646.645	34.01
646.835	34.07
647.024	34.12
647.214	32.84
647.403	33.06
647.593	32.17
647.782	33.69
647.972	33.46
648.161	33.69
648.351	33.79
648.54	33.27
648.73	33.62
648.919	33.87
649.108	33.83
649.298	35.01
649.487	34.69
649.677	34.79
649.866	34.28
650.055	34.38
650.244	33.96
650.434	33.81
650.623	33.85
650.812	33.76
651.002	33.48
651.191	33.27
651.38	33.63
651.569	34.66
651.758	35.82
651.947	35.43
652.137	34.19
652.326	34.22
652.515	34.48
652.704	34.53
652.893	35.36
653.082	35.47
653.271	36.17
653.46	35.98
653.649	35.75
653.838	34.04
654.027	34.9
654.216	35.46
654.405	37.33
654.594	37.06
654.783	34.96
654.972	32.62
655.161	32.91
655.35	33.57
655.539	32.59
655.728	31.89
655.916	33.04
656.105	33.05
656.294	34.2
656.483	32.51
656.672	32.09
656.86	34.49
657.049	35.27
657.238	35.04
657.427	35.23
657.615	35.79
657.804	36.11
657.993	36.11
658.181	35.7
658.37	35.39
658.559	35.26
658.747	35.81
658.936	35.94
659.125	35.32
659.313	35.34
659.502	34.71
659.69	35.25
659.879	35.01
660.067	34.9
660.256	35.19
660.444	35.16
660.633	36.28
660.821	36.72
661.01	35.87
661.198	36.7
661.387	36.63
661.575	36.12
661.763	35.22
661.952	35.75
662.14	35.35
662.328	34.8
662.517	35.5
662.705	35.02
662.893	34.08
663.082	34.11
663.27	34.34
663.458	34.69
663.646	36
663.834	37.44
664.023	37.7
664.211	37.52
664.399	37.29
664.587	37.24
664.775	36.15
664.963	36.55
665.152	37.31
665.34	36.2
665.528	35.12
665.716	35.37
665.904	34.76
666.092	34.05
666.28	35.43
666.468	35.45
666.656	35.86
666.844	36.27
667.032	36.31
667.22	36.15
667.408	38.08
667.596	38.21
667.784	37.76
667.971	37.4
668.159	38.77
668.347	38.47
668.535	38.95
668.723	38.68
668.911	39.15
669.098	39.03
669.286	38.94
669.474	38.57
669.662	39.44
669.849	38.31
670.037	38
670.225	37.34
670.413	37.27
670.6	36.84
670.788	36.94
670.976	37.52
671.163	38.26
671.351	39.43
671.538	39.76
671.726	39.05
671.913	39.94
672.101	40.04
672.289	39.67
672.476	39.75
672.664	39.87
672.851	39.35
673.039	38.35
673.226	38.09
673.413	36.72
673.601	34.59
673.788	34.78
673.976	34.59
674.163	35.58
674.35	35.49
674.538	35.08
674.725	36.13
674.912	36.99
675.1	38.14
675.287	37.08
675.474	38.08
675.662	38.88
675.849	39.24
676.036	39.52
676.223	37.49
676.411	37.6
676.598	37.92
676.785	37.36
676.972	37.06
677.159	37.11
677.346	36.9
677.533	35.97
677.721	36.36
677.908	36.8
678.095	37.17
678.282	37.83
678.469	37.84
678.656	37.67
678.843	37.04
679.03	37.45
679.217	35.83
679.404	37.15
679.591	37.48
679.778	36.34
679.964	36.5
680.151	35.98
680.338	37.19
680.525	38
680.712	37.16
680.899	37.52
681.086	38.16
681.272	39.15
681.459	38.31
681.646	38.62
681.833	39.1
682.02	38.81
682.206	38.57
682.393	37.81
682.58	36.24
682.766	36.82
682.953	36.17
683.14	34.63
683.326	35
683.513	35.5
683.7	33.17
683.886	36.29
684.073	35.11
684.259	34.85
684.446	35.22
684.632	36.26
684.819	35.64
685.005	36.97
685.192	37.75
685.378	37.6
685.565	37.08
685.751	38.92
685.938	37.62
686.124	38.8
686.31	38.02
686.497	38.01
686.683	38.07
686.87	38.41
687.056	37.67
687.242	37.01
687.429	36.32
687.615	38.11
687.801	37.13
687.987	37.24
688.174	36.94
688.36	39.15
688.546	39.22
688.732	38.15
688.918	37.73
689.105	37.51
689.291	38.19
689.477	37.87
689.663	36.35
689.849	36.82
690.035	35.25
690.221	35.04
690.407	34.62
690.593	33.17
690.779	33.66
690.965	34.87
691.151	34.2
691.337	33.58
691.523	34.67
691.709	35.48
691.895	34.87
692.081	35.69
692.267	35.56
692.453	34.85
692.639	34.64
692.825	35.79
693.011	36.36
693.196	38.04
693.382	38.65
693.568	37.42
693.754	36.32
693.94	38.18
694.125	37.57
694.311	38.17
694.497	38.56
694.682	39.13
694.868	37.36
695.054	37.91
695.239	37.42
695.425	36.99
695.611	37.52
695.796	37.6
695.982	36.65
696.168	36.64
696.353	36.8
696.539	37.12
696.724	37.1
696.91	37.45
697.095	36.32
697.281	37.61
697.466	37.45
697.652	37.84
697.837	37.69
698.023	36.77
698.208	36.6
698.393	35.95
698.579	36.14
698.764	36.78
698.949	36.63
699.135	36.25
699.32	35.53
699.505	35.91
699.691	36.06
699.876	36.43
700.061	38.2
700.246	39.89
700.432	39.73
700.617	39.49
700.802	39.55
700.987	41
701.172	42.93
701.358	41.08
701.543	42.22
701.728	42.31
701.913	44
702.098	43.45
702.283	41.37
702.468	41.37
702.653	41.15
702.838	40.63
703.023	37.04
703.208	35.22
703.393	36.75
703.578	36.13
703.763	34.62
703.948	33.26
704.133	34.59
704.318	36
704.503	38.12
704.688	36.68
704.873	37.89
705.057	40.66
705.242	41.04
705.427	41.42
705.612	40.27
705.797	40.16
705.981	40.05
706.166	38.07
706.351	36.24
706.536	35.04
706.72	36.7
706.905	35.07
707.09	35.43
707.274	35.94
707.459	34.42
707.644	33.24
707.828	34.08
708.013	33.34
708.197	32.51
708.382	33.56
708.567	33.49
708.751	32.74
708.936	33.66
709.12	32.87
709.305	32.15
709.489	31.95
709.673	32.86
709.858	33.13
710.042	34.34
710.227	36.89
710.411	36.58
710.596	37.82
710.78	38.14
710.964	37.48
711.149	38.05
711.333	37.4
711.517	38.09
711.702	38.04
711.886	37.53
712.07	36.03
712.254	33.94
712.438	34.13
712.623	33.47
712.807	33.05
712.991	33.89
713.175	34.43
713.359	36.31
713.544	37.55
713.728	37.5
713.912	38.69
714.096	40.66
714.28	41.47
714.464	40.98
714.648	40.58
714.832	41.59
715.016	41.31
715.2	40.11
715.384	38.54
715.568	36.63
715.752	36.58
715.936	35.27
716.12	34.73
716.304	34.51
716.488	33.62
716.671	34.68
716.855	34.22
717.039	33.86
717.223	33.64
717.407	35.33
717.59	36.84
717.774	37.81
717.958	37.52
718.142	36.91
718.325	38.03
718.509	37.65
718.693	36.29
718.877	36.09
719.06	35.25
719.244	33.35
719.428	34.08
719.611	33.94
719.795	32.75
719.978	32.5
720.162	34.1
720.345	30.99
720.529	31.53
720.713	30.81
720.896	30.93
721.08	32.26
721.263	36.26
721.446	33.84
721.63	34.77
721.813	36.8
721.997	38.96
722.18	38.33
722.364	40.53
722.547	43.07
722.73	45.18
722.914	46.01
723.097	45.64
723.28	43.39
723.464	42.89
723.647	41.87
723.83	40.89
724.013	37.92
724.197	37.93
724.38	36.31
724.563	35.7
724.746	32.43
724.929	32.36
725.112	32.61
725.296	33.84
725.479	34.45
725.662	36.43
725.845	36.6
726.028	36.87
726.211	37.63
726.394	38.63
726.577	39.05
726.76	39.12
726.943	37.36
727.126	38
727.309	39.6
727.492	39.88
727.675	36.07
727.858	37.08
728.041	38.09
728.224	34.84
728.407	35.71
728.589	35.89
728.772	35.31
728.955	37.12
729.138	37.83
729.321	36.56
729.503	36.65
729.686	38.9
729.869	37.53
730.052	36.3
730.234	37.29
730.417	37.54
730.6	35.84
730.782	37.64
730.965	35.2
731.148	31.69
731.33	31.92
731.513	30.73
731.695	29.59
731.878	28.55
732.061	29.98
732.243	31.45
732.426	30.26
732.608	31.43
732.791	31.31
732.973	34.28
733.156	35.8
733.338	35.55
733.52	36.18
733.703	35.54
733.885	36.65
734.068	37.99
734.25	36.61
734.432	36.23
734.615	36.92
734.797	35.98
734.979	34.83
735.162	35.74
735.344	36.33
735.526	34.87
735.708	35.8
735.891	36.72
736.073	37.63
736.255	38.16
736.437	39.37
736.619	40.53
736.802	41.07
736.984	40.52
737.166	39.87
737.348	41.15
737.53	43.45
737.712	44.59
737.894	44.78
738.076	42.41
738.258	41.48
738.44	42.24
738.622	39.73
738.804	38.76
738.986	39.93
739.168	40.31
739.35	39.62
739.532	40.39
739.714	37.77
739.896	34.24
740.078	31.55
740.259	33.04
740.441	33.31
740.623	34.23
740.805	34.45
740.987	34.27
741.168	34.31
741.35	32.1
741.532	29.88
741.714	31.59
741.895	34.79
742.077	37.68
742.259	37.7
742.44	34.56
742.622	34.92
742.804	35.99
742.985	36.68
743.167	35.71
743.348	35.6
743.53	37.31
743.711	35.33
743.893	35.22
744.075	36.2
744.256	35.75
744.438	37.76
744.619	37.56
744.8	41.08
744.982	37.53
745.163	37.97
745.345	39.62
745.526	39.22
745.707	39.73
745.889	37.43
746.07	38.9
746.252	40.17
746.433	39.92
746.614	39.44
746.795	34.85
746.977	37.65
747.158	35.38
747.339	33.18
747.52	33.53
747.702	34.61
747.883	36.47
748.064	32.16
748.245	29.31
748.426	29.71
748.607	30.21
748.788	30.81
748.97	28.94
749.151	32.54
749.332	36.92
749.513	35.77
749.694	35.27
749.875	34.89
750.056	34.36
750.237	34.32
750.418	35.5
750.599	35.24
750.78	36.23
750.96	37.82
751.141	37.12
751.322	37
751.503	37.16
751.684	36.59
751.865	38.79
752.046	40.78
752.226	39.66
752.407	36.21
752.588	36.71
752.769	38.87
752.949	34.88
753.13	34.55
753.311	34.08
753.492	33.26
753.672	33.22
753.853	37.03
754.034	38.38
754.214	42.3
754.395	46.32
754.575	46.87
754.756	41.92
754.937	44.6
755.117	46.89
755.298	43.89
755.478	45.42
755.659	46.47
755.839	43.07
756.02	44.37
756.2	44.93
756.381	42.84
756.561	40.2
756.741	44.24
756.922	44.49
757.102	43.22
757.283	44.21
757.463	42.37
757.643	42.78
757.823	39.77
758.004	38.02
758.184	34.69
758.364	33.89
758.545	33.73
758.725	30.42
758.905	31.87
759.085	27.83
759.265	26.85
759.446	29.02
759.626	29.41
759.806	27.99
759.986	30.58
760.166	27.61
760.346	25.95
760.526	27.85
760.706	30.03
760.886	30
761.066	35
761.246	35.62
761.426	34.5
761.606	34.81
761.786	37.61
761.966	34.76
762.146	37.84
762.326	40.58
762.506	41.07
762.686	40.61
762.866	38.41
763.046	38.46
763.225	37.63
763.405	39.5
763.585	39.49
763.765	38.59
763.945	41.01
764.124	41.21
764.304	41.47
764.484	40.81
764.664	41
764.843	43.03
765.023	42.87
765.203	44.69
765.382	43.21
765.562	44.24
765.741	45.09
765.921	41.76
766.101	43.35
766.28	43.84
766.46	43.33
766.639	42.16
766.819	43.27
766.998	40.95
767.178	41.99
767.357	40.72
767.537	38.54
767.716	35.74
767.896	37.03
768.075	36.15
768.254	35.55
768.434	38.02
768.613	36.23
768.792	33.34
768.972	37.41
769.151	33.7
769.33	36.26
769.51	36.15
769.689	39.11
769.868	36.9
770.047	33.21
770.226	33.59
770.406	32.61
770.585	33.99
770.764	39.92
770.943	34.57
771.122	37.67
771.301	32.61
771.48	28.63
771.66	28.82
771.839	31.99
772.018	35.14
772.197	31.34
772.376	29.2
772.555	32.22
772.734	27.59
772.913	28.16
773.092	26.5
773.271	30.86
773.449	34.79
773.628	32.15
773.807	31.74
773.986	29.19
774.165	30.13
774.344	30.63
774.523	29.19
774.701	30.07
774.88	29.5
775.059	34.3
775.238	36.06
775.417	35.3
775.595	39.03
775.774	38.27
775.953	38.71
776.131	38.88
776.31	40.65
776.489	40.87
776.667	38.16
776.846	43.27
777.025	40.99
777.203	42.08
777.382	40.27
777.56	36.37
777.739	33.79
777.917	37.18
778.096	35.9
778.274	34.11
778.453	35.62
778.631	35.56
778.81	33.49
778.988	31.45
779.166	30.03
779.345	30.38
779.523	30.3
779.702	30.39
779.88	26.94
780.058	28.23
780.237	27.12
780.415	29.49
780.593	37.9
780.771	31.6
780.95	33.97
781.128	33.16
781.306	37.35
781.484	35.74
781.662	39.87
781.841	42.61
782.019	44.32
782.197	42.27
782.375	37.28
782.553	33.24
782.731	39.15
782.909	40.21
783.087	38.27
783.265	35.18
783.443	39.02
783.621	37.21
783.799	35.35
783.977	34.16
784.155	38.92
784.333	39.36
784.511	38.06
784.689	37.47
784.867	33.61
785.045	33.32
785.223	35.28
785.4	39.57
785.578	42.85
785.756	38.63
785.934	39.38
786.112	35.32
786.289	34.51
786.467	33.81
786.645	34.73
786.823	35.39
787	31.17
787.178	37.2
787.356	35.56
787.533	30.44
787.711	36.28
787.889	34.26
788.066	36.73
788.244	36.99
788.421	37.28
788.599	40.59
788.776	40.42
788.954	48.15
789.131	41.61
789.309	42.41
789.486	43.13
789.664	41.38
789.841	40.4
790.019	39.69
790.196	42.43
790.373	40.43
790.551	37.24
790.728	38.24
790.906	33.4
791.083	30.58
791.26	30.13
791.437	32.65
791.615	36.64
791.792	41.29
791.969	44.06
792.146	43.83
792.324	48.63
792.501	48.31
792.678	44.16
792.855	45.92
793.032	54.33
793.209	50.62
793.387	48.15
793.564	44.83
793.741	32.96
793.918	28.83
794.095	24
794.272	21.68
794.449	23.94
794.626	26.5
794.803	27.13
794.98	23.94
795.157	25.71
795.334	29.56
795.511	32.32
795.688	35.46
795.864	36.08
796.041	36.9
796.218	33.97
796.395	30.5
796.572	33.73
796.749	37.64
796.925	38.86
797.102	39
797.279	33.77
797.456	30.48
797.632	32.31
797.809	35.57
797.986	40.66
798.162	43.53
798.339	46.17
798.516	45.1
798.692	42.14
798.869	38.99
799.046	40.49
799.222	41.01
799.399	39.89
799.575	37.96
799.752	34.53
799.928	37.53
800.105	34.07
800.281	36.55
800.458	37.08
800.634	36.48
800.811	37.26
800.987	38.81
801.163	42.96
801.34	40.44
801.516	45.31
801.692	47.63
801.869	42.72
802.045	44.47
802.221	43.99
802.398	45.85
802.574	45.4
802.75	46.69
802.926	41.77
803.103	32.47
803.279	37.65
803.455	35.91
803.631	31.51
803.807	25.33
803.983	15.84
804.16	6.87
804.336	-0.83
804.512	-3.05
804.688	-11.06
804.864	-17.01
805.04	-6.18
805.216	-1.57
805.392	-1.35
805.568	3.26
805.744	12.84
805.92	24.25
806.096	19.67
806.272	21.09
806.448	20.55
806.623	19.8
806.799	23.22
806.975	25.31
807.151	19.99
807.327	18.9
807.503	14.54
807.678	5.62
807.854	5.26
808.03	15.37
808.206	13.68
808.381	19.24
808.557	28.42
808.733	36.64
808.908	34.71
809.084	36.85
809.26	39.23
809.435	43.95
809.611	45.44
809.787	43.85
809.962	40.75
810.138	43.65
810.313	41.1
810.489	37.19
810.664	25.95
810.84	23.61
811.015	15.05
811.191	14.19
811.366	4.76
811.542	0.35
811.717	3.22
811.892	-2.53
812.068	0.5
812.243	-4.16
812.419	-7.17
812.594	-6.02
812.769	6.56
812.944	8.27
813.12	13.38
813.295	23.64
813.47	25.82
813.645	27.95
813.821	34.53
813.996	33.95
814.171	31.97
814.346	31.87
814.521	32.49
814.697	26.02
814.872	30.49
815.047	26.1
815.222	25.57
815.397	27.27
815.572	25.88
815.747	18.19
815.922	19.26
816.097	17.04
816.272	19.52
816.447	25.3
816.622	25.7
816.797	22.14
816.972	27.69
817.147	32.39
817.322	38.12
817.496	38.22
817.671	45.82
817.846	31.31
818.021	33.42
818.196	38.06
818.371	29.64
818.545	28.35
818.72	28.56
818.895	28.25
819.069	23.04
819.244	18.32
819.419	15.49
819.594	15.56
819.768	21.3
819.943	21.97
820.117	23.22
820.292	25.37
820.467	27.11
820.641	27.68
820.816	28.32
820.99	28.91
821.165	30.45
821.339	31.82
821.514	32.73
821.688	31.72
821.863	32.15
822.037	32.05
822.212	32.62
822.386	32.07
822.56	32.22
822.735	32.09
822.909	32.14
823.084	32.26
823.258	32.41
823.432	32.12
823.606	32.35
823.781	32.8
823.955	32.86
824.129	32.44
824.303	33.02
824.478	32.27
824.652	32.66
824.826	31.46
825	30.45
825.174	29.06
825.348	27.93
825.523	28.37
825.697	25.84
825.871	25.6
826.045	26.43
826.219	24.78
826.393	25.49
826.567	23.64
826.741	24.74
826.915	24.15
827.089	25.76
827.263	27.19
827.437	27.74
827.611	29.51
827.784	27.97
827.958	29.12
828.132	29.14
828.306	28.86
828.48	28.23
828.654	27.56
828.827	29.22
829.001	25.6
829.175	21.26
829.349	18.23
829.522	17.46
829.696	21.38
829.87	15.47
830.044	15.61
830.217	15.08
830.391	19.32
830.565	19.44
830.738	17.88
830.912	18.32
831.085	18
831.259	18.97
831.432	15.42
831.606	12.03
831.779	13.52
831.953	16.08
832.126	19.28
832.3	21.14
832.473	18.67
832.647	19.69
832.82	21.36
832.994	21.75
833.167	21.39
833.34	24.37
833.514	25.84
833.687	24.97
833.86	24.79
834.034	24.04
834.207	20.74
834.38	22.23
834.553	21.85
834.727	25.39
834.9	26.94
835.073	29.34
835.246	28.25
835.419	25.22
835.593	24.01
835.766	20.86
835.939	24.15
836.112	26.57
836.285	22.92
836.458	24.27
836.631	18.6
836.804	17.23
836.977	18.67
837.15	12.78
837.323	14.12
837.496	17.74
837.669	25.55
837.842	17.46
838.015	18.41
838.188	21.77
838.361	23.34
838.533	23.64
838.706	20.72
838.879	17.13
839.052	25.82
839.225	17.79
839.398	9.34
839.57	3.3
839.743	4.53
839.916	11.55
840.088	10.93
840.261	11.16
840.434	8.55
840.607	10.76
840.779	4.74
840.952	-2.36
841.124	-3.59
841.297	-0.18
841.47	1.94
841.642	4.15
841.815	-7.46
841.987	-1.58
842.16	-5.4
842.332	-6.15
842.505	-7.46
842.677	-1.81
842.85	-0.02
843.022	12.82
843.194	18.65
843.367	15.44
843.539	17.77
843.712	16.96
843.884	12.25
844.056	9.34
844.229	-1.19
844.401	1.09
844.573	1.6
844.745	0.1
844.918	-6.41
845.09	4.32
845.262	-24.53
845.434	-43.91
845.606	-68.37
845.779	-63.79
845.951	-106.73
846.123	-103.79
846.295	-116.25
846.467	-75.57
846.639	-42.5
846.811	-51.18
846.983	-38.51
847.155	-20.15
847.327	-18.16
847.499	-12.09
847.671	-10.61
847.843	-4.54
848.015	6.86
848.187	2.98
848.359	-0.64
848.531	-4.8
848.703	4.07
848.875	-10.69
849.047	1.82
849.218	12.69
849.39	12.68
849.562	22.93
849.734	15.34
849.905	17.25
850.077	18.17
850.249	21.08
850.421	22.35
850.592	21.36
850.764	16.24
850.936	10.95
851.107	4.17
851.279	30.05
851.451	9.06
851.622	21.82
851.794	4.04
851.965	-0.04
852.137	-7.72
852.308	7.9
852.48	26.47
852.651	29.24
852.823	26.37
852.994	24.95
853.166	-0.62
853.337	12.45
853.509	13.9
853.68	26.51
853.851	21.28
854.023	31.05
854.194	25.7
854.365	21.51
854.537	24.95
854.708	26.07
854.879	27.86
855.05	30
855.222	12.18
855.393	2.78
855.564	-4.59
855.735	-1.48
855.906	-18.05
856.078	-11.74
856.249	-11.99
856.42	-14.19
856.591	-3.86
856.762	-8.28
856.933	-16.67
857.104	13.93
857.275	14.61
857.446	18.1
857.617	12.29
857.788	19.29
857.959	3.37
858.13	3.39
858.301	3.42
858.472	-16.74
858.643	-13.36
858.814	1.42
858.985	-14.66
859.155	11.96
859.326	23.33
859.497	34.88
859.668	24.5
859.839	19.91
860.009	22.11
860.18	24.51
860.351	38.41
860.522	26.63
860.692	26.45
860.863	29.61
861.034	15.95
861.204	11
861.375	13.13
861.546	7.11
861.716	26.21
861.887	15.47
862.057	-2.21
862.228	-18.43
862.398	-15.82
862.569	-24.25
862.739	-20.71
862.91	-45.22
863.08	-58.05
863.251	-74.74
863.421	-42.42
863.592	-57.79
863.762	-68.09
863.932	-57.85
864.103	-53.22
864.273	-54.84
864.443	-41.28
864.614	-34.7
864.784	-1.1
864.954	6.7
865.125	-6.31
865.295	-26.66
865.465	-16.05
865.635	-27.01
865.805	-38.84
865.976	-40.17
866.146	-29.46
866.316	-47.61
866.486	-65.07
866.656	-73.55
866.826	-68.61
866.996	-89.21
867.166	-83.66
867.336	-99.88
867.506	-104.46
867.676	-44.43
867.846	-39.89
868.016	-32.22
868.186	-15.51
868.356	-5.57
868.526	15.7
868.696	10.42
868.866	26.75
869.036	22.44
869.206	11.98
869.376	19.3
869.545	-81.06
869.715	-114.98
869.885	-422.85
870.055	-1120.89
870.224	1650.96
870.394	423.77
870.564	336.73
870.734	580.14
870.903	-579.88
871.073	-415.54
871.243	-307.36
871.412	-170.11
871.582	-139.93
871.751	-117.31
871.921	-55.81
872.091	-41.74
872.26	-14.22
872.43	-0.11
872.599	-23.51
872.769	-29.84
872.938	-48.82
873.108	-53.38
873.277	-43.19
873.446	-46.01
873.616	-28.32
873.785	-26
873.955	-16.61
874.124	-3.25
874.293	-22.87
874.463	20.23
874.632	17.72
874.801	12.5
874.971	13.3
875.14	24.61
875.309	16.38
875.478	19.69
875.647	27.67
875.817	18.9
875.986	17.72
876.155	21.99
876.324	-1.56
876.493	-12.76
876.662	-15.07
876.831	-5.17
877	16.49
877.17	20.56
877.339	16.61
877.508	11.51
877.677	20.17
877.846	4.95
878.015	7.64
878.184	5.63
878.352	27.1
878.521	13.43
878.69	18
878.859	-1.99
879.028	10.68
879.197	9.22
879.366	1.57
879.534	-12.15
879.703	-13.95
879.872	-12.41
880.041	1.88
880.21	6.47
880.378	24.85
880.547	25.62
880.716	19.69
880.884	20.71
881.053	21.13
881.222	20.62
881.39	22.11
881.559	23.78
881.727	20.21
881.896	21.76
882.065	21.43
882.233	18.31
882.402	18.28
882.57	20.68
882.739	18.38
882.907	18.25
883.076	21.02
883.244	19.91
883.412	16.98
883.581	18.6
883.749	14.79
883.918	13.52
884.086	12.26
884.254	8.15
884.423	5.31
884.591	-0.18
884.759	-5.77
884.927	-10.77
885.096	-5.77
885.264	-3.48
885.432	-6.5
885.6	-10.98
885.769	-26.04
885.937	-18.92
886.105	-13.12
886.273	-29.71
886.441	-5.77
886.609	-29.15
886.777	-67.91
886.945	-82.14
887.113	-64.93
887.281	-37.02
887.449	-40.52
887.617	-14.86
887.785	-28.03
887.953	-30.64
888.121	-18.99
888.289	-29.23
888.457	-11.84
888.625	-14.38
888.793	-25.93
888.961	-20.91
889.129	-48.08
889.296	-11.09
889.464	-29.66
889.632	-25.78
889.8	-39.83
889.967	-28.37
890.135	-56.92
