Data from JASIL_3155_Reflection_2.txt Node
Date: Thu Nov 12 21:32:49 EST 2015
User: Geneva
Spectrometer: USB4E03002
Autoset integration time: false
Trigger mode: 4
Integration Time (sec): 1.000000E-1
Scans to average: 10
Electric dark correction enabled: true
Nonlinearity correction enabled: false
Boxcar width: 5
Stray light correction enabled: false
XAxis mode: Wavelengths
Stop averaging: false
Number of Pixels in Spectrum: 3648
>>>>>Begin Spectral Data<<<<<
177.575	95.75
177.794	96.82
178.014	182.67
178.233	-0.76
178.452	-2104.35
178.672	75.28
178.891	-56.15
179.11	23.87
179.33	5.05
179.549	-124.78
179.768	297.76
179.987	69.91
180.207	43.6
180.426	57.11
180.645	56.13
180.864	88.46
181.084	83.73
181.303	30.19
181.522	46.01
181.741	66.17
181.96	69.65
182.179	60.91
182.398	54.32
182.618	40.76
182.837	45.51
183.056	52.86
183.275	32.77
183.494	18.05
183.713	39.21
183.932	27.03
184.151	-10.79
184.37	-39.23
184.589	-2.08
184.808	-25.5
185.027	-32.8
185.246	-42.28
185.465	-74.7
185.684	-56.65
185.903	-42.17
186.122	16.7
186.341	61.17
186.56	89.8
186.779	118.26
186.998	103.07
187.216	181.16
187.435	254.21
187.654	242.19
187.873	310.28
188.092	149.7
188.311	121.34
188.53	89.3
188.748	69.14
188.967	71.22
189.186	22.23
189.405	48.83
189.623	90.44
189.842	71.74
190.061	62.19
190.28	70.88
190.498	97.23
190.717	144.16
190.936	130.47
191.154	115.55
191.373	105.13
191.592	96.88
191.81	91.61
192.029	66.71
192.248	91.97
192.466	98.45
192.685	91.83
192.904	77.08
193.122	62.1
193.341	84.24
193.559	115.29
193.778	151.25
193.996	183.58
194.215	119.02
194.433	92.73
194.652	11.99
194.87	8.58
195.089	6.33
195.307	15.88
195.526	22.77
195.744	19.98
195.963	14.9
196.181	11.71
196.399	3.13
196.618	20.69
196.836	44.26
197.055	53.09
197.273	87.21
197.491	90.58
197.71	234.45
197.928	169.73
198.146	74.06
198.365	-775.85
198.583	136.02
198.801	44.85
199.019	19.43
199.238	50.57
199.456	66.63
199.674	44.95
199.892	-43.65
200.111	-159.04
200.329	-510.43
200.547	29.79
200.765	-355.37
200.983	398.42
201.202	35.41
201.42	10.93
201.638	-6.35
201.856	-7.44
202.074	-0.81
202.292	-243.55
202.51	-127.19
202.728	-95.6
202.946	-88.35
203.165	-59.41
203.383	6.27
203.601	20.94
203.819	30.78
204.037	43.6
204.255	44.82
204.473	67.35
204.691	102.9
204.909	162.68
205.127	199.36
205.345	183.18
205.562	161.1
205.78	131.9
205.998	135.62
206.216	138.66
206.434	167.4
206.652	172.03
206.87	167.13
207.088	92.65
207.306	82.27
207.523	111.51
207.741	98.69
207.959	96.99
208.177	153.68
208.395	115.07
208.612	117.32
208.83	74.46
209.048	102.09
209.266	5439.29
209.483	-9.94
209.701	-91.55
209.919	726.9
210.136	51.94
210.354	72.31
210.572	-2259.26
210.79	-1672.73
211.007	125.62
211.225	58.32
211.442	36.26
211.66	10.81
211.878	-49.88
212.095	-8.78
212.313	-25.23
212.53	-4.97
212.748	19.22
212.966	24.59
213.183	30.92
213.401	19.27
213.618	12.73
213.836	21.45
214.053	21.94
214.271	23.17
214.488	41.48
214.705	54.85
214.923	0.03
215.14	-14.69
215.358	-22.29
215.575	-30.74
215.793	-36.59
216.01	-6.52
216.227	-39.05
216.445	-143.45
216.662	-2.61
216.879	53.97
217.097	53.92
217.314	230.8
217.531	463.6
217.749	546.49
217.966	107.61
218.183	87.51
218.4	67.39
218.618	78.23
218.835	113.45
219.052	114.4
219.269	-1.83
219.487	-62.6
219.704	-30
219.921	2.71
220.138	-11.3
220.355	24.09
220.572	44.04
220.79	35.11
221.007	47.63
221.224	44.23
221.441	42.73
221.658	17.6
221.875	10.07
222.092	26.13
222.309	-99.71
222.526	-42.13
222.743	-52.83
222.96	-65.62
223.177	0.05
223.394	-11.44
223.611	-85.71
223.828	-45.26
224.045	-687
224.262	-17.01
224.479	27.7
224.696	20.59
224.913	42.47
225.13	75.6
225.347	-20.23
225.564	11.64
225.781	3.05
225.997	22.16
226.214	25.42
226.431	7.06
226.648	65.05
226.865	22.59
227.082	-22.9
227.298	19.3
227.515	24.51
227.732	12.1
227.949	22.12
228.165	36.9
228.382	32.56
228.599	35.64
228.816	24.65
229.032	14.14
229.249	15.3
229.466	38.33
229.682	17.83
229.899	7.87
230.116	31.04
230.332	20.69
230.549	9.89
230.765	25.36
230.982	16.14
231.199	25.42
231.415	27.09
231.632	32.33
231.848	15.84
232.065	26.94
232.281	44.97
232.498	30.77
232.714	31.03
232.931	31.84
233.147	12.35
233.364	17.12
233.58	14.91
233.797	22.25
234.013	40.36
234.23	45.71
234.446	16.62
234.662	-31.95
234.879	-22.6
235.095	0.14
235.312	-30.52
235.528	5.18
235.744	13.31
235.961	7.06
236.177	-45.17
236.393	-101.92
236.61	-77.54
236.826	-37.03
237.042	-10.84
237.258	-21.41
237.475	-64.51
237.691	-23.32
237.907	-0.05
238.123	-32.01
238.339	-42.5
238.556	-8.49
238.772	-10.99
238.988	3.42
239.204	19.29
239.42	13.84
239.636	22.56
239.853	32.59
240.069	24.32
240.285	18.37
240.501	20.41
240.717	25.54
240.933	30.02
241.149	26.55
241.365	22.38
241.581	18.74
241.797	18.9
242.013	15.56
242.229	13.79
242.445	20.17
242.661	17.03
242.877	16.94
243.093	23.66
243.309	15.52
243.525	18.12
243.741	20.63
243.957	18.74
244.173	17.02
244.388	13.91
244.604	13.82
244.82	2.4
245.036	-0.28
245.252	7.22
245.468	3.25
245.683	10.76
245.899	9.85
246.115	6.78
246.331	7.08
246.547	5.82
246.762	5.96
246.978	4.96
247.194	4.44
247.409	5.14
247.625	1.91
247.841	-0.53
248.057	-6.08
248.272	-4.32
248.488	-1.96
248.703	-1.81
248.919	-1.28
249.135	-2.7
249.35	-4.76
249.566	3.11
249.782	-2.07
249.997	1.09
250.213	4.02
250.428	9.72
250.644	-0.59
250.859	2.68
251.075	0.72
251.29	2.9
251.506	8.7
251.721	12.42
251.937	7.99
252.152	12.1
252.368	7.81
252.583	8.47
252.798	3.22
253.014	8.24
253.229	-5.43
253.445	-3.35
253.66	-0.64
253.875	-8.74
254.091	-17.27
254.306	-9.91
254.521	-10.51
254.737	0.86
254.952	-4.47
255.167	-13.25
255.383	-10.87
255.598	-3.78
255.813	-6.12
256.028	-10.38
256.244	-3.34
256.459	1.18
256.674	-8.68
256.889	-3.88
257.104	-1.53
257.32	0.59
257.535	3.29
257.75	-1.55
257.965	2.72
258.18	2.85
258.395	-0.54
258.61	1.7
258.826	2.63
259.041	3.99
259.256	0.67
259.471	-3.64
259.686	-3.93
259.901	-1.33
260.116	-0.92
260.331	-2.47
260.546	-1.34
260.761	3.38
260.976	1.82
261.191	-0.44
261.406	2.19
261.621	2.26
261.836	7.54
262.05	8.5
262.265	5.51
262.48	12.63
262.695	12.25
262.91	12.69
263.125	12.23
263.34	14.89
263.555	19.54
263.769	14.7
263.984	16.78
264.199	13.4
264.414	13.12
264.629	10.19
264.843	5.71
265.058	3.31
265.273	-1.01
265.488	-10.77
265.702	-10.1
265.917	-10.97
266.132	-18.04
266.346	-16.34
266.561	-19.21
266.776	-19.77
266.99	-21.39
267.205	-22.19
267.42	-20.82
267.634	-18.19
267.849	-13.45
268.063	-16.31
268.278	-13.17
268.492	-10.81
268.707	-9.84
268.922	-6.01
269.136	-2.77
269.351	3.72
269.565	2.47
269.78	4.21
269.994	2.86
270.209	4.64
270.423	4.12
270.637	0.48
270.852	5.08
271.066	4.04
271.281	1.11
271.495	-2.18
271.709	-8.22
271.924	-6.96
272.138	-9.34
272.353	-8.39
272.567	-9.08
272.781	-8.32
272.996	-6.41
273.21	-6.77
273.424	-6.08
273.638	0.04
273.853	3.53
274.067	5.95
274.281	7.1
274.495	10.01
274.71	9.13
274.924	6.66
275.138	5.42
275.352	2.26
275.566	-0.91
275.781	-2.36
275.995	-5.77
276.209	-9.87
276.423	-11.42
276.637	-12.34
276.851	-12.61
277.065	-16.64
277.279	-15.93
277.493	-9.66
277.707	-8.32
277.921	-5.85
278.135	-5.2
278.349	0.47
278.563	2.11
278.777	3.68
278.991	4.94
279.205	3.4
279.419	7.42
279.633	6.06
279.847	2.32
280.061	2.54
280.275	4.5
280.489	3.88
280.703	-5.53
280.917	-1.47
281.131	-1.96
281.344	-3.92
281.558	-3.07
281.772	-3.98
281.986	-1.63
282.2	-2.24
282.414	-1.29
282.627	-2.19
282.841	-3.42
283.055	3.48
283.269	3.75
283.482	4.01
283.696	2.27
283.91	5.26
284.123	2.21
284.337	3.96
284.551	3.77
284.764	4.42
284.978	4.26
285.192	6.96
285.405	6.12
285.619	6.04
285.833	8.73
286.046	12.13
286.26	9.94
286.473	11.57
286.687	9.53
286.9	12.31
287.114	10.68
287.327	8.67
287.541	7.28
287.754	4.58
287.968	2.85
288.181	-1.14
288.395	-4.78
288.608	-2.62
288.822	-3.29
289.035	-6.67
289.248	-9.06
289.462	-7.54
289.675	-4.51
289.889	-5.25
290.102	-0.92
290.315	0.32
290.529	0.5
290.742	2.22
290.955	1.15
291.169	4.19
291.382	5.67
291.595	6.69
291.808	9.06
292.022	6.71
292.235	10.43
292.448	7.2
292.661	4.63
292.875	2.05
293.088	2.22
293.301	0.35
293.514	-2.81
293.727	-1.58
293.94	-3.42
294.153	-4.23
294.367	-4.94
294.58	-7.49
294.793	-10.2
295.006	-9.61
295.219	-5.99
295.432	-3
295.645	-2.36
295.858	-2.05
296.071	-1.57
296.284	-0.76
296.497	0.5
296.71	1.54
296.923	2.45
297.136	3.44
297.349	2.54
297.562	3.66
297.775	3.94
297.988	3.69
298.201	4.45
298.414	5.31
298.626	5.79
298.839	3.07
299.052	5.1
299.265	3.38
299.478	6.35
299.691	5.98
299.903	3.21
300.116	0.58
300.329	3.86
300.542	5.88
300.755	3.76
300.967	2.68
301.18	1.31
301.393	0.03
301.605	1.97
301.818	1.46
302.031	2.96
302.243	1.81
302.456	3.5
302.669	1.56
302.881	-3.08
303.094	-3.4
303.307	-1.68
303.519	1.27
303.732	1.89
303.944	-0.02
304.157	-4.51
304.37	-3.63
304.582	1.14
304.795	-1.43
305.007	-1.79
305.22	3.28
305.432	1.14
305.645	-2.24
305.857	-1.54
306.069	-1.16
306.282	0.07
306.494	6.51
306.707	8.1
306.919	6.19
307.132	5.3
307.344	5.93
307.556	1.89
307.769	5.24
307.981	8.47
308.193	5.17
308.406	3.45
308.618	2.83
308.83	0.64
309.043	-0.27
309.255	1.11
309.467	2.93
309.679	3.64
309.892	6.95
310.104	7.05
310.316	6.75
310.528	9.8
310.74	10.53
310.953	10.73
311.165	10.35
311.377	10.28
311.589	10.66
311.801	9.24
312.013	6.95
312.225	6.7
312.437	5.7
312.649	2.8
312.862	1.03
313.074	0.01
313.286	1.85
313.498	4.37
313.71	0.89
313.922	-1.31
314.134	-4.05
314.346	-2.7
314.558	-0.06
314.77	2.91
314.982	4.92
315.193	3.52
315.405	1.35
315.617	2.1
315.829	-0.64
316.041	3.24
316.253	2.94
316.465	6.9
316.677	6.6
316.888	3.55
317.1	4.56
317.312	4.23
317.524	5.34
317.736	4.43
317.947	-0.86
318.159	-1.44
318.371	0.03
318.583	2.64
318.794	1.98
319.006	3.12
319.218	2.53
319.43	1.46
319.641	1.77
319.853	3.01
320.064	9.63
320.276	14.49
320.488	16.52
320.699	15.14
320.911	12.42
321.123	13.51
321.334	10.87
321.546	11.61
321.757	10.8
321.969	13.1
322.18	12.84
322.392	8.53
322.603	7.23
322.815	6.2
323.026	4.6
323.238	5.55
323.449	6.89
323.661	7.96
323.872	8.52
324.083	7.9
324.295	7.6
324.506	7.53
324.718	8.94
324.929	11.57
325.14	13.08
325.352	13.01
325.563	14.22
325.774	13.6
325.986	16.17
326.197	14.57
326.408	16.77
326.62	16.6
326.831	15.2
327.042	14.37
327.253	11.88
327.464	9.72
327.676	9.18
327.887	6.95
328.098	4.76
328.309	3.96
328.52	5.81
328.732	3.56
328.943	1.98
329.154	4.78
329.365	4.06
329.576	5.9
329.787	7.35
329.998	10.49
330.209	12.74
330.42	16.07
330.631	14.84
330.842	13.54
331.053	14.65
331.264	16.9
331.475	15.46
331.686	17.1
331.897	16.62
332.108	15.55
332.319	16.54
332.53	12.66
332.741	14.41
332.952	16.96
333.163	15.68
333.374	16.39
333.585	15.17
333.795	15.49
334.006	14.99
334.217	15.74
334.428	15.17
334.639	12.38
334.849	16.21
335.06	14.15
335.271	12.2
335.482	14.34
335.692	14.89
335.903	15.92
336.114	16.04
336.325	16.73
336.535	15.49
336.746	14.05
336.957	14.66
337.167	14.2
337.378	9.2
337.589	10.59
337.799	10.82
338.01	7.85
338.22	8.21
338.431	11.72
338.642	9.64
338.852	13.85
339.063	15.87
339.273	15.33
339.484	15.67
339.694	20.16
339.905	18.74
340.115	17.7
340.326	18.96
340.536	19.56
340.746	16.23
340.957	17.83
341.167	14.48
341.378	15.09
341.588	15.5
341.799	14.51
342.009	12.53
342.219	11.72
342.43	10.67
342.64	12.82
342.85	12.51
343.061	12.29
343.271	11.2
343.481	11.15
343.691	9.94
343.902	9.15
344.112	9.58
344.322	11.15
344.532	12
344.743	14.51
344.953	11.75
345.163	11.9
345.373	11.46
345.583	11.13
345.793	10.43
346.004	11.71
346.214	12.21
346.424	12.84
346.634	13.05
346.844	13.36
347.054	12.94
347.264	13.65
347.474	13.81
347.684	13.99
347.894	15.02
348.104	14.46
348.314	12.95
348.524	14.95
348.734	16.88
348.944	18.01
349.154	18.55
349.364	17.42
349.574	16.6
349.784	15.19
349.994	15.03
350.204	17.42
350.413	18.98
350.623	20.23
350.833	18.95
351.043	17.09
351.253	16.1
351.463	14.12
351.672	15.13
351.882	17.2
352.092	16.19
352.302	17.64
352.511	16.1
352.721	14.83
352.931	15.02
353.141	16.65
353.35	15.49
353.56	14.56
353.77	13.76
353.979	11.43
354.189	8.98
354.399	11.25
354.608	9.92
354.818	8.56
355.027	8.96
355.237	8.33
355.447	6.05
355.656	7.77
355.866	8.51
356.075	9.61
356.285	11.83
356.494	12.47
356.704	11.39
356.913	12.1
357.123	12.54
357.332	12.17
357.542	12.35
357.751	13.3
357.96	12.09
358.17	13.38
358.379	15.69
358.589	15.16
358.798	16.01
359.007	16.16
359.217	16.39
359.426	16.38
359.635	16.73
359.845	15.99
360.054	15.93
360.263	17.28
360.472	15.82
360.682	14.58
360.891	14.24
361.1	14.29
361.309	15.57
361.519	15.13
361.728	15.13
361.937	14.78
362.146	15.86
362.355	15.92
362.564	15.37
362.774	14.82
362.983	14.05
363.192	14.2
363.401	13.87
363.61	11.36
363.819	10.48
364.028	11.52
364.237	12.83
364.446	12.65
364.655	12.47
364.864	12.33
365.073	13.67
365.282	14.74
365.491	15.54
365.7	15.15
365.909	17.31
366.118	17.45
366.327	16.73
366.536	15.81
366.745	15.31
366.954	14.44
367.162	13.29
367.371	14.02
367.58	14.19
367.789	15.18
367.998	14.6
368.207	13.38
368.415	12.94
368.624	13.98
368.833	13.82
369.042	14.36
369.25	15.55
369.459	17.27
369.668	15.76
369.877	15.15
370.085	13.63
370.294	13.84
370.503	12.88
370.711	13.33
370.92	12.55
371.129	12.43
371.337	11.32
371.546	10.88
371.754	9.93
371.963	9.75
372.171	9.9
372.38	9.63
372.589	9.51
372.797	10.77
373.006	10.99
373.214	10.28
373.423	10.59
373.631	11.95
373.84	12.1
374.048	12.65
374.256	12.74
374.465	12.01
374.673	11.76
374.882	11.74
375.09	11.68
375.298	11.86
375.507	13.63
375.715	13.82
375.923	14.33
376.132	14.21
376.34	14.68
376.548	15.49
376.757	14.49
376.965	15.79
377.173	16.53
377.381	16.34
377.59	15.86
377.798	13.86
378.006	13.65
378.214	12.54
378.423	12.63
378.631	12.81
378.839	12.23
379.047	13.81
379.255	13.28
379.463	13.24
379.671	11.02
379.879	12.06
380.088	12.68
380.296	13.42
380.504	13.36
380.712	13.38
380.92	12.54
381.128	12.36
381.336	13.02
381.544	12.42
381.752	11.66
381.96	14.82
382.168	13.95
382.376	14.7
382.584	13.81
382.791	13.48
382.999	14.07
383.207	13.2
383.415	14.29
383.623	12.79
383.831	11.56
384.039	11.98
384.247	10.81
384.454	11.17
384.662	10.19
384.87	10.59
385.078	10.65
385.285	10.44
385.493	10.23
385.701	9.77
385.909	9.86
386.116	11.42
386.324	11.81
386.532	12.33
386.739	12.69
386.947	13.33
387.155	12.79
387.362	12.95
387.57	13.29
387.778	13.85
387.985	13.7
388.193	14.16
388.4	12.8
388.608	12.77
388.816	11.23
389.023	10.88
389.231	10.14
389.438	9.75
389.646	9.59
389.853	8.03
390.061	7.61
390.268	6.58
390.475	7.29
390.683	8.63
390.89	8.81
391.098	9.21
391.305	9.83
391.512	9.48
391.72	8.95
391.927	10.05
392.135	10.11
392.342	10.5
392.549	11.93
392.756	10.97
392.964	11.07
393.171	10.02
393.378	10.12
393.586	9.37
393.793	9.59
394	11.14
394.207	10.32
394.414	11.41
394.622	11.5
394.829	10
395.036	10.36
395.243	9.07
395.45	9.33
395.657	9.83
395.864	9.8
396.072	10.49
396.279	9.98
396.486	9.08
396.693	9.05
396.9	8.58
397.107	9.37
397.314	9.37
397.521	11.22
397.728	11.42
397.935	10.37
398.142	11.1
398.349	10.46
398.556	10.42
398.763	11.57
398.97	10.6
399.177	11.54
399.383	12.23
399.59	12.31
399.797	11.68
400.004	13.03
400.211	12.73
400.418	11.46
400.625	12.68
400.831	11.93
401.038	11.08
401.245	11.11
401.452	10.72
401.658	10.05
401.865	9.75
402.072	8.95
402.279	8.04
402.485	8.15
402.692	8.63
402.899	6.77
403.105	8.4
403.312	10.02
403.519	9.77
403.725	9.35
403.932	8.91
404.138	8.81
404.345	9.56
404.552	9.86
404.758	10.01
404.965	10.02
405.171	11.34
405.378	11.26
405.584	10.22
405.791	11.05
405.997	11.01
406.204	10.92
406.41	9.94
406.617	9.46
406.823	8.32
407.029	8.87
407.236	9.12
407.442	8.05
407.649	6.63
407.855	6.01
408.061	5.73
408.268	6.46
408.474	8.13
408.68	9.47
408.887	10.03
409.093	11.31
409.299	10.44
409.505	10.94
409.712	11.56
409.918	12.25
410.124	12.26
410.33	12.45
410.537	11.91
410.743	11.12
410.949	10.84
411.155	10.46
411.361	10.35
411.567	11.29
411.773	11.55
411.98	11.72
412.186	11.18
412.392	11.99
412.598	11.95
412.804	12.68
413.01	12.23
413.216	12.47
413.422	13.07
413.628	12.91
413.834	12.47
414.04	11.76
414.246	11.56
414.452	11.92
414.658	12.33
414.864	11.28
415.07	11.4
415.275	11.31
415.481	11.53
415.687	10.45
415.893	10.12
416.099	10.32
416.305	11.01
416.511	11.18
416.716	11.19
416.922	10.43
417.128	10.85
417.334	10.62
417.539	10.34
417.745	10.42
417.951	10.77
418.157	10.63
418.362	10.78
418.568	10.37
418.774	10.3
418.979	10.16
419.185	10.24
419.391	10.47
419.596	10.19
419.802	10.79
420.008	10.84
420.213	11.47
420.419	11.2
420.624	11.01
420.83	11.09
421.035	11.18
421.241	11.48
421.446	11.45
421.652	11.48
421.857	11.83
422.063	11.33
422.268	11.29
422.474	10.03
422.679	10.6
422.885	10.53
423.09	10.29
423.295	10.32
423.501	9.92
423.706	9.97
423.911	10.16
424.117	10.16
424.322	10.24
424.527	10
424.733	10.37
424.938	10.36
425.143	9.94
425.349	10.04
425.554	10.06
425.759	10.57
425.964	10.82
426.169	11.07
426.375	11.11
426.58	11.89
426.785	12.09
426.99	12.52
427.195	12.36
427.4	12.96
427.605	12.69
427.811	12.92
428.016	12.28
428.221	11.78
428.426	10.93
428.631	10.23
428.836	9.97
429.041	10.33
429.246	9.9
429.451	9.87
429.656	10.49
429.861	10.79
430.066	10.32
430.271	11.03
430.476	11.22
430.681	11.17
430.886	11.23
431.09	10.49
431.295	10.05
431.5	10.24
431.705	10.4
431.91	10.06
432.115	10.16
432.32	10.33
432.524	10
432.729	9.8
432.934	9.94
433.139	10.31
433.343	10.62
433.548	10.57
433.753	10.77
433.958	11.15
434.162	11.22
434.367	11.77
434.572	10.96
434.776	10.78
434.981	11.01
435.186	11.34
435.39	11.12
435.595	10.75
435.799	11.13
436.004	11.16
436.209	10.67
436.413	10.53
436.618	9.78
436.822	10.46
437.027	10.67
437.231	10.99
437.436	10.75
437.64	10.13
437.845	10.69
438.049	10.26
438.253	10.64
438.458	10.29
438.662	10.15
438.867	10.48
439.071	10.21
439.275	9.81
439.48	9.31
439.684	9.2
439.888	9.68
440.093	9.27
440.297	9.18
440.501	9.05
440.706	8.89
440.91	8.7
441.114	8.12
441.318	7.87
441.523	7.95
441.727	8.48
441.931	8.87
442.135	9.08
442.339	9.09
442.543	9.91
442.748	9.57
442.952	10.2
443.156	10.52
443.36	10.84
443.564	11.51
443.768	11.53
443.972	10.73
444.176	10.76
444.38	11.01
444.584	11.01
444.788	10.55
444.992	10.93
445.196	10.7
445.4	10.59
445.604	10.62
445.808	10.41
446.012	10.5
446.216	10.99
446.42	10.74
446.624	10.25
446.828	10.17
447.032	10.14
447.235	9.85
447.439	9.7
447.643	9.74
447.847	9.2
448.051	9.26
448.254	9.11
448.458	9.4
448.662	9.49
448.866	9.72
449.069	9.6
449.273	9.68
449.477	9.64
449.681	9.74
449.884	9.8
450.088	10.1
450.292	10.12
450.495	10.66
450.699	10.49
450.902	10.46
451.106	10.94
451.31	11.17
451.513	10.51
451.717	10.69
451.92	10.68
452.124	10.54
452.327	11.38
452.531	11.29
452.734	11.04
452.938	10.79
453.141	10.18
453.345	9.76
453.548	10.44
453.752	11.06
453.955	10.74
454.158	10.67
454.362	10.34
454.565	10.1
454.769	10.31
454.972	10.09
455.175	10.01
455.379	11.28
455.582	11.1
455.785	10.33
455.988	10.04
456.192	10.09
456.395	10.5
456.598	11.83
456.801	11.55
457.005	11.03
457.208	11.31
457.411	11.64
457.614	10.96
457.817	10.9
458.021	11.01
458.224	10.81
458.427	11.38
458.63	10.78
458.833	10.31
459.036	9.91
459.239	10.09
459.442	9.96
459.645	9.93
459.848	9.69
460.051	9.81
460.254	10.11
460.457	10.32
460.66	9.39
460.863	10.09
461.066	10.23
461.269	10.56
461.472	10.7
461.675	11.14
461.878	10.96
462.081	11.91
462.284	11.84
462.486	11.69
462.689	11.73
462.892	12.18
463.095	11.77
463.298	10.94
463.5	10.83
463.703	10.26
463.906	9.79
464.109	9.51
464.311	8.42
464.514	8.86
464.717	8.62
464.92	8.61
465.122	8.71
465.325	8.56
465.528	9.07
465.73	9.29
465.933	10.34
466.135	9.95
466.338	10.6
466.541	11.24
466.743	11.34
466.946	11.09
467.148	11.14
467.351	11.52
467.553	11.61
467.756	11.95
467.958	11.72
468.161	11.05
468.363	11.49
468.566	10.88
468.768	10.84
468.971	10.26
469.173	10.76
469.375	11.37
469.578	10.74
469.78	10.92
469.983	10.43
470.185	10.17
470.387	10.3
470.59	10.66
470.792	10.83
470.994	10.18
471.196	10.07
471.399	9.53
471.601	9.05
471.803	9.67
472.005	9.24
472.208	8.89
472.41	8.97
472.612	8.62
472.814	8
473.016	7.69
473.218	8.49
473.421	9.09
473.623	9.04
473.825	9.08
474.027	8.77
474.229	9.2
474.431	9.14
474.633	9.63
474.835	10.31
475.037	10.8
475.239	10.81
475.441	11.01
475.643	10.26
475.845	10.18
476.047	10.33
476.249	9.79
476.451	10.29
476.653	10.62
476.855	10.89
477.057	10.63
477.258	10.57
477.46	11.04
477.662	10.84
477.864	11.59
478.066	11.77
478.268	11.81
478.469	12.11
478.671	11.96
478.873	12.19
479.075	11.91
479.276	12.26
479.478	12.35
479.68	11.77
479.882	11.25
480.083	11.39
480.285	11.35
480.487	11.06
480.688	11.59
480.89	11.42
481.091	11.64
481.293	11.56
481.495	11.18
481.696	10.63
481.898	10.95
482.099	11.2
482.301	11
482.502	11.13
482.704	11.16
482.905	10.85
483.107	10.74
483.308	10.46
483.51	10.56
483.711	10.62
483.913	10.78
484.114	10.76
484.315	10.67
484.517	10.69
484.718	10.68
484.92	10.86
485.121	10.84
485.322	10.91
485.524	11.11
485.725	10.89
485.926	10.83
486.127	11.05
486.329	10.93
486.53	10.82
486.731	10.52
486.932	10.36
487.134	10.09
487.335	10.2
487.536	10.22
487.737	10.26
487.938	10.38
488.139	10.27
488.341	10.07
488.542	10.02
488.743	10.13
488.944	10.37
489.145	10.33
489.346	10.36
489.547	10.26
489.748	10.13
489.949	10.22
490.15	10.17
490.351	10.46
490.552	10.3
490.753	10.35
490.954	10.22
491.155	10.39
491.356	10.59
491.557	10.44
491.758	10.49
491.959	10.71
492.159	10.49
492.36	10.49
492.561	10.34
492.762	10.45
492.963	10.6
493.164	10.91
493.364	10.85
493.565	10.6
493.766	11.05
493.967	11.12
494.167	10.7
494.368	10.72
494.569	10.78
494.769	10.61
494.97	10.43
495.171	10.44
495.371	10.45
495.572	10.33
495.773	10.47
495.973	10.63
496.174	10.52
496.375	10.99
496.575	11.27
496.776	11.27
496.976	11.33
497.177	11.78
497.377	11.48
497.578	11.12
497.778	10.88
497.979	11.01
498.179	10.84
498.38	11.28
498.58	10.31
498.78	10.37
498.981	10.54
499.181	10.84
499.382	10.43
499.582	10.57
499.782	10.69
499.983	10.99
500.183	11.29
500.383	11.17
500.584	10.89
500.784	11.49
500.984	11.24
501.184	10.85
501.385	10.69
501.585	11.12
501.785	11.16
501.985	11.44
502.185	11.13
502.386	11.1
502.586	11.08
502.786	11.44
502.986	11.74
503.186	11.21
503.386	11.13
503.586	10.7
503.786	10.58
503.987	10.49
504.187	10.67
504.387	11.06
504.587	10.55
504.787	11
504.987	10.78
505.187	10.79
505.387	11.45
505.587	11.6
505.786	12.06
505.986	11.84
506.186	11.91
506.386	11.48
506.586	11.56
506.786	12.09
506.986	11.83
507.186	11.63
507.386	11.16
507.585	11.02
507.785	11.37
507.985	11.33
508.185	11.62
508.384	11.39
508.584	11.21
508.784	10.82
508.984	10.48
509.183	10.47
509.383	10.73
509.583	11.26
509.782	11.65
509.982	11.57
510.182	11.91
510.381	11.95
510.581	12.46
510.781	12.74
510.98	13.02
511.18	13.1
511.379	13.11
511.579	13.47
511.778	13.7
511.978	13.4
512.177	13.51
512.377	12.85
512.576	12.67
512.776	12.64
512.975	12.67
513.175	13.05
513.374	13.47
513.573	13.38
513.773	13.46
513.972	13.4
514.172	13.6
514.371	13.4
514.57	13.89
514.77	13.97
514.969	13.91
515.168	14.16
515.367	13.68
515.567	13.48
515.766	13.79
515.965	13.23
516.164	13.11
516.364	13.17
516.563	13.43
516.762	13.55
516.961	13.88
517.16	14.14
517.359	14.27
517.559	14.55
517.758	14.4
517.957	14.69
518.156	15.16
518.355	15.51
518.554	15.56
518.753	15.65
518.952	15.91
519.151	15.73
519.35	15.54
519.549	15.39
519.748	15.49
519.947	15.48
520.146	15.26
520.345	15.04
520.544	15.11
520.743	15.06
520.942	15.16
521.141	14.99
521.339	15.35
521.538	15.99
521.737	16.11
521.936	16.42
522.135	17.09
522.333	17.33
522.532	17.42
522.731	17.57
522.93	17.74
523.129	17.67
523.327	18.15
523.526	18.27
523.725	17.94
523.923	17.96
524.122	17.59
524.321	17.67
524.519	17.87
524.718	17.96
524.917	17.56
525.115	17.56
525.314	17.63
525.512	17.63
525.711	17.54
525.909	17.97
526.108	18.24
526.306	18.38
526.505	18.47
526.703	18.46
526.902	18.66
527.1	18.7
527.299	18.9
527.497	19.02
527.696	19.04
527.894	18.98
528.092	18.82
528.291	18.82
528.489	18.96
528.688	19.09
528.886	19.11
529.084	19.16
529.283	19.41
529.481	19.32
529.679	19.28
529.877	19.21
530.076	19.43
530.274	19.68
530.472	19.84
530.67	20.01
530.869	19.75
531.067	19.9
531.265	19.66
531.463	19.66
531.661	19.84
531.859	19.96
532.057	20.04
532.255	20.2
532.454	20.26
532.652	20.2
532.85	20.19
533.048	20.52
533.246	20.42
533.444	20.65
533.642	20.73
533.84	20.88
534.038	20.9
534.236	21.04
534.434	21.1
534.632	21.23
534.83	21.54
535.027	21.92
535.225	21.68
535.423	22
535.621	22.22
535.819	22.24
536.017	22.4
536.215	22.69
536.412	22.88
536.61	23.02
536.808	23.04
537.006	23.27
537.203	23.26
537.401	23.5
537.599	23.72
537.797	23.79
537.994	24.11
538.192	23.86
538.39	23.89
538.587	24.06
538.785	24.13
538.983	24.25
539.18	24.21
539.378	24.14
539.575	24.21
539.773	23.81
539.97	23.83
540.168	23.71
540.366	23.83
540.563	23.8
540.761	23.71
540.958	23.43
541.155	23.21
541.353	23.07
541.55	22.97
541.748	22.88
541.945	23.12
542.143	23.13
542.34	23.12
542.537	23.28
542.735	23.35
542.932	23.34
543.129	23.74
543.327	24.15
543.524	24.05
543.721	24.09
543.919	23.96
544.116	23.83
544.313	23.69
544.51	23.83
544.708	23.73
544.905	23.82
545.102	23.98
545.299	24.06
545.496	23.73
545.693	23.99
545.891	24.21
546.088	24.54
546.285	24.87
546.482	24.92
546.679	24.79
546.876	25.05
547.073	25.18
547.27	25.15
547.467	25.32
547.664	25.76
547.861	25.79
548.058	26.28
548.255	26.4
548.452	26.28
548.649	26.86
548.846	27.42
549.043	27.19
549.24	27.16
549.437	27.73
549.633	26.92
549.83	26.67
550.027	26.73
550.224	26.24
550.421	26.51
550.618	26.61
550.814	26.27
551.011	26.22
551.208	26.24
551.405	26.4
551.601	25.74
551.798	26.47
551.995	26.43
552.191	26.56
552.388	26.3
552.585	25.85
552.781	25.98
552.978	25.64
553.175	25.54
553.371	25.35
553.568	25.49
553.764	25.61
553.961	25.48
554.157	25.57
554.354	25.9
554.55	26.65
554.747	27.92
554.943	27.86
555.14	28.06
555.336	27.99
555.533	28.1
555.729	28.11
555.926	28.51
556.122	28.85
556.318	29.18
556.515	29.76
556.711	29.54
556.907	28.58
557.104	28.54
557.3	29.07
557.496	29.29
557.693	29.85
557.889	29.87
558.085	29.82
558.281	29.89
558.478	29.77
558.674	29.11
558.87	29.46
559.066	29.28
559.262	29.58
559.459	29.23
559.655	29.22
559.851	29.3
560.047	29.11
560.243	28.98
560.439	29.02
560.635	29.4
560.831	29.75
561.027	29.09
561.223	29.1
561.419	28.98
561.615	29.09
561.811	29.07
562.007	28.98
562.203	29.46
562.399	29.35
562.595	29.49
562.791	29.55
562.987	29.85
563.183	30.19
563.379	30.55
563.575	30.35
563.771	30.34
563.966	30.35
564.162	30.32
564.358	30.26
564.554	30.4
564.75	29.9
564.945	29.8
565.141	29.63
565.337	29.83
565.533	29.66
565.728	29.7
565.924	29.95
566.12	30.09
566.315	29.92
566.511	29.77
566.707	29.96
566.902	29.77
567.098	30.13
567.293	29.66
567.489	29.41
567.684	29.22
567.88	29.1
568.076	28.52
568.271	28.69
568.467	28.9
568.662	28.8
568.858	28.4
569.053	29.22
569.248	28.84
569.444	29.81
569.639	29.67
569.835	30.14
570.03	30.17
570.225	30.34
570.421	29.85
570.616	29.97
570.812	30.07
571.007	30.11
571.202	29.8
571.397	29.78
571.593	29.14
571.788	29.51
571.983	29.2
572.178	29.64
572.374	29.79
572.569	29.96
572.764	30.14
572.959	30.08
573.154	30.73
573.35	30.78
573.545	30.84
573.74	30.99
573.935	30.62
574.13	30.4
574.325	30.29
574.52	30.59
574.715	31.08
574.91	31.03
575.105	31.34
575.3	31.11
575.495	31.33
575.69	31
575.885	30.73
576.08	30.72
576.275	31.33
576.47	31.59
576.665	31.37
576.86	30.61
577.055	30.21
577.25	29.84
577.444	29.72
577.639	29.77
577.834	30.21
578.029	30.71
578.224	31.05
578.418	31.45
578.613	31.54
578.808	31.92
579.003	32.66
579.197	32.94
579.392	33.3
579.587	33.49
579.781	32.93
579.976	32.58
580.171	32.7
580.365	32.55
580.56	32.68
580.755	31.94
580.949	31.94
581.144	31.6
581.338	31.51
581.533	31.13
581.727	30.66
581.922	31
582.116	31.64
582.311	31.35
582.505	31.2
582.7	31.24
582.894	31.46
583.089	30.84
583.283	30.76
583.478	30.34
583.672	30.38
583.866	30.65
584.061	30.88
584.255	31.23
584.449	31.58
584.644	32
584.838	31.9
585.032	32.04
585.226	32.77
585.421	33.52
585.615	34.7
585.809	34.92
586.003	34.37
586.198	33.89
586.392	33.82
586.586	33.46
586.78	34.02
586.974	33.23
587.168	33.66
587.363	33.65
587.557	33.19
587.751	33.29
587.945	33.7
588.139	35.08
588.333	35.46
588.527	35.16
588.721	35.27
588.915	34.74
589.109	35.13
589.303	35.05
589.497	35.29
589.691	35.52
589.885	35.11
590.079	35.36
590.273	34.2
590.466	33.73
590.66	33.04
590.854	32.99
591.048	32.31
591.242	32.56
591.436	31.92
591.629	31.61
591.823	31.56
592.017	31.57
592.211	31.52
592.404	31.87
592.598	32.5
592.792	32.94
592.986	33.23
593.179	33.75
593.373	33.36
593.567	34.17
593.76	34.31
593.954	33.76
594.147	34.01
594.341	34.03
594.535	34.25
594.728	33.56
594.922	33.92
595.115	33.77
595.309	34.04
595.502	34.41
595.696	34.26
595.889	33.64
596.083	34.34
596.276	34.19
596.47	34.01
596.663	34.19
596.856	34.83
597.05	34.37
597.243	34.36
597.437	34.53
597.63	34.41
597.823	34.24
598.017	35.16
598.21	34.99
598.403	34.94
598.596	35.01
598.79	34.43
598.983	34.3
599.176	35.02
599.369	34.75
599.563	34.74
599.756	34.37
599.949	34.75
600.142	34.39
600.335	34.33
600.528	33.86
600.722	33.57
600.915	34.22
601.108	33.93
601.301	34.3
601.494	34.13
601.687	33.59
601.88	33.76
602.073	32.84
602.266	32.94
602.459	32.47
602.652	32.75
602.845	32.87
603.038	32.95
603.231	32.86
603.424	32.04
603.617	32.33
603.809	32.44
604.002	32.28
604.195	32.84
604.388	32.7
604.581	33.4
604.774	33.53
604.966	33.18
605.159	32.75
605.352	33.11
605.545	33.46
605.737	33.29
605.93	33
606.123	33.38
606.316	33.87
606.508	34.09
606.701	33.6
606.894	34.23
607.086	34.82
607.279	34.97
607.471	35.76
607.664	35.61
607.857	35.43
608.049	35.86
608.242	35.52
608.434	35.19
608.627	35.42
608.819	35.44
609.012	35.07
609.204	34.5
609.397	34.76
609.589	33.9
609.782	34.73
609.974	34.76
610.166	34.93
610.359	35.26
610.551	35.37
610.743	35.36
610.936	35.75
611.128	36.07
611.32	36.81
611.513	36.93
611.705	37.3
611.897	36.98
612.09	37.8
612.282	38.06
612.474	38.29
612.666	38.28
612.858	37.64
613.051	37.9
613.243	37.44
613.435	37.09
613.627	37
613.819	37.56
614.011	37.1
614.203	36.44
614.395	36.01
614.588	35.36
614.78	35.82
614.972	37.02
615.164	37.42
615.356	37.99
615.548	38.13
615.74	38.13
615.932	37.09
616.124	37.2
616.315	37.9
616.507	38.02
616.699	38.17
616.891	37.73
617.083	37.49
617.275	36.65
617.467	35.47
617.659	35.54
617.85	34.78
618.042	35
618.234	35.05
618.426	35.37
618.618	35.91
618.809	35.77
619.001	36.25
619.193	35.23
619.384	36.12
619.576	37.31
619.768	38.01
619.959	37.69
620.151	38.04
620.343	37.34
620.534	36.76
620.726	35.67
620.917	36.36
621.109	36.14
621.301	36.16
621.492	35.73
621.684	34.71
621.875	33.72
622.067	35.34
622.258	34.74
622.45	35.12
622.641	35.53
622.832	36.99
623.024	36.71
623.215	35.3
623.407	35.72
623.598	35.1
623.789	35.65
623.981	36.75
624.172	35.81
624.363	36.42
624.555	36.64
624.746	36.5
624.937	35.56
625.129	35.13
625.32	36.1
625.511	36.32
625.702	36.81
625.893	36.93
626.085	36.61
626.276	37.04
626.467	36.86
626.658	37.75
626.849	37.26
627.04	36.89
627.231	37.51
627.422	37.58
627.614	37.22
627.805	37.05
627.996	37.12
628.187	36.97
628.378	37.04
628.569	37.14
628.76	36.92
628.951	36.98
629.142	38.35
629.332	37.95
629.523	37.68
629.714	38.21
629.905	38.56
630.096	38.54
630.287	38.52
630.478	38.57
630.669	39.19
630.859	37.99
631.05	38.86
631.241	38.44
631.432	38.82
631.623	39.05
631.813	38.98
632.004	38.42
632.195	38.4
632.385	38.41
632.576	38.41
632.767	38.43
632.957	39.57
633.148	39.15
633.339	38.91
633.529	38.84
633.72	38.98
633.91	39.14
634.101	39.76
634.292	39.89
634.482	39.59
634.673	39.58
634.863	39.54
635.054	38.99
635.244	39.98
635.435	40.39
635.625	40.72
635.815	41.2
636.006	41.06
636.196	40.72
636.387	41.14
636.577	41.62
636.767	41.63
636.958	40.83
637.148	41.48
637.338	40.31
637.529	39.59
637.719	39.72
637.909	38.8
638.099	38.73
638.29	39.49
638.48	38.45
638.67	37.91
638.86	38.26
639.05	38.19
639.241	37.06
639.431	37.37
639.621	38.66
639.811	37.85
640.001	38.19
640.191	38.42
640.381	37.27
640.571	38.14
640.761	37.73
640.951	37.42
641.141	38.95
641.331	39.25
641.521	39.28
641.711	38.49
641.901	39.57
642.091	40.53
642.281	40.18
642.471	41.14
642.661	41.83
642.851	42.86
643.041	43.22
643.231	42.32
643.42	43.48
643.61	43.23
643.8	42.94
643.99	41.97
644.18	41.58
644.369	42.73
644.559	43.16
644.749	41.89
644.939	41.13
645.128	40.48
645.318	41.02
645.508	39.8
645.697	39.94
645.887	41.33
646.076	42.28
646.266	41.81
646.456	41.71
646.645	40.25
646.835	41.12
647.024	42.23
647.214	40.77
647.403	40.07
647.593	41.39
647.782	41.76
647.972	40.78
648.161	39.45
648.351	39.78
648.54	39.64
648.73	39.98
648.919	40.04
649.108	40.11
649.298	41.69
649.487	41.43
649.677	41.21
649.866	41.46
650.055	41.49
650.244	42.08
650.434	42.78
650.623	42.7
650.812	43.55
651.002	43.29
651.191	42.53
651.38	42.53
651.569	43.23
651.758	42.43
651.947	43.39
652.137	43.97
652.326	44.31
652.515	43.57
652.704	42.61
652.893	42.35
653.082	42.42
653.271	42.76
653.46	43.17
653.649	43.89
653.838	44.2
654.027	43.32
654.216	43.27
654.405	43.44
654.594	43.24
654.783	45.26
654.972	45.23
655.161	44.76
655.35	44.45
655.539	44.08
655.728	43.05
655.916	42.36
656.105	42.29
656.294	41.76
656.483	42.58
656.672	43.23
656.86	42.19
657.049	42.17
657.238	42.34
657.427	43.17
657.615	43.66
657.804	42.76
657.993	43
658.181	42.43
658.37	42.58
658.559	41.5
658.747	41.22
658.936	41.23
659.125	41.12
659.313	41.32
659.502	40.89
659.69	40.85
659.879	41.95
660.067	42.38
660.256	42.36
660.444	42.91
660.633	43.94
660.821	43.69
661.01	43.78
661.198	43.43
661.387	43.56
661.575	42.99
661.763	44.24
661.952	43.73
662.14	42.55
662.328	42.86
662.517	41.94
662.705	41
662.893	41.61
663.082	42.67
663.27	43.39
663.458	44.14
663.646	45.92
663.834	44.11
664.023	44.17
664.211	44.67
664.399	46.11
664.587	47.23
664.775	47.19
664.963	47.53
665.152	46.07
665.34	46.85
665.528	45.79
665.716	45.82
665.904	45.78
666.092	46.36
666.28	47.85
666.468	46.76
666.656	45.78
666.844	45.05
667.032	44.9
667.22	45.83
667.408	45.47
667.596	45.64
667.784	45.29
667.971	46.02
668.159	46.26
668.347	45.49
668.535	45.78
668.723	46.54
668.911	48.16
669.098	47.17
669.286	46.77
669.474	46.49
669.662	45.88
669.849	44.07
670.037	41.6
670.225	40.86
670.413	41.87
670.6	42.57
670.788	42.93
670.976	42.51
671.163	42.75
671.351	41.35
671.538	42.25
671.726	45
671.913	45.34
672.101	48.01
672.289	48.99
672.476	48.49
672.664	46.98
672.851	46.27
673.039	46.22
673.226	47.47
673.413	48.64
673.601	48.15
673.788	46.29
673.976	48.02
674.163	47.47
674.35	47.99
674.538	47.59
674.725	48.71
674.912	49.21
675.1	49.33
675.287	48.5
675.474	48.55
675.662	49.18
675.849	48.9
676.036	48.21
676.223	47.83
676.411	46.87
676.598	47.74
676.785	47.44
676.972	47.24
677.159	47.1
677.346	47.78
677.533	48.1
677.721	46.89
677.908	46.63
678.095	46.33
678.282	45.58
678.469	44.95
678.656	42.95
678.843	42.96
679.03	42.32
679.217	42.29
679.404	41.65
679.591	39.99
679.778	41
679.964	40.59
680.151	40.79
680.338	41.97
680.525	42.11
680.712	43.15
680.899	43.14
681.086	42.49
681.272	43.29
681.459	43.09
681.646	44.54
681.833	43.62
682.02	45.55
682.206	45.76
682.393	45.55
682.58	45.42
682.766	45.83
682.953	45.27
683.14	46.33
683.326	44.77
683.513	44.87
683.7	44.76
683.886	44.08
684.073	42.89
684.259	43.53
684.446	43.81
684.632	44.83
684.819	45.01
685.005	44.83
685.192	45.34
685.378	46.24
685.565	47.49
685.751	49.11
685.938	50.3
686.124	50.07
686.31	50.13
686.497	50.05
686.683	49.26
686.87	48.4
687.056	49.03
687.242	47.62
687.429	47.57
687.615	45.48
687.801	43.56
687.987	42.7
688.174	44.55
688.36	43.35
688.546	43.06
688.732	43.33
688.918	43.9
689.105	43.8
689.291	45.12
689.477	45.38
689.663	46.41
689.849	47.86
690.035	48.48
690.221	48.25
690.407	48.37
690.593	49.46
690.779	49.82
690.965	49.4
691.151	49.74
691.337	50.03
691.523	50.09
691.709	49.23
691.895	48.37
692.081	48.06
692.267	46.78
692.453	47.96
692.639	48.42
692.825	47.81
693.011	48.7
693.196	49.08
693.382	48.63
693.568	47.55
693.754	48.09
693.94	47.54
694.125	48.15
694.311	49.82
694.497	49.41
694.682	48.24
694.868	48.57
695.054	50.14
695.239	48.77
695.425	48.95
695.611	49.41
695.796	49.73
695.982	49.07
696.168	48.2
696.353	45.66
696.539	45.66
696.724	45.76
696.91	45.76
697.095	43.69
697.281	43.27
697.466	43.32
697.652	43.35
697.837	43.52
698.023	43.43
698.208	43.48
698.393	43.72
698.579	43.65
698.764	43.41
698.949	44.41
699.135	45.03
699.32	46.17
699.505	45.18
699.691	45.19
699.876	44.71
700.061	46.24
700.246	46.5
700.432	47.4
700.617	46.96
700.802	47.7
700.987	46.22
701.172	46.41
701.358	45.94
701.543	46.08
701.728	47.12
701.913	46.63
702.098	46.48
702.283	45.48
702.468	44.96
702.653	46.02
702.838	45.35
703.023	46.68
703.208	46.93
703.393	46.78
703.578	49.22
703.763	48.54
703.948	51.55
704.133	52.28
704.318	54.36
704.503	54.52
704.688	54.49
704.873	55.84
705.057	55.53
705.242	54.72
705.427	55.79
705.612	53.28
705.797	55.21
705.981	55.29
706.166	54.63
706.351	52.12
706.536	51.33
706.72	50.94
706.905	50.41
707.09	49.59
707.274	50.14
707.459	50.19
707.644	50.55
707.828	48.67
708.013	47.25
708.197	47.98
708.382	50.83
708.567	51.88
708.751	49.91
708.936	50.26
709.12	50.58
709.305	50.65
709.489	49.61
709.673	50.99
709.858	50.74
710.042	50.27
710.227	48.12
710.411	45.97
710.596	43.94
710.78	45.04
710.964	43.54
711.149	44.37
711.333	46.2
711.517	46.71
711.702	46.28
711.886	46.28
712.07	46.46
712.254	47.55
712.438	47.75
712.623	48.98
712.807	49.16
712.991	50
713.175	51.38
713.359	49.66
713.544	49.79
713.728	48.51
713.912	49.44
714.096	50.1
714.28	49.63
714.464	50.14
714.648	50.25
714.832	51.47
715.016	51.86
715.2	49.01
715.384	48.26
715.568	48.58
715.752	49.27
715.936	48.48
716.12	48.26
716.304	48.82
716.488	49.22
716.671	50.33
716.855	48.97
717.039	50.31
717.223	51.38
717.407	53.74
717.59	55.34
717.774	57.23
717.958	56.51
718.142	57.29
718.325	58.32
718.509	59.34
718.693	57.54
718.877	58.01
719.06	55.88
719.244	57.19
719.428	58.98
719.611	56
719.795	55.59
719.978	57.73
720.162	58.19
720.345	60.73
720.529	60.26
720.713	61.88
720.896	62.89
721.08	63.61
721.263	63.38
721.446	61.08
721.63	62.19
721.813	64.04
721.997	62.01
722.18	62.47
722.364	59.46
722.547	60.83
722.73	61.41
722.914	60.94
723.097	59.48
723.28	57.62
723.464	56.37
723.647	56.01
723.83	53.55
724.013	54.97
724.197	53.55
724.38	50.76
724.563	49.19
724.746	49.59
724.929	50.35
725.112	52.41
725.296	52.97
725.479	52.62
725.662	54.57
725.845	54.82
726.028	53.95
726.211	55.11
726.394	59.08
726.577	61.32
726.76	59.16
726.943	60.06
727.126	60.12
727.309	61.28
727.492	60.73
727.675	58.87
727.858	58.66
728.041	58.88
728.224	58.9
728.407	58.18
728.589	56.35
728.772	57.33
728.955	54.98
729.138	53.55
729.321	51.73
729.503	53.14
729.686	52.22
729.869	51.78
730.052	52.1
730.234	52.89
730.417	53.01
730.6	53.53
730.782	52.65
730.965	51.71
731.148	51.7
731.33	52.72
731.513	50.56
731.695	53.84
731.878	54.31
732.061	55.16
732.243	51.97
732.426	52.34
732.608	50.43
732.791	50.34
732.973	53.13
733.156	53.02
733.338	52.05
733.52	52.98
733.703	50.92
733.885	52.72
734.068	54.08
734.25	55.24
734.432	53.22
734.615	52.83
734.797	53.73
734.979	52.95
735.162	53.69
735.344	52.96
735.526	54.79
735.708	54.69
735.891	54.44
736.073	52.33
736.255	52.88
736.437	55.58
736.619	58.28
736.802	58.6
736.984	57.87
737.166	56.82
737.348	58.97
737.53	58.11
737.712	56.69
737.894	54.94
738.076	55.21
738.258	54.7
738.44	52.82
738.622	50.69
738.804	50.25
738.986	52.5
739.168	54.19
739.35	53.43
739.532	53.42
739.714	56.98
739.896	58.79
740.078	56.54
740.259	59.78
740.441	59.67
740.623	59.77
740.805	61.6
740.987	62.38
741.168	60.32
741.35	61.61
741.532	58.45
741.714	56.18
741.895	56.74
742.077	58.1
742.259	55.46
742.44	57.22
742.622	58.19
742.804	56.67
742.985	54.25
743.167	55.89
743.348	58.57
743.53	63.85
743.711	63.23
743.893	61.89
744.075	65.43
744.256	69.38
744.438	67.69
744.619	66.64
744.8	64.92
744.982	65.11
745.163	65.53
745.345	61.96
745.526	60
745.707	62.42
745.889	62.64
746.07	61.08
746.252	56.28
746.433	58.12
746.614	58.2
746.795	61
746.977	62.09
747.158	61.28
747.339	61.69
747.52	62.5
747.702	61.62
747.883	60.9
748.064	60.84
748.245	60.31
748.426	59.94
748.607	63.17
748.788	58.84
748.97	56.96
749.151	56.11
749.332	54.18
749.513	54.01
749.694	54.53
749.875	55.06
750.056	55.99
750.237	54.46
750.418	55.66
750.599	52.17
750.78	54.68
750.96	53.51
751.141	55.56
751.322	56.07
751.503	52.67
751.684	51.59
751.865	50.34
752.046	49.13
752.226	56.28
752.407	54.34
752.588	55.92
752.769	56.08
752.949	61.19
753.13	62.64
753.311	59.87
753.492	59.37
753.672	58.43
753.853	63.33
754.034	61.34
754.214	55.16
754.395	55.69
754.575	58.94
754.756	59.92
754.937	57.4
755.117	54.56
755.298	61.87
755.478	69.27
755.659	73.38
755.839	67.32
756.02	69.78
756.2	69.92
756.381	68.62
756.561	66.11
756.741	66.28
756.922	65.56
757.102	63.77
757.283	58.43
757.463	56.5
757.643	55.94
757.823	56.71
758.004	58.41
758.184	55.57
758.364	58.78
758.545	54.79
758.725	52.01
758.905	54.85
759.085	56.42
759.265	59.79
759.446	57.74
759.626	54.54
759.806	53.69
759.986	50.73
760.166	50.19
760.346	47.11
760.526	51.51
760.706	53.14
760.886	51.43
761.066	51.04
761.246	49.57
761.426	53.73
761.606	54.09
761.786	56.46
761.966	56.91
762.146	58.03
762.326	56.03
762.506	56.39
762.686	56.43
762.866	55.36
763.046	55.95
763.225	54.69
763.405	51.75
763.585	52.06
763.765	52.44
763.945	52.03
764.124	54.46
764.304	55.65
764.484	54.36
764.664	53.71
764.843	53.81
765.023	49.74
765.203	52.17
765.382	51.17
765.562	52.49
765.741	51.16
765.921	54.88
766.101	52.48
766.28	52.71
766.46	54.09
766.639	54.55
766.819	55.53
766.998	63.69
767.178	62
767.357	69.57
767.537	67.92
767.716	70.95
767.896	66.24
768.075	65.66
768.254	69.35
768.434	66.21
768.613	66.83
768.792	64.02
768.972	63.25
769.151	67.54
769.33	62.09
769.51	66.26
769.689	63.97
769.868	65.44
770.047	66.52
770.226	64.72
770.406	67.2
770.585	69.52
770.764	68.44
770.943	64.88
771.122	60.65
771.301	55.89
771.48	53.32
771.66	50.54
771.839	52.96
772.018	53.71
772.197	53.98
772.376	53.69
772.555	51.75
772.734	56.89
772.913	61.71
773.092	60.64
773.271	69.04
773.449	71.08
773.628	74.71
773.807	70.55
773.986	70.12
774.165	74.75
774.344	75.99
774.523	77.98
774.701	81.94
774.88	79.91
775.059	83.86
775.238	83.79
775.417	82.12
775.595	80.13
775.774	79.67
775.953	81.86
776.131	72.68
776.31	69.64
776.489	68.97
776.667	59.92
776.846	59.46
777.025	56.32
777.203	53.86
777.382	51.38
777.56	55.98
777.739	59.14
777.917	56.46
778.096	61.31
778.274	59.72
778.453	59.94
778.631	64.27
778.81	63.72
778.988	68.41
779.166	69.43
779.345	73.64
779.523	67.61
779.702	65.21
779.88	61.41
780.058	62.94
780.237	61.11
780.415	64.26
780.593	68.84
780.771	77.31
780.95	75.52
781.128	72.68
781.306	69.91
781.484	71.16
781.662	75.63
781.841	81.11
782.019	86.01
782.197	90.11
782.375	86.55
782.553	83.67
782.731	74.9
782.909	73.67
783.087	73.04
783.265	77.13
783.443	78.12
783.621	77.35
783.799	74.39
783.977	72.65
784.155	73.29
784.333	69.56
784.511	66.9
784.689	66.89
784.867	67.26
785.045	68.32
785.223	64.42
785.4	61.91
785.578	59.14
785.756	59.38
785.934	54.79
786.112	52.51
786.289	56.23
786.467	53.05
786.645	58.4
786.823	61.53
787	64.17
787.178	65.47
787.356	66.5
787.533	66.02
787.711	69.18
787.889	70.22
788.066	72.29
788.244	72.37
788.421	72.49
788.599	67.98
788.776	65.34
788.954	62.28
789.131	61.77
789.309	58.42
789.486	54.42
789.664	54.17
789.841	57.07
790.019	63.36
790.196	63.03
790.373	71.59
790.551	72.24
790.728	79.53
790.906	82.11
791.083	89.02
791.26	98.51
791.437	97.59
791.615	102.47
791.792	101.72
791.969	91.95
792.146	91.55
792.324	92.84
792.501	90.69
792.678	84.84
792.855	80.6
793.032	72.69
793.209	72.49
793.387	72.76
793.564	69.11
793.741	64.92
793.918	67.24
794.095	67.14
794.272	64.46
794.449	67.26
794.626	66.28
794.803	67.41
794.98	69.59
795.157	66.28
795.334	69.68
795.511	66.65
795.688	71.03
795.864	70.26
796.041	68.27
796.218	65.75
796.395	65.92
796.572	66.32
796.749	66.93
796.925	61.59
797.102	58.25
797.279	60.62
797.456	61.12
797.632	54.99
797.809	57.52
797.986	57.96
798.162	59.38
798.339	55.11
798.516	61.42
798.692	58.99
798.869	67.53
799.046	67.76
799.222	65.43
799.399	67.72
799.575	69.58
799.752	61.24
799.928	59.49
800.105	62.74
800.281	65.4
800.458	60.52
800.634	66.01
800.811	63.75
800.987	60.98
801.163	68.44
801.34	69.11
801.516	71.32
801.692	82.76
801.869	86.02
802.045	84.36
802.221	80.53
802.398	81.39
802.574	77.9
802.75	75.24
802.926	90.32
803.103	84.53
803.279	80.44
803.455	82.44
803.631	75.27
803.807	70.81
803.983	68.23
804.16	71.08
804.336	72.83
804.512	68.84
804.688	68.39
804.864	59.25
805.04	55.33
805.216	62.29
805.392	57.27
805.568	59.06
805.744	61.14
805.92	60.79
806.096	66.88
806.272	60.82
806.448	72.67
806.623	73.97
806.799	77.02
806.975	76.34
807.151	73.13
807.327	82.32
807.503	83.55
807.678	86.81
807.854	90.49
808.03	82.65
808.206	89.68
808.381	88.38
808.557	92.56
808.733	89.08
808.908	85.76
809.084	89.09
809.26	68.86
809.435	59.95
809.611	64.97
809.787	57.4
809.962	64.17
810.138	59.07
810.313	61.79
810.489	61.62
810.664	64.68
810.84	67.5
811.015	61.3
811.191	67.71
811.366	73.68
811.542	71.26
811.717	83.91
811.892	81.86
812.068	79.13
812.243	80.1
812.419	77.69
812.594	70.85
812.769	79.83
812.944	82.7
813.12	90.03
813.295	91.22
813.47	74.94
813.645	67.1
813.821	66.79
813.996	69.87
814.171	62.15
814.346	68.32
814.521	71.02
814.697	57.27
814.872	61.29
815.047	62.67
815.222	65.68
815.397	73.18
815.572	72.45
815.747	72.74
815.922	76.57
816.097	74.84
816.272	70.05
816.447	72.39
816.622	80.79
816.797	77.63
816.972	68.8
817.147	66.5
817.322	59.8
817.496	57.45
817.671	47.84
817.846	42.14
818.021	46.67
818.196	49.58
818.371	51.98
818.545	53.78
818.72	50.31
818.895	47.89
819.069	45.13
819.244	51.03
819.419	51.85
819.594	54.93
819.768	53.78
819.943	45.45
820.117	41.42
820.292	37.46
820.467	37.33
820.641	38.54
820.816	40.54
820.99	40.69
821.165	39.73
821.339	40.25
821.514	39.84
821.688	39.86
821.863	41.23
822.037	42.76
822.212	41.79
822.386	41.18
822.56	40.61
822.735	39.29
822.909	40.28
823.084	40.93
823.258	39.41
823.432	40.21
823.606	39.58
823.781	39.31
823.955	37.9
824.129	38.83
824.303	39.38
824.478	39.75
824.652	40.26
824.826	35.85
825	35.46
825.174	36.78
825.348	35.53
825.523	36.14
825.697	35.66
825.871	36.3
826.045	39.12
826.219	40.05
826.393	40.57
826.567	44.03
826.741	47.36
826.915	48.02
827.089	49.66
827.263	49.88
827.437	49
827.611	49.68
827.784	50.43
827.958	46.64
828.132	45.9
828.306	46.22
828.48	43.41
828.654	42.13
828.827	42.68
829.001	37.94
829.175	38.86
829.349	42.49
829.522	40.7
829.696	39.31
829.87	48.55
830.044	49.84
830.217	48.16
830.391	47.46
830.565	48.04
830.738	41.77
830.912	45.83
831.085	42.13
831.259	30.55
831.432	38.08
831.606	35.14
831.779	33
831.953	28.44
832.126	34.46
832.3	30.22
832.473	29.49
832.647	35.09
832.82	31.49
832.994	33.87
833.167	39.22
833.34	35.04
833.514	36.49
833.687	36.72
833.86	39.73
834.034	34.06
834.207	39.05
834.38	39
834.553	35.72
834.727	37.65
834.9	37.93
835.073	41.36
835.246	44.18
835.419	43.09
835.593	43.21
835.766	41.28
835.939	49.68
836.112	46.65
836.285	50.62
836.458	58.13
836.631	57.11
836.804	52.82
836.977	47.95
837.15	45.06
837.323	48.6
837.496	46.11
837.669	41.2
837.842	37.62
838.015	46.18
838.188	47.03
838.361	38.21
838.533	39.7
838.706	64.7
838.879	75.37
839.052	78.53
839.225	85.6
839.398	87.53
839.57	82.93
839.743	74.88
839.916	66.46
840.088	59.79
840.261	60.96
840.434	71.65
840.607	70.46
840.779	68.79
840.952	68.17
841.124	76.44
841.297	73.49
841.47	73.73
841.642	80.16
841.815	86.14
841.987	88.57
842.16	97.43
842.332	88.14
842.505	79.75
842.677	93.88
842.85	94.69
843.022	87.93
843.194	98.78
843.367	113.42
843.539	112.19
843.712	100.7
843.884	122.82
844.056	101.26
844.229	126.11
844.401	141.3
844.573	114.05
844.745	104.05
844.918	94.33
845.09	128.56
845.262	132.54
845.434	159.47
845.606	176.68
845.779	170.86
845.951	390.9
846.123	356.62
846.295	383.48
846.467	251
846.639	249.92
846.811	635.24
846.983	325.75
847.155	525.3
847.327	239.25
847.499	181.96
847.671	209.71
847.843	184.39
848.015	213.85
848.187	185.71
848.359	649.77
848.531	-651.28
848.703	445.14
848.875	-987.76
849.047	1280.8
849.218	-586.79
849.39	-99.14
849.562	-107.46
849.734	-96.48
849.905	-84.44
850.077	-203.91
850.249	728.24
850.421	644.55
850.592	-906.45
850.764	326.01
850.936	95.93
851.107	34.27
851.279	41.87
851.451	21.24
851.622	16.51
851.794	14.85
851.965	5.7
852.137	25.17
852.308	42.11
852.48	34.11
852.651	17.73
852.823	20.41
852.994	-13.58
853.166	-14.3
853.337	58.75
853.509	21.81
853.68	-582.5
853.851	151.66
854.023	91.47
854.194	42.34
854.365	146.53
854.537	128.04
854.708	105.77
854.879	131.73
855.05	128.02
855.222	152.08
855.393	353.93
855.564	760.02
855.735	-438.23
855.906	-1752.24
856.078	-361.4
856.249	-998.72
856.42	-32075
856.591	1536.02
856.762	7951.32
856.933	694.96
857.104	1168.94
857.275	217.26
857.446	112.96
857.617	125.01
857.788	114.87
857.959	125.88
858.13	126.35
858.301	185.74
858.472	287.51
858.643	258.05
858.814	358.19
858.985	275.31
859.155	488.12
859.326	884.65
859.497	2486.68
859.668	-1055.06
859.839	-515.34
860.009	-307.99
860.18	-656.61
860.351	-348.23
860.522	-508.84
860.692	-377.74
860.863	-233.12
861.034	-254.59
861.204	-86.68
861.375	-19.04
861.546	-75.11
861.716	-35.3
861.887	-114.51
862.057	7328
862.228	187.55
862.398	372.35
862.569	255.25
862.739	300.17
862.91	242.94
863.08	195.6
863.251	173.11
863.421	157.63
863.592	133.56
863.762	159.71
863.932	208.82
864.103	230.68
864.273	263.55
864.443	706.41
864.614	159.92
864.784	225.81
864.954	229.8
865.125	232.46
865.295	177.85
865.465	387.23
865.635	162.57
865.805	97.39
865.976	72
866.146	88.07
866.316	80.02
866.486	107.1
866.656	97.73
866.826	120.98
866.996	236.08
867.166	472.76
867.336	441.88
867.506	2384.15
867.676	-144.89
867.846	-57.41
868.016	-36.05
868.186	-68.88
868.356	-76.61
868.526	-109.27
868.696	-106.93
868.866	-24.14
869.036	-126.03
869.206	-236.24
869.376	-271.04
869.545	377.84
869.715	231.21
869.885	134.44
870.055	109.63
870.224	143.93
870.394	126.85
870.564	112.59
870.734	104.78
870.903	79.04
871.073	60.7
871.243	56.27
871.412	58.6
871.582	102.61
871.751	143.38
871.921	143.36
872.091	67.73
872.26	37.61
872.43	22.58
872.599	58.71
872.769	98.05
872.938	92.75
873.108	97.38
873.277	56.74
873.446	53.9
873.616	48.56
873.785	33.88
873.955	40.66
874.124	34.53
874.293	69.96
874.463	35.91
874.632	0.24
874.801	19.41
874.971	2.35
875.14	27.66
875.309	10.2
875.478	18.67
875.647	-6.48
875.817	17.64
875.986	49.25
876.155	23.57
876.324	31.89
876.493	55.91
876.662	81.78
876.831	40.9
877	61.13
877.17	52.38
877.339	47.52
877.508	79.64
877.677	88.62
877.846	99.49
878.015	181.25
878.184	174.53
878.352	153.57
878.521	85.48
878.69	103.93
878.859	102.98
879.028	101.13
879.197	83.61
879.366	75.03
879.534	49.94
879.703	37.88
879.872	30.18
880.041	28.52
880.21	24.63
880.378	34.38
880.547	33.21
880.716	28.33
880.884	26.55
881.053	29.26
881.222	33.51
881.39	35.89
881.559	37.89
881.727	38.08
881.896	40.67
882.065	41.5
882.233	38.12
882.402	40.2
882.57	40.32
882.739	44.12
882.907	48.34
883.076	43.74
883.244	48.09
883.412	47.97
883.581	47.18
883.749	48.13
883.918	41.94
884.086	43.57
884.254	44.16
884.423	45.63
884.591	40.7
884.759	34.66
884.927	29.8
885.096	24.33
885.264	31.36
885.432	27.46
885.6	28.16
885.769	41.45
885.937	49.96
886.105	41.68
886.273	35.75
886.441	41.55
886.609	37.55
886.777	46.72
886.945	41.21
887.113	33.16
887.281	33.18
887.449	24.71
887.617	41.03
887.785	27.36
887.953	45.18
888.121	32.79
888.289	19.74
888.457	66.91
888.625	94.38
888.793	163.87
888.961	252.49
889.129	135.92
889.296	154.68
889.464	148.84
889.632	171.98
889.8	184.04
889.967	194.22
890.135	179.11
