Data from JASIL_3057_Reflection_02.txt Node
Date: Mon Nov 09 11:26:45 EST 2015
User: Geneva
Spectrometer: USB4E03002
Autoset integration time: false
Trigger mode: 4
Integration Time (sec): 1.000000E-1
Scans to average: 10
Electric dark correction enabled: false
Nonlinearity correction enabled: false
Boxcar width: 5
Stray light correction enabled: false
XAxis mode: Wavelengths
Stop averaging: false
Number of Pixels in Spectrum: 3648
>>>>>Begin Spectral Data<<<<<
177.575	98.55
177.794	69.92
178.014	32.49
178.233	43.34
178.452	57.07
178.672	72.97
178.891	74.2
179.11	57.94
179.33	65.27
179.549	54.02
179.768	39.87
179.987	44.39
180.207	50.86
180.426	191.94
180.645	-174.32
180.864	-132.76
181.084	139.13
181.303	131.52
181.522	341.67
181.741	86.76
181.96	-47.3
182.179	425
182.398	115
182.618	205.41
182.837	1590
183.056	185.19
183.275	249.67
183.494	176.25
183.713	194.66
183.932	183.28
184.151	208.05
184.37	172.98
184.589	477.42
184.808	-102.16
185.027	195.06
185.246	220.59
185.465	-136.19
185.684	45.45
185.903	81.9
186.122	79.25
186.341	40.5
186.56	87.29
186.779	44.58
186.998	-708.33
187.216	-173.17
187.435	-278.51
187.654	-147.13
187.873	-918.92
188.092	-191.87
188.311	-181.45
188.53	-94.48
188.748	-5.18
188.967	-18.79
189.186	47.25
189.405	-5675
189.623	815.79
189.842	228.25
190.061	577.97
190.28	193.96
190.498	26.92
190.717	318.92
190.936	-166.99
191.154	3.1
191.373	-18.1
191.592	-13.02
191.81	-59.32
192.029	-38.02
192.248	-21.8
192.466	-129.13
192.685	-51.64
192.904	-41.79
193.122	-95.7
193.341	2.44
193.559	-91.11
193.778	-388.89
193.996	-65.69
194.215	65.28
194.433	45.87
194.652	-37.35
194.87	63.64
195.089	48.8
195.307	49.2
195.526	131.82
195.744	-288.46
195.963	14.74
196.181	113.44
196.399	8.99
196.618	93.91
196.836	119.05
197.055	71.3
197.273	24.05
197.491	-34.07
197.71	19.92
197.928	-32
198.146	-72.12
198.365	10
198.583	29.01
198.801	14.09
199.019	21.4
199.238	23.87
199.456	22.34
199.674	79.57
199.892	178.84
200.111	189.62
200.329	170.4
200.547	171.04
200.765	146.9
200.983	184.52
201.202	412.78
201.42	198.6
201.638	237.98
201.856	-131.43
202.074	-10.81
202.292	138.84
202.51	-1925
202.728	-384.09
202.946	415.45
203.165	4488.89
203.383	-1350
203.601	361.65
203.819	363.16
204.037	1476.47
204.255	-55.56
204.473	-1.59
204.691	24.89
204.909	57.85
205.127	910.71
205.345	272.61
205.562	-141.33
205.78	-2325
205.998	305.84
206.216	1109.09
206.434	-630.65
206.652	1019.15
206.87	-460.92
207.088	-131.15
207.306	-82.37
207.523	-166.25
207.741	-50
207.959	-1185.71
208.177	-37.91
208.395	32.14
208.612	-26.37
208.83	-16.6
209.048	-4.36
209.266	-25.63
209.483	2.37
209.701	14.52
209.919	29.59
210.136	27.51
210.354	31.08
210.572	76.68
210.79	-100
211.007	-466.67
211.225	144.83
211.442	-1800
211.66	-31.09
211.878	34.82
212.095	209.49
212.313	241.82
212.53	341.18
212.748	286.91
212.966	365.02
213.183	5186.36
213.401	-3470.37
213.618	609.55
213.836	585.14
214.053	710.92
214.271	26466.67
214.488	107.07
214.705	-18.02
214.923	86.07
215.14	92.83
215.358	38.95
215.575	22.04
215.793	26.54
216.01	15.75
216.227	37.12
216.445	45.04
216.662	59.24
216.879	88.31
217.097	401.23
217.314	522.73
217.531	-243.14
217.749	-89.52
217.966	-40.89
218.183	-62.5
218.4	-102.21
218.618	-71.19
218.835	-20.06
219.052	39.88
219.269	20.25
219.487	95.83
219.704	179.63
219.921	55
220.138	53.51
220.355	89.86
220.572	182.4
220.79	255.34
221.007	144.24
221.224	-384.38
221.441	-2036.36
221.658	302.06
221.875	217.9
222.092	151.24
222.309	624.29
222.526	-5442.86
222.743	192.06
222.96	51.98
223.177	40.71
223.394	60.07
223.611	14.51
223.828	6.87
224.045	35.28
224.262	24.82
224.479	27.51
224.696	16.88
224.913	6.27
225.13	23.71
225.347	19.58
225.564	10.33
225.781	11.75
225.997	19.82
226.214	17.42
226.431	4.07
226.648	-3.46
226.865	-0.68
227.082	-0.58
227.298	9.63
227.515	0.84
227.732	2.29
227.949	7.59
228.165	-0.56
228.382	4.49
228.599	6.07
228.816	7.43
229.032	14.37
229.249	19.06
229.466	19.69
229.682	13.44
229.899	18.89
230.116	22.78
230.332	22.32
230.549	36.56
230.765	32.98
230.982	37.33
231.199	47.03
231.415	37.54
231.632	31.62
231.848	40.76
232.065	42.09
232.281	43.59
232.498	43.49
232.714	37.36
232.931	33.05
233.147	27.07
233.364	4.39
233.58	4.76
233.797	3.42
234.013	-5.02
234.23	-18.06
234.446	-6.81
234.662	-17.18
234.879	-7.4
235.095	8.49
235.312	11.74
235.528	17.15
235.744	30.18
235.961	24.52
236.177	30.76
236.393	36.51
236.61	47.39
236.826	44.4
237.042	39.53
237.258	46.04
237.475	46.21
237.691	46.03
237.907	44.62
238.123	34.99
238.339	22.03
238.556	13.78
238.772	11.46
238.988	-13.94
239.204	-10.11
239.42	-18.4
239.636	-10.82
239.853	-10.11
240.069	-9.67
240.285	-10.32
240.501	-4.57
240.717	4.26
240.933	9.57
241.149	5
241.365	12.86
241.581	16.06
241.797	17.15
242.013	12.74
242.229	11.93
242.445	5.84
242.661	9.08
242.877	7.1
243.093	-0.14
243.309	-6.34
243.525	2.02
243.741	-3.72
243.957	-0.42
244.173	7.11
244.388	5.6
244.604	7.85
244.82	10.76
245.036	9.92
245.252	9.3
245.468	10.86
245.683	9.76
245.899	8.6
246.115	6.97
246.331	1.55
246.547	-2.73
246.762	-2.83
246.978	-4.31
247.194	-6.15
247.409	-6.6
247.625	-5.5
247.841	-5.9
248.057	-5.1
248.272	-7.63
248.488	0.31
248.703	3.68
248.919	5.59
249.135	7.94
249.35	2.29
249.566	11.19
249.782	3.27
249.997	0.72
250.213	-0.74
250.428	1.55
250.644	3.77
250.859	1.75
251.075	9.84
251.29	10.43
251.506	12.34
251.721	17.16
251.937	12.48
252.152	16.56
252.368	19.24
252.583	20.54
252.798	18.97
253.014	14.85
253.229	11.19
253.445	3.95
253.66	10.91
253.875	11.28
254.091	15.97
254.306	21.76
254.521	16.16
254.737	13.03
254.952	10.41
255.167	12.13
255.383	17.17
255.598	14.09
255.813	10.82
256.028	2.34
256.244	-2.15
256.459	-7.24
256.674	-12.97
256.889	-6.6
257.104	-4.96
257.32	-6.88
257.535	-7.26
257.75	-6.79
257.965	-5.03
258.18	-5.08
258.395	-2.31
258.61	-1.93
258.826	-1.95
259.041	-0.9
259.256	-0.29
259.471	-2.24
259.686	-1.21
259.901	-2.31
260.116	-1.89
260.331	-1.71
260.546	-0.6
260.761	-0.69
260.976	-0.43
261.191	-1.86
261.406	-3.05
261.621	-2.07
261.836	2.78
262.05	2.01
262.265	7.08
262.48	6.22
262.695	7.92
262.91	10.38
263.125	3.18
263.34	6.45
263.555	11.33
263.769	7.13
263.984	5.55
264.199	1.38
264.414	5.1
264.629	4.16
264.843	4.77
265.058	1.6
265.273	-1.12
265.488	3.77
265.702	0.53
265.917	0.14
266.132	3.12
266.346	-0.12
266.561	-1
266.776	-2.88
266.99	-0.48
267.205	-2.29
267.42	-2.86
267.634	-1.93
267.849	-4.83
268.063	-6.61
268.278	-8.26
268.492	-7.14
268.707	2.97
268.922	9.62
269.136	9.95
269.351	8.2
269.565	5.15
269.78	8.38
269.994	8.35
270.209	7.99
270.423	7.29
270.637	7.39
270.852	3.3
271.066	1.96
271.281	1.66
271.495	2.97
271.709	0.65
271.924	1.52
272.138	0.08
272.353	-2.69
272.567	-4.05
272.781	-1.29
272.996	-3.4
273.21	1.13
273.424	0.35
273.638	-0.1
273.853	-2.61
274.067	-2.7
274.281	2.32
274.495	2.29
274.71	7.18
274.924	8.58
275.138	9.3
275.352	9.45
275.566	9.67
275.781	7.2
275.995	3.89
276.209	3.97
276.423	4.93
276.637	2.37
276.851	2.47
277.065	-0.76
277.279	-0.18
277.493	1.85
277.707	3.43
277.921	-0.43
278.135	-0.75
278.349	1.3
278.563	3.01
278.777	1.18
278.991	5.63
279.205	6.12
279.419	8.39
279.633	8.04
279.847	6.37
280.061	3.11
280.275	6.38
280.489	2.47
280.703	2.51
280.917	0.2
281.131	1.88
281.344	1.35
281.558	-2.33
281.772	-2.93
281.986	-1.48
282.2	-3.98
282.414	-2.83
282.627	-1.01
282.841	3.28
283.055	1.95
283.269	5.38
283.482	1.89
283.696	-0.57
283.91	3.28
284.123	2.01
284.337	1.9
284.551	2.77
284.764	3.91
284.978	-0.02
285.192	-3.2
285.405	-2.95
285.619	-4.19
285.833	-2.87
286.046	-4.33
286.26	-4.87
286.473	-3.5
286.687	-4.68
286.9	-2.64
287.114	-4.92
287.327	-6.19
287.541	-4.41
287.754	-3.08
287.968	-0.91
288.181	3.96
288.395	3.42
288.608	2.37
288.822	2.85
289.035	1.62
289.248	-2.77
289.462	-2.28
289.675	1.23
289.889	4.54
290.102	3.03
290.315	-2.41
290.529	-5.66
290.742	-5.48
290.955	-5.81
291.169	-7.07
291.382	-3.35
291.595	1.05
291.808	3.42
292.022	5.72
292.235	3.2
292.448	4.19
292.661	6.96
292.875	9.47
293.088	9.14
293.301	10.83
293.514	10.29
293.727	7.51
293.94	4.92
294.153	1.86
294.367	0.96
294.58	-1.22
294.793	-1.61
295.006	-0.43
295.219	-1.74
295.432	-0.36
295.645	-2.25
295.858	-2.08
296.071	-0.78
296.284	0.15
296.497	3.18
296.71	0.24
296.923	1.44
297.136	1.14
297.349	-0.63
297.562	-3.25
297.775	-2.72
297.988	-2.44
298.201	-2.55
298.414	-6.75
298.626	-6.44
298.839	-10.59
299.052	-8.67
299.265	-6.61
299.478	-4.92
299.691	-5.48
299.903	-2.87
300.116	-3.95
300.329	-5.27
300.542	-4.44
300.755	-1.38
300.967	1.02
301.18	5.16
301.393	4.68
301.605	6.63
301.818	5.76
302.031	6.32
302.243	6.88
302.456	7.16
302.669	10.71
302.881	10.02
303.094	11.44
303.307	9.09
303.519	2.99
303.732	5.89
303.944	2.96
304.157	5.42
304.37	3.86
304.582	4.46
304.795	4.36
305.007	-0.06
305.22	-0.15
305.432	-1.5
305.645	-1.37
305.857	6.86
306.069	3.61
306.282	1.44
306.494	-0.35
306.707	0.31
306.919	-2.84
307.132	-1.98
307.344	0.55
307.556	-3.92
307.769	0.34
307.981	2.51
308.193	-0.4
308.406	1.07
308.618	2.75
308.83	3.29
309.043	3.41
309.255	7.01
309.467	6.52
309.679	7.53
309.892	12.54
310.104	10.39
310.316	8.91
310.528	8.72
310.74	7.03
310.953	8.09
311.165	6.37
311.377	7.94
311.589	3
311.801	4.63
312.013	1.71
312.225	-0.11
312.437	0.6
312.649	2.68
312.862	2.28
313.074	4.29
313.286	4.05
313.498	3.11
313.71	5.2
313.922	7.36
314.134	5.91
314.346	7.56
314.558	8.36
314.77	6.79
314.982	3.49
315.193	1.66
315.405	1.99
315.617	-1.64
315.829	-0.33
316.041	-3.55
316.253	-1.36
316.465	-2.57
316.677	0.58
316.888	0.06
317.1	1.78
317.312	0.22
317.524	3.33
317.736	0.62
317.947	1.11
318.159	1.23
318.371	1.82
318.583	0.75
318.794	4.74
319.006	1.21
319.218	-1.95
319.43	0.2
319.641	4.26
319.853	4.39
320.064	4.68
320.276	5.84
320.488	8.85
320.699	9.41
320.911	10.91
321.123	9.15
321.334	10.97
321.546	11.66
321.757	10.26
321.969	9.21
322.18	10.28
322.392	11.59
322.603	11.48
322.815	9.11
323.026	10.16
323.238	9.79
323.449	8.58
323.661	7.12
323.872	9.31
324.083	6.52
324.295	6.55
324.506	5.83
324.718	5.41
324.929	7.01
325.14	7.49
325.352	6.25
325.563	3.44
325.774	5.17
325.986	5.51
326.197	6.27
326.408	7.87
326.62	9.49
326.831	7.96
327.042	4.97
327.253	1.46
327.464	3.5
327.676	5.31
327.887	8.56
328.098	5.17
328.309	5.61
328.52	5.83
328.732	5.05
328.943	1.73
329.154	5.85
329.365	9.92
329.576	14.21
329.787	11.84
329.998	10.01
330.209	6.31
330.42	8.98
330.631	8.2
330.842	8.6
331.053	10.83
331.264	12.73
331.475	11.6
331.686	13.02
331.897	14.62
332.108	16.43
332.319	16.01
332.53	16.33
332.741	17.63
332.952	16.14
333.163	12.88
333.374	14
333.585	13.8
333.795	11.36
334.006	7.89
334.217	4.92
334.428	5.03
334.639	5.65
334.849	5.18
335.06	5.21
335.271	6.54
335.482	7.49
335.692	4.04
335.903	3.65
336.114	2.98
336.325	3.63
336.535	2.99
336.746	-0.38
336.957	1.94
337.167	6.25
337.378	6.41
337.589	8.73
337.799	11.34
338.01	11.53
338.22	9.84
338.431	12.01
338.642	13.37
338.852	16.26
339.063	17.23
339.273	16.58
339.484	12.45
339.694	11.15
339.905	8.09
340.115	6.16
340.326	7.78
340.536	9.88
340.746	10.11
340.957	9.02
341.167	9.96
341.378	11.8
341.588	10.61
341.799	12.38
342.009	14.66
342.219	16.07
342.43	17.23
342.64	16.81
342.85	17.23
343.061	17.6
343.271	16.35
343.481	15.21
343.691	13.37
343.902	13.3
344.112	13.58
344.322	11.73
344.532	10.9
344.743	10.86
344.953	9.4
345.163	9.89
345.373	6.53
345.583	8.55
345.793	7.87
346.004	8.17
346.214	6.13
346.424	7.28
346.634	5.78
346.844	5.33
347.054	4.86
347.264	4.87
347.474	3.14
347.684	6.6
347.894	4.01
348.104	3.33
348.314	2.43
348.524	3.46
348.734	0.73
348.944	1.84
349.154	3.65
349.364	5.05
349.574	4.64
349.784	6.19
349.994	5.85
350.204	9.28
350.413	9.05
350.623	9.46
350.833	9.73
351.043	8.96
351.253	8
351.463	6.59
351.672	4.79
351.882	5.43
352.092	4.65
352.302	2.53
352.511	2.84
352.721	2.72
352.931	2.67
353.141	3.61
353.35	4.51
353.56	4.63
353.77	4.96
353.979	4.04
354.189	4.76
354.399	2.39
354.608	7.16
354.818	4.66
355.027	5.36
355.237	5.7
355.447	5.26
355.656	6.25
355.866	8.63
356.075	7.83
356.285	8.89
356.494	9.01
356.704	10.06
356.913	8.37
357.123	9
357.332	9.71
357.542	8.64
357.751	7.81
357.96	6.64
358.17	4.43
358.379	6.75
358.589	6.41
358.798	6.87
359.007	7.98
359.217	6.98
359.426	7.01
359.635	6.32
359.845	7.74
360.054	8.19
360.263	7.81
360.472	7.82
360.682	6.18
360.891	5.56
361.1	6.12
361.309	5.3
361.519	5.46
361.728	3.76
361.937	3.85
362.146	3.26
362.355	3.09
362.564	5.18
362.774	6.33
362.983	5.87
363.192	8.37
363.401	8.48
363.61	8.62
363.819	8.26
364.028	9.45
364.237	9.97
364.446	11.69
364.655	11.38
364.864	10.22
365.073	9.24
365.282	10.19
365.491	6.76
365.7	6.93
365.909	5.45
366.118	5.55
366.327	6.17
366.536	4.79
366.745	4.03
366.954	5.99
367.162	6.37
367.371	7.69
367.58	7.45
367.789	8.84
367.998	6.86
368.207	8.3
368.415	9.29
368.624	8.07
368.833	7.87
369.042	6.85
369.25	5.5
369.459	4.58
369.668	2.6
369.877	2.11
370.085	3.14
370.294	4.7
370.503	5.03
370.711	2.7
370.92	4.42
371.129	6.32
371.337	7.05
371.546	8.25
371.754	9.37
371.963	10.44
372.171	11.25
372.38	9.86
372.589	8.85
372.797	9.72
373.006	12.27
373.214	12.05
373.423	10.38
373.631	9.53
373.84	8.9
374.048	8.32
374.256	8.23
374.465	8.33
374.673	7.49
374.882	7.05
375.09	5.94
375.298	6.1
375.507	6.52
375.715	8.05
375.923	7.68
376.132	8.91
376.34	8.83
376.548	8.03
376.757	8.04
376.965	10.3
377.173	11.47
377.381	12.35
377.59	11.97
377.798	11.65
378.006	10.73
378.214	11.26
378.423	9.29
378.631	8.3
378.839	8.98
379.047	8.31
379.255	6.58
379.463	4.86
379.671	4.26
379.879	3.94
380.088	5.57
380.296	6.6
380.504	7.16
380.712	5.5
380.92	5.23
381.128	5.48
381.336	5.3
381.544	6.71
381.752	8.12
381.96	7.48
382.168	6.17
382.376	3.48
382.584	2.97
382.791	2.37
382.999	4.14
383.207	5.55
383.415	5.06
383.623	5.7
383.831	4.67
384.039	1.71
384.247	2.85
384.454	2.7
384.662	2.98
384.87	2.6
385.078	1.99
385.285	1.82
385.493	2.21
385.701	2.21
385.909	2.76
386.116	3.35
386.324	5.93
386.532	6.89
386.739	7.96
386.947	7.63
387.155	7.7
387.362	8.57
387.57	9.22
387.778	8.49
387.985	8.84
388.193	7.77
388.4	7.81
388.608	7.84
388.816	6.49
389.023	5.82
389.231	5.95
389.438	5.77
389.646	5.3
389.853	4.74
390.061	4.57
390.268	3.7
390.475	3.91
390.683	3.46
390.89	3.03
391.098	2.78
391.305	2.5
391.512	2.58
391.72	1.69
391.927	2.71
392.135	2.91
392.342	3.41
392.549	3.9
392.756	4.68
392.964	4.37
393.171	6.07
393.378	5.86
393.586	6.1
393.793	5.5
394	6.43
394.207	6.24
394.414	6.19
394.622	5.47
394.829	4.31
395.036	3.29
395.243	4.05
395.45	1.34
395.657	2.48
395.864	3.96
396.072	4.9
396.279	6.15
396.486	5.93
396.693	7.07
396.9	8.16
397.107	9.16
397.314	10.34
397.521	10.1
397.728	10.02
397.935	9.58
398.142	9.16
398.349	7.94
398.556	6.01
398.763	5.74
398.97	4.49
399.177	4.06
399.383	3.76
399.59	2.11
399.797	1.74
400.004	2.57
400.211	0.85
400.418	0.46
400.625	0.77
400.831	2.74
401.038	3.07
401.245	2.07
401.452	0.98
401.658	1.44
401.865	3.14
402.072	2.61
402.279	2.2
402.485	3
402.692	3.86
402.899	4.98
403.105	3.39
403.312	3.25
403.519	3.91
403.725	4.32
403.932	5.74
404.138	4.16
404.345	4.71
404.552	5.77
404.758	5.95
404.965	4.72
405.171	4.78
405.378	5.31
405.584	5.01
405.791	4.32
405.997	4.74
406.204	3.31
406.41	4.5
406.617	4.16
406.823	4.64
407.029	4.24
407.236	4.41
407.442	3.92
407.649	3.85
407.855	4.08
408.061	4.21
408.268	4.2
408.474	3.53
408.68	3.78
408.887	4.01
409.093	3.01
409.299	2.73
409.505	3.02
409.712	2.68
409.918	1.76
410.124	1.42
410.33	2.76
410.537	2.12
410.743	3.19
410.949	2.71
411.155	2.29
411.361	1.85
411.567	2.34
411.773	2.26
411.98	3.04
412.186	3.91
412.392	4.22
412.598	3.35
412.804	4.49
413.01	3.55
413.216	3.86
413.422	4.45
413.628	5.84
413.834	6.49
414.04	5.69
414.246	5.09
414.452	4.78
414.658	4.45
414.864	4.73
415.07	3.69
415.275	4.22
415.481	4.19
415.687	3.9
415.893	3.13
416.099	2.44
416.305	3.43
416.511	4.39
416.716	5.31
416.922	5.5
417.128	6.05
417.334	6.28
417.539	6.51
417.745	6.86
417.951	6.83
418.157	6.76
418.362	6.46
418.568	6.52
418.774	5.85
418.979	5.44
419.185	5.34
419.391	4.84
419.596	4.96
419.802	4.17
420.008	3.31
420.213	2.78
420.419	2.55
420.624	3.24
420.83	2.93
421.035	2.78
421.241	2.98
421.446	2.59
421.652	2.79
421.857	2.68
422.063	3.17
422.268	3.13
422.474	3.86
422.679	4
422.885	3.69
423.09	3.79
423.295	4.24
423.501	3.64
423.706	3.92
423.911	3.42
424.117	3.18
424.322	3.06
424.527	3.52
424.733	3.35
424.938	3.41
425.143	3.33
425.349	2.33
425.554	1.95
425.759	2.19
425.964	2.24
426.169	2.46
426.375	2.4
426.58	2.15
426.785	2.24
426.99	2.03
427.195	1.91
427.4	2.08
427.605	2.97
427.811	3.23
428.016	3.49
428.221	3.85
428.426	3.61
428.631	4.21
428.836	4.78
429.041	4.39
429.246	4.66
429.451	5.05
429.656	5.35
429.861	5.84
430.066	5.45
430.271	5.2
430.476	5.23
430.681	5.56
430.886	4.51
431.09	4.63
431.295	5.21
431.5	5.67
431.705	5.88
431.91	4.94
432.115	4.18
432.32	4.19
432.524	4.48
432.729	4.68
432.934	4.41
433.139	4.38
433.343	4.07
433.548	3.77
433.753	2.96
433.958	2.35
434.162	2.94
434.367	3.54
434.572	3.36
434.776	3.02
434.981	3
435.186	3.24
435.39	4.61
435.595	4
435.799	3.68
436.004	4.48
436.209	4.46
436.413	4.31
436.618	4.17
436.822	4.62
437.027	4.78
437.231	4.27
437.436	4.36
437.64	3.63
437.845	3.85
438.049	4.05
438.253	3.84
438.458	3.77
438.662	3.65
438.867	3.4
439.071	3.15
439.275	2.85
439.48	3.05
439.684	2.19
439.888	2.39
440.093	3.08
440.297	3.07
440.501	3.07
440.706	3.13
440.91	3.38
441.114	3.93
441.318	4.1
441.523	4.56
441.727	4.2
441.931	5.63
442.135	5.88
442.339	5.29
442.543	4.86
442.748	4.65
442.952	4.68
443.156	4.42
443.36	4.56
443.564	4.67
443.768	4.42
443.972	4.29
444.176	3.71
444.38	3.41
444.584	2.97
444.788	3.1
444.992	3.26
445.196	3.72
445.4	4.27
445.604	3.7
445.808	4.02
446.012	3.89
446.216	3.91
446.42	4.15
446.624	4.11
446.828	4.83
447.032	5.23
447.235	5.04
447.439	3.9
447.643	3
447.847	3.15
448.051	2.11
448.254	2.47
448.458	3.59
448.662	3.34
448.866	3.62
449.069	3.06
449.273	2.87
449.477	3.21
449.681	4.27
449.884	4.73
450.088	5.01
450.292	4.95
450.495	4.89
450.699	3.99
450.902	4.04
451.106	4.25
451.31	4.01
451.513	3.43
451.717	2.93
451.92	2.48
452.124	2.43
452.327	2.03
452.531	2.81
452.734	2.81
452.938	2.56
453.141	1.89
453.345	1.45
453.548	1.27
453.752	1.77
453.955	2.2
454.158	2.21
454.362	2.48
454.565	2.97
454.769	2.79
454.972	2.23
455.175	2.12
455.379	3.11
455.582	3.19
455.785	4.33
455.988	3.83
456.192	3.97
456.395	4.35
456.598	4.21
456.801	3.16
457.005	3.79
457.208	3.95
457.411	4.02
457.614	3.59
457.817	4.09
458.021	3.92
458.224	3.83
458.427	3.99
458.63	3.61
458.833	3.46
459.036	3.82
459.239	3.51
459.442	2.94
459.645	2.84
459.848	3.2
460.051	2.87
460.254	2.57
460.457	3.2
460.66	2.63
460.863	2.64
461.066	2.69
461.269	2.99
461.472	2.79
461.675	4.04
461.878	4.16
462.081	4.07
462.284	3.72
462.486	3.37
462.689	3.41
462.892	3.3
463.095	3.15
463.298	4.18
463.5	4.41
463.703	4.72
463.906	4.41
464.109	4.51
464.311	4.48
464.514	4.82
464.717	5.34
464.92	4.92
465.122	4.65
465.325	5.13
465.528	4.75
465.73	4.29
465.933	4.14
466.135	3.78
466.338	3.95
466.541	3.76
466.743	3.26
466.946	2.8
467.148	2.19
467.351	2.1
467.553	2.28
467.756	2.15
467.958	1.85
468.161	1.71
468.363	1.78
468.566	2.01
468.768	1.84
468.971	2.23
469.173	3.18
469.375	3.89
469.578	4.77
469.78	4.51
469.983	3.75
470.185	4.04
470.387	4.17
470.59	4.72
470.792	4.46
470.994	4.93
471.196	4.73
471.399	3.68
471.601	3.33
471.803	3.27
472.005	3.09
472.208	4.2
472.41	4.02
472.612	3.85
472.814	3.35
473.016	3.61
473.218	3.37
473.421	3.11
473.623	3.46
473.825	3.41
474.027	3.37
474.229	3.15
474.431	2.76
474.633	2.79
474.835	3.23
475.037	2.99
475.239	3.21
475.441	3.12
475.643	2.78
475.845	2.44
476.047	2.98
476.249	2.81
476.451	2.82
476.653	2.16
476.855	2.31
477.057	2.22
477.258	2.32
477.46	2.2
477.662	2.39
477.864	3.4
478.066	4.4
478.268	4.22
478.469	4.74
478.671	4.99
478.873	5.24
479.075	5.18
479.276	5.18
479.478	5.59
479.68	5.33
479.882	5.35
480.083	5.12
480.285	4.52
480.487	4.46
480.688	3.78
480.89	3.95
481.091	4.11
481.293	4.13
481.495	4.07
481.696	3.81
481.898	3.67
482.099	3.52
482.301	3.36
482.502	3.45
482.704	3.37
482.905	3.37
483.107	3.31
483.308	3.17
483.51	2.98
483.711	2.91
483.913	2.93
484.114	3.08
484.315	3.2
484.517	3.43
484.718	3.28
484.92	3.4
485.121	3.52
485.322	3.44
485.524	3.47
485.725	3.62
485.926	3.56
486.127	3.48
486.329	3.17
486.53	3.25
486.731	2.97
486.932	3.15
487.134	2.93
487.335	3.18
487.536	3.24
487.737	3.37
487.938	3.39
488.139	3.45
488.341	3.47
488.542	3.49
488.743	3.28
488.944	3.38
489.145	3.49
489.346	3.73
489.547	3.31
489.748	3.2
489.949	3.06
490.15	3.09
490.351	3.03
490.552	3.06
490.753	3.08
490.954	3.12
491.155	3.11
491.356	3.24
491.557	3.13
491.758	3.16
491.959	3.14
492.159	2.98
492.36	3.06
492.561	3.25
492.762	3.22
492.963	3.62
493.164	3.44
493.364	3.79
493.565	3.48
493.766	3.98
493.967	3.97
494.167	4.33
494.368	4.18
494.569	4.12
494.769	3.78
494.97	3.97
495.171	3.87
495.371	3.92
495.572	3.38
495.773	3
495.973	2.51
496.174	2.92
496.375	2.91
496.575	3.15
496.776	3.27
496.976	3.62
497.177	3.38
497.377	3.15
497.578	3.05
497.778	3.37
497.979	3.58
498.179	3.91
498.38	3.28
498.58	3.2
498.78	3.59
498.981	3.52
499.181	3.07
499.382	3.61
499.582	3.61
499.782	4.07
499.983	3.78
500.183	3.56
500.383	3.1
500.584	3.46
500.784	3.48
500.984	3.14
501.184	3.16
501.385	3.43
501.585	3.06
501.785	3.05
501.985	2.67
502.185	2.49
502.386	2.61
502.586	2.93
502.786	2.46
502.986	2.2
503.186	2.08
503.386	1.97
503.586	1.69
503.786	2
503.987	1.81
504.187	1.54
504.387	1.95
504.587	2.3
504.787	2
504.987	2.77
505.187	3.15
505.387	3.05
505.587	2.51
505.786	2.54
505.986	2.3
506.186	2.93
506.386	3.43
506.586	3.76
506.786	3.71
506.986	4.34
507.186	4.11
507.386	3.73
507.585	3.74
507.785	4.24
507.985	4.33
508.185	4.54
508.384	4.35
508.584	4.24
508.784	4.45
508.984	3.9
509.183	3.71
509.383	3.94
509.583	4.24
509.782	4.65
509.982	5.12
510.182	5.24
510.381	5
510.581	4.9
510.781	5.01
510.98	4.46
511.18	4.63
511.379	4.63
511.579	4.53
511.778	4.42
511.978	4.44
512.177	4.87
512.377	5.07
512.576	5.24
512.776	5.38
512.975	5.25
513.175	5.5
513.374	5.81
513.573	6.13
513.773	6.45
513.972	6.99
514.172	6.76
514.371	6
514.57	6.21
514.77	6.45
514.969	6.46
515.168	6.77
515.367	6.68
515.567	6.69
515.766	6.31
515.965	6.07
516.164	5.59
516.364	6.11
516.563	5.61
516.762	5.29
516.961	5.37
517.16	5.75
517.359	6.19
517.559	5.99
517.758	6.46
517.957	6.25
518.156	5.84
518.355	6.14
518.554	5.81
518.753	6.43
518.952	6.61
519.151	6.4
519.35	6.09
519.549	5.72
519.748	6.08
519.947	6.06
520.146	6.76
520.345	7.42
520.544	7.34
520.743	7.87
520.942	7.95
521.141	8.61
521.339	8.61
521.538	8.52
521.737	8.59
521.936	8.6
522.135	8.5
522.333	8.3
522.532	8.41
522.731	8.61
522.93	8
523.129	7.61
523.327	6.94
523.526	7.18
523.725	7.32
523.923	7.21
524.122	7.38
524.321	7.5
524.519	7.43
524.718	7.23
524.917	7.29
525.115	7.47
525.314	7.47
525.512	7.46
525.711	7.54
525.909	7.33
526.108	7.51
526.306	7.44
526.505	7.6
526.703	7.77
526.902	7.89
527.1	7.62
527.299	7.88
527.497	8.1
527.696	8.31
527.894	8.29
528.092	8.62
528.291	8.66
528.489	8.76
528.688	8.53
528.886	8.42
529.084	8.52
529.283	8.9
529.481	8.75
529.679	8.68
529.877	8.64
530.076	8.52
530.274	8.48
530.472	8.27
530.67	8.62
530.869	8.5
531.067	8.75
531.265	8.87
531.463	9.11
531.661	9.13
531.859	9.35
532.057	9.54
532.255	9.89
532.454	9.85
532.652	9.67
532.85	9.43
533.048	9.73
533.246	9.5
533.444	9.61
533.642	9.05
533.84	8.97
534.038	9.06
534.236	9.31
534.434	9.38
534.632	9.55
534.83	10.15
535.027	10.33
535.225	10.17
535.423	10.69
535.621	10.34
535.819	10.73
536.017	10.84
536.215	10.84
536.412	10.36
536.61	10.22
536.808	10.32
537.006	10.16
537.203	10.05
537.401	10.1
537.599	9.94
537.797	10.35
537.994	10.3
538.192	10.59
538.39	10.4
538.587	10.47
538.785	10.5
538.983	10.59
539.18	10.55
539.378	10.53
539.575	10.86
539.773	10.76
539.97	10.8
540.168	10.61
540.366	10.49
540.563	10.42
540.761	10.47
540.958	10.68
541.155	10.57
541.353	10.72
541.55	10.85
541.748	10.63
541.945	10.63
542.143	10.42
542.34	10.86
542.537	10.9
542.735	11.03
542.932	11.39
543.129	11.06
543.327	11.43
543.524	11.39
543.721	11.08
543.919	11.45
544.116	11.71
544.313	12.09
544.51	11.75
544.708	12.14
544.905	12.55
545.102	12.26
545.299	12.3
545.496	12.09
545.693	12.15
545.891	12.42
546.088	12.59
546.285	12.56
546.482	12.28
546.679	12.07
546.876	11.97
547.073	12.31
547.27	12.29
547.467	12.4
547.664	12.38
547.861	12.37
548.058	12.46
548.255	12.22
548.452	12.63
548.649	13.23
548.846	14.04
549.043	14.32
549.24	13.63
549.437	13.65
549.633	13.63
549.83	14.25
550.027	14.4
550.224	14
550.421	13.86
550.618	13.86
550.814	14
551.011	13.41
551.208	13.08
551.405	13.52
551.601	13.61
551.798	13.36
551.995	12.86
552.191	13.02
552.388	13.64
552.585	14.34
552.781	14.42
552.978	14.35
553.175	15.08
553.371	15.4
553.568	14.87
553.764	15.62
553.961	16.24
554.157	16.28
554.354	16.29
554.55	16.03
554.747	15.58
554.943	15.6
555.14	15.87
555.336	15.7
555.533	15.9
555.729	17.04
555.926	16.81
556.122	16.34
556.318	16.37
556.515	17.47
556.711	17.46
556.907	17.34
557.104	16.79
557.3	16.75
557.496	16.56
557.693	16.18
557.889	15.96
558.085	15.64
558.281	16.2
558.478	16.21
558.674	15
558.87	15.4
559.066	16.18
559.262	16.91
559.459	16.54
559.655	17.57
559.851	17.33
560.047	17.42
560.243	17.85
560.439	18.31
560.635	18.41
560.831	19.23
561.027	19.46
561.223	19.02
561.419	18.36
561.615	18.8
561.811	17.72
562.007	18.17
562.203	17.68
562.399	17.45
562.595	17.46
562.791	18.26
562.987	17.74
563.183	17.85
563.379	17.59
563.575	18.04
563.771	17.86
563.966	17.78
564.162	18.01
564.358	18.2
564.554	18.78
564.75	18.42
564.945	18.7
565.141	19.19
565.337	19.29
565.533	19.86
565.728	19.52
565.924	18.88
566.12	19.93
566.315	19.83
566.511	19.73
566.707	19
566.902	19.37
567.098	18.58
567.293	18.12
567.489	17.94
567.684	17.75
567.88	18.06
568.076	18.35
568.271	17.85
568.467	17.84
568.662	17.95
568.858	18.73
569.053	18.37
569.248	18.39
569.444	18.24
569.639	17.87
569.835	17.63
570.03	17.78
570.225	18.01
570.421	17.99
570.616	17.87
570.812	17.52
571.007	17.18
571.202	17.7
571.397	17.5
571.593	18.11
571.788	18.23
571.983	18.35
572.178	18.05
572.374	18.23
572.569	18.42
572.764	18.65
572.959	18.83
573.154	19.24
573.35	18.95
573.545	18.81
573.74	18.51
573.935	18.73
574.13	19.05
574.325	19.26
574.52	19.57
574.715	18.91
574.91	18.57
575.105	19.11
575.3	19.14
575.495	19.3
575.69	19.83
575.885	19.01
576.08	19.52
576.275	19.37
576.47	19.55
576.665	19.52
576.86	19.78
577.055	19.8
577.25	20.07
577.444	19.05
577.639	19.05
577.834	18.92
578.029	20.59
578.224	20.19
578.418	19.4
578.613	19.39
578.808	19.24
579.003	20.07
579.197	20.83
579.392	19.98
579.587	20.77
579.781	20.64
579.976	20.58
580.171	20.06
580.365	19.69
580.56	20.82
580.755	20.4
580.949	21.14
581.144	21.15
581.338	20.7
581.533	20.58
581.727	20.93
581.922	20.96
582.116	21.25
582.311	20.75
582.505	20.4
582.7	20.18
582.894	20.72
583.089	19.95
583.283	19.49
583.478	19.39
583.672	19.59
583.866	18.65
584.061	18.11
584.255	17.8
584.449	18.15
584.644	18.38
584.838	17.94
585.032	18.16
585.226	17.96
585.421	17.93
585.615	18.75
585.809	18.71
586.003	18.8
586.198	19.33
586.392	19.28
586.586	19.11
586.78	19.28
586.974	20.1
587.168	19.26
587.363	19.3
587.557	19.23
587.751	19.26
587.945	20.04
588.139	20.46
588.333	20.35
588.527	20.88
588.721	21.29
588.915	21.49
589.109	21.8
589.303	22.17
589.497	21.86
589.691	21.6
589.885	20.94
590.079	20.51
590.273	20.1
590.466	20.44
590.66	19.87
590.854	20.61
591.048	20.39
591.242	19.75
591.436	20.37
591.629	20.75
591.823	21.93
592.017	22.2
592.211	22.48
592.404	22.82
592.598	23.36
592.792	23.19
592.986	22.22
593.179	22.07
593.373	22.46
593.567	21.96
593.76	21.76
593.954	20.54
594.147	20.49
594.341	19.85
594.535	19.32
594.728	18.67
594.922	18.5
595.115	18.79
595.309	19.21
595.502	18.31
595.696	18.27
595.889	18.5
596.083	18.52
596.276	18.78
596.47	18.3
596.663	18.82
596.856	18.5
597.05	19.17
597.243	19.19
597.437	18.63
597.63	19.31
597.823	19.59
598.017	19.64
598.21	20.67
598.403	20.5
598.596	21.68
598.79	21.27
598.983	22.29
599.176	22.04
599.369	21.64
599.563	22.8
599.756	22.59
599.949	22.29
600.142	22.15
600.335	21.98
600.528	21.51
600.722	21.89
600.915	21.62
601.108	21.12
601.301	21.89
601.494	22.22
601.687	22.05
601.88	21.8
602.073	21.39
602.266	21.69
602.459	21.18
602.652	21.29
602.845	21.06
603.038	21.79
603.231	22.3
603.424	21.72
603.617	21.48
603.809	21.49
604.002	21.68
604.195	22.19
604.388	21.79
604.581	22.42
604.774	22.82
604.966	22.56
605.159	22.23
605.352	21.55
605.545	22.08
605.737	22.19
605.93	22.22
606.123	22.86
606.316	23.04
606.508	23.51
606.701	23.52
606.894	23.8
607.086	23.63
607.279	24.15
607.471	24.44
607.664	23.95
607.857	23.82
608.049	23.32
608.242	22.68
608.434	22.19
608.627	22.11
608.819	22.06
609.012	21.83
609.204	21.86
609.397	22
609.589	21.93
609.782	21.93
609.974	21.68
610.166	22.5
610.359	23.13
610.551	24.2
610.743	24.33
610.936	23.94
611.128	23.57
611.32	23.98
611.513	24.17
611.705	23.04
611.897	23.8
612.09	24.72
612.282	24.4
612.474	24.68
612.666	22.89
612.858	23.03
613.051	23.13
613.243	23.22
613.435	23.9
613.627	22.11
613.819	23.42
614.011	22.78
614.203	22.48
614.395	22.06
614.588	20.09
614.78	21.52
614.972	22.3
615.164	22.58
615.356	22.96
615.548	22.69
615.74	23.55
615.932	24.94
616.124	25.35
616.315	25.72
616.507	26.58
616.699	27.1
616.891	28.31
617.083	27.62
617.275	27.79
617.467	28.03
617.659	27.68
617.85	27.65
618.042	26.06
618.234	25.67
618.426	26.12
618.618	25.07
618.809	26.25
619.001	25.19
619.193	24.02
619.384	24.14
619.576	23.5
619.768	23.59
619.959	24.08
620.151	24.42
620.343	24.78
620.534	24.47
620.726	25.32
620.917	25.19
621.109	24.66
621.301	25.25
621.492	25.22
621.684	25.02
621.875	24.91
622.067	24.97
622.258	24.96
622.45	23.57
622.641	23.45
622.832	23.26
623.024	23.1
623.215	22.49
623.407	22.03
623.598	22.5
623.789	22.93
623.981	22.91
624.172	22.34
624.363	21.54
624.555	23.65
624.746	22.28
624.937	22.14
625.129	21.97
625.32	21.73
625.511	22.34
625.702	22.01
625.893	22.28
626.085	21.75
626.276	21.97
626.467	22.47
626.658	21.67
626.849	22.69
627.04	22.15
627.231	22.18
627.422	23.46
627.614	23.34
627.805	23.29
627.996	24.03
628.187	24.58
628.378	24.17
628.569	24.03
628.76	23.85
628.951	23.26
629.142	24.16
629.332	23.87
629.523	23.61
629.714	23.74
629.905	23.48
630.096	22.74
630.287	22.34
630.478	22.5
630.669	23.36
630.859	23.84
631.05	25.35
631.241	25.34
631.432	25.74
631.623	25.6
631.813	25.88
632.004	26.42
632.195	26.44
632.385	26.01
632.576	26
632.767	25.68
632.957	25.38
633.148	25.5
633.339	25.5
633.529	25.54
633.72	26.1
633.91	25.92
634.101	24.94
634.292	25.22
634.482	26.8
634.673	26.61
634.863	26.49
635.054	27.22
635.244	25.5
635.435	25.36
635.625	25.31
635.815	24.52
636.006	25.18
636.196	26.41
636.387	25.59
636.577	24.97
636.767	25.1
636.958	25.74
637.148	24.67
637.338	25.27
637.529	25.48
637.719	25.55
637.909	25.72
638.099	25.22
638.29	23.86
638.48	24.64
638.67	24.24
638.86	23.96
639.05	23
639.241	23.67
639.431	24.19
639.621	23.92
639.811	23.57
640.001	25.12
640.191	25.06
640.381	26.49
640.571	26.29
640.761	25.84
640.951	26.8
641.141	27.24
641.331	27.02
641.521	26.93
641.711	26.27
641.901	26.36
642.091	25.36
642.281	26.25
642.471	25.66
642.661	25.41
642.851	27.5
643.041	28.09
643.231	27.54
643.42	27.61
643.61	27.09
643.8	27.21
643.99	27.39
644.18	27.3
644.369	27.05
644.559	27.83
644.749	27.77
644.939	26.98
645.128	25.9
645.318	26.11
645.508	25.69
645.697	27.84
645.887	29.14
646.076	29.16
646.266	29.14
646.456	27.75
646.645	27.73
646.835	28.14
647.024	28.19
647.214	29.18
647.403	29.13
647.593	29.49
647.782	27.46
647.972	27.02
648.161	26.71
648.351	26.01
648.54	27.88
648.73	27.83
648.919	26.66
649.108	26.74
649.298	26.26
649.487	26.56
649.677	28.24
649.866	28.06
650.055	29.17
650.244	28.67
650.434	29.67
650.623	28.57
650.812	28.54
651.002	28.87
651.191	29.01
651.38	28.76
651.569	29.17
651.758	27.48
651.947	27.58
652.137	26.63
652.326	27.52
652.515	27.14
652.704	27.52
652.893	26.51
653.082	26.17
653.271	25.48
653.46	26.3
653.649	26.24
653.838	26.18
654.027	26.79
654.216	26.23
654.405	26.27
654.594	26
654.783	25.27
654.972	25.29
655.161	26.21
655.35	27.07
655.539	24.91
655.728	23.12
655.916	22.71
656.105	23.26
656.294	23.91
656.483	24.47
656.672	24.57
656.86	24.47
657.049	25.94
657.238	26.91
657.427	26.22
657.615	27.32
657.804	28.34
657.993	28.22
658.181	27.3
658.37	26.75
658.559	26.45
658.747	26.49
658.936	26.7
659.125	28.69
659.313	27.97
659.502	28.79
659.69	28.49
659.879	28.32
660.067	29.92
660.256	30.47
660.444	31.74
660.633	31.83
660.821	31.79
661.01	32.01
661.198	28.58
661.387	29.52
661.575	28.03
661.763	28.47
661.952	28.95
662.14	29.33
662.328	29.77
662.517	28.87
662.705	29.07
662.893	29.47
663.082	30.51
663.27	29.69
663.458	29.87
663.646	31.26
663.834	32.34
664.023	33.14
664.211	30.89
664.399	31.22
664.587	32.2
664.775	32.32
664.963	32.36
665.152	31.19
665.34	31.85
665.528	29.91
665.716	29.28
665.904	29.02
666.092	28.32
666.28	30.68
666.468	28.64
666.656	27.82
666.844	28.38
667.032	28.16
667.22	26.89
667.408	28.26
667.596	29.41
667.784	29.46
667.971	29.65
668.159	29.84
668.347	28.51
668.535	29.38
668.723	28.62
668.911	28.36
669.098	28.93
669.286	31.81
669.474	31.75
669.662	31.57
669.849	31.68
670.037	30.14
670.225	29.3
670.413	29.21
670.6	29.34
670.788	30.88
670.976	28.9
671.163	28.31
671.351	27.88
671.538	27.23
671.726	26.61
671.913	26.02
672.101	26.62
672.289	27.78
672.476	28.67
672.664	29.05
672.851	27.07
673.039	27.23
673.226	28.7
673.413	28.23
673.601	28.45
673.788	28.84
673.976	29.98
674.163	32.34
674.35	32.21
674.538	31.13
674.725	30.75
674.912	30.68
675.1	33.65
675.287	31.71
675.474	31.11
675.662	30.02
675.849	29.53
676.036	28.75
676.223	26.88
676.411	27.78
676.598	26.82
676.785	26.4
676.972	26.53
677.159	24.07
677.346	24.6
677.533	24.73
677.721	25.73
677.908	26.42
678.095	27.58
678.282	27.6
678.469	27.81
678.656	29.32
678.843	29.6
679.03	30.1
679.217	29.72
679.404	28.9
679.591	29.52
679.778	29.05
679.964	29.38
680.151	27.84
680.338	28.49
680.525	27.21
680.712	28.6
680.899	29.12
681.086	30.58
681.272	32.26
681.459	33.93
681.646	33.27
681.833	33.01
682.02	32.52
682.206	33.6
682.393	32.22
682.58	31.8
682.766	30.28
682.953	30.83
683.14	30.18
683.326	28.79
683.513	28.26
683.7	28.03
683.886	28.18
684.073	28.07
684.259	25.95
684.446	26.22
684.632	25.59
684.819	24.95
685.005	24.03
685.192	22.19
685.378	24.3
685.565	23.32
685.751	23.7
685.938	23.99
686.124	24.28
686.31	26.88
686.497	27.69
686.683	28.72
686.87	29.45
687.056	28.23
687.242	28.18
687.429	27.36
687.615	28.44
687.801	29.38
687.987	29.63
688.174	30.18
688.36	27.86
688.546	26.02
688.732	25.69
688.918	24.76
689.105	25.81
689.291	27.18
689.477	26.56
689.663	26.41
689.849	28.11
690.035	28.37
690.221	26.26
690.407	28.65
690.593	30.86
690.779	29.71
690.965	32.73
691.151	33.52
691.337	33.18
691.523	32.52
691.709	30.38
691.895	27.78
692.081	26.89
692.267	27.31
692.453	27.53
692.639	27.96
692.825	28.72
693.011	26.73
693.196	26.44
693.382	26.86
693.568	28.33
693.754	31.92
693.94	34.06
694.125	33.44
694.311	35.44
694.497	33.72
694.682	32.5
694.868	32.74
695.054	32.27
695.239	31.45
695.425	31.95
695.611	32.38
695.796	31.01
695.982	30.1
696.168	29.9
696.353	26.93
696.539	27.34
696.724	26.73
696.91	26.02
697.095	25.28
697.281	26
697.466	24.68
697.652	24.69
697.837	25.42
698.023	24.21
698.208	25.15
698.393	26.97
698.579	25.18
698.764	24.3
698.949	25.16
699.135	25.47
699.32	25.37
699.505	26.39
699.691	24.96
699.876	24.41
700.061	24.97
700.246	24.85
700.432	24.54
700.617	27.01
700.802	27.17
700.987	28.21
701.172	29.51
701.358	29.81
701.543	29.23
701.728	29.02
701.913	29.86
702.098	30.26
702.283	29.76
702.468	29.31
702.653	29.15
702.838	31.26
703.023	30.6
703.208	28.82
703.393	27.89
703.578	27.92
703.763	31.93
703.948	30.91
704.133	30.16
704.318	28.6
704.503	31.73
704.688	32.57
704.873	32.22
705.057	32.62
705.242	33.68
705.427	33.2
705.612	33.67
705.797	32.13
705.981	31.79
706.166	32.85
706.351	35.19
706.536	33.99
706.72	31.57
706.905	32.4
707.09	33.17
707.274	33.19
707.459	32.99
707.644	33.2
707.828	33.65
708.013	34.37
708.197	33.87
708.382	33.75
708.567	32.74
708.751	34.02
708.936	33.73
709.12	31.59
709.305	31.97
709.489	32.02
709.673	30.66
709.858	29.64
710.042	29.42
710.227	27.7
710.411	27.24
710.596	26.5
710.78	26.76
710.964	27.83
711.149	29.66
711.333	30.7
711.517	31.91
711.702	31.62
711.886	33.46
712.07	34.42
712.254	36.03
712.438	36.11
712.623	36.55
712.807	36.13
712.991	35.19
713.175	34.49
713.359	32.57
713.544	32.59
713.728	32.33
713.912	30.23
714.096	29.55
714.28	28.15
714.464	27.31
714.648	26.08
714.832	28.4
715.016	25.88
715.2	26.87
715.384	27.08
715.568	24.77
715.752	25.57
715.936	24.67
716.12	25.74
716.304	27.81
716.488	27.75
716.671	28.26
716.855	25.5
717.039	27.02
717.223	23.53
717.407	23.42
717.59	24.61
717.774	23.71
717.958	24.17
718.142	21.48
718.325	19.46
718.509	20.97
718.693	22.38
718.877	24.29
719.06	22.66
719.244	25.11
719.428	26.24
719.611	27.62
719.795	29.6
719.978	28.24
720.162	28.96
720.345	30.56
720.529	30.57
720.713	32.4
720.896	32.22
721.08	34.38
721.263	31.02
721.446	32.5
721.63	31.14
721.813	31.95
721.997	33.23
722.18	33.63
722.364	33.22
722.547	32.11
722.73	28.95
722.914	26.38
723.097	27.1
723.28	31.5
723.464	27.44
723.647	25.86
723.83	22.69
724.013	22.78
724.197	21.52
724.38	21.63
724.563	19.6
724.746	18.88
724.929	21.62
725.112	18.79
725.296	15.43
725.479	15.24
725.662	17.52
725.845	19.39
726.028	20.73
726.211	19.28
726.394	22.2
726.577	24.53
726.76	26.39
726.943	24.16
727.126	26.36
727.309	28.62
727.492	30.28
727.675	30.46
727.858	28.32
728.041	25.17
728.224	26.48
728.407	22.54
728.589	20.64
728.772	18.91
728.955	20.61
729.138	21.68
729.321	20.16
729.503	19.99
729.686	19.61
729.869	22.13
730.052	25.64
730.234	25.44
730.417	29.39
730.6	32.23
730.782	35.75
730.965	34.25
731.148	30.66
731.33	34.12
731.513	33.48
731.695	34.13
731.878	33.39
732.061	31.83
732.243	31.92
732.426	30.62
732.608	28.89
732.791	26.32
732.973	26.98
733.156	31.04
733.338	29.38
733.52	31.95
733.703	31.6
733.885	30.18
734.068	31.26
734.25	32.88
734.432	31.59
734.615	32.9
734.797	34.95
734.979	36.39
735.162	34.8
735.344	34.61
735.526	34.3
735.708	34.34
735.891	36.08
736.073	38.51
736.255	39.09
736.437	40.94
736.619	41.55
736.802	40.37
736.984	42.87
737.166	41.63
737.348	41.23
737.53	41.98
737.712	42.51
737.894	45.68
738.076	46.48
738.258	46.61
738.44	44.8
738.622	46.99
738.804	45.2
738.986	40.43
739.168	43.95
739.35	46.91
739.532	48.15
739.714	43.72
739.896	42.79
740.078	36.64
740.259	34.43
740.441	31.12
740.623	27.88
740.805	30.03
740.987	29.88
741.168	28.2
741.35	26.15
741.532	25.14
741.714	27.56
741.895	25.42
742.077	28.28
742.259	32.65
742.44	33.99
742.622	36.06
742.804	38.47
742.985	40.58
743.167	41.6
743.348	45.34
743.53	45.07
743.711	50.11
743.893	53.97
744.075	54.77
744.256	50.58
744.438	54.88
744.619	54.22
744.8	53.81
744.982	57.83
745.163	58.4
745.345	55.31
745.526	53.1
745.707	48.67
745.889	44.89
746.07	46.72
746.252	48.9
746.433	47.04
746.614	45.55
746.795	44.66
746.977	40.99
747.158	39.61
747.339	39.59
747.52	38.79
747.702	41.04
747.883	41
748.064	38.82
748.245	41.92
748.426	41.51
748.607	41.72
748.788	43.63
748.97	42.47
749.151	39.54
749.332	37.84
749.513	43.49
749.694	44.63
749.875	47.35
750.056	49.38
750.237	45.83
750.418	48.6
750.599	49.73
750.78	49.91
750.96	49.71
751.141	54.76
751.322	58.39
751.503	53.37
751.684	53.29
751.865	51.79
752.046	49.1
752.226	50.01
752.407	50.44
752.588	52.29
752.769	54.65
752.949	57.42
753.13	55.86
753.311	54.07
753.492	57.5
753.672	56.24
753.853	54.28
754.034	58.45
754.214	55.06
754.395	55.39
754.575	53.57
754.756	49.67
754.937	47.85
755.117	47.82
755.298	48.73
755.478	48.95
755.659	51.86
755.839	53.19
756.02	46.75
756.2	44.41
756.381	38.04
756.561	34.83
756.741	34.33
756.922	32.19
757.102	31.54
757.283	30.49
757.463	28.09
757.643	23.63
757.823	21.34
758.004	22.65
758.184	29.22
758.364	31.98
758.545	35.09
758.725	35.04
758.905	34.1
759.085	30.64
759.265	30.87
759.446	28.92
759.626	30.05
759.806	28.9
759.986	30.7
760.166	28.65
760.346	29.28
760.526	27.93
760.706	24.31
760.886	25.24
761.066	26.36
761.246	23.81
761.426	23.55
761.606	21.69
761.786	21.66
761.966	19
762.146	18.41
762.326	16.47
762.506	16.84
762.686	18.51
762.866	18.61
763.046	19.16
763.225	20.35
763.405	16.9
763.585	17.92
763.765	17.64
763.945	20.73
764.124	21.57
764.304	24.24
764.484	24.67
764.664	25.08
764.843	27.67
765.023	27.5
765.203	28.55
765.382	33.84
765.562	34.7
765.741	37.93
765.921	37.92
766.101	43.23
766.28	45.9
766.46	45.95
766.639	46.55
766.819	50.24
766.998	51.97
767.178	53.54
767.357	58.49
767.537	61.38
767.716	58.89
767.896	61.49
768.075	58.23
768.254	61.53
768.434	60.42
768.613	64.64
768.792	62.75
768.972	62.81
769.151	56.28
769.33	53.85
769.51	53.4
769.689	54.69
769.868	53.75
770.047	57.67
770.226	54.08
770.406	55.52
770.585	52.06
770.764	49.15
770.943	44.93
771.122	51.43
771.301	46.68
771.48	50.56
771.66	49.9
771.839	50.6
772.018	47.26
772.197	51.1
772.376	56.81
772.555	58.06
772.734	60.36
772.913	69.35
773.092	71.79
773.271	78.83
773.449	81.02
773.628	78.16
773.807	78.1
773.986	77.21
774.165	71.46
774.344	66.17
774.523	69.48
774.701	72.18
774.88	75.74
775.059	72.85
775.238	70.02
775.417	63.39
775.595	63.6
775.774	67.06
775.953	67.1
776.131	71.65
776.31	75.99
776.489	69.36
776.667	68.9
776.846	64.73
777.025	63.84
777.203	70.18
777.382	73.22
777.56	74.35
777.739	69.45
777.917	69.21
778.096	68.39
778.274	68.56
778.453	71.7
778.631	69.92
778.81	71.2
778.988	72.57
779.166	63.62
779.345	63.56
779.523	64.07
779.702	61.91
779.88	60.52
780.058	56.54
780.237	52.04
780.415	48.11
780.593	42.49
780.771	45.44
780.95	49.37
781.128	58.62
781.306	54.21
781.484	53.6
781.662	58.83
781.841	61.62
782.019	62.14
782.197	66.75
782.375	73.74
782.553	79.59
782.731	80.17
782.909	75.87
783.087	72.82
783.265	81.29
783.443	71.3
783.621	67.81
783.799	70.07
783.977	73.86
784.155	63.65
784.333	63.85
784.511	65.33
784.689	60.35
784.867	62.58
785.045	54.48
785.223	47.93
785.4	54.34
785.578	57.28
785.756	53.31
785.934	48.28
786.112	48.41
786.289	43.94
786.467	43.53
786.645	46.61
786.823	45.94
787	48.34
787.178	53.83
787.356	56.3
787.533	50.49
787.711	51.21
787.889	49.38
788.066	56.13
788.244	52.95
788.421	48.23
788.599	43.88
788.776	41.4
788.954	49.02
789.131	42.5
789.309	46.72
789.486	46.68
789.664	55.68
789.841	61.29
790.019	62.02
790.196	67.58
790.373	68.02
790.551	66.63
790.728	60.5
790.906	57.21
791.083	62.53
791.26	56.88
791.437	62.17
791.615	55.71
791.792	49.03
791.969	45.97
792.146	39.34
792.324	43.6
792.501	43.76
792.678	54.06
792.855	42.47
793.032	30.36
793.209	26.33
793.387	28.79
793.564	22.92
793.741	31.39
793.918	31.81
794.095	33.99
794.272	39.68
794.449	39.19
794.626	38.35
794.803	47.28
794.98	55.38
795.157	57.43
795.334	52.95
795.511	61
795.688	63.52
795.864	68.9
796.041	69.69
796.218	65.31
796.395	68.03
796.572	71.44
796.749	68.89
796.925	62.16
797.102	67.73
797.279	73.1
797.456	68.63
797.632	73.32
797.809	68.57
797.986	65.55
798.162	56.84
798.339	64.04
798.516	61.02
798.692	57.6
798.869	52.87
799.046	56.76
799.222	53.78
799.399	53.93
799.575	40.09
799.752	35.35
799.928	40.84
800.105	48.53
800.281	49.36
800.458	45.82
800.634	45.58
800.811	52.88
800.987	41.72
801.163	37.11
801.34	30.3
801.516	33.17
801.692	42.26
801.869	45.12
802.045	43.58
802.221	43.37
802.398	45.8
802.574	41.71
802.75	47.32
802.926	50.84
803.103	54.62
803.279	58.48
803.455	58.5
803.631	55.6
803.807	65.18
803.983	59
804.16	60.11
804.336	55.08
804.512	59.5
804.688	50.59
804.864	47.42
805.04	41.82
805.216	45.03
805.392	52.77
805.568	53.14
805.744	39.01
805.92	51.23
806.096	59.35
806.272	56.27
806.448	52.03
806.623	53.03
806.799	53.12
806.975	58
807.151	52.56
807.327	52.33
807.503	48.58
807.678	55.61
807.854	60.8
808.03	52.61
808.206	51.77
808.381	57.71
808.557	51.95
808.733	52.97
808.908	45.43
809.084	56.6
809.26	52.99
809.435	64.8
809.611	57.02
809.787	44.64
809.962	41.39
810.138	51.5
810.313	57.1
810.489	70.5
810.664	65.91
810.84	73.32
811.015	64.66
811.191	63.83
811.366	50.23
811.542	41.58
811.717	46.36
811.892	48.18
812.068	24.93
812.243	-6.9
812.419	-27.22
812.594	-2.38
812.769	-7.46
812.944	14.7
813.12	14.12
813.295	14.22
813.47	22.07
813.645	14.4
813.821	20.89
813.996	19.67
814.171	29.9
814.346	26.64
814.521	26.8
814.697	22.5
814.872	12.06
815.047	4.29
815.222	8.63
815.397	9.37
815.572	16.24
815.747	14.67
815.922	23.56
816.097	25.86
816.272	32.63
816.447	19.78
816.622	26.8
816.797	34.54
816.972	46.22
817.147	44.29
817.322	51.05
817.496	53.6
817.671	59.19
817.846	56.96
818.021	56.8
818.196	58.62
818.371	62.54
818.545	59.34
818.72	60.34
818.895	55.34
819.069	56.92
819.244	45.9
819.419	42.72
819.594	42.24
819.768	40.44
819.943	32.41
820.117	29.92
820.292	28.89
820.467	26.85
820.641	25.1
820.816	24.04
820.99	22.07
821.165	23.48
821.339	22.33
821.514	20.33
821.688	18.39
821.863	20.41
822.037	20.14
822.212	19.86
822.386	21.29
822.56	22.69
822.735	23.43
822.909	25.2
823.084	25.21
823.258	27.26
823.432	25.52
823.606	25.09
823.781	22.6
823.955	22.42
824.129	24.74
824.303	23.62
824.478	18.55
824.652	15.51
824.826	13.7
825	9.79
825.174	7.97
825.348	11.15
825.523	11.47
825.697	14.51
825.871	13.51
826.045	16.01
826.219	16.71
826.393	19.7
826.567	23.2
826.741	24.15
826.915	29.41
827.089	34.18
827.263	38.17
827.437	39.73
827.611	40.05
827.784	39.28
827.958	38.05
828.132	40.45
828.306	42.81
828.48	39.86
828.654	40.39
828.827	38.02
829.001	40.61
829.175	31.56
829.349	29.03
829.522	32.06
829.696	49.22
829.87	41.04
830.044	38.94
830.217	22.3
830.391	20.38
830.565	23.78
830.738	21.17
830.912	5.69
831.085	13.87
831.259	19.03
831.432	13.21
831.606	8.63
831.779	10.62
831.953	7.81
832.126	15.39
832.3	12.74
832.473	11.21
832.647	2.31
832.82	6.92
832.994	8.14
833.167	12.23
833.34	15.61
833.514	22.59
833.687	24.4
833.86	25.76
834.034	23.2
834.207	28.12
834.38	25.08
834.553	41.73
834.727	42.98
834.9	45.87
835.073	28.94
835.246	14.54
835.419	-6.78
835.593	-16.64
835.766	-36.67
835.939	21.69
836.112	24.37
836.285	93.54
836.458	73.94
836.631	65.73
836.804	66.5
836.977	106.4
837.15	132.19
837.323	125.51
837.496	105.13
837.669	111.15
837.842	123.26
838.015	87.93
838.188	59.52
838.361	51.44
838.533	47.44
838.706	36.52
838.879	38.52
839.052	26.45
839.225	19.19
839.398	20.54
839.57	34.25
839.743	30.88
839.916	41.55
840.088	56.13
840.261	63.56
840.434	60.19
840.607	69.33
840.779	52.2
840.952	68.34
841.124	85.09
841.297	78.45
841.47	54.17
841.642	35.42
841.815	7.54
841.987	-22.06
842.16	-668.63
842.332	-541.18
842.505	638.46
842.677	111.11
842.85	-197.06
843.022	1100
843.194	409.68
843.367	3.05
843.539	-28.48
843.712	-23.95
843.884	-92.37
844.056	-158.8
844.229	-148
844.401	-528.32
844.573	-546.99
844.745	409.2
844.918	150
845.09	85.91
845.262	55.33
845.434	82.92
845.606	73.59
845.779	44.84
845.951	35.3
846.123	43.05
846.295	34.5
846.467	32.62
846.639	36.06
846.811	31.8
846.983	13.81
847.155	-29.2
847.327	-124.84
847.499	-139.05
847.671	24.22
847.843	310.53
848.015	180.65
848.187	-144.83
848.359	-1000
848.531	-148.62
848.703	-175
848.875	-72.88
849.047	-39.72
849.218	-15.65
849.39	-155.77
849.562	8200
849.734	-404.48
849.905	-2540
850.077	-157.64
850.249	-23.73
850.421	44.16
850.592	90.57
850.764	118.25
850.936	101.1
851.107	64.32
851.279	78.07
851.451	108.28
851.622	80.04
851.794	76.11
851.965	59.96
852.137	103.52
852.308	78.57
852.48	117.81
852.651	128.33
852.823	167.99
852.994	123.55
853.166	149.92
853.337	123.32
853.509	168.68
853.68	263.89
853.851	-1789.29
854.023	426.45
854.194	355.75
854.365	-9250
854.537	-2127.27
854.708	728.57
854.879	163.83
855.05	-37.65
855.222	32.18
855.393	-22.68
855.564	32.3
855.735	36.81
855.906	19.38
856.078	27.57
856.249	35.26
856.42	34.12
856.591	50.21
856.762	55.49
856.933	64.94
857.104	74.38
857.275	63.3
857.446	73.3
857.617	15.05
857.788	93.1
857.959	125.88
858.13	332.14
858.301	151.57
858.472	79.41
858.643	12.24
858.814	61.26
858.985	81.46
859.155	105.84
859.326	56.36
859.497	97.3
859.668	58.64
859.839	55.7
860.009	37.52
860.18	61.7
860.351	82.99
860.522	83.05
860.692	110.4
860.863	77.7
861.034	94.89
861.204	117.75
861.375	96.3
861.546	131.1
861.716	142.88
861.887	134.06
862.057	123.79
862.228	85.05
862.398	105.28
862.569	76.42
862.739	159.05
862.91	107.94
863.08	170.51
863.251	213.59
863.421	154.55
863.592	65.32
863.762	115
863.932	-91.94
864.103	-162.5
864.273	-10.71
864.443	468.18
864.614	145.57
864.784	517.95
864.954	795.45
865.125	-278.79
865.295	-205.56
865.465	359.26
865.635	141.92
865.805	152.79
865.976	214.85
866.146	105.23
866.316	89.39
866.486	76.48
866.656	55.29
866.826	53.51
866.996	53.81
867.166	56.61
867.336	31.46
867.506	18.86
867.676	1.56
867.846	-21.72
868.016	-9.7
868.186	-14.86
868.356	-86.26
868.526	63
868.696	127.85
868.866	84.46
869.036	57.95
869.206	-894.12
869.376	-3740
869.545	2900
869.715	753.12
869.885	-488.73
870.055	-378.08
870.224	248.82
870.394	225.49
870.564	-163.38
870.734	132.17
870.903	117.7
871.073	75.68
871.243	68.38
871.412	52.69
871.582	1.89
871.751	3.15
871.921	-3.7
872.091	-34.69
872.26	15.93
872.43	17.05
872.599	27.07
872.769	48.05
872.938	37.5
873.108	44.44
873.277	48.93
873.446	53.65
873.616	40.48
873.785	76.14
873.955	98.84
874.124	130.84
874.293	165.27
874.463	112.36
874.632	96.43
874.801	79.62
874.971	46.69
875.14	65.35
875.309	122.16
875.478	120.96
875.647	88.96
875.817	72.8
875.986	29.33
876.155	38.04
876.324	62.71
876.493	84.41
876.662	87.3
876.831	103.72
877	124.54
877.17	75.05
877.339	82.71
877.508	78.83
877.677	55.13
877.846	58.95
878.015	29.95
878.184	12.41
878.352	26.04
878.521	22.48
878.69	-28.64
878.859	-26.22
879.028	-53.21
879.197	-17.18
879.366	0.91
879.534	23.62
879.703	15.73
879.872	17.52
880.041	11.68
880.21	4.18
880.378	5.36
880.547	11.71
880.716	15.34
880.884	14.81
881.053	19.91
881.222	20.82
881.39	23.96
881.559	29.31
881.727	28.88
881.896	30.64
882.065	33.25
882.233	34.52
882.402	36.05
882.57	45.58
882.739	54.06
882.907	42.8
883.076	49.88
883.244	42.99
883.412	44.93
883.581	53.64
883.749	50.12
883.918	45.52
884.086	42.77
884.254	36.29
884.423	19.66
884.591	9.69
884.759	14.7
884.927	-1.03
885.096	-2.1
885.264	3.68
885.432	-3.04
885.6	8.1
885.769	10.01
885.937	33.53
886.105	35.82
886.273	73.03
886.441	74.09
886.609	42.55
886.777	64.85
886.945	80.55
887.113	72.4
887.281	48.54
887.449	38.48
887.617	66.67
887.785	38.49
887.953	40.54
888.121	20.75
888.289	31.46
888.457	36.85
888.625	25.36
888.793	8.66
888.961	11.21
889.129	37.15
889.296	19.47
889.464	-258.06
889.632	-139.47
889.8	-661.54
889.967	-62.89
890.135	-50
