Data from JASIL_3332_Reflection_1.txt Node
Date: Tue Nov 17 20:16:49 EST 2015
User: Geneva
Spectrometer: USB4E03002
Autoset integration time: false
Trigger mode: 4
Integration Time (sec): 1.000000E-1
Scans to average: 10
Electric dark correction enabled: false
Nonlinearity correction enabled: false
Boxcar width: 5
Stray light correction enabled: false
XAxis mode: Wavelengths
Stop averaging: false
Number of Pixels in Spectrum: 3648
>>>>>Begin Spectral Data<<<<<
177.575	-39.6
177.794	-66.3
178.014	-48.31
178.233	-307.55
178.452	-500
178.672	-418.11
178.891	-981.03
179.11	5230
179.33	1271.74
179.549	1303.92
179.768	-7009.09
179.987	768.94
180.207	475.41
180.426	867.12
180.645	963.2
180.864	6447.06
181.084	639.16
181.303	518.3
181.522	779.31
181.741	749.44
181.96	1279.8
182.179	7170.59
182.398	-1324.68
182.618	-460.7
182.837	-411.43
183.056	-466.67
183.275	-449.44
183.494	-140.1
183.713	-110.78
183.932	-90.52
184.151	-79
184.37	-44.44
184.589	-60.69
184.808	-55.75
185.027	-49.56
185.246	-91.05
185.465	-93.3
185.684	-140.95
185.903	-270.55
186.122	-417.92
186.341	-930.09
186.56	-621.43
186.779	-4218.52
186.998	-497.35
187.216	-471.67
187.435	-467.88
187.654	-447.88
187.873	-283.48
188.092	-336.54
188.311	-407.14
188.53	-215.76
188.748	-67.39
188.967	-74.75
189.186	-38.36
189.405	-163.74
189.623	-169.69
189.842	-209.5
190.061	-141.03
190.28	-93.05
190.498	-131.74
190.717	-88.54
190.936	-104.06
191.154	-259.89
191.373	-590.8
191.592	1500
191.81	507.77
192.029	528.42
192.248	266.18
192.466	393.37
192.685	192.42
192.904	428.22
193.122	336.26
193.341	395.8
193.559	520.9
193.778	558.56
193.996	503.32
194.215	1349.28
194.433	668.57
194.652	607.69
194.87	435.62
195.089	494.62
195.307	894.74
195.526	-420.41
195.744	-305.04
195.963	-469.33
196.181	-585.12
196.399	-935.63
196.618	1189.47
196.836	612.77
197.055	540.54
197.273	741.04
197.491	716.22
197.71	343.25
197.928	334.44
198.146	335.27
198.365	1730.95
198.583	969.84
198.801	-364.52
199.019	-132.27
199.238	-93.59
199.456	-103.36
199.674	-112.43
199.892	-127.56
200.111	-146.95
200.329	-131.18
200.547	-153.53
200.765	1266.67
200.983	-527.35
201.202	1057.89
201.42	277.86
201.638	262.28
201.856	379.06
202.074	484.67
202.292	279.29
202.51	230.63
202.728	327.6
202.946	2778.57
203.165	1498.08
203.383	383.39
203.601	445.69
203.819	810.91
204.037	-2503.03
204.255	-3422.22
204.473	-578.32
204.691	-497.65
204.909	-367.7
205.127	-1614.58
205.345	501.21
205.562	-538.76
205.78	-104.26
205.998	-94.14
206.216	-90.41
206.434	-116.49
206.652	-131.8
206.87	-314.37
207.088	-189.05
207.306	-235.84
207.523	-244.34
207.741	-178.83
207.959	-233.78
208.177	-230.57
208.395	-238.24
208.612	-292.13
208.83	-151.7
209.048	-153.64
209.266	-122.93
209.483	-91.16
209.701	-131.35
209.919	-84.29
210.136	-85.06
210.354	-117.91
210.572	-190.99
210.79	-218.67
211.007	-441.55
211.225	-4553.33
211.442	1013.56
211.66	3068
211.878	305.65
212.095	928.27
212.313	1620.34
212.53	954.5
212.748	795.62
212.966	554.49
213.183	691.05
213.401	-8850
213.618	-635.71
213.836	-538.57
214.053	-756.42
214.271	-536.54
214.488	-320.09
214.705	-206.28
214.923	-103.56
215.14	-73.39
215.358	-47.46
215.575	-37.54
215.793	-85.21
216.01	-260.19
216.227	-507.76
216.445	-343.75
216.662	-154.74
216.879	-137.83
217.097	-74.13
217.314	-161.87
217.531	7287.5
217.749	754.46
217.966	464.29
218.183	295.85
218.4	417.42
218.618	448.68
218.835	337.75
219.052	276.47
219.269	313.8
219.487	185.47
219.704	175.5
219.921	191.3
220.138	236.78
220.355	203.87
220.572	182.11
220.79	167.96
221.007	232.94
221.224	311.79
221.441	332.2
221.658	332.05
221.875	-1365.71
222.092	-621.59
222.309	1693.94
222.526	304.24
222.743	283.57
222.96	334.53
223.177	972.09
223.394	540.79
223.611	280.42
223.828	179.6
224.045	85.34
224.262	100
224.479	87.81
224.696	108.17
224.913	234.71
225.13	243.4
225.347	176.55
225.564	116.88
225.781	68.88
225.997	86.64
226.214	67.13
226.431	65.64
226.648	66.74
226.865	49.83
227.082	43.42
227.298	47.22
227.515	42.49
227.732	53.87
227.949	49.01
228.165	41.24
228.382	31.72
228.599	37.37
228.816	44.77
229.032	43.16
229.249	53.84
229.466	57.47
229.682	56.35
229.899	59.77
230.116	57.72
230.332	66.91
230.549	85.2
230.765	76.41
230.982	76.69
231.199	74.16
231.415	69.8
231.632	63.98
231.848	54.15
232.065	45.34
232.281	44.11
232.498	53.31
232.714	58.34
232.931	62.41
233.147	86.98
233.364	91.41
233.58	87.23
233.797	93.1
234.013	108.12
234.23	127.95
234.446	135.28
234.662	183.4
234.879	225.98
235.095	173.96
235.312	137.26
235.528	126.25
235.744	148.65
235.961	211.62
236.177	156.81
236.393	199.43
236.61	124.27
236.826	116.29
237.042	63.95
237.258	77.9
237.475	80.15
237.691	116.92
237.907	76.74
238.123	69.01
238.339	50.63
238.556	70.76
238.772	55
238.988	57.97
239.204	44.44
239.42	41.96
239.636	38.22
239.853	41.52
240.069	33.61
240.285	32.92
240.501	30.29
240.717	31.48
240.933	27.32
241.149	27.12
241.365	28.12
241.581	31.25
241.797	35.78
242.013	36.13
242.229	28.92
242.445	30.42
242.661	33.08
242.877	34.57
243.093	37.22
243.309	40.15
243.525	40.27
243.741	40.85
243.957	34.9
244.173	26.6
244.388	25.97
244.604	31.3
244.82	28.82
245.036	27.05
245.252	25.04
245.468	24.29
245.683	22.21
245.899	19.71
246.115	18.37
246.331	19.18
246.547	22.85
246.762	22.39
246.978	21.91
247.194	22.1
247.409	22.57
247.625	21.29
247.841	19.82
248.057	23.37
248.272	25.45
248.488	24.87
248.703	26.25
248.919	25.98
249.135	23.56
249.35	23
249.566	23.77
249.782	25.06
249.997	28.42
250.213	30.77
250.428	27.34
250.644	26.29
250.859	25.64
251.075	24.33
251.29	21.29
251.506	21.44
251.721	25.14
251.937	25.36
252.152	24.43
252.368	24.1
252.583	23.83
252.798	20.07
253.014	22.01
253.229	21.49
253.445	24.7
253.66	23.04
253.875	22.27
254.091	10.33
254.306	6.79
254.521	3.52
254.737	6.63
254.952	5.74
255.167	8.25
255.383	5.87
255.598	9.51
255.813	4.85
256.028	10.61
256.244	18.76
256.459	22.84
256.674	23.1
256.889	24.43
257.104	20.29
257.32	21.48
257.535	19
257.75	22.63
257.965	20.73
258.18	19.04
258.395	16.59
258.61	14.81
258.826	12.71
259.041	12.55
259.256	10.02
259.471	9.27
259.686	7.84
259.901	8.97
260.116	5.53
260.331	7.6
260.546	10.35
260.761	10.12
260.976	10.23
261.191	11.36
261.406	11.99
261.621	12.81
261.836	17.89
262.05	18.37
262.265	19.05
262.48	20.75
262.695	21.07
262.91	16.84
263.125	18.2
263.34	16.06
263.555	17.28
263.769	18.62
263.984	16.77
264.199	14.5
264.414	15.79
264.629	15.28
264.843	17.48
265.058	15.62
265.273	15.26
265.488	18.45
265.702	19.73
265.917	21.21
266.132	19.59
266.346	21.58
266.561	22.17
266.776	24.32
266.99	23.36
267.205	21.21
267.42	17.18
267.634	16.69
267.849	14.41
268.063	11.21
268.278	9.09
268.492	8.67
268.707	8.22
268.922	6.41
269.136	4.1
269.351	6.45
269.565	9.31
269.78	11.54
269.994	12.57
270.209	11.55
270.423	13.03
270.637	11.74
270.852	12.79
271.066	15.73
271.281	16.24
271.495	15.21
271.709	14.21
271.924	12.88
272.138	13.17
272.353	12.81
272.567	13.56
272.781	12.54
272.996	13.36
273.21	13.62
273.424	10.95
273.638	14.61
273.853	15.47
274.067	14.93
274.281	14.61
274.495	16.28
274.71	16.3
274.924	16.4
275.138	19.71
275.352	19.18
275.566	18.95
275.781	18.06
275.995	12.58
276.209	10.43
276.423	9.81
276.637	9.5
276.851	6.95
277.065	7.28
277.279	4.68
277.493	1.71
277.707	3.02
277.921	1.69
278.135	3.13
278.349	6.09
278.563	8.3
278.777	8.71
278.991	10.27
279.205	12.01
279.419	7.42
279.633	10.19
279.847	12.34
280.061	9.93
280.275	11.76
280.489	10.34
280.703	8.19
280.917	9.13
281.131	8.56
281.344	9.83
281.558	8.98
281.772	12.33
281.986	12.35
282.2	11.13
282.414	13.01
282.627	11.82
282.841	12.9
283.055	11.26
283.269	10.6
283.482	11.6
283.696	11.38
283.91	12.34
284.123	12.85
284.337	13.33
284.551	13.24
284.764	13.49
284.978	13.4
285.192	13.71
285.405	13.7
285.619	14.34
285.833	14.25
286.046	14.25
286.26	13.69
286.473	13.57
286.687	12.27
286.9	13.86
287.114	13.45
287.327	13.21
287.541	11.85
287.754	14.23
287.968	13.9
288.181	12.59
288.395	11.61
288.608	11.32
288.822	11.41
289.035	12.69
289.248	11.75
289.462	11.3
289.675	11.25
289.889	11.66
290.102	11.1
290.315	10.12
290.529	12.19
290.742	11.65
290.955	13.52
291.169	14.3
291.382	13.7
291.595	13.7
291.808	15.89
292.022	16.45
292.235	16.67
292.448	16.31
292.661	17.97
292.875	17.53
293.088	18.83
293.301	15.94
293.514	13.1
293.727	12.81
293.94	11.34
294.153	9.27
294.367	9.38
294.58	8.56
294.793	8.14
295.006	7.82
295.219	5.92
295.432	3.81
295.645	5.19
295.858	6.09
296.071	6.47
296.284	6.26
296.497	6.12
296.71	6.61
296.923	6.53
297.136	6.39
297.349	6.26
297.562	7.42
297.775	8.61
297.988	8.53
298.201	9.07
298.414	8.73
298.626	8.56
298.839	8.93
299.052	9.13
299.265	11.32
299.478	11.6
299.691	12.14
299.903	11.65
300.116	10.79
300.329	9.54
300.542	10.47
300.755	11.51
300.967	12.47
301.18	13.21
301.393	11.44
301.605	10.43
301.818	10.49
302.031	11
302.243	10.26
302.456	10.84
302.669	11.63
302.881	10.56
303.094	10.44
303.307	10.52
303.519	9.94
303.732	10.05
303.944	11.66
304.157	13.06
304.37	11.86
304.582	14.17
304.795	15.36
305.007	16.23
305.22	15.36
305.432	15.24
305.645	15.76
305.857	14.87
306.069	14.83
306.282	12.9
306.494	11.61
306.707	11.23
306.919	10.26
307.132	9.41
307.344	8.4
307.556	8.14
307.769	7.48
307.981	6.65
308.193	6.9
308.406	6.88
308.618	6.42
308.83	6.57
309.043	6.7
309.255	7.72
309.467	7.62
309.679	7.28
309.892	8.87
310.104	9.49
310.316	11.85
310.528	12.68
310.74	12.07
310.953	12.01
311.165	11.61
311.377	12.89
311.589	13.82
311.801	13.6
312.013	13.7
312.225	12.73
312.437	12.25
312.649	10.48
312.862	10.97
313.074	11.56
313.286	12.13
313.498	12.91
313.71	12.14
313.922	10.08
314.134	11.03
314.346	11.74
314.558	11.63
314.77	11.04
314.982	11.6
315.193	10.62
315.405	13.85
315.617	14.69
315.829	16.09
316.041	15.11
316.253	13.78
316.465	14.27
316.677	14.99
316.888	17.32
317.1	18.58
317.312	20.43
317.524	21.99
317.736	20.01
317.947	19.18
318.159	17.7
318.371	20.01
318.583	20.25
318.794	19.86
319.006	18.66
319.218	17.2
319.43	17.13
319.641	16.76
319.853	17.51
320.064	18.14
320.276	18.99
320.488	18.96
320.699	18.15
320.911	18.31
321.123	19.07
321.334	19.66
321.546	20.2
321.757	20.98
321.969	18.11
322.18	16.86
322.392	14.86
322.603	14.11
322.815	13.71
323.026	11.27
323.238	11.1
323.449	9.2
323.661	8.95
323.872	8.88
324.083	7.45
324.295	7.64
324.506	8.57
324.718	9.46
324.929	9.76
325.14	11.74
325.352	14.1
325.563	15.2
325.774	15.27
325.986	15.15
326.197	14.83
326.408	16.18
326.62	18.16
326.831	17.13
327.042	18.96
327.253	19.04
327.464	17.86
327.676	16.41
327.887	15
328.098	15.63
328.309	16.85
328.52	17.69
328.732	16.93
328.943	16.68
329.154	17.45
329.365	15.47
329.576	14.34
329.787	15.73
329.998	17.2
330.209	19.73
330.42	20.23
330.631	19.41
330.842	19.54
331.053	19.41
331.264	19.77
331.475	18.67
331.686	20.31
331.897	20.38
332.108	19.97
332.319	19.65
332.53	17.32
332.741	16.55
332.952	16.25
333.163	16
333.374	17.67
333.585	17.37
333.795	18.01
334.006	16.38
334.217	17.34
334.428	16.04
334.639	14.78
334.849	16.06
335.06	17.03
335.271	17.9
335.482	16.71
335.692	15.97
335.903	15.09
336.114	16.99
336.325	17.72
336.535	17.17
336.746	17.89
336.957	17.82
337.167	16.97
337.378	17.5
337.589	17.65
337.799	17.29
338.01	17.7
338.22	18.85
338.431	16.23
338.642	16.85
338.852	17.41
339.063	16.27
339.273	17.23
339.484	18.61
339.694	17.45
339.905	15.49
340.115	16.02
340.326	14.07
340.536	12.73
340.746	13.68
340.957	13.38
341.167	13.66
341.378	15.47
341.588	15.92
341.799	14.57
342.009	14.58
342.219	13.83
342.43	13.61
342.64	14.49
342.85	14.56
343.061	13.26
343.271	12.88
343.481	12.46
343.691	11.5
343.902	10.46
344.112	11.56
344.322	11.22
344.532	12.98
344.743	14.08
344.953	13.64
345.163	12.68
345.373	13.87
345.583	13.03
345.793	14.72
346.004	16.26
346.214	17.09
346.424	17.19
346.634	17.15
346.844	18.48
347.054	16.82
347.264	17.61
347.474	18.14
347.684	18.58
347.894	18.97
348.104	16.58
348.314	15.52
348.524	15
348.734	14.8
348.944	15.52
349.154	14.31
349.364	16.29
349.574	15.4
349.784	15.36
349.994	13.94
350.204	13.93
350.413	14.11
350.623	13.84
350.833	14.95
351.043	14.72
351.253	15.26
351.463	13.5
351.672	12.58
351.882	11.71
352.092	12.72
352.302	14.19
352.511	15.05
352.721	15.82
352.931	14.87
353.141	14.24
353.35	13.1
353.56	12.24
353.77	13.15
353.979	13.08
354.189	13.89
354.399	12.75
354.608	11.46
354.818	10.42
355.027	10.26
355.237	10.27
355.447	10.16
355.656	10.54
355.866	9.53
356.075	9.68
356.285	9.97
356.494	9.66
356.704	10.82
356.913	11.37
357.123	11.43
357.332	10.91
357.542	11.35
357.751	11.65
357.96	11.2
358.17	12.11
358.379	11.9
358.589	12.13
358.798	13.15
359.007	13.23
359.217	12.72
359.426	12.44
359.635	12.67
359.845	12.99
360.054	12.01
360.263	12.33
360.472	12.31
360.682	13.32
360.891	13.02
361.1	12.28
361.309	11.99
361.519	11.77
361.728	11.69
361.937	11.77
362.146	11.96
362.355	12.44
362.564	12.13
362.774	11.66
362.983	10.36
363.192	9.91
363.401	10.77
363.61	10.47
363.819	11.49
364.028	12.24
364.237	12.26
364.446	11.23
364.655	10.8
364.864	11.76
365.073	11.88
365.282	12.08
365.491	12.25
365.7	12.5
365.909	12.87
366.118	11.66
366.327	10.62
366.536	9.33
366.745	9.41
366.954	10.45
367.162	10.25
367.371	10.84
367.58	10.7
367.789	10.8
367.998	10.71
368.207	9.08
368.415	10.99
368.624	12.05
368.833	13.08
369.042	13.37
369.25	12.67
369.459	13.21
369.668	12.88
369.877	14.44
370.085	14.1
370.294	13.64
370.503	15.5
370.711	13.88
370.92	14
371.129	13.78
371.337	12.85
371.546	13.01
371.754	11.88
371.963	11.98
372.171	9.91
372.38	10.41
372.589	10.42
372.797	9.46
373.006	11.05
373.214	9.92
373.423	9.4
373.631	10.66
373.84	8.94
374.048	9.61
374.256	9.48
374.465	11.62
374.673	12.03
374.882	10.95
375.09	10.82
375.298	10.13
375.507	9.98
375.715	10.81
375.923	9.93
376.132	11.5
376.34	10.58
376.548	10.54
376.757	8.91
376.965	8.16
377.173	8.97
377.381	8.6
377.59	8.66
377.798	9.46
378.006	7.73
378.214	9.46
378.423	8.81
378.631	9.54
378.839	10.41
379.047	11.98
379.255	12.46
379.463	12.57
379.671	13.47
379.879	12.23
380.088	12.21
380.296	13.67
380.504	12.2
380.712	12.68
380.92	12.42
381.128	11.61
381.336	10.67
381.544	9.71
381.752	9.16
381.96	8.82
382.168	8.63
382.376	9.06
382.584	8.79
382.791	9.27
382.999	8.88
383.207	8.95
383.415	9.16
383.623	9
383.831	9.79
384.039	9.73
384.247	9.53
384.454	10.92
384.662	10.79
384.87	11.21
385.078	10.32
385.285	9.97
385.493	10.25
385.701	10.48
385.909	10.8
386.116	11.09
386.324	10.38
386.532	9.97
386.739	9.3
386.947	8.43
387.155	8.44
387.362	8.86
387.57	8.8
387.778	7.74
387.985	6.05
388.193	5.89
388.4	5.73
388.608	6.68
388.816	7.59
389.023	8.22
389.231	9.47
389.438	8.82
389.646	9.89
389.853	10.4
390.061	11.96
390.268	12.65
390.475	12.07
390.683	11.36
390.89	11.52
391.098	11.11
391.305	10.16
391.512	9.72
391.72	9.71
391.927	9.46
392.135	9.07
392.342	8.01
392.549	7.93
392.756	7.84
392.964	7.73
393.171	8.2
393.378	8.28
393.586	8.54
393.793	8
394	8.2
394.207	7.93
394.414	8.21
394.622	8.35
394.829	9.04
395.036	9.38
395.243	9.65
395.45	9.19
395.657	8.94
395.864	8.88
396.072	10.13
396.279	10.21
396.486	9.88
396.693	9.53
396.9	10.03
397.107	9.94
397.314	10.64
397.521	11.01
397.728	10.82
397.935	10.45
398.142	10.58
398.349	9.07
398.556	9.38
398.763	9.41
398.97	10.9
399.177	11
399.383	10.92
399.59	9.97
399.797	9.72
400.004	9.94
400.211	10.45
400.418	10.8
400.625	11.42
400.831	11.3
401.038	10.9
401.245	9.91
401.452	9.4
401.658	9.9
401.865	10.43
402.072	9.93
402.279	9.18
402.485	9.87
402.692	9.81
402.899	9.07
403.105	9.23
403.312	9.06
403.519	9.39
403.725	8.97
403.932	8.55
404.138	8.47
404.345	8.9
404.552	9.69
404.758	9.39
404.965	9.13
405.171	9.23
405.378	9.07
405.584	9.81
405.791	8.84
405.997	9.08
406.204	10.1
406.41	10.21
406.617	10.09
406.823	9.3
407.029	8.54
407.236	9.02
407.442	9.56
407.649	9.57
407.855	9.41
408.061	10.49
408.268	10.43
408.474	9.84
408.68	9.38
408.887	9.8
409.093	10.81
409.299	11.47
409.505	11.22
409.712	11.41
409.918	10.94
410.124	10.16
410.33	9.29
410.537	9.4
410.743	8.29
410.949	8.91
411.155	8.28
411.361	7.42
411.567	6.89
411.773	7.09
411.98	6.7
412.186	7.36
412.392	8.06
412.598	8.53
412.804	8.06
413.01	8.63
413.216	7.95
413.422	8.09
413.628	8.27
413.834	7.91
414.04	7.56
414.246	7.5
414.452	6.91
414.658	6.6
414.864	7.08
415.07	7.46
415.275	7.08
415.481	7.18
415.687	7.58
415.893	7.36
416.099	7.75
416.305	7.92
416.511	7.76
416.716	7.52
416.922	7.8
417.128	7.49
417.334	7.59
417.539	7.86
417.745	8.28
417.951	8.05
418.157	8.55
418.362	8.81
418.568	8.69
418.774	8.86
418.979	8.89
419.185	8.74
419.391	8.59
419.596	8.42
419.802	8.43
420.008	8.09
420.213	5.35
420.419	5.12
420.624	5.06
420.83	4.97
421.035	5.07
421.241	5.27
421.446	5.32
421.652	5.27
421.857	5.38
422.063	5.27
422.268	5.29
422.474	7.99
422.679	7.89
422.885	7.58
423.09	7.81
423.295	7.5
423.501	7.53
423.706	7.36
423.911	7.48
424.117	7.49
424.322	7.49
424.527	7.11
424.733	7.25
424.938	7.15
425.143	7.06
425.349	6.77
425.554	6.76
425.759	6.56
425.964	6.64
426.169	6.62
426.375	6.64
426.58	6.69
426.785	7.11
426.99	6.57
427.195	6.4
427.4	6.68
427.605	6.87
427.811	7.14
428.016	7.16
428.221	7.54
428.426	7.58
428.631	7.25
428.836	7.48
429.041	7.74
429.246	8.02
429.451	8.3
429.656	8.5
429.861	8.61
430.066	8.82
430.271	9.35
430.476	9.19
430.681	8.9
430.886	9.06
431.09	8.74
431.295	8.36
431.5	8.59
431.705	8.84
431.91	8.52
432.115	8.22
432.32	8.06
432.524	7.76
432.729	7.56
432.934	7.83
433.139	7.89
433.343	8.13
433.548	8.45
433.753	7.85
433.958	7.74
434.162	7.96
434.367	8.09
434.572	8.14
434.776	8.07
434.981	8.09
435.186	7.95
435.39	7.9
435.595	7.87
435.799	7.78
436.004	8.19
436.209	8.29
436.413	8.13
436.618	8.07
436.822	8.17
437.027	8.2
437.231	8.12
437.436	7.93
437.64	7.94
437.845	7.47
438.049	7.25
438.253	7.48
438.458	7.4
438.662	7.57
438.867	7.62
439.071	7.43
439.275	7.62
439.48	7.61
439.684	7.87
439.888	7.97
440.093	8.36
440.297	8.45
440.501	8.37
440.706	8.38
440.91	8.3
441.114	8.38
441.318	8.59
441.523	8.59
441.727	8.71
441.931	8.97
442.135	9.03
442.339	8.97
442.543	8.8
442.748	8.38
442.952	8.18
443.156	7.94
443.36	7.83
443.564	7.43
443.768	7.45
443.972	8.04
444.176	7.73
444.38	7.66
444.584	7.81
444.788	7.69
444.992	7.96
445.196	7.93
445.4	8.09
445.604	8.12
445.808	8.32
446.012	8.13
446.216	7.49
446.42	7.47
446.624	7.69
446.828	7.57
447.032	7.72
447.235	7.56
447.439	7.5
447.643	7.71
447.847	7.7
448.051	7.75
448.254	7.85
448.458	8.12
448.662	8.09
448.866	7.87
449.069	7.62
449.273	7.84
449.477	8.07
449.681	8.28
449.884	8.02
450.088	8.01
450.292	7.64
450.495	7.44
450.699	7.7
450.902	7.68
451.106	7.49
451.31	7.69
451.513	7.86
451.717	7.84
451.92	7.95
452.124	7.97
452.327	8.17
452.531	8.67
452.734	8.83
452.938	8.61
453.141	8.91
453.345	9.05
453.548	8.83
453.752	8.72
453.955	8.91
454.158	8.84
454.362	8.7
454.565	8.14
454.769	7.96
454.972	8
455.175	8.27
455.379	8.3
455.582	8.17
455.785	8.45
455.988	8.36
456.192	7.67
456.395	7.62
456.598	7.87
456.801	8.27
457.005	8.14
457.208	7.83
457.411	7.38
457.614	6.93
457.817	6.92
458.021	6.45
458.224	6.15
458.427	6.76
458.63	6.41
458.833	6.48
459.036	6.46
459.239	6.14
459.442	6.17
459.645	6.42
459.848	6.57
460.051	6.8
460.254	7.2
460.457	7.42
460.66	7.15
460.863	7.39
461.066	7.16
461.269	7.16
461.472	7.83
461.675	7.89
461.878	7.49
462.081	7.38
462.284	7.35
462.486	7.09
462.689	7.06
462.892	7.06
463.095	7.11
463.298	7.04
463.5	7.38
463.703	7.22
463.906	7.28
464.109	7.34
464.311	7.47
464.514	7.38
464.717	7.41
464.92	7.6
465.122	7.65
465.325	8.13
465.528	8.5
465.73	8.09
465.933	7.96
466.135	8.18
466.338	8.25
466.541	8.3
466.743	8.44
466.946	8.34
467.148	8.2
467.351	8.15
467.553	7.71
467.756	7.49
467.958	7.44
468.161	7.53
468.363	7.3
468.566	7.2
468.768	7.19
468.971	6.92
469.173	7.35
469.375	7.53
469.578	7.37
469.78	7.08
469.983	7.31
470.185	7.17
470.387	7.26
470.59	7.28
470.792	7.39
470.994	7.35
471.196	7.46
471.399	6.62
471.601	6.84
471.803	6.62
472.005	7.21
472.208	7.42
472.41	7.88
472.612	7.89
472.814	8.11
473.016	8.18
473.218	7.77
473.421	7.45
473.623	7.99
473.825	7.77
474.027	8.24
474.229	8.28
474.431	7.58
474.633	7.25
474.835	6.65
475.037	6.28
475.239	6.33
475.441	6.88
475.643	7.33
475.845	7.2
476.047	7.25
476.249	6.97
476.451	6.68
476.653	6.8
476.855	6.91
477.057	7.32
477.258	7.18
477.46	6.96
477.662	7.02
477.864	6.62
478.066	6.88
478.268	6.86
478.469	6.93
478.671	6.89
478.873	7.03
479.075	6.92
479.276	6.79
479.478	6.8
479.68	7.03
479.882	6.78
480.083	6.87
480.285	7.02
480.487	7.27
480.688	7.35
480.89	7.4
481.091	7.13
481.293	7.17
481.495	7.17
481.696	7.18
481.898	7.04
482.099	7.05
482.301	6.94
482.502	6.73
482.704	6.42
482.905	6.32
483.107	6.29
483.308	6.24
483.51	6.3
483.711	6.23
483.913	6.32
484.114	6.3
484.315	6.22
484.517	6.27
484.718	6.25
484.92	6.44
485.121	6.42
485.322	6.5
485.524	6.65
485.725	6.56
485.926	6.69
486.127	6.65
486.329	6.71
486.53	6.62
486.731	6.53
486.932	6.55
487.134	6.48
487.335	6.43
487.536	6.34
487.737	6.41
487.938	6.46
488.139	6.44
488.341	6.24
488.542	6.2
488.743	6.44
488.944	6.73
489.145	6.63
489.346	6.57
489.547	6.78
489.748	6.8
489.949	6.51
490.15	6.33
490.351	6.15
490.552	6.24
490.753	6.32
490.954	6.19
491.155	6.08
491.356	6.21
491.557	6.2
491.758	6.19
491.959	6.22
492.159	6.43
492.36	6.66
492.561	6.83
492.762	6.94
492.963	6.68
493.164	6.97
493.364	7.01
493.565	7.03
493.766	7.19
493.967	7.09
494.167	6.88
494.368	6.77
494.569	6.53
494.769	6.65
494.97	6.67
495.171	7
495.371	6.74
495.572	6.86
495.773	6.91
495.973	6.74
496.174	6.93
496.375	7.28
496.575	7.49
496.776	7.68
496.976	7.25
497.177	7.46
497.377	7.33
497.578	7.42
497.778	7.01
497.979	7.19
498.179	7.16
498.38	7.44
498.58	7.22
498.78	7.21
498.981	7.5
499.181	7.62
499.382	7.38
499.582	7.46
499.782	7.67
499.983	8.18
500.183	7.93
500.383	8.06
500.584	7.76
500.784	8.09
500.984	8.03
501.184	7.62
501.385	7.86
501.585	7.88
501.785	7.89
501.985	7.72
502.185	7.41
502.386	7.77
502.586	7.99
502.786	7.8
502.986	7.33
503.186	7.31
503.386	7.41
503.586	7.79
503.786	7.68
503.987	7.78
504.187	7.84
504.387	8.2
504.587	7.69
504.787	7.65
504.987	7.74
505.187	8.09
505.387	8.09
505.587	8.11
505.786	7.89
505.986	8.4
506.186	8.44
506.386	8.46
506.586	8.23
506.786	8.28
506.986	8.07
507.186	8.29
507.386	8.38
507.585	8.36
507.785	8.8
507.985	8.92
508.185	8.75
508.384	8.95
508.584	8.99
508.784	9.07
508.984	9.61
509.183	9.83
509.383	9.6
509.583	9.75
509.782	9.6
509.982	9.35
510.182	9.7
510.381	9.68
510.581	9.3
510.781	9.46
510.98	9.48
511.18	9.26
511.379	9.09
511.579	9.28
511.778	9.28
511.978	9.7
512.177	9.51
512.377	9.26
512.576	9.01
512.776	9.11
512.975	8.77
513.175	8.9
513.374	8.91
513.573	9.32
513.773	9.41
513.972	9.08
514.172	9.08
514.371	9.18
514.57	8.98
514.77	9.3
514.969	9.09
515.168	9.45
515.367	9.61
515.567	9.45
515.766	9.1
515.965	9.08
516.164	9.12
516.364	9.01
516.563	9.37
516.762	9.39
516.961	9.39
517.16	9.66
517.359	9.43
517.559	9.25
517.758	9.31
517.957	9.56
518.156	9.61
518.355	9.69
518.554	9.68
518.753	9.3
518.952	9.25
519.151	9.4
519.35	9.55
519.549	9.81
519.748	9.79
519.947	9.97
520.146	9.98
520.345	9.74
520.544	9.62
520.743	9.7
520.942	9.68
521.141	10.09
521.339	9.89
521.538	10.06
521.737	10.12
521.936	10.24
522.135	10.11
522.333	10.47
522.532	10.77
522.731	11
522.93	10.92
523.129	11.27
523.327	11.16
523.526	11.09
523.725	10.71
523.923	10.58
524.122	10.31
524.321	10.39
524.519	10.12
524.718	10.13
524.917	10.09
525.115	10.19
525.314	10.01
525.512	9.97
525.711	9.94
525.909	10.09
526.108	10.22
526.306	10.29
526.505	10.21
526.703	10.12
526.902	10.05
527.1	9.99
527.299	9.96
527.497	10.01
527.696	9.99
527.894	10.01
528.092	9.91
528.291	9.81
528.489	9.97
528.688	10.05
528.886	10.08
529.084	10.2
529.283	10.34
529.481	10.42
529.679	10.62
529.877	10.76
530.076	11.04
530.274	11.32
530.472	11.19
530.67	11.22
530.869	11.48
531.067	11.56
531.265	11.52
531.463	11.46
531.661	11.4
531.859	11.4
532.057	11.3
532.255	11.28
532.454	11.11
532.652	11.27
532.85	11.19
533.048	11.1
533.246	11.2
533.444	11.25
533.642	11.43
533.84	11.64
534.038	11.52
534.236	11.61
534.434	11.64
534.632	11.82
534.83	11.98
535.027	12.27
535.225	12.17
535.423	12.23
535.621	12.21
535.819	12.19
536.017	12.26
536.215	12.33
536.412	12.46
536.61	12.39
536.808	12.53
537.006	12.43
537.203	12.16
537.401	12.47
537.599	12.58
537.797	12.7
537.994	12.81
538.192	12.69
538.39	12.54
538.587	12.45
538.785	12.39
538.983	12.35
539.18	12.61
539.378	12.68
539.575	12.52
539.773	12.28
539.97	12.2
540.168	12.33
540.366	12.39
540.563	12.44
540.761	12.37
540.958	12.3
541.155	12.34
541.353	12.32
541.55	12.45
541.748	12.41
541.945	12.55
542.143	12.53
542.34	12.43
542.537	12.6
542.735	12.93
542.932	13.19
543.129	13.51
543.327	13.65
543.524	13.56
543.721	13.65
543.919	13.53
544.116	13.53
544.313	13.82
544.51	13.91
544.708	13.78
544.905	13.68
545.102	13.63
545.299	13.68
545.496	13.76
545.693	13.77
545.891	13.6
546.088	13.99
546.285	14.17
546.482	13.99
546.679	14.09
546.876	14.3
547.073	14.23
547.27	14.42
547.467	14.31
547.664	14.45
547.861	14.77
548.058	14.95
548.255	15.06
548.452	15.05
548.649	15.36
548.846	15.68
549.043	15.66
549.24	15.74
549.437	15.58
549.633	15.96
549.83	15.86
550.027	15.75
550.224	15.7
550.421	15.46
550.618	15.7
550.814	16.15
551.011	16.1
551.208	15.99
551.405	16.22
551.601	16.28
551.798	16.1
551.995	16.01
552.191	15.97
552.388	16.12
552.585	16.9
552.781	16.86
552.978	16.52
553.175	16.2
553.371	15.71
553.568	15.47
553.764	15.78
553.961	15.88
554.157	16.27
554.354	16.48
554.55	16.77
554.747	16.44
554.943	16.95
555.14	17.54
555.336	18.01
555.533	18.75
555.729	19.55
555.926	19.51
556.122	19.56
556.318	19.7
556.515	20.07
556.711	20.37
556.907	20.42
557.104	20.34
557.3	19.86
557.496	19.67
557.693	19.75
557.889	19.12
558.085	19.21
558.281	19.78
558.478	19.64
558.674	20.02
558.87	19.67
559.066	19.82
559.262	19.44
559.459	19.5
559.655	19.48
559.851	19.51
560.047	19.84
560.243	20.09
560.439	19.74
560.635	20
560.831	19.87
561.027	19.92
561.223	20.09
561.419	20.43
561.615	20.93
561.811	20.95
562.007	21.18
562.203	21.25
562.399	21.42
562.595	21.53
562.791	21.99
562.987	21.97
563.183	22.09
563.379	21.63
563.575	21.73
563.771	21.66
563.966	21.85
564.162	21.8
564.358	21.91
564.554	21.53
564.75	21.69
564.945	21.32
565.141	21.85
565.337	21.82
565.533	22.44
565.728	22.1
565.924	22.37
566.12	22.88
566.315	22.94
566.511	22.86
566.707	23.39
566.902	23.87
567.098	24.03
567.293	23.54
567.489	23.92
567.684	23.66
567.88	24.33
568.076	23.98
568.271	24.21
568.467	24.2
568.662	24.49
568.858	24.8
569.053	24.76
569.248	24.99
569.444	25.15
569.639	25.28
569.835	25.41
570.03	25.35
570.225	25.91
570.421	25.38
570.616	25.61
570.812	25.65
571.007	25.41
571.202	25.44
571.397	25.1
571.593	24.97
571.788	25.11
571.983	25.19
572.178	25.41
572.374	24.9
572.569	25.11
572.764	25.32
572.959	25.35
573.154	25.55
573.35	25.71
573.545	25.83
573.74	26.11
573.935	25.99
574.13	26.25
574.325	26.41
574.52	26.85
574.715	27.11
574.91	27.38
575.105	28.02
575.3	28.17
575.495	27.92
575.69	28.51
575.885	28.49
576.08	28.64
576.275	29.14
576.47	29.32
576.665	29.53
576.86	29.17
577.055	29.25
577.25	28.53
577.444	28.85
577.639	29.09
577.834	29.25
578.029	29.86
578.224	29.86
578.418	29.45
578.613	28.91
578.808	28.41
579.003	28.57
579.197	28.68
579.392	29.01
579.587	28.51
579.781	29.02
579.976	28.78
580.171	28.66
580.365	28.66
580.56	28.49
580.755	28.98
580.949	29.18
581.144	29.42
581.338	29.18
581.533	28.8
581.727	28.82
581.922	28.65
582.116	28.79
582.311	28.7
582.505	28.82
582.7	29.53
582.894	29.78
583.089	30.27
583.283	30.35
583.478	30.88
583.672	31.55
583.866	31.7
584.061	31.63
584.255	31.65
584.449	31.69
584.644	31.72
584.838	31.63
585.032	31.63
585.226	31.24
585.421	31.85
585.615	31.73
585.809	31.74
586.003	31.8
586.198	32.27
586.392	32.54
586.586	32.52
586.78	32.49
586.974	32.29
587.168	32.46
587.363	32.91
587.557	32.45
587.751	32.16
587.945	32.24
588.139	32.67
588.333	32.15
588.527	32.05
588.721	32.35
588.915	32.28
589.109	32.02
589.303	31.53
589.497	31.47
589.691	31.41
589.885	31.3
590.079	31.24
590.273	30.97
590.466	31.16
590.66	31.01
590.854	30.71
591.048	30.92
591.242	31.46
591.436	31.85
591.629	32.09
591.823	32.06
592.017	32.57
592.211	32.62
592.404	32.84
592.598	32.86
592.792	33.62
592.986	33.95
593.179	33.85
593.373	33.54
593.567	33.25
593.76	33.46
593.954	33.85
594.147	33.37
594.341	33.35
594.535	33.81
594.728	33.87
594.922	33.46
595.115	33.18
595.309	33.51
595.502	33.78
595.696	34.15
595.889	33.93
596.083	33.9
596.276	34.02
596.47	34.16
596.663	33.94
596.856	33.94
597.05	34.28
597.243	34.55
597.437	34.6
597.63	34.4
597.823	34.26
598.017	34.1
598.21	33.53
598.403	33.75
598.596	33.35
598.79	33.28
598.983	33.48
599.176	32.47
599.369	32.3
599.563	31.92
599.756	32.26
599.949	32.49
600.142	32.77
600.335	33.58
600.528	33.79
600.722	33.96
600.915	33.79
601.108	33.84
601.301	33.77
601.494	33.81
601.687	34.27
601.88	33.96
602.073	33.69
602.266	34.2
602.459	34.12
602.652	33.68
602.845	34.26
603.038	34.67
603.231	34.38
603.424	34.98
603.617	34.9
603.809	34.5
604.002	34.85
604.195	34.77
604.388	34.44
604.581	34.54
604.774	35.24
604.966	34.9
605.159	34.72
605.352	34.74
605.545	34.55
605.737	34.76
605.93	35.61
606.123	34.93
606.316	35.1
606.508	35.36
606.701	35.11
606.894	34.93
607.086	35.23
607.279	35.08
607.471	35.32
607.664	35.7
607.857	36.14
608.049	35.82
608.242	36.16
608.434	36.2
608.627	36.73
608.819	37.04
609.012	37.13
609.204	36.98
609.397	37.18
609.589	37.2
609.782	36.98
609.974	37.04
610.166	37.38
610.359	37.37
610.551	37.92
610.743	37.46
610.936	37.89
611.128	37.9
611.32	37.9
611.513	38.23
611.705	38.76
611.897	39.17
612.09	39.19
612.282	39
612.474	39.43
612.666	39.38
612.858	38.65
613.051	38.29
613.243	38.17
613.435	38.8
613.627	38.67
613.819	38.28
614.011	37.93
614.203	37.45
614.395	37.06
614.588	37.13
614.78	37.29
614.972	38.38
615.164	38.73
615.356	38.6
615.548	37.85
615.74	37.48
615.932	37.22
616.124	37.42
616.315	37.27
616.507	37.75
616.699	37.93
616.891	37.53
617.083	37.53
617.275	37.6
617.467	37.61
617.659	37.49
617.85	38.03
618.042	38.81
618.234	38
618.426	38.45
618.618	38.53
618.809	38.5
619.001	38.56
619.193	38.33
619.384	38.46
619.576	38.89
619.768	39.25
619.959	39.12
620.151	39.11
620.343	40.06
620.534	40.28
620.726	39.98
620.917	39.4
621.109	39.59
621.301	39.65
621.492	39.03
621.684	39.06
621.875	39.58
622.067	39.41
622.258	39.09
622.45	39.11
622.641	39.05
622.832	39.76
623.024	39.48
623.215	39.53
623.407	38.83
623.598	39.3
623.789	39.18
623.981	38.9
624.172	39.15
624.363	39.17
624.555	38.86
624.746	38.51
624.937	37.64
625.129	38.15
625.32	38.08
625.511	38.26
625.702	37.97
625.893	38.07
626.085	37.91
626.276	37.73
626.467	37.7
626.658	37.68
626.849	37.52
627.04	38.2
627.231	38.3
627.422	38.46
627.614	38.32
627.805	38.31
627.996	37.83
628.187	37.84
628.378	38.27
628.569	38.51
628.76	38.68
628.951	38.56
629.142	38.91
629.332	38.92
629.523	38.53
629.714	39.45
629.905	39.48
630.096	39.88
630.287	39.92
630.478	39.37
630.669	38.71
630.859	37.72
631.05	38.72
631.241	37.28
631.432	37.21
631.623	37.88
631.813	37.34
632.004	37.77
632.195	37.57
632.385	37.57
632.576	37.08
632.767	37.51
632.957	38.95
633.148	38.11
633.339	38.84
633.529	38.54
633.72	37.91
633.91	37.96
634.101	37.76
634.292	38.42
634.482	38.69
634.673	39.78
634.863	40.25
635.054	39.49
635.244	40.18
635.435	39.94
635.625	40.87
635.815	40.99
636.006	40.78
636.196	41.13
636.387	40.4
636.577	40.64
636.767	40.54
636.958	40.63
637.148	41.7
637.338	41.66
637.529	42.29
637.719	42.43
637.909	42.46
638.099	42.99
638.29	41.96
638.48	42.66
638.67	42.19
638.86	41.82
639.05	41.48
639.241	41.44
639.431	41.41
639.621	41.58
639.811	40.65
640.001	41.18
640.191	40.91
640.381	40.73
640.571	40.17
640.761	40.71
640.951	40.09
641.141	40.3
641.331	40.08
641.521	40.33
641.711	40.1
641.901	39.84
642.091	39.75
642.281	39.58
642.471	40.66
642.661	41.58
642.851	41.01
643.041	41.55
643.231	41.18
643.42	40.59
643.61	40.93
643.8	40.81
643.99	41.21
644.18	40.58
644.369	41.37
644.559	40.45
644.749	39.76
644.939	40.42
645.128	40.71
645.318	41.02
645.508	41.38
645.697	40.49
645.887	41.31
646.076	42.79
646.266	43.85
646.456	43.37
646.645	43.81
646.835	43.96
647.024	43.8
647.214	43.6
647.403	43.12
647.593	42.68
647.782	43.13
647.972	42.1
648.161	41.01
648.351	40.43
648.54	40.43
648.73	41.07
648.919	40.94
649.108	40.43
649.298	40.82
649.487	41.56
649.677	42.26
649.866	42.38
650.055	41.85
650.244	42.27
650.434	42.58
650.623	42.77
650.812	43.11
651.002	43.37
651.191	44.39
651.38	43.94
651.569	43.57
651.758	42.71
651.947	43.05
652.137	43.6
652.326	43.64
652.515	42.96
652.704	42.44
652.893	41.17
653.082	41.17
653.271	40.83
653.46	40.45
653.649	40.36
653.838	41.2
654.027	41.32
654.216	41.28
654.405	41.05
654.594	41.98
654.783	42.5
654.972	42.84
655.161	42.09
655.35	41.87
655.539	42.19
655.728	42.26
655.916	41.89
656.105	41.35
656.294	41.52
656.483	41.16
656.672	40.84
656.86	40.08
657.049	40.4
657.238	40.75
657.427	40.91
657.615	41.21
657.804	41.52
657.993	41.78
658.181	42.12
658.37	42.14
658.559	41.85
658.747	42.16
658.936	42.5
659.125	42.54
659.313	42.52
659.502	42.55
659.69	42.73
659.879	43.05
660.067	42.69
660.256	43.05
660.444	43.72
660.633	44.01
660.821	43.8
661.01	43.95
661.198	43.1
661.387	43.14
661.575	42.94
661.763	43.46
661.952	43.34
662.14	44.37
662.328	43.48
662.517	43.42
662.705	43.93
662.893	44.66
663.082	45.04
663.27	46.34
663.458	46.56
663.646	46.42
663.834	45.2
664.023	45.43
664.211	44.03
664.399	44.41
664.587	44.04
664.775	42.74
664.963	41.96
665.152	41.68
665.34	41.06
665.528	41.11
665.716	41.2
665.904	43.06
666.092	41.64
666.28	42.77
666.468	42
666.656	41.85
666.844	42.62
667.032	41.86
667.22	42.36
667.408	42.77
667.596	43.28
667.784	43.34
667.971	42.93
668.159	43.63
668.347	44.29
668.535	45.13
668.723	45.27
668.911	45.4
669.098	45.98
669.286	45.37
669.474	45.93
669.662	45.28
669.849	44.71
670.037	44.46
670.225	44.19
670.413	43.02
670.6	42.36
670.788	42.88
670.976	42.83
671.163	42.53
671.351	42.9
671.538	41.9
671.726	43.08
671.913	44.12
672.101	43.48
672.289	43.98
672.476	44.42
672.664	44.98
672.851	43.51
673.039	44.21
673.226	45.19
673.413	44.85
673.601	44.18
673.788	43.39
673.976	43.45
674.163	43.51
674.35	43.02
674.538	41.59
674.725	41.13
674.912	41.75
675.1	41.44
675.287	41.17
675.474	41.98
675.662	43.06
675.849	43.41
676.036	43.02
676.223	43.02
676.411	43.58
676.598	44.5
676.785	45.67
676.972	46.27
677.159	45.45
677.346	45.06
677.533	45.36
677.721	44.5
677.908	43.57
678.095	43.25
678.282	42.73
678.469	41.91
678.656	42.09
678.843	40.89
679.03	41
679.217	41.23
679.404	41.44
679.591	40.97
679.778	41.64
679.964	42.28
680.151	42.61
680.338	43.02
680.525	43.41
680.712	43.74
680.899	43.93
681.086	44.17
681.272	44.8
681.459	44.99
681.646	44.37
681.833	44.12
682.02	44.28
682.206	44.91
682.393	44.51
682.58	44.54
682.766	47.36
682.953	46.85
683.14	47.26
683.326	47.07
683.513	47.84
683.7	48.77
683.886	49.33
684.073	49.3
684.259	48.42
684.446	49.78
684.632	50.47
684.819	46.3
685.005	47.62
685.192	46.16
685.378	46.56
685.565	45.27
685.751	44.44
685.938	44.18
686.124	42.63
686.31	42.64
686.497	42.03
686.683	41.73
686.87	43.3
687.056	42.85
687.242	42.22
687.429	41.04
687.615	41.9
687.801	42.6
687.987	42.56
688.174	44.17
688.36	44.01
688.546	43.93
688.732	44.25
688.918	44.03
689.105	44.58
689.291	45.71
689.477	46.9
689.663	46.21
689.849	46.75
690.035	47.41
690.221	47.68
690.407	48.54
690.593	48.95
690.779	47.59
690.965	47.43
691.151	47.91
691.337	48.97
691.523	48.59
691.709	49
691.895	48.29
692.081	47.89
692.267	47.93
692.453	48.15
692.639	48.23
692.825	49.16
693.011	48.27
693.196	48.92
693.382	47.96
693.568	48.39
693.754	49.48
693.94	49.44
694.125	50.25
694.311	49.53
694.497	49.99
694.682	49.79
694.868	49.84
695.054	50.42
695.239	49.61
695.425	49.69
695.611	48.26
695.796	46.42
695.982	45.73
696.168	45.5
696.353	46.11
696.539	46.12
696.724	45.38
696.91	44.72
697.095	44.62
697.281	44.7
697.466	44.01
697.652	45.36
697.837	44.87
698.023	45.66
698.208	45.83
698.393	45.42
698.579	44.34
698.764	44.3
698.949	44.32
699.135	44.52
699.32	44.23
699.505	45.47
699.691	45.02
699.876	45.81
700.061	46.04
700.246	45.54
700.432	45.77
700.617	46.36
700.802	46.26
700.987	47.44
701.172	49.23
701.358	47.91
701.543	47.63
701.728	49.3
701.913	49.92
702.098	48.95
702.283	49.03
702.468	49.18
702.653	49.7
702.838	50.56
703.023	50.4
703.208	49.24
703.393	50.94
703.578	50.37
703.763	49.24
703.948	48.95
704.133	49.2
704.318	48.73
704.503	48.67
704.688	49.64
704.873	49.11
705.057	49.66
705.242	48.89
705.427	49.16
705.612	47.96
705.797	47.43
705.981	48.66
706.166	49.52
706.351	49.91
706.536	50.92
706.72	49.76
706.905	50.37
707.09	50.84
707.274	50.09
707.459	49.59
707.644	51.26
707.828	50.39
708.013	50.03
708.197	48.66
708.382	46.96
708.567	45.78
708.751	45.63
708.936	45.81
709.12	45.56
709.305	45.64
709.489	45.12
709.673	44.34
709.858	45.69
710.042	45.39
710.227	46.4
710.411	48.4
710.596	49.32
710.78	49
710.964	48.59
711.149	47.6
711.333	50.08
711.517	50.05
711.702	51.05
711.886	50.18
712.07	49.51
712.254	49.9
712.438	49.85
712.623	48.23
712.807	49.86
712.991	50.37
713.175	50.6
713.359	50.08
713.544	50.91
713.728	51.43
713.912	51.75
714.096	53.04
714.28	52.18
714.464	51.04
714.648	51.88
714.832	50.72
715.016	52.26
715.2	53.72
715.384	53.29
715.568	53.19
715.752	52.07
715.936	52.18
716.12	51.33
716.304	50.96
716.488	52.33
716.671	52.36
716.855	54.09
717.039	52.87
717.223	51.65
717.407	52.06
717.59	51.68
717.774	52.06
717.958	52.26
718.142	52.75
718.325	53.87
718.509	52.52
718.693	52.91
718.877	51.17
719.06	52.26
719.244	53.36
719.428	53.58
719.611	54.01
719.795	55.25
719.978	55.58
720.162	55.82
720.345	55.1
720.529	56.93
720.713	56.84
720.896	58.05
721.08	57.75
721.263	57.73
721.446	55.62
721.63	55.7
721.813	55.52
721.997	55.51
722.18	55.73
722.364	57.26
722.547	57.7
722.73	59.32
722.914	58.32
723.097	57.16
723.28	56.66
723.464	57.18
723.647	57.34
723.83	55.41
724.013	56.15
724.197	55.64
724.38	55.2
724.563	52.31
724.746	51.99
724.929	52.74
725.112	53.1
725.296	52.15
725.479	52.59
725.662	53.84
725.845	54.22
726.028	52.6
726.211	51.84
726.394	51.95
726.577	52.67
726.76	50.93
726.943	48.73
727.126	48.25
727.309	47.82
727.492	46.24
727.675	45.15
727.858	44.67
728.041	45.1
728.224	45.19
728.407	43.38
728.589	44.19
728.772	45.13
728.955	48.61
729.138	50.42
729.321	50.91
729.503	51.78
729.686	51.16
729.869	50.94
730.052	52.21
730.234	53.2
730.417	55.03
730.6	56.57
730.782	55.16
730.965	51.63
731.148	49.97
731.33	51.56
731.513	51.57
731.695	51.44
731.878	52.6
732.061	51.97
732.243	52.63
732.426	51.98
732.608	50.77
732.791	50.75
732.973	51.23
733.156	51.96
733.338	51.36
733.52	51.29
733.703	51.9
733.885	54.26
734.068	53.94
734.25	53.62
734.432	54.8
734.615	55.85
734.797	57.79
734.979	60.55
735.162	60.17
735.344	59.5
735.526	60.42
735.708	61.05
735.891	58.16
736.073	58.46
736.255	57.64
736.437	55.95
736.619	53.48
736.802	52.59
736.984	50.82
737.166	50.32
737.348	49.35
737.53	49.73
737.712	48.11
737.894	48.07
738.076	47.43
738.258	48.01
738.44	48.67
738.622	49.33
738.804	51.64
738.986	51.04
739.168	51.39
739.35	51.8
739.532	51.45
739.714	54.32
739.896	57.58
740.078	57.89
740.259	58.85
740.441	58.91
740.623	60.64
740.805	59.99
740.987	62.83
741.168	63.53
741.35	64.51
741.532	65.43
741.714	63.67
741.895	59.97
742.077	59.46
742.259	59.5
742.44	59.07
742.622	57.75
742.804	57.41
742.985	54.91
743.167	53.76
743.348	51.65
743.53	51.55
743.711	53.63
743.893	52.97
744.075	56.28
744.256	55.38
744.438	55.16
744.619	55.58
744.8	54.59
744.982	55.28
745.163	56.65
745.345	58.97
745.526	57.99
745.707	55.08
745.889	57.77
746.07	57.08
746.252	57.27
746.433	57.29
746.614	58.55
746.795	60.96
746.977	63.45
747.158	63.35
747.339	63.11
747.52	64.66
747.702	66.3
747.883	65.48
748.064	65.29
748.245	66.25
748.426	69.21
748.607	66.71
748.788	65.24
748.97	61.82
749.151	62.67
749.332	65.99
749.513	64.92
749.694	65.25
749.875	65.23
750.056	63.58
750.237	64.72
750.418	65.62
750.599	67.67
750.78	64.69
750.96	65.04
751.141	62.26
751.322	60.34
751.503	62.11
751.684	61.18
751.865	58.35
752.046	58.1
752.226	53.19
752.407	50.21
752.588	50.4
752.769	51.44
752.949	52.52
753.13	52.56
753.311	49.21
753.492	47.34
753.672	45.95
753.853	48.54
754.034	48
754.214	50.14
754.395	49.34
754.575	47.23
754.756	47.6
754.937	47.64
755.117	48.88
755.298	52.58
755.478	52.6
755.659	53.21
755.839	51.81
756.02	54.49
756.2	54.37
756.381	57.08
756.561	57.96
756.741	60.01
756.922	59.86
757.102	58.57
757.283	55.78
757.463	58.13
757.643	59.81
757.823	60.69
758.004	57.59
758.184	57.48
758.364	55.73
758.545	56.65
758.725	55.57
758.905	56.2
759.085	58.97
759.265	60.39
759.446	58.41
759.626	59.52
759.806	60.02
759.986	61.55
760.166	62.29
760.346	62.62
760.526	63.15
760.706	64.27
760.886	63.82
761.066	63.68
761.246	62.57
761.426	62.49
761.606	59.13
761.786	58.03
761.966	56.51
762.146	55.12
762.326	53.68
762.506	52.2
762.686	50.46
762.866	50.25
763.046	49.01
763.225	48.28
763.405	47.66
763.585	47.55
763.765	48.36
763.945	49.4
764.124	49.87
764.304	50.97
764.484	52.62
764.664	52
764.843	52.33
765.023	52.23
765.203	51.68
765.382	52.55
765.562	52.66
765.741	51.28
765.921	51.06
766.101	50.89
766.28	51.6
766.46	50.03
766.639	50.42
766.819	49.94
766.998	53.72
767.178	55.15
767.357	55.8
767.537	57.8
767.716	60.28
767.896	60.24
768.075	63.31
768.254	62.28
768.434	62.35
768.613	63.75
768.792	64.02
768.972	61.79
769.151	63.41
769.33	63.3
769.51	62.92
769.689	60.53
769.868	61.13
770.047	60.8
770.226	62.03
770.406	64.34
770.585	65.65
770.764	65.91
770.943	64.85
771.122	65.01
771.301	65.32
771.48	65.25
771.66	67.47
771.839	67.69
772.018	67.97
772.197	69.16
772.376	71.02
772.555	72.07
772.734	72.18
772.913	72.24
773.092	73.53
773.271	73.84
773.449	76.17
773.628	74.12
773.807	77.11
773.986	77.2
774.165	73.08
774.344	72.68
774.523	67.9
774.701	67.97
774.88	65.7
775.059	62.59
775.238	63.99
775.417	62.01
775.595	65.47
775.774	65.15
775.953	62.22
776.131	66.05
776.31	63.9
776.489	64.95
776.667	64.27
776.846	69.12
777.025	70.05
777.203	69.61
777.382	70.69
777.56	66.58
777.739	61.21
777.917	61.58
778.096	60.2
778.274	61.4
778.453	61.14
778.631	62.7
778.81	59.5
778.988	61.78
779.166	61.8
779.345	58.66
779.523	62.17
779.702	65.33
779.88	67.14
780.058	66.14
780.237	64.43
780.415	68.16
780.593	66.77
780.771	68.23
780.95	64.85
781.128	65.32
781.306	68.73
781.484	68.61
781.662	68.55
781.841	68.01
782.019	69.78
782.197	69.86
782.375	68.24
782.553	69.78
782.731	71.21
782.909	72.74
783.087	70.44
783.265	72.72
783.443	71.96
783.621	73.5
783.799	77.93
783.977	80.44
784.155	81.32
784.333	83.02
784.511	82.71
784.689	77.79
784.867	77.35
785.045	78.04
785.223	74.82
785.4	76.6
785.578	80.05
785.756	73.78
785.934	72.3
786.112	69.05
786.289	66.8
786.467	63.63
786.645	68.95
786.823	66.22
787	63.68
787.178	64.2
787.356	62.34
787.533	58.28
787.711	59.77
787.889	56.19
788.066	56.26
788.244	56.98
788.421	58.84
788.599	55.37
788.776	54.4
788.954	55.61
789.131	56.28
789.309	53.79
789.486	54.75
789.664	55.27
789.841	56.8
790.019	59.99
790.196	63.54
790.373	63.94
790.551	69.32
790.728	74.39
790.906	74.95
791.083	69.97
791.26	72.1
791.437	71.82
791.615	74.39
791.792	73.58
791.969	71.27
792.146	68.15
792.324	64.18
792.501	60.41
792.678	60.25
792.855	55.72
793.032	60.7
793.209	59.69
793.387	61.13
793.564	60.12
793.741	65.52
793.918	66.52
794.095	68.25
794.272	70.72
794.449	71.88
794.626	70.68
794.803	78.24
794.98	76.77
795.157	81.26
795.334	78.94
795.511	81.07
795.688	76.82
795.864	76.91
796.041	75.13
796.218	73.67
796.395	71.99
796.572	70
796.749	67.55
796.925	68.07
797.102	66.92
797.279	68.97
797.456	65.76
797.632	65.03
797.809	62.28
797.986	59.78
798.162	64.03
798.339	66.34
798.516	68.14
798.692	65.32
798.869	67.29
799.046	66.47
799.222	64.66
799.399	64.37
799.575	66.57
799.752	68.41
799.928	74.43
800.105	72.94
800.281	72.55
800.458	72.3
800.634	71
800.811	68.17
800.987	64.46
801.163	64.95
801.34	68.92
801.516	63.66
801.692	63.44
801.869	64.55
802.045	68.11
802.221	66.76
802.398	68.26
802.574	72.35
802.75	74.89
802.926	77.5
803.103	82.2
803.279	83.84
803.455	88.1
803.631	88.59
803.807	82.18
803.983	81.69
804.16	82.21
804.336	79.75
804.512	79.67
804.688	77.23
804.864	76.36
805.04	72.15
805.216	72.16
805.392	72.7
805.568	74.52
805.744	77.4
805.92	69.56
806.096	68.74
806.272	72.18
806.448	73.73
806.623	73.75
806.799	74.98
806.975	72.69
807.151	71.05
807.327	71.14
807.503	67.05
807.678	63.16
807.854	70.63
808.03	75.28
808.206	73.16
808.381	74.49
808.557	77.87
808.733	79.38
808.908	84.84
809.084	84.46
809.26	87.74
809.435	90.99
809.611	96.75
809.787	93.01
809.962	90.33
810.138	91.29
810.313	82.38
810.489	84.55
810.664	84.83
810.84	80.47
811.015	80.16
811.191	80.28
811.366	81.71
811.542	82.67
811.717	84.85
811.892	83.06
812.068	84.33
812.243	93.73
812.419	88.94
812.594	91.06
812.769	95.71
812.944	101.06
813.12	98.49
813.295	92.91
813.47	92.11
813.645	95.29
813.821	91.25
813.996	85.63
814.171	77.96
814.346	82.41
814.521	78.89
814.697	76.55
814.872	79.01
815.047	76.77
815.222	78.24
815.397	73.68
815.572	65.72
815.747	72.67
815.922	75.51
816.097	78.96
816.272	75.12
816.447	78.88
816.622	76.43
816.797	68.66
816.972	68.05
817.147	66.44
817.322	69.58
817.496	73.45
817.671	74.7
817.846	75.54
818.021	74.25
818.196	74.99
818.371	71.21
818.545	68.51
818.72	71.21
818.895	72.56
819.069	72.19
819.244	69.76
819.419	63.85
819.594	57.12
819.768	53.12
819.943	50.89
820.117	47.69
820.292	46.72
820.467	47.84
820.641	44.96
820.816	43.59
820.99	42.24
821.165	39.98
821.339	39.62
821.514	39.72
821.688	39.51
821.863	39.53
822.037	39.24
822.212	38.89
822.386	37.51
822.56	36.8
822.735	37.25
822.909	37.33
823.084	37.51
823.258	38.15
823.432	37.66
823.606	37.55
823.781	37.93
823.955	37.61
824.129	38.01
824.303	37.18
824.478	38.44
824.652	38.79
824.826	39.28
825	40.45
825.174	39.98
825.348	41.05
825.523	41.55
825.697	40.55
825.871	40.94
826.045	40.07
826.219	42.59
826.393	42.46
826.567	42.42
826.741	42.56
826.915	42.36
827.089	43.44
827.263	43.21
827.437	43.26
827.611	43.87
827.784	45.14
827.958	47.82
828.132	45.98
828.306	46.46
828.48	48.66
828.654	48.36
828.827	49.61
829.001	50.67
829.175	51.51
829.349	52.89
829.522	55.11
829.696	56.28
829.87	53.7
830.044	58.22
830.217	58.29
830.391	57.42
830.565	63.08
830.738	63.67
830.912	61.65
831.085	63.14
831.259	62.08
831.432	60.26
831.606	61.76
831.779	61.43
831.953	57.06
832.126	57.77
832.3	56.19
832.473	55.96
832.647	53.15
832.82	52.99
832.994	51.57
833.167	52.56
833.34	51.18
833.514	47.91
833.687	45.48
833.86	47.49
834.034	46.57
834.207	45.74
834.38	42.91
834.553	41.91
834.727	43.21
834.9	42.27
835.073	41.46
835.246	44.25
835.419	45.39
835.593	47.3
835.766	46.13
835.939	48.44
836.112	48.32
836.285	51.76
836.458	56.83
836.631	55.72
836.804	65.28
836.977	68.17
837.15	67.93
837.323	69.55
837.496	72.86
837.669	71.85
837.842	70.3
838.015	75.36
838.188	72.49
838.361	76.54
838.533	77.18
838.706	70.88
838.879	68.83
839.052	69.31
839.225	67.59
839.398	67.22
839.57	70.31
839.743	66.05
839.916	66.81
840.088	66.89
840.261	66.39
840.434	73.39
840.607	80.41
840.779	77.86
840.952	76.21
841.124	83.33
841.297	91.84
841.47	94.32
841.642	103.14
841.815	99.25
841.987	106.47
842.16	100.2
842.332	91.54
842.505	87.45
842.677	92.94
842.85	104.6
843.022	102.61
843.194	91.77
843.367	96.37
843.539	96.49
843.712	98.5
843.884	102.14
844.056	107.82
844.229	116.93
844.401	127.67
844.573	131.48
844.745	124.23
844.918	144.34
845.09	142.3
845.262	145.58
845.434	163.87
845.606	170.52
845.779	159.01
845.951	148.53
846.123	162.78
846.295	158.69
846.467	185.35
846.639	193.05
846.811	187.7
846.983	195.31
847.155	198.31
847.327	177.36
847.499	184.87
847.671	188.88
847.843	182.82
848.015	151.67
848.187	138.72
848.359	128.5
848.531	132.04
848.703	109.94
848.875	130.6
849.047	116.68
849.218	115.66
849.39	102.65
849.562	103.06
849.734	116.78
849.905	134.04
850.077	171.68
850.249	170.25
850.421	152.77
850.592	183.23
850.764	160.97
850.936	162.77
851.107	158.42
851.279	187.64
851.451	166.81
851.622	163.9
851.794	169.49
851.965	161.77
852.137	161.65
852.308	173.45
852.48	174.06
852.651	167.56
852.823	169.67
852.994	170.43
853.166	163.53
853.337	184.54
853.509	184.87
853.68	170.87
853.851	159.25
854.023	137.17
854.194	120.22
854.365	128.53
854.537	120.45
854.708	127.32
854.879	121.49
855.05	124.05
855.222	110.2
855.393	113.92
855.564	124.55
855.735	135.96
855.906	147.46
856.078	149.13
856.249	126.1
856.42	129.29
856.591	113.57
856.762	121.96
856.933	117.79
857.104	105.11
857.275	93.04
857.446	94.95
857.617	84.29
857.788	80.9
857.959	77.64
858.13	81.61
858.301	73.37
858.472	83.47
858.643	78.14
858.814	81.61
858.985	109.58
859.155	126.54
859.326	112.5
859.497	112.63
859.668	196.39
859.839	179.83
860.009	149.22
860.18	205.6
860.351	198.14
860.522	165.25
860.692	139.23
860.863	122.83
861.034	114.46
861.204	101.56
861.375	98.42
861.546	88.24
861.716	86.26
861.887	91.43
862.057	98.71
862.228	110.93
862.398	115.37
862.569	143.61
862.739	153.91
862.91	152.35
863.08	164.6
863.251	182.71
863.421	193.4
863.592	241.12
863.762	214.29
863.932	175
864.103	166.1
864.273	182.26
864.443	148.31
864.614	142.95
864.784	141.54
864.954	148.96
865.125	163.83
865.295	143.3
865.465	145.57
865.635	151.12
865.805	144.02
865.976	163.34
866.146	129.21
866.316	149.08
866.486	182.62
866.656	186.29
866.826	208.46
866.996	184.15
867.166	248.58
867.336	207.95
867.506	148.7
867.676	151.83
867.846	130.79
868.016	138.02
868.186	122.64
868.356	110.84
868.526	112.91
868.696	105.29
868.866	105.45
869.036	99.72
869.206	93.69
869.376	103.39
869.545	104.26
869.715	118.04
869.885	123.21
870.055	131.45
870.224	120.39
870.394	127.63
870.564	143.96
870.734	139.52
870.903	148.06
871.073	156.79
871.243	169.75
871.412	174.2
871.582	163.4
871.751	147.45
871.921	163.86
872.091	197.52
872.26	148.66
872.43	134.41
872.599	140.46
872.769	135.02
872.938	149.53
873.108	135.98
873.277	127.67
873.446	125.28
873.616	148.14
873.785	140.46
873.955	139.33
874.124	149.06
874.293	159.37
874.463	141.23
874.632	147.91
874.801	144.75
874.971	134.96
875.14	162.64
875.309	152.44
875.478	119.48
875.647	107.65
875.817	107.58
875.986	114.8
876.155	114.43
876.324	117.23
876.493	108.93
876.662	102.43
876.831	111.42
877	101.5
877.17	108.64
877.339	114.54
877.508	132.94
877.677	142.07
877.846	128.15
878.015	119.23
878.184	109.23
878.352	107.92
878.521	108.21
878.69	100.61
878.859	91.85
879.028	80.15
879.197	76.56
879.366	66.68
879.534	55.7
879.703	49.39
879.872	47.82
880.041	46.64
880.21	47.29
880.378	41.04
880.547	40.26
880.716	43.41
880.884	44.02
881.053	41.01
881.222	41.72
881.39	42.87
881.559	42.85
881.727	43.59
881.896	41.95
882.065	40.6
882.233	41.97
882.402	40.05
882.57	39.21
882.739	36.36
882.907	38.13
883.076	35.28
883.244	33.71
883.412	34.49
883.581	34.2
883.749	35.71
883.918	37.92
884.086	40.88
884.254	43.26
884.423	45.03
884.591	51.79
884.759	52.68
884.927	62.55
885.096	69.4
885.264	73.19
885.432	75.14
885.6	79.27
885.769	86.21
885.937	86.71
886.105	101.42
886.273	110.14
886.441	106.86
886.609	113.45
886.777	100
886.945	97.56
887.113	98.9
887.281	95.93
887.449	103.19
887.617	100.59
887.785	94.89
887.953	81.7
888.121	84.03
888.289	94.3
888.457	90.91
888.625	98.91
888.793	102.86
888.961	104.3
889.129	101.3
889.296	97.1
889.464	93.02
889.632	105.31
889.8	139.25
889.967	120.1
890.135	92.05
