Data from JASIL_3189_Reflection_01.txt Node
Date: Fri Nov 13 14:10:05 EST 2015
User: Geneva
Spectrometer: USB4E03002
Autoset integration time: false
Trigger mode: 4
Integration Time (sec): 1.000000E-1
Scans to average: 10
Electric dark correction enabled: false
Nonlinearity correction enabled: false
Boxcar width: 5
Stray light correction enabled: false
XAxis mode: Wavelengths
Stop averaging: false
Number of Pixels in Spectrum: 3648
>>>>>Begin Spectral Data<<<<<
177.575	57.14
177.794	73.16
178.014	69.23
178.233	77.87
178.452	87.24
178.672	97.77
178.891	103.89
179.11	139.68
179.33	176.66
179.549	179.26
179.768	213.05
179.987	158.97
180.207	197
180.426	221.44
180.645	190.29
180.864	178.74
181.084	181.98
181.303	187.25
181.522	168.61
181.741	177.45
181.96	194.21
182.179	187.19
182.398	178.15
182.618	177.19
182.837	173.89
183.056	183.52
183.275	168.32
183.494	181.01
183.713	190.2
183.932	205.87
184.151	157.83
184.37	143.76
184.589	129.15
184.808	134.01
185.027	131.98
185.246	137.66
185.465	147.04
185.684	161.89
185.903	155.6
186.122	144.84
186.341	131.72
186.56	158.59
186.779	165.35
186.998	172.5
187.216	188.83
187.435	169.74
187.654	161.47
187.873	142.29
188.092	134.13
188.311	118.79
188.53	127.67
188.748	140.96
188.967	126.81
189.186	117.75
189.405	121.39
189.623	113.84
189.842	118.38
190.061	121.18
190.28	132.74
190.498	135.83
190.717	155.34
190.936	159.65
191.154	163.18
191.373	197.16
191.592	214.25
191.81	211.02
192.029	220.68
192.248	322.27
192.466	267.92
192.685	255.5
192.904	326.92
193.122	350.13
193.341	282.89
193.559	267.25
193.778	183.8
193.996	198.02
194.215	195.66
194.433	188.02
194.652	152.92
194.87	183.86
195.089	219.24
195.307	191.78
195.526	170
195.744	147.82
195.963	161.33
196.181	187.46
196.399	180.12
196.618	183.04
196.836	193.76
197.055	199.52
197.273	180.72
197.491	172.85
197.71	229.21
197.928	234.19
198.146	261.2
198.365	231.54
198.583	234.39
198.801	291.53
199.019	230.59
199.238	225.77
199.456	214.5
199.674	209.36
199.892	226.76
200.111	210.28
200.329	208.09
200.547	252.05
200.765	239.96
200.983	205.09
201.202	161.55
201.42	212.62
201.638	183.06
201.856	184.03
202.074	175.4
202.292	145.62
202.51	129.17
202.728	145.74
202.946	137.74
203.165	130.66
203.383	169.73
203.601	159.55
203.819	132.51
204.037	155.72
204.255	176.12
204.473	183.58
204.691	246.43
204.909	245.79
205.127	295.75
205.345	355.06
205.562	542.53
205.78	301.59
205.998	383.26
206.216	674.26
206.434	406.11
206.652	334.58
206.87	364.93
207.088	164.41
207.306	202.64
207.523	161.84
207.741	153.7
207.959	158.35
208.177	155.16
208.395	141.07
208.612	144.07
208.83	152.09
209.048	139.36
209.266	120.6
209.483	146.18
209.701	147.15
209.919	164.51
210.136	182.37
210.354	154.47
210.572	168.4
210.79	182
211.007	177.65
211.225	179.97
211.442	221.61
211.66	346.49
211.878	314.86
212.095	142.49
212.313	135.94
212.53	135.93
212.748	137.39
212.966	131.91
213.183	127.31
213.401	136.27
213.618	127.71
213.836	126.72
214.053	120.22
214.271	124.56
214.488	142.25
214.705	138.97
214.923	140.26
215.14	145.29
215.358	139.21
215.575	155.67
215.793	150.61
216.01	158.41
216.227	154.63
216.445	176.88
216.662	149.22
216.879	178.5
217.097	223
217.314	197.77
217.531	202.68
217.749	262.89
217.966	303.19
218.183	246.63
218.4	229.23
218.618	205.59
218.835	200.9
219.052	192
219.269	161.87
219.487	133.48
219.704	127.28
219.921	121.18
220.138	116.51
220.355	100.63
220.572	97.68
220.79	97.37
221.007	97.38
221.224	97.6
221.441	121.67
221.658	138.9
221.875	130.16
222.092	136.02
222.309	165.34
222.526	134.82
222.743	133.85
222.96	134.98
223.177	132.32
223.394	138.73
223.611	143.81
223.828	131.75
224.045	121.57
224.262	134.48
224.479	132.48
224.696	117.04
224.913	117.04
225.13	121.37
225.347	118.68
225.564	131.23
225.781	133.33
225.997	118.12
226.214	125.99
226.431	129.98
226.648	123.97
226.865	103.81
227.082	101.92
227.298	98.65
227.515	85.14
227.732	85.49
227.949	81.55
228.165	82.41
228.382	83.16
228.599	71.04
228.816	66.76
229.032	61.64
229.249	67.79
229.466	67.37
229.682	64.11
229.899	64.27
230.116	64.25
230.332	58.32
230.549	55.02
230.765	46.09
230.982	57.89
231.199	60.25
231.415	66.76
231.632	54.47
231.848	55.95
232.065	65.71
232.281	76.62
232.498	85.14
232.714	89.2
232.931	89.7
233.147	102.66
233.364	103.76
233.58	112.38
233.797	111.68
234.013	108.97
234.23	119.42
234.446	92.69
234.662	95.29
234.879	96.84
235.095	87.36
235.312	93.82
235.528	92.86
235.744	87.23
235.961	83.99
236.177	92.54
236.393	102.74
236.61	103.38
236.826	110.14
237.042	113.92
237.258	111.23
237.475	114.97
237.691	103.96
237.907	107.94
238.123	111.65
238.339	112.82
238.556	100.67
238.772	97.56
238.988	96.5
239.204	100.17
239.42	99.22
239.636	89.24
239.853	81.75
240.069	86.67
240.285	78.59
240.501	81.1
240.717	76.14
240.933	77.15
241.149	76.92
241.365	73.27
241.581	65.31
241.797	57.11
242.013	59.11
242.229	60.82
242.445	59.86
242.661	56.57
242.877	50.82
243.093	51.71
243.309	52.27
243.525	53.69
243.741	54.79
243.957	66.22
244.173	67.86
244.388	60.58
244.604	54.82
244.82	50.71
245.036	51.12
245.252	52.1
245.468	47.03
245.683	41.64
245.899	36.25
246.115	37.03
246.331	32.35
246.547	29.45
246.762	34.75
246.978	38.62
247.194	38.78
247.409	38.83
247.625	38.69
247.841	38.13
248.057	39.2
248.272	39.37
248.488	36.95
248.703	35.16
248.919	44.73
249.135	44.95
249.35	43.46
249.566	42.75
249.782	45.48
249.997	45.6
250.213	49.04
250.428	52.02
250.644	55.19
250.859	55.67
251.075	56.38
251.29	48.14
251.506	47.98
251.721	48.45
251.937	49.07
252.152	51.1
252.368	51.88
252.583	56.22
252.798	59.83
253.014	61.68
253.229	65.12
253.445	67.03
253.66	77.16
253.875	74.95
254.091	80.17
254.306	84.86
254.521	79.72
254.737	74.17
254.952	69.19
255.167	64.83
255.383	61.59
255.598	60.08
255.813	58.89
256.028	55.01
256.244	58.06
256.459	56.68
256.674	55.49
256.889	51.92
257.104	51.87
257.32	52.4
257.535	47.76
257.75	45.16
257.965	42.34
258.18	42.36
258.395	43.18
258.61	38.59
258.826	37.34
259.041	34.64
259.256	34.38
259.471	33.9
259.686	34.35
259.901	37.7
260.116	37.23
260.331	37.58
260.546	38.11
260.761	36.9
260.976	39.14
261.191	39.48
261.406	42.9
261.621	46.8
261.836	50.08
262.05	47.97
262.265	48.9
262.48	56.04
262.695	60.26
262.91	59.77
263.125	61.5
263.34	64.92
263.555	66.16
263.769	65.78
263.984	62.74
264.199	59.82
264.414	62.64
264.629	59.31
264.843	56.14
265.058	51.24
265.273	53.84
265.488	50.16
265.702	46.95
265.917	49.07
266.132	51.96
266.346	50.91
266.561	52.11
266.776	50.11
266.99	48.67
267.205	48.73
267.42	51.22
267.634	45.66
267.849	47.82
268.063	44.97
268.278	43.71
268.492	36.58
268.707	36.66
268.922	33.59
269.136	33.9
269.351	31.87
269.565	31.01
269.78	29.8
269.994	31.36
270.209	29.21
270.423	32.19
270.637	30.44
270.852	31.47
271.066	36.4
271.281	37.42
271.495	37.71
271.709	40.09
271.924	37.07
272.138	38.43
272.353	40.17
272.567	40.89
272.781	41.94
272.996	42.67
273.21	43.83
273.424	39.5
273.638	41.19
273.853	37.93
274.067	35.9
274.281	42.78
274.495	43.35
274.71	43.77
274.924	45.83
275.138	42.98
275.352	42.82
275.566	40.83
275.781	40.56
275.995	38.33
276.209	42.79
276.423	42.83
276.637	40.09
276.851	37.47
277.065	35.9
277.279	33.31
277.493	33.97
277.707	34.56
277.921	36.65
278.135	37.3
278.349	36.4
278.563	33.08
278.777	32.05
278.991	27.15
279.205	26.19
279.419	28.95
279.633	27.17
279.847	29.82
280.061	31.79
280.275	33.84
280.489	33.64
280.703	32.29
280.917	34.84
281.131	33.34
281.344	36.01
281.558	38.66
281.772	35.89
281.986	35.26
282.2	35.06
282.414	30.95
282.627	27.68
282.841	30.79
283.055	33.37
283.269	30.96
283.482	33.59
283.696	32.94
283.91	35.26
284.123	34.18
284.337	36.17
284.551	33.57
284.764	34.22
284.978	32.61
285.192	31.56
285.405	31.1
285.619	31.88
285.833	33.69
286.046	34.16
286.26	31.06
286.473	30.69
286.687	30.41
286.9	33.09
287.114	35.2
287.327	37.6
287.541	36.8
287.754	36.08
287.968	39.67
288.181	35.64
288.395	32.7
288.608	30.65
288.822	32.57
289.035	32.17
289.248	30.27
289.462	28.02
289.675	28.49
289.889	28.2
290.102	29.92
290.315	24.87
290.529	26.72
290.742	27.1
290.955	32.32
291.169	31.59
291.382	32.82
291.595	33.7
291.808	34.42
292.022	32.44
292.235	32.9
292.448	29.8
292.661	30.45
292.875	29.18
293.088	32.55
293.301	29.14
293.514	28.09
293.727	28.49
293.94	28.52
294.153	27.53
294.367	29.7
294.58	29.79
294.793	30.08
295.006	31.52
295.219	29.89
295.432	28.54
295.645	26.86
295.858	28.14
296.071	27.53
296.284	25.52
296.497	27.12
296.71	23.61
296.923	24.69
297.136	24.36
297.349	23.06
297.562	24.01
297.775	24.29
297.988	25.86
298.201	23.99
298.414	22
298.626	24.01
298.839	22.97
299.052	26.65
299.265	25.52
299.478	27.82
299.691	26.96
299.903	29.65
300.116	29.37
300.329	30.03
300.542	33.17
300.755	37.48
300.967	37.21
301.18	39.28
301.393	38.91
301.605	37.04
301.818	35.78
302.031	38.23
302.243	36.06
302.456	38.78
302.669	39.41
302.881	39.57
303.094	36.88
303.307	38.33
303.519	38.39
303.732	38.51
303.944	41.23
304.157	42.98
304.37	41.08
304.582	43.23
304.795	41.54
305.007	43.84
305.22	43
305.432	41.48
305.645	40.73
305.857	38.41
306.069	38.03
306.282	38.24
306.494	35.61
306.707	37.2
306.919	37.57
307.132	38.88
307.344	34.79
307.556	33.82
307.769	36.23
307.981	35.96
308.193	36.56
308.406	36.51
308.618	36.49
308.83	36.39
309.043	35.63
309.255	35.66
309.467	32.88
309.679	33.4
309.892	32.45
310.104	31.89
310.316	32.57
310.528	32.55
310.74	32.18
310.953	32.34
311.165	33.18
311.377	32.62
311.589	29.13
311.801	29.03
312.013	31.88
312.225	32.92
312.437	31.19
312.649	30.1
312.862	31.19
313.074	31.97
313.286	31.64
313.498	33.08
313.71	35.03
313.922	34.47
314.134	35.81
314.346	32.15
314.558	35.13
314.77	37.26
314.982	36.84
315.193	35.27
315.405	33.36
315.617	32.02
315.829	32.33
316.041	31.7
316.253	35.68
316.465	34.9
316.677	35.81
316.888	33.28
317.1	32.49
317.312	33.03
317.524	34.07
317.736	36.31
317.947	38.74
318.159	38.42
318.371	38.94
318.583	39.23
318.794	41.09
319.006	41.38
319.218	38.78
319.43	39.68
319.641	39.59
319.853	37.34
320.064	35.93
320.276	32.9
320.488	33.27
320.699	31.1
320.911	30
321.123	33.63
321.334	35.12
321.546	39.12
321.757	38.07
321.969	39.53
322.18	40.91
322.392	41.37
322.603	41.35
322.815	41.31
323.026	44.48
323.238	43.12
323.449	38.8
323.661	36.09
323.872	35.54
324.083	34.75
324.295	32.53
324.506	30.85
324.718	32.11
324.929	31.49
325.14	29.7
325.352	26.74
325.563	27.69
325.774	28.31
325.986	29.66
326.197	30.9
326.408	30.28
326.62	32.87
326.831	33.33
327.042	32.91
327.253	33.4
327.464	33.51
327.676	35.46
327.887	34.96
328.098	34.5
328.309	33.65
328.52	34.78
328.732	35.9
328.943	36.31
329.154	37.25
329.365	37.47
329.576	37.83
329.787	39.02
329.998	39.9
330.209	39.65
330.42	40.76
330.631	42.31
330.842	40.35
331.053	43.2
331.264	39.61
331.475	40.82
331.686	40.05
331.897	41.14
332.108	41.67
332.319	38.92
332.53	38.65
332.741	39.38
332.952	39.8
333.163	39.28
333.374	38.29
333.585	39.33
333.795	39.73
334.006	38.71
334.217	37.92
334.428	36.09
334.639	36.74
334.849	38.07
335.06	37.37
335.271	37.04
335.482	40.28
335.692	41.02
335.903	41.73
336.114	41.42
336.325	45.85
336.535	45.62
336.746	46.66
336.957	45.79
337.167	44.1
337.378	42.98
337.589	44.15
337.799	39.44
338.01	39.04
338.22	38.2
338.431	37.17
338.642	35.77
338.852	34.89
339.063	36.48
339.273	39.97
339.484	41.99
339.694	42.84
339.905	39.38
340.115	40.56
340.326	38.9
340.536	40.48
340.746	40.58
340.957	39.03
341.167	41.39
341.378	38.07
341.588	35.94
341.799	35.25
342.009	35.86
342.219	37.33
342.43	39.02
342.64	38.11
342.85	37.8
343.061	37.8
343.271	37.78
343.481	36.2
343.691	36.68
343.902	34.48
344.112	33.35
344.322	32.98
344.532	32.82
344.743	31.01
344.953	31.46
345.163	29.93
345.373	29.75
345.583	30.25
345.793	29.95
346.004	32.3
346.214	32.35
346.424	33.12
346.634	35.05
346.844	35.39
347.054	36.66
347.264	38.89
347.474	40.51
347.684	40.86
347.894	41.1
348.104	41.26
348.314	39.21
348.524	38.27
348.734	39.03
348.944	35.71
349.154	35.56
349.364	34.21
349.574	31.92
349.784	32.65
349.994	33.63
350.204	32.72
350.413	33.09
350.623	34.05
350.833	34.49
351.043	33.1
351.253	32.82
351.463	33.62
351.672	34.16
351.882	35.5
352.092	35.55
352.302	35.83
352.511	36.59
352.721	37.33
352.931	35.94
353.141	37.22
353.35	38.17
353.56	37.12
353.77	37.76
353.979	37.62
354.189	38.49
354.399	37.56
354.608	37.13
354.818	37.1
355.027	36.91
355.237	36.21
355.447	36.99
355.656	36.77
355.866	37.61
356.075	37.42
356.285	37.09
356.494	36.17
356.704	36.34
356.913	36.57
357.123	35.67
357.332	33.18
357.542	32.94
357.751	31.91
357.96	31.28
358.17	31.48
358.379	31.15
358.589	30.88
358.798	29.99
359.007	28.75
359.217	27.51
359.426	26.63
359.635	27.07
359.845	27.18
360.054	26.3
360.263	26.45
360.472	27.05
360.682	26.82
360.891	26.88
361.1	26.56
361.309	26.93
361.519	27.3
361.728	27.54
361.937	27.99
362.146	29.72
362.355	30.51
362.564	30.65
362.774	29.93
362.983	28.26
363.192	28.51
363.401	30.26
363.61	29.72
363.819	30.21
364.028	30.01
364.237	30.26
364.446	28.58
364.655	27.39
364.864	28.27
365.073	29.02
365.282	30.33
365.491	29.39
365.7	27.51
365.909	28.54
366.118	26.71
366.327	26.47
366.536	27.36
366.745	28.93
366.954	30.08
367.162	29.25
367.371	29.44
367.58	29.52
367.789	31.47
367.998	33.36
368.207	32.85
368.415	34.48
368.624	36.2
368.833	35.16
369.042	34.4
369.25	33.99
369.459	33.94
369.668	33.8
369.877	33.9
370.085	32.94
370.294	30.67
370.503	30.21
370.711	29.14
370.92	28.44
371.129	28.45
371.337	27.76
371.546	26.39
371.754	26.21
371.963	25.75
372.171	24.58
372.38	23.65
372.589	24.77
372.797	23.31
373.006	23.22
373.214	22.89
373.423	23.28
373.631	23.68
373.84	25.81
374.048	25.23
374.256	25.58
374.465	27.35
374.673	27.94
374.882	27.93
375.09	29.64
375.298	29.87
375.507	30
375.715	30.21
375.923	28.89
376.132	28.06
376.34	29.23
376.548	29.43
376.757	28.69
376.965	28.48
377.173	28.18
377.381	28.41
377.59	29.23
377.798	29.07
378.006	28.69
378.214	29.91
378.423	29.59
378.631	28.46
378.839	28.26
379.047	27.26
379.255	26.64
379.463	25.56
379.671	25.74
379.879	25.66
380.088	26.55
380.296	27.64
380.504	28.14
380.712	29.37
380.92	29.88
381.128	28.85
381.336	29.54
381.544	29.82
381.752	30.65
381.96	30.62
382.168	31.34
382.376	29.2
382.584	28.9
382.791	27.67
382.999	27.04
383.207	26.23
383.415	27.29
383.623	27.02
383.831	27.96
384.039	29.25
384.247	29.17
384.454	29.29
384.662	30.78
384.87	29.21
385.078	30.3
385.285	29.83
385.493	28.82
385.701	28.09
385.909	27.09
386.116	27.17
386.324	26.24
386.532	25.77
386.739	25.74
386.947	25.94
387.155	27.6
387.362	27.53
387.57	27.48
387.778	28.86
387.985	27.94
388.193	29.39
388.4	29.18
388.608	29.88
388.816	29.65
389.023	27.83
389.231	26.92
389.438	25.55
389.646	25.34
389.853	25.55
390.061	25.41
390.268	25.38
390.475	25.48
390.683	25.1
390.89	24.75
391.098	25.08
391.305	26.12
391.512	26.93
391.72	27.59
391.927	26.74
392.135	27.46
392.342	26.99
392.549	28.47
392.756	27.74
392.964	27.7
393.171	27.29
393.378	26.99
393.586	25.71
393.793	25.24
394	24.93
394.207	25.36
394.414	24.81
394.622	25.37
394.829	24.42
395.036	24.78
395.243	25.77
395.45	25.32
395.657	25.35
395.864	26.63
396.072	26.32
396.279	26.41
396.486	26.11
396.693	25.27
396.9	24.77
397.107	24.38
397.314	25.1
397.521	23.9
397.728	23.43
397.935	23.23
398.142	22.68
398.349	23.35
398.556	22.43
398.763	21.67
398.97	21.02
399.177	21.85
399.383	21.78
399.59	21.06
399.797	21.97
400.004	23.04
400.211	23.67
400.418	24.37
400.625	24.11
400.831	24.48
401.038	24.89
401.245	26.26
401.452	25.78
401.658	26.77
401.865	26.42
402.072	25.81
402.279	25.68
402.485	24.7
402.692	23.46
402.899	24.29
403.105	23.43
403.312	24.51
403.519	23.84
403.725	23.36
403.932	22.91
404.138	23.26
404.345	23.71
404.552	24.15
404.758	24.87
404.965	25.69
405.171	24.44
405.378	25.7
405.584	25.81
405.791	26.63
405.997	27.07
406.204	27.57
406.41	26.46
406.617	25.41
406.823	24.61
407.029	25.64
407.236	25.16
407.442	25.24
407.649	24.77
407.855	24.26
408.061	23.38
408.268	23.96
408.474	24.5
408.68	25.98
408.887	26.46
409.093	26.72
409.299	25.56
409.505	25.56
409.712	25.98
409.918	26.9
410.124	26.39
410.33	26.47
410.537	25.52
410.743	25.05
410.949	24.49
411.155	24.56
411.361	24.03
411.567	23.71
411.773	23.32
411.98	24.04
412.186	22.67
412.392	23.31
412.598	24
412.804	25
413.01	25.07
413.216	25.55
413.422	25.24
413.628	24.61
413.834	24.36
414.04	24.33
414.246	23.04
414.452	23.16
414.658	22.6
414.864	21.29
415.07	21.13
415.275	21.09
415.481	20.82
415.687	21.53
415.893	22.18
416.099	22.55
416.305	21.85
416.511	21.28
416.716	20.6
416.922	20.76
417.128	20.92
417.334	20.45
417.539	20.06
417.745	20.1
417.951	18.98
418.157	18.93
418.362	18.51
418.568	18.53
418.774	18.31
418.979	18.58
419.185	18.39
419.391	18.36
419.596	18.19
419.802	17.87
420.008	17.68
420.213	18.28
420.419	18.18
420.624	18.37
420.83	18.52
421.035	19.22
421.241	19.53
421.446	19
421.652	19.24
421.857	19.3
422.063	19.23
422.268	19.02
422.474	18.46
422.679	18.34
422.885	18.15
423.09	18.25
423.295	17.72
423.501	17.8
423.706	18.47
423.911	18.44
424.117	17.88
424.322	18.29
424.527	18.57
424.733	18.66
424.938	18.46
425.143	18.58
425.349	18.7
425.554	18.72
425.759	18.4
425.964	17.95
426.169	18.3
426.375	19.46
426.58	19.16
426.785	19.22
426.99	20.07
427.195	20.42
427.4	20.32
427.605	19.63
427.811	21.24
428.016	21.12
428.221	22
428.426	20.96
428.631	20.55
428.836	20.58
429.041	20.22
429.246	19.08
429.451	19.15
429.656	19.13
429.861	20.29
430.066	19.32
430.271	19.81
430.476	19.14
430.681	20.17
430.886	19.65
431.09	19.51
431.295	19.75
431.5	19.98
431.705	20.02
431.91	20.61
432.115	20.28
432.32	20.13
432.524	19.77
432.729	20.21
432.934	19.78
433.139	19.87
433.343	19.94
433.548	19.91
433.753	20.07
433.958	19.94
434.162	19.23
434.367	18.71
434.572	18.79
434.776	18.23
434.981	18.03
435.186	17.84
435.39	18.3
435.595	18.44
435.799	18.52
436.004	18.32
436.209	18.62
436.413	18.62
436.618	18.83
436.822	18.8
437.027	18.94
437.231	18.8
437.436	18.57
437.64	17.9
437.845	17.71
438.049	17.36
438.253	17.45
438.458	17.46
438.662	17.13
438.867	16.95
439.071	17.16
439.275	17.53
439.48	17.33
439.684	17.19
439.888	17.21
440.093	16.7
440.297	16.32
440.501	16.27
440.706	15.92
440.91	16.38
441.114	16.26
441.318	16.13
441.523	16.12
441.727	15.76
441.931	16.08
442.135	16.42
442.339	16.97
442.543	17.78
442.748	17.56
442.952	17.25
443.156	17.37
443.36	18.15
443.564	18.24
443.768	18.21
443.972	18.81
444.176	18.46
444.38	18.09
444.584	17.82
444.788	17.02
444.992	17.39
445.196	17.65
445.4	17.48
445.604	16.98
445.808	16.89
446.012	16.85
446.216	16.64
446.42	16.91
446.624	17.23
446.828	17.71
447.032	18.23
447.235	18.09
447.439	18.14
447.643	18.38
447.847	18.35
448.051	18.35
448.254	18.36
448.458	18.62
448.662	18.73
448.866	18.77
449.069	18.12
449.273	18.39
449.477	18.5
449.681	18.65
449.884	18.36
450.088	19.16
450.292	19.33
450.495	19.31
450.699	18.96
450.902	19.09
451.106	19.42
451.31	20.48
451.513	19.69
451.717	19.73
451.92	19.86
452.124	19.47
452.327	19.42
452.531	18.5
452.734	19.05
452.938	19.37
453.141	19.19
453.345	18.66
453.548	18.22
453.752	18.73
453.955	18.81
454.158	18.79
454.362	18.78
454.565	18.36
454.769	19.39
454.972	19.27
455.175	19.24
455.379	19.69
455.582	20.21
455.785	20.15
455.988	20.77
456.192	20.4
456.395	19.63
456.598	20.2
456.801	20.33
457.005	19.96
457.208	19.72
457.411	19.28
457.614	18.48
457.817	18.19
458.021	18.11
458.224	17.59
458.427	17.61
458.63	18.06
458.833	17.79
459.036	17.37
459.239	17.78
459.442	17.46
459.645	17.45
459.848	17.51
460.051	17.64
460.254	17.67
460.457	17.67
460.66	17.68
460.863	17.66
461.066	17.96
461.269	17.9
461.472	17.62
461.675	17.65
461.878	18.11
462.081	19
462.284	19.36
462.486	19.42
462.689	18.94
462.892	19.79
463.095	20.14
463.298	20.6
463.5	21.13
463.703	21.13
463.906	21.68
464.109	21.54
464.311	20.88
464.514	20.96
464.717	21.16
464.92	21.53
465.122	20.22
465.325	20.35
465.528	19.87
465.73	19.58
465.933	19.17
466.135	18.34
466.338	18.08
466.541	18.55
466.743	17.84
466.946	17.5
467.148	17.33
467.351	18.11
467.553	17.32
467.756	17.2
467.958	17.6
468.161	17.7
468.363	18.43
468.566	18.98
468.768	18.82
468.971	19.39
469.173	20.04
469.375	19.89
469.578	20.05
469.78	20.36
469.983	21.04
470.185	21.42
470.387	21.25
470.59	21.2
470.792	20.46
470.994	20.23
471.196	20.03
471.399	20.07
471.601	20.82
471.803	20.14
472.005	20.43
472.208	18.94
472.41	18.62
472.612	18.7
472.814	18.19
473.016	18.84
473.218	18.88
473.421	18.46
473.623	17.75
473.825	18.24
474.027	18.78
474.229	18.11
474.431	18.96
474.633	18.96
474.835	19.53
475.037	19.76
475.239	19.61
475.441	19.73
475.643	19.55
475.845	19.82
476.047	19.06
476.249	18.86
476.451	19.75
476.653	19.88
476.855	20.39
477.057	20.32
477.258	20.67
477.46	20.55
477.662	21.03
477.864	21.18
478.066	21.3
478.268	21.3
478.469	20.97
478.671	19.97
478.873	19.59
479.075	19.2
479.276	18.98
479.478	18.49
479.68	17.98
479.882	17.3
480.083	17.35
480.285	17.02
480.487	17.3
480.688	17.4
480.89	18.02
481.091	18.06
481.293	17.7
481.495	17.33
481.696	17.31
481.898	17.28
482.099	16.96
482.301	16.78
482.502	16.52
482.704	16.26
482.905	16.29
483.107	16
483.308	15.94
483.51	15.74
483.711	15.83
483.913	15.62
484.114	15.57
484.315	15.53
484.517	15.36
484.718	15.48
484.92	15.36
485.121	15.14
485.322	15.23
485.524	15.24
485.725	15.28
485.926	15.29
486.127	15.48
486.329	15.68
486.53	15.62
486.731	15.72
486.932	15.43
487.134	15.23
487.335	15.46
487.536	15.61
487.737	15.48
487.938	15.68
488.139	15.51
488.341	15.47
488.542	15.34
488.743	15.56
488.944	15.69
489.145	15.98
489.346	16.41
489.547	16.16
489.748	15.95
489.949	16.14
490.15	16.06
490.351	15.92
490.552	16.21
490.753	16.36
490.954	16.39
491.155	16.3
491.356	16.36
491.557	16.37
491.758	16.35
491.959	16.45
492.159	16.24
492.36	16.61
492.561	16.81
492.762	16.98
492.963	17.32
493.164	17.62
493.364	18.15
493.565	18.28
493.766	18.45
493.967	18.85
494.167	19.02
494.368	19.31
494.569	18.62
494.769	19.22
494.97	18.98
495.171	18.88
495.371	18.69
495.572	18
495.773	17.79
495.973	17.76
496.174	17.72
496.375	17.53
496.575	18.16
496.776	18.48
496.976	17.95
497.177	18.06
497.377	17.55
497.578	17.7
497.778	18
497.979	18.37
498.179	18.6
498.38	18.53
498.58	18.65
498.78	18.1
498.981	17.96
499.181	18.89
499.382	18.69
499.582	19.13
499.782	19.17
499.983	19.19
500.183	18.87
500.383	18.83
500.584	18.7
500.784	18.63
500.984	18.65
501.184	18.35
501.385	18.04
501.585	18.13
501.785	18.02
501.985	18.12
502.185	18.48
502.386	18.53
502.586	18.52
502.786	19.04
502.986	19.18
503.186	18.79
503.386	19.62
503.586	19.54
503.786	19.79
503.987	19.74
504.187	19.31
504.387	19.55
504.587	19.8
504.787	19.52
504.987	19.81
505.187	19.9
505.387	21.02
505.587	20.56
505.786	20.23
505.986	19.74
506.186	19.75
506.386	20.76
506.586	20.19
506.786	20.61
506.986	20.82
507.186	20.19
507.386	20.59
507.585	19.86
507.785	20.26
507.985	20.15
508.185	20.52
508.384	21.01
508.584	20.49
508.784	20.94
508.984	20.34
509.183	20.42
509.383	21.04
509.583	21.1
509.782	21.48
509.982	21.31
510.182	21.72
510.381	21.44
510.581	21.1
510.781	21.17
510.98	20.76
511.18	21.42
511.379	21.58
511.579	20.95
511.778	20.3
511.978	20.17
512.177	20.33
512.377	20.28
512.576	20.96
512.776	21.07
512.975	21.11
513.175	21.34
513.374	21.12
513.573	21.77
513.773	22.32
513.972	22.61
514.172	23.02
514.371	22.72
514.57	23.3
514.77	23.54
514.969	23.44
515.168	23.71
515.367	23.64
515.567	23.84
515.766	23.29
515.965	23.28
516.164	23.64
516.364	23.46
516.563	23.69
516.762	22.91
516.961	22.48
517.16	22.23
517.359	21.82
517.559	21.96
517.758	21.77
517.957	21.54
518.156	21.37
518.355	20.93
518.554	21.01
518.753	21.16
518.952	21.46
519.151	21.26
519.35	21.68
519.549	21.98
519.748	22.64
519.947	22.55
520.146	22.78
520.345	23.28
520.544	23.75
520.743	23.99
520.942	23.51
521.141	23.58
521.339	23.77
521.538	23.61
521.737	23.77
521.936	23.34
522.135	23.62
522.333	23.54
522.532	23.29
522.731	22.67
522.93	22.33
523.129	22.72
523.327	22.95
523.526	22.97
523.725	23.04
523.923	22.66
524.122	22.72
524.321	23
524.519	23.36
524.718	23.19
524.917	23.58
525.115	23.66
525.314	23.66
525.512	23.6
525.711	23.59
525.909	23.45
526.108	23.43
526.306	23.29
526.505	22.99
526.703	22.59
526.902	22.48
527.1	22.48
527.299	22.24
527.497	22.08
527.696	21.85
527.894	21.87
528.092	21.86
528.291	21.95
528.489	22.04
528.688	22.12
528.886	22.18
529.084	22.41
529.283	22.31
529.481	22.48
529.679	23.02
529.877	23.48
530.076	23.31
530.274	23.37
530.472	23.39
530.67	23.25
530.869	23.24
531.067	23.55
531.265	23.54
531.463	23.84
531.661	23.64
531.859	22.87
532.057	22.64
532.255	23.12
532.454	23.55
532.652	23.53
532.85	23.67
533.048	23.78
533.246	23.87
533.444	23.88
533.642	23.64
533.84	23.87
534.038	24.29
534.236	24.35
534.434	24.49
534.632	24.5
534.83	24.39
535.027	24.4
535.225	24.5
535.423	24.42
535.621	24.84
535.819	24.82
536.017	24.91
536.215	25.1
536.412	25.19
536.61	25.19
536.808	25.23
537.006	25.48
537.203	25.77
537.401	25.62
537.599	25.42
537.797	25.19
537.994	25.69
538.192	25.9
538.39	25.37
538.587	25.42
538.785	25.3
538.983	25.17
539.18	25.41
539.378	24.94
539.575	25.22
539.773	25.12
539.97	24.69
540.168	24.48
540.366	24.64
540.563	25.17
540.761	25.12
540.958	25.05
541.155	24.93
541.353	24.95
541.55	25.13
541.748	25.29
541.945	25.24
542.143	25.61
542.34	25.85
542.537	25.87
542.735	25.46
542.932	25.71
543.129	25.9
543.327	26.27
543.524	26.57
543.721	26.65
543.919	26.67
544.116	27.34
544.313	27.54
544.51	27.96
544.708	27.86
544.905	28.55
545.102	28.59
545.299	28.86
545.496	28.54
545.693	28.32
545.891	28.67
546.088	28.32
546.285	28.38
546.482	28.69
546.679	28.26
546.876	28.48
547.073	28.64
547.27	28.66
547.467	28.73
547.664	29.19
547.861	29.55
548.058	29.39
548.255	29.7
548.452	29.46
548.649	29.11
548.846	29.54
549.043	29.84
549.24	29.61
549.437	29.55
549.633	29.37
549.83	29.7
550.027	30.15
550.224	30.48
550.421	30.74
550.618	31.35
550.814	31.74
551.011	31.78
551.208	31.55
551.405	31.23
551.601	31.48
551.798	31.67
551.995	31.09
552.191	30.73
552.388	30.37
552.585	30.18
552.781	29.94
552.978	29.46
553.175	29.76
553.371	29.78
553.568	30.06
553.764	30.15
553.961	30.08
554.157	30.8
554.354	30.76
554.55	31.32
554.747	31.69
554.943	31.83
555.14	32.47
555.336	32.49
555.533	32.95
555.729	33.38
555.926	33.59
556.122	33.5
556.318	33.52
556.515	33.9
556.711	33.8
556.907	34.37
557.104	34.99
557.3	34.82
557.496	34.85
557.693	34.66
557.889	34.38
558.085	34.02
558.281	34.42
558.478	34.54
558.674	34.23
558.87	33.73
559.066	32.95
559.262	32.61
559.459	32.37
559.655	32.32
559.851	32.77
560.047	32.49
560.243	33.12
560.439	33.45
560.635	33.64
560.831	33.97
561.027	34.53
561.223	34.95
561.419	34.81
561.615	35.74
561.811	36.1
562.007	36.11
562.203	36.75
562.399	36.39
562.595	36.44
562.791	36.52
562.987	35.74
563.183	35.41
563.379	35.42
563.575	35.63
563.771	35.38
563.966	34.76
564.162	34.5
564.358	34.59
564.554	35.17
564.75	34.18
564.945	34.54
565.141	35.28
565.337	35.59
565.533	35.83
565.728	35.95
565.924	35.66
566.12	36.04
566.315	36.04
566.511	36.54
566.707	36.47
566.902	36.9
567.098	36.24
567.293	36.37
567.489	37.1
567.684	37.16
567.88	36.8
568.076	37.32
568.271	37.89
568.467	37.47
568.662	36.75
568.858	36.52
569.053	37.03
569.248	37.3
569.444	36.79
569.639	35.67
569.835	35.82
570.03	36.02
570.225	36.13
570.421	35.84
570.616	36.37
570.812	36.88
571.007	37.59
571.202	37.04
571.397	37.49
571.593	37.5
571.788	37.7
571.983	37.79
572.178	38.57
572.374	38.3
572.569	38.29
572.764	38.67
572.959	38.16
573.154	37.93
573.35	38.49
573.545	38.03
573.74	38.85
573.935	39.68
574.13	39.61
574.325	39.21
574.52	39.11
574.715	39.19
574.91	38.81
575.105	38.72
575.3	38.47
575.495	38.61
575.69	38.76
575.885	38.61
576.08	38.07
576.275	38.11
576.47	38.01
576.665	38.26
576.86	37.98
577.055	37.93
577.25	38.71
577.444	38.86
577.639	39.32
577.834	39.38
578.029	40.05
578.224	40.56
578.418	40.81
578.613	41.1
578.808	40.84
579.003	41.17
579.197	41.72
579.392	41.92
579.587	42.1
579.781	41.73
579.976	42.21
580.171	41.68
580.365	41.51
580.56	41.62
580.755	41.72
580.949	42.37
581.144	42.37
581.338	42.2
581.533	42.3
581.727	41.89
581.922	42.36
582.116	42.26
582.311	42.13
582.505	41.96
582.7	41.94
582.894	42.06
583.089	41.32
583.283	41.59
583.478	41.86
583.672	41.48
583.866	41.8
584.061	41.8
584.255	41.82
584.449	41.88
584.644	42.44
584.838	41.92
585.032	41.7
585.226	42.85
585.421	42.98
585.615	42.28
585.809	42.52
586.003	42.49
586.198	42.41
586.392	42.26
586.586	42.26
586.78	42.36
586.974	43.11
587.168	43.05
587.363	43.03
587.557	43.78
587.751	45.11
587.945	44.97
588.139	45.34
588.333	44.83
588.527	45.15
588.721	45.39
588.915	45.27
589.109	44.55
589.303	44.76
589.497	44.24
589.691	43.95
589.885	43.23
590.079	43.47
590.273	42.82
590.466	43.08
590.66	43.26
590.854	43.17
591.048	43.02
591.242	43.26
591.436	43.66
591.629	44.34
591.823	44.61
592.017	44.72
592.211	45.17
592.404	45.91
592.598	45.96
592.792	45.63
592.986	45.27
593.179	45.43
593.373	45.08
593.567	45.41
593.76	44.99
593.954	44.86
594.147	45.22
594.341	45.36
594.535	45.16
594.728	44.92
594.922	44.55
595.115	44.95
595.309	45.16
595.502	45.51
595.696	45.02
595.889	45.05
596.083	44.54
596.276	43.97
596.47	43.98
596.663	43.65
596.856	43.89
597.05	44.31
597.243	44.05
597.437	43.64
597.63	43.7
597.823	44.26
598.017	43.55
598.21	44.05
598.403	44.37
598.596	44.2
598.79	44.85
598.983	44.69
599.176	45.31
599.369	45.83
599.563	46.09
599.756	46.55
599.949	45.91
600.142	47.11
600.335	46.18
600.528	46.31
600.722	46.41
600.915	45.96
601.108	46.5
601.301	46.11
601.494	46.33
601.687	46.64
601.88	46.04
602.073	45.63
602.266	44.89
602.459	45.58
602.652	45.8
602.845	45.4
603.038	45.71
603.231	45.59
603.424	45.65
603.617	45.04
603.809	45.08
604.002	45.65
604.195	45.52
604.388	45.98
604.581	46.18
604.774	46.04
604.966	45.99
605.159	45.98
605.352	46.13
605.545	46.07
605.737	45.89
605.93	46.11
606.123	45.85
606.316	46.64
606.508	46.65
606.701	46.45
606.894	46.53
607.086	46.56
607.279	46.7
607.471	47.14
607.664	47.1
607.857	48.46
608.049	48.18
608.242	47.77
608.434	47.42
608.627	47.01
608.819	46.59
609.012	46.35
609.204	46.74
609.397	46.76
609.589	46.17
609.782	46.16
609.974	45.56
610.166	45.7
610.359	46.47
610.551	46.46
610.743	47.09
610.936	48.3
611.128	49.32
611.32	49.24
611.513	49.03
611.705	49.92
611.897	50.65
612.09	51.26
612.282	51.63
612.474	51.94
612.666	52.7
612.858	53.41
613.051	52.32
613.243	52.77
613.435	52.54
613.627	52.6
613.819	51.84
614.011	51.8
614.203	51.93
614.395	51.71
614.588	50.72
614.78	50.98
614.972	50.95
615.164	51.96
615.356	51.23
615.548	51.41
615.74	52.13
615.932	51.7
616.124	51.11
616.315	50.86
616.507	51.79
616.699	51.93
616.891	51.75
617.083	50.92
617.275	51.14
617.467	49.91
617.659	50.01
617.85	49.5
618.042	49.89
618.234	50.24
618.426	50.05
618.618	48.93
618.809	48.67
619.001	47.75
619.193	48.42
619.384	47.74
619.576	48.3
619.768	48.34
619.959	48.62
620.151	48.5
620.343	49
620.534	48.83
620.726	49.03
620.917	50.19
621.109	50.55
621.301	50.99
621.492	51.87
621.684	52.15
621.875	52.81
622.067	52.33
622.258	53.25
622.45	52.33
622.641	52.7
622.832	52.42
623.024	52.01
623.215	52.73
623.407	51.79
623.598	50.98
623.789	50.54
623.981	48.85
624.172	49.83
624.363	49.24
624.555	50.02
624.746	50.11
624.937	49.96
625.129	49.98
625.32	49.35
625.511	49.14
625.702	48.31
625.893	49.14
626.085	49.56
626.276	48.42
626.467	47.74
626.658	47.32
626.849	47.79
627.04	48.09
627.231	48.1
627.422	48.87
627.614	49.13
627.805	50.41
627.996	50.81
628.187	51.62
628.378	52.7
628.569	53.93
628.76	54.37
628.951	53.51
629.142	53.03
629.332	52.75
629.523	52.35
629.714	52.81
629.905	51.69
630.096	50.7
630.287	50.17
630.478	49.75
630.669	49.53
630.859	50
631.05	49.98
631.241	50.13
631.432	50.49
631.623	50.59
631.813	50.4
632.004	51.37
632.195	51.3
632.385	52.02
632.576	52.62
632.767	52.81
632.957	52.71
633.148	52.56
633.339	53.32
633.529	52.78
633.72	52.62
633.91	52.51
634.101	52.27
634.292	53.57
634.482	53.49
634.673	53.73
634.863	53.6
635.054	52.96
635.244	53.5
635.435	53.35
635.625	53.35
635.815	53.59
636.006	54.6
636.196	54.64
636.387	53.79
636.577	52.65
636.767	52.49
636.958	52.12
637.148	51.85
637.338	51.44
637.529	51.73
637.719	53.23
637.909	53.67
638.099	53.11
638.29	53.84
638.48	54.07
638.67	55.5
638.86	54.88
639.05	55.07
639.241	56.4
639.431	56.34
639.621	55.06
639.811	54.25
640.001	55.1
640.191	54.44
640.381	52.99
640.571	53.45
640.761	53.29
640.951	53.09
641.141	53.64
641.331	52.52
641.521	52.44
641.711	53.35
641.901	52.91
642.091	52.24
642.281	52.9
642.471	53.81
642.661	54.16
642.851	54.14
643.041	54.28
643.231	54.71
643.42	55.09
643.61	55.26
643.8	54.45
643.99	54.6
644.18	54.36
644.369	54.62
644.559	55.41
644.749	54.36
644.939	55.5
645.128	55.84
645.318	54.61
645.508	54.93
645.697	55.71
645.887	56.2
646.076	56.22
646.266	56.2
646.456	55.43
646.645	55.06
646.835	55.42
647.024	54.41
647.214	54.03
647.403	55.14
647.593	54.28
647.782	53.98
647.972	54.16
648.161	54.75
648.351	53.87
648.54	53.98
648.73	53.7
648.919	52.66
649.108	51.72
649.298	51.41
649.487	50.7
649.677	51.78
649.866	51.52
650.055	51.85
650.244	51.03
650.434	52.16
650.623	52.16
650.812	53.18
651.002	53.9
651.191	54.4
651.38	55.44
651.569	56.55
651.758	55.48
651.947	54.96
652.137	55.15
652.326	55.6
652.515	54.6
652.704	54.2
652.893	52.93
653.082	53.64
653.271	53.68
653.46	52.47
653.649	51.93
653.838	51.25
654.027	51.66
654.216	51.29
654.405	51.54
654.594	52.9
654.783	53.41
654.972	51.94
655.161	50.66
655.35	51.34
655.539	51.91
655.728	51.81
655.916	53.1
656.105	53.29
656.294	52.67
656.483	52.41
656.672	51.32
656.86	51.18
657.049	53.09
657.238	53.49
657.427	53.58
657.615	52.94
657.804	52.2
657.993	51.01
658.181	51.61
658.37	51.69
658.559	51.49
658.747	52.21
658.936	52.3
659.125	53.07
659.313	52.5
659.502	51.61
659.69	51.59
659.879	51.61
660.067	52.7
660.256	52.52
660.444	52.37
660.633	52.51
660.821	53.26
661.01	54.38
661.198	52.45
661.387	53.12
661.575	53.91
661.763	54.83
661.952	54.94
662.14	55.46
662.328	54.89
662.517	56.98
662.705	57.67
662.893	56.49
663.082	54.46
663.27	55
663.458	55.44
663.646	55.64
663.834	56.24
664.023	57.97
664.211	57.8
664.399	58.6
664.587	56.86
664.775	56.33
664.963	56.34
665.152	58.48
665.34	57.88
665.528	56.86
665.716	58.18
665.904	58.54
666.092	58.35
666.28	58.4
666.468	58.16
666.656	57.76
666.844	57.28
667.032	57.52
667.22	57.2
667.408	58.11
667.596	58.08
667.784	55.44
667.971	54.83
668.159	53.8
668.347	53.73
668.535	53.04
668.723	54.13
668.911	54.9
669.098	54.11
669.286	53.66
669.474	53.42
669.662	53.75
669.849	55.81
670.037	55.38
670.225	55.18
670.413	54.22
670.6	55.31
670.788	54.93
670.976	54.6
671.163	55.89
671.351	55.2
671.538	55.88
671.726	55.59
671.913	56.01
672.101	56.97
672.289	58.29
672.476	59.64
672.664	57.79
672.851	58.29
673.039	59.56
673.226	59.51
673.413	61.06
673.601	60.21
673.788	60.46
673.976	57.55
674.163	56.08
674.35	55.42
674.538	55.99
674.725	57.63
674.912	56.4
675.1	56.33
675.287	55.76
675.474	54.34
675.662	55.21
675.849	55.45
676.036	56.8
676.223	57.62
676.411	58.02
676.598	57.99
676.785	56.92
676.972	58.29
677.159	56.3
677.346	55.15
677.533	56.02
677.721	55.01
677.908	53.87
678.095	53.87
678.282	54.31
678.469	53.52
678.656	52.66
678.843	52.09
679.03	52.02
679.217	51.77
679.404	52.57
679.591	51.7
679.778	51.61
679.964	52.89
680.151	53.14
680.338	52.59
680.525	53.63
680.712	54.53
680.899	55.18
681.086	54.79
681.272	56.18
681.459	56.67
681.646	57.62
681.833	58.08
682.02	57.41
682.206	55.6
682.393	55.62
682.58	55.6
682.766	54.12
682.953	55.22
683.14	55.84
683.326	56.39
683.513	55.8
683.7	55.28
683.886	54.78
684.073	56.73
684.259	58.09
684.446	57.49
684.632	58.24
684.819	58.18
685.005	58.27
685.192	57.72
685.378	57.43
685.565	57.42
685.751	58.12
685.938	58.16
686.124	57.73
686.31	58.31
686.497	59.33
686.683	57.79
686.87	58.21
687.056	57.4
687.242	58.39
687.429	59.25
687.615	58.51
687.801	56.38
687.987	56.88
688.174	55.5
688.36	56.59
688.546	56.7
688.732	57.87
688.918	57.99
689.105	57.5
689.291	56.05
689.477	54.66
689.663	56.81
689.849	58.87
690.035	59.58
690.221	60.31
690.407	58.9
690.593	57.61
690.779	56.86
690.965	56.36
691.151	57.85
691.337	59.05
691.523	59.41
691.709	59.17
691.895	58.84
692.081	58.58
692.267	59.41
692.453	58.71
692.639	60.66
692.825	60.53
693.011	60.71
693.196	60.22
693.382	58.62
693.568	58.82
693.754	58.47
693.94	58.81
694.125	59.74
694.311	58.72
694.497	60.39
694.682	60.25
694.868	62.21
695.054	62.05
695.239	62.76
695.425	64.19
695.611	63.15
695.796	61.75
695.982	60.93
696.168	59.91
696.353	58.56
696.539	57.17
696.724	56.56
696.91	53.63
697.095	54.32
697.281	53.7
697.466	53.54
697.652	53.84
697.837	55.07
698.023	54.03
698.208	54.03
698.393	54.57
698.579	54.26
698.764	54
698.949	55.22
699.135	55.23
699.32	54.89
699.505	54.51
699.691	55.5
699.876	54.6
700.061	56.02
700.246	54.54
700.432	55.5
700.617	56.6
700.802	57.46
700.987	57.37
701.172	59.54
701.358	59.92
701.543	60.26
701.728	61.44
701.913	61.51
702.098	61.86
702.283	65.73
702.468	65.42
702.653	66.06
702.838	64.52
703.023	65.55
703.208	63.85
703.393	65.21
703.578	64.21
703.763	63.09
703.948	63.79
704.133	65.31
704.318	64.67
704.503	64.95
704.688	64.08
704.873	66.55
705.057	65.82
705.242	66.81
705.427	66.3
705.612	67.34
705.797	66.95
705.981	66.6
706.166	65.73
706.351	64.68
706.536	63.12
706.72	63.28
706.905	62.92
707.09	62.94
707.274	61.18
707.459	59.7
707.644	60.04
707.828	59.66
708.013	60.16
708.197	59.89
708.382	60.33
708.567	62.54
708.751	62.33
708.936	60.56
709.12	60.2
709.305	58.04
709.489	57.63
709.673	58.02
709.858	58.75
710.042	56.86
710.227	56.35
710.411	55.97
710.596	54.26
710.78	55.53
710.964	56.87
711.149	57.57
711.333	59.7
711.517	59.89
711.702	59.08
711.886	57.3
712.07	58.96
712.254	60.78
712.438	62.06
712.623	63.27
712.807	62.94
712.991	62.66
713.175	63.36
713.359	62.33
713.544	63.7
713.728	63.49
713.912	65.06
714.096	64.75
714.28	63.33
714.464	63.35
714.648	62.79
714.832	63.04
715.016	64.45
715.2	63.13
715.384	63.62
715.568	62.96
715.752	62.4
715.936	62.85
716.12	62.86
716.304	62.91
716.488	60.89
716.671	59.54
716.855	60.78
717.039	58.91
717.223	60.15
717.407	59.43
717.59	57.2
717.774	58.5
717.958	57.6
718.142	56.82
718.325	58.22
718.509	58.1
718.693	58.94
718.877	55.93
719.06	55.04
719.244	52.81
719.428	58.2
719.611	61.03
719.795	61.25
719.978	61.75
720.162	62.57
720.345	61.89
720.529	63.04
720.713	63.54
720.896	63.41
721.08	65.04
721.263	65.35
721.446	61.92
721.63	62.31
721.813	61.31
721.997	58.4
722.18	57.02
722.364	54.94
722.547	54.86
722.73	53.62
722.914	55.7
723.097	56.82
723.28	57.9
723.464	58.32
723.647	58.12
723.83	58.34
724.013	60.23
724.197	62.99
724.38	65.86
724.563	66.24
724.746	66.36
724.929	65.6
725.112	67.38
725.296	67.64
725.479	67.28
725.662	66.88
725.845	66.56
726.028	67.01
726.211	64.85
726.394	62.7
726.577	62.48
726.76	65.99
726.943	64.87
727.126	60.51
727.309	59.52
727.492	59.74
727.675	59.91
727.858	58.73
728.041	57.95
728.224	57.63
728.407	56.95
728.589	57.61
728.772	56.03
728.955	56.64
729.138	55.43
729.321	56.33
729.503	56
729.686	55.25
729.869	57.48
730.052	58.67
730.234	60.63
730.417	61.03
730.6	62.13
730.782	62.06
730.965	60.78
731.148	62.98
731.33	64.26
731.513	65.08
731.695	64.63
731.878	65.09
732.061	64.16
732.243	63.68
732.426	64.64
732.608	62.2
732.791	61.4
732.973	62.74
733.156	61.87
733.338	60.83
733.52	61.22
733.703	62.78
733.885	59.13
734.068	59.22
734.25	57.29
734.432	58.32
734.615	58.66
734.797	59.95
734.979	60.28
735.162	62.38
735.344	64.9
735.526	65.27
735.708	66.03
735.891	65.79
736.073	66.25
736.255	66.35
736.437	65.12
736.619	65.68
736.802	65.94
736.984	64.71
737.166	64.09
737.348	62.67
737.53	62.03
737.712	62.14
737.894	64.03
738.076	65.09
738.258	66.23
738.44	67.86
738.622	68.68
738.804	68.05
738.986	68.66
739.168	69.5
739.35	70.3
739.532	68.86
739.714	70.58
739.896	71.34
740.078	71.5
740.259	72.81
740.441	71.87
740.623	74.87
740.805	74.12
740.987	75.13
741.168	72.26
741.35	71.4
741.532	71.84
741.714	70.53
741.895	70.92
742.077	71.35
742.259	70.17
742.44	72.87
742.622	67.86
742.804	68.37
742.985	66.8
743.167	66.02
743.348	64.92
743.53	65.91
743.711	65.05
743.893	64.85
744.075	64.75
744.256	65.55
744.438	62.63
744.619	63.9
744.8	64.55
744.982	64
745.163	68.05
745.345	72.25
745.526	74.03
745.707	72.1
745.889	71.88
746.07	75.26
746.252	74.89
746.433	75.42
746.614	76.02
746.795	75.04
746.977	78.64
747.158	77.27
747.339	71.46
747.52	69.12
747.702	71.13
747.883	72.39
748.064	67.26
748.245	68.31
748.426	68.51
748.607	65.72
748.788	66.97
748.97	64.25
749.151	66.37
749.332	68.78
749.513	70.24
749.694	72.86
749.875	74.64
750.056	76.19
750.237	72.57
750.418	72.22
750.599	76.89
750.78	77.61
750.96	76.29
751.141	75.46
751.322	74.86
751.503	72.18
751.684	68.56
751.865	65.57
752.046	64.42
752.226	66.45
752.407	64.07
752.588	63.28
752.769	63.81
752.949	67.45
753.13	64.8
753.311	64.56
753.492	66.94
753.672	69.4
753.853	67.91
754.034	68.56
754.214	68.43
754.395	67.59
754.575	64.81
754.756	62.19
754.937	61.24
755.117	65.05
755.298	66.91
755.478	66.42
755.659	64.45
755.839	66.83
756.02	66.21
756.2	69.51
756.381	72.89
756.561	73.82
756.741	76.28
756.922	74.37
757.102	73.97
757.283	71.63
757.463	72.98
757.643	73.23
757.823	74.41
758.004	73.38
758.184	72.15
758.364	70.81
758.545	71.73
758.725	71.9
758.905	72.82
759.085	71.25
759.265	72.2
759.446	69.03
759.626	66.69
759.806	64.66
759.986	67.09
760.166	64.41
760.346	66.24
760.526	65.02
760.706	63.35
760.886	61.89
761.066	61.94
761.246	60.02
761.426	60.58
761.606	61.93
761.786	61.36
761.966	59.85
762.146	59
762.326	57.96
762.506	58.33
762.686	57.72
762.866	56.92
763.046	55.95
763.225	57.4
763.405	55.87
763.585	54.82
763.765	54.07
763.945	52.99
764.124	53.12
764.304	53.82
764.484	52.86
764.664	53.96
764.843	56.13
765.023	55.2
765.203	55.27
765.382	56.4
765.562	58.91
765.741	61
765.921	62.96
766.101	64.73
766.28	63.45
766.46	65.67
766.639	66.51
766.819	67.04
766.998	69.17
767.178	72.88
767.357	76.1
767.537	73.58
767.716	74.27
767.896	75.14
768.075	74.29
768.254	73.53
768.434	71.32
768.613	69.57
768.792	70.99
768.972	72.33
769.151	71.34
769.33	69.58
769.51	68.32
769.689	68.81
769.868	70.47
770.047	72.98
770.226	77.57
770.406	79.78
770.585	86.92
770.764	87.64
770.943	85.18
771.122	82.29
771.301	85.71
771.48	92.54
771.66	95.91
771.839	92.58
772.018	88.32
772.197	85.95
772.376	82.41
772.555	78.9
772.734	75.71
772.913	76.67
773.092	78.86
773.271	77.6
773.449	79.06
773.628	72.99
773.807	74.41
773.986	77.48
774.165	80.88
774.344	84.42
774.523	82.88
774.701	86.49
774.88	88.61
775.059	85
775.238	83.5
775.417	77.98
775.595	83.88
775.774	81.71
775.953	79.67
776.131	76.74
776.31	76.18
776.489	74.15
776.667	74.97
776.846	76.1
777.025	74.61
777.203	76.36
777.382	77.63
777.56	78.3
777.739	76.7
777.917	77.92
778.096	78.52
778.274	77.75
778.453	80.06
778.631	76.41
778.81	72.78
778.988	78.16
779.166	80.06
779.345	84.18
779.523	80.27
779.702	87.62
779.88	87.58
780.058	84.83
780.237	87.62
780.415	88.37
780.593	86.71
780.771	87.4
780.95	85.77
781.128	80.83
781.306	75.61
781.484	78.5
781.662	73.4
781.841	71.35
782.019	71.93
782.197	71.33
782.375	74.35
782.553	78.05
782.731	78.8
782.909	79.61
783.087	79.74
783.265	82.84
783.443	79.49
783.621	84.93
783.799	88.24
783.977	93.3
784.155	90.17
784.333	83.07
784.511	85.47
784.689	85.09
784.867	82.79
785.045	86.18
785.223	84.49
785.4	86.03
785.578	90.46
785.756	88.87
785.934	83.18
786.112	82
786.289	83.47
786.467	84.11
786.645	84.65
786.823	89.19
787	86.45
787.178	84.18
787.356	80.82
787.533	72.54
787.711	71.99
787.889	72.05
788.066	75.69
788.244	71.5
788.421	65.1
788.599	65.67
788.776	62.16
788.954	63.17
789.131	68.95
789.309	70.57
789.486	75.77
789.664	82.91
789.841	86.43
790.019	85.42
790.196	89.93
790.373	90.23
790.551	87.04
790.728	88.21
790.906	91.62
791.083	89.95
791.26	92
791.437	84.78
791.615	79.98
791.792	75.29
791.969	74.79
792.146	76.55
792.324	83.37
792.501	87.51
792.678	89.77
792.855	84.3
793.032	81.69
793.209	77.02
793.387	81.25
793.564	81.84
793.741	84.11
793.918	81.24
794.095	78.27
794.272	76.07
794.449	74.75
794.626	74.54
794.803	74.75
794.98	73.67
795.157	75.27
795.334	73.88
795.511	70.92
795.688	67.47
795.864	71.35
796.041	70.96
796.218	68.47
796.395	68.83
796.572	66.05
796.749	67.68
796.925	64.7
797.102	65.35
797.279	64.63
797.456	63.1
797.632	64.02
797.809	63.56
797.986	64.71
798.162	65.52
798.339	64.66
798.516	68.16
798.692	67.7
798.869	72.99
799.046	72.41
799.222	76.89
799.399	78.08
799.575	78.77
799.752	76.57
799.928	75.54
800.105	76.28
800.281	74.21
800.458	71.15
800.634	70.12
800.811	72.79
800.987	69.63
801.163	62.81
801.34	63.52
801.516	63.97
801.692	66.87
801.869	65.28
802.045	69.34
802.221	70.37
802.398	70.72
802.574	75.64
802.75	72.35
802.926	80.11
803.103	83.97
803.279	83.53
803.455	81.08
803.631	81.47
803.807	83.71
803.983	79
804.16	79.95
804.336	78.97
804.512	75.43
804.688	79.15
804.864	83.41
805.04	91.86
805.216	89.31
805.392	96.61
805.568	91.49
805.744	97.03
805.92	93.74
806.096	96.89
806.272	107.46
806.448	104.4
806.623	104.61
806.799	102.91
806.975	94.13
807.151	97.98
807.327	90.86
807.503	94.8
807.678	99.14
807.854	103.38
808.03	102.5
808.206	99.02
808.381	96.79
808.557	96.9
808.733	94.05
808.908	94.09
809.084	93.65
809.26	86.61
809.435	87.52
809.611	78.55
809.787	78.98
809.962	76.17
810.138	75.73
810.313	85.58
810.489	80.42
810.664	81.57
810.84	80.75
811.015	84.53
811.191	90.4
811.366	88.3
811.542	92.83
811.717	96.5
811.892	101.11
812.068	100.3
812.243	92.28
812.419	94.33
812.594	92.9
812.769	94.86
812.944	89.09
813.12	91.66
813.295	88.69
813.47	86.82
813.645	81.14
813.821	79.96
813.996	77.31
814.171	77.65
814.346	75.22
814.521	74.47
814.697	76.34
814.872	77.21
815.047	71.99
815.222	74.36
815.397	79.04
815.572	82.19
815.747	74.62
815.922	78.62
816.097	85.45
816.272	92.33
816.447	89.36
816.622	88.97
816.797	91.49
816.972	92.81
817.147	92.31
817.322	81.78
817.496	74.83
817.671	83.05
817.846	76.53
818.021	74.31
818.196	68.72
818.371	69.52
818.545	66.26
818.72	63.12
818.895	60.87
819.069	60.26
819.244	62.54
819.419	62.69
819.594	56.67
819.768	58.65
819.943	52.02
820.117	53.02
820.292	52.24
820.467	51.42
820.641	49.44
820.816	48.94
820.99	46.66
821.165	44.76
821.339	45.38
821.514	45.9
821.688	44.98
821.863	44.97
822.037	43.98
822.212	43.13
822.386	42.36
822.56	43.29
822.735	44.32
822.909	45.49
823.084	44.83
823.258	44.15
823.432	43.09
823.606	42.96
823.781	45.09
823.955	45.2
824.129	46.36
824.303	47.82
824.478	47.36
824.652	47.71
824.826	47.13
825	49.62
825.174	49.52
825.348	50.57
825.523	52.04
825.697	51.34
825.871	52.03
826.045	51.89
826.219	51.38
826.393	50.81
826.567	47.64
826.741	50.19
826.915	50.01
827.089	50.62
827.263	52.21
827.437	51.97
827.611	50.77
827.784	51.07
827.958	49.9
828.132	49.16
828.306	50.52
828.48	55.18
828.654	55.94
828.827	56.96
829.001	59.03
829.175	62.1
829.349	62.69
829.522	63.66
829.696	67.42
829.87	71.11
830.044	72.47
830.217	74.15
830.391	73.48
830.565	75.24
830.738	74.54
830.912	78.03
831.085	73.07
831.259	78.24
831.432	78.64
831.606	75.44
831.779	70.55
831.953	67.15
832.126	66.15
832.3	63.48
832.473	61.57
832.647	61.33
832.82	55.88
832.994	54.54
833.167	53.18
833.34	51.93
833.514	51.85
833.687	53.34
833.86	55.22
834.034	56.56
834.207	57.7
834.38	57.44
834.553	62.54
834.727	65.33
834.9	70.7
835.073	71.28
835.246	74.32
835.419	72.19
835.593	74.4
835.766	73.55
835.939	74.06
836.112	77.98
836.285	80.31
836.458	77.73
836.631	77.32
836.804	77.96
836.977	81.65
837.15	84.19
837.323	92.75
837.496	93.55
837.669	98.04
837.842	103.64
838.015	111.58
838.188	114.4
838.361	107.17
838.533	113.78
838.706	109.42
838.879	103.11
839.052	96.33
839.225	102.37
839.398	102.07
839.57	110.37
839.743	104.95
839.916	95.96
840.088	91.71
840.261	95.49
840.434	87.39
840.607	89.26
840.779	95.31
840.952	101.72
841.124	94.73
841.297	89.16
841.47	77.33
841.642	76.97
841.815	80.53
841.987	83.12
842.16	81.04
842.332	86.23
842.505	81.42
842.677	77
842.85	81.3
843.022	78.5
843.194	91.58
843.367	96.82
843.539	96.26
843.712	96.17
843.884	98.66
844.056	109.78
844.229	116.49
844.401	118.42
844.573	126.41
844.745	122
844.918	131.14
845.09	120.4
845.262	122.26
845.434	121.34
845.606	121.42
845.779	126.53
845.951	120.17
846.123	114.25
846.295	120.69
846.467	129.3
846.639	130.29
846.811	131.13
846.983	136.84
847.155	147.55
847.327	138.02
847.499	151.27
847.671	147.99
847.843	148.15
848.015	142.01
848.187	139.76
848.359	129.28
848.531	124.48
848.703	133.3
848.875	127.05
849.047	128.29
849.218	133.78
849.39	122.66
849.562	122.99
849.734	129.03
849.905	149.91
850.077	141.81
850.249	141.42
850.421	137.72
850.592	134
850.764	127.34
850.936	117.71
851.107	114.53
851.279	113.87
851.451	118.65
851.622	112.57
851.794	99.84
851.965	110.86
852.137	114.79
852.308	119.9
852.48	123.09
852.651	133.49
852.823	144.63
852.994	164.84
853.166	159.18
853.337	153
853.509	144.59
853.68	144.55
853.851	126.47
854.023	123.77
854.194	127.12
854.365	120.91
854.537	119.93
854.708	123.9
854.879	112.42
855.05	112.51
855.222	109.65
855.393	110.42
855.564	123.02
855.735	128.65
855.906	126
856.078	117.96
856.249	115.91
856.42	115.51
856.591	117.71
856.762	125.25
856.933	130.41
857.104	115.72
857.275	109.77
857.446	101.22
857.617	95.24
857.788	87.48
857.959	95.92
858.13	95.83
858.301	90.77
858.472	75.09
858.643	73.72
858.814	77.82
858.985	89.58
859.155	92.51
859.326	94.6
859.497	93.68
859.668	99.52
859.839	99.67
860.009	114.05
860.18	117.84
860.351	142.15
860.522	145.69
860.692	146.28
860.863	140.14
861.034	132.04
861.204	143.22
861.375	154.31
861.546	140.83
861.716	142.46
861.887	113.6
862.057	126.09
862.228	118.51
862.398	111.66
862.569	105.72
862.739	116.92
862.91	108.95
863.08	101.36
863.251	94.97
863.421	112.62
863.592	121.36
863.762	127.42
863.932	119.47
864.103	113.75
864.273	109.94
864.443	115.09
864.614	111.56
864.784	115.77
864.954	116.74
865.125	127.5
865.295	113.35
865.465	112.57
865.635	111.87
865.805	107.14
865.976	106.06
866.146	104.71
866.316	99.44
866.486	107
866.656	114.37
866.826	106.82
866.996	98.06
867.166	108.9
867.336	93.86
867.506	104.78
867.676	103.6
867.846	118.87
868.016	136.36
868.186	146.74
868.356	138.21
868.526	155.65
868.696	158.5
868.866	174.89
869.036	148.61
869.206	152.57
869.376	147.41
869.545	170.48
869.715	134.09
869.885	134.64
870.055	131.84
870.224	126.03
870.394	112.67
870.564	120.32
870.734	110.43
870.903	113.07
871.073	118.82
871.243	115.83
871.412	115.95
871.582	115.84
871.751	111.56
871.921	120.94
872.091	116.91
872.26	115.58
872.43	107.32
872.599	110.49
872.769	117.29
872.938	107.88
873.108	107.77
873.277	103.52
873.446	105.27
873.616	106.11
873.785	98.21
873.955	101.47
874.124	110.28
874.293	124.14
874.463	140.22
874.632	127.72
874.801	145.05
874.971	136.98
875.14	147.52
875.309	168.97
875.478	155.04
875.647	175.92
875.817	188.76
875.986	153.3
876.155	137.8
876.324	123.95
876.493	121.14
876.662	117.01
876.831	121.64
877	117.42
877.17	131.46
877.339	139.14
877.508	133.9
877.677	126.61
877.846	127.92
878.015	127.75
878.184	124.17
878.352	122.96
878.521	121.28
878.69	119.5
878.859	112.72
879.028	98.73
879.197	104.64
879.366	98.71
879.534	100.15
879.703	99.52
879.872	94.72
880.041	88.41
880.21	96.8
880.378	97.46
880.547	89.74
880.716	82.65
880.884	75.49
881.053	69.42
881.222	68.4
881.39	63.79
881.559	64.26
881.727	59.96
881.896	60.6
882.065	60.26
882.233	55.06
882.402	54.89
882.57	57.9
882.739	57.33
882.907	54.61
883.076	54.16
883.244	55.83
883.412	55.93
883.581	56.49
883.749	54.06
883.918	54.75
884.086	59.24
884.254	61.15
884.423	66.3
884.591	68.8
884.759	74.05
884.927	72.89
885.096	77.81
885.264	79.53
885.432	89.34
885.6	96.76
885.769	85.24
885.937	89.98
886.105	92.82
886.273	85.2
886.441	96.73
886.609	91.55
886.777	97.93
886.945	92.93
887.113	92.74
887.281	100.86
887.449	103.21
887.617	101.55
887.785	99.59
887.953	96.97
888.121	102.69
888.289	92.95
888.457	102.84
888.625	101.97
888.793	104.1
888.961	110.03
889.129	97.12
889.296	102.02
889.464	115.01
889.632	113.47
889.8	128.27
889.967	130.19
890.135	127.77
