Data from JASIL_2936_Reflection_1.txt Node
Date: Sat Nov 07 21:02:43 EST 2015
User: Geneva
Spectrometer: USB4E03002
Autoset integration time: false
Trigger mode: 4
Integration Time (sec): 1.000000E-1
Scans to average: 10
Electric dark correction enabled: true
Nonlinearity correction enabled: false
Boxcar width: 5
Stray light correction enabled: false
XAxis mode: Wavelengths
Stop averaging: false
Number of Pixels in Spectrum: 3648
>>>>>Begin Spectral Data<<<<<
177.575	-674.04
177.794	-388.31
178.014	-608.24
178.233	-80.33
178.452	-84.26
178.672	-34.81
178.891	70.72
179.11	0
179.33	1002.46
179.549	-1384.1
179.768	1072.4
179.987	-504.49
180.207	-43.81
180.426	4.43
180.645	30.2
180.864	19.69
181.084	25.17
181.303	23.09
181.522	19.83
181.741	35.24
181.96	34.16
182.179	37.33
182.398	36.29
182.618	22.09
182.837	15.82
183.056	9.55
183.275	37.52
183.494	40.3
183.713	57.78
183.932	64.94
184.151	36.58
184.37	47.73
184.589	48.01
184.808	36.51
185.027	45.88
185.246	42.3
185.465	38.36
185.684	31.32
185.903	33.31
186.122	35.01
186.341	34.13
186.56	46.91
186.779	36.04
186.998	38.61
187.216	47.06
187.435	28.42
187.654	1.64
187.873	6.5
188.092	-2.32
188.311	2.63
188.53	16.33
188.748	27.55
188.967	6.77
189.186	26.32
189.405	29.64
189.623	9.77
189.842	25.65
190.061	38.25
190.28	36.71
190.498	48.51
190.717	37.47
190.936	31.57
191.154	31.98
191.373	37.99
191.592	52.24
191.81	39.48
192.029	52.99
192.248	51.3
192.466	66.63
192.685	61.44
192.904	55.08
193.122	43.95
193.341	34.07
193.559	28.22
193.778	30.15
193.996	31.59
194.215	30.38
194.433	19.25
194.652	27.16
194.87	24.75
195.089	28.07
195.307	27.77
195.526	37.8
195.744	47.02
195.963	51.58
196.181	58.06
196.399	34.53
196.618	56.48
196.836	45.77
197.055	34.85
197.273	30.07
197.491	21.9
197.71	34.31
197.928	22.11
198.146	34.81
198.365	29.91
198.583	32.27
198.801	47.98
199.019	31.39
199.238	52.92
199.456	53.06
199.674	46.84
199.892	49.27
200.111	18.47
200.329	27.18
200.547	11.79
200.765	16.45
200.983	11.68
201.202	25.45
201.42	27.06
201.638	18.66
201.856	18.64
202.074	20.96
202.292	20.42
202.51	33.4
202.728	38.03
202.946	19.49
203.165	-5.14
203.383	-11.4
203.601	-7.63
203.819	10.83
204.037	21.01
204.255	40.68
204.473	42.68
204.691	41.64
204.909	30.22
205.127	27.79
205.345	52.44
205.562	63.09
205.78	65.47
205.998	56.4
206.216	48.42
206.434	46.05
206.652	38.25
206.87	47.46
207.088	53.53
207.306	69.93
207.523	88.26
207.741	78.86
207.959	83.96
208.177	77.99
208.395	88.55
208.612	75.51
208.83	71.81
209.048	74.19
209.266	67.19
209.483	62.81
209.701	37.02
209.919	17.59
210.136	8.93
210.354	34.58
210.572	42.35
210.79	38.25
211.007	55.3
211.225	48.95
211.442	43.04
211.66	46.43
211.878	47.27
212.095	107.47
212.313	106.46
212.53	107.66
212.748	104.07
212.966	96.31
213.183	100.07
213.401	98.71
213.618	100.07
213.836	105.49
214.053	107.8
214.271	106.62
214.488	40.75
214.705	28.83
214.923	21.83
215.14	19.64
215.358	26
215.575	21.34
215.793	25.34
216.01	24.65
216.227	30.27
216.445	27.96
216.662	25.08
216.879	27
217.097	33.37
217.314	31.66
217.531	35.41
217.749	29.63
217.966	30.12
218.183	20.37
218.4	13.29
218.618	8.82
218.835	12.21
219.052	15.61
219.269	16.06
219.487	17.61
219.704	20.36
219.921	15.16
220.138	23.15
220.355	18.46
220.572	20.94
220.79	23.56
221.007	27.35
221.224	26.95
221.441	25.4
221.658	24.29
221.875	22.95
222.092	25.39
222.309	25.66
222.526	21.99
222.743	26.58
222.96	24.85
223.177	22.3
223.394	17.89
223.611	20.3
223.828	18.57
224.045	15.36
224.262	12.91
224.479	10.76
224.696	13.24
224.913	13.8
225.13	13.96
225.347	13.34
225.564	14.01
225.781	13.02
225.997	10.88
226.214	9.81
226.431	10.43
226.648	10.11
226.865	9.74
227.082	8.94
227.298	8.53
227.515	7.45
227.732	7.09
227.949	6.99
228.165	7.19
228.382	6.59
228.599	6.48
228.816	6.37
229.032	6.18
229.249	6.29
229.466	6.13
229.682	5.67
229.899	6.65
230.116	7.86
230.332	8.59
230.549	9.11
230.765	10.69
230.982	11.45
231.199	12.18
231.415	12.78
231.632	12.4
231.848	12.7
232.065	13.41
232.281	12.97
232.498	12.52
232.714	11.14
232.931	10.18
233.147	9.95
233.364	10.45
233.58	11.25
233.797	11.36
234.013	11.87
234.23	12.2
234.446	11.86
234.662	11.7
234.879	12.33
235.095	12.54
235.312	13.57
235.528	13.15
235.744	12.63
235.961	11.68
236.177	12.54
236.393	12.59
236.61	12.1
236.826	12.08
237.042	12.22
237.258	11.05
237.475	11.47
237.691	11.62
237.907	12.1
238.123	12.25
238.339	10.82
238.556	9.12
238.772	9.03
238.988	8.9
239.204	8.83
239.42	8.2
239.636	8.28
239.853	7.94
240.069	7.51
240.285	7.25
240.501	7.16
240.717	7.44
240.933	7.99
241.149	8.08
241.365	8.19
241.581	8.05
241.797	7.99
242.013	7.98
242.229	8.43
242.445	8.29
242.661	8.35
242.877	8.57
243.093	8.79
243.309	8.75
243.525	8.54
243.741	8.27
243.957	8.66
244.173	9.31
244.388	9.1
244.604	8.39
244.82	8.59
245.036	8.11
245.252	7.89
245.468	7.7
245.683	7.52
245.899	7.57
246.115	7.58
246.331	7.65
246.547	7.38
246.762	7.37
246.978	7.56
247.194	7.17
247.409	7.5
247.625	7.38
247.841	7.43
248.057	7.49
248.272	7.24
248.488	7.34
248.703	7.1
248.919	7.33
249.135	7.22
249.35	6.92
249.566	7.24
249.782	6.71
249.997	7.17
250.213	7.08
250.428	7.04
250.644	7.29
250.859	6.89
251.075	6.89
251.29	6.57
251.506	6.43
251.721	6.46
251.937	6.68
252.152	6.97
252.368	6.46
252.583	6.6
252.798	6.44
253.014	6.32
253.229	6.81
253.445	6.33
253.66	6.61
253.875	6.25
254.091	5.92
254.306	5.71
254.521	5.43
254.737	5.76
254.952	5.61
255.167	5.7
255.383	5.87
255.598	6.1
255.813	6.55
256.028	6.1
256.244	6.22
256.459	6.4
256.674	6.12
256.889	5.8
257.104	5.65
257.32	5.6
257.535	5.36
257.75	5.32
257.965	5.03
258.18	4.96
258.395	5.12
258.61	5.17
258.826	5.28
259.041	5.06
259.256	5.24
259.471	5.26
259.686	5.36
259.901	5.4
260.116	5.53
260.331	5.57
260.546	5.64
260.761	5.71
260.976	5.86
261.191	5.78
261.406	6.23
261.621	6.1
261.836	5.99
262.05	5.69
262.265	5.97
262.48	6.02
262.695	6.08
262.91	5.99
263.125	5.78
263.34	6.05
263.555	6.16
263.769	5.82
263.984	5.98
264.199	6.3
264.414	6.51
264.629	6.3
264.843	5.66
265.058	5.77
265.273	5.85
265.488	5.99
265.702	5.53
265.917	5.67
266.132	5.91
266.346	5.79
266.561	5.83
266.776	5.8
266.99	5.98
267.205	6.16
267.42	5.9
267.634	5.76
267.849	5.8
268.063	5.93
268.278	5.57
268.492	5.59
268.707	5.68
268.922	5.51
269.136	5.47
269.351	5.33
269.565	5.22
269.78	5.26
269.994	5.03
270.209	4.95
270.423	5.22
270.637	5.12
270.852	5.12
271.066	5.05
271.281	5.05
271.495	5.06
271.709	4.9
271.924	5
272.138	4.82
272.353	5.09
272.567	4.8
272.781	4.54
272.996	4.68
273.21	4.53
273.424	4.4
273.638	4.4
273.853	4.38
274.067	4.5
274.281	4.41
274.495	4.56
274.71	4.52
274.924	4.62
275.138	4.68
275.352	4.57
275.566	4.68
275.781	4.91
275.995	5.06
276.209	5.17
276.423	4.97
276.637	4.86
276.851	4.79
277.065	4.88
277.279	4.85
277.493	4.77
277.707	4.55
277.921	4.6
278.135	4.62
278.349	4.53
278.563	4.26
278.777	4.35
278.991	4.51
279.205	4.74
279.419	4.61
279.633	4.84
279.847	4.91
280.061	5.29
280.275	5.33
280.489	5.17
280.703	5.08
280.917	5.08
281.131	5.14
281.344	5.26
281.558	5.13
281.772	5.08
281.986	4.98
282.2	5.01
282.414	4.89
282.627	4.84
282.841	4.77
283.055	4.77
283.269	4.56
283.482	4.35
283.696	4.27
283.91	4.33
284.123	4.49
284.337	4.43
284.551	4.18
284.764	4.07
284.978	4.15
285.192	4.13
285.405	4
285.619	4.19
285.833	4.12
286.046	3.88
286.26	3.96
286.473	3.68
286.687	3.74
286.9	3.86
287.114	3.87
287.327	3.81
287.541	3.84
287.754	3.87
287.968	3.79
288.181	4.1
288.395	4.29
288.608	4.12
288.822	4.21
289.035	4.15
289.248	4.25
289.462	4.44
289.675	4.44
289.889	4.61
290.102	4.76
290.315	4.76
290.529	4.67
290.742	4.64
290.955	4.54
291.169	4.69
291.382	4.58
291.595	4.28
291.808	3.99
292.022	4.16
292.235	3.81
292.448	3.88
292.661	3.98
292.875	4.04
293.088	3.98
293.301	4.09
293.514	3.79
293.727	3.87
293.94	4.12
294.153	4.13
294.367	3.87
294.58	3.94
294.793	3.74
295.006	3.66
295.219	3.8
295.432	3.87
295.645	3.94
295.858	3.84
296.071	3.87
296.284	3.72
296.497	3.87
296.71	3.84
296.923	3.86
297.136	3.88
297.349	3.92
297.562	3.81
297.775	3.78
297.988	3.74
298.201	3.85
298.414	3.86
298.626	3.94
298.839	3.98
299.052	4.15
299.265	3.96
299.478	4.02
299.691	3.74
299.903	3.56
300.116	3.42
300.329	3.23
300.542	3.22
300.755	3.18
300.967	3.18
301.18	3.05
301.393	2.86
301.605	2.9
301.818	2.87
302.031	3.23
302.243	3.41
302.456	3.68
302.669	3.79
302.881	3.94
303.094	3.87
303.307	4.06
303.519	4.11
303.732	4.26
303.944	4.62
304.157	4.42
304.37	4.31
304.582	4.36
304.795	4.23
305.007	4.34
305.22	4.49
305.432	4.58
305.645	4.39
305.857	4.4
306.069	4.28
306.282	3.91
306.494	4.1
306.707	4.11
306.919	4.04
307.132	3.89
307.344	3.72
307.556	3.67
307.769	3.75
307.981	3.85
308.193	3.89
308.406	3.67
308.618	3.82
308.83	3.86
309.043	3.87
309.255	3.91
309.467	4.04
309.679	4.08
309.892	4.15
310.104	4.06
310.316	3.94
310.528	3.92
310.74	4.2
310.953	4.39
311.165	4.34
311.377	4.19
311.589	4.12
311.801	4.15
312.013	4.27
312.225	4.26
312.437	4.28
312.649	4.33
312.862	4.37
313.074	4.26
313.286	3.96
313.498	4
313.71	4.34
313.922	4.31
314.134	4.28
314.346	4.18
314.558	4.17
314.77	4.1
314.982	3.99
315.193	4.12
315.405	4.14
315.617	4.1
315.829	4.02
316.041	3.95
316.253	3.77
316.465	3.91
316.677	3.83
316.888	3.88
317.1	4.02
317.312	4.31
317.524	4.12
317.736	4.11
317.947	4.39
318.159	4.69
318.371	4.63
318.583	5.1
318.794	5.05
319.006	5.35
319.218	5.23
319.43	5.25
319.641	5.31
319.853	5.35
320.064	5.36
320.276	5.22
320.488	5
320.699	5.03
320.911	4.88
321.123	5.12
321.334	5.01
321.546	5.09
321.757	5.29
321.969	5.27
322.18	5.43
322.392	5.2
322.603	5.14
322.815	5.42
323.026	5.5
323.238	5.44
323.449	5.34
323.661	5.16
323.872	5.26
324.083	5.12
324.295	4.91
324.506	4.8
324.718	4.95
324.929	5.3
325.14	5.29
325.352	5.47
325.563	5.69
325.774	5.63
325.986	5.85
326.197	5.75
326.408	5.85
326.62	6.17
326.831	6.42
327.042	6.65
327.253	6.73
327.464	6.78
327.676	6.47
327.887	6.64
328.098	6.78
328.309	6.96
328.52	7.18
328.732	7.34
328.943	7.53
329.154	7.61
329.365	7.5
329.576	7.57
329.787	7.47
329.998	7.8
330.209	7.79
330.42	7.9
330.631	7.86
330.842	8.09
331.053	8.19
331.264	8.21
331.475	8.17
331.686	8.55
331.897	8.54
332.108	8.76
332.319	8.71
332.53	8.81
332.741	8.89
332.952	8.97
333.163	8.97
333.374	9.16
333.585	8.99
333.795	9.05
334.006	9.05
334.217	9.06
334.428	9.2
334.639	9.3
334.849	9.21
335.06	9.23
335.271	9.32
335.482	9.16
335.692	9.07
335.903	9.04
336.114	9.06
336.325	9.03
336.535	8.91
336.746	8.75
336.957	8.69
337.167	8.76
337.378	8.71
337.589	8.59
337.799	8.68
338.01	8.63
338.22	8.9
338.431	8.78
338.642	8.86
338.852	8.69
339.063	8.79
339.273	9.02
339.484	8.95
339.694	8.97
339.905	8.91
340.115	8.69
340.326	8.52
340.536	8.38
340.746	8.48
340.957	8.27
341.167	8.51
341.378	8.4
341.588	8.42
341.799	8.36
342.009	8.36
342.219	8.45
342.43	8.54
342.64	8.51
342.85	8.53
343.061	8.49
343.271	8.62
343.481	8.78
343.691	8.7
343.902	8.46
344.112	8.47
344.322	8.47
344.532	8.49
344.743	8.58
344.953	8.46
345.163	8.47
345.373	8.42
345.583	8.31
345.793	8
346.004	8.01
346.214	8.18
346.424	8.37
346.634	8.32
346.844	8.37
347.054	8.43
347.264	8.81
347.474	8.84
347.684	8.79
347.894	8.74
348.104	8.71
348.314	8.64
348.524	8.5
348.734	8.36
348.944	8.43
349.154	8.4
349.364	8.3
349.574	8.01
349.784	7.83
349.994	7.87
350.204	7.87
350.413	7.78
350.623	7.91
350.833	7.79
351.043	7.65
351.253	7.7
351.463	7.6
351.672	7.51
351.882	7.74
352.092	7.73
352.302	7.78
352.511	7.78
352.721	7.88
352.931	7.83
353.141	7.86
353.35	7.98
353.56	7.85
353.77	7.94
353.979	8.06
354.189	8.02
354.399	8.08
354.608	7.98
354.818	7.89
355.027	7.82
355.237	7.8
355.447	7.8
355.656	7.69
355.866	7.78
356.075	7.73
356.285	7.71
356.494	7.59
356.704	7.54
356.913	7.57
357.123	7.68
357.332	7.78
357.542	7.87
357.751	7.9
357.96	7.76
358.17	7.64
358.379	7.59
358.589	7.52
358.798	7.59
359.007	7.67
359.217	7.57
359.426	7.57
359.635	7.5
359.845	7.43
360.054	7.42
360.263	7.57
360.472	7.56
360.682	7.62
360.891	7.65
361.1	7.62
361.309	7.58
361.519	7.7
361.728	7.78
361.937	7.88
362.146	7.84
362.355	7.84
362.564	7.87
362.774	7.9
362.983	7.73
363.192	7.65
363.401	7.64
363.61	7.64
363.819	7.62
364.028	7.58
364.237	7.46
364.446	7.56
364.655	7.55
364.864	7.51
365.073	7.64
365.282	7.82
365.491	7.83
365.7	7.85
365.909	7.89
366.118	7.95
366.327	7.81
366.536	7.75
366.745	7.65
366.954	7.6
367.162	7.49
367.371	7.33
367.58	7.28
367.789	7.2
367.998	7.15
368.207	7.14
368.415	7.01
368.624	7.03
368.833	7.19
369.042	7.34
369.25	7.46
369.459	7.61
369.668	7.64
369.877	7.67
370.085	7.73
370.294	7.73
370.503	7.74
370.711	7.76
370.92	7.8
371.129	7.8
371.337	7.73
371.546	7.67
371.754	7.53
371.963	7.55
372.171	7.57
372.38	7.47
372.589	7.52
372.797	7.51
373.006	7.56
373.214	7.43
373.423	7.32
373.631	7.33
373.84	7.39
374.048	7.47
374.256	7.45
374.465	7.32
374.673	7.44
374.882	7.39
375.09	7.33
375.298	7.26
375.507	7.36
375.715	7.46
375.923	7.4
376.132	7.37
376.34	7.3
376.548	7.25
376.757	7.36
376.965	7.37
377.173	7.46
377.381	7.55
377.59	7.54
377.798	7.62
378.006	7.59
378.214	7.62
378.423	7.61
378.631	7.6
378.839	7.63
379.047	7.64
379.255	7.6
379.463	7.56
379.671	7.38
379.879	7.44
380.088	7.34
380.296	7.41
380.504	7.55
380.712	7.57
380.92	7.77
381.128	7.79
381.336	7.76
381.544	7.82
381.752	7.87
381.96	7.93
382.168	7.85
382.376	7.93
382.584	7.95
382.791	7.89
382.999	7.8
383.207	7.72
383.415	7.66
383.623	7.61
383.831	7.57
384.039	7.58
384.247	7.7
384.454	7.83
384.662	7.93
384.87	7.8
385.078	7.78
385.285	7.92
385.493	7.97
385.701	8
385.909	8.05
386.116	8.07
386.324	8.15
386.532	8.08
386.739	7.99
386.947	7.79
387.155	7.83
387.362	7.87
387.57	7.87
387.778	7.83
387.985	7.96
388.193	7.99
388.4	8.12
388.608	7.91
388.816	7.93
389.023	7.89
389.231	7.99
389.438	7.98
389.646	7.88
389.853	7.84
390.061	7.79
390.268	7.79
390.475	7.72
390.683	7.65
390.89	7.68
391.098	7.68
391.305	7.75
391.512	7.7
391.72	7.67
391.927	7.7
392.135	7.67
392.342	7.69
392.549	7.61
392.756	7.6
392.964	7.59
393.171	7.64
393.378	7.67
393.586	7.68
393.793	7.71
394	7.7
394.207	7.7
394.414	7.81
394.622	7.84
394.829	7.9
395.036	7.94
395.243	7.9
395.45	7.82
395.657	7.83
395.864	7.84
396.072	7.97
396.279	8.07
396.486	8.12
396.693	8.12
396.9	8.12
397.107	7.94
397.314	8.09
397.521	8.07
397.728	8.07
397.935	8.03
398.142	8.04
398.349	7.86
398.556	7.87
398.763	7.87
398.97	7.8
399.177	7.84
399.383	8.04
399.59	7.87
399.797	7.92
400.004	8.02
400.211	7.95
400.418	7.9
400.625	7.99
400.831	7.91
401.038	7.96
401.245	7.89
401.452	7.77
401.658	7.74
401.865	7.79
402.072	7.8
402.279	7.77
402.485	7.86
402.692	7.91
402.899	7.93
403.105	8.05
403.312	8
403.519	8.03
403.725	8.12
403.932	8.08
404.138	8.11
404.345	8.16
404.552	8.2
404.758	8.18
404.965	8.09
405.171	8.06
405.378	7.99
405.584	8.04
405.791	8.05
405.997	8.03
406.204	8.05
406.41	7.96
406.617	7.92
406.823	7.97
407.029	7.99
407.236	8.03
407.442	8.03
407.649	8.14
407.855	8.19
408.061	8.27
408.268	8.24
408.474	8.2
408.68	8.31
408.887	8.15
409.093	8.14
409.299	8.18
409.505	8.21
409.712	8.23
409.918	8.08
410.124	8.02
410.33	7.97
410.537	8
410.743	8.08
410.949	8.09
411.155	8.21
411.361	8.2
411.567	8.1
411.773	8.04
411.98	8.05
412.186	8.07
412.392	8.04
412.598	8.14
412.804	8.17
413.01	8.08
413.216	8.05
413.422	8.07
413.628	8.07
413.834	8.1
414.04	8.22
414.246	8.18
414.452	8.15
414.658	8.18
414.864	8.12
415.07	8.11
415.275	8.19
415.481	8.14
415.687	8.08
415.893	8.05
416.099	8
416.305	7.95
416.511	7.98
416.716	8.01
416.922	7.95
417.128	7.92
417.334	7.93
417.539	7.85
417.745	7.87
417.951	7.87
418.157	7.88
418.362	7.88
418.568	7.88
418.774	7.81
418.979	7.81
419.185	7.79
419.391	7.79
419.596	7.77
419.802	7.78
420.008	7.76
420.213	7.76
420.419	7.74
420.624	7.79
420.83	7.78
421.035	7.8
421.241	7.8
421.446	7.88
421.652	7.87
421.857	7.87
422.063	7.9
422.268	7.94
422.474	8.01
422.679	8.02
422.885	8
423.09	8.02
423.295	8.04
423.501	8
423.706	7.97
423.911	7.95
424.117	7.97
424.322	7.94
424.527	7.94
424.733	7.89
424.938	7.91
425.143	7.9
425.349	7.86
425.554	7.86
425.759	7.9
425.964	7.86
426.169	7.91
426.375	7.87
426.58	7.86
426.785	7.83
426.99	7.83
427.195	7.81
427.4	7.84
427.605	7.9
427.811	7.9
428.016	7.9
428.221	7.98
428.426	8.02
428.631	8.03
428.836	8.05
429.041	7.98
429.246	7.97
429.451	8.03
429.656	8.01
429.861	7.99
430.066	7.98
430.271	7.97
430.476	7.92
430.681	7.91
430.886	7.89
431.09	7.96
431.295	8
431.5	7.97
431.705	7.91
431.91	7.89
432.115	7.92
432.32	7.95
432.524	7.94
432.729	7.91
432.934	7.9
433.139	7.94
433.343	7.92
433.548	7.92
433.753	7.97
433.958	8
434.162	7.99
434.367	7.98
434.572	7.94
434.776	7.98
434.981	8.01
435.186	7.96
435.39	7.95
435.595	7.94
435.799	7.95
436.004	7.95
436.209	7.92
436.413	7.89
436.618	7.89
436.822	7.87
437.027	7.81
437.231	7.82
437.436	7.83
437.64	7.82
437.845	7.79
438.049	7.78
438.253	7.74
438.458	7.71
438.662	7.76
438.867	7.74
439.071	7.81
439.275	7.84
439.48	7.85
439.684	7.84
439.888	7.82
440.093	7.83
440.297	7.81
440.501	7.85
440.706	7.89
440.91	7.92
441.114	7.91
441.318	7.87
441.523	7.9
441.727	7.9
441.931	7.94
442.135	7.95
442.339	7.93
442.543	7.98
442.748	7.96
442.952	7.95
443.156	7.87
443.36	7.87
443.564	7.84
443.768	7.83
443.972	7.8
444.176	7.78
444.38	7.77
444.584	7.77
444.788	7.75
444.992	7.72
445.196	7.64
445.4	7.66
445.604	7.61
445.808	7.62
446.012	7.61
446.216	7.57
446.42	7.54
446.624	7.56
446.828	7.5
447.032	7.52
447.235	7.52
447.439	7.59
447.643	7.61
447.847	7.66
448.051	7.65
448.254	7.65
448.458	7.65
448.662	7.7
448.866	7.65
449.069	7.74
449.273	7.74
449.477	7.79
449.681	7.75
449.884	7.74
450.088	7.7
450.292	7.7
450.495	7.69
450.699	7.75
450.902	7.75
451.106	7.73
451.31	7.7
451.513	7.67
451.717	7.64
451.92	7.66
452.124	7.61
452.327	7.62
452.531	7.65
452.734	7.66
452.938	7.6
453.141	7.57
453.345	7.64
453.548	7.69
453.752	7.67
453.955	7.71
454.158	7.71
454.362	7.73
454.565	7.72
454.769	7.69
454.972	7.65
455.175	7.65
455.379	7.66
455.582	7.6
455.785	7.52
455.988	7.52
456.192	7.41
456.395	7.4
456.598	7.4
456.801	7.4
457.005	7.45
457.208	7.48
457.411	7.48
457.614	7.49
457.817	7.5
458.021	7.48
458.224	7.48
458.427	7.52
458.63	7.51
458.833	7.53
459.036	7.54
459.239	7.54
459.442	7.49
459.645	7.5
459.848	7.5
460.051	7.49
460.254	7.5
460.457	7.54
460.66	7.56
460.863	7.57
461.066	7.58
461.269	7.58
461.472	7.58
461.675	7.64
461.878	7.68
462.081	7.66
462.284	7.73
462.486	7.76
462.689	7.77
462.892	7.78
463.095	7.77
463.298	7.73
463.5	7.77
463.703	7.72
463.906	7.67
464.109	7.62
464.311	7.69
464.514	7.64
464.717	7.64
464.92	7.59
465.122	7.58
465.325	7.66
465.528	7.66
465.73	7.63
465.933	7.66
466.135	7.74
466.338	7.74
466.541	7.72
466.743	7.78
466.946	7.74
467.148	7.76
467.351	7.75
467.553	7.71
467.756	7.73
467.958	7.8
468.161	7.79
468.363	7.68
468.566	7.7
468.768	7.65
468.971	7.59
469.173	7.59
469.375	7.54
469.578	7.58
469.78	7.56
469.983	7.58
470.185	7.53
470.387	7.56
470.59	7.6
470.792	7.57
470.994	7.64
471.196	7.65
471.399	7.67
471.601	7.72
471.803	7.67
472.005	7.64
472.208	7.6
472.41	7.58
472.612	7.55
472.814	7.57
473.016	7.6
473.218	7.59
473.421	7.56
473.623	7.57
473.825	7.56
474.027	7.62
474.229	7.64
474.431	7.63
474.633	7.64
474.835	7.66
475.037	7.65
475.239	7.63
475.441	7.61
475.643	7.62
475.845	7.62
476.047	7.67
476.249	7.59
476.451	7.58
476.653	7.61
476.855	7.61
477.057	7.6
477.258	7.62
477.46	7.62
477.662	7.64
477.864	7.64
478.066	7.64
478.268	7.63
478.469	7.67
478.671	7.65
478.873	7.58
479.075	7.56
479.276	7.53
479.478	7.54
479.68	7.53
479.882	7.55
480.083	7.59
480.285	7.56
480.487	7.51
480.688	7.47
480.89	7.5
481.091	7.51
481.293	7.51
481.495	7.53
481.696	7.49
481.898	7.49
482.099	7.45
482.301	7.41
482.502	7.41
482.704	7.43
482.905	7.43
483.107	7.42
483.308	7.43
483.51	7.43
483.711	7.43
483.913	7.45
484.114	7.44
484.315	7.45
484.517	7.47
484.718	7.49
484.92	7.5
485.121	7.49
485.322	7.5
485.524	7.5
485.725	7.51
485.926	7.51
486.127	7.5
486.329	7.51
486.53	7.53
486.731	7.54
486.932	7.54
487.134	7.52
487.335	7.54
487.536	7.54
487.737	7.54
487.938	7.55
488.139	7.56
488.341	7.57
488.542	7.57
488.743	7.55
488.944	7.55
489.145	7.55
489.346	7.57
489.547	7.59
489.748	7.6
489.949	7.57
490.15	7.58
490.351	7.6
490.552	7.59
490.753	7.58
490.954	7.57
491.155	7.57
491.356	7.55
491.557	7.55
491.758	7.58
491.959	7.6
492.159	7.61
492.36	7.64
492.561	7.62
492.762	7.64
492.963	7.66
493.164	7.69
493.364	7.74
493.565	7.78
493.766	7.82
493.967	7.82
494.167	7.81
494.368	7.83
494.569	7.78
494.769	7.78
494.97	7.79
495.171	7.82
495.371	7.82
495.572	7.82
495.773	7.87
495.973	7.88
496.174	7.89
496.375	7.91
496.575	7.92
496.776	7.96
496.976	7.99
497.177	8.06
497.377	8.07
497.578	8.1
497.778	8.07
497.979	8.03
498.179	8.05
498.38	8.01
498.58	8.02
498.78	8.04
498.981	8.08
499.181	8.1
499.382	8.04
499.582	8.08
499.782	8.1
499.983	8.14
500.183	8.2
500.383	8.21
500.584	8.23
500.784	8.26
500.984	8.25
501.184	8.21
501.385	8.22
501.585	8.25
501.785	8.26
501.985	8.27
502.185	8.27
502.386	8.27
502.586	8.27
502.786	8.32
502.986	8.32
503.186	8.38
503.386	8.43
503.586	8.48
503.786	8.5
503.987	8.52
504.187	8.56
504.387	8.62
504.587	8.65
504.787	8.69
504.987	8.68
505.187	8.73
505.387	8.74
505.587	8.79
505.786	8.8
505.986	8.8
506.186	8.77
506.386	8.77
506.586	8.8
506.786	8.81
506.986	8.81
507.186	8.83
507.386	8.85
507.585	8.87
507.785	8.87
507.985	8.89
508.185	8.97
508.384	9
508.584	8.98
508.784	8.95
508.984	8.95
509.183	8.99
509.383	9
509.583	9.04
509.782	9.07
509.982	9.04
510.182	9.04
510.381	9.04
510.581	9.07
510.781	9.13
510.98	9.16
511.18	9.16
511.379	9.17
511.579	9.23
511.778	9.2
511.978	9.21
512.177	9.27
512.377	9.32
512.576	9.34
512.776	9.38
512.975	9.37
513.175	9.39
513.374	9.48
513.573	9.5
513.773	9.48
513.972	9.52
514.172	9.58
514.371	9.63
514.57	9.58
514.77	9.63
514.969	9.65
515.168	9.69
515.367	9.75
515.567	9.76
515.766	9.8
515.965	9.87
516.164	9.92
516.364	9.93
516.563	9.92
516.762	9.97
516.961	9.97
517.16	10
517.359	10.04
517.559	10.05
517.758	10.07
517.957	10.08
518.156	10.07
518.355	10.05
518.554	10.09
518.753	10.12
518.952	10.15
519.151	10.2
519.35	10.24
519.549	10.26
519.748	10.29
519.947	10.35
520.146	10.41
520.345	10.45
520.544	10.51
520.743	10.57
520.942	10.58
521.141	10.61
521.339	10.59
521.538	10.62
521.737	10.66
521.936	10.65
522.135	10.63
522.333	10.62
522.532	10.69
522.731	10.68
522.93	10.66
523.129	10.67
523.327	10.69
523.526	10.72
523.725	10.73
523.923	10.76
524.122	10.79
524.321	10.81
524.519	10.83
524.718	10.81
524.917	10.85
525.115	10.87
525.314	10.91
525.512	10.94
525.711	10.99
525.909	10.98
526.108	10.98
526.306	11
526.505	11.02
526.703	11.05
526.902	11.09
527.1	11.09
527.299	11.11
527.497	11.13
527.696	11.16
527.894	11.18
528.092	11.22
528.291	11.25
528.489	11.28
528.688	11.32
528.886	11.35
529.084	11.39
529.283	11.42
529.481	11.49
529.679	11.5
529.877	11.53
530.076	11.57
530.274	11.62
530.472	11.68
530.67	11.72
530.869	11.74
531.067	11.78
531.265	11.79
531.463	11.83
531.661	11.83
531.859	11.87
532.057	11.92
532.255	11.95
532.454	11.96
532.652	12
532.85	12.03
533.048	12.08
533.246	12.12
533.444	12.17
533.642	12.22
533.84	12.26
534.038	12.33
534.236	12.39
534.434	12.45
534.632	12.49
534.83	12.52
535.027	12.56
535.225	12.61
535.423	12.66
535.621	12.67
535.819	12.71
536.017	12.76
536.215	12.79
536.412	12.8
536.61	12.83
536.808	12.85
537.006	12.87
537.203	12.94
537.401	12.97
537.599	13
537.797	13.1
537.994	13.12
538.192	13.19
538.39	13.24
538.587	13.28
538.785	13.35
538.983	13.42
539.18	13.51
539.378	13.57
539.575	13.59
539.773	13.63
539.97	13.64
540.168	13.69
540.366	13.71
540.563	13.74
540.761	13.76
540.958	13.79
541.155	13.85
541.353	13.87
541.55	13.91
541.748	13.98
541.945	14.02
542.143	14.06
542.34	14.11
542.537	14.14
542.735	14.23
542.932	14.29
543.129	14.36
543.327	14.44
543.524	14.51
543.721	14.56
543.919	14.64
544.116	14.71
544.313	14.8
544.51	14.88
544.708	14.97
544.905	14.99
545.102	15.04
545.299	15.06
545.496	15.1
545.693	15.17
545.891	15.22
546.088	15.25
546.285	15.3
546.482	15.33
546.679	15.36
546.876	15.44
547.073	15.51
547.27	15.58
547.467	15.63
547.664	15.66
547.861	15.71
548.058	15.77
548.255	15.82
548.452	15.92
548.649	15.98
548.846	16.09
549.043	16.11
549.24	16.22
549.437	16.32
549.633	16.42
549.83	16.47
550.027	16.55
550.224	16.65
550.421	16.72
550.618	16.76
550.814	16.83
551.011	16.91
551.208	17
551.405	16.99
551.601	17.04
551.798	17.1
551.995	17.19
552.191	17.26
552.388	17.3
552.585	17.4
552.781	17.43
552.978	17.48
553.175	17.46
553.371	17.5
553.568	17.63
553.764	17.75
553.961	17.84
554.157	17.96
554.354	18.02
554.55	18.13
554.747	18.17
554.943	18.35
555.14	18.43
555.336	18.56
555.533	18.67
555.729	18.76
555.926	18.79
556.122	18.81
556.318	18.85
556.515	18.87
556.711	18.93
556.907	19.01
557.104	19.02
557.3	19.07
557.496	19.21
557.693	19.31
557.889	19.35
558.085	19.44
558.281	19.55
558.478	19.6
558.674	19.75
558.87	19.83
559.066	19.87
559.262	19.87
559.459	20
559.655	20.05
559.851	20.01
560.047	20.11
560.243	20.13
560.439	20.18
560.635	20.26
560.831	20.29
561.027	20.35
561.223	20.46
561.419	20.61
561.615	20.66
561.811	20.68
562.007	20.81
562.203	20.9
562.399	20.97
562.595	21.03
562.791	21.12
562.987	21.21
563.183	21.28
563.379	21.33
563.575	21.4
563.771	21.48
563.966	21.62
564.162	21.65
564.358	21.71
564.554	21.83
564.75	21.98
564.945	22.07
565.141	22.13
565.337	22.2
565.533	22.28
565.728	22.39
565.924	22.47
566.12	22.56
566.315	22.7
566.511	22.76
566.707	22.83
566.902	22.85
567.098	22.93
567.293	23
567.489	23.04
567.684	23.1
567.88	23.16
568.076	23.22
568.271	23.26
568.467	23.34
568.662	23.38
568.858	23.48
569.053	23.54
569.248	23.6
569.444	23.65
569.639	23.76
569.835	23.82
570.03	23.92
570.225	24
570.421	24.1
570.616	24.16
570.812	24.25
571.007	24.25
571.202	24.31
571.397	24.35
571.593	24.42
571.788	24.45
571.983	24.55
572.178	24.6
572.374	24.67
572.569	24.67
572.764	24.72
572.959	24.78
573.154	24.9
573.35	25.03
573.545	25.12
573.74	25.19
573.935	25.25
574.13	25.36
574.325	25.4
574.52	25.43
574.715	25.52
574.91	25.6
575.105	25.65
575.3	25.74
575.495	25.79
575.69	25.85
575.885	25.94
576.08	26.05
576.275	26.1
576.47	26.13
576.665	26.24
576.86	26.32
577.055	26.35
577.25	26.44
577.444	26.49
577.639	26.51
577.834	26.55
578.029	26.63
578.224	26.67
578.418	26.68
578.613	26.77
578.808	26.83
579.003	26.91
579.197	27.02
579.392	27.03
579.587	27.05
579.781	27.12
579.976	27.18
580.171	27.18
580.365	27.26
580.56	27.33
580.755	27.4
580.949	27.48
581.144	27.49
581.338	27.51
581.533	27.57
581.727	27.67
581.922	27.72
582.116	27.85
582.311	27.95
582.505	27.98
582.7	28.04
582.894	28.08
583.089	28.04
583.283	28.07
583.478	28.14
583.672	28.29
583.866	28.32
584.061	28.4
584.255	28.37
584.449	28.42
584.644	28.55
584.838	28.62
585.032	28.7
585.226	28.76
585.421	28.86
585.615	28.89
585.809	28.86
586.003	28.9
586.198	28.93
586.392	28.99
586.586	29.04
586.78	28.99
586.974	29.03
587.168	29.05
587.363	29.1
587.557	29.14
587.751	29.16
587.945	29.25
588.139	29.26
588.333	29.27
588.527	29.32
588.721	29.42
588.915	29.48
589.109	29.46
589.303	29.48
589.497	29.57
589.691	29.73
589.885	29.88
590.079	29.94
590.273	30.01
590.466	30.09
590.66	30.16
590.854	30.21
591.048	30.28
591.242	30.35
591.436	30.43
591.629	30.43
591.823	30.36
592.017	30.37
592.211	30.37
592.404	30.44
592.598	30.42
592.792	30.41
592.986	30.45
593.179	30.53
593.373	30.6
593.567	30.65
593.76	30.7
593.954	30.66
594.147	30.71
594.341	30.73
594.535	30.76
594.728	30.84
594.922	30.95
595.115	30.9
595.309	30.95
595.502	30.95
595.696	30.94
595.889	30.97
596.083	31.05
596.276	30.99
596.47	31.04
596.663	31.09
596.856	31.07
597.05	31.1
597.243	31.16
597.437	31.18
597.63	31.3
597.823	31.37
598.017	31.45
598.21	31.49
598.403	31.62
598.596	31.7
598.79	31.71
598.983	31.87
599.176	31.83
599.369	31.87
599.563	31.8
599.756	31.81
599.949	31.82
600.142	31.82
600.335	31.91
600.528	31.87
600.722	31.88
600.915	32.01
601.108	32.09
601.301	32.18
601.494	32.23
601.687	32.33
601.88	32.35
602.073	32.38
602.266	32.46
602.459	32.49
602.652	32.55
602.845	32.59
603.038	32.57
603.231	32.53
603.424	32.52
603.617	32.51
603.809	32.56
604.002	32.64
604.195	32.7
604.388	32.7
604.581	32.65
604.774	32.73
604.966	32.79
605.159	32.84
605.352	32.89
605.545	32.96
605.737	33.07
605.93	33.06
606.123	33.04
606.316	33.08
606.508	33.08
606.701	33.22
606.894	33.18
607.086	33.2
607.279	33.19
607.471	33.25
607.664	33.19
607.857	33.18
608.049	33.31
608.242	33.38
608.434	33.44
608.627	33.5
608.819	33.58
609.012	33.65
609.204	33.66
609.397	33.74
609.589	33.8
609.782	34
609.974	34.1
610.166	34.12
610.359	34.16
610.551	34.23
610.743	34.35
610.936	34.39
611.128	34.46
611.32	34.51
611.513	34.55
611.705	34.64
611.897	34.59
612.09	34.61
612.282	34.64
612.474	34.61
612.666	34.64
612.858	34.56
613.051	34.51
613.243	34.48
613.435	34.52
613.627	34.55
613.819	34.46
614.011	34.5
614.203	34.45
614.395	34.4
614.588	34.35
614.78	34.35
614.972	34.39
615.164	34.32
615.356	34.33
615.548	34.36
615.74	34.33
615.932	34.37
616.124	34.35
616.315	34.44
616.507	34.41
616.699	34.48
616.891	34.51
617.083	34.57
617.275	34.72
617.467	34.74
617.659	34.7
617.85	34.8
618.042	34.82
618.234	34.88
618.426	34.88
618.618	34.98
618.809	35.11
619.001	35.13
619.193	35.18
619.384	35.15
619.576	35.23
619.768	35.3
619.959	35.27
620.151	35.38
620.343	35.42
620.534	35.45
620.726	35.47
620.917	35.53
621.109	35.57
621.301	35.53
621.492	35.53
621.684	35.56
621.875	35.61
622.067	35.65
622.258	35.61
622.45	35.57
622.641	35.65
622.832	35.64
623.024	35.69
623.215	35.63
623.407	35.74
623.598	35.82
623.789	35.83
623.981	35.78
624.172	35.81
624.363	35.7
624.555	35.77
624.746	35.72
624.937	35.82
625.129	35.75
625.32	35.78
625.511	35.78
625.702	35.78
625.893	35.86
626.085	35.94
626.276	35.92
626.467	36.05
626.658	36.08
626.849	36.09
627.04	36.07
627.231	36.16
627.422	36.24
627.614	36.3
627.805	36.36
627.996	36.42
628.187	36.41
628.378	36.48
628.569	36.45
628.76	36.35
628.951	36.46
629.142	36.49
629.332	36.5
629.523	36.54
629.714	36.59
629.905	36.52
630.096	36.49
630.287	36.56
630.478	36.58
630.669	36.74
630.859	36.89
631.05	36.93
631.241	36.96
631.432	36.97
631.623	36.99
631.813	36.92
632.004	36.9
632.195	36.96
632.385	36.86
632.576	36.92
632.767	36.81
632.957	36.87
633.148	36.85
633.339	36.85
633.529	36.91
633.72	36.87
633.91	36.91
634.101	37.09
634.292	37.07
634.482	37.21
634.673	37.23
634.863	37.32
635.054	37.29
635.244	37.31
635.435	37.28
635.625	37.29
635.815	37.36
636.006	37.37
636.196	37.38
636.387	37.39
636.577	37.39
636.767	37.44
636.958	37.49
637.148	37.52
637.338	37.6
637.529	37.71
637.719	37.76
637.909	37.83
638.099	37.85
638.29	37.82
638.48	37.89
638.67	37.96
638.86	37.92
639.05	38.04
639.241	38.19
639.431	38.1
639.621	38.13
639.811	38.1
640.001	37.93
640.191	38.05
640.381	38.02
640.571	38.01
640.761	38.06
640.951	38.09
641.141	38.03
641.331	37.97
641.521	38.01
641.711	38.03
641.901	38.04
642.091	38.22
642.281	38.12
642.471	38.1
642.661	38.15
642.851	38.16
643.041	38.21
643.231	38.14
643.42	38.18
643.61	38.21
643.8	38.27
643.99	38.32
644.18	38.36
644.369	38.39
644.559	38.6
644.749	38.57
644.939	38.53
645.128	38.52
645.318	38.57
645.508	38.57
645.697	38.64
645.887	38.71
646.076	38.71
646.266	38.72
646.456	38.75
646.645	38.74
646.835	38.76
647.024	38.72
647.214	38.72
647.403	38.75
647.593	38.84
647.782	38.87
647.972	38.86
648.161	38.81
648.351	38.77
648.54	38.75
648.73	38.65
648.919	38.78
649.108	38.84
649.298	38.87
649.487	38.89
649.677	38.82
649.866	38.76
650.055	38.75
650.244	38.79
650.434	38.8
650.623	38.99
650.812	39.07
651.002	39
651.191	38.95
651.38	38.99
651.569	39.06
651.758	39.15
651.947	39.18
652.137	39.08
652.326	39.04
652.515	39.15
652.704	39.02
652.893	39.04
653.082	39.08
653.271	39.34
653.46	39.36
653.649	39.44
653.838	39.35
654.027	39.46
654.216	39.57
654.405	39.66
654.594	39.62
654.783	39.62
654.972	39.61
655.161	39.63
655.35	39.5
655.539	39.57
655.728	39.48
655.916	39.5
656.105	39.52
656.294	39.49
656.483	39.47
656.672	39.56
656.86	39.62
657.049	39.61
657.238	39.67
657.427	39.73
657.615	39.68
657.804	39.67
657.993	39.75
658.181	39.76
658.37	39.78
658.559	39.87
658.747	39.9
658.936	40.02
659.125	39.97
659.313	39.96
659.502	39.92
659.69	39.98
659.879	39.97
660.067	40.01
660.256	40
660.444	40.03
660.633	39.97
660.821	39.87
661.01	39.94
661.198	40.06
661.387	40.02
661.575	40.19
661.763	40.24
661.952	40.28
662.14	40.18
662.328	40.29
662.517	40.39
662.705	40.46
662.893	40.58
663.082	40.51
663.27	40.45
663.458	40.48
663.646	40.41
663.834	40.4
664.023	40.37
664.211	40.59
664.399	40.54
664.587	40.48
664.775	40.4
664.963	40.4
665.152	40.27
665.34	40.47
665.528	40.59
665.716	40.65
665.904	40.67
666.092	40.91
666.28	40.85
666.468	40.98
666.656	41.05
666.844	41.21
667.032	41.3
667.22	41.47
667.408	41.46
667.596	41.44
667.784	41.38
667.971	41.45
668.159	41.3
668.347	41.28
668.535	41.14
668.723	41.12
668.911	41.02
669.098	40.96
669.286	40.86
669.474	40.88
669.662	40.85
669.849	40.96
670.037	40.81
670.225	40.79
670.413	40.78
670.6	41.03
670.788	41.07
670.976	41.19
671.163	41.24
671.351	41.28
671.538	41.18
671.726	41.33
671.913	41.27
672.101	41.29
672.289	41.57
672.476	41.58
672.664	41.49
672.851	41.5
673.039	41.47
673.226	41.39
673.413	41.42
673.601	41.56
673.788	41.38
673.976	41.28
674.163	41.44
674.35	41.2
674.538	41.34
674.725	41.24
674.912	41.3
675.1	41.46
675.287	41.57
675.474	41.62
675.662	41.67
675.849	41.74
676.036	41.82
676.223	41.76
676.411	41.83
676.598	41.74
676.785	41.76
676.972	41.74
677.159	41.59
677.346	41.62
677.533	41.59
677.721	41.56
677.908	41.64
678.095	41.68
678.282	41.7
678.469	41.71
678.656	41.87
678.843	42.03
679.03	41.95
679.217	42.04
679.404	42.08
679.591	42.06
679.778	42.06
679.964	41.95
680.151	42.04
680.338	42.11
680.525	42.1
680.712	41.97
680.899	41.82
681.086	41.84
681.272	41.75
681.459	41.74
681.646	41.78
681.833	41.81
682.02	41.87
682.206	41.8
682.393	41.68
682.58	41.69
682.766	41.74
682.953	41.74
683.14	41.89
683.326	42.05
683.513	42.06
683.7	42.13
683.886	42.15
684.073	42.22
684.259	42.26
684.446	42.37
684.632	42.42
684.819	42.47
685.005	42.57
685.192	42.65
685.378	42.59
685.565	42.46
685.751	42.42
685.938	42.41
686.124	42.33
686.31	42.32
686.497	42.32
686.683	42.46
686.87	42.41
687.056	42.36
687.242	42.27
687.429	42.23
687.615	42.27
687.801	42.38
687.987	42.37
688.174	42.38
688.36	42.32
688.546	42.36
688.732	42.22
688.918	42.14
689.105	42.17
689.291	42.05
689.477	42.15
689.663	42.29
689.849	42.28
690.035	42.26
690.221	42.32
690.407	42.27
690.593	42.19
690.779	42.35
690.965	42.5
691.151	42.59
691.337	42.64
691.523	42.58
691.709	42.52
691.895	42.6
692.081	42.52
692.267	42.54
692.453	42.7
692.639	42.73
692.825	42.66
693.011	42.71
693.196	42.69
693.382	42.87
693.568	42.92
693.754	42.94
693.94	42.87
694.125	43
694.311	43.04
694.497	43.07
694.682	43.14
694.868	43.17
695.054	43.02
695.239	42.96
695.425	42.94
695.611	43.03
695.796	43.01
695.982	42.94
696.168	42.92
696.353	42.94
696.539	42.92
696.724	42.96
696.91	42.89
697.095	42.95
697.281	42.84
697.466	42.89
697.652	42.72
697.837	42.82
698.023	42.83
698.208	42.97
698.393	42.97
698.579	42.97
698.764	42.87
698.949	42.83
699.135	42.75
699.32	42.91
699.505	42.78
699.691	42.94
699.876	42.88
700.061	42.9
700.246	42.71
700.432	42.68
700.617	42.64
700.802	42.78
700.987	42.89
701.172	43.02
701.358	42.91
701.543	42.92
701.728	42.77
701.913	42.71
702.098	42.66
702.283	42.65
702.468	42.61
702.653	42.56
702.838	42.52
703.023	42.41
703.208	42.34
703.393	42.53
703.578	42.67
703.763	42.73
703.948	42.69
704.133	42.66
704.318	42.7
704.503	42.86
704.688	43.05
704.873	43.03
705.057	43.24
705.242	43.32
705.427	43.27
705.612	43.33
705.797	43.52
705.981	43.65
706.166	43.76
706.351	43.81
706.536	43.8
706.72	43.59
706.905	43.69
707.09	43.68
707.274	43.67
707.459	43.53
707.644	43.43
707.828	43.4
708.013	43.5
708.197	43.46
708.382	43.41
708.567	43.2
708.751	43.34
708.936	43.22
709.12	43.15
709.305	43.23
709.489	43.3
709.673	43.33
709.858	43.02
710.042	43.05
710.227	43
710.411	42.95
710.596	43.14
710.78	43.2
710.964	43.23
711.149	43.27
711.333	43.39
711.517	43.37
711.702	43.54
711.886	43.71
712.07	43.49
712.254	43.55
712.438	43.65
712.623	43.63
712.807	43.63
712.991	43.62
713.175	43.55
713.359	43.41
713.544	43.43
713.728	43.38
713.912	43.42
714.096	43.44
714.28	43.46
714.464	43.55
714.648	43.52
714.832	43.52
715.016	43.41
715.2	43.37
715.384	43.38
715.568	43.46
715.752	43.45
715.936	43.46
716.12	43.5
716.304	43.38
716.488	43.16
716.671	43.11
716.855	42.99
717.039	43.07
717.223	43.08
717.407	42.99
717.59	42.82
717.774	42.61
717.958	42.51
718.142	42.57
718.325	42.65
718.509	42.68
718.693	42.91
718.877	42.92
719.06	42.95
719.244	42.93
719.428	43.03
719.611	42.87
719.795	42.89
719.978	42.98
720.162	42.97
720.345	42.83
720.529	42.95
720.713	42.73
720.896	42.94
721.08	43.03
721.263	43.13
721.446	43
721.63	43.25
721.813	43.27
721.997	43.26
722.18	43.16
722.364	43.24
722.547	43.34
722.73	43.25
722.914	43.04
723.097	42.89
723.28	42.91
723.464	43.04
723.647	43
723.83	42.96
724.013	42.93
724.197	43
724.38	43.18
724.563	42.97
724.746	43.01
724.929	43.21
725.112	43.3
725.296	43.05
725.479	42.93
725.662	42.65
725.845	42.71
726.028	42.68
726.211	42.74
726.394	42.81
726.577	43
726.76	43.06
726.943	43
727.126	42.84
727.309	42.88
727.492	42.93
727.675	43.12
727.858	43.13
728.041	43.11
728.224	42.97
728.407	42.93
728.589	42.62
728.772	42.57
728.955	42.54
729.138	42.66
729.321	42.89
729.503	43.07
729.686	43.15
729.869	43.19
730.052	43.11
730.234	43.24
730.417	43.11
730.6	43.3
730.782	43.13
730.965	43.02
731.148	43.11
731.33	43.04
731.513	42.79
731.695	42.88
731.878	42.78
732.061	42.92
732.243	42.85
732.426	42.74
732.608	42.88
732.791	43.09
732.973	43.04
733.156	42.73
733.338	42.76
733.52	42.91
733.703	42.72
733.885	42.81
734.068	42.74
734.25	42.75
734.432	43.07
734.615	43.08
734.797	42.9
734.979	43.05
735.162	43.31
735.344	43.24
735.526	43.26
735.708	43.31
735.891	43.44
736.073	43.57
736.255	43.71
736.437	43.62
736.619	43.47
736.802	43.52
736.984	43.31
737.166	43.44
737.348	43.46
737.53	43.13
737.712	43.16
737.894	43.07
738.076	42.93
738.258	42.86
738.44	42.71
738.622	42.74
738.804	42.88
738.986	43.22
739.168	43
739.35	43.18
739.532	43.36
739.714	43.22
739.896	43.06
740.078	43.09
740.259	42.94
740.441	42.82
740.623	43.1
740.805	42.92
740.987	42.86
741.168	42.74
741.35	42.53
741.532	42.68
741.714	42.59
741.895	42.79
742.077	42.7
742.259	43
742.44	43.41
742.622	42.89
742.804	43.02
742.985	42.93
743.167	43.1
743.348	42.93
743.53	43.05
743.711	43.25
743.893	42.93
744.075	43.08
744.256	42.74
744.438	42.36
744.619	42.76
744.8	42.59
744.982	42.47
745.163	42.21
745.345	42.25
745.526	42.14
745.707	41.99
745.889	42.1
746.07	42.33
746.252	42.38
746.433	42.81
746.614	42.78
746.795	43.21
746.977	43.47
747.158	43.85
747.339	43.81
747.52	44.03
747.702	44.33
747.883	44.49
748.064	43.95
748.245	44.03
748.426	43.45
748.607	43.33
748.788	43.23
748.97	42.83
749.151	42.9
749.332	43.04
749.513	42.81
749.694	43.03
749.875	42.74
750.056	43.17
750.237	43.05
750.418	43.4
750.599	43.23
750.78	43.07
750.96	43.45
751.141	43.4
751.322	43.69
751.503	43.6
751.684	43.21
751.865	43.86
752.046	43.68
752.226	43.88
752.407	43.67
752.588	43.93
752.769	44.38
752.949	44.25
753.13	44.04
753.311	44.12
753.492	43.69
753.672	43.72
753.853	42.95
754.034	43.07
754.214	42.92
754.395	42.86
754.575	42.73
754.756	42.04
754.937	41.99
755.117	42.15
755.298	41.82
755.478	42.31
755.659	42.26
755.839	42.47
756.02	42.34
756.2	42.37
756.381	42.43
756.561	42.24
756.741	42.68
756.922	42.73
757.102	42.76
757.283	42.64
757.463	42.46
757.643	42.55
757.823	42.65
758.004	42.67
758.184	42.7
758.364	42.86
758.545	42.75
758.725	42.27
758.905	42.08
759.085	42.03
759.265	42.03
759.446	42.04
759.626	42.11
759.806	42.1
759.986	41.77
760.166	41.68
760.346	41.68
760.526	42.11
760.706	42.6
760.886	42.86
761.066	42.55
761.246	42.51
761.426	42.57
761.606	42.3
761.786	42.2
761.966	42.4
762.146	42.45
762.326	42.6
762.506	42.42
762.686	42.32
762.866	42.12
763.046	42.12
763.225	42.17
763.405	42.22
763.585	42.34
763.765	42.29
763.945	42.25
764.124	42.03
764.304	41.81
764.484	41.78
764.664	41.75
764.843	41.96
765.023	42.29
765.203	42.28
765.382	42.36
765.562	42.18
765.741	42.31
765.921	42.41
766.101	42.83
766.28	42.82
766.46	43.07
766.639	42.83
766.819	42.55
766.998	42.42
767.178	42.69
767.357	42.53
767.537	42.52
767.716	42.69
767.896	42.51
768.075	42.03
768.254	41.96
768.434	41.79
768.613	41.87
768.792	42.08
768.972	41.83
769.151	41.58
769.33	41.76
769.51	41.96
769.689	41.69
769.868	42.14
770.047	42.62
770.226	42.59
770.406	42.53
770.585	42.75
770.764	42.73
770.943	43.06
771.122	43.11
771.301	42.83
771.48	43
771.66	43.13
771.839	42.67
772.018	42.55
772.197	42.67
772.376	42.67
772.555	42.51
772.734	42.66
772.913	42.49
773.092	42.18
773.271	42.25
773.449	42.1
773.628	42.35
773.807	42.46
773.986	42.25
774.165	42.36
774.344	42.41
774.523	42.38
774.701	41.99
774.88	42.01
775.059	42.31
775.238	42.16
775.417	42.15
775.595	41.54
775.774	41.86
775.953	41.92
776.131	41.43
776.31	41.12
776.489	40.96
776.667	40.8
776.846	40.8
777.025	40.21
777.203	39.79
777.382	39.82
777.56	39.72
777.739	39.45
777.917	39.87
778.096	40.15
778.274	40.49
778.453	40.78
778.631	40.7
778.81	41.1
778.988	41.53
779.166	41.81
779.345	41.6
779.523	42.31
779.702	42.36
779.88	42.38
780.058	42.66
780.237	42.38
780.415	42.11
780.593	42.43
780.771	41.61
780.95	41.5
781.128	41.55
781.306	42.15
781.484	42.14
781.662	42
781.841	41.42
782.019	40.92
782.197	41.23
782.375	41.41
782.553	41.5
782.731	41.9
782.909	41.94
783.087	41.98
783.265	41.75
783.443	41.24
783.621	41.38
783.799	41.51
783.977	41.8
784.155	41.63
784.333	41.76
784.511	41.8
784.689	41.52
784.867	41.7
785.045	41.07
785.223	40.89
785.4	41.11
785.578	40.76
785.756	40.46
785.934	40.23
786.112	40.38
786.289	40.37
786.467	39.81
786.645	39.93
786.823	39.61
787	40.25
787.178	40.35
787.356	40.35
787.533	40.53
787.711	40.91
787.889	41.42
788.066	41.51
788.244	41.12
788.421	41.41
788.599	41.63
788.776	41.79
788.954	41.62
789.131	41.48
789.309	41.44
789.486	41.12
789.664	40.99
789.841	40.46
790.019	39.87
790.196	40.43
790.373	40.48
790.551	39.89
790.728	40.16
790.906	40.18
791.083	39.39
791.26	39.27
791.437	39.34
791.615	39.2
791.792	39.14
791.969	39.47
792.146	39.03
792.324	39.34
792.501	39.65
792.678	39.52
792.855	39.56
793.032	40.01
793.209	39.91
793.387	40.12
793.564	40.37
793.741	39.89
793.918	39.82
794.095	40.1
794.272	39.52
794.449	39.62
794.626	39.73
794.803	39.87
794.98	40.18
795.157	40.45
795.334	40.6
795.511	40.55
795.688	40.74
795.864	40.57
796.041	40.78
796.218	41.07
796.395	41.25
796.572	41.03
796.749	41.28
796.925	41.21
797.102	41.05
797.279	41.04
797.456	41.25
797.632	41.96
797.809	42.16
797.986	41.41
798.162	41.55
798.339	41.32
798.516	41.24
798.692	40.96
798.869	41.2
799.046	41.03
799.222	40.98
799.399	40.23
799.575	40.39
799.752	40.59
799.928	41.13
800.105	40.63
800.281	40.75
800.458	41.12
800.634	40.94
800.811	41.03
800.987	41.07
801.163	40.88
801.34	41.27
801.516	41.02
801.692	41.17
801.869	41.04
802.045	41.49
802.221	41.81
802.398	40.95
802.574	41.18
802.75	40.51
802.926	40.69
803.103	40.22
803.279	40.27
803.455	40.3
803.631	40.25
803.807	39.86
803.983	39.96
804.16	39.2
804.336	39.33
804.512	39.41
804.688	39.91
804.864	40.1
805.04	40.79
805.216	40.76
805.392	40.2
805.568	39.94
805.744	40.5
805.92	40.28
806.096	40.62
806.272	41.14
806.448	40.91
806.623	40.02
806.799	40.14
806.975	40.28
807.151	40.61
807.327	40.6
807.503	41.12
807.678	40.74
807.854	40.22
808.03	40.56
808.206	40.37
808.381	40.24
808.557	40.8
808.733	40.22
808.908	40.27
809.084	39.32
809.26	39.31
809.435	38.7
809.611	39.13
809.787	39.29
809.962	38.38
810.138	38.67
810.313	39.09
810.489	39.26
810.664	39.18
810.84	38.59
811.015	39.78
811.191	39.84
811.366	40.36
811.542	39.56
811.717	39.82
811.892	40.44
812.068	40.68
812.243	40.67
812.419	40.7
812.594	41.07
812.769	41.6
812.944	41.13
813.12	40.67
813.295	40.24
813.47	40.57
813.645	40.74
813.821	40.61
813.996	39.72
814.171	39.59
814.346	39.58
814.521	39.58
814.697	39.09
814.872	39.21
815.047	39.82
815.222	39.67
815.397	39.87
815.572	39.69
815.747	40.41
815.922	40.14
816.097	40.23
816.272	40.03
816.447	39.87
816.622	40.37
816.797	39.59
816.972	39.72
817.147	40.02
817.322	39.57
817.496	39.58
817.671	39.25
817.846	39.83
818.021	39.4
818.196	39.64
818.371	39.62
818.545	39.73
818.72	39.8
818.895	39.6
819.069	39.67
819.244	40.12
819.419	40
819.594	39.54
819.768	39.56
819.943	39.53
820.117	39.31
820.292	39.24
820.467	39.02
820.641	39.08
820.816	39
820.99	38.85
821.165	38.8
821.339	38.83
821.514	38.79
821.688	38.6
821.863	38.62
822.037	38.66
822.212	38.64
822.386	38.64
822.56	38.61
822.735	38.61
822.909	38.65
823.084	38.58
823.258	38.51
823.432	38.45
823.606	38.55
823.781	38.52
823.955	38.49
824.129	38.63
824.303	38.51
824.478	38.61
824.652	38.57
824.826	38.4
825	38.67
825.174	38.51
825.348	38.6
825.523	38.76
825.697	38.71
825.871	38.55
826.045	38.25
826.219	38.45
826.393	38.46
826.567	38.51
826.741	38.67
826.915	38.36
827.089	38.67
827.263	38.88
827.437	38.44
827.611	38.42
827.784	38.59
827.958	38.47
828.132	38.48
828.306	38.43
828.48	38.46
828.654	38.07
828.827	38.16
829.001	38.28
829.175	37.71
829.349	38.23
829.522	38.18
829.696	37.99
829.87	38.49
830.044	38.76
830.217	38.85
830.391	38.54
830.565	39.16
830.738	38.76
830.912	38.05
831.085	38.34
831.259	39.36
831.432	39.04
831.606	38.91
831.779	39.18
831.953	38.64
832.126	38.51
832.3	38.61
832.473	38.44
832.647	38.73
832.82	38.59
832.994	38.72
833.167	38.09
833.34	38.2
833.514	38.47
833.687	38.1
833.86	38.05
834.034	37.9
834.207	38.01
834.38	37.68
834.553	37.64
834.727	37.65
834.9	38.01
835.073	37.78
835.246	37.55
835.419	37.19
835.593	37.71
835.766	37.78
835.939	37.7
836.112	37.55
836.285	38.02
836.458	38.03
836.631	37.92
836.804	36.27
836.977	36.56
837.15	37.13
837.323	36.7
837.496	35.74
837.669	35.68
837.842	35.64
838.015	36.26
838.188	35.99
838.361	36.67
838.533	37.58
838.706	38.2
838.879	37.84
839.052	37.42
839.225	38.02
839.398	38.47
839.57	38.09
839.743	38.2
839.916	37.75
840.088	37.67
840.261	37.88
840.434	37.6
840.607	37.91
840.779	38.53
840.952	38.63
841.124	38.96
841.297	39.41
841.47	40.48
841.642	40.45
841.815	39.86
841.987	40.45
842.16	39.14
842.332	38.49
842.505	37.81
842.677	38.13
842.85	39.35
843.022	38.62
843.194	38.86
843.367	38.19
843.539	39.21
843.712	40.19
843.884	39.94
844.056	40.74
844.229	40.86
844.401	43.23
844.573	43.09
844.745	42.28
844.918	41.67
845.09	40.41
845.262	38.53
845.434	39.37
845.606	38.08
845.779	37.78
845.951	37.72
846.123	39.21
846.295	37.98
846.467	37.49
846.639	36.13
846.811	38.02
846.983	38.45
847.155	40.54
847.327	39.93
847.499	41.08
847.671	40.81
847.843	39.06
848.015	37.48
848.187	38.09
848.359	36.58
848.531	39.26
848.703	37.17
848.875	38.28
849.047	38.29
849.218	39.4
849.39	37.91
849.562	37.42
849.734	37.09
849.905	38.61
850.077	37.13
850.249	39.5
850.421	37.93
850.592	38.73
850.764	37.04
850.936	36.08
851.107	32.05
851.279	33.25
851.451	35.32
851.622	36.93
851.794	37.1
851.965	37.75
852.137	37.29
852.308	36.69
852.48	38.47
852.651	38.71
852.823	38.38
852.994	40.96
853.166	42.63
853.337	42.56
853.509	42.84
853.68	42.23
853.851	43.15
854.023	41.41
854.194	42.33
854.365	39.43
854.537	39.06
854.708	39.94
854.879	37.93
855.05	36.89
855.222	36.71
855.393	33.24
855.564	31.69
855.735	29.95
855.906	33.71
856.078	33.34
856.249	35.35
856.42	34.87
856.591	35.26
856.762	35.6
856.933	34.56
857.104	33.1
857.275	36.86
857.446	37.58
857.617	37.91
857.788	37.06
857.959	35.16
858.13	34.92
858.301	36.02
858.472	37.4
858.643	36.92
858.814	39.26
858.985	41.06
859.155	38.86
859.326	39.51
859.497	41.1
859.668	38.38
859.839	39.68
860.009	39.56
860.18	40.09
860.351	38.95
860.522	40.33
860.692	42
860.863	40.88
861.034	40.9
861.204	39.56
861.375	36.96
861.546	36.61
861.716	35.62
861.887	34.44
862.057	34.72
862.228	35.67
862.398	36.2
862.569	34.13
862.739	36.26
862.91	37.63
863.08	39.95
863.251	38.93
863.421	37.96
863.592	39.55
863.762	40.03
863.932	37.11
864.103	35.04
864.273	32.13
864.443	32.48
864.614	31.47
864.784	31.4
864.954	29.69
865.125	31.45
865.295	34.07
865.465	34.35
865.635	33.93
865.805	34.15
865.976	32.77
866.146	34.52
866.316	32.61
866.486	30.79
866.656	31.07
866.826	28.49
866.996	28.22
867.166	26.37
867.336	26.11
867.506	25.28
867.676	24.61
867.846	25.83
868.016	25.2
868.186	24.4
868.356	26.9
868.526	26.31
868.696	28.84
868.866	30.04
869.036	30.48
869.206	29.03
869.376	29.25
869.545	30.28
869.715	29.7
869.885	30.17
870.055	31.11
870.224	30.89
870.394	32.22
870.564	35.57
870.734	32.89
870.903	33.37
871.073	34.39
871.243	38.14
871.412	38.96
871.582	42.25
871.751	42.82
871.921	42.84
872.091	39.62
872.26	38.2
872.43	33.91
872.599	36.51
872.769	35.93
872.938	35.79
873.108	34.1
873.277	33.14
873.446	33.36
873.616	32.49
873.785	32.8
873.955	35.87
874.124	37.39
874.293	40.25
874.463	39.53
874.632	40.14
874.801	41.25
874.971	41.18
875.14	43.44
875.309	39.16
875.478	40.59
875.647	42.22
875.817	42.57
875.986	38.13
876.155	35.92
876.324	35.14
876.493	37.49
876.662	37.75
876.831	37.25
877	35.74
877.17	37.57
877.339	39.13
877.508	39.56
877.677	40.15
877.846	42.31
878.015	43.35
878.184	44.71
878.352	44.31
878.521	42.44
878.69	42.38
878.859	43.05
879.028	43.47
879.197	41.16
879.366	38.85
879.534	37.97
879.703	36.76
879.872	36.05
880.041	36.41
880.21	35.57
880.378	35.53
880.547	35.71
880.716	35.54
880.884	34.68
881.053	34.98
881.222	35.14
881.39	34.92
881.559	35.75
881.727	35.57
881.896	35.32
882.065	35.25
882.233	35.2
882.402	34.72
882.57	34.52
882.739	34.9
882.907	34.91
883.076	35.04
883.244	35.16
883.412	34.67
883.581	34.42
883.749	34.18
883.918	34.39
884.086	35.1
884.254	35.76
884.423	35.84
884.591	36.96
884.759	36.38
884.927	36.4
885.096	36.11
885.264	36.66
885.432	37.33
885.6	36.68
885.769	35.43
885.937	33.27
886.105	32.02
886.273	30.95
886.441	29.16
886.609	30.22
886.777	29.26
886.945	29.55
887.113	29.94
887.281	30.11
887.449	33.45
887.617	35.32
887.785	34.97
887.953	35.23
888.121	35.84
888.289	34.02
888.457	34.34
888.625	33.9
888.793	34.65
888.961	31.6
889.129	31.07
889.296	29.06
889.464	27.67
889.632	29.67
889.8	29.4
889.967	30.28
890.135	33.54
