Data from JASIL_3198_Reflection_01.txt Node
Date: Fri Nov 13 14:06:18 EST 2015
User: Geneva
Spectrometer: USB4E03002
Autoset integration time: false
Trigger mode: 4
Integration Time (sec): 1.000000E-1
Scans to average: 10
Electric dark correction enabled: false
Nonlinearity correction enabled: false
Boxcar width: 5
Stray light correction enabled: false
XAxis mode: Wavelengths
Stop averaging: false
Number of Pixels in Spectrum: 3648
>>>>>Begin Spectral Data<<<<<
177.575	64.11
177.794	70.26
178.014	70.81
178.233	81.82
178.452	75.61
178.672	70.84
178.891	69.26
179.11	90.12
179.33	76.66
179.549	89.63
179.768	144.49
179.987	115.84
180.207	130.96
180.426	111.09
180.645	99.71
180.864	104.79
181.084	108.72
181.303	116.86
181.522	106.58
181.741	126.07
181.96	120.55
182.179	103.67
182.398	86.76
182.618	85.33
182.837	96.32
183.056	97.42
183.275	101.79
183.494	112.07
183.713	109.39
183.932	122.17
184.151	97.42
184.37	92.41
184.589	93.47
184.808	102.6
185.027	104.05
185.246	102.67
185.465	113.17
185.684	101.96
185.903	96.02
186.122	99.31
186.341	91.18
186.56	112.84
186.779	131.88
186.998	124.96
187.216	139.78
187.435	133.08
187.654	136.1
187.873	116.64
188.092	122.8
188.311	112.45
188.53	120.47
188.748	122.36
188.967	112.96
189.186	100.36
189.405	98.54
189.623	91.19
189.842	95.29
190.061	92.3
190.28	93.15
190.498	90.04
190.717	108.17
190.936	109.9
191.154	120.11
191.373	149.02
191.592	158.26
191.81	174.42
192.029	174.64
192.248	277.51
192.466	253.86
192.685	295.77
192.904	363.12
193.122	401.75
193.341	305.7
193.559	259.37
193.778	182.78
193.996	199.21
194.215	190.83
194.433	180.56
194.652	144.21
194.87	164.98
195.089	173.12
195.307	165.14
195.526	145.82
195.744	132.54
195.963	148.44
196.181	172.13
196.399	157.19
196.618	160.2
196.836	172.22
197.055	171.67
197.273	142.38
197.491	127.51
197.71	158.42
197.928	149.55
198.146	186.62
198.365	185.42
198.583	182.05
198.801	210.09
199.019	166.29
199.238	170.28
199.456	159.08
199.674	165.94
199.892	183.24
200.111	181.44
200.329	166.25
200.547	171.5
200.765	119.53
200.983	92.46
201.202	75
201.42	98.85
201.638	86.38
201.856	57.64
202.074	71.52
202.292	69.91
202.51	57.94
202.728	68.89
202.946	68.39
203.165	88.37
203.383	108.1
203.601	108.16
203.819	81.9
204.037	74.84
204.255	122.34
204.473	110.21
204.691	135.92
204.909	146.5
205.127	193.48
205.345	236.03
205.562	386.78
205.78	246.35
205.998	320
206.216	669.12
206.434	479.39
206.652	383.18
206.87	463.54
207.088	201.15
207.306	219.8
207.523	174.72
207.741	176.47
207.959	160.22
208.177	157.63
208.395	131.81
208.612	140.16
208.83	109.4
209.048	93.51
209.266	74.09
209.483	102.63
209.701	88.97
209.919	89.55
210.136	76.95
210.354	93.02
210.572	84.5
210.79	93.67
211.007	96.42
211.225	122.03
211.442	153.27
211.66	197.03
211.878	175.71
212.095	47.21
212.313	42.61
212.53	47.5
212.748	38.85
212.966	44.84
213.183	47.96
213.401	45.12
213.618	41.95
213.836	43.06
214.053	46.23
214.271	43.61
214.488	82.09
214.705	89.11
214.923	81.15
215.14	87.25
215.358	72.7
215.575	78.26
215.793	77.57
216.01	82.3
216.227	90.42
216.445	110.48
216.662	89.65
216.879	106.26
217.097	135.62
217.314	129.14
217.531	134.61
217.749	173.76
217.966	192.83
218.183	150.41
218.4	132.27
218.618	88.44
218.835	65.43
219.052	73.75
219.269	76.98
219.487	54.91
219.704	44.09
219.921	49.65
220.138	34.06
220.355	24
220.572	44.7
220.79	62.49
221.007	79.48
221.224	88.17
221.441	102.81
221.658	106.31
221.875	125.6
222.092	122.69
222.309	139.73
222.526	136.87
222.743	135.49
222.96	116.64
223.177	110.77
223.394	106.28
223.611	99.12
223.828	85.42
224.045	74.65
224.262	79.18
224.479	74.28
224.696	70.91
224.913	70.77
225.13	71.54
225.347	76.47
225.564	74.1
225.781	68.37
225.997	72.1
226.214	80.57
226.431	90.38
226.648	88.88
226.865	88.99
227.082	86.08
227.298	73.53
227.515	69.43
227.732	57.69
227.949	55.92
228.165	60.91
228.382	58.9
228.599	56.78
228.816	56.24
229.032	48.06
229.249	49.67
229.466	48.04
229.682	43.47
229.899	44.07
230.116	50.73
230.332	51.42
230.549	54.95
230.765	52.19
230.982	44.65
231.199	39.15
231.415	41.65
231.632	37.92
231.848	35.41
232.065	45.77
232.281	47.22
232.498	42.43
232.714	42.07
232.931	39.31
233.147	42.63
233.364	53.85
233.58	61.63
233.797	72.72
234.013	76.44
234.23	85.53
234.446	76.91
234.662	81.02
234.879	94.05
235.095	80.91
235.312	88.13
235.528	90.69
235.744	89.85
235.961	86.2
236.177	85.36
236.393	79.79
236.61	74.91
236.826	75.14
237.042	80.88
237.258	72.99
237.475	85.49
237.691	73.79
237.907	64.34
238.123	69.23
238.339	76.38
238.556	69.29
238.772	70
238.988	67.78
239.204	66.94
239.42	66.49
239.636	57.73
239.853	45.88
240.069	46.91
240.285	47.31
240.501	43.58
240.717	39.68
240.933	40.92
241.149	45.05
241.365	47.22
241.581	44.57
241.797	33.56
242.013	37.27
242.229	41.25
242.445	44.97
242.661	43.07
242.877	40.64
243.093	41.43
243.309	43.14
243.525	40.02
243.741	37.33
243.957	39.35
244.173	44.01
244.388	44.6
244.604	36.15
244.82	32.93
245.036	34.28
245.252	36.1
245.468	30.79
245.683	30.85
245.899	25.59
246.115	26.96
246.331	26.83
246.547	25.6
246.762	26.33
246.978	27.46
247.194	28.92
247.409	29.75
247.625	28.11
247.841	28.12
248.057	24.45
248.272	25.52
248.488	27.71
248.703	29.96
248.919	36.14
249.135	35.62
249.35	39.44
249.566	38.18
249.782	41.23
249.997	40.29
250.213	43.36
250.428	51.11
250.644	53.98
250.859	53.42
251.075	51.42
251.29	47.04
251.506	48.57
251.721	46.45
251.937	45.5
252.152	42.21
252.368	45.61
252.583	49.18
252.798	51.39
253.014	54.66
253.229	46.9
253.445	48.51
253.66	52.31
253.875	52.91
254.091	60.47
254.306	63.9
254.521	67.2
254.737	64.77
254.952	61.23
255.167	52.76
255.383	50.25
255.598	54.64
255.813	53.74
256.028	46.89
256.244	42.32
256.459	41.05
256.674	42.29
256.889	41.45
257.104	36.97
257.32	35.86
257.535	36.02
257.75	35.06
257.965	33.52
258.18	33.09
258.395	35.87
258.61	34
258.826	31.81
259.041	29.05
259.256	26.06
259.471	25.62
259.686	27.09
259.901	28.58
260.116	29.49
260.331	31.74
260.546	31.36
260.761	30.07
260.976	32.94
261.191	33.54
261.406	34.5
261.621	37.77
261.836	41.72
262.05	37.71
262.265	33.48
262.48	31.74
262.695	30.93
262.91	29.04
263.125	31.17
263.34	30.84
263.555	31.97
263.769	30.43
263.984	27.25
264.199	23.27
264.414	28.71
264.629	32.27
264.843	33.9
265.058	30.97
265.273	29.73
265.488	26.29
265.702	24.83
265.917	24.64
266.132	28.29
266.346	29.7
266.561	35.22
266.776	34.01
266.99	36.36
267.205	36.85
267.42	37.1
267.634	40.26
267.849	40
268.063	40.96
268.278	39.25
268.492	35.09
268.707	34.03
268.922	33.86
269.136	35.56
269.351	33.15
269.565	31.8
269.78	32.32
269.994	31.23
270.209	32.21
270.423	31.72
270.637	30.8
270.852	30.55
271.066	30.49
271.281	28.44
271.495	27.02
271.709	26.84
271.924	25.02
272.138	28.2
272.353	26.98
272.567	27.7
272.781	27.8
272.996	29.41
273.21	28.93
273.424	31.13
273.638	32.39
273.853	32.81
274.067	30.32
274.281	31.14
274.495	32.73
274.71	33.55
274.924	33.21
275.138	35.12
275.352	36
275.566	37.81
275.781	36.56
275.995	32.26
276.209	36.02
276.423	37.71
276.637	37.26
276.851	30.73
277.065	33.75
277.279	29.21
277.493	27.05
277.707	29.65
277.921	28.84
278.135	28.21
278.349	32.86
278.563	26.54
278.777	26.12
278.991	22.79
279.205	25.74
279.419	26.08
279.633	28
279.847	27.23
280.061	23.95
280.275	24.48
280.489	23.02
280.703	18.3
280.917	19.45
281.131	17.74
281.344	20.04
281.558	20.44
281.772	19
281.986	20.67
282.2	20.51
282.414	18.72
282.627	18.4
282.841	20.48
283.055	20.38
283.269	22.35
283.482	21.25
283.696	21.51
283.91	22.95
284.123	19.59
284.337	20.25
284.551	20.88
284.764	24.02
284.978	23.6
285.192	23.2
285.405	25.01
285.619	22.36
285.833	25.85
286.046	26.41
286.26	24.51
286.473	28.22
286.687	28.48
286.9	29.7
287.114	27.25
287.327	26.37
287.541	27.17
287.754	26.23
287.968	32.73
288.181	31.21
288.395	27.97
288.608	29.22
288.822	28.48
289.035	28.73
289.248	26.83
289.462	29.06
289.675	30.38
289.889	28.66
290.102	30.77
290.315	25.91
290.529	26.24
290.742	28.78
290.955	30.91
291.169	29.25
291.382	28.76
291.595	28.66
291.808	26.2
292.022	27.42
292.235	26.82
292.448	24.67
292.661	24.03
292.875	23.73
293.088	25.13
293.301	23.19
293.514	22.57
293.727	21.14
293.94	21.91
294.153	21.74
294.367	20.91
294.58	20.81
294.793	20.44
295.006	22.61
295.219	19.91
295.432	17.22
295.645	17.47
295.858	18.43
296.071	19.46
296.284	17.33
296.497	17.73
296.71	16.06
296.923	17.82
297.136	17.03
297.349	16.03
297.562	17.43
297.775	17.64
297.988	16.53
298.201	15.62
298.414	14.36
298.626	18.42
298.839	17.89
299.052	17.75
299.265	18.49
299.478	20.43
299.691	20.04
299.903	21.28
300.116	21.44
300.329	22.2
300.542	24.9
300.755	26.26
300.967	23.94
301.18	25.52
301.393	27.98
301.605	24.07
301.818	23.62
302.031	22.35
302.243	19.93
302.456	25.61
302.669	26.77
302.881	26.92
303.094	24.98
303.307	26.78
303.519	28.99
303.732	30.6
303.944	33.14
304.157	33.97
304.37	33.82
304.582	36.31
304.795	33.89
305.007	34.46
305.22	31.47
305.432	31.82
305.645	30.78
305.857	29.17
306.069	25.83
306.282	24.82
306.494	25.18
306.707	26.97
306.919	25.65
307.132	25.38
307.344	21.86
307.556	21.44
307.769	21.26
307.981	22.02
308.193	17.98
308.406	20.67
308.618	21.69
308.83	20.84
309.043	20.26
309.255	21.62
309.467	22.51
309.679	23.05
309.892	24.86
310.104	27.18
310.316	25.93
310.528	29.49
310.74	27.83
310.953	27.84
311.165	28.43
311.377	28.83
311.589	26.52
311.801	24.14
312.013	29.16
312.225	26.49
312.437	22.74
312.649	21.74
312.862	19.37
313.074	19.05
313.286	19.63
313.498	20.08
313.71	20.85
313.922	23.23
314.134	24.88
314.346	19.53
314.558	24.48
314.77	29.56
314.982	32.12
315.193	33.57
315.405	35.56
315.617	34.34
315.829	32.58
316.041	31.61
316.253	30.06
316.465	28.43
316.677	30.93
316.888	30.87
317.1	27.21
317.312	25.94
317.524	24.73
317.736	24.97
317.947	26.67
318.159	29.75
318.371	29.69
318.583	31.61
318.794	32.85
319.006	31.7
319.218	28.1
319.43	29.52
319.641	30.92
319.853	32.61
320.064	33.01
320.276	32.77
320.488	30.58
320.699	29.43
320.911	26.85
321.123	28.95
321.334	29.87
321.546	30.87
321.757	32
321.969	32.37
322.18	30.9
322.392	28.19
322.603	29.09
322.815	30.24
323.026	34.69
323.238	34.31
323.449	34.43
323.661	32.89
323.872	32.04
324.083	31.48
324.295	32.27
324.506	31.87
324.718	35.74
324.929	33.98
325.14	34.92
325.352	33.25
325.563	34.82
325.774	35.01
325.986	35.58
326.197	39.59
326.408	39.91
326.62	40.04
326.831	42.28
327.042	42.52
327.253	44.07
327.464	44.02
327.676	45.06
327.887	46.49
328.098	45.86
328.309	43.95
328.52	44.06
328.732	44.44
328.943	46.19
329.154	44.57
329.365	43.49
329.576	42.2
329.787	41.62
329.998	41.36
330.209	42.28
330.42	41.07
330.631	45.74
330.842	45.9
331.053	48.71
331.264	46.81
331.475	46.18
331.686	46.16
331.897	48.67
332.108	49.78
332.319	50.24
332.53	49.35
332.741	51.59
332.952	50.8
333.163	48.81
333.374	46.14
333.585	44.69
333.795	48
334.006	47.09
334.217	45.9
334.428	46.62
334.639	45.91
334.849	44.99
335.06	43.98
335.271	44.78
335.482	48.12
335.692	47.03
335.903	49.53
336.114	48.45
336.325	52.64
336.535	52.41
336.746	51.24
336.957	50.81
337.167	51.8
337.378	52.36
337.589	51.18
337.799	48.44
338.01	50.62
338.22	50.15
338.431	51.34
338.642	49.15
338.852	50.03
339.063	51.73
339.273	52.15
339.484	52.48
339.694	50.89
339.905	50.26
340.115	50.74
340.326	49.94
340.536	48.89
340.746	46.8
340.957	47.39
341.167	47.61
341.378	45.52
341.588	45.51
341.799	44.21
342.009	45.69
342.219	45.89
342.43	46.48
342.64	46.17
342.85	47.42
343.061	49.07
343.271	47.36
343.481	47.09
343.691	47.6
343.902	44.77
344.112	45.42
344.322	46.13
344.532	47.42
344.743	47.05
344.953	45.46
345.163	45.03
345.373	44.43
345.583	44.61
345.793	43.54
346.004	44.76
346.214	45.67
346.424	45.62
346.634	44.72
346.844	45.85
347.054	45.52
347.264	47.97
347.474	46.98
347.684	46.6
347.894	47.94
348.104	47.13
348.314	44.07
348.524	45.27
348.734	46.24
348.944	47.39
349.154	45.52
349.364	46.07
349.574	44.35
349.784	43.95
349.994	44.31
350.204	44.66
350.413	43.7
350.623	44.32
350.833	44.93
351.043	41.95
351.253	38.22
351.463	38.16
351.672	38.08
351.882	40.03
352.092	41.05
352.302	40.69
352.511	41.1
352.721	44.01
352.931	43.53
353.141	43.03
353.35	44.03
353.56	45.28
353.77	47.16
353.979	46.03
354.189	45.59
354.399	45.53
354.608	46.95
354.818	46.69
355.027	45.48
355.237	46.26
355.447	46.85
355.656	46.18
355.866	46.61
356.075	44.77
356.285	43.71
356.494	43.71
356.704	44.05
356.913	43.2
357.123	41.29
357.332	39.98
357.542	38.75
357.751	37.64
357.96	39.15
358.17	38.84
358.379	39.24
358.589	40.59
358.798	39.04
359.007	37.02
359.217	35.65
359.426	35.73
359.635	36.54
359.845	36.86
360.054	36.7
360.263	36.72
360.472	36.61
360.682	36.07
360.891	35.06
361.1	36.02
361.309	36.61
361.519	36.67
361.728	35.75
361.937	36.27
362.146	36.85
362.355	36.55
362.564	35.73
362.774	36.1
362.983	35.71
363.192	36.3
363.401	36.4
363.61	35.78
363.819	36.63
364.028	36.87
364.237	36.63
364.446	36.46
364.655	36.2
364.864	37.3
365.073	37.92
365.282	39.01
365.491	39.42
365.7	38.05
365.909	38.84
366.118	37.46
366.327	38.21
366.536	38.15
366.745	37.53
366.954	38.22
367.162	37.33
367.371	37.15
367.58	36.62
367.789	35.82
367.998	37.11
368.207	36.3
368.415	36.9
368.624	36.48
368.833	36.61
369.042	35.84
369.25	34.96
369.459	35.35
369.668	33.96
369.877	33.93
370.085	33.56
370.294	32.1
370.503	32.66
370.711	33.91
370.92	33.97
371.129	33.63
371.337	35.76
371.546	35.28
371.754	35.47
371.963	35.81
372.171	35.03
372.38	35.71
372.589	36.9
372.797	37.15
373.006	36.52
373.214	38.17
373.423	38.61
373.631	38.04
373.84	38.97
374.048	37.81
374.256	37.31
374.465	37.7
374.673	37.89
374.882	37.31
375.09	37.82
375.298	37.91
375.507	36.54
375.715	35.54
375.923	34.01
376.132	34.85
376.34	36.28
376.548	36.6
376.757	36.42
376.965	36.08
377.173	36.23
377.381	34.81
377.59	34.16
377.798	32.65
378.006	31.64
378.214	32.68
378.423	32.14
378.631	30.02
378.839	30.3
379.047	29.9
379.255	30.31
379.463	28.71
379.671	31.09
379.879	30.8
380.088	31.55
380.296	33.35
380.504	34.34
380.712	35.13
380.92	36.21
381.128	37.01
381.336	38.13
381.544	38.2
381.752	39.61
381.96	38.43
382.168	39.16
382.376	39.29
382.584	38.88
382.791	38.06
382.999	36.99
383.207	36.2
383.415	36.56
383.623	35.87
383.831	35.07
384.039	35.31
384.247	35.05
384.454	35.11
384.662	36.43
384.87	36.03
385.078	35.37
385.285	35.61
385.493	35.15
385.701	32.9
385.909	32.69
386.116	32.9
386.324	33.28
386.532	33.27
386.739	33.09
386.947	32.93
387.155	33.01
387.362	33.75
387.57	34.97
387.778	34.35
387.985	35.31
388.193	34.61
388.4	34.83
388.608	33.31
388.816	32.66
389.023	32.07
389.231	30.51
389.438	29.8
389.646	30.37
389.853	29.26
390.061	31.35
390.268	31.71
390.475	32.29
390.683	31.44
390.89	32.82
391.098	32.71
391.305	32.79
391.512	34.15
391.72	34.77
391.927	33.49
392.135	32.36
392.342	31.17
392.549	30.75
392.756	29.7
392.964	30
393.171	29.45
393.378	29.81
393.586	28.97
393.793	27.98
394	27.39
394.207	27.28
394.414	28.12
394.622	29.38
394.829	29.7
395.036	30.07
395.243	29.92
395.45	29.65
395.657	29.22
395.864	30.07
396.072	30.34
396.279	31.17
396.486	30.76
396.693	30.54
396.9	29.31
397.107	27.91
397.314	28.23
397.521	28.64
397.728	26.97
397.935	26.87
398.142	26.33
398.349	26.19
398.556	26.53
398.763	27.15
398.97	27.58
399.177	27.34
399.383	27.48
399.59	27.9
399.797	27.5
400.004	29.33
400.211	29.82
400.418	29.77
400.625	29.77
400.831	28.68
401.038	28.38
401.245	27.95
401.452	28.55
401.658	28.32
401.865	27.14
402.072	27.09
402.279	26.77
402.485	25.48
402.692	25.66
402.899	26.94
403.105	26.7
403.312	27.86
403.519	27.03
403.725	26.06
403.932	26.79
404.138	27.48
404.345	27.36
404.552	27.6
404.758	28.57
404.965	28.64
405.171	27.14
405.378	27.32
405.584	26.3
405.791	26.63
405.997	27.85
406.204	27.97
406.41	27.64
406.617	28.18
406.823	27.97
407.029	28.14
407.236	28.23
407.442	28.33
407.649	28.53
407.855	28.31
408.061	28.12
408.268	27.98
408.474	28.33
408.68	29.47
408.887	29.08
409.093	28.46
409.299	27.8
409.505	27.38
409.712	27.48
409.918	27.21
410.124	27.58
410.33	27.84
410.537	27.26
410.743	26.78
410.949	26.47
411.155	26.52
411.361	27.35
411.567	27.74
411.773	27.8
411.98	27.66
412.186	27.35
412.392	27.83
412.598	27.77
412.804	27.7
413.01	27.46
413.216	26.91
413.422	26.45
413.628	25.03
413.834	24.62
414.04	24.27
414.246	24.68
414.452	25.65
414.658	24.96
414.864	24.9
415.07	25.35
415.275	25.81
415.481	26.26
415.687	25.99
415.893	26.57
416.099	27.5
416.305	27.63
416.511	26.51
416.716	25.52
416.922	25.64
417.128	24.76
417.334	24.14
417.539	23.51
417.745	23.48
417.951	23.15
418.157	23.19
418.362	22.05
418.568	21.39
418.774	21.3
418.979	21.9
419.185	21.9
419.391	22.53
419.596	23.07
419.802	23
420.008	22.7
420.213	23.51
420.419	23.3
420.624	23.86
420.83	24.59
421.035	24.62
421.241	24.21
421.446	23.92
421.652	24.02
421.857	23.67
422.063	23.81
422.268	24.13
422.474	23.25
422.679	23.27
422.885	23.2
423.09	22.92
423.295	22.52
423.501	22.5
423.706	22.48
423.911	22.46
424.117	22.09
424.322	22.36
424.527	22.38
424.733	22.78
424.938	22.58
425.143	22.88
425.349	22.68
425.554	22.96
425.759	23.01
425.964	22.96
426.169	22.72
426.375	22.95
426.58	23.01
426.785	22.52
426.99	22.9
427.195	23.27
427.4	22.99
427.605	22.42
427.811	23.32
428.016	22.91
428.221	23.24
428.426	23.23
428.631	23.33
428.836	22.21
429.041	21.88
429.246	21.97
429.451	22.08
429.656	22.51
429.861	23.3
430.066	23.44
430.271	24.63
430.476	24.39
430.681	24.85
430.886	24.23
431.09	24.27
431.295	24.53
431.5	23.85
431.705	23.28
431.91	22.77
432.115	22.87
432.32	22.21
432.524	21.51
432.729	21.58
432.934	21.07
433.139	21.65
433.343	21.72
433.548	21.74
433.753	21.77
433.958	22.36
434.162	22.26
434.367	21.7
434.572	21.76
434.776	22.03
434.981	21.82
435.186	22.24
435.39	21.72
435.595	22.04
435.799	21.31
436.004	21.14
436.209	21.04
436.413	20.97
436.618	21.32
436.822	21.09
437.027	20.17
437.231	20.47
437.436	19.96
437.64	20.05
437.845	19.64
438.049	20.1
438.253	20.01
438.458	19.97
438.662	19.83
438.867	19.61
439.071	19.96
439.275	20.04
439.48	19.99
439.684	20.15
439.888	20.81
440.093	20.79
440.297	20.31
440.501	20.62
440.706	20.63
440.91	20.57
441.114	20.91
441.318	20.92
441.523	21.58
441.727	21.37
441.931	21.65
442.135	20.97
442.339	21.48
442.543	22.08
442.748	21.92
442.952	21.79
443.156	22.45
443.36	22.78
443.564	22.51
443.768	21.94
443.972	22.45
444.176	21.73
444.38	21.81
444.584	21.69
444.788	21.32
444.992	21.69
445.196	21.99
445.4	21.35
445.604	20.5
445.808	20.37
446.012	20.55
446.216	20.14
446.42	20.41
446.624	20.23
446.828	20.36
447.032	20.55
447.235	20.1
447.439	19.39
447.643	19.22
447.847	19.52
448.051	19.75
448.254	19.87
448.458	20.05
448.662	20.13
448.866	20.29
449.069	20.16
449.273	20.43
449.477	20.44
449.681	20.84
449.884	21.31
450.088	21.78
450.292	21.71
450.495	21.95
450.699	21.31
450.902	21.47
451.106	21.5
451.31	21.62
451.513	21.47
451.717	21.07
451.92	21.01
452.124	20.7
452.327	20.7
452.531	20.35
452.734	20.41
452.938	20.83
453.141	20.71
453.345	20.54
453.548	20.22
453.752	19.74
453.955	19.82
454.158	19.91
454.362	20.12
454.565	19.68
454.769	20.56
454.972	20.3
455.175	20.07
455.379	20.21
455.582	20.09
455.785	20.4
455.988	20.59
456.192	20.85
456.395	20.28
456.598	20.07
456.801	19.86
457.005	19.46
457.208	19.33
457.411	19.74
457.614	19.1
457.817	19.7
458.021	19.16
458.224	19.01
458.427	18.6
458.63	18.83
458.833	18.66
459.036	18.38
459.239	18.41
459.442	18
459.645	17.66
459.848	17.83
460.051	17.22
460.254	17.67
460.457	17.8
460.66	18.01
460.863	17.98
461.066	17.98
461.269	18.41
461.472	17.94
461.675	18.01
461.878	18.29
462.081	18.88
462.284	18.82
462.486	18
462.689	17.62
462.892	17.86
463.095	17.84
463.298	18.22
463.5	18.65
463.703	18.97
463.906	19.23
464.109	19.37
464.311	18.8
464.514	19.63
464.717	20.17
464.92	19.94
465.122	19.44
465.325	19.38
465.528	19.05
465.73	18.6
465.933	18.65
466.135	18.86
466.338	18.74
466.541	18.2
466.743	17.68
466.946	17.1
467.148	17.34
467.351	18.09
467.553	17.37
467.756	17.79
467.958	17.2
468.161	16.84
468.363	16.54
468.566	16.69
468.768	17.85
468.971	18.42
469.173	18.88
469.375	18.73
469.578	18.63
469.78	19.28
469.983	19.2
470.185	20.44
470.387	20.79
470.59	21.42
470.792	20.95
470.994	20.67
471.196	20.33
471.399	20.64
471.601	20.73
471.803	20.14
472.005	20.17
472.208	19.12
472.41	18.44
472.612	17.8
472.814	17.01
473.016	17.01
473.218	16.55
473.421	16.25
473.623	15.47
473.825	16.22
474.027	16.81
474.229	17.06
474.431	17.86
474.633	17.91
474.835	18.73
475.037	18.73
475.239	19.16
475.441	19.17
475.643	19.26
475.845	19.75
476.047	19.81
476.249	19.49
476.451	19.8
476.653	19.49
476.855	20.03
477.057	20.16
477.258	20.38
477.46	20.21
477.662	20.52
477.864	21.03
478.066	20.82
478.268	20.45
478.469	20.26
478.671	19.56
478.873	19.65
479.075	19.05
479.276	18.69
479.478	18.56
479.68	18.14
479.882	17.8
480.083	17.1
480.285	16.87
480.487	17
480.688	17.24
480.89	17.57
481.091	17.58
481.293	17.33
481.495	17.13
481.696	17.01
481.898	16.77
482.099	16.64
482.301	16.61
482.502	16.46
482.704	16.18
482.905	16.13
483.107	16.02
483.308	15.96
483.51	15.89
483.711	15.9
483.913	15.79
484.114	15.9
484.315	15.9
484.517	16.05
484.718	16.19
484.92	16.1
485.121	15.93
485.322	15.82
485.524	16.06
485.725	16.25
485.926	16.33
486.127	16.42
486.329	16.43
486.53	16.34
486.731	16.25
486.932	16.22
487.134	16.24
487.335	16.38
487.536	16.51
487.737	16.14
487.938	16.12
488.139	16.07
488.341	16.07
488.542	16.08
488.743	16.3
488.944	16.25
489.145	16.09
489.346	16.4
489.547	16.26
489.748	16.66
489.949	17.2
490.15	17.29
490.351	17.18
490.552	17.39
490.753	17.39
490.954	17.24
491.155	17.26
491.356	17.39
491.557	17.48
491.758	17.6
491.959	17.09
492.159	16.89
492.36	16.9
492.561	16.97
492.762	17.25
492.963	17.52
493.164	17.74
493.364	17.8
493.565	17.87
493.766	17.75
493.967	17.84
494.167	18.23
494.368	17.83
494.569	17.82
494.769	18.33
494.97	17.76
495.171	17.68
495.371	17.94
495.572	17.8
495.773	17.93
495.973	18
496.174	18.08
496.375	17.92
496.575	18.17
496.776	18.19
496.976	17.98
497.177	18.11
497.377	18.03
497.578	17.78
497.778	18.08
497.979	18.25
498.179	18.12
498.38	17.84
498.58	18.2
498.78	18.66
498.981	18.78
499.181	18.94
499.382	18.72
499.582	18.91
499.782	19.05
499.983	19.01
500.183	18.66
500.383	18.78
500.584	19.01
500.784	18.83
500.984	18.82
501.184	18.88
501.385	18.6
501.585	18.88
501.785	18.7
501.985	19.17
502.185	19.39
502.386	19.69
502.586	19.55
502.786	20.17
502.986	19.85
503.186	19.37
503.386	19.78
503.586	20.02
503.786	20.15
503.987	20.01
504.187	19.75
504.387	19.85
504.587	19.64
504.787	19.83
504.987	19.57
505.187	20.45
505.387	20.84
505.587	20.75
505.786	21.02
505.986	21.02
506.186	21.02
506.386	21.22
506.586	21.2
506.786	21.66
506.986	22.04
507.186	21.9
507.386	21.4
507.585	21.39
507.785	21.38
507.985	21.19
508.185	21.3
508.384	21.65
508.584	21.46
508.784	21.6
508.984	21.64
509.183	21.24
509.383	21.63
509.583	21.87
509.782	21.72
509.982	21.67
510.182	21.56
510.381	21.72
510.581	21.64
510.781	21.71
510.98	21.59
511.18	21.93
511.379	22.22
511.579	21.5
511.778	21.59
511.978	21.85
512.177	21.58
512.377	21.75
512.576	21.88
512.776	21.96
512.975	21.76
513.175	21.59
513.374	21.33
513.573	21.5
513.773	22.38
513.972	22.11
514.172	21.94
514.371	22.24
514.57	22.56
514.77	22.84
514.969	22.71
515.168	23.27
515.367	23.87
515.567	23.85
515.766	23.85
515.965	23.95
516.164	24.15
516.364	24.61
516.563	24.58
516.762	24.27
516.961	23.87
517.16	23.96
517.359	23.57
517.559	23.08
517.758	23.27
517.957	23.11
518.156	22.9
518.355	22.65
518.554	22.3
518.753	22.31
518.952	22.24
519.151	22.35
519.35	22.72
519.549	23.06
519.748	23.65
519.947	23.33
520.146	23.42
520.345	23.3
520.544	23.97
520.743	24.76
520.942	24.74
521.141	25.19
521.339	25.31
521.538	25.27
521.737	24.94
521.936	24.81
522.135	25.02
522.333	24.98
522.532	25.19
522.731	24.78
522.93	24.26
523.129	24.18
523.327	24.12
523.526	24.1
523.725	23.94
523.923	24.14
524.122	23.99
524.321	24.03
524.519	24.34
524.718	24.37
524.917	24.52
525.115	24.59
525.314	24.62
525.512	24.29
525.711	24.14
525.909	24.12
526.108	24.01
526.306	23.9
526.505	23.94
526.703	23.91
526.902	23.81
527.1	24
527.299	23.94
527.497	23.84
527.696	23.82
527.894	23.79
528.092	23.64
528.291	23.69
528.489	23.72
528.688	23.66
528.886	23.48
529.084	23.58
529.283	23.26
529.481	23.2
529.679	23.41
529.877	23.84
530.076	23.67
530.274	23.9
530.472	24.06
530.67	24.12
530.869	23.99
531.067	24.2
531.265	24.37
531.463	24.82
531.661	24.74
531.859	24.35
532.057	24.01
532.255	24.4
532.454	24.5
532.652	24.2
532.85	24.26
533.048	24.43
533.246	24.33
533.444	24.06
533.642	23.74
533.84	23.94
534.038	24.13
534.236	24.03
534.434	24.11
534.632	23.83
534.83	24.04
535.027	24.01
535.225	24.17
535.423	24.56
535.621	24.79
535.819	24.6
536.017	24.61
536.215	25.09
536.412	25.17
536.61	24.93
536.808	25.17
537.006	25.58
537.203	25.68
537.401	25.4
537.599	25.08
537.797	25.13
537.994	25.41
538.192	25.65
538.39	24.83
538.587	25.22
538.785	25.54
538.983	25.64
539.18	25.47
539.378	25.26
539.575	25.37
539.773	25.23
539.97	25.13
540.168	25.37
540.366	25.25
540.563	25.49
540.761	25.33
540.958	25.25
541.155	24.89
541.353	24.88
541.55	24.89
541.748	25.13
541.945	24.95
542.143	25.11
542.34	24.96
542.537	24.92
542.735	24.98
542.932	25.28
543.129	25.31
543.327	25.71
543.524	25.77
543.721	25.84
543.919	25.81
544.116	26.32
544.313	25.71
544.51	26.12
544.708	26.29
544.905	26.27
545.102	26.12
545.299	25.9
545.496	25.85
545.693	25.69
545.891	25.82
546.088	25.86
546.285	26.1
546.482	26.65
546.679	25.96
546.876	25.95
547.073	26.32
547.27	26.22
547.467	26.71
547.664	27.09
547.861	27.6
548.058	27.78
548.255	27.62
548.452	27.69
548.649	28.3
548.846	28.7
549.043	28.95
549.24	28.51
549.437	27.98
549.633	27.83
549.83	27.8
550.027	28.02
550.224	28.35
550.421	28.16
550.618	28.18
550.814	27.59
551.011	27.64
551.208	27.25
551.405	27.78
551.601	28.43
551.798	28.43
551.995	27.89
552.191	27.27
552.388	26.89
552.585	27.17
552.781	26.96
552.978	27.37
553.175	27.73
553.371	28.1
553.568	27.63
553.764	28.07
553.961	27.67
554.157	28.54
554.354	28.28
554.55	28.35
554.747	29.32
554.943	29.51
555.14	29.57
555.336	29.77
555.533	29.51
555.729	30.3
555.926	30.13
556.122	30.39
556.318	29.91
556.515	30.42
556.711	30.61
556.907	30.07
557.104	30.57
557.3	30.17
557.496	30.36
557.693	30.48
557.889	30.32
558.085	29.91
558.281	30.64
558.478	31
558.674	30.47
558.87	30.53
559.066	29.95
559.262	29.8
559.459	30.14
559.655	29.86
559.851	29.72
560.047	29.23
560.243	29.5
560.439	29.7
560.635	29.8
560.831	30.46
561.027	30.56
561.223	30.93
561.419	30.85
561.615	30.82
561.811	31.33
562.007	31.57
562.203	31.5
562.399	31.76
562.595	31.83
562.791	31.88
562.987	32.05
563.183	32.49
563.379	32.77
563.575	32.83
563.771	33.2
563.966	32.82
564.162	32.93
564.358	33.24
564.554	33.4
564.75	32.6
564.945	32.66
565.141	32.44
565.337	32.01
565.533	32.17
565.728	32.39
565.924	32.21
566.12	32.92
566.315	32.82
566.511	33.38
566.707	33.27
566.902	33.8
567.098	34.02
567.293	34.83
567.489	35.7
567.684	35.83
567.88	35.51
568.076	35.93
568.271	35.77
568.467	36.5
568.662	36.04
568.858	36.5
569.053	36.34
569.248	36.27
569.444	36.2
569.639	35.1
569.835	35.69
570.03	36.15
570.225	35.7
570.421	35.59
570.616	35.78
570.812	36.05
571.007	36.13
571.202	35.8
571.397	35.8
571.593	35.54
571.788	35.89
571.983	35.24
572.178	35.3
572.374	35.71
572.569	35.59
572.764	35.61
572.959	35.7
573.154	35.88
573.35	36.6
573.545	37.07
573.74	37.26
573.935	37.97
574.13	38.31
574.325	37.84
574.52	37.62
574.715	37.67
574.91	37.2
575.105	37.15
575.3	36.68
575.495	36.84
575.69	36.63
575.885	36.96
576.08	36.75
576.275	37.07
576.47	37.87
576.665	38.39
576.86	38.91
577.055	38.91
577.25	39.03
577.444	39.5
577.639	39.87
577.834	39.88
578.029	39.61
578.224	40.53
578.418	40.31
578.613	40.32
578.808	40.47
579.003	40.33
579.197	40.97
579.392	41.83
579.587	42.32
579.781	41.85
579.976	42.55
580.171	43.15
580.365	42.35
580.56	43.09
580.755	43.66
580.949	43.67
581.144	44.25
581.338	45.1
581.533	45.04
581.727	44.93
581.922	44.85
582.116	45.21
582.311	45.12
582.505	45.24
582.7	44.98
582.894	45.08
583.089	44.68
583.283	44.79
583.478	44.67
583.672	44.78
583.866	44.99
584.061	45.46
584.255	45.29
584.449	45.54
584.644	45.81
584.838	46.47
585.032	45.98
585.226	46.06
585.421	45.74
585.615	45.18
585.809	44.92
586.003	45.03
586.198	45.78
586.392	45.69
586.586	45.9
586.78	46.04
586.974	45.84
587.168	46.18
587.363	47.15
587.557	47.2
587.751	47.56
587.945	47.73
588.139	47.69
588.333	47.41
588.527	47.38
588.721	47.13
588.915	47.08
589.109	46.16
589.303	45.93
589.497	45.81
589.691	45.75
589.885	45.16
590.079	45.07
590.273	45.1
590.466	45.31
590.66	45.53
590.854	45.66
591.048	45.87
591.242	46.7
591.436	47.39
591.629	47.28
591.823	47.46
592.017	47.93
592.211	48.29
592.404	48.26
592.598	47.77
592.792	47.18
592.986	47.06
593.179	47.31
593.373	47.15
593.567	46.78
593.76	46.34
593.954	46.43
594.147	46.95
594.341	47.26
594.535	47.12
594.728	47.38
594.922	47.32
595.115	47.41
595.309	47.25
595.502	47.63
595.696	47.76
595.889	47.84
596.083	47.78
596.276	47.16
596.47	47.29
596.663	47.08
596.856	47.03
597.05	47.65
597.243	47.8
597.437	47.12
597.63	46.77
597.823	46.62
598.017	47.19
598.21	47.49
598.403	48.49
598.596	48.84
598.79	49.67
598.983	49.93
599.176	50.17
599.369	50.31
599.563	50.65
599.756	51.13
599.949	51.83
600.142	52.04
600.335	51.3
600.528	50.68
600.722	50.13
600.915	49.79
601.108	49.76
601.301	49.67
601.494	49.64
601.687	50.33
601.88	49.56
602.073	49.74
602.266	49.23
602.459	49.52
602.652	49.35
602.845	49.56
603.038	48.91
603.231	49.12
603.424	49.35
603.617	48.69
603.809	48.73
604.002	48.57
604.195	47.81
604.388	47.96
604.581	48.32
604.774	48.49
604.966	47.78
605.159	48.61
605.352	48.51
605.545	48.01
605.737	48.83
605.93	48.91
606.123	49.27
606.316	49.48
606.508	49.68
606.701	49.13
606.894	49.51
607.086	50.85
607.279	50.8
607.471	51.03
607.664	51.44
607.857	51.19
608.049	50.86
608.242	51.17
608.434	51.2
608.627	51.41
608.819	51.69
609.012	51.36
609.204	50.82
609.397	50.84
609.589	50.28
609.782	49.77
609.974	49.96
610.166	50.16
610.359	50.21
610.551	50.47
610.743	50.79
610.936	51.64
611.128	51.82
611.32	51.78
611.513	51.84
611.705	52.15
611.897	53.36
612.09	53.71
612.282	54.73
612.474	55.26
612.666	55.73
612.858	56.46
613.051	55.73
613.243	56.14
613.435	56.24
613.627	55.36
613.819	56.16
614.011	55.48
614.203	55.78
614.395	54.86
614.588	54.12
614.78	54
614.972	53.14
615.164	53.23
615.356	53.14
615.548	52.97
615.74	54.56
615.932	53.25
616.124	52.77
616.315	52.87
616.507	53.23
616.699	53.62
616.891	53.06
617.083	52.44
617.275	52.84
617.467	52.36
617.659	53.2
617.85	53.92
618.042	53.62
618.234	54.1
618.426	53.95
618.618	53.84
618.809	53.54
619.001	53.69
619.193	53.96
619.384	53.91
619.576	53.92
619.768	52.16
619.959	50.68
620.151	51.33
620.343	51.64
620.534	51.27
620.726	50.97
620.917	51.75
621.109	51.05
621.301	51.68
621.492	51.58
621.684	52.33
621.875	53.11
622.067	53.57
622.258	54.42
622.45	53.78
622.641	54.38
622.832	54.47
623.024	53.73
623.215	54.54
623.407	54.3
623.598	52.83
623.789	51.69
623.981	52.08
624.172	52.17
624.363	51.75
624.555	52.24
624.746	52.68
624.937	53.56
625.129	54.26
625.32	54.15
625.511	54.26
625.702	54.72
625.893	55.46
626.085	55.46
626.276	54.35
626.467	54.33
626.658	54.04
626.849	53.34
627.04	52.07
627.231	51.49
627.422	51.85
627.614	50.82
627.805	51.76
627.996	52.18
628.187	52.49
628.378	53.3
628.569	53.91
628.76	54.23
628.951	53.58
629.142	53.59
629.332	53.62
629.523	53.22
629.714	54.39
629.905	52.91
630.096	51.66
630.287	51.21
630.478	51.2
630.669	50.86
630.859	51.02
631.05	51
631.241	50.89
631.432	50.84
631.623	51.59
631.813	51.02
632.004	52.23
632.195	52.31
632.385	52.49
632.576	52.61
632.767	52.55
632.957	52.07
633.148	52.74
633.339	53.58
633.529	53.48
633.72	52.97
633.91	53.22
634.101	53.63
634.292	54.18
634.482	53.83
634.673	53.38
634.863	53.32
635.054	54.52
635.244	54.43
635.435	54.18
635.625	54.44
635.815	55.16
636.006	55.15
636.196	54.19
636.387	54.2
636.577	53.43
636.767	54.94
636.958	55.01
637.148	54.31
637.338	54.21
637.529	54.01
637.719	55.27
637.909	55.53
638.099	55.26
638.29	54.55
638.48	54.23
638.67	55.83
638.86	54.79
639.05	55.02
639.241	55.51
639.431	55.47
639.621	55.92
639.811	55.95
640.001	55.73
640.191	55.57
640.381	57.39
640.571	57.51
640.761	57.08
640.951	57.1
641.141	57.32
641.331	56.93
641.521	57.36
641.711	56.81
641.901	55.42
642.091	55.72
642.281	55.85
642.471	55.73
642.661	57.88
642.851	58.84
643.041	59.38
643.231	59.05
643.42	59.89
643.61	60.58
643.8	61.15
643.99	62.04
644.18	62.22
644.369	62.07
644.559	62.15
644.749	60.03
644.939	59.68
645.128	59.67
645.318	59.77
645.508	58.17
645.697	57.88
645.887	57.74
646.076	56.8
646.266	56.66
646.456	56.68
646.645	56.86
646.835	57.03
647.024	55.77
647.214	55.75
647.403	55.45
647.593	55.93
647.782	55.46
647.972	55.29
648.161	55.84
648.351	55.33
648.54	55.46
648.73	54.27
648.919	54.97
649.108	55.41
649.298	53.74
649.487	54.19
649.677	53.9
649.866	53.55
650.055	53.53
650.244	52.27
650.434	52.7
650.623	53.1
650.812	53.96
651.002	53.9
651.191	54.76
651.38	55.96
651.569	55.77
651.758	55.33
651.947	55.36
652.137	55.42
652.326	56.69
652.515	57.08
652.704	56.52
652.893	56.64
653.082	56.5
653.271	56.66
653.46	55.72
653.649	55.64
653.838	55.98
654.027	56.19
654.216	56.46
654.405	56.07
654.594	56.07
654.783	56.66
654.972	55.93
655.161	55.54
655.35	54.58
655.539	54.25
655.728	53.99
655.916	54.51
656.105	54.22
656.294	53.86
656.483	53.86
656.672	51.68
656.86	51.05
657.049	51.47
657.238	51
657.427	50.96
657.615	51.77
657.804	51.7
657.993	51.11
658.181	51.26
658.37	51.42
658.559	51.42
658.747	52.21
658.936	52.61
659.125	53.58
659.313	53.92
659.502	53.46
659.69	53.17
659.879	53.84
660.067	54.29
660.256	55.45
660.444	55.12
660.633	55.76
660.821	56.22
661.01	57.6
661.198	57.47
661.387	58.7
661.575	60.16
661.763	60.89
661.952	60.3
662.14	60.68
662.328	60.6
662.517	61.54
662.705	59.87
662.893	58.94
663.082	57.34
663.27	56.24
663.458	54.71
663.646	54.65
663.834	55.89
664.023	56.64
664.211	57.64
664.399	57.28
664.587	57.2
664.775	59
664.963	60.79
665.152	61.71
665.34	60.91
665.528	62.52
665.716	61.89
665.904	60.79
666.092	59.82
666.28	60.2
666.468	60.07
666.656	60.05
666.844	60.23
667.032	59.49
667.22	60.43
667.408	61.94
667.596	60.63
667.784	60.69
667.971	60.86
668.159	61.72
668.347	61.12
668.535	60.47
668.723	61.64
668.911	61.57
669.098	60.37
669.286	59.08
669.474	58.98
669.662	59.25
669.849	59.97
670.037	59.29
670.225	59.37
670.413	58.55
670.6	58.42
670.788	56.7
670.976	56.17
671.163	57.92
671.351	58.58
671.538	57.88
671.726	57.7
671.913	57.51
672.101	59.78
672.289	59.49
672.476	58.76
672.664	58.9
672.851	59.28
673.039	59.43
673.226	60.52
673.413	60.02
673.601	59.23
673.788	58.63
673.976	57.69
674.163	56.08
674.35	55.46
674.538	56.68
674.725	56.63
674.912	57.82
675.1	59.18
675.287	57.12
675.474	56.91
675.662	58.72
675.849	58.64
676.036	59.6
676.223	60.04
676.411	60
676.598	59.48
676.785	58.93
676.972	59.57
677.159	58.23
677.346	58.03
677.533	57.96
677.721	57.11
677.908	57.7
678.095	57.99
678.282	58.14
678.469	58.9
678.656	59.64
678.843	60.45
679.03	58.85
679.217	58.12
679.404	58.94
679.591	57.53
679.778	58.02
679.964	58.25
680.151	57.81
680.338	56.59
680.525	56.39
680.712	56.11
680.899	55.37
681.086	55.67
681.272	57.42
681.459	57.61
681.646	58.79
681.833	58.65
682.02	57.25
682.206	55.95
682.393	57.03
682.58	57.5
682.766	56.49
682.953	57.33
683.14	57.35
683.326	57.08
683.513	56.28
683.7	56.59
683.886	55.87
684.073	57.5
684.259	58.53
684.446	58.57
684.632	58.57
684.819	58.54
685.005	59.19
685.192	59.7
685.378	59.91
685.565	59.21
685.751	59.31
685.938	59.21
686.124	57.68
686.31	57.69
686.497	57.22
686.683	55.38
686.87	56.17
687.056	55.27
687.242	55.88
687.429	55.11
687.615	55.26
687.801	54.46
687.987	54.21
688.174	55.66
688.36	57.57
688.546	56.93
688.732	59
688.918	57.67
689.105	57.92
689.291	55.81
689.477	55.3
689.663	56.54
689.849	55.73
690.035	55.77
690.221	56.48
690.407	54.03
690.593	55.61
690.779	55.81
690.965	56.12
691.151	56.68
691.337	58.62
691.523	59.55
691.709	59.52
691.895	60.79
692.081	62.46
692.267	62.9
692.453	62.99
692.639	61.72
692.825	62.19
693.011	61.79
693.196	60.99
693.382	60.18
693.568	60.38
693.754	60.66
693.94	60.83
694.125	61.07
694.311	60.64
694.497	62.18
694.682	63.73
694.868	62.21
695.054	63.22
695.239	63.71
695.425	65.17
695.611	64.54
695.796	63.3
695.982	63
696.168	61.84
696.353	59.58
696.539	59.07
696.724	58.12
696.91	57.27
697.095	56.93
697.281	55.37
697.466	53.48
697.652	53.96
697.837	53.9
698.023	53.7
698.208	53.75
698.393	53.95
698.579	53.22
698.764	52.55
698.949	52.85
699.135	53
699.32	53.23
699.505	53.62
699.691	53.75
699.876	54.06
700.061	55.23
700.246	54.88
700.432	56.88
700.617	56.87
700.802	59.65
700.987	62.34
701.172	63.42
701.358	63.53
701.543	64.21
701.728	66.45
701.913	65.62
702.098	65.55
702.283	67.46
702.468	66.91
702.653	69.23
702.838	67.85
703.023	66.4
703.208	65.98
703.393	67.82
703.578	68.1
703.763	66.07
703.948	67.5
704.133	67.01
704.318	67
704.503	67.44
704.688	65.58
704.873	65.62
705.057	64.47
705.242	65.4
705.427	65.58
705.612	64.33
705.797	63.25
705.981	63.1
706.166	64.15
706.351	63.7
706.536	64.55
706.72	65.56
706.905	66.06
707.09	67.23
707.274	68.2
707.459	67.14
707.644	67.53
707.828	67.73
708.013	67.86
708.197	68.35
708.382	67.49
708.567	67.58
708.751	67.84
708.936	67.3
709.12	67.63
709.305	64.97
709.489	65.41
709.673	66.15
709.858	66.86
710.042	66.46
710.227	64.38
710.411	63.96
710.596	61.37
710.78	61.46
710.964	61.25
711.149	61.15
711.333	63.34
711.517	64.35
711.702	62.83
711.886	62.97
712.07	62.92
712.254	64.38
712.438	65.4
712.623	67.69
712.807	65.99
712.991	65.76
713.175	65.99
713.359	63.85
713.544	62.71
713.728	64.87
713.912	65.41
714.096	66.5
714.28	65.57
714.464	65.62
714.648	64.31
714.832	63.9
715.016	66.24
715.2	64.89
715.384	64.06
715.568	64.19
715.752	61.69
715.936	59.69
716.12	57.88
716.304	57.48
716.488	57.53
716.671	57.38
716.855	60.33
717.039	57.17
717.223	57.59
717.407	57.35
717.59	57.46
717.774	60.71
717.958	61.39
718.142	62.63
718.325	62.91
718.509	62.38
718.693	62.79
718.877	61.84
719.06	62.56
719.244	62.44
719.428	66.35
719.611	65.93
719.795	66.52
719.978	67.17
720.162	66.32
720.345	66.94
720.529	64.82
720.713	64.61
720.896	63.37
721.08	64.1
721.263	64.07
721.446	63.78
721.63	65.25
721.813	62.35
721.997	62.66
722.18	64.32
722.364	64.56
722.547	69.07
722.73	67.61
722.914	67.33
723.097	68.07
723.28	67.62
723.464	65.97
723.647	67.98
723.83	66
724.013	65.01
724.197	63.49
724.38	65.13
724.563	61.59
724.746	65.13
724.929	66.31
725.112	64.54
725.296	64.95
725.479	64.86
725.662	62.49
725.845	63.64
726.028	64.25
726.211	64.74
726.394	61.83
726.577	62.82
726.76	61.39
726.943	60.54
727.126	60.71
727.309	62.13
727.492	63.64
727.675	64.48
727.858	64.73
728.041	63.69
728.224	62.55
728.407	62.92
728.589	62.62
728.772	62.62
728.955	62.04
729.138	61.65
729.321	59.65
729.503	57.8
729.686	54.96
729.869	56.75
730.052	56.06
730.234	57.45
730.417	56.42
730.6	58.75
730.782	56.87
730.965	58.19
731.148	60.27
731.33	61.35
731.513	62.88
731.695	65.28
731.878	67.5
732.061	67.59
732.243	68.05
732.426	68.86
732.608	69.99
732.791	71.62
732.973	71.67
733.156	71.93
733.338	72.39
733.52	71.27
733.703	71.32
733.885	66.12
734.068	66.53
734.25	66.16
734.432	68.4
734.615	65.84
734.797	67.35
734.979	70.67
735.162	70.17
735.344	71.75
735.526	72.51
735.708	74.08
735.891	74.74
736.073	77.46
736.255	77.99
736.437	76.73
736.619	77.59
736.802	76.46
736.984	75.39
737.166	76.75
737.348	74.57
737.53	75.13
737.712	73.14
737.894	73.54
738.076	73.31
738.258	73.21
738.44	75.03
738.622	75.07
738.804	75.28
738.986	76.06
739.168	73.6
739.35	73.54
739.532	72.52
739.714	73.24
739.896	74.61
740.078	74.86
740.259	76.57
740.441	77.24
740.623	78.93
740.805	79.24
740.987	78.34
741.168	78.89
741.35	81.62
741.532	83.62
741.714	84.34
741.895	86.25
742.077	88.6
742.259	84.68
742.44	86.47
742.622	84.85
742.804	85.59
742.985	81.54
743.167	82.31
743.348	80.83
743.53	79.1
743.711	77.79
743.893	76.56
744.075	74.03
744.256	76.81
744.438	74.32
744.619	71.31
744.8	69.71
744.982	73.19
745.163	74.64
745.345	75.88
745.526	77.64
745.707	76.21
745.889	74.36
746.07	73.76
746.252	71.32
746.433	69.1
746.614	71.31
746.795	69.2
746.977	69.48
747.158	67.82
747.339	67.14
747.52	65.37
747.702	67.95
747.883	68.28
748.064	69.49
748.245	71.16
748.426	72.99
748.607	71.84
748.788	76.77
748.97	77.15
749.151	76.6
749.332	77.44
749.513	78.56
749.694	80.3
749.875	81.27
750.056	80.18
750.237	80.3
750.418	78.31
750.599	80.41
750.78	76.54
750.96	73.36
751.141	75.46
751.322	74.42
751.503	72.53
751.684	70.47
751.865	68.11
752.046	68.49
752.226	67.92
752.407	69.69
752.588	70.06
752.769	71.46
752.949	74.38
753.13	72.27
753.311	74.4
753.492	77.63
753.672	78.19
753.853	77.55
754.034	77.8
754.214	74.74
754.395	72.93
754.575	71.93
754.756	71.73
754.937	69.86
755.117	72.55
755.298	68.58
755.478	68.4
755.659	64.68
755.839	67.37
756.02	67.21
756.2	71.4
756.381	74.82
756.561	71.85
756.741	72.95
756.922	70.61
757.102	68.94
757.283	70.59
757.463	69.07
757.643	68.58
757.823	67.62
758.004	67.18
758.184	63.93
758.364	61.28
758.545	64.34
758.725	65.21
758.905	65.58
759.085	67.57
759.265	66.8
759.446	64.9
759.626	66.36
759.806	66.36
759.986	63.37
760.166	60.81
760.346	56.93
760.526	56.16
760.706	53.15
760.886	54.53
761.066	53.25
761.246	50.07
761.426	52.34
761.606	53.05
761.786	49.31
761.966	51.57
762.146	51.77
762.326	55.03
762.506	54.27
762.686	54.49
762.866	54.29
763.046	56.64
763.225	59.49
763.405	58.27
763.585	55.87
763.765	59.87
763.945	60.65
764.124	61.62
764.304	62.36
764.484	64.57
764.664	65
764.843	66.19
765.023	62.64
765.203	62.53
765.382	64.32
765.562	67.56
765.741	67.81
765.921	68.3
766.101	72.48
766.28	74.09
766.46	74.77
766.639	76.2
766.819	77.4
766.998	79.71
767.178	84.58
767.357	83.64
767.537	84.17
767.716	83.91
767.896	83.27
768.075	79.96
768.254	77.79
768.434	75.41
768.613	75.59
768.792	75.65
768.972	75.77
769.151	73.05
769.33	75.81
769.51	77.18
769.689	78.86
769.868	80.39
770.047	84.5
770.226	84.58
770.406	86.09
770.585	89
770.764	90.8
770.943	94.03
771.122	93.36
771.301	94.53
771.48	98.81
771.66	99.42
771.839	97.68
772.018	97.23
772.197	97.86
772.376	95.43
772.555	94.03
772.734	93
772.913	93.94
773.092	95.05
773.271	94.75
773.449	93.25
773.628	93.05
773.807	93.68
773.986	92.37
774.165	93.7
774.344	99.27
774.523	97.67
774.701	97.93
774.88	94.96
775.059	91.4
775.238	90.43
775.417	90.36
775.595	94.31
775.774	93.75
775.953	92.44
776.131	90.44
776.31	85.17
776.489	86.57
776.667	90.1
776.846	92.93
777.025	93.58
777.203	97.9
777.382	98.53
777.56	94.45
777.739	92.38
777.917	95.91
778.096	99.27
778.274	105.82
778.453	105.66
778.631	99.43
778.81	97.32
778.988	101.87
779.166	103.4
779.345	103.95
779.523	104.69
779.702	109.75
779.88	106.16
780.058	99.97
780.237	99.71
780.415	99.83
780.593	99.33
780.771	99.6
780.95	95.98
781.128	86.64
781.306	82.21
781.484	84.23
781.662	85.1
781.841	83.85
782.019	87.02
782.197	85.29
782.375	85.34
782.553	86.82
782.731	87.09
782.909	86.86
783.087	91.04
783.265	92.15
783.443	88.74
783.621	90.63
783.799	91.71
783.977	95.11
784.155	89.52
784.333	86.05
784.511	86.76
784.689	85.37
784.867	89.03
785.045	90.72
785.223	93.27
785.4	92.94
785.578	94.26
785.756	93.73
785.934	91.22
786.112	92.85
786.289	91.44
786.467	92.41
786.645	91.32
786.823	88.14
787	84.54
787.178	81.01
787.356	81.97
787.533	81.32
787.711	80.37
787.889	77.43
788.066	78.91
788.244	79.49
788.421	77.39
788.599	78.01
788.776	76.35
788.954	74.47
789.131	81.68
789.309	81.42
789.486	79.09
789.664	82.99
789.841	83.42
790.019	84.81
790.196	88.64
790.373	89.56
790.551	91.6
790.728	92.1
790.906	96.69
791.083	92.35
791.26	89
791.437	88.38
791.615	83.7
791.792	91.11
791.969	88.69
792.146	86.87
792.324	84.56
792.501	88.23
792.678	92.25
792.855	88.73
793.032	87.58
793.209	90.1
793.387	90.32
793.564	93.73
793.741	90.24
793.918	88.52
794.095	89.48
794.272	92.96
794.449	89.03
794.626	88.45
794.803	90.76
794.98	89.17
795.157	87.48
795.334	84.62
795.511	80.55
795.688	74.81
795.864	74.45
796.041	72.05
796.218	69.66
796.395	73.03
796.572	70.77
796.749	69.33
796.925	69.34
797.102	70.72
797.279	73.24
797.456	76.26
797.632	79.73
797.809	81.48
797.986	84.04
798.162	88.2
798.339	82.13
798.516	82.35
798.692	85.81
798.869	85.68
799.046	83.63
799.222	84.4
799.399	81.08
799.575	77.95
799.752	76.44
799.928	73.08
800.105	68.97
800.281	69.66
800.458	71.33
800.634	66.34
800.811	67.56
800.987	64.77
801.163	59.39
801.34	57.94
801.516	63.42
801.692	70.4
801.869	71.48
802.045	76.58
802.221	80.24
802.398	75.57
802.574	78.05
802.75	78.23
802.926	87.36
803.103	93.75
803.279	98.63
803.455	91.08
803.631	88.92
803.807	91.83
803.983	89.22
804.16	83.55
804.336	79.66
804.512	85.26
804.688	82.37
804.864	76.76
805.04	77.44
805.216	77.45
805.392	83.13
805.568	77.9
805.744	78.89
805.92	75.52
806.096	80.33
806.272	96.29
806.448	86.54
806.623	92.48
806.799	96.15
806.975	99.39
807.151	101.92
807.327	101.2
807.503	103.59
807.678	104.88
807.854	108
808.03	110.72
808.206	103.76
808.381	109.76
808.557	111.66
808.733	110.42
808.908	105.91
809.084	109.16
809.26	104.98
809.435	103.42
809.611	98.94
809.787	99
809.962	90.94
810.138	87.28
810.313	87.45
810.489	85.64
810.664	87.63
810.84	85.77
811.015	84
811.191	85.86
811.366	86.43
811.542	86.34
811.717	87.68
811.892	89.37
812.068	94.71
812.243	90.6
812.419	89.48
812.594	85.32
812.769	90.67
812.944	87.03
813.12	88.17
813.295	87.69
813.47	88.15
813.645	84.39
813.821	82.1
813.996	80.33
814.171	86.71
814.346	82.17
814.521	84.07
814.697	79.84
814.872	74.77
815.047	75.04
815.222	71.24
815.397	68.79
815.572	69.18
815.747	73.31
815.922	70.85
816.097	73.19
816.272	74.44
816.447	76.4
816.622	77.09
816.797	81.43
816.972	72.75
817.147	73.02
817.322	73.65
817.496	68.14
817.671	69.96
817.846	67.89
818.021	69.84
818.196	71.22
818.371	66.2
818.545	65.63
818.72	67.73
818.895	70.28
819.069	67.59
819.244	67.59
819.419	65.58
819.594	59.49
819.768	59.44
819.943	50.58
820.117	48.55
820.292	49.14
820.467	47.17
820.641	44.09
820.816	42.89
820.99	42.88
821.165	41.12
821.339	40.34
821.514	40.01
821.688	39.42
821.863	39.59
822.037	38.54
822.212	38.11
822.386	37.17
822.56	38.47
822.735	39.66
822.909	40.52
823.084	40.06
823.258	41.71
823.432	42.47
823.606	41.63
823.781	42.95
823.955	44.68
824.129	46
824.303	47.37
824.478	45.47
824.652	44.43
824.826	42.29
825	45.73
825.174	44.78
825.348	44.24
825.523	46.73
825.697	48.78
825.871	47.86
826.045	46.68
826.219	47.48
826.393	49.2
826.567	48.49
826.741	50.77
826.915	49.51
827.089	49.5
827.263	52.27
827.437	51.12
827.611	47.32
827.784	48.65
827.958	49.98
828.132	49.14
828.306	48.21
828.48	49.79
828.654	50.23
828.827	50.77
829.001	52.24
829.175	51.42
829.349	56.45
829.522	57.04
829.696	60.58
829.87	60.77
830.044	64.69
830.217	70.46
830.391	74.75
830.565	76.54
830.738	78.41
830.912	82.79
831.085	81.76
831.259	80.33
831.432	84.43
831.606	79.91
831.779	75.71
831.953	71.61
832.126	65.9
832.3	61.95
832.473	63.09
832.647	61.07
832.82	55.5
832.994	55.08
833.167	54.93
833.34	53.21
833.514	54.49
833.687	55.6
833.86	57.26
834.034	59.39
834.207	59.93
834.38	58.88
834.553	60.84
834.727	66.24
834.9	71.46
835.073	72.76
835.246	75.11
835.419	71.76
835.593	73.47
835.766	73.2
835.939	76.63
836.112	76.83
836.285	77.82
836.458	79.54
836.631	79.02
836.804	75.5
836.977	75.44
837.15	75.48
837.323	83.09
837.496	88.79
837.669	95.4
837.842	98.42
838.015	105.35
838.188	108.9
838.361	101.19
838.533	102.86
838.706	104.06
838.879	112.57
839.052	112.39
839.225	119.09
839.398	101.14
839.57	98.26
839.743	90.57
839.916	89.88
840.088	91.18
840.261	89.8
840.434	85.01
840.607	91.76
840.779	88.47
840.952	98.96
841.124	89.14
841.297	94.85
841.47	88.95
841.642	83.35
841.815	81.26
841.987	78.45
842.16	85.95
842.332	87.7
842.505	80.57
842.677	76.62
842.85	72.95
843.022	78.87
843.194	82.06
843.367	88.24
843.539	94.56
843.712	93.99
843.884	96.25
844.056	99.67
844.229	105.29
844.401	106.69
844.573	114.65
844.745	108.3
844.918	109.95
845.09	110.92
845.262	111
845.434	105.32
845.606	107.32
845.779	112.38
845.951	105.3
846.123	100.11
846.295	103.69
846.467	105.63
846.639	114.23
846.811	114.69
846.983	114.65
847.155	127.01
847.327	129.31
847.499	143.16
847.671	151.34
847.843	157.71
848.015	152.43
848.187	147.27
848.359	141
848.531	134.64
848.703	146.92
848.875	135.32
849.047	121.2
849.218	115.84
849.39	105.74
849.562	109.37
849.734	104.15
849.905	121.34
850.077	110.51
850.249	118.88
850.421	126.94
850.592	117.12
850.764	118.17
850.936	116.45
851.107	124.07
851.279	125.42
851.451	114.58
851.622	115
851.794	113.37
851.965	130.36
852.137	133.06
852.308	127.51
852.48	123.46
852.651	122.64
852.823	122.65
852.994	127.8
853.166	120.41
853.337	117.16
853.509	111.05
853.68	101.27
853.851	97.84
854.023	98.61
854.194	106.35
854.365	119.93
854.537	119.18
854.708	132.84
854.879	117.38
855.05	119.2
855.222	114.71
855.393	116.54
855.564	128.59
855.735	130.96
855.906	120.22
856.078	115.27
856.249	114.8
856.42	122.58
856.591	114.61
856.762	115.75
856.933	119.63
857.104	117.64
857.275	107.6
857.446	96.55
857.617	93.2
857.788	89.24
857.959	88.04
858.13	73.32
858.301	68.62
858.472	63.75
858.643	70.61
858.814	73.02
858.985	79.26
859.155	82.18
859.326	86.02
859.497	85.11
859.668	94.52
859.839	91.65
860.009	100.7
860.18	101.04
860.351	117.15
860.522	112.89
860.692	121.96
860.863	121.96
861.034	118.77
861.204	124.58
861.375	121.34
861.546	104.8
861.716	105.84
861.887	90.21
862.057	104.89
862.228	100.29
862.398	102.44
862.569	94.4
862.739	96.33
862.91	97.04
863.08	95.06
863.251	95.36
863.421	100.06
863.592	109.21
863.762	113.2
863.932	101.29
864.103	96.72
864.273	86.11
864.443	83.7
864.614	90.02
864.784	84.34
864.954	83.32
865.125	88.52
865.295	88.99
865.465	85.32
865.635	90.61
865.805	98.91
865.976	93.26
866.146	95.24
866.316	90.85
866.486	86.11
866.656	94.41
866.826	85.4
866.996	88.09
867.166	99.3
867.336	90.69
867.506	87.17
867.676	78.1
867.846	95.78
868.016	110.26
868.186	124.84
868.356	126.05
868.526	134.08
868.696	150.58
868.866	166.99
869.036	133.46
869.206	156.34
869.376	174.58
869.545	197.22
869.715	151.52
869.885	151.02
870.055	143.44
870.224	139.35
870.394	134.94
870.564	139.64
870.734	124.37
870.903	132.85
871.073	127.86
871.243	123.67
871.412	126.25
871.582	137.45
871.751	136.35
871.921	140.18
872.091	130.36
872.26	122
872.43	104.95
872.599	105.11
872.769	105.74
872.938	100.1
873.108	89.13
873.277	81.49
873.446	78.59
873.616	73.87
873.785	64.99
873.955	67.06
874.124	70.15
874.293	80.13
874.463	76.83
874.632	67.11
874.801	77.62
874.971	80.14
875.14	87.59
875.309	99.36
875.478	99.12
875.647	119.08
875.817	135.44
875.986	109.65
876.155	100.58
876.324	105.2
876.493	105.14
876.662	89.44
876.831	98.52
877	92.75
877.17	88.97
877.339	82.31
877.508	84.14
877.677	90.24
877.846	90.79
878.015	93.52
878.184	87.48
878.352	88.14
878.521	97.78
878.69	95.16
878.859	91.78
879.028	86.07
879.197	95.98
879.366	88.16
879.534	73.5
879.703	77.87
879.872	75.59
880.041	77.07
880.21	79.6
880.378	75.97
880.547	70.31
880.716	65.78
880.884	64.9
881.053	60.08
881.222	62.09
881.39	62.36
881.559	62.03
881.727	59.72
881.896	56.92
882.065	56.28
882.233	54.47
882.402	52.52
882.57	54.78
882.739	55.72
882.907	55.33
883.076	54.01
883.244	53.41
883.412	54.88
883.581	54.85
883.749	52.09
883.918	49.76
884.086	47.42
884.254	49.43
884.423	52.31
884.591	56.69
884.759	59.18
884.927	58.18
885.096	59.38
885.264	55.23
885.432	57.66
885.6	68.96
885.769	69.74
885.937	75.98
886.105	75.43
886.273	73.45
886.441	65.46
886.609	65.2
886.777	63.04
886.945	57.66
887.113	57.34
887.281	60.51
887.449	49.5
887.617	51.81
887.785	48.89
887.953	47.39
888.121	48.84
888.289	41.32
888.457	40.94
888.625	42.02
888.793	58.13
888.961	57.43
889.129	51.31
889.296	67.93
889.464	67.45
889.632	70.81
889.8	81.6
889.967	73.68
890.135	81.01
