Data from JASIL_3281_Reflection_1.txt Node
Date: Tue Nov 17 19:14:49 EST 2015
User: Geneva
Spectrometer: USB4E03002
Autoset integration time: false
Trigger mode: 4
Integration Time (sec): 1.000000E-1
Scans to average: 10
Electric dark correction enabled: false
Nonlinearity correction enabled: false
Boxcar width: 5
Stray light correction enabled: false
XAxis mode: Wavelengths
Stop averaging: false
Number of Pixels in Spectrum: 3648
>>>>>Begin Spectral Data<<<<<
177.575	150
177.794	176.77
178.014	325
178.233	2400
178.452	-316.67
178.672	48.46
178.891	16.87
179.11	115
179.33	114.66
179.549	137.69
179.768	143.48
179.987	208
180.207	320.83
180.426	385.51
180.645	-79.81
180.864	-5.11
181.084	34.78
181.303	26.22
181.522	10.89
181.741	12.81
181.96	26.81
182.179	12.03
182.398	28.34
182.618	2.3
182.837	-3.16
183.056	1550
183.275	68.9
183.494	35.64
183.713	46.48
183.932	14.03
184.151	23.16
184.37	34
184.589	32.54
184.808	26.64
185.027	23.61
185.246	21.17
185.465	-14.02
185.684	-1280
185.903	71.79
186.122	105.98
186.341	70.81
186.56	95.79
186.779	93.47
186.998	84.89
187.216	74.6
187.435	78.68
187.654	111.55
187.873	128.63
188.092	117.83
188.311	96.74
188.53	71.45
188.748	76.01
188.967	112.04
189.186	140.85
189.405	108.26
189.623	113.89
189.842	133
190.061	134.14
190.28	81.33
190.498	79.11
190.717	-1837.5
190.936	-92.23
191.154	102.46
191.373	159.49
191.592	2263.64
191.81	-50.36
192.029	1038.46
192.248	-1750
192.466	-63.25
192.685	-165.67
192.904	72.64
193.122	63.15
193.341	70.65
193.559	104.86
193.778	92.99
193.996	141.29
194.215	175.25
194.433	231.03
194.652	216.84
194.87	732.94
195.089	258.9
195.307	646.59
195.526	2162.07
195.744	-535.96
195.963	387.63
196.181	265.41
196.399	283.87
196.618	213.15
196.836	315.34
197.055	277.39
197.273	368.45
197.491	420.47
197.71	426.09
197.928	536.99
198.146	116.76
198.365	129.66
198.583	103.3
198.801	137.5
199.019	143.43
199.238	84.82
199.456	60.62
199.674	50.45
199.892	57.41
200.111	54.9
200.329	68.52
200.547	95.8
200.765	113.96
200.983	177.69
201.202	120.23
201.42	175.73
201.638	192.65
201.856	1146.94
202.074	-3546.15
202.292	2341.18
202.51	-1477.78
202.728	281.73
202.946	246.93
203.165	246.78
203.383	272.65
203.601	538.67
203.819	160.32
204.037	221.83
204.255	106.82
204.473	100
204.691	115.36
204.909	112.64
205.127	96.36
205.345	90
205.562	104.26
205.78	79.13
205.998	65.85
206.216	80.56
206.434	30.27
206.652	28.26
206.87	26.79
207.088	9.82
207.306	-47.13
207.523	24.04
207.741	42.4
207.959	33.33
208.177	25.99
208.395	25.19
208.612	19.9
208.83	28.63
209.048	46.33
209.266	38.06
209.483	30.7
209.701	38.14
209.919	14.53
210.136	20.15
210.354	30.91
210.572	43.79
210.79	62.83
211.007	85.41
211.225	77.48
211.442	30.72
211.66	68.69
211.878	81.08
212.095	-49.39
212.313	-50.43
212.53	-30.66
212.748	-33.15
212.966	-36.05
213.183	-32.6
213.401	-50.97
213.618	-56.68
213.836	-72.67
214.053	-167.8
214.271	-129.2
214.488	279.76
214.705	167.86
214.923	153.46
215.14	106.85
215.358	44.75
215.575	37.73
215.793	70.07
216.01	101.32
216.227	94.81
216.445	73.84
216.662	82.28
216.879	86.33
217.097	69.24
217.314	57.58
217.531	47.43
217.749	64.02
217.966	53.98
218.183	36.38
218.4	20.52
218.618	-2.01
218.835	22.41
219.052	-30.61
219.269	-41.48
219.487	0.9
219.704	4.12
219.921	1.34
220.138	32.8
220.355	29.26
220.572	20.3
220.79	6.5
221.007	36.27
221.224	31.14
221.441	55.44
221.658	54.77
221.875	62.15
222.092	66.26
222.309	81.53
222.526	74.96
222.743	94.15
222.96	130.29
223.177	115.84
223.394	81
223.611	87.04
223.828	91.42
224.045	82.91
224.262	48.93
224.479	37.28
224.696	39.53
224.913	18.92
225.13	33.69
225.347	46.71
225.564	44.41
225.781	48.95
225.997	52.03
226.214	37.57
226.431	28.94
226.648	32.27
226.865	30.84
227.082	21.64
227.298	19.6
227.515	19.8
227.732	12.67
227.949	10.73
228.165	9.02
228.382	2.14
228.599	3.62
228.816	6.3
229.032	2.97
229.249	3.38
229.466	12.14
229.682	11.07
229.899	6.1
230.116	3.07
230.332	2.16
230.549	6.58
230.765	6.2
230.982	15.64
231.199	21.38
231.415	22.94
231.632	22.13
231.848	14.62
232.065	27.05
232.281	25.13
232.498	29.52
232.714	30.84
232.931	26.68
233.147	30.28
233.364	21.64
233.58	18.06
233.797	26.82
234.013	25.17
234.23	25.52
234.446	15.95
234.662	18.37
234.879	14.14
235.095	8.77
235.312	7.69
235.528	4.9
235.744	2.2
235.961	0.48
236.177	-14.99
236.393	-12.55
236.61	-19.04
236.826	-18.31
237.042	-14.26
237.258	-9.14
237.475	7.7
237.691	14.67
237.907	9.28
238.123	14.77
238.339	9.9
238.556	17.93
238.772	17.16
238.988	23.98
239.204	28.95
239.42	22.88
239.636	21.59
239.853	15.32
240.069	10.07
240.285	16.55
240.501	15.9
240.717	15.78
240.933	15.61
241.149	16.32
241.365	11.11
241.581	10.08
241.797	8.17
242.013	10.08
242.229	10.07
242.445	9.95
242.661	5.03
242.877	1.02
243.093	4.89
243.309	-1.21
243.525	-3
243.741	2.46
243.957	-0.55
244.173	6.38
244.388	2.66
244.604	2.69
244.82	2.79
245.036	5.44
245.252	8.23
245.468	7.98
245.683	7.39
245.899	8.19
246.115	4.99
246.331	6.19
246.547	4.2
246.762	3.89
246.978	2.83
247.194	5.2
247.409	4.72
247.625	4.38
247.841	4.96
248.057	8.68
248.272	5.14
248.488	10.11
248.703	8.04
248.919	10.9
249.135	14.94
249.35	16.8
249.566	12.41
249.782	16.66
249.997	18.24
250.213	15.09
250.428	12.22
250.644	15.93
250.859	14.84
251.075	16.07
251.29	16.33
251.506	16.36
251.721	17.33
251.937	21.63
252.152	15.57
252.368	11.44
252.583	14.53
252.798	17.24
253.014	20
253.229	25.42
253.445	30.78
253.66	29.38
253.875	25.25
254.091	24.23
254.306	23.23
254.521	26.84
254.737	29.04
254.952	26.3
255.167	23.45
255.383	20.87
255.598	13.3
255.813	11.36
256.028	11.09
256.244	15.34
256.459	13.96
256.674	9.97
256.889	7.15
257.104	5.91
257.32	8.35
257.535	6.64
257.75	7.17
257.965	7.13
258.18	5.73
258.395	5.21
258.61	3.83
258.826	4.46
259.041	4.97
259.256	6.23
259.471	7.05
259.686	5.97
259.901	6.69
260.116	6.03
260.331	4.64
260.546	5.77
260.761	5.81
260.976	6.5
261.191	4.99
261.406	5.44
261.621	2.23
261.836	-0.66
262.05	-2.8
262.265	-5.06
262.48	-3.45
262.695	-2.81
262.91	-3.81
263.125	-2.78
263.34	-3.81
263.555	-1.57
263.769	-4.22
263.984	-1.42
264.199	2.62
264.414	6.43
264.629	6.35
264.843	6.65
265.058	7.01
265.273	3.3
265.488	1.75
265.702	0.36
265.917	3.63
266.132	4.08
266.346	5.58
266.561	5.95
266.776	5.45
266.99	5.92
267.205	3.27
267.42	6.29
267.634	8.98
267.849	10.58
268.063	12.81
268.278	9
268.492	11.1
268.707	8.24
268.922	5.92
269.136	5.22
269.351	6.28
269.565	6.83
269.78	5.47
269.994	3.21
270.209	3.42
270.423	3.56
270.637	4.23
270.852	2.53
271.066	4.43
271.281	5.33
271.495	6.83
271.709	5.1
271.924	6.33
272.138	6.73
272.353	9.03
272.567	10.14
272.781	9.81
272.996	11.94
273.21	13.34
273.424	13.2
273.638	11.26
273.853	10.95
274.067	12.6
274.281	14.85
274.495	14.13
274.71	13.97
274.924	13.74
275.138	12.55
275.352	11.09
275.566	10.88
275.781	10.52
275.995	11.79
276.209	11.58
276.423	14.18
276.637	12.1
276.851	10.58
277.065	8.63
277.279	7.18
277.493	8.43
277.707	9.47
277.921	8.22
278.135	6.17
278.349	7.94
278.563	7.26
278.777	5.06
278.991	3.75
279.205	7.13
279.419	8.43
279.633	9.05
279.847	9.15
280.061	8.92
280.275	9.22
280.489	9.25
280.703	7.78
280.917	7.5
281.131	6.94
281.344	6.7
281.558	3.64
281.772	3.75
281.986	1.82
282.2	-0.33
282.414	-1.37
282.627	-0.01
282.841	1.01
283.055	1.16
283.269	2.4
283.482	1.96
283.696	2.49
283.91	3.52
284.123	2.67
284.337	4.76
284.551	6.78
284.764	6.31
284.978	4.28
285.192	4.92
285.405	3.83
285.619	2.27
285.833	3.99
286.046	3.6
286.26	3.77
286.473	4.5
286.687	3.42
286.9	3.41
287.114	2.87
287.327	4.83
287.541	3.79
287.754	4.45
287.968	5.97
288.181	3.85
288.395	5.89
288.608	7.34
288.822	8.24
289.035	8.21
289.248	7.22
289.462	7.44
289.675	4.65
289.889	5.51
290.102	5.71
290.315	5.04
290.529	6.26
290.742	4.92
290.955	2.53
291.169	1.17
291.382	1.98
291.595	2.19
291.808	2.18
292.022	4.76
292.235	4.6
292.448	5.43
292.661	6.66
292.875	7.61
293.088	7.93
293.301	9.48
293.514	8.31
293.727	8.35
293.94	8.18
294.153	8.63
294.367	8.36
294.58	6.05
294.793	5.58
295.006	3.83
295.219	1.52
295.432	1.85
295.645	2.65
295.858	3.89
296.071	3.56
296.284	4.74
296.497	5.04
296.71	5.13
296.923	6.03
297.136	5.78
297.349	7.85
297.562	8.16
297.775	7.22
297.988	5.91
298.201	5.97
298.414	4.48
298.626	4.27
298.839	2.93
299.052	1.49
299.265	2.73
299.478	3.2
299.691	0.38
299.903	1.46
300.116	1.2
300.329	2.32
300.542	2.68
300.755	3.12
300.967	2.03
301.18	3.96
301.393	6.58
301.605	5.77
301.818	5.55
302.031	5.68
302.243	6.09
302.456	8.53
302.669	9.19
302.881	9.17
303.094	10.69
303.307	10.37
303.519	9.09
303.732	7.52
303.944	8
304.157	8.32
304.37	8.94
304.582	7.99
304.795	7.92
305.007	7.33
305.22	7.5
305.432	6.6
305.645	6.52
305.857	7.43
306.069	6.79
306.282	7.68
306.494	6.72
306.707	5.93
306.919	5.52
307.132	3.82
307.344	4.46
307.556	4.31
307.769	2.95
307.981	3.98
308.193	4.74
308.406	5.39
308.618	4.64
308.83	6.24
309.043	7.15
309.255	8.89
309.467	8.07
309.679	7.73
309.892	8.1
310.104	8.88
310.316	7.76
310.528	7.13
310.74	6.48
310.953	6.55
311.165	5.63
311.377	5.01
311.589	3.82
311.801	6.03
312.013	5.22
312.225	3.92
312.437	5.03
312.649	5.95
312.862	5.51
313.074	5.64
313.286	4.8
313.498	6.22
313.71	4.81
313.922	4.71
314.134	3.15
314.346	4.71
314.558	6.24
314.77	5.27
314.982	5.28
315.193	5.17
315.405	5.72
315.617	7.22
315.829	6.28
316.041	6.58
316.253	7.25
316.465	6.95
316.677	5.34
316.888	4.42
317.1	3.68
317.312	2.84
317.524	2.81
317.736	4.74
317.947	5.09
318.159	5.33
318.371	5.32
318.583	5.48
318.794	7.3
319.006	7.07
319.218	7.57
319.43	8.04
319.641	8.81
319.853	10.02
320.064	10.27
320.276	9.19
320.488	10.69
320.699	12.1
320.911	11.16
321.123	9.32
321.334	10.21
321.546	8.14
321.757	8.45
321.969	7.84
322.18	5.8
322.392	4.66
322.603	5.84
322.815	3.83
323.026	4.26
323.238	4.66
323.449	5.57
323.661	6.75
323.872	7.85
324.083	7.15
324.295	7.49
324.506	7.6
324.718	7.15
324.929	5.97
325.14	5.71
325.352	5.35
325.563	6.87
325.774	6.18
325.986	6.18
326.197	8.21
326.408	9
326.62	7.97
326.831	8.69
327.042	9.21
327.253	10.39
327.464	10.55
327.676	11.46
327.887	10.07
328.098	9.03
328.309	8.33
328.52	7.43
328.732	7.85
328.943	10.26
329.154	10.51
329.365	11.11
329.576	10.44
329.787	11.27
329.998	11.34
330.209	12.21
330.42	12.98
330.631	13.54
330.842	14.94
331.053	15.36
331.264	14.24
331.475	14.57
331.686	12.16
331.897	13.29
332.108	12.46
332.319	11.73
332.53	10.07
332.741	11.8
332.952	10.46
333.163	9.91
333.374	8.71
333.585	10.84
333.795	9.9
334.006	11.39
334.217	10.96
334.428	11.45
334.639	12.43
334.849	13.27
335.06	11.37
335.271	11.71
335.482	11.49
335.692	12.73
335.903	9.58
336.114	11.58
336.325	11.34
336.535	11.08
336.746	11.98
336.957	10.48
337.167	9.6
337.378	10.16
337.589	10.83
337.799	8.95
338.01	8.71
338.22	9.7
338.431	7.85
338.642	7.58
338.852	6.33
339.063	3.65
339.273	4.89
339.484	6.16
339.694	7.18
339.905	6.87
340.115	8.8
340.326	8.27
340.536	8.23
340.746	8.49
340.957	9.19
341.167	9.52
341.378	10.1
341.588	9.26
341.799	9.67
342.009	9.08
342.219	9.09
342.43	8.85
342.64	10
342.85	9.3
343.061	10.24
343.271	11.13
343.481	11.61
343.691	13.09
343.902	12.95
344.112	11.75
344.322	11.2
344.532	11.8
344.743	12.13
344.953	10.47
345.163	11.22
345.373	9.82
345.583	9.28
345.793	10.76
346.004	10.41
346.214	11.05
346.424	12.56
346.634	12.67
346.844	11.04
347.054	10.98
347.264	11.79
347.474	11.55
347.684	12.32
347.894	11.81
348.104	10.21
348.314	9.44
348.524	9.62
348.734	9.22
348.944	9.2
349.154	9.09
349.364	7.9
349.574	7.15
349.784	7.65
349.994	7.02
350.204	7.25
350.413	7.21
350.623	7.75
350.833	8.33
351.043	7.7
351.253	7.26
351.463	8.3
351.672	8.56
351.882	10.3
352.092	9.68
352.302	11.16
352.511	10.08
352.721	10.53
352.931	9.52
353.141	8.43
353.35	8.42
353.56	10.19
353.77	9.84
353.979	10.76
354.189	10.86
354.399	11.22
354.608	11.07
354.818	12.05
355.027	11.8
355.237	12.43
355.447	12.08
355.656	11.78
355.866	11.64
356.075	12.58
356.285	12.24
356.494	11.44
356.704	11.6
356.913	11.21
357.123	11.22
357.332	10.58
357.542	10.02
357.751	10.85
357.96	11.42
358.17	10.24
358.379	10.02
358.589	8.8
358.798	8.51
359.007	8.48
359.217	7.98
359.426	7.71
359.635	8.12
359.845	8.37
360.054	8.1
360.263	8.23
360.472	8.52
360.682	7.54
360.891	8.31
361.1	8.09
361.309	7.22
361.519	7.62
361.728	7.98
361.937	7.37
362.146	7.28
362.355	7.35
362.564	7.1
362.774	6.6
362.983	6.15
363.192	6.53
363.401	6.84
363.61	7.62
363.819	7.59
364.028	7.4
364.237	8.02
364.446	8.32
364.655	8.1
364.864	8.07
365.073	9.64
365.282	11.01
365.491	10.16
365.7	10.28
365.909	10.04
366.118	9.55
366.327	9.37
366.536	9.15
366.745	8.74
366.954	8.96
367.162	8.41
367.371	7.3
367.58	7.8
367.789	7.48
367.998	8.14
368.207	7.8
368.415	7.98
368.624	7.76
368.833	8.82
369.042	9.12
369.25	8.8
369.459	9.07
369.668	8.74
369.877	6.91
370.085	7.74
370.294	6.74
370.503	6.48
370.711	5.68
370.92	5.23
371.129	4.36
371.337	4.04
371.546	4.05
371.754	3.97
371.963	4.12
372.171	4.81
372.38	4.83
372.589	5.57
372.797	6.16
373.006	6.68
373.214	7.8
373.423	7.71
373.631	7.77
373.84	7.65
374.048	7.79
374.256	8.05
374.465	8.61
374.673	9.19
374.882	7.58
375.09	7.51
375.298	8.01
375.507	6.88
375.715	7.33
375.923	7.51
376.132	7.65
376.34	7.9
376.548	7.91
376.757	8.78
376.965	8.54
377.173	9.55
377.381	9.02
377.59	8.77
377.798	9.33
378.006	8.77
378.214	8.74
378.423	9.07
378.631	8.68
378.839	8.12
379.047	6.71
379.255	5.72
379.463	5
379.671	5.83
379.879	6.16
380.088	6.89
380.296	6.72
380.504	7.23
380.712	7.52
380.92	8.12
381.128	8.13
381.336	8.35
381.544	9.6
381.752	10.8
381.96	10.53
382.168	10
382.376	9.38
382.584	9.85
382.791	9.22
382.999	8.31
383.207	8.33
383.415	8.93
383.623	8.73
383.831	8.38
384.039	7.66
384.247	7.1
384.454	6.8
384.662	6.97
384.87	7.15
385.078	7.15
385.285	7.41
385.493	7.01
385.701	6.46
385.909	7.03
386.116	6.52
386.324	6.93
386.532	7.26
386.739	7.74
386.947	7.15
387.155	7.15
387.362	7.1
387.57	7.59
387.778	7.32
387.985	7.47
388.193	7.47
388.4	8.17
388.608	7.29
388.816	7.14
389.023	6.11
389.231	6.17
389.438	6.08
389.646	5.63
389.853	5.33
390.061	4.39
390.268	4.95
390.475	3.98
390.683	3.59
390.89	3.84
391.098	4.68
391.305	6.04
391.512	6.96
391.72	7.25
391.927	7.97
392.135	7.7
392.342	8.87
392.549	8.49
392.756	8.94
392.964	9.12
393.171	9.14
393.378	9.27
393.586	8.8
393.793	8.37
394	7.51
394.207	6.97
394.414	7.66
394.622	7.71
394.829	7.65
395.036	8.08
395.243	8.13
395.45	8.41
395.657	8.07
395.864	8.46
396.072	7.71
396.279	7.59
396.486	8.09
396.693	7.2
396.9	6.77
397.107	6.52
397.314	6.04
397.521	5.6
397.728	5.21
397.935	4.93
398.142	4.65
398.349	5.77
398.556	6.28
398.763	6.24
398.97	6.76
399.177	6.66
399.383	7.71
399.59	7.97
399.797	8.7
400.004	9.24
400.211	9.56
400.418	9.79
400.625	9.42
400.831	9.41
401.038	9.54
401.245	8.88
401.452	9.23
401.658	8.99
401.865	8.71
402.072	7.92
402.279	7.86
402.485	7.08
402.692	6.42
402.899	6.61
403.105	6.59
403.312	6.48
403.519	7.06
403.725	6.7
403.932	6.36
404.138	6.82
404.345	6.98
404.552	6.99
404.758	7.02
404.965	7.41
405.171	7.12
405.378	7.2
405.584	6.87
405.791	6.77
405.997	6.77
406.204	6.54
406.41	5.53
406.617	5.31
406.823	5.41
407.029	6.05
407.236	5.84
407.442	6.19
407.649	5.82
407.855	6.9
408.061	6.76
408.268	6.94
408.474	6.77
408.68	6.8
408.887	6.5
409.093	6.96
409.299	6.76
409.505	6.7
409.712	6.65
409.918	7.02
410.124	6.35
410.33	6.31
410.537	6.7
410.743	6.52
410.949	7.2
411.155	7.82
411.361	7.14
411.567	6.66
411.773	6.89
411.98	6.17
412.186	6.68
412.392	6.77
412.598	7.33
412.804	7.33
413.01	7.83
413.216	7.37
413.422	6.63
413.628	7.12
413.834	7.51
414.04	7.12
414.246	7.69
414.452	7.15
414.658	6.76
414.864	6.46
415.07	6.17
415.275	5.71
415.481	5.64
415.687	6.3
415.893	5.95
416.099	5.97
416.305	5.77
416.511	5.11
416.716	5.62
416.922	6.03
417.128	5.85
417.334	5.96
417.539	6.2
417.745	6.55
417.951	6.22
418.157	5.86
418.362	6
418.568	5.9
418.774	6.16
418.979	5.78
419.185	5.36
419.391	5.4
419.596	5.37
419.802	5.58
420.008	5.19
420.213	5.51
420.419	5.85
420.624	5.49
420.83	5.96
421.035	6.02
421.241	5.92
421.446	6.38
421.652	6.39
421.857	6.16
422.063	6.02
422.268	6.33
422.474	6.28
422.679	6.09
422.885	6.27
423.09	5.97
423.295	6.24
423.501	6.14
423.706	5.81
423.911	5.58
424.117	5.32
424.322	4.96
424.527	4.74
424.733	4.57
424.938	4.74
425.143	4.65
425.349	4.81
425.554	4.51
425.759	5
425.964	4.87
426.169	5.31
426.375	5.59
426.58	6.03
426.785	6.12
426.99	6.34
427.195	6.73
427.4	6.82
427.605	6.75
427.811	6.36
428.016	6.01
428.221	6.38
428.426	6.02
428.631	6.12
428.836	5.86
429.041	5.95
429.246	5.37
429.451	4.72
429.656	5.09
429.861	4.81
430.066	4.98
430.271	5.3
430.476	5.16
430.681	5.22
430.886	5.87
431.09	6.26
431.295	5.87
431.5	6.29
431.705	6.19
431.91	6.09
432.115	6.7
432.32	6.66
432.524	6.39
432.729	6.24
432.934	6.57
433.139	5.98
433.343	5.84
433.548	5.99
433.753	5.85
433.958	6.06
434.162	6.03
434.367	6.13
434.572	6.35
434.776	6.14
434.981	6.31
435.186	6.43
435.39	6.52
435.595	6.61
435.799	6.94
436.004	6.97
436.209	6.74
436.413	6.72
436.618	6.46
436.822	6.28
437.027	6.48
437.231	6.29
437.436	5.73
437.64	5.81
437.845	5.76
438.049	5.78
438.253	5.78
438.458	5.77
438.662	5.8
438.867	5.52
439.071	5.68
439.275	5.74
439.48	6.15
439.684	6.24
439.888	6.43
440.093	6.46
440.297	6.42
440.501	6.43
440.706	6.42
440.91	6.14
441.114	6.47
441.318	6.45
441.523	6.36
441.727	6.15
441.931	6.14
442.135	5.51
442.339	5.4
442.543	5.56
442.748	5.42
442.952	5.73
443.156	5.98
443.36	5.72
443.564	5.5
443.768	5.3
443.972	5.51
444.176	5.76
444.38	5.87
444.584	6
444.788	5.76
444.992	5.94
445.196	5.64
445.4	5.4
445.604	5.28
445.808	5.33
446.012	5.42
446.216	5.13
446.42	4.86
446.624	5.38
446.828	5.28
447.032	5.28
447.235	5.14
447.439	5.57
447.643	5.69
447.847	5.98
448.051	5.93
448.254	5.92
448.458	6.09
448.662	6.2
448.866	5.67
449.069	5.59
449.273	5.74
449.477	5.68
449.681	5.09
449.884	5.3
450.088	4.98
450.292	5.28
450.495	5.35
450.699	5.27
450.902	5.33
451.106	5.33
451.31	5.51
451.513	5.16
451.717	5.33
451.92	5.71
452.124	5.81
452.327	6
452.531	5.66
452.734	5.87
452.938	6
453.141	6.02
453.345	6.33
453.548	6.27
453.752	6.4
453.955	6.22
454.158	6.03
454.362	5.72
454.565	5.82
454.769	5.91
454.972	5.7
455.175	5.52
455.379	5.59
455.582	5.51
455.785	5.58
455.988	5.72
456.192	5.43
456.395	5.2
456.598	5.21
456.801	5.34
457.005	5.55
457.208	5.42
457.411	5.7
457.614	5.46
457.817	5.09
458.021	5.16
458.224	5.2
458.427	5.09
458.63	5.01
458.833	5.19
459.036	4.96
459.239	4.73
459.442	4.88
459.645	4.6
459.848	4.8
460.051	4.93
460.254	4.83
460.457	4.71
460.66	4.97
460.863	5.18
461.066	4.77
461.269	4.79
461.472	4.97
461.675	4.67
461.878	4.55
462.081	4.45
462.284	4.43
462.486	4.46
462.689	4.56
462.892	4.92
463.095	4.89
463.298	5.35
463.5	5.3
463.703	5.2
463.906	5.7
464.109	6.14
464.311	5.56
464.514	5.74
464.717	5.6
464.92	5.8
465.122	5.78
465.325	5.91
465.528	5.81
465.73	5.82
465.933	5.67
466.135	5.75
466.338	5.8
466.541	6.3
466.743	6.66
466.946	6.72
467.148	6.56
467.351	6.48
467.553	6.3
467.756	6.45
467.958	7.07
468.161	7
468.363	6.66
468.566	6.21
468.768	5.97
468.971	5.53
469.173	5.74
469.375	5.7
469.578	5.83
469.78	6.03
469.983	5.84
470.185	5.74
470.387	5.73
470.59	5.6
470.792	6.02
470.994	6.13
471.196	6.21
471.399	6.15
471.601	6.09
471.803	6.25
472.005	6.31
472.208	6.63
472.41	5.98
472.612	6.37
472.814	6.75
473.016	6.72
473.218	7.1
473.421	7.14
473.623	7.35
473.825	7.52
474.027	7.33
474.229	7.39
474.431	6.94
474.633	7
474.835	7.22
475.037	6.75
475.239	6.8
475.441	6.31
475.643	6.18
475.845	5.95
476.047	5.88
476.249	5.93
476.451	5.74
476.653	5.81
476.855	6.06
477.057	5.97
477.258	6.12
477.46	5.93
477.662	5.89
477.864	5.66
478.066	5.7
478.268	5.49
478.469	5.27
478.671	5.57
478.873	5.7
479.075	5.61
479.276	5.27
479.478	5.2
479.68	5.28
479.882	5.42
480.083	5.82
480.285	5.63
480.487	5.79
480.688	5.73
480.89	5.59
481.091	5.6
481.293	5.41
481.495	5.6
481.696	5.72
481.898	5.66
482.099	5.76
482.301	5.72
482.502	5.79
482.704	5.59
482.905	5.61
483.107	5.56
483.308	5.42
483.51	5.48
483.711	5.47
483.913	5.33
484.114	5.3
484.315	5.3
484.517	5.15
484.718	5.04
484.92	5.09
485.121	5
485.322	5.09
485.524	5.06
485.725	5.05
485.926	4.97
486.127	5.07
486.329	5.13
486.53	5.07
486.731	5.17
486.932	5.22
487.134	5.41
487.335	5.47
487.536	5.33
487.737	5.4
487.938	5.39
488.139	5.36
488.341	5.37
488.542	5.2
488.743	5.09
488.944	5.05
489.145	5.1
489.346	5.02
489.547	4.98
489.748	5.02
489.949	5.05
490.15	5.19
490.351	5.39
490.552	5.47
490.753	5.81
490.954	5.75
491.155	5.77
491.356	5.81
491.557	5.74
491.758	5.87
491.959	5.91
492.159	5.91
492.36	5.94
492.561	5.78
492.762	5.74
492.963	5.61
493.164	6.1
493.364	6.28
493.565	6.13
493.766	6.5
493.967	6.64
494.167	6.62
494.368	6.63
494.569	6.57
494.769	6.9
494.97	6.99
495.171	6.62
495.371	6.35
495.572	6.38
495.773	6.39
495.973	6.29
496.174	6.06
496.375	6.33
496.575	6.47
496.776	6.5
496.976	6.46
497.177	6.46
497.377	6.4
497.578	6.45
497.778	6.26
497.979	6.62
498.179	6.55
498.38	6.99
498.58	7.06
498.78	7.12
498.981	6.89
499.181	6.62
499.382	6.64
499.582	6.92
499.782	6.84
499.983	7.02
500.183	6.65
500.383	6.77
500.584	6.61
500.784	6.31
500.984	6.39
501.184	6.53
501.385	6.57
501.585	6.51
501.785	6.88
501.985	7.03
502.185	7.18
502.386	7.44
502.586	7.73
502.786	7.43
502.986	7.56
503.186	7.56
503.386	7.73
503.586	7.82
503.786	7.73
503.987	7.13
504.187	6.92
504.387	6.64
504.587	6.64
504.787	6.26
504.987	6.26
505.187	6.07
505.387	5.93
505.587	5.8
505.786	5.8
505.986	5.86
506.186	6.33
506.386	6.54
506.586	6.87
506.786	6.37
506.986	6.49
507.186	6.84
507.386	7.1
507.585	7.22
507.785	7.59
507.985	7.61
508.185	7.45
508.384	7.43
508.584	7.41
508.784	7.45
508.984	7.68
509.183	7.32
509.383	7.13
509.583	7.25
509.782	7.17
509.982	6.71
510.182	6.97
510.381	7.31
510.581	7.53
510.781	7.6
510.98	7.37
511.18	7.52
511.379	7.66
511.579	7.53
511.778	7.32
511.978	7.68
512.177	8.02
512.377	7.67
512.576	7.34
512.776	7.19
512.975	7.27
513.175	7.32
513.374	7.21
513.573	7.73
513.773	8.16
513.972	8.5
514.172	8.34
514.371	8.42
514.57	8.71
514.77	9.03
514.969	8.98
515.168	8.89
515.367	9.09
515.567	9.21
515.766	8.91
515.965	8.74
516.164	8.59
516.364	8.56
516.563	8.49
516.762	8.34
516.961	8.35
517.16	8.35
517.359	8.42
517.559	8.39
517.758	8.44
517.957	8.61
518.156	8.65
518.355	8.85
518.554	8.99
518.753	9.01
518.952	9.1
519.151	9.4
519.35	9.52
519.549	9.53
519.748	9.6
519.947	9.76
520.146	9.52
520.345	9.77
520.544	9.43
520.743	9.27
520.942	9.76
521.141	10.01
521.339	9.69
521.538	9.59
521.737	9.89
521.936	9.67
522.135	9.66
522.333	10.07
522.532	9.69
522.731	10.17
522.93	10.28
523.129	9.84
523.327	9.81
523.526	10.02
523.725	10.5
523.923	10.51
524.122	10.55
524.321	10.41
524.519	10.1
524.718	10.1
524.917	9.78
525.115	9.69
525.314	9.73
525.512	9.72
525.711	9.61
525.909	9.22
526.108	9.2
526.306	9.35
526.505	9.45
526.703	9.56
526.902	9.68
527.1	9.76
527.299	9.81
527.497	9.83
527.696	9.84
527.894	9.9
528.092	9.97
528.291	9.91
528.489	9.71
528.688	9.79
528.886	9.83
529.084	9.87
529.283	9.91
529.481	9.9
529.679	9.92
529.877	9.85
530.076	10.01
530.274	10.11
530.472	10.1
530.67	10.52
530.869	10.34
531.067	10.3
531.265	10.32
531.463	10.23
531.661	10.35
531.859	10.3
532.057	10.51
532.255	10.39
532.454	10.25
532.652	10.34
532.85	10.21
533.048	10.19
533.246	10.42
533.444	10.5
533.642	10.66
533.84	10.66
534.038	10.75
534.236	10.64
534.434	10.73
534.632	11.02
534.83	11.05
535.027	11.22
535.225	11.57
535.423	11.33
535.621	11.32
535.819	11.43
536.017	11.22
536.215	11.2
536.412	11.15
536.61	11.18
536.808	11.21
537.006	11.2
537.203	11.28
537.401	11.18
537.599	11.5
537.797	11.33
537.994	11.14
538.192	11.38
538.39	11.62
538.587	11.88
538.785	11.71
538.983	11.66
539.18	11.72
539.378	11.58
539.575	11.63
539.773	11.53
539.97	11.84
540.168	11.96
540.366	12.06
540.563	12.01
540.761	12.01
540.958	12.07
541.155	12.18
541.353	12.26
541.55	12.33
541.748	12.4
541.945	12.28
542.143	12.37
542.34	12.43
542.537	12.21
542.735	12.11
542.932	12.38
543.129	12.58
543.327	12.64
543.524	12.52
543.721	12.63
543.919	12.67
544.116	12.88
544.313	12.77
544.51	12.72
544.708	13.04
544.905	13.48
545.102	13.15
545.299	13.08
545.496	12.94
545.693	13.22
545.891	13.24
546.088	13.32
546.285	13.44
546.482	13.49
546.679	13.78
546.876	13.87
547.073	13.45
547.27	13.65
547.467	13.9
547.664	13.91
547.861	13.93
548.058	13.88
548.255	14.03
548.452	14.24
548.649	13.99
548.846	14.08
549.043	13.75
549.24	13.74
549.437	13.87
549.633	13.71
549.83	14.06
550.027	14.43
550.224	14.76
550.421	15.02
550.618	14.82
550.814	14.95
551.011	14.87
551.208	15.42
551.405	15.87
551.601	16.11
551.798	16.08
551.995	15.77
552.191	15.64
552.388	15.69
552.585	15.39
552.781	15.68
552.978	15.71
553.175	15.6
553.371	15.85
553.568	15.91
553.764	15.78
553.961	16.16
554.157	16.38
554.354	16.43
554.55	16.17
554.747	16.62
554.943	16.47
555.14	16.76
555.336	17.03
555.533	16.59
555.729	16.57
555.926	16.55
556.122	16.72
556.318	16.96
556.515	16.91
556.711	17.05
556.907	16.72
557.104	17.47
557.3	17.59
557.496	18.14
557.693	18.49
557.889	18.6
558.085	18.8
558.281	18.61
558.478	18.77
558.674	18.78
558.87	19.06
559.066	19.27
559.262	19.02
559.459	18.8
559.655	18.46
559.851	18.32
560.047	18.75
560.243	18.67
560.439	18.78
560.635	18.8
560.831	18.7
561.027	18.77
561.223	18.89
561.419	18.45
561.615	18.6
561.811	18.18
562.007	18.48
562.203	18.41
562.399	18.12
562.595	18.11
562.791	18.45
562.987	18.4
563.183	18.46
563.379	18.46
563.575	18.83
563.771	19.19
563.966	19.2
564.162	19.06
564.358	19
564.554	19.29
564.75	19.43
564.945	19.26
565.141	19.84
565.337	20.08
565.533	20.16
565.728	20.3
565.924	20.2
566.12	21.02
566.315	21.42
566.511	21.5
566.707	21.48
566.902	21.65
567.098	21.67
567.293	21.51
567.489	21.61
567.684	21.88
567.88	21.98
568.076	22.06
568.271	21.7
568.467	21.76
568.662	22.12
568.858	22.3
569.053	22
569.248	21.97
569.444	22.31
569.639	22.14
569.835	22.09
570.03	22.34
570.225	22.26
570.421	22.23
570.616	22.04
570.812	21.64
571.007	21.76
571.202	21.9
571.397	21.99
571.593	21.93
571.788	21.81
571.983	21.84
572.178	21.57
572.374	21.62
572.569	21.89
572.764	22.09
572.959	22.39
573.154	22.4
573.35	22.57
573.545	22.6
573.74	22.48
573.935	22.76
574.13	22.86
574.325	22.67
574.52	22.97
574.715	23.06
574.91	23.04
575.105	23.11
575.3	23.24
575.495	23.19
575.69	23.42
575.885	23.41
576.08	23.08
576.275	22.94
576.47	23.42
576.665	23.35
576.86	23.12
577.055	23.6
577.25	23.97
577.444	23.96
577.639	24.18
577.834	24.11
578.029	24.71
578.224	24.9
578.418	24.73
578.613	24.87
578.808	24.84
579.003	24.82
579.197	24.29
579.392	24.15
579.587	24.01
579.781	23.73
579.976	23.75
580.171	23.27
580.365	23.66
580.56	23.87
580.755	23.83
580.949	24.07
581.144	24.37
581.338	24.38
581.533	24.22
581.727	24.36
581.922	24.66
582.116	24.82
582.311	24.6
582.505	25
582.7	24.93
582.894	25.04
583.089	25.05
583.283	24.98
583.478	25.1
583.672	25.17
583.866	25.86
584.061	25.84
584.255	26.09
584.449	26.53
584.644	26.39
584.838	26.53
585.032	25.97
585.226	26.14
585.421	26.39
585.615	26.19
585.809	25.93
586.003	26.05
586.198	25.94
586.392	25.91
586.586	26.23
586.78	25.96
586.974	26.33
587.168	26.55
587.363	26.09
587.557	25.94
587.751	26.49
587.945	26.65
588.139	26.31
588.333	26.44
588.527	26.31
588.721	26.21
588.915	26.23
589.109	26.13
589.303	26.46
589.497	26.43
589.691	26.26
589.885	25.93
590.079	26.01
590.273	25.83
590.466	25.85
590.66	25.5
590.854	25.55
591.048	25.62
591.242	25.34
591.436	24.88
591.629	25.66
591.823	25.67
592.017	25.67
592.211	25.69
592.404	25.78
592.598	26.43
592.792	26.81
592.986	26.66
593.179	26.55
593.373	26.56
593.567	26.67
593.76	26.23
593.954	26.64
594.147	27.01
594.341	27.21
594.535	27.15
594.728	26.87
594.922	26.85
595.115	26.76
595.309	26.89
595.502	27.12
595.696	27.26
595.889	27.42
596.083	27.36
596.276	27.23
596.47	27.22
596.663	27.44
596.856	27.2
597.05	27.33
597.243	28.02
597.437	28.32
597.63	28.84
597.823	29.37
598.017	29.62
598.21	29.44
598.403	29.51
598.596	29.85
598.79	29.78
598.983	30.23
599.176	30.22
599.369	29.5
599.563	29.39
599.756	28.74
599.949	28.55
600.142	28.19
600.335	28.87
600.528	28.87
600.722	28.62
600.915	28.68
601.108	28.88
601.301	28.6
601.494	28.89
601.687	28.53
601.88	28.03
602.073	27.59
602.266	27.7
602.459	27.03
602.652	26.91
602.845	27.19
603.038	27.5
603.231	26.9
603.424	27.09
603.617	26.99
603.809	27.46
604.002	27.81
604.195	28.04
604.388	28.06
604.581	28.52
604.774	28.86
604.966	28.64
605.159	27.97
605.352	28.53
605.545	28.84
605.737	29.14
605.93	28.91
606.123	28.82
606.316	29.18
606.508	29.34
606.701	29.46
606.894	28.68
607.086	29.21
607.279	29.51
607.471	29.46
607.664	29.34
607.857	28.84
608.049	29.14
608.242	29.47
608.434	29.6
608.627	29.53
608.819	29.86
609.012	30.28
609.204	29.97
609.397	29.88
609.589	29.8
609.782	30.04
609.974	30.62
610.166	30.53
610.359	30.66
610.551	30.34
610.743	30.08
610.936	29.46
611.128	29.59
611.32	29.07
611.513	29.48
611.705	30.03
611.897	30.01
612.09	30.46
612.282	30.41
612.474	29.86
612.666	29.81
612.858	30.43
613.051	30.27
613.243	30.47
613.435	30.92
613.627	30.69
613.819	30.35
614.011	30.07
614.203	29.52
614.395	29.46
614.588	30.12
614.78	30.15
614.972	29.9
615.164	30.41
615.356	30.12
615.548	30.92
615.74	31.78
615.932	31.7
616.124	32.03
616.315	31.84
616.507	32.04
616.699	31.96
616.891	32.18
617.083	31.88
617.275	31.66
617.467	32.36
617.659	32.26
617.85	31.74
618.042	31.26
618.234	31.18
618.426	31.5
618.618	31.17
618.809	31.4
619.001	30.88
619.193	31.72
619.384	31.61
619.576	31.84
619.768	31.57
619.959	31.38
620.151	31.82
620.343	32.17
620.534	31.71
620.726	31.81
620.917	32.01
621.109	32.78
621.301	32.28
621.492	32.76
621.684	32.12
621.875	32.23
622.067	32.51
622.258	31.95
622.45	31.83
622.641	31.68
622.832	32.31
623.024	31.42
623.215	31.09
623.407	31.5
623.598	30.93
623.789	31.38
623.981	31.26
624.172	31.64
624.363	32.78
624.555	32.79
624.746	32.98
624.937	32.82
625.129	32.65
625.32	32.74
625.511	32.7
625.702	33.2
625.893	32.81
626.085	32.95
626.276	32.82
626.467	32.4
626.658	32.62
626.849	32.77
627.04	32.28
627.231	33.31
627.422	33.65
627.614	33.88
627.805	34.04
627.996	34.19
628.187	34.03
628.378	33.76
628.569	33.75
628.76	32.89
628.951	32.97
629.142	33.39
629.332	32.98
629.523	32.72
629.714	31.97
629.905	31.49
630.096	31.68
630.287	32.27
630.478	32.54
630.669	32.85
630.859	33.38
631.05	32.76
631.241	32.7
631.432	32.73
631.623	32.95
631.813	33.89
632.004	34.68
632.195	34.74
632.385	33.95
632.576	33.89
632.767	33.28
632.957	33.45
633.148	33.6
633.339	33.4
633.529	33.41
633.72	33.44
633.91	33.32
634.101	32.37
634.292	32.52
634.482	32.57
634.673	32.57
634.863	33.03
635.054	32.89
635.244	33.03
635.435	33.07
635.625	33.18
635.815	32.97
636.006	32.74
636.196	33.05
636.387	32.59
636.577	33.03
636.767	32.85
636.958	32.96
637.148	33.19
637.338	33.35
637.529	33.11
637.719	32.95
637.909	33.19
638.099	33.19
638.29	33.74
638.48	34.43
638.67	34.47
638.86	35.14
639.05	35.5
639.241	35.83
639.431	36.81
639.621	37.83
639.811	38.46
640.001	39.13
640.191	38.77
640.381	38.89
640.571	38.79
640.761	38.43
640.951	38.14
641.141	37.75
641.331	37.58
641.521	36.69
641.711	36.32
641.901	36.21
642.091	34.36
642.281	35.26
642.471	34.93
642.661	34.55
642.851	34.28
643.041	34.1
643.231	33.94
643.42	33.74
643.61	34.82
643.8	34.77
643.99	34.94
644.18	35.76
644.369	34.78
644.559	35.35
644.749	35.89
644.939	36.61
645.128	37.13
645.318	37.3
645.508	37.81
645.697	37.02
645.887	36.97
646.076	36.5
646.266	36.2
646.456	36.8
646.645	36.79
646.835	36.57
647.024	35.37
647.214	35.35
647.403	34.94
647.593	34.29
647.782	34.42
647.972	34.99
648.161	35.66
648.351	36.32
648.54	36.06
648.73	35.7
648.919	35.47
649.108	36.1
649.298	35.98
649.487	36.57
649.677	36.23
649.866	36.35
650.055	36.11
650.244	35.12
650.434	34.84
650.623	34.89
650.812	34.72
651.002	34.94
651.191	35.53
651.38	35.42
651.569	35.48
651.758	35.8
651.947	35.39
652.137	35.27
652.326	36.12
652.515	36.59
652.704	36.99
652.893	37.38
653.082	36.88
653.271	36.31
653.46	36.2
653.649	36.15
653.838	37.24
654.027	37.27
654.216	37.56
654.405	37.38
654.594	37.39
654.783	36.66
654.972	36.21
655.161	36.6
655.35	37.03
655.539	36.94
655.728	36.69
655.916	36.1
656.105	36.38
656.294	36.62
656.483	36.7
656.672	36.07
656.86	37.27
657.049	37.09
657.238	36.95
657.427	36.71
657.615	36.35
657.804	36.14
657.993	35.57
658.181	35.4
658.37	34.71
658.559	34.5
658.747	34.99
658.936	34.45
659.125	34.61
659.313	35.06
659.502	35.17
659.69	35.41
659.879	35.32
660.067	36.01
660.256	36
660.444	36.82
660.633	36.55
660.821	36.81
661.01	36.8
661.198	37.45
661.387	37.34
661.575	37.95
661.763	38.4
661.952	38.68
662.14	39.01
662.328	39.14
662.517	38.99
662.705	39.36
662.893	39.44
663.082	39.4
663.27	38.71
663.458	38.75
663.646	38.89
663.834	38.74
664.023	40.21
664.211	39.73
664.399	40.62
664.587	40.49
664.775	40.2
664.963	39.85
665.152	40.15
665.34	41.38
665.528	41.02
665.716	41.25
665.904	40.94
666.092	39.72
666.28	39.98
666.468	39.17
666.656	39.43
666.844	39.34
667.032	39.68
667.22	39.71
667.408	39.18
667.596	39.48
667.784	38.61
667.971	39.12
668.159	39.63
668.347	38.59
668.535	38.26
668.723	38.22
668.911	39.38
669.098	38.91
669.286	38.47
669.474	37.6
669.662	37.94
669.849	38.27
670.037	38.08
670.225	37.85
670.413	38.94
670.6	39.65
670.788	39.33
670.976	39.24
671.163	39.5
671.351	38.99
671.538	39.82
671.726	39.57
671.913	39.85
672.101	39.83
672.289	40.22
672.476	40.56
672.664	40.53
672.851	41
673.039	40.11
673.226	40.12
673.413	41.88
673.601	41.52
673.788	41.53
673.976	40.61
674.163	41.62
674.35	42.21
674.538	40.99
674.725	41.54
674.912	40.59
675.1	40.58
675.287	40.84
675.474	40.15
675.662	40.14
675.849	39.51
676.036	40.34
676.223	39.44
676.411	38.69
676.598	38.83
676.785	39.04
676.972	40.42
677.159	40.16
677.346	39.78
677.533	39.44
677.721	39.69
677.908	41.12
678.095	40.5
678.282	40.73
678.469	41.1
678.656	41.78
678.843	39.89
679.03	39.02
679.217	40.31
679.404	40.11
679.591	39.99
679.778	39.38
679.964	38.43
680.151	38.66
680.338	37.86
680.525	38.03
680.712	38.12
680.899	39.61
681.086	39.52
681.272	39.27
681.459	39.74
681.646	39.63
681.833	40.34
682.02	40.93
682.206	40.45
682.393	42.32
682.58	42.63
682.766	42.24
682.953	41.82
683.14	42.48
683.326	42.26
683.513	42.21
683.7	42.53
683.886	42.2
684.073	41.73
684.259	43.16
684.446	42.36
684.632	42.2
684.819	42.34
685.005	42.96
685.192	42.59
685.378	42.43
685.565	43.07
685.751	42.78
685.938	42.06
686.124	41.55
686.31	41.77
686.497	41.88
686.683	41.38
686.87	41.24
687.056	41.31
687.242	41.47
687.429	42.66
687.615	41.76
687.801	42.42
687.987	43.91
688.174	44.69
688.36	43.91
688.546	43.29
688.732	43.22
688.918	43.33
689.105	43.93
689.291	44.6
689.477	43.24
689.663	43.89
689.849	43.67
690.035	43.25
690.221	43.95
690.407	43.43
690.593	44.48
690.779	44.76
690.965	45.58
691.151	45.28
691.337	45.61
691.523	46.07
691.709	46.29
691.895	47.09
692.081	47.15
692.267	47.08
692.453	47.64
692.639	47.64
692.825	47.9
693.011	46.1
693.196	44.78
693.382	44.13
693.568	44.74
693.754	44.81
693.94	44.13
694.125	43.92
694.311	43.41
694.497	43.43
694.682	43.02
694.868	43.8
695.054	44.38
695.239	45.83
695.425	45.06
695.611	44.41
695.796	44.15
695.982	43.66
696.168	43.36
696.353	43.28
696.539	42.95
696.724	42.61
696.91	41.98
697.095	41.86
697.281	41.35
697.466	41.03
697.652	40.09
697.837	39.52
698.023	39.87
698.208	40.39
698.393	40.1
698.579	40.57
698.764	40.52
698.949	40.05
699.135	40.73
699.32	40.38
699.505	41.01
699.691	41.98
699.876	41.91
700.061	42.14
700.246	42.19
700.432	42.8
700.617	42.96
700.802	43.42
700.987	45.09
701.172	44.42
701.358	43.72
701.543	44.37
701.728	45.45
701.913	45.74
702.098	46.15
702.283	46.55
702.468	46.33
702.653	46.53
702.838	46.26
703.023	46.57
703.208	47.68
703.393	49.44
703.578	49.52
703.763	49.11
703.948	50.26
704.133	50.21
704.318	50.94
704.503	51.16
704.688	50.77
704.873	50.15
705.057	47.44
705.242	47.34
705.427	46.47
705.612	45.71
705.797	46.02
705.981	45.15
706.166	45.76
706.351	44.67
706.536	43.49
706.72	42.71
706.905	43.99
707.09	45.47
707.274	45.67
707.459	44.89
707.644	45.62
707.828	45.13
708.013	45.36
708.197	44.06
708.382	43.6
708.567	44.24
708.751	45.15
708.936	43.89
709.12	43.32
709.305	42.72
709.489	44.58
709.673	44.21
709.858	43.37
710.042	44.36
710.227	44.16
710.411	44.67
710.596	45.18
710.78	44.12
710.964	45.13
711.149	45.28
711.333	45.31
711.517	45.03
711.702	45.18
711.886	45.41
712.07	43.66
712.254	44.2
712.438	43.77
712.623	43.99
712.807	44.87
712.991	43.38
713.175	44.33
713.359	44.06
713.544	42.93
713.728	42.52
713.912	43.02
714.096	43.61
714.28	43.91
714.464	43.79
714.648	44.5
714.832	44.3
715.016	46.07
715.2	45.09
715.384	45.14
715.568	45.75
715.752	45.8
715.936	46.08
716.12	45.35
716.304	44.96
716.488	46
716.671	44.89
716.855	45.9
717.039	45.22
717.223	44.66
717.407	44.93
717.59	46.26
717.774	46.25
717.958	45.62
718.142	46.39
718.325	46.8
718.509	47.25
718.693	46.86
718.877	45.19
719.06	45.74
719.244	47.01
719.428	48.46
719.611	45.98
719.795	47.08
719.978	47.77
720.162	49.81
720.345	49.29
720.529	48.13
720.713	49.25
720.896	50.14
721.08	49.85
721.263	50.19
721.446	50.74
721.63	53.61
721.813	53.09
721.997	54.98
722.18	54.85
722.364	55.26
722.547	55.54
722.73	55.12
722.914	56.21
723.097	56.3
723.28	56.9
723.464	54.13
723.647	53.64
723.83	53.74
724.013	50.52
724.197	49.6
724.38	50.82
724.563	50.18
724.746	50.86
724.929	48.54
725.112	49.08
725.296	48.25
725.479	50.65
725.662	49.48
725.845	49.7
726.028	52.59
726.211	53.3
726.394	52.92
726.577	52.89
726.76	53.39
726.943	53.49
727.126	52.12
727.309	50.96
727.492	48.85
727.675	50.8
727.858	51.85
728.041	49.84
728.224	49.55
728.407	48.81
728.589	49.05
728.772	47.74
728.955	48.1
729.138	49.15
729.321	49.66
729.503	50.7
729.686	49.05
729.869	47.45
730.052	49.4
730.234	49.65
730.417	50.01
730.6	49.17
730.782	49.08
730.965	48.79
731.148	50.59
731.33	50.97
731.513	51.2
731.695	53.46
731.878	53.5
732.061	51.45
732.243	51.27
732.426	50.62
732.608	51.65
732.791	52.02
732.973	52.83
733.156	50.4
733.338	50.34
733.52	49.61
733.703	46.96
733.885	48.41
734.068	49.06
734.25	49.08
734.432	48.69
734.615	47.88
734.797	48.29
734.979	47.7
735.162	49.08
735.344	48.43
735.526	49.95
735.708	52.68
735.891	51.77
736.073	52.3
736.255	52.29
736.437	53.63
736.619	54.97
736.802	54.89
736.984	54.88
737.166	53.89
737.348	53.86
737.53	54.11
737.712	51.94
737.894	51.61
738.076	52.25
738.258	51.45
738.44	51.99
738.622	50.71
738.804	51.74
738.986	52.17
739.168	53.89
739.35	55.74
739.532	54.14
739.714	56.27
739.896	56.61
740.078	56.88
740.259	57.51
740.441	56.1
740.623	58.3
740.805	56.72
740.987	57.79
741.168	54.84
741.35	54.06
741.532	56.08
741.714	53.79
741.895	53.9
742.077	53.43
742.259	52.57
742.44	53.19
742.622	50.78
742.804	50.47
742.985	47.85
743.167	48.48
743.348	47.02
743.53	46.16
743.711	48.52
743.893	49.04
744.075	48.3
744.256	49.94
744.438	50.57
744.619	54.14
744.8	55.66
744.982	58.93
745.163	61.1
745.345	62.42
745.526	62.65
745.707	61.04
745.889	59.77
746.07	60.5
746.252	60.84
746.433	60.12
746.614	59.58
746.795	58.36
746.977	55.65
747.158	55.75
747.339	54.34
747.52	52.83
747.702	52.65
747.883	53.95
748.064	54.55
748.245	53.84
748.426	55.04
748.607	53.05
748.788	51.01
748.97	53.56
749.151	52.17
749.332	53.25
749.513	55.83
749.694	57.57
749.875	56.88
750.056	54.8
750.237	55.94
750.418	54.65
750.599	52.29
750.78	55.59
750.96	54.12
751.141	54.71
751.322	56.17
751.503	55.18
751.684	54.24
751.865	53.09
752.046	54.89
752.226	54.18
752.407	56.14
752.588	58.31
752.769	55.96
752.949	54.61
753.13	55.35
753.311	53.28
753.492	51.65
753.672	53.03
753.853	53.79
754.034	53.13
754.214	51.8
754.395	50.41
754.575	51.19
754.756	52.16
754.937	56.31
755.117	55.07
755.298	56.4
755.478	57.74
755.659	57.19
755.839	58.26
756.02	58.26
756.2	60.92
756.381	59.85
756.561	61.1
756.741	62.32
756.922	58.96
757.102	61.07
757.283	62.66
757.463	61.53
757.643	58.74
757.823	59.02
758.004	58.27
758.184	57.83
758.364	58.91
758.545	57.18
758.725	55.77
758.905	56.92
759.085	54.72
759.265	53.17
759.446	53.96
759.626	55.07
759.806	52
759.986	51.45
760.166	49.11
760.346	48.16
760.526	48.69
760.706	51.31
760.886	52.11
761.066	54.62
761.246	53.12
761.426	52.9
761.606	51.95
761.786	51.92
761.966	51.81
762.146	51.24
762.326	51.49
762.506	51.57
762.686	50.93
762.866	50.88
763.046	49.81
763.225	50.63
763.405	52.03
763.585	52.34
763.765	53.05
763.945	54.06
764.124	55.96
764.304	56.26
764.484	55.69
764.664	55.99
764.843	54.53
765.023	53.07
765.203	54.4
765.382	52.76
765.562	51.58
765.741	53.22
765.921	54.04
766.101	53.73
766.28	53.75
766.46	53.96
766.639	55.08
766.819	55.33
766.998	56.59
767.178	53.71
767.357	54.34
767.537	57.27
767.716	58.19
767.896	56.89
768.075	57.4
768.254	58.66
768.434	56.42
768.613	55.5
768.792	57.75
768.972	56.7
769.151	58.52
769.33	58.98
769.51	57.57
769.689	58.43
769.868	58.99
770.047	55.87
770.226	54.98
770.406	56.97
770.585	54.76
770.764	55
770.943	57.28
771.122	58.9
771.301	59.32
771.48	61.26
771.66	60.41
771.839	62.24
772.018	64.62
772.197	65.69
772.376	66.06
772.555	67.88
772.734	65.98
772.913	65.24
773.092	63.87
773.271	63.29
773.449	61.74
773.628	61.29
773.807	59.44
773.986	60.4
774.165	61.43
774.344	63.73
774.523	66.99
774.701	69.62
774.88	69.24
775.059	69.06
775.238	69.75
775.417	72.18
775.595	69.18
775.774	69.49
775.953	71.07
776.131	67.2
776.31	65.49
776.489	65.1
776.667	66.49
776.846	68.14
777.025	66.8
777.203	67.49
777.382	67.56
777.56	68.72
777.739	66.82
777.917	66.39
778.096	68.53
778.274	70.62
778.453	68.26
778.631	66.33
778.81	64.84
778.988	66.31
779.166	64.22
779.345	63.33
779.523	64.13
779.702	66.64
779.88	66.47
780.058	68.01
780.237	67.4
780.415	67.28
780.593	68.83
780.771	71.6
780.95	72.17
781.128	74.29
781.306	72.83
781.484	72.98
781.662	71.75
781.841	71.36
782.019	71.56
782.197	70.43
782.375	67.78
782.553	69.79
782.731	70.56
782.909	72.21
783.087	70.4
783.265	69.66
783.443	68.04
783.621	67.22
783.799	69.57
783.977	65.83
784.155	67.44
784.333	68.7
784.511	62.93
784.689	60.34
784.867	57.72
785.045	58.38
785.223	60.85
785.4	64.56
785.578	67.65
785.756	64.01
785.934	67.08
786.112	67.12
786.289	69.17
786.467	69.83
786.645	70.73
786.823	72
787	71.52
787.178	72.02
787.356	70.36
787.533	68.51
787.711	69.53
787.889	68.73
788.066	66.36
788.244	65
788.421	66.09
788.599	67.59
788.776	67.41
788.954	67.34
789.131	67.5
789.309	65.68
789.486	66.18
789.664	64.88
789.841	67.73
790.019	69.43
790.196	67.09
790.373	63.96
790.551	59.09
790.728	58.89
790.906	57.96
791.083	58.15
791.26	61.19
791.437	62.96
791.615	64.02
791.792	60.75
791.969	62.62
792.146	64.61
792.324	68.94
792.501	70.17
792.678	70.72
792.855	73.72
793.032	70.41
793.209	70.08
793.387	69.32
793.564	71.55
793.741	72.24
793.918	71.56
794.095	74.76
794.272	73.02
794.449	72.57
794.626	73.19
794.803	69.96
794.98	69.8
795.157	69.16
795.334	68.19
795.511	67.52
795.688	66.67
795.864	65.48
796.041	63.04
796.218	63.09
796.395	62.29
796.572	59.74
796.749	61.17
796.925	63.21
797.102	59.27
797.279	59.14
797.456	58.34
797.632	59.67
797.809	61.72
797.986	64.75
798.162	62.32
798.339	63.79
798.516	63.46
798.692	60.46
798.869	58.49
799.046	60.86
799.222	59.51
799.399	60.05
799.575	60.09
799.752	57.66
799.928	56.71
800.105	58.96
800.281	56.44
800.458	60.88
800.634	63.16
800.811	65.14
800.987	66.82
801.163	67.84
801.34	68.57
801.516	68.67
801.692	70.06
801.869	67.82
802.045	65.31
802.221	70.3
802.398	68.01
802.574	68.93
802.75	74.64
802.926	74.02
803.103	77.97
803.279	73.9
803.455	73.08
803.631	69.93
803.807	70.64
803.983	69.8
804.16	67.13
804.336	64.44
804.512	62.76
804.688	56.38
804.864	55.28
805.04	52.73
805.216	52.97
805.392	54.24
805.568	56.69
805.744	57.44
805.92	65.36
806.096	64.73
806.272	69.26
806.448	66.8
806.623	65.49
806.799	62.83
806.975	63.29
807.151	62.5
807.327	62.84
807.503	61.65
807.678	60.88
807.854	60.66
808.03	61.79
808.206	62.51
808.381	66.06
808.557	65.03
808.733	67.74
808.908	64.81
809.084	66.07
809.26	66.16
809.435	71.2
809.611	66.72
809.787	66.7
809.962	65.07
810.138	65.32
810.313	66.69
810.489	68.38
810.664	66.8
810.84	67.31
811.015	74.9
811.191	70.65
811.366	69.87
811.542	76.92
811.717	75.17
811.892	76.75
812.068	75.96
812.243	72.06
812.419	71.89
812.594	77.34
812.769	78.44
812.944	69.71
813.12	74.64
813.295	70.8
813.47	68.17
813.645	65.05
813.821	62.75
813.996	62.38
814.171	64.28
814.346	64.27
814.521	57.93
814.697	57.36
814.872	61.9
815.047	57.21
815.222	59.21
815.397	57.13
815.572	58.71
815.747	60.79
815.922	60.51
816.097	62.08
816.272	62.96
816.447	64.68
816.622	65.56
816.797	64.92
816.972	66.94
817.147	64.2
817.322	65.86
817.496	66.33
817.671	68.83
817.846	68.76
818.021	65.9
818.196	63.74
818.371	61.57
818.545	59.71
818.72	59.11
818.895	57.42
819.069	57.45
819.244	52.94
819.419	51.37
819.594	49.35
819.768	46.45
819.943	43.83
820.117	42.88
820.292	40.81
820.467	40.3
820.641	37.9
820.816	36.43
820.99	35.07
821.165	35.3
821.339	34.49
821.514	34.04
821.688	33.54
821.863	34.05
822.037	33.76
822.212	34.35
822.386	33.39
822.56	33.97
822.735	34.32
822.909	35.37
823.084	35.46
823.258	35.97
823.432	36.14
823.606	36.18
823.781	36.13
823.955	36.11
824.129	36.03
824.303	36.3
824.478	36.12
824.652	36.14
824.826	34.35
825	33.25
825.174	33.01
825.348	32.5
825.523	32.14
825.697	31.91
825.871	32.2
826.045	33.55
826.219	34.26
826.393	34.01
826.567	34.37
826.741	36.57
826.915	38.35
827.089	38.57
827.263	37.88
827.437	40.16
827.611	40.19
827.784	41.04
827.958	39.54
828.132	39.82
828.306	40.08
828.48	40.8
828.654	41.63
828.827	42.21
829.001	43.48
829.175	44.96
829.349	45.11
829.522	46.7
829.696	47.74
829.87	49.91
830.044	51.54
830.217	52.5
830.391	54.48
830.565	52.82
830.738	54.52
830.912	55.96
831.085	60.2
831.259	55.3
831.432	53.9
831.606	52.27
831.779	51.41
831.953	49.68
832.126	51.47
832.3	47.47
832.473	44.41
832.647	43.2
832.82	42.42
832.994	41.13
833.167	44.12
833.34	45.56
833.514	45.56
833.687	44.16
833.86	44.94
834.034	44.1
834.207	46.93
834.38	50.61
834.553	51.92
834.727	51.9
834.9	50.53
835.073	49.93
835.246	49.8
835.419	49.83
835.593	51.63
835.766	52.83
835.939	51.1
836.112	48.93
836.285	46.33
836.458	46.54
836.631	45.07
836.804	46.64
836.977	49.37
837.15	51.81
837.323	54.92
837.496	58.1
837.669	54.13
837.842	59.79
838.015	63.29
838.188	64.72
838.361	61.89
838.533	58.21
838.706	57.1
838.879	55.32
839.052	55.8
839.225	55.2
839.398	51.2
839.57	53.36
839.743	51.22
839.916	49.15
840.088	49.32
840.261	48.25
840.434	51.05
840.607	48.9
840.779	50.07
840.952	44.47
841.124	47.86
841.297	49.69
841.47	54.4
841.642	56.16
841.815	57.11
841.987	58.04
842.16	64.59
842.332	72.05
842.505	72.26
842.677	73.95
842.85	78.88
843.022	74.08
843.194	74.59
843.367	73.01
843.539	79.19
843.712	83.18
843.884	83.46
844.056	84.04
844.229	79.42
844.401	86.05
844.573	83.44
844.745	80.42
844.918	72.86
845.09	72.25
845.262	65.19
845.434	55.56
845.606	51.54
845.779	51.03
845.951	55.12
846.123	55.67
846.295	57.47
846.467	70.01
846.639	67.84
846.811	68.86
846.983	80.75
847.155	89.39
847.327	84.86
847.499	87.51
847.671	87.82
847.843	81.22
848.015	74.47
848.187	74.59
848.359	67.59
848.531	70.76
848.703	72.9
848.875	67.11
849.047	58.36
849.218	61.15
849.39	61.21
849.562	71.15
849.734	74.18
849.905	88.83
850.077	96.97
850.249	101.54
850.421	105.03
850.592	108.85
850.764	104.61
850.936	102.37
851.107	112.59
851.279	104.31
851.451	93.12
851.622	91.92
851.794	92.05
851.965	90.77
852.137	86.42
852.308	92.97
852.48	93.96
852.651	94.45
852.823	101.72
852.994	97.33
853.166	106.02
853.337	109.08
853.509	104.73
853.68	102.04
853.851	95.41
854.023	87.56
854.194	75.23
854.365	67.2
854.537	62.94
854.708	70.7
854.879	73.97
855.05	74.87
855.222	85.35
855.393	82.47
855.564	79.4
855.735	82
855.906	91.8
856.078	106.08
856.249	120.1
856.42	136.14
856.591	131.76
856.762	118.24
856.933	119.42
857.104	100.61
857.275	105.9
857.446	102.38
857.617	90.16
857.788	95.55
857.959	83.7
858.13	83.34
858.301	70.77
858.472	60.14
858.643	72.03
858.814	59.98
858.985	66.15
859.155	70.55
859.326	79.27
859.497	82.02
859.668	73.27
859.839	82.27
860.009	77.61
860.18	84.7
860.351	97.74
860.522	86.57
860.692	91.38
860.863	97.34
861.034	92.73
861.204	88.71
861.375	93.04
861.546	88.28
861.716	85.41
861.887	91.94
862.057	91.66
862.228	101.39
862.398	93.54
862.569	91.81
862.739	91.74
862.91	92.04
863.08	89.06
863.251	86.71
863.421	81.78
863.592	77.1
863.762	73.25
863.932	63.86
864.103	59.45
864.273	57.52
864.443	58.37
864.614	54.9
864.784	64.33
864.954	63.88
865.125	64.94
865.295	63.41
865.465	72.94
865.635	78.61
865.805	88.08
865.976	86.89
866.146	93.3
866.316	96.31
866.486	96.62
866.656	92.81
866.826	98.15
866.996	96.84
867.166	106.62
867.336	105.04
867.506	96.08
867.676	96.69
867.846	97.67
868.016	99.63
868.186	98.25
868.356	97.86
868.526	108.4
868.696	99.51
868.866	97.18
869.036	109.95
869.206	105.68
869.376	92.8
869.545	88.3
869.715	86.89
869.885	79.31
870.055	70.77
870.224	77.47
870.394	57.27
870.564	60.5
870.734	60.28
870.903	52.48
871.073	69.52
871.243	87.58
871.412	85.54
871.582	84.51
871.751	85.05
871.921	93.7
872.091	86.86
872.26	86.6
872.43	90.59
872.599	104.64
872.769	110.66
872.938	103.46
873.108	106.81
873.277	109.97
873.446	123.95
873.616	140.99
873.785	149.51
873.955	140.42
874.124	157.73
874.293	126.99
874.463	98.57
874.632	93.91
874.801	83.55
874.971	76.16
875.14	69.65
875.309	62.11
875.478	57.9
875.647	58.93
875.817	59.74
875.986	54.22
876.155	65.04
876.324	73.58
876.493	68.12
876.662	68.91
876.831	64.45
877	73.02
877.17	73.9
877.339	78.13
877.508	72.09
877.677	76.86
877.846	78.87
878.015	77.31
878.184	75.49
878.352	91.28
878.521	83.57
878.69	79.47
878.859	74.14
879.028	76.27
879.197	68.99
879.366	68.06
879.534	60.94
879.703	59.42
879.872	59.14
880.041	55.12
880.21	47.47
880.378	44.14
880.547	43.01
880.716	43.2
880.884	42.21
881.053	40.4
881.222	38.24
881.39	36.3
881.559	34.94
881.727	31.78
881.896	31.36
882.065	31.96
882.233	32.36
882.402	32.59
882.57	31.78
882.739	30.21
882.907	29.4
883.076	30.48
883.244	30.99
883.412	31.63
883.581	32.76
883.749	32.83
883.918	32.18
884.086	33.19
884.254	33.96
884.423	34.31
884.591	37.77
884.759	40.29
884.927	39.27
885.096	42.18
885.264	39.22
885.432	41.36
885.6	42.34
885.769	42.96
885.937	40.47
886.105	40.26
886.273	35.82
886.441	34.6
886.609	34.29
886.777	35.62
886.945	31.07
887.113	33.41
887.281	33.48
887.449	31.21
887.617	22.77
887.785	28.46
887.953	38.82
888.121	48.39
888.289	49.75
888.457	46.14
888.625	51.97
888.793	51.91
888.961	62.75
889.129	67.35
889.296	77.01
889.464	85.87
889.632	89.51
889.8	86.16
889.967	85.29
890.135	80.61
