Data from JASIL_3203_Reflection_02.txt Node
Date: Fri Nov 13 14:33:03 EST 2015
User: Geneva
Spectrometer: USB4E03002
Autoset integration time: false
Trigger mode: 4
Integration Time (sec): 1.000000E-1
Scans to average: 10
Electric dark correction enabled: false
Nonlinearity correction enabled: false
Boxcar width: 5
Stray light correction enabled: false
XAxis mode: Wavelengths
Stop averaging: false
Number of Pixels in Spectrum: 3648
>>>>>Begin Spectral Data<<<<<
177.575	85.64
177.794	97.81
178.014	103.72
178.233	99.95
178.452	103.52
178.672	104.91
178.891	108.62
179.11	111.4
179.33	116.08
179.549	120.04
179.768	116.12
179.987	109.36
180.207	103.4
180.426	98.4
180.645	97.33
180.864	98.41
181.084	96.2
181.303	93.38
181.522	96.93
181.741	95.52
181.96	92.82
182.179	91.04
182.398	92.43
182.618	93.01
182.837	95.04
183.056	100.94
183.275	97.17
183.494	98.75
183.713	104.31
183.932	105.2
184.151	110.57
184.37	116.57
184.589	118.25
184.808	131.17
185.027	137.23
185.246	134.15
185.465	130.85
185.684	135.19
185.903	133.29
186.122	128.53
186.341	121.16
186.56	120.12
186.779	118.37
186.998	119.67
187.216	114.59
187.435	108.7
187.654	111.2
187.873	110.73
188.092	108.9
188.311	108.67
188.53	109.62
188.748	105.92
188.967	99.6
189.186	94.61
189.405	92.97
189.623	90.32
189.842	91.78
190.061	90.42
190.28	90.38
190.498	90.32
190.717	91.61
190.936	92.3
191.154	98.13
191.373	100.33
191.592	104.33
191.81	105.83
192.029	104.68
192.248	103.65
192.466	98.98
192.685	104.43
192.904	105.68
193.122	104.82
193.341	105.82
193.559	104.27
193.778	108.38
193.996	108.24
194.215	109.92
194.433	115.76
194.652	117.36
194.87	119.37
195.089	108.63
195.307	108.48
195.526	109.99
195.744	110.4
195.963	109.67
196.181	107.51
196.399	107.7
196.618	108.73
196.836	105.88
197.055	100.14
197.273	101.83
197.491	105.63
197.71	104.38
197.928	105.98
198.146	103.52
198.365	104.65
198.583	106.95
198.801	104.56
199.019	97.7
199.238	100.03
199.456	107.42
199.674	112.55
199.892	111.84
200.111	114.26
200.329	113.47
200.547	115.25
200.765	109.86
200.983	106.19
201.202	107.47
201.42	121.32
201.638	123.21
201.856	117.31
202.074	114.04
202.292	114.82
202.51	114.72
202.728	112.32
202.946	113.94
203.165	118.71
203.383	120.63
203.601	117.94
203.819	111.53
204.037	105.9
204.255	110.4
204.473	112.77
204.691	112.78
204.909	112.25
205.127	110.76
205.345	113.34
205.562	119.79
205.78	117.57
205.998	128.69
206.216	137.17
206.434	131.84
206.652	126.02
206.87	116.34
207.088	116.15
207.306	115.46
207.523	115.55
207.741	113.35
207.959	105.66
208.177	102.4
208.395	98.86
208.612	95.63
208.83	98.12
209.048	102.72
209.266	112.61
209.483	113.03
209.701	112.82
209.919	113.05
210.136	118.06
210.354	123.29
210.572	126.93
210.79	129.18
211.007	134.08
211.225	137.25
211.442	139.31
211.66	135.65
211.878	131.19
212.095	118.36
212.313	118.83
212.53	116.64
212.748	117.91
212.966	115.28
213.183	113.8
213.401	109.87
213.618	108.89
213.836	111.32
214.053	110.27
214.271	111.18
214.488	119.58
214.705	123.16
214.923	120.85
215.14	119.14
215.358	122.3
215.575	120.38
215.793	127.05
216.01	133.73
216.227	121.98
216.445	118.27
216.662	123.44
216.879	121.24
217.097	119.61
217.314	118.21
217.531	116.47
217.749	114.4
217.966	114.05
218.183	109.98
218.4	103.57
218.618	102.08
218.835	103.19
219.052	102.22
219.269	102.75
219.487	98.44
219.704	95.18
219.921	99.73
220.138	105.33
220.355	100.47
220.572	100.1
220.79	102.94
221.007	104.92
221.224	108.08
221.441	106.95
221.658	103.34
221.875	110.89
222.092	114.07
222.309	111.78
222.526	115.5
222.743	121.26
222.96	121.39
223.177	123.19
223.394	122.57
223.611	122.71
223.828	119.47
224.045	118.09
224.262	113.94
224.479	112.15
224.696	109.73
224.913	103.26
225.13	97.85
225.347	95.22
225.564	88.6
225.781	90.77
225.997	85.05
226.214	85.65
226.431	88.02
226.648	82.43
226.865	80
227.082	78.37
227.298	73.38
227.515	74.7
227.732	72.56
227.949	73.91
228.165	71.02
228.382	72.15
228.599	71.74
228.816	70.66
229.032	70.24
229.249	72.02
229.466	71.54
229.682	71.25
229.899	71.55
230.116	75.9
230.332	76.84
230.549	82.68
230.765	83.48
230.982	82.75
231.199	77.76
231.415	79.35
231.632	76.64
231.848	77.17
232.065	81.93
232.281	80.92
232.498	76.93
232.714	77.94
232.931	73.48
233.147	73.36
233.364	74.53
233.58	77.86
233.797	79.42
234.013	81.24
234.23	87.54
234.446	84.9
234.662	86.54
234.879	90.71
235.095	92.15
235.312	92.42
235.528	92.69
235.744	92.55
235.961	89.8
236.177	89.96
236.393	91.43
236.61	83.65
236.826	84.76
237.042	87.7
237.258	84.26
237.475	83.82
237.691	81.17
237.907	80.38
238.123	81.67
238.339	87.06
238.556	87.51
238.772	83.31
238.988	87.24
239.204	86.21
239.42	82.53
239.636	82.23
239.853	77.16
240.069	79.17
240.285	76.4
240.501	70.27
240.717	68.18
240.933	65.44
241.149	64.27
241.365	60.76
241.581	60.49
241.797	60.57
242.013	59.79
242.229	63.11
242.445	65.51
242.661	67.57
242.877	69.64
243.093	70.57
243.309	72.74
243.525	74.23
243.741	74.67
243.957	72.27
244.173	71.75
244.388	68.91
244.604	62.22
244.82	57.13
245.036	52
245.252	50.81
245.468	46.3
245.683	43.35
245.899	41.49
246.115	39.02
246.331	37.27
246.547	35.05
246.762	36.15
246.978	37.72
247.194	38.43
247.409	40.23
247.625	41.83
247.841	41.75
248.057	43.28
248.272	45.38
248.488	48.14
248.703	51.15
248.919	53.4
249.135	52.66
249.35	55.59
249.566	56.66
249.782	58.91
249.997	58.91
250.213	60.82
250.428	61.83
250.644	61.29
250.859	61.04
251.075	59.99
251.29	60.37
251.506	62.56
251.721	60.44
251.937	60.13
252.152	61.04
252.368	61.08
252.583	63.02
252.798	62.1
253.014	60.37
253.229	57.54
253.445	59.36
253.66	61.13
253.875	60.92
254.091	63.8
254.306	66.3
254.521	65.12
254.737	65.7
254.952	64.17
255.167	67.11
255.383	68.7
255.598	73.79
255.813	71.88
256.028	70.64
256.244	69.54
256.459	67.28
256.674	63.35
256.889	59.92
257.104	56.34
257.32	53.72
257.535	48.7
257.75	45.6
257.965	43.63
258.18	42.89
258.395	41.28
258.61	39.57
258.826	38.62
259.041	38.03
259.256	37.07
259.471	37.4
259.686	37.23
259.901	38.01
260.116	38.54
260.331	38.39
260.546	39.05
260.761	39.14
260.976	41.24
261.191	42.57
261.406	44.12
261.621	47.82
261.836	48.41
262.05	49.78
262.265	51.96
262.48	53.62
262.695	54.59
262.91	56.03
263.125	60.51
263.34	61.89
263.555	59.86
263.769	59.34
263.984	56.7
264.199	57.67
264.414	58.59
264.629	57.11
264.843	56.45
265.058	56.25
265.273	55.99
265.488	52.41
265.702	50.06
265.917	50.59
266.132	51.54
266.346	51.36
266.561	50.1
266.776	47.97
266.99	47.98
267.205	47.16
267.42	46.18
267.634	45.63
267.849	47.11
268.063	46.77
268.278	48.2
268.492	47.09
268.707	48.58
268.922	47.24
269.136	48.04
269.351	46.76
269.565	47.09
269.78	46.58
269.994	45.99
270.209	44.22
270.423	44.75
270.637	42.89
270.852	41.19
271.066	41.54
271.281	42.41
271.495	42.81
271.709	43.22
271.924	42.92
272.138	45.4
272.353	46.12
272.567	47.59
272.781	47.2
272.996	47.56
273.21	48.66
273.424	47.85
273.638	48.42
273.853	47.72
274.067	49.22
274.281	48.64
274.495	47.14
274.71	46.87
274.924	46
275.138	47.23
275.352	47.41
275.566	48.85
275.781	49.01
275.995	49.55
276.209	51.33
276.423	49.06
276.637	49.64
276.851	50.16
277.065	50.22
277.279	49.41
277.493	49.22
277.707	49.26
277.921	47.76
278.135	45.82
278.349	45.69
278.563	44.74
278.777	46.98
278.991	44.49
279.205	45.31
279.419	44.17
279.633	41.13
279.847	39.6
280.061	39.73
280.275	39.59
280.489	40.43
280.703	37.43
280.917	38.94
281.131	36.63
281.344	39.02
281.558	36.9
281.772	36.6
281.986	39.38
282.2	42.07
282.414	42.38
282.627	41.18
282.841	41.75
283.055	43.54
283.269	41.26
283.482	40.92
283.696	39.03
283.91	40.48
284.123	38.66
284.337	36.71
284.551	34.04
284.764	34.96
284.978	34.14
285.192	34.45
285.405	34
285.619	33.14
285.833	34.3
286.046	34.99
286.26	33.52
286.473	33.82
286.687	35.74
286.9	36.54
287.114	35.21
287.327	37.56
287.541	37.58
287.754	36.99
287.968	39.16
288.181	38.82
288.395	38.7
288.608	38.25
288.822	39.56
289.035	37.77
289.248	36.99
289.462	40.17
289.675	39.16
289.889	37.97
290.102	39.34
290.315	37.58
290.529	37.67
290.742	37.15
290.955	39.06
291.169	37.91
291.382	39.41
291.595	40.05
291.808	35.98
292.022	36.75
292.235	36.75
292.448	35.89
292.661	36.07
292.875	36.36
293.088	36.85
293.301	37.18
293.514	38.83
293.727	38.67
293.94	38.11
294.153	37.22
294.367	35.78
294.58	35.29
294.793	35.62
295.006	36.66
295.219	35.67
295.432	35.24
295.645	34.6
295.858	32.85
296.071	31.37
296.284	30.62
296.497	30.89
296.71	31.04
296.923	30.96
297.136	29.63
297.349	28.78
297.562	28.7
297.775	28.54
297.988	27.94
298.201	28.6
298.414	29
298.626	30.84
298.839	30.61
299.052	31.53
299.265	33.51
299.478	35.26
299.691	35.48
299.903	35.67
300.116	36.6
300.329	35.52
300.542	36.2
300.755	36.56
300.967	33.77
301.18	36.54
301.393	35.93
301.605	34.53
301.818	34.92
302.031	34.88
302.243	34.67
302.456	35.41
302.669	36.86
302.881	36.86
303.094	37.06
303.307	39.19
303.519	37.95
303.732	38.28
303.944	38.45
304.157	37.98
304.37	38.09
304.582	40.22
304.795	39.11
305.007	39.1
305.22	39.41
305.432	39.65
305.645	38.97
305.857	40.26
306.069	41.09
306.282	39.87
306.494	41.57
306.707	42.49
306.919	39.46
307.132	39.25
307.344	39.38
307.556	38.25
307.769	37.85
307.981	37.58
308.193	37.29
308.406	35.37
308.618	36.07
308.83	34.18
309.043	35.2
309.255	36.17
309.467	36.89
309.679	35.75
309.892	36.08
310.104	36.29
310.316	37.22
310.528	35.24
310.74	36
310.953	35.89
311.165	36.36
311.377	33.93
311.589	33.33
311.801	33.07
312.013	35.38
312.225	34.11
312.437	34.11
312.649	33.61
312.862	33.75
313.074	35.21
313.286	35.37
313.498	34.92
313.71	36.28
313.922	36.77
314.134	37.09
314.346	34.45
314.558	37.54
314.77	38.71
314.982	39.13
315.193	40.16
315.405	38.32
315.617	39.38
315.829	39.9
316.041	39.31
316.253	39.64
316.465	40.08
316.677	39.99
316.888	40.99
317.1	40.13
317.312	39.67
317.524	40.21
317.736	42.27
317.947	43
318.159	43.36
318.371	43.93
318.583	43.37
318.794	43.33
319.006	44.52
319.218	43.82
319.43	44.79
319.641	46.8
319.853	47.53
320.064	46.23
320.276	45.57
320.488	46.13
320.699	45.85
320.911	47.92
321.123	49.32
321.334	49.33
321.546	48.6
321.757	47.05
321.969	44.94
322.18	44.86
322.392	45.51
322.603	44.31
322.815	44.49
323.026	46.16
323.238	46.45
323.449	44.24
323.661	42.71
323.872	41.9
324.083	41.97
324.295	42.87
324.506	40.55
324.718	41.46
324.929	41.19
325.14	39.52
325.352	38.03
325.563	36.27
325.774	37.06
325.986	39.49
326.197	40.08
326.408	41.03
326.62	41.23
326.831	41.9
327.042	40.65
327.253	42.1
327.464	44.23
327.676	43.59
327.887	44.59
328.098	43.4
328.309	41.08
328.52	41.67
328.732	40.65
328.943	40.43
329.154	41.94
329.365	42.11
329.576	40.36
329.787	40.8
329.998	41.05
330.209	40.56
330.42	40.57
330.631	42.01
330.842	40.41
331.053	42.08
331.264	42.21
331.475	40.92
331.686	41.63
331.897	42.4
332.108	40.08
332.319	43.39
332.53	41.65
332.741	42.4
332.952	43.14
333.163	42.94
333.374	40.81
333.585	40.72
333.795	41.01
334.006	39.7
334.217	39.44
334.428	40.73
334.639	40.13
334.849	41.63
335.06	42.29
335.271	41.91
335.482	44.04
335.692	44.86
335.903	45.07
336.114	45.09
336.325	45.65
336.535	46.07
336.746	44.73
336.957	42.75
337.167	43.41
337.378	42.61
337.589	43.19
337.799	41.54
338.01	42.77
338.22	42.37
338.431	43.35
338.642	43.15
338.852	43.67
339.063	44.94
339.273	46.36
339.484	45.03
339.694	44.4
339.905	43.32
340.115	43.99
340.326	43.41
340.536	41.99
340.746	40.68
340.957	41.24
341.167	40.1
341.378	38.74
341.588	37.62
341.799	38.68
342.009	39.27
342.219	38.61
342.43	38.85
342.64	38.24
342.85	39.68
343.061	40.07
343.271	39.54
343.481	38.57
343.691	38.08
343.902	36.59
344.112	35.81
344.322	36.32
344.532	35.44
344.743	35.72
344.953	34.68
345.163	34.38
345.373	33.5
345.583	32.54
345.793	33.17
346.004	35.65
346.214	36.56
346.424	36.88
346.634	37
346.844	38.87
347.054	38.01
347.264	40.54
347.474	39.52
347.684	39.8
347.894	40.3
348.104	41.74
348.314	39.36
348.524	40.02
348.734	39.87
348.944	39.61
349.154	38.35
349.364	37.84
349.574	35.15
349.784	36.57
349.994	38.16
350.204	39.26
350.413	37.42
350.623	37.14
350.833	35.26
351.043	34.58
351.253	33.71
351.463	34.94
351.672	34.26
351.882	36
352.092	33.53
352.302	31.96
352.511	32.02
352.721	33.07
352.931	33.93
353.141	35.42
353.35	35.7
353.56	36.14
353.77	35.9
353.979	37.28
354.189	35.9
354.399	36.75
354.608	37.11
354.818	36.29
355.027	35.71
355.237	36.01
355.447	35.09
355.656	34.72
355.866	34.21
356.075	32.63
356.285	31.56
356.494	32.53
356.704	32.68
356.913	32.73
357.123	32.01
357.332	31.42
357.542	31.04
357.751	31.45
357.96	31.38
358.17	30.85
358.379	31.78
358.589	31.85
358.798	30.6
359.007	30.16
359.217	30.24
359.426	29.96
359.635	30.04
359.845	30
360.054	29.11
360.263	28.7
360.472	29.26
360.682	29.4
360.891	29.46
361.1	29.9
361.309	29.35
361.519	28.59
361.728	28.33
361.937	29.04
362.146	28.79
362.355	29.28
362.564	30.32
362.774	30.63
362.983	29.72
363.192	30.76
363.401	31.16
363.61	32.21
363.819	32.25
364.028	32.12
364.237	32.19
364.446	32.74
364.655	32.01
364.864	31.9
365.073	32.67
365.282	33.56
365.491	33.06
365.7	32.37
365.909	32.5
366.118	32.91
366.327	33.69
366.536	33.1
366.745	32.5
366.954	34.02
367.162	34.19
367.371	33.29
367.58	33.75
367.789	33.66
367.998	34.75
368.207	34.69
368.415	34.82
368.624	34.84
368.833	34.9
369.042	36.45
369.25	36.36
369.459	36.22
369.668	35.78
369.877	35.47
370.085	34.95
370.294	33.27
370.503	33.05
370.711	32.69
370.92	31.86
371.129	32.01
371.337	30.55
371.546	29.19
371.754	29.17
371.963	29.08
372.171	28.44
372.38	28.32
372.589	28.83
372.797	28.2
373.006	28.64
373.214	29.43
373.423	30.01
373.631	30
373.84	29.92
374.048	29.72
374.256	30.93
374.465	31.94
374.673	31.84
374.882	31.9
375.09	30.36
375.298	30.13
375.507	29.15
375.715	28.42
375.923	28.25
376.132	28.84
376.34	29.47
376.548	28.47
376.757	27.59
376.965	27.61
377.173	26.86
377.381	28.55
377.59	28.15
377.798	29.25
378.006	29.15
378.214	29.87
378.423	30.77
378.631	29.64
378.839	30.37
379.047	30.74
379.255	29.97
379.463	29.97
379.671	31.6
379.879	31.58
380.088	31.13
380.296	31.46
380.504	31.92
380.712	31.12
380.92	30.69
381.128	30.16
381.336	30.35
381.544	31.29
381.752	32.03
381.96	30.56
382.168	32.21
382.376	32.17
382.584	32.1
382.791	31.39
382.999	30.85
383.207	31.13
383.415	31.53
383.623	29.93
383.831	30.02
384.039	30.62
384.247	31.09
384.454	29.95
384.662	29.54
384.87	28.41
385.078	28.42
385.285	27.79
385.493	27.43
385.701	28.1
385.909	28.52
386.116	28.38
386.324	27.69
386.532	27.55
386.739	27.97
386.947	28.5
387.155	29.98
387.362	30.35
387.57	31.48
387.778	30.96
387.985	29.06
388.193	29.87
388.4	29.22
388.608	29.27
388.816	28.73
389.023	28.18
389.231	27.82
389.438	26.9
389.646	26.27
389.853	25.25
390.061	25.76
390.268	26.18
390.475	25.51
390.683	26.26
390.89	25.93
391.098	26.03
391.305	26.61
391.512	26.87
391.72	27.03
391.927	26.91
392.135	27.02
392.342	27.23
392.549	27.57
392.756	27.93
392.964	27.63
393.171	28.38
393.378	28.21
393.586	26.44
393.793	25.63
394	25.23
394.207	25.74
394.414	26.27
394.622	26.55
394.829	26.08
395.036	25.35
395.243	24.92
395.45	24.94
395.657	25.2
395.864	26.93
396.072	28.04
396.279	28.3
396.486	27.74
396.693	28.38
396.9	27.92
397.107	27.61
397.314	28.11
397.521	28.44
397.728	27.01
397.935	26.66
398.142	25.44
398.349	25.32
398.556	26.41
398.763	26.74
398.97	27
399.177	27.22
399.383	27.35
399.59	27.25
399.797	28.03
400.004	29.25
400.211	29.86
400.418	30.84
400.625	30.78
400.831	29.2
401.038	28.96
401.245	27.87
401.452	28.28
401.658	28.91
401.865	28.94
402.072	28.41
402.279	28.31
402.485	27.32
402.692	27.13
402.899	28.25
403.105	28.78
403.312	29.45
403.519	29.28
403.725	28.21
403.932	27.24
404.138	27.49
404.345	27.62
404.552	27.28
404.758	28.29
404.965	27.99
405.171	26.73
405.378	26.82
405.584	25.84
405.791	25.74
405.997	27.44
406.204	28.93
406.41	28.45
406.617	28.12
406.823	28.37
407.029	27.98
407.236	27.47
407.442	27.71
407.649	28.29
407.855	28.56
408.061	29.06
408.268	28.46
408.474	28.92
408.68	29.46
408.887	29.6
409.093	29.23
409.299	28.86
409.505	29.52
409.712	29.49
409.918	28.38
410.124	28.47
410.33	28.56
410.537	28.12
410.743	27.19
410.949	27.28
411.155	26.48
411.361	27.55
411.567	27.64
411.773	28.34
411.98	27.87
412.186	28.12
412.392	28.74
412.598	28.23
412.804	28.72
413.01	27.61
413.216	27.18
413.422	28.13
413.628	27.09
413.834	27.2
414.04	26.87
414.246	27.16
414.452	26.96
414.658	26.9
414.864	26.71
415.07	26.25
415.275	26.95
415.481	27.57
415.687	27.11
415.893	26.73
416.099	26.56
416.305	25.64
416.511	25.29
416.716	25.1
416.922	24.43
417.128	24.59
417.334	24.25
417.539	23.54
417.745	22.76
417.951	21.98
418.157	21.92
418.362	21.3
418.568	21.21
418.774	20.93
418.979	21.25
419.185	21
419.391	20.41
419.596	20.71
419.802	20.89
420.008	20.83
420.213	21.55
420.419	21.72
420.624	21.95
420.83	21.92
421.035	21.86
421.241	21.8
421.446	21.43
421.652	21.85
421.857	21.37
422.063	21.38
422.268	21.05
422.474	20.55
422.679	20.49
422.885	20.94
423.09	20.73
423.295	21.13
423.501	21.02
423.706	21.39
423.911	21.16
424.117	21.29
424.322	21.66
424.527	22.5
424.733	22.93
424.938	22.91
425.143	23.03
425.349	23.41
425.554	23.08
425.759	23.7
425.964	23.86
426.169	24.26
426.375	24.78
426.58	25.21
426.785	24.92
426.99	25.15
427.195	25.48
427.4	25.31
427.605	25.71
427.811	26.38
428.016	25.35
428.221	25.73
428.426	25.53
428.631	25.54
428.836	25.19
429.041	25.52
429.246	25.02
429.451	25.32
429.656	25.59
429.861	25.9
430.066	26.39
430.271	27.3
430.476	27.3
430.681	27.88
430.886	27.48
431.09	26.91
431.295	26.53
431.5	26.43
431.705	25.55
431.91	25.5
432.115	25.31
432.32	24.31
432.524	23.95
432.729	24.12
432.934	23.94
433.139	24.11
433.343	24.19
433.548	24.49
433.753	24.7
433.958	25.17
434.162	24.67
434.367	24.65
434.572	24.82
434.776	25.09
434.981	24.91
435.186	24.58
435.39	24.84
435.595	25.43
435.799	25.28
436.004	25.4
436.209	25.24
436.413	24.9
436.618	24.48
436.822	24.67
437.027	24.1
437.231	23.57
437.436	23.34
437.64	22.7
437.845	22.33
438.049	22.25
438.253	22.14
438.458	22.14
438.662	22.56
438.867	22.77
439.071	22.68
439.275	22.56
439.48	22.7
439.684	23.16
439.888	23.57
440.093	23.2
440.297	23
440.501	23.01
440.706	22.92
440.91	23.1
441.114	22.85
441.318	22.75
441.523	23.34
441.727	23.38
441.931	23.5
442.135	23.21
442.339	23.78
442.543	24.18
442.748	24.21
442.952	24.44
443.156	24.3
443.36	24.54
443.564	24.79
443.768	24.76
443.972	25.38
444.176	24.86
444.38	24.95
444.584	24.83
444.788	24.32
444.992	24.47
445.196	24.41
445.4	24.14
445.604	23.69
445.808	23.68
446.012	23.56
446.216	23.05
446.42	23.32
446.624	23.23
446.828	23.13
447.032	23.26
447.235	23.19
447.439	23.14
447.643	23.58
447.847	24.24
448.051	24.65
448.254	24.89
448.458	25.3
448.662	25.43
448.866	25.12
449.069	25.29
449.273	26.03
449.477	25.78
449.681	25.87
449.884	26.08
450.088	25.79
450.292	25.3
450.495	25.15
450.699	25.05
450.902	24.82
451.106	25.56
451.31	26.2
451.513	26.34
451.717	26.22
451.92	26.43
452.124	25.74
452.327	25.95
452.531	25.94
452.734	26.41
452.938	26.21
453.141	26.77
453.345	26.67
453.548	26.03
453.752	25.12
453.955	25.86
454.158	25.95
454.362	26.46
454.565	26.37
454.769	26.6
454.972	26.07
455.175	26.12
455.379	25.65
455.582	26.22
455.785	26.1
455.988	26.5
456.192	26.13
456.395	25.6
456.598	25.9
456.801	25.72
457.005	25.75
457.208	25.83
457.411	25.55
457.614	24.58
457.817	24.01
458.021	23.82
458.224	23.69
458.427	23.36
458.63	23.52
458.833	23.14
459.036	22.68
459.239	22.69
459.442	22.57
459.645	22.7
459.848	23.22
460.051	23.46
460.254	23.71
460.457	23.77
460.66	24.49
460.863	24.84
461.066	25.14
461.269	25.6
461.472	25.48
461.675	25.18
461.878	25.14
462.081	25.57
462.284	25.65
462.486	25.65
462.689	25.15
462.892	25.15
463.095	25.09
463.298	25
463.5	25.9
463.703	26.27
463.906	26.77
464.109	27.17
464.311	27.04
464.514	27.35
464.717	27.45
464.92	27.73
465.122	27.52
465.325	27.46
465.528	27.33
465.73	26.87
465.933	26.62
466.135	26.51
466.338	26.15
466.541	26.24
466.743	25.49
466.946	25.63
467.148	25.84
467.351	25.63
467.553	25.45
467.756	25.68
467.958	25.71
468.161	25.23
468.363	25.36
468.566	25.58
468.768	25.75
468.971	26.57
469.173	26.28
469.375	26.44
469.578	26.52
469.78	27.01
469.983	27.41
470.185	27.84
470.387	28.61
470.59	28.92
470.792	28.77
470.994	28.67
471.196	28.4
471.399	28.96
471.601	29.08
471.803	28.8
472.005	28.25
472.208	27.57
472.41	27.41
472.612	27.1
472.814	26.53
473.016	26.41
473.218	26.46
473.421	25.69
473.623	25.25
473.825	25.13
474.027	25.12
474.229	25.26
474.431	25.37
474.633	24.76
474.835	25.5
475.037	25.71
475.239	26.23
475.441	26.11
475.643	26.61
475.845	26.07
476.047	26.15
476.249	26.51
476.451	26.63
476.653	26.48
476.855	26.9
477.057	26.75
477.258	26.7
477.46	26.55
477.662	26.68
477.864	26.69
478.066	27.23
478.268	26.94
478.469	26.83
478.671	26.63
478.873	26.3
479.075	25.8
479.276	24.95
479.478	24.7
479.68	24.15
479.882	23.59
480.083	23.3
480.285	22.91
480.487	22.88
480.688	22.48
480.89	22.44
481.091	22.2
481.293	21.98
481.495	21.82
481.696	21.27
481.898	20.8
482.099	20.41
482.301	20.18
482.502	19.96
482.704	19.51
482.905	19.22
483.107	18.92
483.308	18.86
483.51	18.68
483.711	18.55
483.913	18.63
484.114	18.83
484.315	18.92
484.517	19.02
484.718	19.08
484.92	19.15
485.121	19.31
485.322	19.4
485.524	19.63
485.725	19.86
485.926	19.89
486.127	19.94
486.329	19.81
486.53	19.69
486.731	19.63
486.932	19.58
487.134	19.53
487.335	19.55
487.536	19.63
487.737	19.62
487.938	19.7
488.139	19.75
488.341	19.79
488.542	19.83
488.743	20.35
488.944	20.32
489.145	20.35
489.346	20.82
489.547	21.08
489.748	21.19
489.949	21.17
490.15	21.03
490.351	21.09
490.552	21.19
490.753	21.15
490.954	20.8
491.155	20.87
491.356	20.67
491.557	20.46
491.758	20.46
491.959	20.54
492.159	20.55
492.36	20.83
492.561	20.98
492.762	21.34
492.963	21.79
493.164	22.3
493.364	22.55
493.565	23.15
493.766	23.7
493.967	23.86
494.167	23.98
494.368	23.95
494.569	23.67
494.769	23.92
494.97	23.82
495.171	23.75
495.371	23.59
495.572	23.72
495.773	23.96
495.973	23.84
496.174	23.62
496.375	23.42
496.575	23.76
496.776	24.13
496.976	24.12
497.177	23.78
497.377	24.06
497.578	24.04
497.778	23.96
497.979	23.87
498.179	23.84
498.38	24.08
498.58	24.26
498.78	24.37
498.981	24.47
499.181	24.97
499.382	25.47
499.582	25.55
499.782	25.86
499.983	25.79
500.183	26.12
500.383	26.48
500.584	26.4
500.784	26.65
500.984	26.97
501.184	27.34
501.385	26.79
501.585	26.67
501.785	26.88
501.985	26.69
502.185	26.93
502.386	26.51
502.586	26.33
502.786	26.64
502.986	26.44
503.186	25.98
503.386	25.92
503.586	25.98
503.786	25.74
503.987	25.01
504.187	25.05
504.387	25.62
504.587	26
504.787	26.13
504.987	26.25
505.187	26.44
505.387	26.64
505.587	26.19
505.786	26.28
505.986	26.56
506.186	27.28
506.386	27.65
506.586	27.35
506.786	27.36
506.986	27.68
507.186	27.74
507.386	28.33
507.585	28.16
507.785	28.69
507.985	28.84
508.185	28.93
508.384	28.96
508.584	28.51
508.784	28.53
508.984	28.08
509.183	27.69
509.383	28.08
509.583	27.9
509.782	28.17
509.982	28.05
510.182	27.98
510.381	28.23
510.581	28.01
510.781	28.28
510.98	28.4
511.18	29.26
511.379	29.12
511.579	28.45
511.778	28.2
511.978	28.32
512.177	28
512.377	27.82
512.576	27.87
512.776	27.95
512.975	27.63
513.175	27.58
513.374	27.11
513.573	28.1
513.773	28.46
513.972	28.49
514.172	28.52
514.371	29.03
514.57	29.39
514.77	29.65
514.969	29.3
515.168	30.09
515.367	30.32
515.567	30.57
515.766	30.22
515.965	30.2
516.164	30.76
516.364	30.65
516.563	30.7
516.762	30.67
516.961	30.57
517.16	30.37
517.359	30.27
517.559	30.26
517.758	30.28
517.957	30.4
518.156	30.48
518.355	29.99
518.554	30.39
518.753	30.12
518.952	30.11
519.151	30.15
519.35	30.89
519.549	31.45
519.748	31.71
519.947	31.91
520.146	31.56
520.345	31.7
520.544	32.32
520.743	32.48
520.942	32.66
521.141	32.97
521.339	33.26
521.538	33.49
521.737	33.13
521.936	33.05
522.135	33.09
522.333	33.65
522.532	33.71
522.731	33.49
522.93	33.42
523.129	33.64
523.327	33.81
523.526	33.68
523.725	33.36
523.923	32.99
524.122	33.02
524.321	32.99
524.519	32.96
524.718	32.56
524.917	32.62
525.115	32.39
525.314	32.28
525.512	32.09
525.711	31.75
525.909	31.84
526.108	31.93
526.306	31.67
526.505	31.56
526.703	31.37
526.902	31.41
527.1	31.28
527.299	31.11
527.497	30.91
527.696	30.84
527.894	30.79
528.092	30.79
528.291	30.86
528.489	30.84
528.688	31.05
528.886	31.17
529.084	31.56
529.283	31.72
529.481	31.9
529.679	32.5
529.877	32.85
530.076	33.09
530.274	33.08
530.472	33.18
530.67	33.57
530.869	33.33
531.067	33.55
531.265	33.64
531.463	33.84
531.661	33.96
531.859	33.65
532.057	33.63
532.255	34.11
532.454	34.47
532.652	34.39
532.85	34.37
533.048	34.51
533.246	34.38
533.444	34.37
533.642	34.51
533.84	34.92
534.038	35.33
534.236	35.48
534.434	35.62
534.632	35.71
534.83	36.29
535.027	36.46
535.225	36.9
535.423	37.3
535.621	37.31
535.819	36.88
536.017	36.54
536.215	36.67
536.412	36.64
536.61	36.68
536.808	37.03
537.006	37.18
537.203	37.54
537.401	37.65
537.599	37.91
537.797	38.48
537.994	39.55
538.192	40.24
538.39	40.09
538.587	40.2
538.785	39.9
538.983	39.97
539.18	39.98
539.378	39.6
539.575	39.39
539.773	39.12
539.97	38.7
540.168	38.26
540.366	37.94
540.563	37.93
540.761	37.98
540.958	38.04
541.155	37.6
541.353	37.51
541.55	37.68
541.748	38
541.945	37.93
542.143	37.94
542.34	38.12
542.537	38.42
542.735	38.56
542.932	38.88
543.129	39.09
543.327	39.57
543.524	39.81
543.721	40.11
543.919	40.2
544.116	40.68
544.313	41.02
544.51	40.98
544.708	41.39
544.905	41.34
545.102	41.63
545.299	41.86
545.496	41.79
545.693	41.89
545.891	42.04
546.088	42.21
546.285	42.47
546.482	42.68
546.679	43.03
546.876	43
547.073	43.79
547.27	44
547.467	44.32
547.664	45
547.861	45.38
548.058	45.55
548.255	45.63
548.452	45.74
548.649	46
548.846	46.62
549.043	46.7
549.24	46.96
549.437	47.05
549.633	47.27
549.83	47.51
550.027	47.86
550.224	47.88
550.421	48.08
550.618	48.59
550.814	49.14
551.011	48.9
551.208	49.03
551.405	48.97
551.601	48.9
551.798	48.89
551.995	48.71
552.191	47.92
552.388	47.94
552.585	48.18
552.781	48.24
552.978	48.18
553.175	48.19
553.371	48.39
553.568	48.23
553.764	48.53
553.961	48.74
554.157	48.84
554.354	49.67
554.55	50.06
554.747	50.05
554.943	49.69
555.14	49.72
555.336	50.23
555.533	50.68
555.729	51.18
555.926	51.45
556.122	51.58
556.318	52
556.515	52.09
556.711	52.91
556.907	53.18
557.104	53.78
557.3	53.79
557.496	53.96
557.693	53.25
557.889	53.36
558.085	53.69
558.281	53.9
558.478	54.09
558.674	53.66
558.87	52.83
559.066	52.5
559.262	52.94
559.459	53.08
559.655	52.91
559.851	53.63
560.047	53.73
560.243	53.4
560.439	53.82
560.635	53.47
560.831	53.91
561.027	54.01
561.223	54.22
561.419	54.08
561.615	54.07
561.811	54.05
562.007	54.42
562.203	54.52
562.399	54.76
562.595	54.55
562.791	54.74
562.987	55.03
563.183	55.2
563.379	55.41
563.575	55.01
563.771	55.43
563.966	55.42
564.162	55.08
564.358	54.98
564.554	54.3
564.75	53.78
564.945	53.98
565.141	53.76
565.337	54.15
565.533	53.94
565.728	53.67
565.924	53.07
566.12	53.34
566.315	53.26
566.511	53.12
566.707	53.36
566.902	53.54
567.098	53.8
567.293	53.86
567.489	54.02
567.684	54.18
567.88	54.46
568.076	55.04
568.271	54.78
568.467	55.41
568.662	54.98
568.858	55.57
569.053	55.53
569.248	55.33
569.444	55.67
569.639	54.85
569.835	55.09
570.03	55.4
570.225	55.17
570.421	55.09
570.616	54.96
570.812	55.58
571.007	54.99
571.202	54.68
571.397	54.49
571.593	53.97
571.788	54.47
571.983	54.33
572.178	54.13
572.374	54.31
572.569	54.97
572.764	54.89
572.959	55.27
573.154	55.72
573.35	56.28
573.545	56.75
573.74	57.2
573.935	57.09
574.13	57.31
574.325	57.32
574.52	57.21
574.715	57.13
574.91	57.03
575.105	56.62
575.3	56.77
575.495	57.02
575.69	57.08
575.885	57.18
576.08	57.35
576.275	57.55
576.47	57.97
576.665	58.52
576.86	58.39
577.055	57.96
577.25	58.2
577.444	58.04
577.639	58.38
577.834	58.46
578.029	59.24
578.224	59.92
578.418	60.18
578.613	60.26
578.808	60.75
579.003	61.36
579.197	62.35
579.392	62.34
579.587	63.09
579.781	63.14
579.976	63.09
580.171	62.53
580.365	62.81
580.56	62.62
580.755	62.83
580.949	62.35
581.144	62.41
581.338	62.12
581.533	62.68
581.727	62.39
581.922	62.4
582.116	63.03
582.311	63.26
582.505	62.9
582.7	63.29
582.894	63.56
583.089	64.07
583.283	64.53
583.478	65.2
583.672	65.16
583.866	65.3
584.061	65.36
584.255	65.41
584.449	65.41
584.644	65.95
584.838	65.88
585.032	65.72
585.226	65.27
585.421	64.29
585.615	64.45
585.809	64.2
586.003	64.69
586.198	64.38
586.392	64.13
586.586	64.22
586.78	62.85
586.974	63.02
587.168	62.84
587.363	62.62
587.557	62.83
587.751	62.6
587.945	62.75
588.139	62.37
588.333	62.89
588.527	62.92
588.721	62.33
588.915	63.07
589.109	62.38
589.303	62.35
589.497	63.02
589.691	63.17
589.885	62.83
590.079	62.83
590.273	62.93
590.466	63.23
590.66	63
590.854	63.99
591.048	64.53
591.242	64.97
591.436	65.23
591.629	65.46
591.823	65.75
592.017	65.41
592.211	65.49
592.404	64.6
592.598	63.82
592.792	63.59
592.986	63.15
593.179	62.14
593.373	61.9
593.567	62.24
593.76	61.69
593.954	61.39
594.147	62.33
594.341	62.59
594.535	63.05
594.728	62.75
594.922	63.15
595.115	63.24
595.309	63.51
595.502	63.83
595.696	62.31
595.889	61.88
596.083	61.46
596.276	61.01
596.47	60.11
596.663	60.5
596.856	61.15
597.05	61.07
597.243	60.66
597.437	61.04
597.63	61.1
597.823	62.45
598.017	63.09
598.21	64.27
598.403	65.02
598.596	66.34
598.79	66.57
598.983	66.85
599.176	67.16
599.369	68.7
599.563	69.1
599.756	69.19
599.949	69.57
600.142	69.58
600.335	69.46
600.528	69.5
600.722	69.01
600.915	69.22
601.108	68.84
601.301	68.99
601.494	67.71
601.687	66.38
601.88	66.23
602.073	65.99
602.266	65.8
602.459	65.36
602.652	63.83
602.845	63.57
603.038	63.01
603.231	63.11
603.424	62.71
603.617	62.35
603.809	63.26
604.002	62.77
604.195	63.02
604.388	63.27
604.581	63.26
604.774	63.81
604.966	63.89
605.159	63.7
605.352	63.71
605.545	64.31
605.737	65.09
605.93	65.44
606.123	66.22
606.316	66.12
606.508	66.11
606.701	66.38
606.894	66.37
607.086	66.69
607.279	66.99
607.471	67.29
607.664	66.59
607.857	66.42
608.049	65.77
608.242	65.85
608.434	65.42
608.627	64.99
608.819	64.57
609.012	65.05
609.204	65.08
609.397	65.17
609.589	64.64
609.782	65.09
609.974	65.52
610.166	66.08
610.359	65.92
610.551	66.75
610.743	67.09
610.936	67.93
611.128	68.75
611.32	69.46
611.513	70.63
611.705	71.37
611.897	71.7
612.09	72.03
612.282	71.63
612.474	71.97
612.666	71.41
612.858	71.88
613.051	72.18
613.243	72.47
613.435	72.17
613.627	71.68
613.819	72.35
614.011	72.19
614.203	71.8
614.395	71.34
614.588	71.88
614.78	71.91
614.972	72.72
615.164	72.17
615.356	71.85
615.548	71.47
615.74	71.58
615.932	70.68
616.124	70.07
616.315	71.09
616.507	73.02
616.699	72.77
616.891	73.2
617.083	73.24
617.275	73.5
617.467	73.29
617.659	73.19
617.85	73.36
618.042	73.37
618.234	74.85
618.426	74.93
618.618	74.08
618.809	73.75
619.001	73.02
619.193	71.9
619.384	72.46
619.576	72.37
619.768	72.58
619.959	72.69
620.151	73.15
620.343	72.56
620.534	71.99
620.726	71.46
620.917	72.36
621.109	73.31
621.301	74.24
621.492	73.83
621.684	74.88
621.875	76.41
622.067	76.49
622.258	76.76
622.45	76.76
622.641	76.9
622.832	77.48
623.024	76.75
623.215	76.76
623.407	76.04
623.598	75.72
623.789	74.92
623.981	74.01
624.172	73.49
624.363	73.08
624.555	73.09
624.746	72.34
624.937	72.24
625.129	72.03
625.32	72.1
625.511	72.07
625.702	72.22
625.893	72
626.085	71.26
626.276	71.27
626.467	71.15
626.658	70.69
626.849	70.97
627.04	71.1
627.231	71.05
627.422	70.97
627.614	70.92
627.805	71.28
627.996	71.14
628.187	71.84
628.378	72.12
628.569	72.81
628.76	73.86
628.951	74.4
629.142	74.04
629.332	75.01
629.523	74.94
629.714	75.29
629.905	75.71
630.096	76.59
630.287	77.06
630.478	77.56
630.669	77.06
630.859	76.41
631.05	76.36
631.241	75.72
631.432	75.95
631.623	76.42
631.813	76.47
632.004	75.63
632.195	74.99
632.385	75.22
632.576	75.06
632.767	75.11
632.957	74.85
633.148	74.27
633.339	74.77
633.529	74.24
633.72	73.92
633.91	73.71
634.101	74.27
634.292	74.19
634.482	73.48
634.673	73.2
634.863	73.42
635.054	73.65
635.244	74.19
635.435	74.56
635.625	74.85
635.815	74.79
636.006	75.29
636.196	75.84
636.387	76.89
636.577	76.88
636.767	76.49
636.958	77.35
637.148	77.9
637.338	77.31
637.529	77.88
637.719	78.72
637.909	79.02
638.099	79.45
638.29	78.45
638.48	77.67
638.67	78.11
638.86	78.43
639.05	77.95
639.241	77.9
639.431	79.36
639.621	80.35
639.811	79.67
640.001	80.84
640.191	80.34
640.381	81.24
640.571	82.67
640.761	82.89
640.951	84.01
641.141	84.25
641.331	84.81
641.521	84.9
641.711	84.22
641.901	84.06
642.091	83.8
642.281	85.25
642.471	85.88
642.661	85.43
642.851	85.68
643.041	84.92
643.231	84.78
643.42	85.01
643.61	84.43
643.8	83.92
643.99	84.3
644.18	84.47
644.369	82.66
644.559	81.34
644.749	82.7
644.939	81.71
645.128	82
645.318	82.54
645.508	81.67
645.697	82.19
645.887	82.85
646.076	82.87
646.266	81.55
646.456	82.47
646.645	83.03
646.835	81.38
647.024	81.48
647.214	81.47
647.403	81.3
647.593	81.84
647.782	81.52
647.972	81.21
648.161	80.11
648.351	80.3
648.54	79.87
648.73	79.73
648.919	79.35
649.108	79.41
649.298	79.19
649.487	78.11
649.677	77.9
649.866	78.72
650.055	78.35
650.244	78.86
650.434	79.88
650.623	81.47
650.812	82.08
651.002	82.66
651.191	83.66
651.38	85.31
651.569	86.95
651.758	87.18
651.947	86.83
652.137	86.9
652.326	88.17
652.515	87.84
652.704	86.07
652.893	85.45
653.082	86.77
653.271	87.14
653.46	86.14
653.649	85.27
653.838	85.19
654.027	85.18
654.216	85.86
654.405	85.3
654.594	84.62
654.783	85.15
654.972	85.52
655.161	83.78
655.35	83.94
655.539	83.68
655.728	83.39
655.916	83.75
656.105	82.54
656.294	82.03
656.483	81.91
656.672	82.7
656.86	81.97
657.049	80.89
657.238	80.94
657.427	79.89
657.615	78.69
657.804	77.79
657.993	77.05
658.181	77.02
658.37	77.26
658.559	76.95
658.747	76.27
658.936	76.23
659.125	76.31
659.313	76.95
659.502	76.95
659.69	77.73
659.879	78.82
660.067	79.14
660.256	80.04
660.444	79.81
660.633	80.28
660.821	81.62
661.01	82.76
661.198	83.65
661.387	83.03
661.575	84.08
661.763	84.31
661.952	84.99
662.14	86.76
662.328	86.23
662.517	87.39
662.705	88.06
662.893	87.6
663.082	88.03
663.27	88.29
663.458	89.18
663.646	88.23
663.834	88.59
664.023	88.57
664.211	87.12
664.399	88.49
664.587	88.98
664.775	88.75
664.963	88.93
665.152	88.67
665.34	88.21
665.528	89.61
665.716	90.71
665.904	91.15
666.092	90.09
666.28	89.75
666.468	89.15
666.656	87.97
666.844	87.68
667.032	86.42
667.22	86.11
667.408	87.36
667.596	85.54
667.784	84.01
667.971	84.29
668.159	85.63
668.347	86.76
668.535	87.76
668.723	88.08
668.911	88.4
669.098	89.5
669.286	89.33
669.474	89.1
669.662	90.11
669.849	90.67
670.037	89.97
670.225	89.82
670.413	88.62
670.6	87.7
670.788	87.28
670.976	87.59
671.163	87.84
671.351	88.04
671.538	88
671.726	86.67
671.913	86.88
672.101	87.19
672.289	87.09
672.476	88.14
672.664	88.67
672.851	89.69
673.039	90.1
673.226	91.14
673.413	91.61
673.601	90.67
673.788	90.84
673.976	91.8
674.163	92.44
674.35	91.36
674.538	91.52
674.725	91.57
674.912	90.34
675.1	89.24
675.287	88.53
675.474	87.18
675.662	87.81
675.849	88.44
676.036	87.64
676.223	87.79
676.411	88.27
676.598	87.83
676.785	87.43
676.972	88.23
677.159	89.1
677.346	89.48
677.533	90.08
677.721	88.92
677.908	87.93
678.095	88.3
678.282	86.5
678.469	86.38
678.656	86.02
678.843	85.62
679.03	84.89
679.217	83.4
679.404	82.93
679.591	83.14
679.778	84.34
679.964	84.74
680.151	84.28
680.338	85.21
680.525	85.41
680.712	85.52
680.899	86.64
681.086	86.63
681.272	87.68
681.459	87.32
681.646	87.29
681.833	87.36
682.02	88.28
682.206	89.88
682.393	90.34
682.58	91.09
682.766	91.74
682.953	90.9
683.14	92.6
683.326	92.6
683.513	92.81
683.7	92.27
683.886	91.47
684.073	91.86
684.259	90.59
684.446	90.76
684.632	89.97
684.819	90.93
685.005	91.45
685.192	91.31
685.378	91.07
685.565	91.52
685.751	92.75
685.938	93.56
686.124	91.66
686.31	91.23
686.497	90.01
686.683	90.02
686.87	88.82
687.056	87.6
687.242	86.03
687.429	86.74
687.615	86.15
687.801	84.42
687.987	83.25
688.174	84.35
688.36	84.9
688.546	85.09
688.732	85.23
688.918	84.56
689.105	84.35
689.291	85.31
689.477	85
689.663	85.62
689.849	86.71
690.035	87.9
690.221	87.6
690.407	87.39
690.593	87.69
690.779	86.86
690.965	88.21
691.151	89.09
691.337	89.25
691.523	89.71
691.709	90.23
691.895	89.68
692.081	89.64
692.267	89.31
692.453	89.6
692.639	89.6
692.825	91.25
693.011	89.39
693.196	89.59
693.382	89.78
693.568	89.56
693.754	88.97
693.94	88.3
694.125	88.73
694.311	90.22
694.497	90.92
694.682	91.45
694.868	91.08
695.054	92.17
695.239	91.5
695.425	91.23
695.611	92.03
695.796	91.37
695.982	92.03
696.168	91.41
696.353	89.83
696.539	89.12
696.724	87.42
696.91	86.4
697.095	85.78
697.281	85.33
697.466	84.61
697.652	82.92
697.837	82.47
698.023	82.69
698.208	81.96
698.393	81.23
698.579	80.21
698.764	80.95
698.949	80.9
699.135	80.95
699.32	81.53
699.505	81.35
699.691	81.99
699.876	82.72
700.061	83.49
700.246	84.02
700.432	85.45
700.617	86.59
700.802	87.33
700.987	89.53
701.172	93.7
701.358	95.01
701.543	95.27
701.728	97.04
701.913	95.88
702.098	96.07
702.283	97.25
702.468	97.32
702.653	98.75
702.838	97.07
703.023	97.6
703.208	94.56
703.393	94.42
703.578	96.03
703.763	96.14
703.948	97.79
704.133	99.12
704.318	98.36
704.503	97.86
704.688	97.41
704.873	99.98
705.057	98.44
705.242	98.71
705.427	98.88
705.612	97.71
705.797	96.76
705.981	97.32
706.166	96.65
706.351	96.63
706.536	97.23
706.72	97.92
706.905	98.08
707.09	97.48
707.274	96.85
707.459	96.23
707.644	96.83
707.828	97.66
708.013	98.18
708.197	97.29
708.382	98.35
708.567	98.85
708.751	97.33
708.936	95.34
709.12	96.95
709.305	96.94
709.489	97.24
709.673	96.57
709.858	94.94
710.042	93.16
710.227	92.59
710.411	91.29
710.596	92.18
710.78	92.1
710.964	94.7
711.149	93.86
711.333	95.59
711.517	96.26
711.702	97.63
711.886	97.67
712.07	98.22
712.254	98.36
712.438	98.51
712.623	97.07
712.807	97.74
712.991	95.48
713.175	95.01
713.359	92.7
713.544	91.16
713.728	91.94
713.912	92.78
714.096	92.98
714.28	92.4
714.464	92.05
714.648	91.38
714.832	91.18
715.016	91.89
715.2	91.02
715.384	91.15
715.568	90.74
715.752	87.89
715.936	87.29
716.12	85.88
716.304	86.53
716.488	87.1
716.671	86.08
716.855	84.16
717.039	83.4
717.223	84.82
717.407	85.69
717.59	86.59
717.774	86.8
717.958	86.66
718.142	89.31
718.325	88.91
718.509	88.45
718.693	91.06
718.877	92.88
719.06	93.57
719.244	94.99
719.428	93.11
719.611	93.36
719.795	93.67
719.978	93.99
720.162	93.53
720.345	94.99
720.529	95.08
720.713	95.2
720.896	94.57
721.08	94.4
721.263	92.55
721.446	91.89
721.63	90.69
721.813	92.16
721.997	92.04
722.18	91.08
722.364	89.2
722.547	89.72
722.73	86.65
722.914	89.16
723.097	89.46
723.28	89.7
723.464	90.82
723.647	92.3
723.83	90.73
724.013	91.63
724.197	91.52
724.38	91.04
724.563	91.87
724.746	94.62
724.929	92.91
725.112	94.51
725.296	95.19
725.479	97.48
725.662	94.71
725.845	95.57
726.028	96.14
726.211	95.9
726.394	97.32
726.577	97.21
726.76	96.14
726.943	95.36
727.126	94.22
727.309	93.38
727.492	92.43
727.675	94.18
727.858	92.55
728.041	90.52
728.224	89.61
728.407	89.47
728.589	88.48
728.772	89
728.955	90.02
729.138	88.26
729.321	88.77
729.503	88.29
729.686	87.74
729.869	89.07
730.052	91.24
730.234	92.36
730.417	92.98
730.6	92.58
730.782	92.9
730.965	93.98
731.148	94.22
731.33	95.92
731.513	95.52
731.695	97.24
731.878	98.23
732.061	97.41
732.243	97.12
732.426	97.93
732.608	98.11
732.791	96.58
732.973	97.65
733.156	99.26
733.338	97.51
733.52	97.75
733.703	96.35
733.885	95.93
734.068	96.8
734.25	98.68
734.432	98.41
734.615	101.17
734.797	101.41
734.979	99.89
735.162	98.59
735.344	98.63
735.526	99.03
735.708	99.23
735.891	99.03
736.073	99.26
736.255	99.3
736.437	98.41
736.619	96.42
736.802	99.03
736.984	99.64
737.166	101.88
737.348	102.02
737.53	101.75
737.712	103.78
737.894	105.09
738.076	104.33
738.258	103.1
738.44	104.42
738.622	105.25
738.804	105.18
738.986	104.08
739.168	102.09
739.35	103.37
739.532	106.26
739.714	104.91
739.896	103.92
740.078	105.04
740.259	105.95
740.441	103.79
740.623	102.87
740.805	103.48
740.987	104.9
741.168	105.99
741.35	104.8
741.532	104.5
741.714	104.68
741.895	105.52
742.077	105.19
742.259	104.61
742.44	108.59
742.622	110.36
742.804	108.93
742.985	109.88
743.167	112.47
743.348	115.16
743.53	114.15
743.711	115.16
743.893	116.25
744.075	113.64
744.256	115.7
744.438	116.14
744.619	114.29
744.8	113.95
744.982	112.87
745.163	110.45
745.345	108.94
745.526	108.5
745.707	109.31
745.889	108.22
746.07	109.74
746.252	110.82
746.433	112.02
746.614	112.51
746.795	113.14
746.977	110.95
747.158	112.08
747.339	112.54
747.52	109.66
747.702	109.05
747.883	109.7
748.064	109.26
748.245	107.49
748.426	105.15
748.607	106.19
748.788	103.44
748.97	106.19
749.151	106.06
749.332	106.01
749.513	109.08
749.694	107.81
749.875	108.59
750.056	109.03
750.237	109.55
750.418	108.33
750.599	105.93
750.78	107.57
750.96	107.93
751.141	107.24
751.322	108.08
751.503	106.86
751.684	107.02
751.865	105.3
752.046	105.93
752.226	105.21
752.407	104.04
752.588	104.6
752.769	105.1
752.949	103.3
753.13	102.69
753.311	101.77
753.492	104.88
753.672	105.29
753.853	104.92
754.034	106.04
754.214	106.27
754.395	109.6
754.575	112.81
754.756	112.27
754.937	112.93
755.117	114.67
755.298	114.22
755.478	111.53
755.659	110.88
755.839	110.66
756.02	108.53
756.2	106.83
756.381	103.82
756.561	102.56
756.741	103.7
756.922	103.57
757.102	100.77
757.283	100.46
757.463	99.56
757.643	99.61
757.823	99.74
758.004	97.65
758.184	97.56
758.364	96.28
758.545	94.08
758.725	92.82
758.905	91.24
759.085	92.11
759.265	90.71
759.446	89.19
759.626	87.68
759.806	85.99
759.986	86.84
760.166	86.49
760.346	87.82
760.526	87.86
760.706	87.69
760.886	87.3
761.066	85.48
761.246	84.17
761.426	83.53
761.606	82.42
761.786	83.01
761.966	81.58
762.146	80.38
762.326	80.03
762.506	80.64
762.686	79.57
762.866	80.24
763.046	80.97
763.225	81.92
763.405	82.96
763.585	84.78
763.765	85.84
763.945	87.62
764.124	89.71
764.304	89.46
764.484	90.43
764.664	91.15
764.843	92.18
765.023	91.72
765.203	94.27
765.382	95.98
765.562	98.25
765.741	97.73
765.921	97.47
766.101	97.13
766.28	99.69
766.46	99.4
766.639	102.94
766.819	102.62
766.998	104.79
767.178	104.98
767.357	104.73
767.537	103.02
767.716	105.28
767.896	108.35
768.075	110.83
768.254	112
768.434	113.29
768.613	110.87
768.792	113.61
768.972	113.43
769.151	114.88
769.33	116.91
769.51	118.75
769.689	119.43
769.868	117.21
770.047	117.18
770.226	114.48
770.406	115.93
770.585	115.18
770.764	114.7
770.943	114.21
771.122	113.37
771.301	112.73
771.48	110.74
771.66	109.01
771.839	109.72
772.018	106.76
772.197	107.43
772.376	109.06
772.555	110.19
772.734	110.43
772.913	112.09
773.092	112.44
773.271	115.03
773.449	115.87
773.628	114.24
773.807	115.31
773.986	119.72
774.165	121.01
774.344	119.6
774.523	121.2
774.701	120.15
774.88	119.6
775.059	118.5
775.238	115.88
775.417	115.16
775.595	115.92
775.774	114.15
775.953	114.6
776.131	112.59
776.31	112.14
776.489	109.51
776.667	111.71
776.846	113.31
777.025	113.5
777.203	112.62
777.382	116.92
777.56	116.95
777.739	113.39
777.917	109.07
778.096	113.49
778.274	115.82
778.453	120.93
778.631	116.45
778.81	115.64
778.988	115.35
779.166	117.82
779.345	113.31
779.523	112.76
779.702	116.88
779.88	120.41
780.058	118.75
780.237	114.72
780.415	111.7
780.593	113.9
780.771	113.82
780.95	113.49
781.128	111.7
781.306	112.4
781.484	117.71
781.662	117.62
781.841	117.71
782.019	116.13
782.197	117.78
782.375	118.7
782.553	116.73
782.731	116.88
782.909	119.76
783.087	118.78
783.265	119.64
783.443	114.39
783.621	114.1
783.799	113.65
783.977	116.38
784.155	114.17
784.333	112.6
784.511	113.52
784.689	116.75
784.867	114.63
785.045	115.87
785.223	116.99
785.4	116.67
785.578	117.79
785.756	117.63
785.934	114.42
786.112	115.61
786.289	118.53
786.467	117.46
786.645	111.35
786.823	111.42
787	111.49
787.178	108.4
787.356	110.4
787.533	109.72
787.711	107.37
787.889	107.41
788.066	105.57
788.244	103.29
788.421	104.39
788.599	108.54
788.776	108.44
788.954	107.39
789.131	108.57
789.309	104.67
789.486	103.52
789.664	103.74
789.841	103.7
790.019	103.73
790.196	104.94
790.373	104.89
790.551	104.37
790.728	103.43
790.906	103.51
791.083	100.82
791.26	104.04
791.437	107.62
791.615	108.53
791.792	108.69
791.969	108.52
792.146	106.53
792.324	106.71
792.501	105.9
792.678	104.93
792.855	106.42
793.032	108.41
793.209	109.95
793.387	108.22
793.564	111.35
793.741	110.11
793.918	112.81
794.095	114.46
794.272	113.12
794.449	116.06
794.626	121
794.803	120.41
794.98	121.8
795.157	116.38
795.334	115.57
795.511	114.34
795.688	116.05
795.864	117.19
796.041	117.11
796.218	118.68
796.395	113.68
796.572	112.98
796.749	113.76
796.925	115.52
797.102	116.04
797.279	114.6
797.456	112.58
797.632	114.81
797.809	111.56
797.986	113.83
798.162	112.87
798.339	115.5
798.516	111.69
798.692	108.63
798.869	105.35
799.046	109.4
799.222	113
799.399	111.37
799.575	110.17
799.752	109.7
799.928	106.86
800.105	105.87
800.281	103.34
800.458	107.56
800.634	108.47
800.811	110.56
800.987	109.6
801.163	109.9
801.34	111.35
801.516	111.06
801.692	112.03
801.869	111.48
802.045	112.7
802.221	115.64
802.398	111.02
802.574	113.53
802.75	113.93
802.926	114.16
803.103	110.2
803.279	109.81
803.455	106.7
803.631	102.93
803.807	103.12
803.983	101.01
804.16	99.73
804.336	101.53
804.512	100.81
804.688	97.63
804.864	96.72
805.04	95.27
805.216	94.43
805.392	98.34
805.568	100.86
805.744	101.11
805.92	104.74
806.096	106.32
806.272	109.38
806.448	110.59
806.623	111.89
806.799	114.66
806.975	115.2
807.151	116.25
807.327	110.88
807.503	111.89
807.678	113.03
807.854	110.49
808.03	109.27
808.206	107.49
808.381	103.91
808.557	104.06
808.733	102.07
808.908	101.81
809.084	102.17
809.26	104.32
809.435	104.24
809.611	103
809.787	104.25
809.962	102.45
810.138	100.22
810.313	101.25
810.489	102.49
810.664	100.39
810.84	102.76
811.015	102.86
811.191	101.7
811.366	101.89
811.542	103.2
811.717	104.82
811.892	107.93
812.068	107.08
812.243	107.07
812.419	106.61
812.594	110.77
812.769	110.49
812.944	108.41
813.12	109.13
813.295	109.83
813.47	107.11
813.645	104.31
813.821	100.82
813.996	97.39
814.171	97.03
814.346	99.1
814.521	99.18
814.697	98.89
814.872	102.02
815.047	100.5
815.222	97.47
815.397	97.21
815.572	100.41
815.747	101.08
815.922	106.61
816.097	107.93
816.272	102.57
816.447	99.56
816.622	98.99
816.797	96.44
816.972	97.87
817.147	99.19
817.322	101.27
817.496	97.75
817.671	98.46
817.846	95
818.021	92.74
818.196	92.91
818.371	90.68
818.545	90.9
818.72	89.52
818.895	85.71
819.069	84.85
819.244	85.91
819.419	84.16
819.594	79.57
819.768	79.32
819.943	77.23
820.117	78.36
820.292	76.81
820.467	73.32
820.641	71.91
820.816	71.72
820.99	69.89
821.165	67.06
821.339	65.03
821.514	65.45
821.688	64.04
821.863	62.44
822.037	61.23
822.212	61.61
822.386	62.1
822.56	62.26
822.735	61.93
822.909	62.47
823.084	61.45
823.258	62.65
823.432	62.07
823.606	62.37
823.781	64.47
823.955	64.66
824.129	65.28
824.303	66.25
824.478	64.49
824.652	64.71
824.826	66.45
825	67.83
825.174	68.53
825.348	70.27
825.523	70.29
825.697	71.48
825.871	70.86
826.045	71.13
826.219	69.72
826.393	70.81
826.567	71.13
826.741	67.72
826.915	70.31
827.089	70.77
827.263	70.03
827.437	72.82
827.611	71.48
827.784	73.65
827.958	73.33
828.132	73.96
828.306	76.01
828.48	78.43
828.654	81.07
828.827	78.18
829.001	76.99
829.175	79.91
829.349	81.31
829.522	83.09
829.696	83.08
829.87	84.45
830.044	87.61
830.217	89.63
830.391	88.91
830.565	90.96
830.738	90.86
830.912	93.14
831.085	93.08
831.259	93.53
831.432	92.51
831.606	91.33
831.779	92.56
831.953	90.82
832.126	90.67
832.3	91.78
832.473	91.96
832.647	94.48
832.82	91.49
832.994	88.41
833.167	83.95
833.34	84.91
833.514	85.2
833.687	83.11
833.86	83.05
834.034	82.98
834.207	82.02
834.38	81.35
834.553	81.49
834.727	86.13
834.9	89.96
835.073	91.33
835.246	90.55
835.419	92.18
835.593	92.98
835.766	93.02
835.939	93.9
836.112	96.78
836.285	98.04
836.458	99.36
836.631	97.17
836.804	97
836.977	98.65
837.15	105.07
837.323	107.93
837.496	111.77
837.669	113.76
837.842	118.67
838.015	117.2
838.188	118.99
838.361	115.26
838.533	114.98
838.706	119.11
838.879	123.14
839.052	118.35
839.225	113.71
839.398	111.18
839.57	108.68
839.743	104.75
839.916	105.71
840.088	102.15
840.261	104.82
840.434	105.54
840.607	102.44
840.779	100.17
840.952	99.9
841.124	99.9
841.297	101.35
841.47	103.88
841.642	102.27
841.815	102.96
841.987	104.26
842.16	102.72
842.332	107.18
842.505	109.43
842.677	111.04
842.85	110.29
843.022	113.32
843.194	112.57
843.367	113.83
843.539	116.16
843.712	113.06
843.884	111.57
844.056	116.81
844.229	111.95
844.401	107.48
844.573	106.58
844.745	107.6
844.918	108.24
845.09	111.33
845.262	107.1
845.434	106.61
845.606	107.79
845.779	112.84
845.951	109.75
846.123	111.63
846.295	116.96
846.467	116.15
846.639	112.08
846.811	107.77
846.983	106.77
847.155	107.35
847.327	106.92
847.499	105.2
847.671	103.19
847.843	105.99
848.015	106.14
848.187	104.57
848.359	110.51
848.531	114.09
848.703	118.25
848.875	119.04
849.047	121.11
849.218	119.2
849.39	117.83
849.562	118.3
849.734	116.87
849.905	117.22
850.077	110.22
850.249	106.09
850.421	103.69
850.592	105.69
850.764	102.96
850.936	105.33
851.107	105.51
851.279	109.11
851.451	109.67
851.622	107.36
851.794	105.51
851.965	111.14
852.137	111.74
852.308	117.68
852.48	116.27
852.651	118.32
852.823	114.37
852.994	117.87
853.166	114.26
853.337	122.82
853.509	117.27
853.68	118.44
853.851	118.22
854.023	121.36
854.194	121.45
854.365	123.16
854.537	122.28
854.708	120.34
854.879	115.89
855.05	119
855.222	109.51
855.393	116.68
855.564	115.86
855.735	112.74
855.906	110.17
856.078	105.3
856.249	102.06
856.42	103.83
856.591	110.95
856.762	116.2
856.933	116.82
857.104	120.42
857.275	117.11
857.446	116.6
857.617	115.55
857.788	120.69
857.959	128.75
858.13	132.44
858.301	132.98
858.472	122.85
858.643	115.85
858.814	116.79
858.985	116.76
859.155	118.79
859.326	124.53
859.497	129.98
859.668	123
859.839	118.73
860.009	114.66
860.18	112.06
860.351	116.59
860.522	119.34
860.692	120.05
860.863	114.58
861.034	114.19
861.204	109.61
861.375	108.81
861.546	109.61
861.716	110.03
861.887	114.38
862.057	119.33
862.228	113.71
862.398	116.48
862.569	114.14
862.739	114.4
862.91	115.89
863.08	116.98
863.251	115.66
863.421	118.21
863.592	115.61
863.762	110.92
863.932	103.2
864.103	106.29
864.273	106.74
864.443	104.38
864.614	105.47
864.784	101.31
864.954	102.8
865.125	106.41
865.295	106.8
865.465	109.79
865.635	110.05
865.805	116.78
865.976	113.83
866.146	109.19
866.316	111.18
866.486	113.19
866.656	116.77
866.826	111.44
866.996	106.92
867.166	103.58
867.336	106.96
867.506	109.04
867.676	104.47
867.846	106.35
868.016	111.46
868.186	107.47
868.356	109.35
868.526	108.77
868.696	114.63
868.866	113.21
869.036	115.89
869.206	106.85
869.376	105.57
869.545	107.07
869.715	108.59
869.885	104.12
870.055	106.4
870.224	106.15
870.394	108.4
870.564	108.12
870.734	109.76
870.903	106.89
871.073	113.18
871.243	112.79
871.412	113.96
871.582	110.33
871.751	110.29
871.921	113.11
872.091	109.19
872.26	107.25
872.43	102.46
872.599	103.83
872.769	104.81
872.938	105.61
873.108	106.29
873.277	104.75
873.446	108.21
873.616	109.75
873.785	107.36
873.955	111.44
874.124	108.43
874.293	110.75
874.463	114.26
874.632	116.02
874.801	111.54
874.971	112.73
875.14	119.03
875.309	116.29
875.478	114.64
875.647	112.03
875.817	107.55
875.986	107.1
876.155	108.91
876.324	101.3
876.493	102.38
876.662	103.2
876.831	105.35
877	98.68
877.17	101.95
877.339	102.79
877.508	102.02
877.677	100.63
877.846	103.92
878.015	100.55
878.184	101.19
878.352	102.52
878.521	99.8
878.69	100.08
878.859	92.96
879.028	93.84
879.197	97.11
879.366	99.36
879.534	98.83
879.703	94.42
879.872	91.16
880.041	91.39
880.21	88.69
880.378	90.82
880.547	86.38
880.716	90.67
880.884	86.8
881.053	83.78
881.222	81.71
881.39	80.68
881.559	79.39
881.727	78.22
881.896	76.3
882.065	75.63
882.233	72.06
882.402	72.04
882.57	69.96
882.739	72.41
882.907	71.32
883.076	73.46
883.244	74.89
883.412	76.72
883.581	77.37
883.749	77.69
883.918	78.46
884.086	83.09
884.254	84.99
884.423	87.63
884.591	85.47
884.759	88.31
884.927	87.23
885.096	88.57
885.264	92.76
885.432	98.51
885.6	101.95
885.769	103.03
885.937	99.19
886.105	96.17
886.273	101.77
886.441	103.46
886.609	101.8
886.777	101.29
886.945	100.92
887.113	97.13
887.281	93.66
887.449	94.61
887.617	94.61
887.785	100.51
887.953	103.28
888.121	100.53
888.289	98.56
888.457	101.32
888.625	101.97
888.793	107.95
888.961	110.24
889.129	113.1
889.296	110.44
889.464	113.05
889.632	110.59
889.8	111.47
889.967	112.02
890.135	115.16
