Data from JASIL_2928_Reflection_1.txt Node
Date: Sat Nov 07 20:44:43 EST 2015
User: Geneva
Spectrometer: USB4E03002
Autoset integration time: false
Trigger mode: 4
Integration Time (sec): 1.000000E-1
Scans to average: 10
Electric dark correction enabled: true
Nonlinearity correction enabled: false
Boxcar width: 5
Stray light correction enabled: false
XAxis mode: Wavelengths
Stop averaging: false
Number of Pixels in Spectrum: 3648
>>>>>Begin Spectral Data<<<<<
177.575	-244.71
177.794	-319.69
178.014	-191.76
178.233	5.61
178.452	-9.16
178.672	49
178.891	111.22
179.11	0
179.33	529.54
179.549	-249.23
179.768	109.95
179.987	765.6
180.207	182.94
180.426	115.81
180.645	103.22
180.864	93.48
181.084	91.34
181.303	87.67
181.522	77.95
181.741	80.87
181.96	75.65
182.179	63.67
182.398	44.91
182.618	20.76
182.837	27.05
183.056	0.83
183.275	-7.19
183.494	-12.96
183.713	1.74
183.932	0.54
184.151	-27.05
184.37	-1.8
184.589	10.71
184.808	15
185.027	36.22
185.246	32.26
185.465	36.77
185.684	40.65
185.903	58.27
186.122	70.08
186.341	81.51
186.56	81.54
186.779	89.92
186.998	102.61
187.216	101.82
187.435	90.19
187.654	87.73
187.873	89.99
188.092	79.12
188.311	47.07
188.53	37.47
188.748	28.05
188.967	22
189.186	17.28
189.405	12.41
189.623	-6.91
189.842	18.53
190.061	27.39
190.28	19.33
190.498	19.32
190.717	3.61
190.936	5.64
191.154	-21.48
191.373	-30.31
191.592	-25.07
191.81	-37.07
192.029	-43.91
192.248	-46.55
192.466	-20.1
192.685	-8.96
192.904	7.62
193.122	18
193.341	6.35
193.559	17.68
193.778	24.99
193.996	29.05
194.215	30.04
194.433	46.72
194.652	43.95
194.87	33.75
195.089	48.09
195.307	53.26
195.526	64.03
195.744	77.86
195.963	86.12
196.181	85.03
196.399	85.27
196.618	87.59
196.836	67.44
197.055	62.68
197.273	64.57
197.491	58.43
197.71	61.49
197.928	51.6
198.146	31.94
198.365	22.91
198.583	17.67
198.801	36.81
199.019	42.1
199.238	46.4
199.456	58.59
199.674	59.81
199.892	60.93
200.111	41.96
200.329	45.7
200.547	33.79
200.765	44.8
200.983	59.1
201.202	54.92
201.42	64.51
201.638	46.49
201.856	30.05
202.074	35.8
202.292	29.93
202.51	38.36
202.728	31.54
202.946	34.71
203.165	31.26
203.383	33.12
203.601	37.34
203.819	25.19
204.037	32.08
204.255	38.52
204.473	49.62
204.691	36.93
204.909	29.66
205.127	42.53
205.345	44.97
205.562	37.18
205.78	26.29
205.998	23.55
206.216	27.05
206.434	31.11
206.652	22.88
206.87	21.88
207.088	28.02
207.306	31.18
207.523	25.66
207.741	30.07
207.959	38.39
208.177	40.85
208.395	30.92
208.612	10.27
208.83	10.92
209.048	6.63
209.266	1.62
209.483	-8.1
209.701	-18.33
209.919	-24.42
210.136	-25.75
210.354	3.17
210.572	17.58
210.79	33.2
211.007	42.14
211.225	37.33
211.442	49.84
211.66	51.17
211.878	48.05
212.095	111.08
212.313	108.61
212.53	104.39
212.748	108.69
212.966	106.74
213.183	101.34
213.401	91.63
213.618	92.19
213.836	100.08
214.053	92.03
214.271	95.43
214.488	28.14
214.705	19.73
214.923	24.47
215.14	14.89
215.358	13.97
215.575	15.09
215.793	26.29
216.01	24.07
216.227	15.72
216.445	15.53
216.662	13.18
216.879	15.18
217.097	22.7
217.314	16.67
217.531	21.98
217.749	19.54
217.966	23.44
218.183	21.13
218.4	19.05
218.618	23.15
218.835	27.52
219.052	32.69
219.269	30.3
219.487	26.49
219.704	20.71
219.921	19.26
220.138	20.86
220.355	14.99
220.572	10.1
220.79	10.27
221.007	8.69
221.224	10.83
221.441	9.41
221.658	8.83
221.875	7.28
222.092	12.01
222.309	11.26
222.526	9.3
222.743	8.54
222.96	8.03
223.177	6.63
223.394	6.37
223.611	4.52
223.828	1.6
224.045	2.43
224.262	5.07
224.479	4.45
224.696	5.05
224.913	8.14
225.13	10.93
225.347	12.2
225.564	11.16
225.781	11.68
225.997	11.37
226.214	10.5
226.431	10.07
226.648	8.57
226.865	7.95
227.082	7.25
227.298	6.3
227.515	5.58
227.732	5.27
227.949	5.78
228.165	5.61
228.382	5.68
228.599	6.09
228.816	6.46
229.032	6.1
229.249	6.44
229.466	6.6
229.682	6.75
229.899	7
230.116	7.53
230.332	8.47
230.549	9.8
230.765	10.35
230.982	11.38
231.199	11.56
231.415	13.06
231.632	12.52
231.848	13.53
232.065	14.08
232.281	14.18
232.498	13.7
232.714	13.69
232.931	11.83
233.147	11.09
233.364	9.96
233.58	9.23
233.797	8.92
234.013	9.1
234.23	8.29
234.446	7.88
234.662	7.68
234.879	8.82
235.095	8.21
235.312	9.35
235.528	9.62
235.744	8.56
235.961	8.89
236.177	8.97
236.393	9
236.61	9.69
236.826	9.92
237.042	10.23
237.258	9.59
237.475	9.45
237.691	8.65
237.907	7.61
238.123	8.11
238.339	7.37
238.556	6.91
238.772	6.69
238.988	6.44
239.204	7.18
239.42	7.5
239.636	7.1
239.853	7.32
240.069	7.4
240.285	7.78
240.501	7.9
240.717	8.19
240.933	8.62
241.149	8.77
241.365	9.04
241.581	8.63
241.797	7.99
242.013	7.96
242.229	8
242.445	8.11
242.661	7.9
242.877	8.15
243.093	8.38
243.309	7.92
243.525	7.87
243.741	7.12
243.957	7.43
244.173	8.31
244.388	8.1
244.604	8.02
244.82	7.98
245.036	7.86
245.252	7.6
245.468	7.32
245.683	7.26
245.899	7.43
246.115	7.4
246.331	7.37
246.547	7.17
246.762	7.12
246.978	7.21
247.194	7.13
247.409	7.41
247.625	7.34
247.841	7.46
248.057	7.53
248.272	7.2
248.488	7.6
248.703	7.55
248.919	7.8
249.135	8.08
249.35	7.63
249.566	7.21
249.782	6.55
249.997	6.68
250.213	6.19
250.428	6.31
250.644	6.3
250.859	6.04
251.075	5.86
251.29	5.61
251.506	5.47
251.721	5.6
251.937	6.02
252.152	6.25
252.368	6.1
252.583	6.17
252.798	6.02
253.014	6.22
253.229	6.18
253.445	6.25
253.66	6.01
253.875	6.08
254.091	5.83
254.306	5.87
254.521	5.42
254.737	5.97
254.952	5.92
255.167	5.87
255.383	6.41
255.598	6.75
255.813	6.58
256.028	6.29
256.244	6.32
256.459	6.37
256.674	5.72
256.889	5.65
257.104	5.22
257.32	5.36
257.535	5.3
257.75	4.83
257.965	4.55
258.18	4.5
258.395	4.82
258.61	4.69
258.826	4.7
259.041	4.78
259.256	4.93
259.471	5
259.686	5.05
259.901	5.08
260.116	5.23
260.331	5.33
260.546	5.47
260.761	5.29
260.976	5.44
261.191	5.46
261.406	5.37
261.621	5.23
261.836	4.94
262.05	4.79
262.265	4.56
262.48	4.45
262.695	4.42
262.91	4.46
263.125	4.3
263.34	4.51
263.555	4.38
263.769	4.43
263.984	4.59
264.199	5.31
264.414	5.21
264.629	5.18
264.843	5.04
265.058	4.77
265.273	4.55
265.488	5.03
265.702	4.87
265.917	5.15
266.132	5.3
266.346	4.99
266.561	4.86
266.776	5.05
266.99	5.45
267.205	5.7
267.42	5.74
267.634	5.84
267.849	5.64
268.063	5.46
268.278	4.92
268.492	4.84
268.707	5.15
268.922	5.13
269.136	4.99
269.351	4.85
269.565	4.71
269.78	4.56
269.994	4.37
270.209	4.4
270.423	4.85
270.637	4.98
270.852	5.02
271.066	4.8
271.281	4.78
271.495	4.78
271.709	4.75
271.924	4.65
272.138	4.7
272.353	4.95
272.567	4.77
272.781	4.53
272.996	4.58
273.21	4.49
273.424	4.67
273.638	4.58
273.853	4.46
274.067	4.34
274.281	4.46
274.495	4.54
274.71	4.28
274.924	4.45
275.138	4.51
275.352	4.49
275.566	4.5
275.781	4.58
275.995	4.73
276.209	4.98
276.423	4.91
276.637	4.72
276.851	4.78
277.065	4.9
277.279	4.95
277.493	5.06
277.707	4.99
277.921	5.13
278.135	4.95
278.349	4.7
278.563	4.38
278.777	4.27
278.991	4.59
279.205	4.74
279.419	4.77
279.633	4.6
279.847	4.28
280.061	4.49
280.275	4.5
280.489	4.58
280.703	4.69
280.917	4.89
281.131	5.04
281.344	4.8
281.558	4.59
281.772	4.71
281.986	4.86
282.2	4.89
282.414	4.94
282.627	4.98
282.841	4.96
283.055	4.87
283.269	4.63
283.482	4.51
283.696	4.62
283.91	4.88
284.123	4.64
284.337	4.57
284.551	4.65
284.764	4.48
284.978	4.57
285.192	4.42
285.405	4.34
285.619	4.59
285.833	4.38
286.046	4.27
286.26	4.1
286.473	4.05
286.687	3.94
286.9	3.89
287.114	3.86
287.327	3.84
287.541	3.99
287.754	3.94
287.968	3.69
288.181	4.15
288.395	4.28
288.608	4.19
288.822	4.32
289.035	4.43
289.248	4.49
289.462	4.74
289.675	4.7
289.889	4.66
290.102	4.7
290.315	4.78
290.529	4.7
290.742	4.76
290.955	4.72
291.169	4.75
291.382	4.67
291.595	4.63
291.808	4.41
292.022	4.47
292.235	4.51
292.448	4.84
292.661	4.81
292.875	4.79
293.088	4.66
293.301	4.86
293.514	4.74
293.727	4.8
293.94	4.84
294.153	4.79
294.367	4.5
294.58	4.42
294.793	4.23
295.006	4.31
295.219	4.42
295.432	4.51
295.645	4.69
295.858	4.67
296.071	4.68
296.284	4.57
296.497	4.68
296.71	4.8
296.923	4.92
297.136	4.95
297.349	5.07
297.562	4.97
297.775	4.88
297.988	4.74
298.201	4.85
298.414	4.99
298.626	5.21
298.839	5.28
299.052	5.37
299.265	5.13
299.478	5.26
299.691	5.05
299.903	5.08
300.116	5.17
300.329	5.23
300.542	5.37
300.755	5.29
300.967	5.17
301.18	5.17
301.393	5.2
301.605	5.33
301.818	5.27
302.031	5.36
302.243	5.27
302.456	5.45
302.669	5.24
302.881	5.15
303.094	5.23
303.307	5.49
303.519	5.45
303.732	5.48
303.944	5.74
304.157	5.56
304.37	5.76
304.582	5.92
304.795	5.89
305.007	6.15
305.22	6.3
305.432	6.2
305.645	6.02
305.857	5.95
306.069	5.95
306.282	5.85
306.494	6.08
306.707	5.99
306.919	6.19
307.132	6.02
307.344	5.92
307.556	6.02
307.769	6.28
307.981	6.27
308.193	6.43
308.406	6.23
308.618	6.17
308.83	6.12
309.043	6.23
309.255	6.17
309.467	6.25
309.679	6.36
309.892	6.37
310.104	6.26
310.316	6.26
310.528	6.23
310.74	6.51
310.953	6.88
311.165	7.06
311.377	6.92
311.589	6.98
311.801	7.08
312.013	7.06
312.225	7.08
312.437	7.17
312.649	7.14
312.862	7.43
313.074	7.26
313.286	6.94
313.498	6.76
313.71	7
313.922	6.99
314.134	7.08
314.346	7.25
314.558	7.28
314.77	7.29
314.982	7.3
315.193	7.13
315.405	6.99
315.617	7.05
315.829	7.11
316.041	6.95
316.253	6.88
316.465	6.77
316.677	6.66
316.888	6.72
317.1	6.79
317.312	7.21
317.524	7.07
317.736	7.53
317.947	7.79
318.159	7.95
318.371	8.25
318.583	8.26
318.794	8.36
319.006	8.56
319.218	8.72
319.43	8.71
319.641	8.66
319.853	8.85
320.064	8.8
320.276	8.82
320.488	8.97
320.699	8.79
320.911	9.08
321.123	9.46
321.334	9.63
321.546	9.73
321.757	9.77
321.969	9.83
322.18	10
322.392	9.91
322.603	9.84
322.815	9.85
323.026	10.14
323.238	10.14
323.449	10.17
323.661	10.06
323.872	10.11
324.083	10.29
324.295	10.33
324.506	10.38
324.718	10.59
324.929	10.84
325.14	11.06
325.352	11.25
325.563	11.49
325.774	11.4
325.986	11.55
326.197	11.64
326.408	11.97
326.62	12.09
326.831	12.5
327.042	12.78
327.253	13.04
327.464	13.31
327.676	13.27
327.887	13.52
328.098	13.86
328.309	14.26
328.52	14.54
328.732	14.7
328.943	15.06
329.154	15.28
329.365	15.42
329.576	15.65
329.787	15.59
329.998	16.01
330.209	16.19
330.42	16.45
330.631	16.73
330.842	16.86
331.053	16.94
331.264	17.11
331.475	17.27
331.686	17.42
331.897	17.49
332.108	17.74
332.319	17.81
332.53	17.8
332.741	17.76
332.952	17.66
333.163	17.77
333.374	18.02
333.585	18.03
333.795	18.15
334.006	18.31
334.217	18.44
334.428	18.67
334.639	18.88
334.849	19.17
335.06	19.38
335.271	19.43
335.482	19.45
335.692	19.38
335.903	19.53
336.114	19.4
336.325	19.6
336.535	19.71
336.746	19.51
336.957	19.49
337.167	19.5
337.378	19.62
337.589	19.7
337.799	19.83
338.01	19.91
338.22	20.02
338.431	20.17
338.642	20.13
338.852	20.06
339.063	20.12
339.273	20.19
339.484	20.27
339.694	20.04
339.905	20.12
340.115	20.07
340.326	19.91
340.536	19.84
340.746	19.91
340.957	19.78
341.167	19.82
341.378	19.89
341.588	19.96
341.799	19.76
342.009	19.92
342.219	19.89
342.43	20.02
342.64	20.16
342.85	20.13
343.061	20.07
343.271	20.14
343.481	20.15
343.691	20.29
343.902	20.2
344.112	20.23
344.322	20.37
344.532	20.35
344.743	20.24
344.953	20.14
345.163	20.14
345.373	20.05
345.583	20.14
345.793	20.02
346.004	19.79
346.214	19.81
346.424	19.86
346.634	19.77
346.844	19.9
347.054	19.98
347.264	20.2
347.474	20.13
347.684	20.08
347.894	19.94
348.104	19.96
348.314	20.13
348.524	20.05
348.734	20.07
348.944	19.96
349.154	19.79
349.364	19.79
349.574	19.66
349.784	19.74
349.994	19.92
350.204	19.88
350.413	19.89
350.623	19.84
350.833	19.77
351.043	19.61
351.253	19.65
351.463	19.64
351.672	19.32
351.882	19.47
352.092	19.44
352.302	19.31
352.511	19.34
352.721	19.23
352.931	19.33
353.141	19.17
353.35	19.17
353.56	19.06
353.77	19.01
353.979	19.25
354.189	19.13
354.399	19.17
354.608	19.16
354.818	19.21
355.027	19.21
355.237	19.06
355.447	19.17
355.656	19.21
355.866	19.23
356.075	19.31
356.285	19.18
356.494	19.14
356.704	19.13
356.913	19.08
357.123	18.88
357.332	18.83
357.542	18.91
357.751	18.89
357.96	18.93
358.17	18.95
358.379	18.91
358.589	19.05
358.798	19.07
359.007	19.01
359.217	18.87
359.426	19.05
359.635	19.04
359.845	18.91
360.054	18.89
360.263	18.79
360.472	18.7
360.682	18.72
360.891	18.62
361.1	18.58
361.309	18.57
361.519	18.66
361.728	18.57
361.937	18.6
362.146	18.56
362.355	18.56
362.564	18.58
362.774	18.63
362.983	18.46
363.192	18.38
363.401	18.31
363.61	18.23
363.819	18.27
364.028	18.26
364.237	18.2
364.446	18.31
364.655	18.3
364.864	18.24
365.073	18.2
365.282	18.19
365.491	18.21
365.7	18.33
365.909	18.31
366.118	18.21
366.327	18.25
366.536	18.2
366.745	18.12
366.954	18.15
367.162	18.15
367.371	18.06
367.58	18.12
367.789	18.08
367.998	17.85
368.207	17.98
368.415	18.04
368.624	18
368.833	18.01
369.042	18.1
369.25	18.07
369.459	18.1
369.668	18.09
369.877	18.09
370.085	18.12
370.294	18.18
370.503	18.06
370.711	17.97
370.92	17.79
371.129	17.79
371.337	17.7
371.546	17.59
371.754	17.54
371.963	17.52
372.171	17.49
372.38	17.34
372.589	17.32
372.797	17.23
373.006	17.14
373.214	17.09
373.423	17.07
373.631	17.04
373.84	17.21
374.048	17.24
374.256	17.15
374.465	17
374.673	17.04
374.882	16.85
375.09	16.83
375.298	16.93
375.507	16.99
375.715	17.01
375.923	16.88
376.132	16.64
376.34	16.5
376.548	16.62
376.757	16.65
376.965	16.68
377.173	16.85
377.381	16.85
377.59	16.75
377.798	16.73
378.006	16.69
378.214	16.71
378.423	16.79
378.631	16.79
378.839	16.73
379.047	16.83
379.255	16.78
379.463	16.71
379.671	16.67
379.879	16.63
380.088	16.62
380.296	16.62
380.504	16.64
380.712	16.65
380.92	16.69
381.128	16.6
381.336	16.54
381.544	16.59
381.752	16.57
381.96	16.49
382.168	16.49
382.376	16.47
382.584	16.4
382.791	16.35
382.999	16.16
383.207	16.2
383.415	16.19
383.623	16.12
383.831	16.05
384.039	16.05
384.247	16.12
384.454	16.32
384.662	16.43
384.87	16.34
385.078	16.33
385.285	16.46
385.493	16.3
385.701	16.3
385.909	16.3
386.116	16.19
386.324	16.2
386.532	16.13
386.739	15.9
386.947	15.69
387.155	15.64
387.362	15.63
387.57	15.6
387.778	15.66
387.985	15.68
388.193	15.67
388.4	15.76
388.608	15.54
388.816	15.47
389.023	15.5
389.231	15.42
389.438	15.62
389.646	15.55
389.853	15.48
390.061	15.35
390.268	15.31
390.475	15.2
390.683	15.09
390.89	15.14
391.098	15.11
391.305	14.97
391.512	14.93
391.72	14.77
391.927	14.66
392.135	14.65
392.342	14.58
392.549	14.49
392.756	14.52
392.964	14.46
393.171	14.45
393.378	14.49
393.586	14.57
393.793	14.6
394	14.57
394.207	14.61
394.414	14.48
394.622	14.55
394.829	14.49
395.036	14.42
395.243	14.42
395.45	14.37
395.657	14.22
395.864	14.05
396.072	14.05
396.279	14.04
396.486	13.98
396.693	14.1
396.9	14.06
397.107	13.98
397.314	13.94
397.521	13.94
397.728	13.94
397.935	14
398.142	13.99
398.349	13.85
398.556	13.82
398.763	13.84
398.97	13.68
399.177	13.64
399.383	13.77
399.59	13.71
399.797	13.69
400.004	13.61
400.211	13.5
400.418	13.49
400.625	13.49
400.831	13.46
401.038	13.47
401.245	13.42
401.452	13.32
401.658	13.32
401.865	13.36
402.072	13.37
402.279	13.33
402.485	13.36
402.692	13.34
402.899	13.42
403.105	13.42
403.312	13.31
403.519	13.32
403.725	13.44
403.932	13.44
404.138	13.37
404.345	13.33
404.552	13.36
404.758	13.37
404.965	13.35
405.171	13.24
405.378	13.17
405.584	13.25
405.791	13.28
405.997	13.16
406.204	13.09
406.41	13.1
406.617	13.08
406.823	13.08
407.029	13.04
407.236	13.07
407.442	13.03
407.649	13.14
407.855	13.08
408.061	13.09
408.268	13.06
408.474	12.96
408.68	12.97
408.887	12.87
409.093	12.76
409.299	12.76
409.505	12.69
409.712	12.71
409.918	12.57
410.124	12.55
410.33	12.48
410.537	12.46
410.743	12.49
410.949	12.43
411.155	12.47
411.361	12.49
411.567	12.49
411.773	12.49
411.98	12.51
412.186	12.52
412.392	12.51
412.598	12.53
412.804	12.57
413.01	12.55
413.216	12.52
413.422	12.55
413.628	12.53
413.834	12.49
414.04	12.52
414.246	12.48
414.452	12.37
414.658	12.32
414.864	12.26
415.07	12.15
415.275	12.12
415.481	12.1
415.687	12.02
415.893	12
416.099	11.97
416.305	11.96
416.511	11.95
416.716	11.97
416.922	11.93
417.128	11.87
417.334	11.95
417.539	11.92
417.745	11.92
417.951	11.89
418.157	11.88
418.362	11.89
418.568	11.88
418.774	11.85
418.979	11.81
419.185	11.79
419.391	11.76
419.596	11.7
419.802	11.72
420.008	11.69
420.213	12.02
420.419	12
420.624	11.96
420.83	11.94
421.035	11.92
421.241	11.93
421.446	12.01
421.652	12.01
421.857	12.02
422.063	11.98
422.268	11.97
422.474	11.64
422.679	11.62
422.885	11.62
423.09	11.56
423.295	11.55
423.501	11.51
423.706	11.44
423.911	11.44
424.117	11.39
424.322	11.38
424.527	11.35
424.733	11.3
424.938	11.32
425.143	11.32
425.349	11.33
425.554	11.34
425.759	11.34
425.964	11.32
426.169	11.34
426.375	11.37
426.58	11.38
426.785	11.37
426.99	11.4
427.195	11.33
427.4	11.3
427.605	11.3
427.811	11.3
428.016	11.33
428.221	11.35
428.426	11.31
428.631	11.27
428.836	11.24
429.041	11.26
429.246	11.27
429.451	11.33
429.656	11.29
429.861	11.25
430.066	11.25
430.271	11.24
430.476	11.17
430.681	11.14
430.886	11.12
431.09	11.14
431.295	11.13
431.5	11.09
431.705	11.04
431.91	11.05
432.115	11.11
432.32	11.1
432.524	11.13
432.729	11.12
432.934	11.15
433.139	11.2
433.343	11.25
433.548	11.26
433.753	11.28
433.958	11.33
434.162	11.33
434.367	11.3
434.572	11.27
434.776	11.23
434.981	11.24
435.186	11.19
435.39	11.13
435.595	11.12
435.799	11.14
436.004	11.17
436.209	11.14
436.413	11.17
436.618	11.15
436.822	11.18
437.027	11.16
437.231	11.2
437.436	11.2
437.64	11.21
437.845	11.16
438.049	11.14
438.253	11.07
438.458	11.06
438.662	11.06
438.867	11.06
439.071	11.1
439.275	11.14
439.48	11.14
439.684	11.14
439.888	11.15
440.093	11.15
440.297	11.18
440.501	11.18
440.706	11.19
440.91	11.22
441.114	11.22
441.318	11.17
441.523	11.17
441.727	11.17
441.931	11.26
442.135	11.23
442.339	11.21
442.543	11.17
442.748	11.16
442.952	11.13
443.156	11.05
443.36	11.04
443.564	11.02
443.768	11.01
443.972	10.98
444.176	10.87
444.38	10.89
444.584	10.84
444.788	10.84
444.992	10.86
445.196	10.85
445.4	10.85
445.604	10.85
445.808	10.86
446.012	10.83
446.216	10.8
446.42	10.8
446.624	10.8
446.828	10.81
447.032	10.81
447.235	10.77
447.439	10.79
447.643	10.81
447.847	10.83
448.051	10.8
448.254	10.81
448.458	10.87
448.662	10.87
448.866	10.83
449.069	10.81
449.273	10.87
449.477	10.91
449.681	10.92
449.884	10.95
450.088	10.95
450.292	11.01
450.495	11.02
450.699	11.03
450.902	11.06
451.106	11.07
451.31	11.11
451.513	11.03
451.717	10.95
451.92	10.96
452.124	10.86
452.327	10.81
452.531	10.79
452.734	10.76
452.938	10.66
453.141	10.6
453.345	10.63
453.548	10.58
453.752	10.63
453.955	10.67
454.158	10.62
454.362	10.68
454.565	10.65
454.769	10.59
454.972	10.62
455.175	10.64
455.379	10.63
455.582	10.57
455.785	10.58
455.988	10.55
456.192	10.51
456.395	10.5
456.598	10.5
456.801	10.53
457.005	10.58
457.208	10.54
457.411	10.56
457.614	10.57
457.817	10.59
458.021	10.59
458.224	10.56
458.427	10.6
458.63	10.59
458.833	10.57
459.036	10.59
459.239	10.54
459.442	10.53
459.645	10.51
459.848	10.51
460.051	10.55
460.254	10.56
460.457	10.58
460.66	10.58
460.863	10.6
461.066	10.62
461.269	10.63
461.472	10.68
461.675	10.74
461.878	10.77
462.081	10.76
462.284	10.77
462.486	10.77
462.689	10.8
462.892	10.8
463.095	10.8
463.298	10.81
463.5	10.78
463.703	10.81
463.906	10.83
464.109	10.8
464.311	10.88
464.514	10.87
464.717	10.89
464.92	10.88
465.122	10.88
465.325	10.89
465.528	10.85
465.73	10.82
465.933	10.8
466.135	10.78
466.338	10.83
466.541	10.79
466.743	10.79
466.946	10.79
467.148	10.83
467.351	10.87
467.553	10.87
467.756	10.96
467.958	11
468.161	11.02
468.363	11.02
468.566	11.02
468.768	11.03
468.971	11.02
469.173	10.99
469.375	10.94
469.578	10.98
469.78	10.93
469.983	10.9
470.185	10.88
470.387	10.86
470.59	10.8
470.792	10.78
470.994	10.83
471.196	10.86
471.399	10.85
471.601	10.87
471.803	10.77
472.005	10.82
472.208	10.81
472.41	10.82
472.612	10.87
472.814	10.94
473.016	10.96
473.218	10.94
473.421	10.92
473.623	10.89
473.825	10.89
474.027	10.94
474.229	10.93
474.431	10.95
474.633	10.92
474.835	10.88
475.037	10.85
475.239	10.87
475.441	10.83
475.643	10.75
475.845	10.78
476.047	10.81
476.249	10.8
476.451	10.8
476.653	10.8
476.855	10.84
477.057	10.81
477.258	10.82
477.46	10.82
477.662	10.82
477.864	10.87
478.066	10.86
478.268	10.83
478.469	10.86
478.671	10.82
478.873	10.75
479.075	10.7
479.276	10.73
479.478	10.68
479.68	10.64
479.882	10.64
480.083	10.65
480.285	10.66
480.487	10.64
480.688	10.59
480.89	10.64
481.091	10.64
481.293	10.65
481.495	10.63
481.696	10.61
481.898	10.6
482.099	10.58
482.301	10.57
482.502	10.55
482.704	10.54
482.905	10.55
483.107	10.54
483.308	10.54
483.51	10.53
483.711	10.54
483.913	10.54
484.114	10.56
484.315	10.56
484.517	10.57
484.718	10.58
484.92	10.6
485.121	10.59
485.322	10.58
485.524	10.58
485.725	10.59
485.926	10.6
486.127	10.6
486.329	10.6
486.53	10.62
486.731	10.61
486.932	10.61
487.134	10.59
487.335	10.59
487.536	10.61
487.737	10.64
487.938	10.63
488.139	10.62
488.341	10.64
488.542	10.62
488.743	10.62
488.944	10.63
489.145	10.64
489.346	10.65
489.547	10.68
489.748	10.69
489.949	10.65
490.15	10.67
490.351	10.71
490.552	10.73
490.753	10.73
490.954	10.74
491.155	10.75
491.356	10.74
491.557	10.75
491.758	10.76
491.959	10.75
492.159	10.77
492.36	10.79
492.561	10.78
492.762	10.79
492.963	10.82
493.164	10.85
493.364	10.84
493.565	10.89
493.766	10.93
493.967	10.94
494.167	11.01
494.368	11.05
494.569	11.06
494.769	11.05
494.97	11.01
495.171	11.03
495.371	11.02
495.572	11.05
495.773	11.11
495.973	11.13
496.174	11.13
496.375	11.14
496.575	11.17
496.776	11.21
496.976	11.22
497.177	11.29
497.377	11.29
497.578	11.34
497.778	11.35
497.979	11.34
498.179	11.39
498.38	11.41
498.58	11.42
498.78	11.41
498.981	11.45
499.181	11.51
499.382	11.51
499.582	11.55
499.782	11.56
499.983	11.61
500.183	11.64
500.383	11.6
500.584	11.62
500.784	11.63
500.984	11.68
501.184	11.7
501.385	11.73
501.585	11.78
501.785	11.84
501.985	11.85
502.185	11.86
502.386	11.89
502.586	11.94
502.786	12.01
502.986	12.06
503.186	12.12
503.386	12.14
503.586	12.2
503.786	12.23
503.987	12.28
504.187	12.35
504.387	12.39
504.587	12.44
504.787	12.49
504.987	12.51
505.187	12.57
505.387	12.56
505.587	12.6
505.786	12.67
505.986	12.69
506.186	12.67
506.386	12.72
506.586	12.78
506.786	12.84
506.986	12.89
507.186	12.94
507.386	12.98
507.585	13.04
507.785	13.07
507.985	13.1
508.185	13.18
508.384	13.22
508.584	13.26
508.784	13.28
508.984	13.32
509.183	13.36
509.383	13.44
509.583	13.46
509.782	13.54
509.982	13.59
510.182	13.65
510.381	13.69
510.581	13.77
510.781	13.82
510.98	13.89
511.18	13.94
511.379	14
511.579	14.05
511.778	14.13
511.978	14.17
512.177	14.27
512.377	14.31
512.576	14.36
512.776	14.43
512.975	14.49
513.175	14.57
513.374	14.66
513.573	14.71
513.773	14.77
513.972	14.83
514.172	14.92
514.371	14.94
514.57	14.98
514.77	15.07
514.969	15.14
515.168	15.2
515.367	15.3
515.567	15.32
515.766	15.38
515.965	15.42
516.164	15.5
516.364	15.52
516.563	15.58
516.762	15.66
516.961	15.69
517.16	15.74
517.359	15.81
517.559	15.86
517.758	15.92
517.957	15.99
518.156	16.06
518.355	16.12
518.554	16.16
518.753	16.2
518.952	16.26
519.151	16.32
519.35	16.39
519.549	16.42
519.748	16.45
519.947	16.51
520.146	16.56
520.345	16.57
520.544	16.61
520.743	16.69
520.942	16.74
521.141	16.79
521.339	16.81
521.538	16.85
521.737	16.93
521.936	16.97
522.135	17.02
522.333	17.04
522.532	17.14
522.731	17.19
522.93	17.22
523.129	17.32
523.327	17.37
523.526	17.46
523.725	17.46
523.923	17.52
524.122	17.6
524.321	17.62
524.519	17.67
524.718	17.67
524.917	17.68
525.115	17.72
525.314	17.77
525.512	17.84
525.711	17.88
525.909	17.93
526.108	17.94
526.306	17.92
526.505	17.98
526.703	18.03
526.902	18.11
527.1	18.14
527.299	18.19
527.497	18.21
527.696	18.22
527.894	18.24
528.092	18.27
528.291	18.3
528.489	18.35
528.688	18.37
528.886	18.39
529.084	18.39
529.283	18.43
529.481	18.46
529.679	18.47
529.877	18.48
530.076	18.52
530.274	18.57
530.472	18.66
530.67	18.69
530.869	18.76
531.067	18.83
531.265	18.87
531.463	18.92
531.661	18.94
531.859	18.98
532.057	19.03
532.255	19.06
532.454	19.09
532.652	19.08
532.85	19.11
533.048	19.11
533.246	19.11
533.444	19.13
533.642	19.18
533.84	19.2
534.038	19.23
534.236	19.32
534.434	19.35
534.632	19.38
534.83	19.42
535.027	19.44
535.225	19.5
535.423	19.56
535.621	19.59
535.819	19.58
536.017	19.58
536.215	19.61
536.412	19.58
536.61	19.6
536.808	19.63
537.006	19.66
537.203	19.72
537.401	19.73
537.599	19.74
537.797	19.82
537.994	19.85
538.192	19.92
538.39	19.96
538.587	19.95
538.785	20.02
538.983	20.05
539.18	20.04
539.378	20.06
539.575	20.09
539.773	20.11
539.97	20.08
540.168	20.11
540.366	20.12
540.563	20.11
540.761	20.1
540.958	20.12
541.155	20.11
541.353	20.13
541.55	20.13
541.748	20.12
541.945	20.15
542.143	20.18
542.34	20.18
542.537	20.22
542.735	20.28
542.932	20.34
543.129	20.35
543.327	20.39
543.524	20.43
543.721	20.51
543.919	20.58
544.116	20.59
544.313	20.65
544.51	20.68
544.708	20.69
544.905	20.64
545.102	20.64
545.299	20.67
545.496	20.67
545.693	20.69
545.891	20.67
546.088	20.65
546.285	20.61
546.482	20.61
546.679	20.63
546.876	20.63
547.073	20.69
547.27	20.75
547.467	20.76
547.664	20.78
547.861	20.8
548.058	20.81
548.255	20.84
548.452	20.9
548.649	20.92
548.846	20.94
549.043	20.95
549.24	20.96
549.437	20.94
549.633	20.93
549.83	20.91
550.027	20.93
550.224	20.93
550.421	20.96
550.618	20.96
550.814	20.99
551.011	20.97
551.208	21.04
551.405	21.08
551.601	21.12
551.798	21.13
551.995	21.19
552.191	21.17
552.388	21.19
552.585	21.2
552.781	21.25
552.978	21.23
553.175	21.24
553.371	21.22
553.568	21.2
553.764	21.19
553.961	21.22
554.157	21.29
554.354	21.34
554.55	21.4
554.747	21.36
554.943	21.36
555.14	21.4
555.336	21.42
555.533	21.44
555.729	21.48
555.926	21.53
556.122	21.51
556.318	21.45
556.515	21.45
556.711	21.45
556.907	21.52
557.104	21.61
557.3	21.6
557.496	21.63
557.693	21.64
557.889	21.63
558.085	21.63
558.281	21.67
558.478	21.67
558.674	21.68
558.87	21.67
559.066	21.67
559.262	21.63
559.459	21.66
559.655	21.71
559.851	21.68
560.047	21.67
560.243	21.68
560.439	21.7
560.635	21.7
560.831	21.67
561.027	21.66
561.223	21.68
561.419	21.72
561.615	21.75
561.811	21.72
562.007	21.76
562.203	21.81
562.399	21.84
562.595	21.82
562.791	21.84
562.987	21.9
563.183	21.92
563.379	21.9
563.575	21.86
563.771	21.82
563.966	21.83
564.162	21.86
564.358	21.88
564.554	21.87
564.75	21.91
564.945	21.96
565.141	21.95
565.337	21.99
565.533	22.04
565.728	22.09
565.924	22.1
566.12	22.18
566.315	22.23
566.511	22.22
566.707	22.23
566.902	22.27
567.098	22.27
567.293	22.36
567.489	22.37
567.684	22.37
567.88	22.37
568.076	22.43
568.271	22.35
568.467	22.3
568.662	22.29
568.858	22.25
569.053	22.25
569.248	22.26
569.444	22.17
569.639	22.2
569.835	22.24
570.03	22.24
570.225	22.21
570.421	22.27
570.616	22.33
570.812	22.34
571.007	22.38
571.202	22.35
571.397	22.34
571.593	22.38
571.788	22.38
571.983	22.38
572.178	22.44
572.374	22.45
572.569	22.48
572.764	22.44
572.959	22.48
573.154	22.49
573.35	22.55
573.545	22.55
573.74	22.58
573.935	22.59
574.13	22.59
574.325	22.56
574.52	22.52
574.715	22.47
574.91	22.5
575.105	22.53
575.3	22.54
575.495	22.51
575.69	22.57
575.885	22.55
576.08	22.53
576.275	22.53
576.47	22.55
576.665	22.66
576.86	22.69
577.055	22.69
577.25	22.66
577.444	22.77
577.639	22.84
577.834	22.85
578.029	22.93
578.224	22.92
578.418	22.97
578.613	23
578.808	22.96
579.003	22.93
579.197	22.91
579.392	22.94
579.587	22.86
579.781	22.82
579.976	22.82
580.171	22.77
580.365	22.81
580.56	22.69
580.755	22.7
580.949	22.79
581.144	22.9
581.338	22.95
581.533	22.94
581.727	22.89
581.922	22.88
582.116	22.91
582.311	22.92
582.505	22.98
582.7	23.07
582.894	23.08
583.089	23.04
583.283	22.99
583.478	22.92
583.672	22.97
583.866	23.01
584.061	23.04
584.255	23.04
584.449	23.08
584.644	23.07
584.838	23.04
585.032	23.06
585.226	23.02
585.421	23.05
585.615	23.08
585.809	23.13
586.003	23.12
586.198	23.19
586.392	23.18
586.586	23.21
586.78	23.23
586.974	23.26
587.168	23.31
587.363	23.37
587.557	23.36
587.751	23.41
587.945	23.38
588.139	23.39
588.333	23.33
588.527	23.27
588.721	23.27
588.915	23.26
589.109	23.23
589.303	23.18
589.497	23.19
589.691	23.23
589.885	23.22
590.079	23.2
590.273	23.23
590.466	23.27
590.66	23.35
590.854	23.35
591.048	23.36
591.242	23.38
591.436	23.4
591.629	23.43
591.823	23.41
592.017	23.43
592.211	23.44
592.404	23.51
592.598	23.49
592.792	23.48
592.986	23.49
593.179	23.51
593.373	23.51
593.567	23.45
593.76	23.43
593.954	23.44
594.147	23.46
594.341	23.48
594.535	23.45
594.728	23.43
594.922	23.47
595.115	23.48
595.309	23.48
595.502	23.51
595.696	23.47
595.889	23.49
596.083	23.46
596.276	23.42
596.47	23.35
596.663	23.36
596.856	23.33
597.05	23.27
597.243	23.24
597.437	23.25
597.63	23.27
597.823	23.33
598.017	23.32
598.21	23.32
598.403	23.37
598.596	23.47
598.79	23.46
598.983	23.55
599.176	23.56
599.369	23.57
599.563	23.57
599.756	23.53
599.949	23.49
600.142	23.43
600.335	23.48
600.528	23.41
600.722	23.36
600.915	23.42
601.108	23.39
601.301	23.39
601.494	23.39
601.687	23.36
601.88	23.41
602.073	23.48
602.266	23.52
602.459	23.53
602.652	23.61
602.845	23.69
603.038	23.74
603.231	23.72
603.424	23.74
603.617	23.7
603.809	23.7
604.002	23.71
604.195	23.7
604.388	23.69
604.581	23.62
604.774	23.6
604.966	23.56
605.159	23.49
605.352	23.51
605.545	23.52
605.737	23.65
605.93	23.61
606.123	23.58
606.316	23.58
606.508	23.62
606.701	23.76
606.894	23.8
607.086	23.8
607.279	23.76
607.471	23.83
607.664	23.85
607.857	23.82
608.049	23.94
608.242	23.95
608.434	23.98
608.627	24.05
608.819	23.98
609.012	23.96
609.204	23.94
609.397	24
609.589	24.04
609.782	24.06
609.974	24.08
610.166	24.09
610.359	24.18
610.551	24.23
610.743	24.28
610.936	24.34
611.128	24.39
611.32	24.45
611.513	24.49
611.705	24.54
611.897	24.51
612.09	24.54
612.282	24.54
612.474	24.44
612.666	24.35
612.858	24.3
613.051	24.22
613.243	24.21
613.435	24.23
613.627	24.19
613.819	24.06
614.011	24.06
614.203	23.97
614.395	23.88
614.588	23.85
614.78	23.89
614.972	23.9
615.164	23.87
615.356	23.89
615.548	23.8
615.74	23.84
615.932	23.79
616.124	23.85
616.315	23.94
616.507	23.96
616.699	24.07
616.891	24.1
617.083	24.05
617.275	24.17
617.467	24.1
617.659	24.14
617.85	24.15
618.042	24.27
618.234	24.23
618.426	24.21
618.618	24.29
618.809	24.28
619.001	24.23
619.193	24.29
619.384	24.26
619.576	24.37
619.768	24.45
619.959	24.4
620.151	24.4
620.343	24.4
620.534	24.37
620.726	24.32
620.917	24.34
621.109	24.39
621.301	24.4
621.492	24.42
621.684	24.32
621.875	24.28
622.067	24.28
622.258	24.2
622.45	24.23
622.641	24.32
622.832	24.33
623.024	24.38
623.215	24.39
623.407	24.36
623.598	24.39
623.789	24.51
623.981	24.48
624.172	24.59
624.363	24.59
624.555	24.53
624.746	24.51
624.937	24.57
625.129	24.42
625.32	24.38
625.511	24.43
625.702	24.39
625.893	24.36
626.085	24.4
626.276	24.32
626.467	24.34
626.658	24.4
626.849	24.41
627.04	24.4
627.231	24.49
627.422	24.59
627.614	24.56
627.805	24.6
627.996	24.52
628.187	24.55
628.378	24.55
628.569	24.57
628.76	24.57
628.951	24.55
629.142	24.51
629.332	24.55
629.523	24.54
629.714	24.55
629.905	24.53
630.096	24.61
630.287	24.54
630.478	24.55
630.669	24.61
630.859	24.54
631.05	24.55
631.241	24.62
631.432	24.61
631.623	24.6
631.813	24.54
632.004	24.42
632.195	24.44
632.385	24.49
632.576	24.58
632.767	24.59
632.957	24.65
633.148	24.67
633.339	24.61
633.529	24.57
633.72	24.52
633.91	24.49
634.101	24.61
634.292	24.58
634.482	24.55
634.673	24.49
634.863	24.5
635.054	24.52
635.244	24.51
635.435	24.53
635.625	24.51
635.815	24.53
636.006	24.57
636.196	24.6
636.387	24.55
636.577	24.59
636.767	24.63
636.958	24.62
637.148	24.63
637.338	24.64
637.529	24.67
637.719	24.66
637.909	24.68
638.099	24.81
638.29	24.82
638.48	25
638.67	24.97
638.86	24.95
639.05	24.9
639.241	24.89
639.431	24.92
639.621	24.87
639.811	24.98
640.001	24.93
640.191	24.87
640.381	24.77
640.571	24.63
640.761	24.59
640.951	24.57
641.141	24.54
641.331	24.51
641.521	24.43
641.711	24.52
641.901	24.44
642.091	24.51
642.281	24.47
642.471	24.49
642.661	24.52
642.851	24.62
643.041	24.7
643.231	24.73
643.42	24.8
643.61	24.82
643.8	24.66
643.99	24.71
644.18	24.74
644.369	24.75
644.559	24.77
644.749	24.83
644.939	24.71
645.128	24.58
645.318	24.62
645.508	24.62
645.697	24.61
645.887	24.77
646.076	24.81
646.266	24.83
646.456	24.83
646.645	24.84
646.835	24.76
647.024	24.83
647.214	24.91
647.403	24.82
647.593	24.82
647.782	24.96
647.972	24.9
648.161	24.75
648.351	24.76
648.54	24.76
648.73	24.81
648.919	24.9
649.108	24.96
649.298	24.92
649.487	25.02
649.677	24.97
649.866	24.89
650.055	24.97
650.244	25.02
650.434	24.97
650.623	24.96
650.812	24.92
651.002	24.82
651.191	24.77
651.38	24.77
651.569	24.79
651.758	24.77
651.947	24.66
652.137	24.62
652.326	24.56
652.515	24.53
652.704	24.61
652.893	24.64
653.082	24.75
653.271	24.77
653.46	24.78
653.649	24.68
653.838	24.68
654.027	24.81
654.216	24.7
654.405	24.76
654.594	24.8
654.783	24.75
654.972	24.77
655.161	24.73
655.35	24.78
655.539	24.81
655.728	24.88
655.916	24.88
656.105	24.89
656.294	24.96
656.483	24.94
656.672	25.03
656.86	25.07
657.049	24.99
657.238	24.96
657.427	24.87
657.615	24.87
657.804	24.82
657.993	24.84
658.181	24.83
658.37	24.82
658.559	24.86
658.747	24.77
658.936	24.64
659.125	24.77
659.313	24.83
659.502	24.86
659.69	24.87
659.879	24.94
660.067	24.98
660.256	25.01
660.444	25.07
660.633	25.03
660.821	25.02
661.01	25.15
661.198	25.13
661.387	25.19
661.575	25.2
661.763	25.23
661.952	25.22
662.14	25.17
662.328	25.07
662.517	25.05
662.705	25.2
662.893	25.28
663.082	25.27
663.27	25.18
663.458	25.07
663.646	25.1
663.834	25.2
664.023	25.26
664.211	25.31
664.399	25.32
664.587	25.37
664.775	25.24
664.963	25.15
665.152	25.02
665.34	25.05
665.528	25.14
665.716	25.13
665.904	25.07
666.092	25
666.28	25.09
666.468	25.21
666.656	25.16
666.844	25.26
667.032	25.36
667.22	25.43
667.408	25.5
667.596	25.47
667.784	25.58
667.971	25.58
668.159	25.54
668.347	25.5
668.535	25.28
668.723	25.27
668.911	25.33
669.098	25.2
669.286	25.28
669.474	25.27
669.662	25.09
669.849	25.03
670.037	24.99
670.225	25.06
670.413	25.06
670.6	25.29
670.788	25.28
670.976	25.18
671.163	25.31
671.351	25.31
671.538	25.32
671.726	25.64
671.913	25.66
672.101	25.62
672.289	25.58
672.476	25.57
672.664	25.51
672.851	25.54
673.039	25.49
673.226	25.44
673.413	25.45
673.601	25.43
673.788	25.26
673.976	25.14
674.163	25.26
674.35	25.24
674.538	25.21
674.725	25.24
674.912	25.28
675.1	25.29
675.287	25.32
675.474	25.36
675.662	25.37
675.849	25.4
676.036	25.53
676.223	25.59
676.411	25.61
676.598	25.65
676.785	25.7
676.972	25.71
677.159	25.83
677.346	25.87
677.533	25.86
677.721	25.92
677.908	25.9
678.095	25.9
678.282	25.87
678.469	25.96
678.656	26.07
678.843	26.01
679.03	25.99
679.217	25.96
679.404	25.83
679.591	25.79
679.778	25.66
679.964	25.54
680.151	25.55
680.338	25.49
680.525	25.45
680.712	25.3
680.899	25.34
681.086	25.36
681.272	25.34
681.459	25.54
681.646	25.46
681.833	25.54
682.02	25.65
682.206	25.63
682.393	25.57
682.58	25.45
682.766	25.49
682.953	25.45
683.14	25.41
683.326	25.49
683.513	25.43
683.7	25.57
683.886	25.53
684.073	25.51
684.259	25.56
684.446	25.67
684.632	25.72
684.819	25.68
685.005	25.83
685.192	25.96
685.378	25.86
685.565	25.78
685.751	25.71
685.938	25.76
686.124	25.72
686.31	25.7
686.497	25.7
686.683	25.9
686.87	25.9
687.056	25.69
687.242	25.53
687.429	25.53
687.615	25.6
687.801	25.65
687.987	25.72
688.174	25.74
688.36	25.8
688.546	25.78
688.732	25.65
688.918	25.74
689.105	25.87
689.291	25.84
689.477	25.97
689.663	25.9
689.849	25.82
690.035	25.68
690.221	25.7
690.407	25.59
690.593	25.53
690.779	25.61
690.965	25.63
691.151	25.73
691.337	25.8
691.523	25.76
691.709	25.9
691.895	26.07
692.081	26.15
692.267	26.24
692.453	26.28
692.639	26.31
692.825	26.21
693.011	26.1
693.196	25.97
693.382	26.11
693.568	26.02
693.754	26.01
693.94	25.97
694.125	26.03
694.311	26.06
694.497	26.12
694.682	26.03
694.868	26.05
695.054	26.17
695.239	26.17
695.425	26.16
695.611	26.31
695.796	26.18
695.982	26.24
696.168	26.16
696.353	26.2
696.539	26.12
696.724	26.21
696.91	26.3
697.095	26.28
697.281	26.33
697.466	26.32
697.652	26.18
697.837	26.21
698.023	26.15
698.208	26.19
698.393	26.13
698.579	26.2
698.764	26.22
698.949	26.2
699.135	26.12
699.32	26.16
699.505	26.11
699.691	26.14
699.876	26.17
700.061	26.08
700.246	26.11
700.432	26.11
700.617	26.11
700.802	26.24
700.987	26.23
701.172	26.33
701.358	26.18
701.543	26.24
701.728	26.29
701.913	26.31
702.098	26.54
702.283	26.47
702.468	26.4
702.653	26.28
702.838	26.31
703.023	26.28
703.208	26.29
703.393	26.39
703.578	26.29
703.763	26.35
703.948	26.23
704.133	26.11
704.318	25.98
704.503	26.23
704.688	26.42
704.873	26.4
705.057	26.43
705.242	26.45
705.427	26.55
705.612	26.71
705.797	26.76
705.981	26.93
706.166	27.1
706.351	27.22
706.536	27.14
706.72	26.94
706.905	26.9
707.09	26.98
707.274	26.93
707.459	26.63
707.644	26.49
707.828	26.45
708.013	26.42
708.197	26.32
708.382	26.25
708.567	26.27
708.751	26.38
708.936	26.24
709.12	26.2
709.305	26.02
709.489	26.15
709.673	26.11
709.858	25.89
710.042	25.85
710.227	25.86
710.411	25.91
710.596	25.79
710.78	25.82
710.964	25.76
711.149	25.81
711.333	26.22
711.517	26.47
711.702	26.61
711.886	26.71
712.07	26.66
712.254	26.57
712.438	26.62
712.623	26.78
712.807	26.82
712.991	26.88
713.175	26.77
713.359	26.57
713.544	26.4
713.728	26.5
713.912	26.59
714.096	26.62
714.28	26.7
714.464	26.7
714.648	26.63
714.832	26.53
715.016	26.62
715.2	26.62
715.384	26.63
715.568	26.57
715.752	26.48
715.936	26.58
716.12	26.59
716.304	26.64
716.488	26.65
716.671	26.62
716.855	26.52
717.039	26.54
717.223	26.52
717.407	26.42
717.59	26.43
717.774	26.21
717.958	26.11
718.142	26.02
718.325	26.02
718.509	25.91
718.693	25.86
718.877	25.87
719.06	25.84
719.244	25.79
719.428	25.95
719.611	26
719.795	26.19
719.978	26.37
720.162	26.54
720.345	26.51
720.529	26.64
720.713	26.7
720.896	26.82
721.08	26.78
721.263	26.81
721.446	26.78
721.63	26.85
721.813	26.95
721.997	26.77
722.18	26.77
722.364	26.93
722.547	27
722.73	27.01
722.914	27.05
723.097	27.14
723.28	27.2
723.464	27.43
723.647	27.4
723.83	27.21
724.013	27.24
724.197	27.48
724.38	27.49
724.563	27.2
724.746	27.41
724.929	27.46
725.112	27.32
725.296	27.31
725.479	27.1
725.662	26.97
725.845	26.98
726.028	26.95
726.211	26.73
726.394	26.63
726.577	26.76
726.76	26.5
726.943	26.49
727.126	26.41
727.309	26.51
727.492	26.49
727.675	26.58
727.858	26.44
728.041	26.54
728.224	26.59
728.407	26.56
728.589	26.37
728.772	26.43
728.955	26.38
729.138	26.45
729.321	26.39
729.503	26.46
729.686	26.38
729.869	26.6
730.052	26.62
730.234	26.45
730.417	26.44
730.6	26.58
730.782	26.36
730.965	26.31
731.148	26.56
731.33	26.63
731.513	26.46
731.695	26.7
731.878	26.55
732.061	26.47
732.243	26.59
732.426	26.53
732.608	26.66
732.791	26.8
732.973	26.73
733.156	26.56
733.338	26.57
733.52	26.58
733.703	26.49
733.885	26.46
734.068	26.24
734.25	26.14
734.432	26.23
734.615	26.17
734.797	26.02
734.979	26.15
735.162	26.11
735.344	25.99
735.526	26.18
735.708	26.04
735.891	26.34
736.073	26.79
736.255	26.93
736.437	26.9
736.619	26.72
736.802	26.94
736.984	27.06
737.166	27.32
737.348	27.12
737.53	26.84
737.712	26.8
737.894	26.68
738.076	26.58
738.258	26.42
738.44	26.48
738.622	26.61
738.804	26.75
738.986	26.75
739.168	26.45
739.35	26.8
739.532	26.92
739.714	27.03
739.896	27.21
740.078	27.01
740.259	27.27
740.441	27.34
740.623	27.64
740.805	27.48
740.987	27.37
741.168	27.25
741.35	26.94
741.532	26.96
741.714	26.85
741.895	26.85
742.077	26.87
742.259	26.74
742.44	26.8
742.622	26.44
742.804	26.45
742.985	26.62
743.167	27.04
743.348	27.23
743.53	27.47
743.711	27.58
743.893	27.42
744.075	27.48
744.256	27.44
744.438	27.21
744.619	27.52
744.8	27.32
744.982	27.21
745.163	26.97
745.345	27.06
745.526	27.11
745.707	27.07
745.889	27.01
746.07	27.13
746.252	27.14
746.433	27.17
746.614	26.98
746.795	27.29
746.977	27.28
747.158	27.36
747.339	27.09
747.52	27.01
747.702	27.06
747.883	27.14
748.064	26.98
748.245	26.87
748.426	26.99
748.607	27.02
748.788	26.84
748.97	26.66
749.151	26.92
749.332	26.96
749.513	26.8
749.694	26.9
749.875	26.74
750.056	26.77
750.237	27.03
750.418	26.78
750.599	26.63
750.78	26.58
750.96	27.05
751.141	26.95
751.322	27.31
751.503	27.44
751.684	27.43
751.865	27.59
752.046	27.86
752.226	27.56
752.407	27.82
752.588	28
752.769	28.37
752.949	28.13
753.13	28
753.311	27.84
753.492	27.72
753.672	27.71
753.853	27.58
754.034	27.61
754.214	27.9
754.395	27.79
754.575	27.91
754.756	27.45
754.937	27.42
755.117	27.51
755.298	27.75
755.478	28.12
755.659	28.5
755.839	28.43
756.02	28.35
756.2	28.26
756.381	28.03
756.561	27.58
756.741	27.83
756.922	27.88
757.102	27.97
757.283	27.65
757.463	27.22
757.643	26.67
757.823	26.81
758.004	26.73
758.184	27.02
758.364	27.41
758.545	27.69
758.725	27.67
758.905	27.41
759.085	27.39
759.265	27.3
759.446	27.37
759.626	27.42
759.806	27.57
759.986	27.25
760.166	26.94
760.346	26.65
760.526	26.85
760.706	26.99
760.886	27.13
761.066	26.83
761.246	27.01
761.426	27.1
761.606	26.89
761.786	26.64
761.966	27.02
762.146	26.88
762.326	27.05
762.506	26.92
762.686	26.9
762.866	26.56
763.046	26.62
763.225	26.66
763.405	26.6
763.585	26.92
763.765	27.09
763.945	26.99
764.124	27.14
764.304	27.11
764.484	27.18
764.664	27.13
764.843	27.65
765.023	27.77
765.203	27.88
765.382	28.01
765.562	28.04
765.741	28.14
765.921	28.05
766.101	27.97
766.28	27.98
766.46	27.82
766.639	27.82
766.819	27.43
766.998	27.53
767.178	27.24
767.357	27.18
767.537	27.05
767.716	26.75
767.896	26.93
768.075	26.97
768.254	26.99
768.434	27.29
768.613	27.05
768.792	27.2
768.972	27.27
769.151	27.26
769.33	27.66
769.51	27.75
769.689	27.82
769.868	27.51
770.047	27.56
770.226	27.5
770.406	27.4
770.585	27.6
770.764	27.6
770.943	27.82
771.122	28.12
771.301	27.91
771.48	28.32
771.66	28.34
771.839	28.52
772.018	28.65
772.197	28.68
772.376	28.57
772.555	28.8
772.734	29.38
772.913	29.18
773.092	29.12
773.271	29.11
773.449	28.54
773.628	28.79
773.807	28.8
773.986	28.57
774.165	28.48
774.344	28.76
774.523	28.76
774.701	28.37
774.88	28.03
775.059	27.99
775.238	27.87
775.417	27.87
775.595	27.72
775.774	28.01
775.953	28.31
776.131	28.01
776.31	27.63
776.489	27.51
776.667	27.51
776.846	27.58
777.025	27.41
777.203	27.34
777.382	27.26
777.56	27.05
777.739	26.92
777.917	26.52
778.096	26.78
778.274	27.18
778.453	27.34
778.631	26.98
778.81	27.11
778.988	27.03
779.166	27.01
779.345	27.39
779.523	27.66
779.702	27.84
779.88	28.23
780.058	28.58
780.237	28.31
780.415	28.56
780.593	28.9
780.771	28.74
780.95	29.08
781.128	29.25
781.306	29.27
781.484	29.49
781.662	29.06
781.841	28.73
782.019	28.49
782.197	28.87
782.375	28.29
782.553	28.36
782.731	28.72
782.909	28.5
783.087	28.67
783.265	28.58
783.443	28.33
783.621	28.16
783.799	28.45
783.977	28.15
784.155	27.7
784.333	27.7
784.511	28.19
784.689	28.39
784.867	29.27
785.045	28.51
785.223	28.5
785.4	28.18
785.578	28.66
785.756	28.37
785.934	28.37
786.112	28.56
786.289	28.72
786.467	28.42
786.645	27.82
786.823	27.05
787	27.52
787.178	27.66
787.356	27.9
787.533	27.72
787.711	27.84
787.889	28.35
788.066	28.49
788.244	28.59
788.421	28.25
788.599	28.56
788.776	28.68
788.954	28.93
789.131	28.46
789.309	28.59
789.486	28.51
789.664	28.71
789.841	28.36
790.019	28.09
790.196	28.26
790.373	28.13
790.551	27.77
790.728	28.01
790.906	27.62
791.083	27.34
791.26	26.83
791.437	26.73
791.615	26.7
791.792	26.85
791.969	27.03
792.146	26.91
792.324	27.46
792.501	27.86
792.678	27.92
792.855	27.8
793.032	28.08
793.209	28.54
793.387	29.12
793.564	28.76
793.741	28.77
793.918	28.89
794.095	28.87
794.272	28.87
794.449	28.51
794.626	28.67
794.803	28.55
794.98	28.36
795.157	28.31
795.334	28.14
795.511	27.89
795.688	27.5
795.864	27.39
796.041	27.4
796.218	27.06
796.395	27.09
796.572	26.61
796.749	26.86
796.925	27.19
797.102	27
797.279	26.67
797.456	27.64
797.632	27.95
797.809	27.89
797.986	27.61
798.162	27.92
798.339	28.01
798.516	27.64
798.692	27.61
798.869	27.69
799.046	27.64
799.222	28.08
799.399	27.35
799.575	27.63
799.752	26.84
799.928	26.57
800.105	25.75
800.281	25.76
800.458	25.9
800.634	25.69
800.811	25.79
800.987	26.15
801.163	25.93
801.34	25.74
801.516	25.62
801.692	26.42
801.869	26.95
802.045	27.55
802.221	27.86
802.398	27.85
802.574	28.35
802.75	28.76
802.926	28.93
803.103	28.16
803.279	29.15
803.455	28.91
803.631	29.37
803.807	29.32
803.983	29.5
804.16	28.86
804.336	29.19
804.512	29.26
804.688	29.07
804.864	28.92
805.04	29.42
805.216	28.76
805.392	28.96
805.568	28.83
805.744	29.02
805.92	28.65
806.096	28.82
806.272	29.06
806.448	28.71
806.623	27.55
806.799	27.76
806.975	28.47
807.151	28.6
807.327	27.91
807.503	28.06
807.678	28.2
807.854	28.37
808.03	28.4
808.206	28.13
808.381	28.44
808.557	28.69
808.733	27.88
808.908	27.74
809.084	27.74
809.26	27.88
809.435	27.36
809.611	26.73
809.787	26.61
809.962	26.39
810.138	26.57
810.313	26.31
810.489	26.8
810.664	27.39
810.84	27.3
811.015	27.99
811.191	28.27
811.366	27.78
811.542	28.28
811.717	28.81
811.892	29.81
812.068	29.53
812.243	29.35
812.419	28.74
812.594	29.25
812.769	29.39
812.944	28.66
813.12	28.05
813.295	28.99
813.47	29.3
813.645	29.48
813.821	29.81
813.996	29.4
814.171	29.12
814.346	29.68
814.521	29.31
814.697	28.74
814.872	28.82
815.047	29.57
815.222	28.7
815.397	28.2
815.572	28.6
815.747	28.01
815.922	28.58
816.097	28.94
816.272	29.45
816.447	29.4
816.622	29.55
816.797	29.04
816.972	29.31
817.147	29.3
817.322	28.74
817.496	27.9
817.671	27.6
817.846	27.89
818.021	27.73
818.196	27.01
818.371	26.58
818.545	26.65
818.72	27.34
818.895	27.18
819.069	27.88
819.244	28.52
819.419	28.63
819.594	28.35
819.768	28.05
819.943	27.91
820.117	27.88
820.292	27.96
820.467	27.93
820.641	27.79
820.816	27.7
820.99	27.57
821.165	27.53
821.339	27.46
821.514	27.49
821.688	27.44
821.863	27.53
822.037	27.54
822.212	27.48
822.386	27.38
822.56	27.26
822.735	27.12
822.909	27.14
823.084	26.97
823.258	26.98
823.432	26.98
823.606	26.87
823.781	26.76
823.955	26.74
824.129	26.75
824.303	26.86
824.478	26.98
824.652	27.24
824.826	27.07
825	27.24
825.174	27.16
825.348	27.2
825.523	27.39
825.697	27.24
825.871	27.3
826.045	27.49
826.219	27.51
826.393	27.62
826.567	27.77
826.741	27.89
826.915	27.95
827.089	27.95
827.263	28.08
827.437	28.13
827.611	28.46
827.784	28.34
827.958	27.9
828.132	28.11
828.306	27.9
828.48	27.6
828.654	27.55
828.827	27.38
829.001	27.55
829.175	27.22
829.349	27.3
829.522	27.55
829.696	27.82
829.87	28.66
830.044	28.84
830.217	29.28
830.391	29.43
830.565	29.88
830.738	29.85
830.912	29.63
831.085	29.87
831.259	29.88
831.432	29.11
831.606	28.63
831.779	28.22
831.953	27.49
832.126	27.54
832.3	27.43
832.473	26.89
832.647	27.16
832.82	27.17
832.994	27.13
833.167	26.88
833.34	26.89
833.514	26.87
833.687	26.89
833.86	27.04
834.034	27.16
834.207	27.53
834.38	27.73
834.553	27.65
834.727	27.68
834.9	27.68
835.073	27.69
835.246	27.7
835.419	27.93
835.593	28.26
835.766	28.55
835.939	28.02
836.112	27.84
836.285	27.86
836.458	28.16
836.631	28.33
836.804	27.89
836.977	27.55
837.15	28.08
837.323	27.71
837.496	27.3
837.669	27.25
837.842	28.29
838.015	28.52
838.188	28.25
838.361	28.46
838.533	27.82
838.706	27.96
838.879	28.88
839.052	27.91
839.225	29.18
839.398	29.97
839.57	29.23
839.743	27.86
839.916	28.31
840.088	28.26
840.261	27.3
840.434	27.84
840.607	27.73
840.779	28.26
840.952	29.71
841.124	29.26
841.297	29.08
841.47	29.24
841.642	31.04
841.815	30
841.987	30.46
842.16	31.24
842.332	30.61
842.505	30.38
842.677	29.72
842.85	28.65
843.022	28.96
843.194	28.48
843.367	28.91
843.539	27.51
843.712	26.97
843.884	26.64
844.056	26.6
844.229	25.91
844.401	26.57
844.573	26.67
844.745	26.6
844.918	27.08
845.09	27.1
845.262	27.39
845.434	29.45
845.606	29.7
845.779	30.23
845.951	30.55
846.123	32.75
846.295	32.69
846.467	33.1
846.639	32.77
846.811	30.3
846.983	30.68
847.155	30.69
847.327	28.75
847.499	29.12
847.671	28.6
847.843	27.54
848.015	26.47
848.187	27.52
848.359	26.1
848.531	26.61
848.703	26.97
848.875	27.91
849.047	26.67
849.218	27.66
849.39	29.6
849.562	31.3
849.734	32.52
849.905	32.2
850.077	32.45
850.249	33.38
850.421	33.47
850.592	34.37
850.764	34.12
850.936	34.89
851.107	32.16
851.279	28.41
851.451	25.2
851.622	23.41
851.794	25.38
851.965	24.32
852.137	25.17
852.308	24.39
852.48	24.56
852.651	24.55
852.823	25.31
852.994	27.31
853.166	29.97
853.337	31.89
853.509	34.81
853.68	33.31
853.851	34.51
854.023	31.9
854.194	31.92
854.365	33.46
854.537	33.22
854.708	34.31
854.879	34.04
855.05	33.45
855.222	32.42
855.393	29.15
855.564	29.57
855.735	27.68
855.906	28.12
856.078	27.68
856.249	26.25
856.42	26.17
856.591	25.41
856.762	25.46
856.933	26.45
857.104	26.21
857.275	27.97
857.446	27.82
857.617	26.33
857.788	28.24
857.959	28.07
858.13	28.1
858.301	27.3
858.472	25.18
858.643	25.21
858.814	23.69
858.985	25.38
859.155	25.33
859.326	25.79
859.497	27.67
859.668	26.04
859.839	27.73
860.009	27.88
860.18	27.32
860.351	30.77
860.522	30.43
860.692	31.95
860.863	32.38
861.034	33.02
861.204	32
861.375	31.18
861.546	32.86
861.716	31.47
861.887	30.93
862.057	31.89
862.228	29.49
862.398	28.74
862.569	29.15
862.739	29.65
862.91	29.08
863.08	32.65
863.251	30.6
863.421	29.12
863.592	31.38
863.762	31.96
863.932	31.07
864.103	30.43
864.273	29.15
864.443	26.63
864.614	25.95
864.784	26.73
864.954	25.13
865.125	27.91
865.295	27.96
865.465	25.97
865.635	25.87
865.805	26.41
865.976	25.01
866.146	28.15
866.316	28
866.486	27.76
866.656	27.89
866.826	26.3
866.996	26.62
867.166	25.45
867.336	27.19
867.506	26.6
867.676	25.12
867.846	26.43
868.016	26.18
868.186	25.76
868.356	26.99
868.526	23.84
868.696	23.71
868.866	22.76
869.036	22.01
869.206	22.61
869.376	23.48
869.545	23.97
869.715	24.05
869.885	24.9
870.055	25.36
870.224	22.43
870.394	23.95
870.564	24.59
870.734	23.81
870.903	25.98
871.073	25.13
871.243	25.81
871.412	26.47
871.582	27.09
871.751	25.62
871.921	25.83
872.091	25.17
872.26	26.86
872.43	24.16
872.599	25.69
872.769	25.82
872.938	23.98
873.108	23.28
873.277	21.77
873.446	25.04
873.616	24.41
873.785	25.74
873.955	28.04
874.124	26.86
874.293	31.37
874.463	30.41
874.632	29.79
874.801	30.57
874.971	29.53
875.14	32.36
875.309	29.73
875.478	30.68
875.647	30.03
875.817	29.73
875.986	27.77
876.155	24.03
876.324	23.97
876.493	25.19
876.662	26.13
876.831	26.94
877	26.61
877.17	26.58
877.339	29.28
877.508	31.77
877.677	31.17
877.846	32.38
878.015	33.21
878.184	35.96
878.352	36.53
878.521	36.25
878.69	36.41
878.859	35.98
879.028	35.9
879.197	34.07
879.366	32.75
879.534	33.07
879.703	32.3
879.872	32.1
880.041	31
880.21	30.37
880.378	29.62
880.547	29.44
880.716	29.32
880.884	28.87
881.053	28.87
881.222	28.56
881.39	28.23
881.559	28.47
881.727	28.42
881.896	28.49
882.065	28.25
882.233	28.24
882.402	27.8
882.57	27.63
882.739	27.39
882.907	27.47
883.076	27.72
883.244	27.91
883.412	27.87
883.581	27.51
883.749	27.16
883.918	27.54
884.086	28.34
884.254	28.68
884.423	28.59
884.591	29.46
884.759	28.92
884.927	29.23
885.096	28.91
885.264	29.73
885.432	31.08
885.6	31.46
885.769	31.47
885.937	31.07
886.105	30.71
886.273	30.43
886.441	30.09
886.609	30.07
886.777	30.49
886.945	31.37
887.113	31.15
887.281	30.32
887.449	30.38
887.617	29.3
887.785	29.17
887.953	30.62
888.121	30.12
888.289	31.06
888.457	31.71
888.625	30.11
888.793	29.75
888.961	26.93
889.129	25.91
889.296	27.26
889.464	27.76
889.632	26.62
889.8	26.42
889.967	28.12
890.135	27.08
