Data from JASIL_3170_Reflection_3.txt Node
Date: Thu Nov 12 22:56:31 EST 2015
User: Geneva
Spectrometer: USB4E03002
Autoset integration time: false
Trigger mode: 4
Integration Time (sec): 1.000000E-1
Scans to average: 10
Electric dark correction enabled: true
Nonlinearity correction enabled: false
Boxcar width: 5
Stray light correction enabled: false
XAxis mode: Wavelengths
Stop averaging: false
Number of Pixels in Spectrum: 3648
>>>>>Begin Spectral Data<<<<<
177.575	105.94
177.794	97.9
178.014	98.65
178.233	312.78
178.452	104.21
178.672	-5.6
178.891	15.37
179.11	-22.14
179.33	-43.79
179.549	-73.97
179.768	346.75
179.987	110.53
180.207	37.91
180.426	-28.63
180.645	113.43
180.864	135.23
181.084	214.06
181.303	1106.91
181.522	306.85
181.741	150.74
181.96	349.13
182.179	275.58
182.398	662.43
182.618	543.76
182.837	-128.59
183.056	-135.11
183.275	-58.48
183.494	-52.65
183.713	-25.22
183.932	-4.44
184.151	-4.59
184.37	18.14
184.589	-8.75
184.808	-13.08
185.027	2.94
185.246	0.78
185.465	59.75
185.684	69.8
185.903	60.09
186.122	22.15
186.341	49.94
186.56	73.56
186.779	283.48
186.998	117.05
187.216	62.31
187.435	108.8
187.654	310.07
187.873	211.57
188.092	-37.21
188.311	-569.71
188.53	-2872.78
188.748	2330.43
188.967	119.43
189.186	27.61
189.405	30.13
189.623	74.51
189.842	40.25
190.061	8.47
190.28	-54.81
190.498	-34.32
190.717	-77.73
190.936	-147.82
191.154	-106.3
191.373	-428.9
191.592	-230.58
191.81	-132.15
192.029	-1170.71
192.248	-436.87
192.466	-300.76
192.685	-352.51
192.904	-457.01
193.122	-452.47
193.341	-331.14
193.559	-587.28
193.778	-144.67
193.996	-215.44
194.215	-163.33
194.433	-155.61
194.652	-329.68
194.87	-212.69
195.089	-220.88
195.307	-180.94
195.526	-149.23
195.744	481.06
195.963	87.95
196.181	89.2
196.399	63.73
196.618	36.8
196.836	78.01
197.055	72.73
197.273	97.4
197.491	144.68
197.71	108.39
197.928	158.24
198.146	280.51
198.365	741.59
198.583	941.27
198.801	1045.56
199.019	-375.16
199.238	-84.11
199.456	-367.35
199.674	-190.31
199.892	-381.8
200.111	-260.4
200.329	-251.3
200.547	-97.82
200.765	-149.31
200.983	-24.4
201.202	23.24
201.42	-37.97
201.638	6.34
201.856	-5.68
202.074	5.86
202.292	51.45
202.51	5.11
202.728	24.25
202.946	23.18
203.165	-18.44
203.383	-93.87
203.601	-95.7
203.819	-50.8
204.037	-87.68
204.255	-52.37
204.473	-73.18
204.691	-110.93
204.909	-46.05
205.127	-28.92
205.345	-54.12
205.562	-30.03
205.78	2.45
205.998	6.71
206.216	-3.75
206.434	10.02
206.652	-34.6
206.87	-48.25
207.088	-2598.44
207.306	-390.9
207.523	547.37
207.741	463.27
207.959	-1592.05
208.177	-354.74
208.395	-452.08
208.612	-176.81
208.83	-70.41
209.048	-81.24
209.266	-104.93
209.483	-27.15
209.701	-55.84
209.919	-39.7
210.136	-10.25
210.354	-18.2
210.572	-32.95
210.79	-14.66
211.007	-12.04
211.225	-28.79
211.442	-19.8
211.66	-13.4
211.878	-25.03
212.095	199.48
212.313	167.23
212.53	186.57
212.748	150.69
212.966	147.06
213.183	136.86
213.401	125.61
213.618	145.54
213.836	154.23
214.053	136.69
214.271	129.64
214.488	-1957.14
214.705	-283.53
214.923	-101.54
215.14	-113.84
215.358	-95.48
215.575	-34.03
215.793	-4.04
216.01	87.43
216.227	-7781.82
216.445	-21.3
216.662	-162.36
216.879	-208.24
217.097	-155.78
217.314	-126.92
217.531	-129.14
217.749	-86.78
217.966	-89.77
218.183	-122.77
218.4	-117.33
218.618	-61.09
218.835	-62.23
219.052	-22.58
219.269	-0.62
219.487	0.2
219.704	-7.31
219.921	-15.12
220.138	-46.37
220.355	-75.11
220.572	-48.65
220.79	-2.3
221.007	-16.34
221.224	-51.92
221.441	-35.83
221.658	-12.58
221.875	-0.66
222.092	-23.99
222.309	-4.45
222.526	2.37
222.743	27.83
222.96	38.82
223.177	44.27
223.394	-9.27
223.611	12.99
223.828	-20.54
224.045	-27.95
224.262	-39.13
224.479	-27.03
224.696	-17.16
224.913	-34.79
225.13	-82.95
225.347	-57.92
225.564	-37.84
225.781	-14.35
225.997	-26.51
226.214	-13.45
226.431	-38.05
226.648	-30.35
226.865	-33.7
227.082	-48.95
227.298	-32.7
227.515	-22.47
227.732	-29.51
227.949	-43.24
228.165	-29.58
228.382	-20.94
228.599	-14.49
228.816	-2.91
229.032	-5.05
229.249	5.23
229.466	17.61
229.682	3.93
229.899	3.02
230.116	17.78
230.332	26.5
230.549	23.05
230.765	28.99
230.982	17.51
231.199	24.88
231.415	32.49
231.632	27
231.848	13.07
232.065	30.79
232.281	35.96
232.498	23.61
232.714	21.6
232.931	17.8
233.147	-9.25
233.364	-6.22
233.58	-15.13
233.797	-26.33
234.013	-33.88
234.23	-17.93
234.446	-38.09
234.662	-46.96
234.879	-45.82
235.095	-42.72
235.312	-64.76
235.528	-27.06
235.744	-36.57
235.961	-45.85
236.177	-54.79
236.393	-42.47
236.61	-43.98
236.826	-30
237.042	-31.49
237.258	-34.08
237.475	-47.11
237.691	-44.54
237.907	-46.54
238.123	-37.68
238.339	-27.76
238.556	-26.23
238.772	-28.1
238.988	-13.44
239.204	-8.3
239.42	-6.39
239.636	-2.44
239.853	9.93
240.069	14.37
240.285	10.86
240.501	9.55
240.717	9.53
240.933	8.39
241.149	10.2
241.365	3.67
241.581	-1.23
241.797	0.65
242.013	2.57
242.229	-2.99
242.445	0.69
242.661	-0.14
242.877	-6.8
243.093	-1.22
243.309	1.04
243.525	1.91
243.741	-0.16
243.957	6.14
244.173	1.8
244.388	-6.11
244.604	-2.03
244.82	-3.2
245.036	-5.34
245.252	1.28
245.468	1.8
245.683	2.18
245.899	3.36
246.115	5.45
246.331	2.5
246.547	0.11
246.762	0.4
246.978	-1.35
247.194	-2.73
247.409	-1.22
247.625	-1.43
247.841	-3.31
248.057	-5.04
248.272	-6.74
248.488	-6.1
248.703	-3.09
248.919	0.06
249.135	4.18
249.35	5.47
249.566	6.38
249.782	7.86
249.997	7.19
250.213	6.69
250.428	4.32
250.644	-5.57
250.859	-7.46
251.075	-9.02
251.29	-4.01
251.506	-3.29
251.721	-2.8
251.937	1.86
252.152	-1.94
252.368	-3.26
252.583	-6.59
252.798	-1.75
253.014	1.43
253.229	-1.34
253.445	1.08
253.66	1.24
253.875	-0.64
254.091	-7.76
254.306	-12.79
254.521	-18.34
254.737	-18.99
254.952	-17.12
255.167	-19.85
255.383	-13.02
255.598	-15.7
255.813	-15.85
256.028	-20.17
256.244	-23.8
256.459	-21.84
256.674	-19.52
256.889	-13.37
257.104	-6.51
257.32	-2.71
257.535	0.42
257.75	-4.5
257.965	-1.39
258.18	-2.61
258.395	-3.51
258.61	1.64
258.826	6.62
259.041	5.75
259.256	2.32
259.471	0.59
259.686	-1.13
259.901	-1.45
260.116	0.39
260.331	0.52
260.546	2.72
260.761	4.61
260.976	4.42
261.191	2.33
261.406	4.5
261.621	3.38
261.836	4.89
262.05	3.84
262.265	-1.26
262.48	6.21
262.695	8.05
262.91	4.25
263.125	0.61
263.34	-2.8
263.555	-3.76
263.769	-10.22
263.984	-2.82
264.199	-7
264.414	-6.61
264.629	-1.44
264.843	-9.43
265.058	-11.82
265.273	-9.29
265.488	-10.49
265.702	-11.63
265.917	-16.27
266.132	-19.14
266.346	-14.49
266.561	-14.62
266.776	-11.42
266.99	-13.29
267.205	-16.82
267.42	-17.46
267.634	-16.83
267.849	-12.44
268.063	-11.38
268.278	-10.02
268.492	-13.25
268.707	-17.02
268.922	-16.32
269.136	-14.61
269.351	-5.53
269.565	-1.41
269.78	-0.3
269.994	-1.23
270.209	-0.73
270.423	1.61
270.637	4.05
270.852	10.09
271.066	9.85
271.281	8.94
271.495	7.37
271.709	0.26
271.924	-0.62
272.138	-0.98
272.353	-3.16
272.567	-6.06
272.781	-7.67
272.996	-7.53
273.21	-7.01
273.424	-6.25
273.638	-3.62
273.853	-3.92
274.067	-0.72
274.281	0.95
274.495	1.24
274.71	7.5
274.924	10.64
275.138	14.07
275.352	10.6
275.566	7.84
275.781	4
275.995	4.97
276.209	3.39
276.423	-0.88
276.637	-4.13
276.851	-2.77
277.065	-9.34
277.279	-9.88
277.493	-13.74
277.707	-10.11
277.921	-5.81
278.135	-1.5
278.349	6.58
278.563	7.21
278.777	9.36
278.991	11.92
279.205	9.66
279.419	12.8
279.633	13.87
279.847	15.01
280.061	14.98
280.275	11.41
280.489	9.34
280.703	-2.35
280.917	1.27
281.131	1.94
281.344	-4.27
281.558	-4.27
281.772	-7.37
281.986	-10.54
282.2	-10.85
282.414	-9.63
282.627	-7.92
282.841	-7.32
283.055	0.06
283.269	-1.65
283.482	-1.41
283.696	2.65
283.91	4.56
284.123	4.04
284.337	5.74
284.551	4.08
284.764	3.98
284.978	4.48
285.192	3.83
285.405	2.72
285.619	5.07
285.833	5.8
286.046	7.74
286.26	8.47
286.473	9.75
286.687	10.2
286.9	12.12
287.114	10.36
287.327	10.3
287.541	11.14
287.754	8.74
287.968	5.9
288.181	5.64
288.395	2.75
288.608	3.28
288.822	0.89
289.035	-1.09
289.248	-0.86
289.462	1.71
289.675	2.57
289.889	3.39
290.102	7.38
290.315	8.12
290.529	7.53
290.742	8.37
290.955	3.97
291.169	7.63
291.382	10.2
291.595	8.63
291.808	7.72
292.022	5.92
292.235	6.13
292.448	4.53
292.661	3.75
292.875	0.63
293.088	-1.4
293.301	1.58
293.514	-0.69
293.727	-3.56
293.94	-3.35
294.153	-3.06
294.367	-6.03
294.58	-4.72
294.793	-4.58
295.006	-5.84
295.219	-3.32
295.432	-0.8
295.645	-0.84
295.858	1.45
296.071	2.57
296.284	4.12
296.497	5.25
296.71	7.98
296.923	7.03
297.136	5.79
297.349	5.13
297.562	6.89
297.775	6.58
297.988	6.37
298.201	5.46
298.414	6.01
298.626	6.72
298.839	6.13
299.052	5.78
299.265	5.47
299.478	7.63
299.691	6.74
299.903	5.5
300.116	7.45
300.329	7.54
300.542	6.58
300.755	4.52
300.967	1.77
301.18	0.1
301.393	0.91
301.605	2.98
301.818	1.22
302.031	3.37
302.243	0.94
302.456	0.48
302.669	2.4
302.881	-1.04
303.094	-0.27
303.307	0.96
303.519	1.11
303.732	-0.07
303.944	-2.13
304.157	-2.88
304.37	-2.45
304.582	-0.43
304.795	-2.84
305.007	-6.39
305.22	-1.48
305.432	0.6
305.645	-0.05
305.857	2.93
306.069	3.46
306.282	3.29
306.494	5.37
306.707	5.88
306.919	6.1
307.132	5.41
307.344	4.41
307.556	0.9
307.769	-0.93
307.981	0.99
308.193	-3.19
308.406	-1.85
308.618	-1.09
308.83	-1.93
309.043	-0.4
309.255	-0.91
309.467	-1.01
309.679	4.04
309.892	7.23
310.104	8.58
310.316	7.24
310.528	9.03
310.74	6.96
310.953	7.41
311.165	7.55
311.377	6.09
311.589	6.35
311.801	5.79
312.013	-2.15
312.225	-3.51
312.437	-5.72
312.649	-7.25
312.862	-4.37
313.074	-4.51
313.286	-4.52
313.498	-5.78
313.71	-8.06
313.922	-9.31
314.134	-9.29
314.346	-2.13
314.558	-3.85
314.77	-0.94
314.982	0.29
315.193	-4.48
315.405	-5.03
315.617	-6.23
315.829	-3.03
316.041	0.67
316.253	4.4
316.465	5.88
316.677	4.92
316.888	7.57
317.1	7.87
317.312	8.26
317.524	8.84
317.736	7.14
317.947	8.26
318.159	6.37
318.371	7.42
318.583	6.1
318.794	6.93
319.006	7.28
319.218	7.09
319.43	5.25
319.641	3.56
319.853	5.97
320.064	8.71
320.276	9.29
320.488	8.86
320.699	5.8
320.911	6.8
321.123	4.97
321.334	2.98
321.546	2.69
321.757	6.34
321.969	10.62
322.18	7.98
322.392	7.04
322.603	5.96
322.815	8.5
323.026	9.32
323.238	7.02
323.449	8.65
323.661	11.44
323.872	11.82
324.083	6.62
324.295	5.86
324.506	7.36
324.718	11.34
324.929	12.49
325.14	11.87
325.352	12.5
325.563	13.42
325.774	12.64
325.986	11.56
326.197	10.27
326.408	14.89
326.62	13.24
326.831	11.68
327.042	10.66
327.253	10.95
327.464	10.6
327.676	9.69
327.887	11.48
328.098	12.7
328.309	14.44
328.52	14.84
328.732	13.23
328.943	12.44
329.154	15.18
329.365	13.28
329.576	14.18
329.787	17.18
329.998	19.12
330.209	17.17
330.42	15.79
330.631	11.52
330.842	12.12
331.053	11.29
331.264	14.17
331.475	13.45
331.686	13.24
331.897	12.19
332.108	9.92
332.319	13.4
332.53	12.4
332.741	13.64
332.952	15.77
333.163	15.91
333.374	15.84
333.585	14.4
333.795	11.39
334.006	11.46
334.217	11.75
334.428	11.97
334.639	7
334.849	7.9
335.06	8.57
335.271	8.43
335.482	9.2
335.692	10.42
335.903	9.73
336.114	11.95
336.325	14.26
336.535	15.18
336.746	13.95
336.957	14.15
337.167	12.65
337.378	9.36
337.589	13.57
337.799	15.19
338.01	13.09
338.22	16.91
338.431	18.86
338.642	17.47
338.852	16.8
339.063	17.36
339.273	16.72
339.484	20.96
339.694	23.87
339.905	18.95
340.115	14.44
340.326	15.25
340.536	14.31
340.746	12.77
340.957	13.41
341.167	12.35
341.378	11.64
341.588	14.49
341.799	10.72
342.009	8.38
342.219	10.83
342.43	14.7
342.64	17.31
342.85	16.4
343.061	17.1
343.271	14.57
343.481	14.74
343.691	14.41
343.902	13.71
344.112	15.71
344.322	18.08
344.532	16.89
344.743	15.94
344.953	12.77
345.163	12.56
345.373	10.47
345.583	12.16
345.793	11.72
346.004	11.26
346.214	12.13
346.424	12.72
346.634	13.82
346.844	13.52
347.054	16.63
347.264	17.23
347.474	16.84
347.684	18.68
347.894	18.64
348.104	18.44
348.314	20.29
348.524	19.94
348.734	20.55
348.944	19.89
349.154	22.15
349.364	17.64
349.574	18.34
349.784	20.53
349.994	21.73
350.204	22.19
350.413	23.64
350.623	23.03
350.833	21.31
351.043	21.76
351.253	21.21
351.463	19.47
351.672	22.35
351.882	22.92
352.092	21.81
352.302	19.85
352.511	18.93
352.721	16.06
352.931	15.9
353.141	17.1
353.35	15.86
353.56	14.37
353.77	13.7
353.979	12.15
354.189	10.76
354.399	10.58
354.608	8.14
354.818	6.66
355.027	10.44
355.237	11.18
355.447	9.92
355.656	8.8
355.866	9.64
356.075	9.83
356.285	11.75
356.494	12.47
356.704	12.73
356.913	13.69
357.123	14.99
357.332	14.03
357.542	13.3
357.751	14.23
357.96	14.46
358.17	15.22
358.379	17.9
358.589	15.11
358.798	15.08
359.007	14.92
359.217	16.76
359.426	16.72
359.635	16.43
359.845	17.04
360.054	16.71
360.263	17.97
360.472	16.95
360.682	15.49
360.891	17.09
361.1	17.13
361.309	18.04
361.519	17.62
361.728	16.74
361.937	17.53
362.146	17.72
362.355	19.03
362.564	18.18
362.774	18.63
362.983	18.4
363.192	17.74
363.401	16.47
363.61	15.7
363.819	15.34
364.028	17.22
364.237	16.03
364.446	16.42
364.655	14.91
364.864	15.19
365.073	15.94
365.282	16.08
365.491	16.14
365.7	17.08
365.909	18.58
366.118	18.55
366.327	18.59
366.536	19.26
366.745	18.72
366.954	19.04
367.162	18.44
367.371	17.83
367.58	17.02
367.789	18.49
367.998	18.42
368.207	16.79
368.415	17.15
368.624	15.55
368.833	15.01
369.042	14.35
369.25	14.93
369.459	15.03
369.668	15.02
369.877	16.15
370.085	15.62
370.294	16.05
370.503	16.64
370.711	16.37
370.92	18.21
371.129	18.59
371.337	18.96
371.546	18.61
371.754	17.27
371.963	17.52
372.171	17.6
372.38	16.92
372.589	16.86
372.797	15.79
373.006	14.97
373.214	13.09
373.423	13.31
373.631	13.99
373.84	14.98
374.048	16.79
374.256	17.57
374.465	17.67
374.673	17.07
374.882	16.31
375.09	16.04
375.298	18.35
375.507	21.85
375.715	21.56
375.923	21.14
376.132	19.53
376.34	19.57
376.548	19.02
376.757	16.93
376.965	18.05
377.173	18.87
377.381	18.8
377.59	16.58
377.798	13.72
378.006	14.23
378.214	13.61
378.423	13.97
378.631	14.17
378.839	13.19
379.047	15.11
379.255	14.25
379.463	14.42
379.671	13.65
379.879	14.08
380.088	15.1
380.296	14.53
380.504	15.15
380.712	15.95
380.92	15.78
381.128	16.68
381.336	17.03
381.544	17.96
381.752	16.55
381.96	18.2
382.168	18.58
382.376	18.43
382.584	18.25
382.791	16.54
382.999	15.72
383.207	14.05
383.415	13.69
383.623	12.8
383.831	11.92
384.039	12.46
384.247	10.22
384.454	10.98
384.662	10.74
384.87	12.84
385.078	14.8
385.285	14.98
385.493	15.39
385.701	16.23
385.909	16.33
386.116	16.7
386.324	18.42
386.532	19.54
386.739	19.13
386.947	17.49
387.155	14.57
387.362	13.69
387.57	13.93
387.778	13.83
387.985	12.56
388.193	12.29
388.4	11.61
388.608	10.74
388.816	10.06
389.023	10.54
389.231	10.95
389.438	11.46
389.646	10.7
389.853	10.55
390.061	11.08
390.268	10.63
390.475	12.11
390.683	12.62
390.89	12.28
391.098	13.47
391.305	13.66
391.512	14.47
391.72	14.2
391.927	16.43
392.135	15.97
392.342	16.09
392.549	16.65
392.756	15.55
392.964	16.1
393.171	15.87
393.378	15.74
393.586	14.78
393.793	15.18
394	16.46
394.207	16.23
394.414	16.54
394.622	16.82
394.829	17.03
395.036	17.04
395.243	15.61
395.45	15.78
395.657	15.38
395.864	16.02
396.072	16.26
396.279	15.22
396.486	13.2
396.693	12.28
396.9	12.36
397.107	11.96
397.314	12.13
397.521	12.66
397.728	12.27
397.935	11.25
398.142	10.62
398.349	10.35
398.556	10.72
398.763	11.67
398.97	11.83
399.177	12.19
399.383	12.49
399.59	12.9
399.797	13.18
400.004	13.71
400.211	13.83
400.418	14.6
400.625	13.8
400.831	13.29
401.038	13.63
401.245	14.22
401.452	13.37
401.658	13.24
401.865	12.83
402.072	12.49
402.279	11.98
402.485	12.28
402.692	12.12
402.899	11.21
403.105	12.18
403.312	11.88
403.519	11.12
403.725	10.68
403.932	10.63
404.138	10.69
404.345	10.98
404.552	10.84
404.758	10.24
404.965	9.91
405.171	11.46
405.378	10.39
405.584	10.48
405.791	11.52
405.997	11.21
406.204	11.18
406.41	10.56
406.617	10.83
406.823	10.84
407.029	13.01
407.236	12.98
407.442	12.39
407.649	12.08
407.855	12.5
408.061	11.13
408.268	11.92
408.474	12.96
408.68	13.2
408.887	13.81
409.093	13.76
409.299	12.59
409.505	12.76
409.712	13.17
409.918	14.23
410.124	13.64
410.33	14.48
410.537	14.12
410.743	13.28
410.949	12.9
411.155	12.61
411.361	13.52
411.567	13.93
411.773	14.13
411.98	14
412.186	13.01
412.392	13.23
412.598	14.21
412.804	15.13
413.01	15.35
413.216	16.58
413.422	16.11
413.628	15.66
413.834	15.23
414.04	15.05
414.246	15.47
414.452	16.19
414.658	15.75
414.864	15.27
415.07	15.56
415.275	15.14
415.481	14.85
415.687	14.12
415.893	13.64
416.099	14.07
416.305	13.78
416.511	14.35
416.716	14.39
416.922	14.5
417.128	13.99
417.334	13.84
417.539	13.66
417.745	13.82
417.951	14.48
418.157	14.89
418.362	14.4
418.568	14.53
418.774	13.89
418.979	13.34
419.185	13.38
419.391	13.37
419.596	13.24
419.802	13.48
420.008	13.24
420.213	13.65
420.419	13.62
420.624	14.06
420.83	14.34
421.035	14.11
421.241	14.54
421.446	14.44
421.652	14.55
421.857	14.14
422.063	14.22
422.268	14.27
422.474	13.31
422.679	13.4
422.885	13.02
423.09	12.4
423.295	12.49
423.501	11.83
423.706	11.89
423.911	11.69
424.117	12.22
424.322	11.61
424.527	11.58
424.733	11.96
424.938	11.76
425.143	11.42
425.349	11.62
425.554	11.76
425.759	12.46
425.964	12.57
426.169	12.91
426.375	12.23
426.58	12.79
426.785	12.74
426.99	12.39
427.195	12
427.4	12.9
427.605	12.53
427.811	12.93
428.016	13.06
428.221	12.69
428.426	11.94
428.631	12.19
428.836	12.32
429.041	12.35
429.246	12.11
429.451	12.14
429.656	11.91
429.861	12.56
430.066	11.82
430.271	12.27
430.476	12.58
430.681	13.33
430.886	13.64
431.09	13.52
431.295	13.32
431.5	14.11
431.705	13.95
431.91	13.65
432.115	13.66
432.32	13.59
432.524	13.24
432.729	12.94
432.934	12.77
433.139	12.92
433.343	13.66
433.548	13.75
433.753	13.38
433.958	14.34
434.162	14.89
434.367	15.27
434.572	15.64
434.776	15.53
434.981	15.73
435.186	16.23
435.39	15.68
435.595	14.49
435.799	14.49
436.004	14.18
436.209	14.03
436.413	13.71
436.618	13.29
436.822	13.25
437.027	12.9
437.231	13.27
437.436	13.17
437.64	12.93
437.845	13.08
438.049	13.05
438.253	13.22
438.458	12.55
438.662	12.52
438.867	12.53
439.071	11.73
439.275	12.17
439.48	11.84
439.684	11.64
439.888	12.05
440.093	12.16
440.297	12.23
440.501	12.67
440.706	12.56
440.91	12.18
441.114	11.95
441.318	12.39
441.523	11.86
441.727	11.95
441.931	12.19
442.135	12.02
442.339	11.69
442.543	11.92
442.748	11.29
442.952	11.35
443.156	11.47
443.36	11.61
443.564	11.72
443.768	11.62
443.972	11.25
444.176	11.25
444.38	11.76
444.584	11.85
444.788	11.57
444.992	11.43
445.196	11.49
445.4	11.72
445.604	12.15
445.808	12
446.012	12.51
446.216	12.81
446.42	12.38
446.624	11.99
446.828	11.92
447.032	11.95
447.235	12.23
447.439	12.4
447.643	12.21
447.847	11.22
448.051	10.88
448.254	10.74
448.458	11.12
448.662	11.26
448.866	11.67
449.069	11.37
449.273	11.42
449.477	11.57
449.681	11.1
449.884	10.65
450.088	11.11
450.292	11.76
450.495	11.51
450.699	11.19
450.902	11.63
451.106	11.62
451.31	12.98
451.513	12.51
451.717	12.52
451.92	12.9
452.124	13.72
452.327	13.76
452.531	13.44
452.734	13.94
452.938	13.42
453.141	13.08
453.345	13.09
453.548	12.59
453.752	12.77
453.955	12.06
454.158	12
454.362	11.61
454.565	11.9
454.769	12.44
454.972	11.09
455.175	10.99
455.379	11.04
455.582	10.29
455.785	10.09
455.988	10.54
456.192	11.24
456.395	11.78
456.598	12.36
456.801	11.94
457.005	11.28
457.208	12.23
457.411	12.41
457.614	12.54
457.817	12.85
458.021	12.86
458.224	12.71
458.427	13.18
458.63	12.62
458.833	12.41
459.036	12.3
459.239	12.54
459.442	12.18
459.645	12.37
459.848	12.55
460.051	12.52
460.254	12.63
460.457	12.35
460.66	11.48
460.863	12.01
461.066	12.21
461.269	12.42
461.472	12.23
461.675	13.01
461.878	13.06
462.081	13.02
462.284	12.88
462.486	12.49
462.689	12.5
462.892	12.52
463.095	11.84
463.298	11.1
463.5	11.26
463.703	11.46
463.906	11.19
464.109	10.75
464.311	10.77
464.514	10.96
464.717	11.03
464.92	11.62
465.122	12.48
465.325	12.56
465.528	12.92
465.73	12.44
465.933	12.66
466.135	12.2
466.338	13.02
466.541	12.24
466.743	12.2
466.946	12.25
467.148	12.37
467.351	12.35
467.553	11.86
467.756	11.79
467.958	11.99
468.161	12.32
468.363	12.65
468.566	11.49
468.768	11.99
468.971	12.33
469.173	12.73
469.375	13.1
469.578	12.83
469.78	13.71
469.983	13.16
470.185	12.7
470.387	12.1
470.59	13.06
470.792	13.95
470.994	13.82
471.196	13.33
471.399	12.67
471.601	12.04
471.803	12.09
472.005	12
472.208	12.47
472.41	12.9
472.612	12.67
472.814	11.26
473.016	10.9
473.218	10.94
473.421	11.14
473.623	11.46
473.825	11.53
474.027	11.22
474.229	11.47
474.431	11.58
474.633	12.18
474.835	12.88
475.037	13.45
475.239	13.26
475.441	13.79
475.643	13.5
475.845	13.15
476.047	12.96
476.249	12.95
476.451	13.28
476.653	13.1
476.855	12.81
477.057	12.49
477.258	12.62
477.46	12.66
477.662	12.47
477.864	12.91
478.066	13.37
478.268	13.43
478.469	13.1
478.671	12.93
478.873	13.29
479.075	13.37
479.276	13.36
479.478	13.17
479.68	13
479.882	12.65
480.083	12.64
480.285	12.7
480.487	12.88
480.688	13.12
480.89	12.44
481.091	12.14
481.293	12.16
481.495	12.27
481.696	12.12
481.898	12.43
482.099	12.53
482.301	12.35
482.502	12.44
482.704	12.38
482.905	12.25
483.107	12.51
483.308	12.37
483.51	12.29
483.711	12.24
483.913	12.41
484.114	12.54
484.315	12.48
484.517	12.47
484.718	12.46
484.92	12.63
485.121	12.77
485.322	12.66
485.524	13.03
485.725	13.06
485.926	13.21
486.127	13.12
486.329	12.77
486.53	12.71
486.731	12.54
486.932	12.5
487.134	12.26
487.335	12.32
487.536	12.39
487.737	12.3
487.938	12.42
488.139	12.13
488.341	12.09
488.542	12.15
488.743	12.1
488.944	12.09
489.145	12.14
489.346	12.02
489.547	11.9
489.748	12.01
489.949	12.2
490.15	12.11
490.351	12.38
490.552	12.15
490.753	12.44
490.954	12.46
491.155	12.81
491.356	12.5
491.557	12.7
491.758	12.76
491.959	12.75
492.159	12.52
492.36	12.19
492.561	12.05
492.762	12.31
492.963	11.95
493.164	12.06
493.364	12
493.565	12.18
493.766	12.05
493.967	12.04
494.167	11.74
494.368	12.21
494.569	12.7
494.769	12.46
494.97	12.28
495.171	12.47
495.371	12.36
495.572	12.23
495.773	12.35
495.973	12.57
496.174	12.3
496.375	12.66
496.575	12.66
496.776	12.62
496.976	12.95
497.177	13.25
497.377	13.27
497.578	13.29
497.778	13.42
497.979	13.21
498.179	13.06
498.38	13.43
498.58	13.01
498.78	12.96
498.981	12.96
499.181	12.92
499.382	12.95
499.582	12.68
499.782	12.87
499.983	12.91
500.183	13.5
500.383	13.69
500.584	13.91
500.784	14.38
500.984	14.28
501.184	14.29
501.385	14.72
501.585	14.48
501.785	14.83
501.985	15.14
502.185	15.05
502.386	14.94
502.586	14.96
502.786	14.95
502.986	14.75
503.186	14.38
503.386	14.76
503.586	14.82
503.786	14.99
503.987	14.95
504.187	14.56
504.387	14.89
504.587	14.93
504.787	15.33
504.987	15.85
505.187	15.82
505.387	16.41
505.587	16.43
505.786	15.96
505.986	16.02
506.186	15.89
506.386	16.15
506.586	16.15
506.786	16
506.986	15.88
507.186	15.67
507.386	15.22
507.585	15.06
507.785	15.14
507.985	15.87
508.185	16.02
508.384	16.04
508.584	16
508.784	15.71
508.984	15.57
509.183	15.15
509.383	15.47
509.583	15.66
509.782	16.14
509.982	16.18
510.182	15.89
510.381	15.93
510.581	15.85
510.781	15.94
510.98	16.13
511.18	16.27
511.379	16.18
511.579	15.58
511.778	16.3
511.978	16.03
512.177	15.85
512.377	15.71
512.576	15.97
512.776	16.28
512.975	16.34
513.175	16.61
513.374	17.1
513.573	17.3
513.773	17.64
513.972	17.52
514.172	17.47
514.371	17.43
514.57	17.62
514.77	17.41
514.969	17.6
515.168	17.72
515.367	17.86
515.567	17.79
515.766	18.18
515.965	17.88
516.164	17.8
516.364	17.89
516.563	18.4
516.762	18.65
516.961	18.92
517.16	18.95
517.359	19.1
517.559	18.79
517.758	18.87
517.957	18.97
518.156	19.47
518.355	19.8
518.554	19.82
518.753	19.82
518.952	20.03
519.151	20
519.35	20.05
519.549	19.97
519.748	20.17
519.947	20.39
520.146	20.59
520.345	20.2
520.544	20.21
520.743	20.53
520.942	20.72
521.141	20.52
521.339	20.74
521.538	20.76
521.737	20.79
521.936	21.22
522.135	21.3
522.333	21.37
522.532	22.07
522.731	22.56
522.93	22.5
523.129	21.89
523.327	21.98
523.526	22.06
523.725	22.04
523.923	22.13
524.122	21.92
524.321	21.99
524.519	22.12
524.718	21.85
524.917	21.36
525.115	21.32
525.314	21.76
525.512	21.73
525.711	21.67
525.909	22.48
526.108	22.5
526.306	22.33
526.505	22.41
526.703	22.36
526.902	22.42
527.1	22.72
527.299	22.87
527.497	22.97
527.696	23.05
527.894	23.19
528.092	22.91
528.291	23.21
528.489	23.5
528.688	23.57
528.886	23.69
529.084	23.81
529.283	23.8
529.481	23.97
529.679	24.14
529.877	24.32
530.076	24.27
530.274	24.5
530.472	24.47
530.67	24.52
530.869	24.28
531.067	24.34
531.265	24.45
531.463	24.34
531.661	24.19
531.859	24.26
532.057	24.35
532.255	24.6
532.454	24.54
532.652	24.43
532.85	24.56
533.048	24.93
533.246	25.03
533.444	25.08
533.642	25.21
533.84	25.36
534.038	25.29
534.236	25.63
534.434	25.26
534.632	25.2
534.83	25.46
535.027	25.47
535.225	25.39
535.423	25.28
535.621	25.42
535.819	25.71
536.017	26.06
536.215	26.29
536.412	26.17
536.61	26.59
536.808	26.85
537.006	27.18
537.203	27.37
537.401	26.99
537.599	27.45
537.797	27.85
537.994	28.07
538.192	27.78
538.39	27.74
538.587	27.77
538.785	27.77
538.983	27.95
539.18	27.8
539.378	27.7
539.575	28.08
539.773	27.71
539.97	27.48
540.168	27.51
540.366	27.55
540.563	27.64
540.761	27.76
540.958	27.73
541.155	27.86
541.353	27.8
541.55	27.93
541.748	28.07
541.945	28.27
542.143	28.25
542.34	28.09
542.537	28.14
542.735	28.04
542.932	27.92
543.129	28.23
543.327	28.34
543.524	28.36
543.721	28.36
543.919	28.24
544.116	28.09
544.313	28.24
544.51	28.55
544.708	28.84
544.905	29.28
545.102	29.51
545.299	29.38
545.496	29.3
545.693	29.55
545.891	29.69
546.088	30.23
546.285	30.66
546.482	30.66
546.679	30.84
546.876	31.17
547.073	31.42
547.27	31.11
547.467	31.16
547.664	31.06
547.861	30.86
548.058	31.38
548.255	31.2
548.452	31.14
548.649	31.45
548.846	31.42
549.043	31.17
549.24	30.55
549.437	31.09
549.633	31.83
549.83	31.76
550.027	32.17
550.224	31.91
550.421	32.11
550.618	32.57
550.814	31.99
551.011	32.32
551.208	32.22
551.405	32.44
551.601	32.12
551.798	31.64
551.995	31.55
552.191	31.66
552.388	31.24
552.585	31.38
552.781	31.07
552.978	31.92
553.175	31.71
553.371	31.89
553.568	32.18
553.764	32.13
553.961	32.1
554.157	32.64
554.354	32.57
554.55	33.31
554.747	33.57
554.943	33.92
555.14	33.53
555.336	33.2
555.533	33.01
555.729	33.29
555.926	33.46
556.122	34.14
556.318	34.56
556.515	34.66
556.711	34.32
556.907	33.38
557.104	33.42
557.3	33.23
557.496	34.07
557.693	34.59
557.889	34.43
558.085	35.26
558.281	34.59
558.478	34.13
558.674	34.45
558.87	34.72
559.066	35.45
559.262	35.63
559.459	36.13
559.655	36.11
559.851	35.74
560.047	35.71
560.243	35.66
560.439	35.84
560.635	36.22
560.831	35.9
561.027	35.99
561.223	36.58
561.419	36.31
561.615	36.35
561.811	35.85
562.007	36.43
562.203	36.69
562.399	35.98
562.595	36.45
562.791	36.38
562.987	36.92
563.183	37.25
563.379	36.81
563.575	37.23
563.771	37.2
563.966	38.28
564.162	37.64
564.358	37.82
564.554	38.51
564.75	38.45
564.945	38.85
565.141	38.69
565.337	38.25
565.533	37.82
565.728	37.79
565.924	38.05
566.12	37.55
566.315	37.87
566.511	38.1
566.707	38.37
566.902	38.67
567.098	38.45
567.293	38.95
567.489	39.16
567.684	39.55
567.88	38.96
568.076	38.89
568.271	39.09
568.467	39.74
568.662	39.36
568.858	39.46
569.053	39.49
569.248	39.55
569.444	39.3
569.639	40.07
569.835	40.21
570.03	40.81
570.225	40.74
570.421	40.52
570.616	40.68
570.812	40.68
571.007	40.64
571.202	40.32
571.397	40.44
571.593	40.12
571.788	39.74
571.983	39.81
572.178	39.92
572.374	39.97
572.569	40.02
572.764	39.77
572.959	40.13
573.154	40.08
573.35	40.97
573.545	40.9
573.74	42.02
573.935	41.79
574.13	41.86
574.325	42
574.52	42.37
574.715	42.59
574.91	43.23
575.105	42.93
575.3	43.14
575.495	42.56
575.69	42.75
575.885	42.15
576.08	42.46
576.275	42.59
576.47	42.74
576.665	43.11
576.86	42.55
577.055	42.13
577.25	42.58
577.444	42.97
577.639	43.29
577.834	42.97
578.029	43.19
578.224	42.8
578.418	42.92
578.613	42.83
578.808	43.02
579.003	43.41
579.197	44.04
579.392	44.07
579.587	43.56
579.781	43.87
579.976	44.07
580.171	44.48
580.365	45.16
580.56	45.14
580.755	45.07
580.949	44.32
581.144	44.94
581.338	44.03
581.533	43.71
581.727	43.36
581.922	42.76
582.116	43.23
582.311	42.84
582.505	42.96
582.7	42.61
582.894	42.4
583.089	43.23
583.283	42.74
583.478	42.39
583.672	42.15
583.866	42.22
584.061	42.13
584.255	42.44
584.449	42.76
584.644	42.07
584.838	42.86
585.032	43.77
585.226	43.77
585.421	44.44
585.615	44.87
585.809	45.71
586.003	46.09
586.198	46.18
586.392	45.31
586.586	44.79
586.78	45.54
586.974	44.76
587.168	44
587.363	43.69
587.557	43.83
587.751	43.7
587.945	43.52
588.139	43.87
588.333	44.38
588.527	44.51
588.721	44.59
588.915	44.92
589.109	46.17
589.303	46.18
589.497	45.64
589.691	45.89
589.885	46.02
590.079	45.92
590.273	45.84
590.466	45.6
590.66	45.87
590.854	45.69
591.048	45.09
591.242	44.18
591.436	44.74
591.629	45.61
591.823	44.87
592.017	45.36
592.211	45.48
592.404	45.37
592.598	45.09
592.792	45.44
592.986	46.46
593.179	46.74
593.373	47.29
593.567	47.38
593.76	47.2
593.954	47.37
594.147	47.25
594.341	47.6
594.535	47.3
594.728	47.91
594.922	48.38
595.115	48.06
595.309	48.05
595.502	47.62
595.696	46.54
595.889	46.64
596.083	46.9
596.276	47.19
596.47	46.76
596.663	47.35
596.856	47.23
597.05	46.6
597.243	46.49
597.437	45.91
597.63	45.77
597.823	46.75
598.017	47.08
598.21	47.24
598.403	47.05
598.596	47.6
598.79	47.65
598.983	47.83
599.176	48.24
599.369	48.05
599.563	48.95
599.756	49.92
599.949	49.87
600.142	49.47
600.335	49.53
600.528	49.81
600.722	49.61
600.915	49.49
601.108	49.15
601.301	49.4
601.494	49.7
601.687	48.82
601.88	48.23
602.073	48.16
602.266	47.82
602.459	47.66
602.652	47.1
602.845	46.88
603.038	46.56
603.231	46.47
603.424	46.17
603.617	45.98
603.809	46.18
604.002	46.43
604.195	46.82
604.388	47.45
604.581	47.64
604.774	47.86
604.966	48.33
605.159	48.98
605.352	49.85
605.545	49.88
605.737	50.53
605.93	51.07
606.123	50.76
606.316	50.04
606.508	49.54
606.701	48.86
606.894	48.99
607.086	48.47
607.279	48.11
607.471	47.74
607.664	48.24
607.857	47.09
608.049	47
608.242	47.45
608.434	48.49
608.627	48.72
608.819	48.88
609.012	48.73
609.204	49.14
609.397	48.87
609.589	48.77
609.782	48.47
609.974	48.56
610.166	48.8
610.359	48.72
610.551	48.56
610.743	49.09
610.936	49.71
611.128	49.73
611.32	49.05
611.513	49.19
611.705	49.72
611.897	49.51
612.09	50.45
612.282	50.69
612.474	50.37
612.666	49.84
612.858	49.39
613.051	48.95
613.243	48.41
613.435	48.69
613.627	49.04
613.819	49.27
614.011	49.85
614.203	49.87
614.395	49.41
614.588	49.09
614.78	49.5
614.972	49.28
615.164	49.51
615.356	49.93
615.548	50.43
615.74	50.38
615.932	49.53
616.124	49.66
616.315	50.02
616.507	49.58
616.699	50.33
616.891	50.01
617.083	50.48
617.275	50.89
617.467	50.37
617.659	49.9
617.85	49.32
618.042	48.83
618.234	48.31
618.426	47.95
618.618	49.08
618.809	49.55
619.001	49.51
619.193	48.97
619.384	48.8
619.576	49.96
619.768	51.27
619.959	51.82
620.151	52.08
620.343	52.16
620.534	51.4
620.726	50.39
620.917	50.08
621.109	50.29
621.301	50.86
621.492	50
621.684	49.11
621.875	47.97
622.067	47.72
622.258	48.3
622.45	47.98
622.641	48.44
622.832	48.41
623.024	48.03
623.215	46.83
623.407	46.62
623.598	46.6
623.789	47.52
623.981	46.99
624.172	46.51
624.363	46.37
624.555	46.2
624.746	46.34
624.937	47.43
625.129	47.35
625.32	48.88
625.511	48.74
625.702	49.56
625.893	49.15
626.085	49.63
626.276	50.4
626.467	50.14
626.658	51.19
626.849	51.17
627.04	51.03
627.231	51.46
627.422	51.57
627.614	52.05
627.805	52.39
627.996	52.63
628.187	53.41
628.378	53.79
628.569	53.9
628.76	53.46
628.951	53.53
629.142	53.94
629.332	53.39
629.523	52.58
629.714	51.51
629.905	51.22
630.096	51.75
630.287	51.25
630.478	51.29
630.669	51.75
630.859	51.24
631.05	51.87
631.241	51.15
631.432	51.86
631.623	51.98
631.813	53.16
632.004	53.46
632.195	52.61
632.385	53.43
632.576	52.07
632.767	53.33
632.957	53.89
633.148	53.64
633.339	53.64
633.529	53.51
633.72	54.11
633.91	54.19
634.101	53.98
634.292	53.94
634.482	53.13
634.673	53.75
634.863	52.13
635.054	52.51
635.244	52.66
635.435	53.04
635.625	52.81
635.815	53.82
636.006	52.88
636.196	52.31
636.387	52.93
636.577	53.27
636.767	54.04
636.958	54.55
637.148	55.31
637.338	56.26
637.529	56.02
637.719	56
637.909	55.16
638.099	56.1
638.29	58.22
638.48	57.05
638.67	55.74
638.86	55.38
639.05	55.23
639.241	53.1
639.431	52.31
639.621	53.72
639.811	54.24
640.001	54.37
640.191	54.93
640.381	53.17
640.571	54.37
640.761	54.98
640.951	54.48
641.141	55.28
641.331	57.09
641.521	56.11
641.711	55.92
641.901	55.71
642.091	54.34
642.281	53.31
642.471	53.44
642.661	52.57
642.851	54.12
643.041	55.27
643.231	54.41
643.42	54.28
643.61	55.26
643.8	55.27
643.99	56.28
644.18	56.94
644.369	57.63
644.559	57.61
644.749	58.08
644.939	56.54
645.128	55.63
645.318	56.09
645.508	56.35
645.697	56.4
645.887	56.3
646.076	56.92
646.266	56.7
646.456	55.75
646.645	55.49
646.835	56.56
647.024	57.78
647.214	57.57
647.403	57.34
647.593	56.42
647.782	55.93
647.972	54.64
648.161	52.68
648.351	52.98
648.54	54.2
648.73	53.73
648.919	53.32
649.108	53.27
649.298	54.02
649.487	54.41
649.677	55.23
649.866	55.41
650.055	56.58
650.244	57.75
650.434	58.2
650.623	57.73
650.812	57.61
651.002	57.61
651.191	56.86
651.38	56.9
651.569	56.53
651.758	55.48
651.947	55.47
652.137	55
652.326	55.1
652.515	55
652.704	55.05
652.893	56.41
653.082	57.02
653.271	56.26
653.46	56.31
653.649	56.02
653.838	56.87
654.027	56.16
654.216	56.1
654.405	56.08
654.594	55.8
654.783	55.65
654.972	55.53
655.161	55.55
655.35	56.05
655.539	55.84
655.728	54.61
655.916	54.25
656.105	54.45
656.294	54.39
656.483	54.08
656.672	54.17
656.86	54.66
657.049	53.54
657.238	53.08
657.427	54.39
657.615	53.79
657.804	55.21
657.993	54.83
658.181	55.45
658.37	55.23
658.559	54.77
658.747	55.22
658.936	54.94
659.125	54.69
659.313	54.02
659.502	53.41
659.69	54.23
659.879	55.2
660.067	55.68
660.256	56.31
660.444	57.07
660.633	57.1
660.821	55.7
661.01	54.95
661.198	55.77
661.387	56.66
661.575	57.03
661.763	56.31
661.952	56.23
662.14	55.11
662.328	54.04
662.517	53.89
662.705	54.59
662.893	56.15
663.082	55.79
663.27	55.75
663.458	54.94
663.646	53.33
663.834	54.15
664.023	51.78
664.211	52.44
664.399	54.08
664.587	54.63
664.775	54.67
664.963	54.75
665.152	57.42
665.34	58.44
665.528	58.29
665.716	59.76
665.904	59.82
666.092	61.22
666.28	61.15
666.468	58.92
666.656	58.12
666.844	57.36
667.032	56.56
667.22	55.14
667.408	54.43
667.596	55.64
667.784	55.96
667.971	57.02
668.159	57
668.347	58.02
668.535	58.31
668.723	58.97
668.911	59.4
669.098	59.55
669.286	59.15
669.474	60.13
669.662	59.12
669.849	58.33
670.037	56.24
670.225	56.15
670.413	55.56
670.6	55.27
670.788	54.82
670.976	54.67
671.163	55.78
671.351	55.25
671.538	55.03
671.726	56.07
671.913	56.86
672.101	57.4
672.289	58.25
672.476	58.69
672.664	59.59
672.851	58.9
673.039	59.04
673.226	57.52
673.413	59.01
673.601	58.75
673.788	59.07
673.976	58.62
674.163	57.9
674.35	56.91
674.538	57.42
674.725	56.71
674.912	57.61
675.1	57.63
675.287	59.16
675.474	59.32
675.662	59.28
675.849	58.73
676.036	59
676.223	59.02
676.411	59.62
676.598	58.33
676.785	58.26
676.972	57.64
677.159	57.82
677.346	57.5
677.533	56.34
677.721	56.65
677.908	56.55
678.095	56.47
678.282	57.82
678.469	57.19
678.656	56.59
678.843	57.18
679.03	57.19
679.217	56.76
679.404	55.96
679.591	57.3
679.778	57.22
679.964	57.74
680.151	57.84
680.338	57.41
680.525	57.37
680.712	57.49
680.899	57.97
681.086	57.47
681.272	57.55
681.459	56.64
681.646	56.56
681.833	55.87
682.02	55.43
682.206	55.39
682.393	54.02
682.58	54.85
682.766	56.5
682.953	55.42
683.14	56.08
683.326	57.21
683.513	58.43
683.7	58.38
683.886	58.74
684.073	57.95
684.259	57.74
684.446	59.76
684.632	59.03
684.819	59.13
685.005	59.24
685.192	59.37
685.378	58.52
685.565	58.04
685.751	57.1
685.938	57.17
686.124	59.18
686.31	60.25
686.497	60.18
686.683	60.1
686.87	58.62
687.056	58.96
687.242	59.09
687.429	58.85
687.615	59.56
687.801	59.82
687.987	59.65
688.174	59.71
688.36	59.51
688.546	58.82
688.732	58.17
688.918	58.77
689.105	59.84
689.291	60.08
689.477	60.7
689.663	60.11
689.849	60.15
690.035	59.5
690.221	58.99
690.407	60.02
690.593	60.13
690.779	62.54
690.965	63.17
691.151	62.12
691.337	62.15
691.523	61.63
691.709	62.76
691.895	62.71
692.081	65.35
692.267	63.76
692.453	62.19
692.639	61.56
692.825	59.92
693.011	59.4
693.196	58
693.382	58.67
693.568	60.1
693.754	60.81
693.94	61.91
694.125	59.52
694.311	60.13
694.497	58.75
694.682	59.12
694.868	59.97
695.054	61.21
695.239	64.19
695.425	63.11
695.611	61.25
695.796	58.72
695.982	57.89
696.168	58.53
696.353	58.42
696.539	59.34
696.724	59.4
696.91	58.86
697.095	57.23
697.281	55.74
697.466	56.04
697.652	56.45
697.837	56.86
698.023	57.04
698.208	55.48
698.393	56.41
698.579	56.48
698.764	57.36
698.949	57.99
699.135	58.81
699.32	60.18
699.505	59.36
699.691	59.82
699.876	61.54
700.061	62.37
700.246	64.6
700.432	64.16
700.617	66.48
700.802	66.48
700.987	65.68
701.172	63.75
701.358	62.58
701.543	63.19
701.728	62.91
701.913	61.55
702.098	60.94
702.283	60.85
702.468	59.52
702.653	57.62
702.838	56.92
703.023	56.84
703.208	59.98
703.393	60.14
703.578	60.1
703.763	59.11
703.948	61.13
704.133	61.41
704.318	59.42
704.503	60.6
704.688	59.45
704.873	59.76
705.057	60.35
705.242	59.39
705.427	60.96
705.612	61.1
705.797	62.89
705.981	62.44
706.166	61.8
706.351	64.4
706.536	64.98
706.72	66.25
706.905	65.88
707.09	67.54
707.274	67.55
707.459	66.36
707.644	67.6
707.828	67.16
708.013	66.98
708.197	66.82
708.382	67.55
708.567	66.67
708.751	67.67
708.936	68.51
709.12	67.24
709.305	67.16
709.489	65.83
709.673	65.67
709.858	67
710.042	66.13
710.227	65.69
710.411	65.58
710.596	64.85
710.78	62.05
710.964	60.86
711.149	59.67
711.333	58.53
711.517	60.46
711.702	59.36
711.886	55.87
712.07	56.15
712.254	58.03
712.438	56.82
712.623	57.39
712.807	59.58
712.991	61.43
713.175	61.66
713.359	62.87
713.544	61.63
713.728	62.18
713.912	63.58
714.096	63.12
714.28	62.43
714.464	61.22
714.648	61.48
714.832	61.22
715.016	60.89
715.2	61.1
715.384	61.13
715.568	60.2
715.752	60.46
715.936	61.64
716.12	62.2
716.304	61.15
716.488	63.05
716.671	61.81
716.855	61.57
717.039	60.41
717.223	61.07
717.407	60.72
717.59	62.46
717.774	62.26
717.958	62.46
718.142	62.69
718.325	63.32
718.509	62.34
718.693	62.43
718.877	61.25
719.06	59.76
719.244	61.61
719.428	62.69
719.611	61.46
719.795	61.45
719.978	61.33
720.162	59.52
720.345	57.79
720.529	57.74
720.713	59.73
720.896	60.97
721.08	63.56
721.263	61.62
721.446	62.14
721.63	63.85
721.813	66.28
721.997	68.5
722.18	69.89
722.364	70.25
722.547	71.3
722.73	70.62
722.914	69.61
723.097	67.3
723.28	67.81
723.464	68.84
723.647	69.62
723.83	66.52
724.013	64.45
724.197	63.56
724.38	64.78
724.563	65.27
724.746	65.91
724.929	67.62
725.112	68.23
725.296	65.63
725.479	63.69
725.662	62.92
725.845	63.86
726.028	62.32
726.211	63.86
726.394	63.87
726.577	64.42
726.76	62.69
726.943	62.98
727.126	63.14
727.309	65.72
727.492	65.85
727.675	64.17
727.858	63.63
728.041	63.51
728.224	64.02
728.407	64.3
728.589	63.71
728.772	65.86
728.955	62.61
729.138	64.94
729.321	62.49
729.503	61.73
729.686	62.66
729.869	62.58
730.052	62.71
730.234	62.49
730.417	62.39
730.6	61.61
730.782	59.23
730.965	61.83
731.148	58.6
731.33	60.62
731.513	61.26
731.695	61.28
731.878	60.23
732.061	59.38
732.243	60.22
732.426	58.97
732.608	58.05
732.791	59.06
732.973	58.49
733.156	60.37
733.338	59.19
733.52	58.05
733.703	57.05
733.885	58.61
734.068	61.82
734.25	59.92
734.432	61.11
734.615	63.1
734.797	64.67
734.979	65.16
735.162	67.09
735.344	67.11
735.526	68.69
735.708	69.36
735.891	66.66
736.073	65.67
736.255	67.24
736.437	67.51
736.619	67.56
736.802	64.23
736.984	63.15
737.166	59.86
737.348	59.65
737.53	58.84
737.712	58.52
737.894	61.24
738.076	59.23
738.258	58.38
738.44	58.64
738.622	58.22
738.804	59.91
738.986	59.18
739.168	61.21
739.35	61.24
739.532	61.49
739.714	60.69
739.896	61.29
740.078	62.02
740.259	61.59
740.441	62.46
740.623	62.09
740.805	61.85
740.987	61.03
741.168	60.04
741.35	58.52
741.532	59.45
741.714	61.99
741.895	61.57
742.077	63.38
742.259	63.42
742.44	60.01
742.622	60.24
742.804	61.23
742.985	61.24
743.167	60.22
743.348	65.82
743.53	68.43
743.711	67.14
743.893	66.1
744.075	63.49
744.256	64.56
744.438	64.84
744.619	61.57
744.8	61.17
744.982	65.96
745.163	67.89
745.345	66.01
745.526	63.77
745.707	63.59
745.889	62.72
746.07	63.68
746.252	62.24
746.433	64.72
746.614	65.54
746.795	62.47
746.977	57.84
747.158	56.3
747.339	55.18
747.52	55.42
747.702	56.78
747.883	58.05
748.064	59.62
748.245	60.08
748.426	61.91
748.607	62.85
748.788	64.57
748.97	67.21
749.151	66.94
749.332	66.1
749.513	66.35
749.694	65.53
749.875	63.15
750.056	61.73
750.237	62.97
750.418	61.13
750.599	62.07
750.78	63.59
750.96	63.47
751.141	63.54
751.322	63.08
751.503	60.44
751.684	62.74
751.865	70.57
752.046	72.35
752.226	72.08
752.407	69.99
752.588	67.16
752.769	70.24
752.949	72.22
753.13	74.43
753.311	77.84
753.492	81.94
753.672	80.94
753.853	76.13
754.034	75.84
754.214	74.13
754.395	73.77
754.575	79.58
754.756	77.45
754.937	77.07
755.117	77.1
755.298	74.18
755.478	70.11
755.659	69.21
755.839	68.13
756.02	66.95
756.2	67.37
756.381	70.17
756.561	63.05
756.741	63.63
756.922	58.76
757.102	57.85
757.283	57.74
757.463	59.83
757.643	56.53
757.823	54.57
758.004	57.52
758.184	56.94
758.364	55.35
758.545	60.02
758.725	58.83
758.905	61.49
759.085	62.5
759.265	61.75
759.446	63.77
759.626	65.66
759.806	67.81
759.986	65.94
760.166	65.48
760.346	67.82
760.526	66.1
760.706	64.63
760.886	66.08
761.066	63.03
761.246	62.56
761.426	59.16
761.606	59.01
761.786	58.38
761.966	57.96
762.146	59.26
762.326	58.23
762.506	58.06
762.686	57.02
762.866	54.69
763.046	55.43
763.225	55.8
763.405	56.43
763.585	57.23
763.765	58.69
763.945	57.34
764.124	57.98
764.304	58.64
764.484	58.87
764.664	60.93
764.843	62.45
765.023	63.19
765.203	65.27
765.382	65.49
765.562	66.36
765.741	66.04
765.921	65.17
766.101	62.79
766.28	65.78
766.46	68.17
766.639	67.9
766.819	68.97
766.998	69.58
767.178	68.7
767.357	69.71
767.537	68.13
767.716	67.2
767.896	71.73
768.075	72.97
768.254	70.68
768.434	67.44
768.613	67.38
768.792	64.06
768.972	65.89
769.151	66.59
769.33	66.44
769.51	70.05
769.689	69.31
769.868	69.08
770.047	69.35
770.226	67.01
770.406	67.63
770.585	66.51
770.764	70.08
770.943	68.86
771.122	64.3
771.301	62.56
771.48	61.87
771.66	61.98
771.839	65.08
772.018	65.85
772.197	69.46
772.376	73.61
772.555	76.3
772.734	75.24
772.913	76.57
773.092	78.67
773.271	78.65
773.449	78.25
773.628	78.57
773.807	72.27
773.986	73.53
774.165	73.04
774.344	74.38
774.523	71.45
774.701	69.96
774.88	68.42
775.059	73.51
775.238	71.4
775.417	69.28
775.595	69.35
775.774	73.85
775.953	72.6
776.131	68.34
776.31	64.27
776.489	67.62
776.667	63.27
776.846	64.17
777.025	63.94
777.203	68.88
777.382	69.33
777.56	66.9
777.739	63.58
777.917	63.55
778.096	62.52
778.274	62.21
778.453	65.04
778.631	69.31
778.81	68.63
778.988	64.59
779.166	66.06
779.345	69.46
779.523	72.05
779.702	74.55
779.88	76.72
780.058	77.08
780.237	74.98
780.415	75.23
780.593	79.83
780.771	81.52
780.95	78.56
781.128	71.52
781.306	70.58
781.484	72.98
781.662	69.49
781.841	67.54
782.019	68.94
782.197	67.57
782.375	67.07
782.553	62.89
782.731	62.15
782.909	71.5
783.087	75.79
783.265	73.74
783.443	72.33
783.621	74.34
783.799	73.39
783.977	77.54
784.155	81.1
784.333	78.1
784.511	79.3
784.689	82.17
784.867	77.3
785.045	72.21
785.223	72.09
785.4	73.6
785.578	72.25
785.756	73.95
785.934	69.17
786.112	71.02
786.289	68.65
786.467	66.18
786.645	56.74
786.823	61.51
787	67.17
787.178	67.86
787.356	64.79
787.533	62.35
787.711	59.56
787.889	60.28
788.066	55.47
788.244	58.49
788.421	62.67
788.599	62.98
788.776	56.76
788.954	53.61
789.131	54.16
789.309	50.24
789.486	50.43
789.664	52.96
789.841	57.64
790.019	59.86
790.196	56.54
790.373	51.04
790.551	53.65
790.728	56.93
790.906	61.88
791.083	58.05
791.26	63.41
791.437	60.89
791.615	62.92
791.792	59.96
791.969	59.89
792.146	64.81
792.324	65.17
792.501	58.03
792.678	56.32
792.855	50.43
793.032	51.67
793.209	50.86
793.387	53.48
793.564	55.85
793.741	58.76
793.918	59.84
794.095	58.02
794.272	60.8
794.449	67.52
794.626	66.73
794.803	72.4
794.98	70.51
795.157	68.64
795.334	74.68
795.511	70.63
795.688	66.46
795.864	65.87
796.041	66.03
796.218	65.78
796.395	67.69
796.572	70.44
796.749	68.28
796.925	73.77
797.102	74.7
797.279	69.69
797.456	69.22
797.632	66.7
797.809	69.03
797.986	65.62
798.162	63.44
798.339	59.97
798.516	59.64
798.692	60.47
798.869	64.67
799.046	67.12
799.222	68.19
799.399	66.21
799.575	70.86
799.752	67.08
799.928	67.3
800.105	68.86
800.281	69.25
800.458	66.93
800.634	64.93
800.811	58.42
800.987	58.43
801.163	58.34
801.34	58.11
801.516	55.18
801.692	53.4
801.869	58.5
802.045	57.49
802.221	60.82
802.398	57.29
802.574	55.17
802.75	54.06
802.926	54.65
803.103	52.12
803.279	53.93
803.455	55.94
803.631	62.01
803.807	58
803.983	58.51
804.16	57.29
804.336	65.64
804.512	64.95
804.688	65.47
804.864	66.73
805.04	67.9
805.216	73.75
805.392	73.27
805.568	73.42
805.744	70.92
805.92	69.84
806.096	63.91
806.272	56.28
806.448	63.8
806.623	63.56
806.799	62.73
806.975	62.61
807.151	55.09
807.327	60.35
807.503	60.06
807.678	56.65
807.854	56.84
808.03	61.75
808.206	60.86
808.381	58.68
808.557	55.95
808.733	51.13
808.908	48.65
809.084	51.98
809.26	47.63
809.435	47.87
809.611	50.47
809.787	53.98
809.962	54.49
810.138	59.61
810.313	57.99
810.489	59.86
810.664	66.8
810.84	77.82
811.015	73.25
811.191	72.65
811.366	78.28
811.542	85.2
811.717	81.14
811.892	72.78
812.068	74.93
812.243	83.6
812.419	77.47
812.594	67.85
812.769	64.52
812.944	64.53
813.12	64.77
813.295	58.75
813.47	62.05
813.645	59.55
813.821	65.64
813.996	58.25
814.171	48.67
814.346	55.83
814.521	60.81
814.697	53.42
814.872	54.88
815.047	53.08
815.222	48.73
815.397	40.22
815.572	47.26
815.747	44.74
815.922	47.89
816.097	50.27
816.272	48.87
816.447	50.18
816.622	53.28
816.797	58.27
816.972	56.92
817.147	60.87
817.322	60.2
817.496	56.08
817.671	54.78
817.846	48.46
818.021	45.35
818.196	53.05
818.371	53.46
818.545	53.52
818.72	50.65
818.895	53.91
819.069	53.28
819.244	58.61
819.419	57.64
819.594	54.93
819.768	57.97
819.943	56.51
820.117	53.03
820.292	49.69
820.467	50.45
820.641	47.72
820.816	48.16
820.99	48.2
821.165	47.49
821.339	47.63
821.514	47.91
821.688	46.72
821.863	48.03
822.037	48.62
822.212	48.72
822.386	48.47
822.56	49.16
822.735	48.61
822.909	47.91
823.084	48.6
823.258	48.53
823.432	50.01
823.606	51.48
823.781	49.81
823.955	49.01
824.129	49.55
824.303	48.19
824.478	49.61
824.652	48.69
824.826	50.03
825	49.41
825.174	49.56
825.348	49.18
825.523	50.3
825.697	49.6
825.871	51.07
826.045	50.62
826.219	50.59
826.393	48.65
826.567	52.5
826.741	53.34
826.915	53.86
827.089	52.36
827.263	50.59
827.437	49.16
827.611	53.82
827.784	52.95
827.958	52.5
828.132	55.85
828.306	58.79
828.48	57.78
828.654	57.21
828.827	58.64
829.001	61.99
829.175	68.62
829.349	67.86
829.522	63.61
829.696	61.45
829.87	65.29
830.044	66.81
830.217	66.13
830.391	59.05
830.565	56
830.738	55.1
830.912	54.89
831.085	49.57
831.259	48.09
831.432	51.88
831.606	57.3
831.779	59.31
831.953	54.89
832.126	59.54
832.3	61.97
832.473	60.46
832.647	58.19
832.82	57.49
832.994	55.74
833.167	53.33
833.34	50.34
833.514	44.91
833.687	42.11
833.86	44.18
834.034	39.58
834.207	38.86
834.38	42.16
834.553	44.19
834.727	45.73
834.9	45.09
835.073	49.26
835.246	49.7
835.419	51.58
835.593	51.62
835.766	47.74
835.939	43.16
836.112	48.87
836.285	47.33
836.458	40.88
836.631	38.92
836.804	40.6
836.977	38.27
837.15	40.09
837.323	44.29
837.496	49.74
837.669	49.55
837.842	56.22
838.015	58.84
838.188	70.94
838.361	79.46
838.533	84.21
838.706	85.13
838.879	77.91
839.052	70.48
839.225	66.46
839.398	62.63
839.57	63.72
839.743	70.66
839.916	69.01
840.088	53.5
840.261	53.61
840.434	56.73
840.607	56.76
840.779	59.37
840.952	67.29
841.124	65.82
841.297	66.43
841.47	74.43
841.642	72.31
841.815	67.19
841.987	82.57
842.16	88.71
842.332	83.19
842.505	87.91
842.677	73.47
842.85	72.73
843.022	69.33
843.194	61.88
843.367	51.26
843.539	56.46
843.712	65.01
843.884	53
844.056	49.95
844.229	61.04
844.401	57.98
844.573	83.49
844.745	91.89
844.918	101.52
845.09	124.25
845.262	117.23
845.434	123.12
845.606	113.15
845.779	117.77
845.951	128.59
846.123	114.7
846.295	90.92
846.467	96.55
846.639	86.74
846.811	79.53
846.983	58.88
847.155	75.61
847.327	59.11
847.499	68.36
847.671	60.85
847.843	58.27
848.015	54.94
848.187	74
848.359	52.28
848.531	52.84
848.703	62.97
848.875	51.34
849.047	48.06
849.218	57.71
849.39	47.75
849.562	48.9
849.734	47.44
849.905	57.47
850.077	53.67
850.249	67.07
850.421	45.67
850.592	40.68
850.764	67.68
850.936	48.03
851.107	77.05
851.279	72.99
851.451	91.32
851.622	88.31
851.794	57.07
851.965	6.9
852.137	7.28
852.308	38.72
852.48	31.95
852.651	12.69
852.823	14.2
852.994	-10.49
853.166	-17.53
853.337	-23.93
853.509	-16.33
853.68	-26.51
853.851	16.84
854.023	30.31
854.194	19.65
854.365	18.28
854.537	37.59
854.708	37.69
854.879	49.05
855.05	47.93
855.222	41.98
855.393	31.29
855.564	39.1
855.735	30.04
855.906	32.04
856.078	38.13
856.249	42.84
856.42	39.55
856.591	49.84
856.762	40.78
856.933	50.65
857.104	60.37
857.275	66.45
857.446	65.5
857.617	63.83
857.788	63.62
857.959	60.65
858.13	69.22
858.301	57.93
858.472	64.77
858.643	73.9
858.814	73.89
858.985	65.97
859.155	85.35
859.326	57.91
859.497	49.49
859.668	40.65
859.839	32.45
860.009	-1.21
860.18	14.77
860.351	12.64
860.522	15.05
860.692	9.88
860.863	1.09
861.034	-12.27
861.204	-29.26
861.375	-40.97
861.546	-4.33
861.716	-11.77
861.887	0.97
862.057	31.15
862.228	34.98
862.398	38.86
862.569	69.06
862.739	68.71
862.91	63.11
863.08	61.42
863.251	66.68
863.421	78.86
863.592	85.01
863.762	87.68
863.932	89.06
864.103	104.15
864.273	90.23
864.443	73.29
864.614	95.06
864.784	86.37
864.954	106.71
865.125	106.39
865.295	86.24
865.465	44.08
865.635	42.1
865.805	40.61
865.976	37.84
866.146	48.31
866.316	45.78
866.486	23.87
866.656	14.18
866.826	-6.43
866.996	12.74
867.166	2.07
867.336	7.93
867.506	24.99
867.676	-0.13
867.846	0.44
868.016	18.13
868.186	52.37
868.356	35.59
868.526	43.2
868.696	46.05
868.866	-73.22
869.036	0.04
869.206	39.47
869.376	23.01
869.545	42.16
869.715	21.69
869.885	11.95
870.055	0.85
870.224	13.38
870.394	39.48
870.564	21.86
870.734	44.56
870.903	33.21
871.073	10.71
871.243	2.22
871.412	-7.82
871.582	-11.55
871.751	-0.46
871.921	3.82
872.091	11.07
872.26	12.95
872.43	28.82
872.599	61.95
872.769	74.84
872.938	65.43
873.108	83.89
873.277	88.03
873.446	85.81
873.616	61.49
873.785	61.99
873.955	48.45
874.124	42.62
874.293	38.69
874.463	-1.97
874.632	-9.52
874.801	2.55
874.971	-20.87
875.14	-37.74
875.309	-30.15
875.478	-30.78
875.647	-23.04
875.817	-7.14
875.986	5.54
876.155	17.74
876.324	39.47
876.493	41.99
876.662	59.85
876.831	58.86
877	71.56
877.17	81
877.339	82.94
877.508	63.67
877.677	57.66
877.846	48.72
878.015	40.35
878.184	35.76
878.352	22.24
878.521	7.27
878.69	13.21
878.859	19.03
879.028	26
879.197	27.38
879.366	34.51
879.534	41.65
879.703	49.59
879.872	49.26
880.041	39.09
880.21	40.96
880.378	42.44
880.547	43.06
880.716	36.56
880.884	37.9
881.053	40.76
881.222	41
881.39	40.4
881.559	38.22
881.727	35.7
881.896	38.81
882.065	38.59
882.233	39.4
882.402	38.06
882.57	38.7
882.739	37.49
882.907	36.15
883.076	34.19
883.244	35
883.412	34.35
883.581	35.04
883.749	35.11
883.918	33.24
884.086	28.02
884.254	30.92
884.423	31.69
884.591	26.1
884.759	26.98
884.927	26.02
885.096	24.5
885.264	27.79
885.432	22.81
885.6	22.83
885.769	26.69
885.937	36.4
886.105	32.76
886.273	33.52
886.441	31.78
886.609	32.65
886.777	26.77
886.945	37.43
887.113	36.67
887.281	50.7
887.449	25.55
887.617	35.78
887.785	20.46
887.953	18.99
888.121	10.14
888.289	6.03
888.457	-11.33
888.625	38.48
888.793	11.93
888.961	14.27
889.129	33.95
889.296	41.74
889.464	35.82
889.632	47.58
889.8	47.66
889.967	44.39
890.135	49.58
