Data from JASIL_3113_Reflection_1.txt Node
Date: Thu Nov 12 20:02:57 EST 2015
User: Geneva
Spectrometer: USB4E03002
Autoset integration time: false
Trigger mode: 4
Integration Time (sec): 1.000000E-1
Scans to average: 10
Electric dark correction enabled: true
Nonlinearity correction enabled: false
Boxcar width: 5
Stray light correction enabled: false
XAxis mode: Wavelengths
Stop averaging: false
Number of Pixels in Spectrum: 3648
>>>>>Begin Spectral Data<<<<<
177.575	219.03
177.794	-312.93
178.014	710.82
178.233	81.5
178.452	80.44
178.672	94.45
178.891	31.97
179.11	41.82
179.33	80.08
179.549	101.54
179.768	132.7
179.987	92.01
180.207	82.66
180.426	79.58
180.645	430.16
180.864	-249.56
181.084	10.02
181.303	-70.13
181.522	-504.15
181.741	-233.91
181.96	-115.47
182.179	-86.55
182.398	-74.37
182.618	-358.68
182.837	-391.66
183.056	-7223.29
183.275	4405.83
183.494	1292.29
183.713	620.51
183.932	-5488.41
184.151	-2271.41
184.37	2636.71
184.589	3261.23
184.808	883.85
185.027	1705.87
185.246	-336.26
185.465	-339.6
185.684	-231.5
185.903	-418.28
186.122	-307.19
186.341	-756.06
186.56	-1116.23
186.779	-456.67
186.998	12120
187.216	828.76
187.435	835.26
187.654	220.86
187.873	209.36
188.092	230.23
188.311	-753.67
188.53	185.94
188.748	1152.34
188.967	-612.97
189.186	195.75
189.405	868.37
189.623	4860.53
189.842	-448.76
190.061	-304.53
190.28	-297.79
190.498	-531.26
190.717	1304.57
190.936	-1292.5
191.154	947.86
191.373	567.04
191.592	-6681.76
191.81	2253.98
192.029	-1445.15
192.248	-458.29
192.466	-522.84
192.685	-995.08
192.904	2138.22
193.122	986.14
193.341	475.92
193.559	510.47
193.778	443.48
193.996	463.27
194.215	2160.05
194.433	562.41
194.652	274.78
194.87	359.76
195.089	558.19
195.307	-2594.95
195.526	3340.83
195.744	-1537.65
195.963	662.11
196.181	995.59
196.399	1340.26
196.618	1091.67
196.836	575.54
197.055	1042.98
197.273	266.25
197.491	177.03
197.71	142.07
197.928	124.14
198.146	134.66
198.365	198.61
198.583	120.26
198.801	93.06
199.019	82.74
199.238	113.6
199.456	77.23
199.674	82.16
199.892	163.12
200.111	-895.36
200.329	-424.16
200.547	-305.66
200.765	-27.95
200.983	-3.46
201.202	21.58
201.42	15.62
201.638	19.78
201.856	8.41
202.074	19.98
202.292	-0.51
202.51	-242.32
202.728	-84.45
202.946	-125.11
203.165	2039.75
203.383	1021.7
203.601	547.17
203.819	1860.36
204.037	-2324.33
204.255	-404.94
204.473	3000.98
204.691	-206.32
204.909	-86.17
205.127	-310.03
205.345	131.55
205.562	32.98
205.78	-11.75
205.998	-191.49
206.216	-54.02
206.434	24.81
206.652	33.16
206.87	14.59
207.088	3.02
207.306	73.12
207.523	65.79
207.741	56.45
207.959	286.49
208.177	17840
208.395	163.53
208.612	255.24
208.83	-358.6
209.048	-770.55
209.266	-599.78
209.483	-234.38
209.701	-87.88
209.919	-180.75
210.136	-121.61
210.354	-117.88
210.572	-73.03
210.79	-55.85
211.007	-65.74
211.225	-71.93
211.442	-42.13
211.66	-67.04
211.878	-50.52
212.095	-197.66
212.313	-177.6
212.53	-246.03
212.748	-277.76
212.966	-434.88
213.183	-639.35
213.401	-940.89
213.618	-555.98
213.836	-717.67
214.053	-1156.15
214.271	1978.18
214.488	421.13
214.705	1155.57
214.923	-769.15
215.14	-10837.04
215.358	1509.62
215.575	-20167.27
215.793	-428.63
216.01	-1229.98
216.227	1625.66
216.445	647.7
216.662	-226.7
216.879	-3609.02
217.097	214.07
217.314	86.61
217.531	238.8
217.749	173.36
217.966	-116.4
218.183	148.57
218.4	48.96
218.618	144.77
218.835	287.42
219.052	170.02
219.269	78.65
219.487	143.14
219.704	155.57
219.921	94.02
220.138	101.55
220.355	134.01
220.572	119.95
220.79	142.09
221.007	74.74
221.224	96.49
221.441	106.47
221.658	204.85
221.875	191.2
222.092	606.09
222.309	702.5
222.526	2311.14
222.743	2481.11
222.96	803.4
223.177	-3863.81
223.394	-1043.62
223.611	-720.55
223.828	-7908.9
224.045	1876.27
224.262	-908.6
224.479	-1200.82
224.696	-209.31
224.913	-232.69
225.13	-85.24
225.347	-44.72
225.564	-27.68
225.781	-39.05
225.997	-46.93
226.214	-61.04
226.431	-73.24
226.648	-78.59
226.865	-54.38
227.082	-49.74
227.298	-51.49
227.515	-42.16
227.732	-40.99
227.949	-50.91
228.165	-36.66
228.382	-36.44
228.599	-23.07
228.816	-13.24
229.032	-4.06
229.249	-0.96
229.466	-12.49
229.682	-6.02
229.899	-15.88
230.116	-10.81
230.332	-21.1
230.549	-30.32
230.765	-22.43
230.982	-26.49
231.199	-28.65
231.415	-66.26
231.632	-84.65
231.848	-67.16
232.065	-66.14
232.281	-50.67
232.498	-84.52
232.714	-63.61
232.931	-61.04
233.147	-64.05
233.364	-74.29
233.58	-77.87
233.797	-48.64
234.013	-39.73
234.23	-60.61
234.446	-71.72
234.662	-71.79
234.879	-70.74
235.095	-58.14
235.312	-45
235.528	-47.72
235.744	-35.35
235.961	-39.55
236.177	-24.41
236.393	-11.62
236.61	6.8
236.826	15.46
237.042	1.81
237.258	2.05
237.475	-4.2
237.691	-7.46
237.907	-3.55
238.123	-8.1
238.339	-32.12
238.556	-31.94
238.772	-47.14
238.988	-55.78
239.204	-63.25
239.42	-45.98
239.636	-29.13
239.853	-27.64
240.069	-29.41
240.285	-32.29
240.501	-26.86
240.717	-14.57
240.933	-12.61
241.149	-11.72
241.365	-9.37
241.581	-11.9
241.797	-10.2
242.013	-14.72
242.229	-9.12
242.445	-9.9
242.661	-1.22
242.877	-0.93
243.093	-2.83
243.309	-6.23
243.525	-6.45
243.741	-8.62
243.957	-7.34
244.173	-6.1
244.388	-1.39
244.604	-2.11
244.82	3.6
245.036	-0.2
245.252	1.24
245.468	3.24
245.683	1.69
245.899	1.05
246.115	0.37
246.331	0.65
246.547	2.1
246.762	0.43
246.978	2.68
247.194	0.9
247.409	0.94
247.625	-1.2
247.841	-1.69
248.057	0.13
248.272	3.97
248.488	2.08
248.703	1.35
248.919	-3.39
249.135	-5.43
249.35	-15.3
249.566	-17.13
249.782	-25.84
249.997	-24.04
250.213	-28.77
250.428	-29.06
250.644	-39.05
250.859	-29.58
251.075	-26.56
251.29	-18.08
251.506	-10.83
251.721	-9.35
251.937	-6.09
252.152	-3.71
252.368	-4.42
252.583	-1.01
252.798	0.54
253.014	-1.88
253.229	0.19
253.445	0.64
253.66	-2.55
253.875	-11.96
254.091	-17.64
254.306	-13.73
254.521	-11.9
254.737	-10.23
254.952	-21.69
255.167	-27.07
255.383	-21.51
255.598	-30.76
255.813	-26.79
256.028	-29.89
256.244	-26
256.459	-16.63
256.674	-20.41
256.889	-19.21
257.104	-19.39
257.32	-11.03
257.535	-12.72
257.75	-8.82
257.965	-4.88
258.18	-4.84
258.395	-4.79
258.61	-4.52
258.826	-5.81
259.041	-7.13
259.256	-6.21
259.471	-5.95
259.686	-7.94
259.901	-7.47
260.116	-7.68
260.331	-8.05
260.546	-9.35
260.761	-8.96
260.976	-10.44
261.191	-12.13
261.406	-11.15
261.621	-12.25
261.836	-15.16
262.05	-11.86
262.265	-12.79
262.48	-20.15
262.695	-21.1
262.91	-25.22
263.125	-25.09
263.34	-22.44
263.555	-18.47
263.769	-21.84
263.984	-21.24
264.199	-14.61
264.414	-19.15
264.629	-18.43
264.843	-13.18
265.058	-14.46
265.273	-10.51
265.488	-9.85
265.702	-8.15
265.917	-8.49
266.132	-6.24
266.346	-7.72
266.561	-8
266.776	-4.75
266.99	-1.77
267.205	-1.96
267.42	-0.2
267.634	1.7
267.849	-1
268.063	0.06
268.278	-2.43
268.492	-1.72
268.707	-2.89
268.922	-4.04
269.136	-4.97
269.351	-5.26
269.565	-2.88
269.78	-2.6
269.994	-5.8
270.209	-2.54
270.423	-4.55
270.637	-4.85
270.852	-7.36
271.066	-5.64
271.281	-6.21
271.495	-4.88
271.709	-5.78
271.924	-4.89
272.138	-7.28
272.353	-9.24
272.567	-12.23
272.781	-14.46
272.996	-15.68
273.21	-14.1
273.424	-17.43
273.638	-16.53
273.853	-19.31
274.067	-18.93
274.281	-22.59
274.495	-23.45
274.71	-19.6
274.924	-20.22
275.138	-18.46
275.352	-19.31
275.566	-17.65
275.781	-15.28
275.995	-16.24
276.209	-8.77
276.423	-8.04
276.637	-5.21
276.851	-1.95
277.065	-3.48
277.279	-0.45
277.493	3.08
277.707	6.06
277.921	5.85
278.135	9.3
278.349	8.63
278.563	2.1
278.777	1.48
278.991	2.03
279.205	0.6
279.419	2.34
279.633	0.7
279.847	-2.63
280.061	-2.02
280.275	-3.57
280.489	-7.2
280.703	-2.41
280.917	-2.35
281.131	-0.21
281.344	0.76
281.558	1.22
281.772	-0.6
281.986	-0.73
282.2	0.82
282.414	0.55
282.627	1.98
282.841	2.57
283.055	-0.65
283.269	3.18
283.482	0.81
283.696	-2.57
283.91	-1.25
284.123	0.8
284.337	0.12
284.551	0.18
284.764	-1.3
284.978	-0.82
285.192	-0.93
285.405	-2.6
285.619	-5.03
285.833	-4.64
286.046	-4.02
286.26	-6.98
286.473	-8.29
286.687	-7.44
286.9	-11.65
287.114	-10.08
287.327	-9.8
287.541	-8.1
287.754	-6.78
287.968	-6.05
288.181	-5.05
288.395	-5.99
288.608	-3.6
288.822	-3.11
289.035	-3.69
289.248	-0.15
289.462	-1.13
289.675	-3.6
289.889	-4.35
290.102	-4.22
290.315	-5.55
290.529	-5.1
290.742	-2.53
290.955	-3.18
291.169	-2.6
291.382	-2.06
291.595	-2.6
291.808	-2.57
292.022	-4.61
292.235	-7.54
292.448	-6.23
292.661	-6.35
292.875	-8.99
293.088	-12.39
293.301	-11.9
293.514	-12.61
293.727	-12.74
293.94	-11.61
294.153	-10.15
294.367	-7.85
294.58	-6.32
294.793	-7.13
295.006	-7.08
295.219	-5.31
295.432	-3.69
295.645	-4.43
295.858	-5.36
296.071	-5.11
296.284	-3.99
296.497	-4.41
296.71	-3.29
296.923	-2.8
297.136	-2.16
297.349	-0.93
297.562	-1.92
297.775	-1.01
297.988	-0.39
298.201	1.91
298.414	0.89
298.626	-0.4
298.839	-0.62
299.052	-2.05
299.265	-0.77
299.478	-2.41
299.691	-1.78
299.903	0.64
300.116	-3.04
300.329	-3.05
300.542	-5.54
300.755	-2.8
300.967	-1.81
301.18	-2.44
301.393	-0.65
301.605	-1.69
301.818	0.6
302.031	-2.24
302.243	-3.85
302.456	-3.67
302.669	-3.75
302.881	-4.85
303.094	-5.52
303.307	-6.18
303.519	-4.49
303.732	-4.55
303.944	-5.38
304.157	-8.02
304.37	-4.99
304.582	-3.36
304.795	-0.23
305.007	-0.91
305.22	2.9
305.432	2.26
305.645	1.68
305.857	1.22
306.069	0.51
306.282	1.5
306.494	4.04
306.707	5.1
306.919	2.98
307.132	1.3
307.344	1.84
307.556	1.31
307.769	-0.08
307.981	-0.12
308.193	-0.52
308.406	-0.32
308.618	0.18
308.83	-0.76
309.043	-1.93
309.255	0.13
309.467	-0
309.679	-1.38
309.892	-0.01
310.104	1.68
310.316	1.87
310.528	1.29
310.74	-0.18
310.953	-1.7
311.165	1.29
311.377	0.74
311.589	-1.27
311.801	-0.93
312.013	1.59
312.225	-1.85
312.437	-2.35
312.649	-1.96
312.862	0.29
313.074	2.71
313.286	4.62
313.498	1.75
313.71	2.28
313.922	2.4
314.134	3.18
314.346	2.63
314.558	4.15
314.77	3.69
314.982	3.15
315.193	3.69
315.405	2.95
315.617	2.31
315.829	0.53
316.041	-1.02
316.253	0.06
316.465	-1.25
316.677	-1.83
316.888	-1.74
317.1	-0.23
317.312	-0
317.524	-4.04
317.736	-5.17
317.947	-4.27
318.159	-2.56
318.371	-1.21
318.583	-3.1
318.794	-2.86
319.006	-1.08
319.218	-1.25
319.43	-4.1
319.641	-6.33
319.853	-5.03
320.064	-4.87
320.276	-3.52
320.488	-6.3
320.699	-6.15
320.911	-3.98
321.123	-4.53
321.334	-8.05
321.546	-7.18
321.757	-5.72
321.969	-3.07
322.18	-1.02
322.392	-0.25
322.603	-3.41
322.815	-3.22
323.026	-3.2
323.238	-4.3
323.449	-2.71
323.661	0.73
323.872	-1
324.083	-1.45
324.295	-0.97
324.506	-1.19
324.718	-1.53
324.929	2.01
325.14	4.36
325.352	4.37
325.563	7.66
325.774	7.81
325.986	7.17
326.197	6.79
326.408	7.17
326.62	8.41
326.831	9.28
327.042	9.18
327.253	7.23
327.464	6.7
327.676	7.74
327.887	7.05
328.098	7.07
328.309	5.79
328.52	7.6
328.732	10.7
328.943	10.23
329.154	9.36
329.365	11.5
329.576	12.55
329.787	14.09
329.998	12.46
330.209	9.59
330.42	9.41
330.631	9.25
330.842	9.87
331.053	7.81
331.264	5.72
331.475	5.43
331.686	4.81
331.897	2.76
332.108	1.27
332.319	4.12
332.53	6.93
332.741	5.8
332.952	7.29
333.163	9.14
333.374	9.59
333.585	10.78
333.795	8.91
334.006	8.38
334.217	10.44
334.428	9.63
334.639	7.72
334.849	4.66
335.06	4.93
335.271	5.81
335.482	3.87
335.692	4.43
335.903	3.53
336.114	7.09
336.325	6.3
336.535	4.97
336.746	7.14
336.957	7.91
337.167	9.62
337.378	9.36
337.589	8.57
337.799	7.11
338.01	5.64
338.22	6.16
338.431	4.64
338.642	4.58
338.852	3.85
339.063	3.29
339.273	3.09
339.484	2.22
339.694	4.02
339.905	4.34
340.115	8.18
340.326	10.19
340.536	9.33
340.746	10.49
340.957	9.46
341.167	10.76
341.378	10.85
341.588	11.06
341.799	12.8
342.009	12.04
342.219	13.58
342.43	11.44
342.64	10.42
342.85	13.06
343.061	13.14
343.271	14.79
343.481	12.88
343.691	13.02
343.902	13.35
344.112	13.37
344.322	12.86
344.532	12.3
344.743	13.26
344.953	12.57
345.163	11.39
345.373	10.78
345.583	10.45
345.793	9.48
346.004	8.71
346.214	8.16
346.424	7.61
346.634	8.47
346.844	8.49
347.054	6.16
347.264	5.89
347.474	4.27
347.684	5.35
347.894	5.27
348.104	9.48
348.314	11.05
348.524	10.9
348.734	10.69
348.944	10.75
349.154	9.28
349.364	11.54
349.574	10.33
349.784	10.85
349.994	11.1
350.204	11.78
350.413	11.49
350.623	11.35
350.833	10.63
351.043	9.86
351.253	9.65
351.463	9.54
351.672	8.4
351.882	11.47
352.092	10.72
352.302	9.68
352.511	9.13
352.721	8.49
352.931	8.45
353.141	7.81
353.35	7.48
353.56	8.27
353.77	8.13
353.979	7.69
354.189	6.44
354.399	7.52
354.608	6.79
354.818	7.01
355.027	6.21
355.237	4.89
355.447	6.33
355.656	7.84
355.866	7.21
356.075	7.4
356.285	7.4
356.494	7.77
356.704	8.66
356.913	9.68
357.123	8.27
357.332	7.99
357.542	7.44
357.751	7.56
357.96	8.35
358.17	8.19
358.379	8.12
358.589	8.68
358.798	8.35
359.007	7.84
359.217	5.99
359.426	8.86
359.635	8.72
359.845	10
360.054	9.01
360.263	8.2
360.472	8.09
360.682	8.39
360.891	7.72
361.1	8.21
361.309	8.51
361.519	10.55
361.728	9.37
361.937	8.3
362.146	7.72
362.355	8.82
362.564	8.33
362.774	8.61
362.983	10.31
363.192	12.66
363.401	12.1
363.61	11.22
363.819	9.86
364.028	9.4
364.237	11.15
364.446	10.61
364.655	10.11
364.864	10.46
365.073	8.81
365.282	7.38
365.491	5.94
365.7	5.94
365.909	6.4
366.118	7.36
366.327	8.36
366.536	8.12
366.745	8.63
366.954	7.82
367.162	8.37
367.371	10.66
367.58	9.93
367.789	9.13
367.998	9.04
368.207	9.62
368.415	8.44
368.624	7.69
368.833	6.81
369.042	6.51
369.25	8.61
369.459	7.4
369.668	6.02
369.877	6.31
370.085	7.53
370.294	7.71
370.503	7.45
370.711	7.53
370.92	7.52
371.129	8.47
371.337	9.67
371.546	7.86
371.754	8.43
371.963	8.49
372.171	8.99
372.38	9.03
372.589	9.99
372.797	8.24
373.006	8.43
373.214	8.38
373.423	8.23
373.631	7.44
373.84	7.67
374.048	6.54
374.256	6.87
374.465	5.86
374.673	5.37
374.882	4.59
375.09	6.67
375.298	6.49
375.507	6.8
375.715	7.92
375.923	7.75
376.132	9.33
376.34	10.11
376.548	9.69
376.757	9.45
376.965	9.67
377.173	9.92
377.381	9.77
377.59	9.95
377.798	8.71
378.006	9.02
378.214	9.88
378.423	10.06
378.631	9.85
378.839	12
379.047	11.32
379.255	10.58
379.463	10.71
379.671	10.61
379.879	10.88
380.088	12.12
380.296	11.38
380.504	10.66
380.712	9.68
380.92	9.98
381.128	7.37
381.336	9.65
381.544	11.19
381.752	11.45
381.96	12.63
382.168	12.52
382.376	12.59
382.584	12.15
382.791	12.46
382.999	13.03
383.207	12.51
383.415	13.97
383.623	12.65
383.831	11.01
384.039	9.22
384.247	8.63
384.454	8.74
384.662	8.64
384.87	8.57
385.078	8
385.285	7.96
385.493	9.01
385.701	8.04
385.909	6.31
386.116	7.8
386.324	9.31
386.532	9.42
386.739	9.27
386.947	9.67
387.155	8.85
387.362	10.54
387.57	9.93
387.778	10.33
387.985	10
388.193	11.34
388.4	10.19
388.608	9.93
388.816	9.86
389.023	9.45
389.231	9.25
389.438	9.56
389.646	7.98
389.853	8.51
390.061	7.8
390.268	8.16
390.475	9.05
390.683	9.21
390.89	8.4
391.098	8.9
391.305	9.06
391.512	8.25
391.72	8.77
391.927	9.48
392.135	10.03
392.342	10.27
392.549	11.26
392.756	12.12
392.964	12.14
393.171	13.31
393.378	12.14
393.586	12.7
393.793	13.38
394	13.56
394.207	14.03
394.414	12.85
394.622	12.68
394.829	11.97
395.036	10.81
395.243	10.67
395.45	10.2
395.657	10.31
395.864	9.5
396.072	9.38
396.279	9.32
396.486	8.74
396.693	9.73
396.9	8.27
397.107	8.77
397.314	8.42
397.521	9.07
397.728	8.4
397.935	8.87
398.142	8.61
398.349	8.13
398.556	8.17
398.763	7.9
398.97	7.68
399.177	10.1
399.383	10.37
399.59	10.62
399.797	9.73
400.004	11.21
400.211	11.08
400.418	11.84
400.625	13.22
400.831	12.54
401.038	13.19
401.245	12.73
401.452	11.93
401.658	11.48
401.865	11.77
402.072	12.67
402.279	11.51
402.485	11.43
402.692	11.37
402.899	10.64
403.105	11.38
403.312	10.85
403.519	11.5
403.725	11.16
403.932	11.67
404.138	10.61
404.345	10.16
404.552	10.77
404.758	10.71
404.965	10.7
405.171	11.46
405.378	11.05
405.584	10.96
405.791	11.21
405.997	11.17
406.204	10.91
406.41	12.67
406.617	12.55
406.823	12.85
407.029	12.63
407.236	12.9
407.442	12.91
407.649	13.83
407.855	14.23
408.061	14.24
408.268	14.33
408.474	14.62
408.68	13.63
408.887	13.38
409.093	13.35
409.299	13.58
409.505	13.07
409.712	12.92
409.918	12.53
410.124	12.71
410.33	12.02
410.537	11.2
410.743	10.85
410.949	10.43
411.155	10.76
411.361	9.86
411.567	10.3
411.773	9.68
411.98	9.1
412.186	9.29
412.392	8.73
412.598	8.67
412.804	10.17
413.01	9.94
413.216	10.96
413.422	11.5
413.628	12.71
413.834	12.45
414.04	13.5
414.246	13.66
414.452	13.73
414.658	14.35
414.864	14.43
415.07	14.27
415.275	14.49
415.481	14.32
415.687	13.84
415.893	13.42
416.099	13.04
416.305	13.26
416.511	13.15
416.716	13.22
416.922	13.1
417.128	13.65
417.334	13.63
417.539	12.83
417.745	13.17
417.951	13.57
418.157	13.67
418.362	13.8
418.568	13.88
418.774	13.68
418.979	12.79
419.185	12.61
419.391	12.38
419.596	12.42
419.802	13.19
420.008	13.03
420.213	12.89
420.419	12.79
420.624	13.15
420.83	12.9
421.035	13.1
421.241	13.49
421.446	13.32
421.652	13
421.857	12.61
422.063	13.03
422.268	12.67
422.474	12.24
422.679	12.44
422.885	12.71
423.09	12.7
423.295	13
423.501	13.23
423.706	13.74
423.911	13.88
424.117	14.36
424.322	13.99
424.527	14.56
424.733	15.08
424.938	15.04
425.143	15.17
425.349	15.46
425.554	15.04
425.759	15.36
425.964	15.16
426.169	15.4
426.375	15.73
426.58	15.63
426.785	15.34
426.99	15.81
427.195	15.57
427.4	14.42
427.605	14.1
427.811	14.35
428.016	14.39
428.221	13.75
428.426	14.08
428.631	13.55
428.836	13.61
429.041	14.02
429.246	13.1
429.451	13.71
429.656	13.77
429.861	13.71
430.066	13.91
430.271	13.61
430.476	14.5
430.681	14.41
430.886	14.62
431.09	14.94
431.295	14.56
431.5	15.05
431.705	14.51
431.91	15.02
432.115	14.96
432.32	14.16
432.524	14.16
432.729	13.78
432.934	13.64
433.139	13.51
433.343	13.02
433.548	13.17
433.753	12.78
433.958	13.41
434.162	13.28
434.367	13.71
434.572	14.25
434.776	14.48
434.981	14.83
435.186	15.07
435.39	15.17
435.595	14.98
435.799	15.04
436.004	15.47
436.209	15.01
436.413	14.69
436.618	14.93
436.822	15.4
437.027	15.25
437.231	15.71
437.436	15.91
437.64	15.55
437.845	16.12
438.049	16.24
438.253	16.12
438.458	16
438.662	16.45
438.867	15.88
439.071	15.52
439.275	15.65
439.48	15.1
439.684	15.01
439.888	15.3
440.093	15.4
440.297	15.14
440.501	15.19
440.706	15.33
440.91	15.37
441.114	15.19
441.318	14.69
441.523	14.55
441.727	14.48
441.931	13.71
442.135	13.73
442.339	13.1
442.543	12.98
442.748	13.09
442.952	12.66
443.156	12.26
443.36	12.68
443.564	12.86
443.768	13.05
443.972	13.19
444.176	13.67
444.38	13.22
444.584	13.68
444.788	14.01
444.992	13.8
445.196	14.19
445.4	13.95
445.604	14.1
445.808	14.39
446.012	14.34
446.216	14.11
446.42	13.91
446.624	14.24
446.828	14.29
447.032	13.82
447.235	13.83
447.439	13.67
447.643	13.93
447.847	13.85
448.051	13.64
448.254	13.2
448.458	13.08
448.662	13.31
448.866	13.39
449.069	12.74
449.273	12.86
449.477	12.88
449.681	12.65
449.884	12.62
450.088	12.23
450.292	13.11
450.495	13.62
450.699	13.57
450.902	13.24
451.106	12.72
451.31	13.28
451.513	13.31
451.717	13.31
451.92	12.97
452.124	12.77
452.327	13.19
452.531	12.62
452.734	12.26
452.938	12.32
453.141	12.05
453.345	12.67
453.548	12.87
453.752	13.25
453.955	12.74
454.158	13.24
454.362	13.13
454.565	13.5
454.769	13.5
454.972	14.06
455.175	14.32
455.379	14.62
455.582	14.13
455.785	14.31
455.988	13.88
456.192	14.36
456.395	14.14
456.598	14.02
456.801	12.98
457.005	13.4
457.208	13.19
457.411	12.75
457.614	12.86
457.817	12.85
458.021	12.64
458.224	12.67
458.427	12.79
458.63	12.9
458.833	13.02
459.036	13.76
459.239	13.11
459.442	13.16
459.645	13.44
459.848	13.44
460.051	13.57
460.254	13.64
460.457	13.78
460.66	13.58
460.863	13.46
461.066	13.84
461.269	13.56
461.472	13.76
461.675	12.98
461.878	12.85
462.081	12.31
462.284	12.19
462.486	12.12
462.689	11.75
462.892	11.57
463.095	12.31
463.298	11.96
463.5	11.57
463.703	11.57
463.906	12.36
464.109	12.74
464.311	13.46
464.514	13.74
464.717	13.05
464.92	13.3
465.122	13.84
465.325	13.7
465.528	14.09
465.73	13.91
465.933	14.1
466.135	14.24
466.338	13.78
466.541	14.03
466.743	14.06
466.946	14.12
467.148	14.31
467.351	13.93
467.553	13.72
467.756	13.53
467.958	13.83
468.161	13.82
468.363	13.23
468.566	13.8
468.768	13.46
468.971	12.44
469.173	13.33
469.375	12.84
469.578	13.05
469.78	12.69
469.983	12.65
470.185	13.33
470.387	13.91
470.59	14.8
470.792	14.62
470.994	14.92
471.196	15.04
471.399	14.67
471.601	14.86
471.803	15.03
472.005	15.36
472.208	15.27
472.41	14.65
472.612	14
472.814	13.09
473.016	12.81
473.218	12.53
473.421	13.75
473.623	13.77
473.825	13.71
474.027	13.76
474.229	13.79
474.431	14.28
474.633	14.75
474.835	14.92
475.037	14.98
475.239	15.27
475.441	14.91
475.643	14.36
475.845	13.95
476.047	14.19
476.249	14.25
476.451	14.72
476.653	14.61
476.855	13.96
477.057	14.48
477.258	14.61
477.46	14.74
477.662	15.18
477.864	15.17
478.066	15.6
478.268	15.65
478.469	15.42
478.671	15.27
478.873	15.22
479.075	15.44
479.276	14.98
479.478	15.15
479.68	14.89
479.882	14.71
480.083	14.42
480.285	14.1
480.487	13.97
480.688	14.01
480.89	14.07
481.091	13.93
481.293	14.13
481.495	14.32
481.696	14.42
481.898	14.5
482.099	14.29
482.301	14.24
482.502	14.22
482.704	14.3
482.905	14.18
483.107	13.99
483.308	14.1
483.51	13.91
483.711	13.74
483.913	13.75
484.114	13.66
484.315	13.77
484.517	13.95
484.718	14.02
484.92	14.07
485.121	14.37
485.322	14.46
485.524	14.37
485.725	14.45
485.926	14.62
486.127	14.43
486.329	14.44
486.53	14.52
486.731	14.55
486.932	14.54
487.134	14.4
487.335	14.36
487.536	14.26
487.737	14.27
487.938	14.32
488.139	14.31
488.341	14.38
488.542	14.56
488.743	14.5
488.944	14.2
489.145	14.42
489.346	14.5
489.547	14.34
489.748	14.56
489.949	14.33
490.15	14.62
490.351	14.52
490.552	14.64
490.753	14.47
490.954	14.6
491.155	14.77
491.356	14.68
491.557	14.66
491.758	14.63
491.959	14.41
492.159	14.49
492.36	14.42
492.561	14.79
492.762	14.71
492.963	14.62
493.164	14.3
493.364	14.55
493.565	14.73
493.766	14.68
493.967	14.61
494.167	14.73
494.368	14.8
494.569	15.05
494.769	14.41
494.97	14.49
495.171	14.91
495.371	15.08
495.572	14.38
495.773	13.73
495.973	13.61
496.174	13.68
496.375	13.6
496.575	13.44
496.776	12.71
496.976	13.1
497.177	12.99
497.377	12.66
497.578	12.71
497.778	13.17
497.979	13.75
498.179	13.78
498.38	13.84
498.58	14.01
498.78	14.12
498.981	14.63
499.181	14.48
499.382	14.69
499.582	15.02
499.782	15.16
499.983	15.46
500.183	15.45
500.383	15.92
500.584	15.93
500.784	16.02
500.984	16.46
501.184	16.52
501.385	16.7
501.585	16.37
501.785	16.24
501.985	16.04
502.185	15.63
502.386	15.35
502.586	15.27
502.786	15.2
502.986	15.52
503.186	15.47
503.386	15.53
503.586	15.48
503.786	15.7
503.987	15.53
504.187	15.84
504.387	15.91
504.587	15.9
504.787	15.51
504.987	15.16
505.187	14.52
505.387	14.23
505.587	14.22
505.786	14.5
505.986	14.68
506.186	15.03
506.386	15.26
506.586	15.22
506.786	15.18
506.986	15.22
507.186	15.58
507.386	16.19
507.585	16.23
507.785	16.45
507.985	16.25
508.185	16.35
508.384	16.43
508.584	16.26
508.784	16.98
508.984	17.29
509.183	17.53
509.383	17.18
509.583	17.38
509.782	17.86
509.982	17.54
510.182	17.73
510.381	17.99
510.581	18.18
510.781	18.33
510.98	17.71
511.18	17.91
511.379	17.67
511.579	17.72
511.778	17.62
511.978	17.64
512.177	17.75
512.377	17.22
512.576	16.56
512.776	16.46
512.975	16.17
513.175	16.59
513.374	16.23
513.573	16.78
513.773	17.79
513.972	17.53
514.172	17.5
514.371	17.29
514.57	17.65
514.77	17.9
514.969	17.94
515.168	18.34
515.367	17.89
515.567	18.35
515.766	18.25
515.965	18.04
516.164	18.36
516.364	18.1
516.563	18.15
516.762	18.36
516.961	18.85
517.16	18.53
517.359	18.53
517.559	18.79
517.758	18.42
517.957	18.1
518.156	17.81
518.355	17.61
518.554	17.9
518.753	18.16
518.952	17.88
519.151	17.7
519.35	17.94
519.549	18.02
519.748	18.09
519.947	18.14
520.146	18.36
520.345	19.17
520.544	19.47
520.743	19.25
520.942	19.13
521.141	19.78
521.339	19.62
521.538	19.68
521.737	19.35
521.936	18.92
522.135	19.36
522.333	19.64
522.532	19.31
522.731	18.87
522.93	19.1
523.129	19.77
523.327	19.55
523.526	19.93
523.725	20.09
523.923	20.25
524.122	20.79
524.321	20.99
524.519	21.02
524.718	21.02
524.917	21.54
525.115	21.89
525.314	21.73
525.512	21.88
525.711	21.96
525.909	21.92
526.108	22.13
526.306	22.01
526.505	21.86
526.703	21.84
526.902	22.02
527.1	21.79
527.299	21.58
527.497	21.54
527.696	21.54
527.894	21.42
528.092	21.55
528.291	21.66
528.489	21.61
528.688	21.7
528.886	21.9
529.084	22.02
529.283	22.3
529.481	22.36
529.679	22.45
529.877	22.53
530.076	22.61
530.274	22.72
530.472	22.95
530.67	23.3
530.869	23.17
531.067	22.94
531.265	22.5
531.463	22.51
531.661	22.75
531.859	23.1
532.057	23.42
532.255	23.52
532.454	23.52
532.652	23.13
532.85	23.27
533.048	23.4
533.246	23.44
533.444	23.78
533.642	23.59
533.84	23.69
534.038	23.56
534.236	23.38
534.434	23.33
534.632	23.15
534.83	23.6
535.027	23.73
535.225	23.68
535.423	23.85
535.621	23.73
535.819	24.07
536.017	23.93
536.215	23.66
536.412	23.64
536.61	23.98
536.808	24.12
537.006	23.96
537.203	23.45
537.401	23.75
537.599	24.06
537.797	24.35
537.994	24.12
538.192	24.42
538.39	24.51
538.587	24.27
538.785	24.25
538.983	24.59
539.18	24.56
539.378	24.78
539.575	24.72
539.773	24.93
539.97	24.87
540.168	24.96
540.366	24.99
540.563	25.26
540.761	25.52
540.958	25.43
541.155	25.47
541.353	25.55
541.55	25.76
541.748	25.64
541.945	25.62
542.143	25.79
542.34	26.08
542.537	26.16
542.735	26.09
542.932	26.04
543.129	26.21
543.327	26.08
543.524	26.1
543.721	26.2
543.919	26.49
544.116	26.06
544.313	25.79
544.51	25.42
544.708	25.46
544.905	25.85
545.102	26.11
545.299	26.3
545.496	26.17
545.693	26.36
545.891	26.01
546.088	25.8
546.285	25.89
546.482	26.13
546.679	26.47
546.876	26.54
547.073	26.23
547.27	26.34
547.467	25.66
547.664	26.02
547.861	26.03
548.058	26.03
548.255	26.64
548.452	27.05
548.649	27.18
548.846	26.92
549.043	27.45
549.24	27.54
549.437	27.6
549.633	28.73
549.83	28.55
550.027	28.13
550.224	28.43
550.421	28.47
550.618	28.31
550.814	27.94
551.011	28.44
551.208	27.47
551.405	27.53
551.601	27.55
551.798	27.39
551.995	27.37
552.191	27.44
552.388	27.62
552.585	27.54
552.781	27.73
552.978	28.14
553.175	27.9
553.371	28.19
553.568	27.88
553.764	27.66
553.961	27.8
554.157	27.85
554.354	28.2
554.55	27.93
554.747	28.09
554.943	28.02
555.14	28.29
555.336	28.43
555.533	28.13
555.729	28.51
555.926	28.63
556.122	28.01
556.318	28.55
556.515	28.18
556.711	28.79
556.907	28.33
557.104	28.97
557.3	29
557.496	28.64
557.693	29.04
557.889	29.39
558.085	29.45
558.281	30.16
558.478	29.85
558.674	30.34
558.87	29.99
559.066	30.29
559.262	30.09
559.459	30.03
559.655	30.49
559.851	30.47
560.047	30.61
560.243	30.56
560.439	30.35
560.635	30.06
560.831	30.15
561.027	30.09
561.223	30.57
561.419	30.85
561.615	30.6
561.811	30.89
562.007	31.17
562.203	30.81
562.399	31.05
562.595	31.18
562.791	32.19
562.987	32.21
563.183	32.11
563.379	32.04
563.575	31.42
563.771	31.37
563.966	31.65
564.162	31.87
564.358	31.92
564.554	31.9
564.75	31.45
564.945	31.22
565.141	31.61
565.337	32.39
565.533	32.18
565.728	32.39
565.924	32.35
566.12	31.96
566.315	31.68
566.511	32
566.707	32.43
566.902	32.98
567.098	33.06
567.293	33.03
567.489	32.51
567.684	32.87
567.88	32.64
568.076	33.37
568.271	33.57
568.467	33.45
568.662	33.6
568.858	32.89
569.053	32.96
569.248	32.66
569.444	32.65
569.639	32.15
569.835	31.87
570.03	32.46
570.225	32.05
570.421	32.18
570.616	32.04
570.812	31.88
571.007	32.86
571.202	32.63
571.397	32.79
571.593	32.68
571.788	33.35
571.983	33.17
572.178	33.07
572.374	33.39
572.569	33.15
572.764	33.6
572.959	33.5
573.154	32.99
573.35	33.2
573.545	33.39
573.74	33.74
573.935	33.78
574.13	34.15
574.325	34.38
574.52	34.1
574.715	34.19
574.91	34.66
575.105	34.29
575.3	33.86
575.495	34.13
575.69	34.35
575.885	33.99
576.08	33.69
576.275	34.15
576.47	33.51
576.665	33.95
576.86	34.16
577.055	34.05
577.25	34.7
577.444	35.93
577.639	35.63
577.834	35.58
578.029	35.65
578.224	36.21
578.418	35.68
578.613	36.42
578.808	36.5
579.003	36.84
579.197	36.97
579.392	37.02
579.587	35.71
579.781	35.58
579.976	34.98
580.171	35.18
580.365	35.08
580.56	35.63
580.755	35.49
580.949	34.84
581.144	34.52
581.338	34
581.533	33.76
581.727	33.75
581.922	34.18
582.116	34.59
582.311	35.07
582.505	35.09
582.7	34.05
582.894	34.04
583.089	34.39
583.283	34.01
583.478	33.33
583.672	33.26
583.866	33.82
584.061	33.94
584.255	34.54
584.449	34.6
584.644	34.97
584.838	35.68
585.032	35.53
585.226	35.8
585.421	36.31
585.615	37.44
585.809	38.34
586.003	38.37
586.198	38.76
586.392	38.15
586.586	37.49
586.78	37.79
586.974	38.03
587.168	38
587.363	37.7
587.557	37.86
587.751	37.95
587.945	36.98
588.139	37.33
588.333	36.87
588.527	36.62
588.721	36.83
588.915	36.92
589.109	36.82
589.303	37.35
589.497	37.09
589.691	36.78
589.885	36.21
590.079	36.72
590.273	36.87
590.466	36.92
590.66	36.87
590.854	36.8
591.048	36.54
591.242	36.46
591.436	35.69
591.629	35.37
591.823	35.9
592.017	37.11
592.211	37.6
592.404	37.28
592.598	37.3
592.792	37.6
592.986	37.64
593.179	37.12
593.373	37.21
593.567	37.83
593.76	39.07
593.954	38.98
594.147	38.22
594.341	37.66
594.535	37.44
594.728	37.51
594.922	37.69
595.115	37.83
595.309	38.81
595.502	39.04
595.696	39.04
595.889	38.74
596.083	38.35
596.276	38.34
596.47	38.78
596.663	39.23
596.856	39.13
597.05	39.73
597.243	39.64
597.437	39.03
597.63	39.03
597.823	38.63
598.017	38.2
598.21	39.01
598.403	39.84
598.596	39.33
598.79	38.9
598.983	39.29
599.176	38.97
599.369	39.25
599.563	39.16
599.756	39.3
599.949	40.28
600.142	40.92
600.335	40.5
600.528	39.79
600.722	40.17
600.915	40.88
601.108	41.17
601.301	41.06
601.494	40.57
601.687	40.65
601.88	40.03
602.073	39.96
602.266	39.98
602.459	40
602.652	40.29
602.845	40.46
603.038	40.2
603.231	39.45
603.424	39.99
603.617	40.28
603.809	40.05
604.002	40.48
604.195	40.56
604.388	40.21
604.581	39.97
604.774	39.58
604.966	39.86
605.159	39.76
605.352	40.15
605.545	39.46
605.737	39.75
605.93	39.92
606.123	39.7
606.316	39.19
606.508	39.95
606.701	40.33
606.894	40.39
607.086	39.57
607.279	39.01
607.471	39.46
607.664	39.12
607.857	39.31
608.049	39.59
608.242	39.28
608.434	39.35
608.627	39.75
608.819	40.25
609.012	40.66
609.204	41.02
609.397	41.76
609.589	41.36
609.782	41.68
609.974	41.65
610.166	41.04
610.359	40.92
610.551	41.06
610.743	40.59
610.936	39.45
611.128	39.24
611.32	40.31
611.513	39.83
611.705	39.75
611.897	40.12
612.09	39.77
612.282	40.51
612.474	42.32
612.666	42.67
612.858	42.97
613.051	43.25
613.243	42.54
613.435	42.04
613.627	42.13
613.819	43.41
614.011	42.62
614.203	42.83
614.395	42.55
614.588	41.6
614.78	41.09
614.972	40.11
615.164	40.4
615.356	41.22
615.548	40.76
615.74	41.9
615.932	41.67
616.124	43.63
616.315	43.72
616.507	44.09
616.699	43.45
616.891	43.47
617.083	44.3
617.275	44.48
617.467	44.59
617.659	43.98
617.85	43.54
618.042	43.01
618.234	41.18
618.426	41.22
618.618	41.68
618.809	42.98
619.001	44.25
619.193	43.52
619.384	42.77
619.576	42.17
619.768	42.45
619.959	41.96
620.151	42.3
620.343	42.57
620.534	42.91
620.726	42.57
620.917	41.86
621.109	40.96
621.301	42.06
621.492	42.66
621.684	43.46
621.875	44.32
622.067	44.93
622.258	44.51
622.45	44.97
622.641	44.49
622.832	43.7
623.024	43.99
623.215	43.42
623.407	42.83
623.598	43.48
623.789	43.07
623.981	42.16
624.172	41.42
624.363	41.43
624.555	42.32
624.746	43.21
624.937	43.47
625.129	43.27
625.32	43.73
625.511	43.8
625.702	43.25
625.893	43.11
626.085	43.61
626.276	44.28
626.467	45.02
626.658	44.76
626.849	44.17
627.04	43.91
627.231	43.74
627.422	43.83
627.614	43.68
627.805	43.57
627.996	44.01
628.187	43.61
628.378	43.23
628.569	42.53
628.76	41.9
628.951	41.14
629.142	42.33
629.332	42.35
629.523	41.91
629.714	41.55
629.905	41.16
630.096	41.64
630.287	41.49
630.478	41.88
630.669	42.37
630.859	42.28
631.05	42.79
631.241	42.31
631.432	42.86
631.623	42.87
631.813	42.97
632.004	43.58
632.195	42.74
632.385	43.01
632.576	41.81
632.767	41.68
632.957	42.1
633.148	42.23
633.339	42.19
633.529	41.89
633.72	42.32
633.91	42.78
634.101	43.6
634.292	44.86
634.482	45.06
634.673	45.25
634.863	43.94
635.054	43.41
635.244	42.68
635.435	42.93
635.625	43.26
635.815	43.48
636.006	43.95
636.196	43.96
636.387	43.48
636.577	43.48
636.767	44.3
636.958	45.45
637.148	45.9
637.338	46.29
637.529	46.63
637.719	46.57
637.909	45.64
638.099	45.39
638.29	44.9
638.48	43.75
638.67	43.4
638.86	43.55
639.05	43.53
639.241	43.63
639.431	44.2
639.621	43.43
639.811	42.93
640.001	43.02
640.191	43.2
640.381	43.21
640.571	43.34
640.761	42.56
640.951	42.51
641.141	41.78
641.331	41.5
641.521	40.95
641.711	40.38
641.901	41.09
642.091	41.38
642.281	40.69
642.471	40.2
642.661	40.76
642.851	42.3
643.041	43.02
643.231	43.37
643.42	43.62
643.61	43.67
643.8	43.92
643.99	43.54
644.18	43.93
644.369	43.7
644.559	43.57
644.749	44.1
644.939	43.03
645.128	43.13
645.318	43.84
645.508	44.7
645.697	45.36
645.887	45.35
646.076	45.88
646.266	46.12
646.456	47.27
646.645	47.63
646.835	46.96
647.024	49.35
647.214	48.46
647.403	48.64
647.593	48.6
647.782	49.48
647.972	48.58
648.161	47.88
648.351	47.84
648.54	46.78
648.73	47.71
648.919	47.15
649.108	45.15
649.298	46.27
649.487	46.1
649.677	45.33
649.866	43.7
650.055	45.36
650.244	45.36
650.434	45.48
650.623	46.84
650.812	46.72
651.002	47.41
651.191	48.24
651.38	47.38
651.569	47.33
651.758	46.92
651.947	47.17
652.137	47.06
652.326	48.11
652.515	48.6
652.704	46.71
652.893	46.26
653.082	45.51
653.271	44.82
653.46	44.83
653.649	44.52
653.838	45.44
654.027	45.58
654.216	45.34
654.405	44.74
654.594	44.16
654.783	45.1
654.972	44.59
655.161	46.57
655.35	47.02
655.539	47.27
655.728	47.82
655.916	47.13
656.105	47.13
656.294	47.45
656.483	46.95
656.672	46.78
656.86	45.77
657.049	46.3
657.238	45.31
657.427	45.46
657.615	44.82
657.804	44.18
657.993	44.22
658.181	44.44
658.37	44.19
658.559	44.58
658.747	44.63
658.936	44.33
659.125	45.25
659.313	45.02
659.502	45.61
659.69	46.32
659.879	47.38
660.067	47.72
660.256	47.76
660.444	47.58
660.633	47.71
660.821	48.06
661.01	49.99
661.198	48.16
661.387	48.82
661.575	48.42
661.763	48.25
661.952	47.52
662.14	47.71
662.328	48.05
662.517	48.29
662.705	48.15
662.893	49.34
663.082	48.29
663.27	49.63
663.458	48.82
663.646	47.51
663.834	47.01
664.023	47.01
664.211	45.92
664.399	44.99
664.587	45.56
664.775	46.46
664.963	45.76
665.152	46.46
665.34	46.67
665.528	46.34
665.716	46.79
665.904	46.61
666.092	46.41
666.28	47.31
666.468	48.99
666.656	49.45
666.844	48.05
667.032	46.99
667.22	46.83
667.408	45.98
667.596	47.13
667.784	46.95
667.971	46.9
668.159	47.12
668.347	47.5
668.535	45.91
668.723	44.75
668.911	45.14
669.098	46.6
669.286	46.8
669.474	47.46
669.662	46.71
669.849	46.07
670.037	47.72
670.225	47.35
670.413	47.11
670.6	47.86
670.788	48.8
670.976	48.59
671.163	47.3
671.351	46.93
671.538	47.24
671.726	46.84
671.913	47.67
672.101	46.67
672.289	47.66
672.476	47.72
672.664	49.54
672.851	47.85
673.039	48.29
673.226	48.61
673.413	49.14
673.601	47.12
673.788	48.75
673.976	49.53
674.163	49.46
674.35	49.07
674.538	48.91
674.725	47.35
674.912	48.83
675.1	48.65
675.287	49.58
675.474	49.12
675.662	48.87
675.849	47.94
676.036	47.39
676.223	46.93
676.411	46.99
676.598	47.51
676.785	47.79
676.972	47.02
677.159	47.4
677.346	46.72
677.533	47.26
677.721	48.55
677.908	48.85
678.095	48.92
678.282	48.92
678.469	48.07
678.656	47.91
678.843	47.8
679.03	48.08
679.217	47.48
679.404	47.45
679.591	47.69
679.778	47.43
679.964	47.03
680.151	47.26
680.338	47.85
680.525	48.94
680.712	48.6
680.899	48.19
681.086	48.42
681.272	49.04
681.459	48.7
681.646	48.33
681.833	47.14
682.02	46.86
682.206	48.31
682.393	49.37
682.58	48.9
682.766	49.19
682.953	48.77
683.14	49.46
683.326	48.47
683.513	48.32
683.7	48.51
683.886	50.69
684.073	52.05
684.259	50.54
684.446	49.1
684.632	48.88
684.819	49.44
685.005	48.64
685.192	48.27
685.378	47.82
685.565	48.56
685.751	48.45
685.938	48.48
686.124	48.57
686.31	47.87
686.497	47.74
686.683	47.22
686.87	46.89
687.056	47.72
687.242	46.43
687.429	47.8
687.615	46.94
687.801	47.87
687.987	46.75
688.174	46.06
688.36	47.8
688.546	49
688.732	49.7
688.918	49.94
689.105	49.57
689.291	49.98
689.477	48.82
689.663	49.89
689.849	49.34
690.035	50.74
690.221	50.84
690.407	49.23
690.593	48.3
690.779	47.36
690.965	46.96
691.151	47.18
691.337	47.5
691.523	49.47
691.709	49.84
691.895	48.59
692.081	47.04
692.267	47.78
692.453	46.76
692.639	46.78
692.825	46.94
693.011	47.76
693.196	47.91
693.382	47.81
693.568	46.85
693.754	46.95
693.94	47.02
694.125	48.13
694.311	47.06
694.497	49.23
694.682	47.15
694.868	47.23
695.054	46.43
695.239	48.65
695.425	48.39
695.611	48.2
695.796	46.48
695.982	47.36
696.168	47.19
696.353	47.9
696.539	45.91
696.724	48.36
696.91	49.79
697.095	50.2
697.281	49.71
697.466	49.98
697.652	49.92
697.837	50.75
698.023	49.67
698.208	49.28
698.393	48.1
698.579	49.02
698.764	48.23
698.949	47.54
699.135	47.87
699.32	47.2
699.505	48.09
699.691	47.83
699.876	48.61
700.061	49.56
700.246	48.67
700.432	49.7
700.617	49.88
700.802	47.92
700.987	48.5
701.172	48.46
701.358	49.07
701.543	47.47
701.728	47.06
701.913	46.36
702.098	47.71
702.283	47.91
702.468	48.52
702.653	47.93
702.838	51.26
703.023	50.42
703.208	48.31
703.393	49.47
703.578	49.67
703.763	52.41
703.948	51.84
704.133	49.25
704.318	51.33
704.503	51.66
704.688	51.41
704.873	51.9
705.057	52.52
705.242	53.35
705.427	50.53
705.612	49.9
705.797	50.22
705.981	50.82
706.166	51.71
706.351	52.46
706.536	50.1
706.72	50.77
706.905	50.44
707.09	49.18
707.274	49.34
707.459	48.86
707.644	50.13
707.828	46.82
708.013	45.26
708.197	46.81
708.382	44.34
708.567	46.2
708.751	46.43
708.936	45.55
709.12	46.43
709.305	45.27
709.489	45.04
709.673	44.77
709.858	46.85
710.042	45.91
710.227	45.27
710.411	46.7
710.596	46.3
710.78	46.04
710.964	44.52
711.149	42.71
711.333	43.47
711.517	43.73
711.702	43.19
711.886	43.04
712.07	44.81
712.254	46.18
712.438	45.55
712.623	44.88
712.807	44.3
712.991	45.85
713.175	46.58
713.359	46.52
713.544	48.52
713.728	49.3
713.912	47.6
714.096	47.56
714.28	46.13
714.464	47.04
714.648	49.01
714.832	49.48
715.016	50.55
715.2	49.95
715.384	51.51
715.568	50.96
715.752	53.4
715.936	53.26
716.12	53.76
716.304	51.68
716.488	52.98
716.671	51.5
716.855	52.11
717.039	51.01
717.223	52.4
717.407	51.41
717.59	51.92
717.774	47.26
717.958	49.69
718.142	48.71
718.325	51.55
718.509	49.58
718.693	50.56
718.877	49.11
719.06	49.22
719.244	48.44
719.428	48.9
719.611	48.36
719.795	51.79
719.978	49.33
720.162	50.5
720.345	50.47
720.529	49.84
720.713	48.44
720.896	49.94
721.08	48.05
721.263	50.94
721.446	50.96
721.63	49.42
721.813	49.63
721.997	51.05
722.18	48.42
722.364	48.77
722.547	47.13
722.73	47.96
722.914	46.82
723.097	49.04
723.28	47.07
723.464	44.48
723.647	44.02
723.83	43.52
724.013	44.14
724.197	43.9
724.38	42.98
724.563	46.17
724.746	44.24
724.929	43.48
725.112	39.03
725.296	40.69
725.479	42.04
725.662	44.76
725.845	44.02
726.028	41.64
726.211	43.58
726.394	43.67
726.577	42.77
726.76	45.29
726.943	48.27
727.126	52.51
727.309	49.5
727.492	46.98
727.675	45.35
727.858	47.18
728.041	47.93
728.224	48.71
728.407	46.21
728.589	46.42
728.772	42.31
728.955	42.62
729.138	41.77
729.321	44.12
729.503	47.02
729.686	48.05
729.869	45.18
730.052	45.47
730.234	42.71
730.417	43.38
730.6	44.28
730.782	48.57
730.965	47.08
731.148	48.08
731.33	48.06
731.513	48.43
731.695	46.85
731.878	47.99
732.061	48.2
732.243	50.8
732.426	52.64
732.608	52.31
732.791	51.4
732.973	50.76
733.156	51.06
733.338	51.02
733.52	50.33
733.703	50.7
733.885	52.57
734.068	54.32
734.25	51.39
734.432	52.56
734.615	51.87
734.797	52.21
734.979	52.38
735.162	52.64
735.344	51.21
735.526	50.71
735.708	51.3
735.891	50.72
736.073	50.81
736.255	53.67
736.437	51.86
736.619	52.76
736.802	54.51
736.984	53.42
737.166	53.08
737.348	53.25
737.53	54.1
737.712	54.16
737.894	51.29
738.076	49.97
738.258	49.94
738.44	49.39
738.622	48.22
738.804	45.21
738.986	49.78
739.168	50.17
739.35	49.54
739.532	46.68
739.714	48.21
739.896	51.56
740.078	49.83
740.259	48.24
740.441	48.09
740.623	50.49
740.805	48.95
740.987	46.05
741.168	43.96
741.35	47.62
741.532	50.26
741.714	48.72
741.895	45.44
742.077	49.4
742.259	51.54
742.44	53.81
742.622	53.84
742.804	54.82
742.985	55.85
743.167	55.43
743.348	54.19
743.53	51.37
743.711	54.01
743.893	56.65
744.075	53.58
744.256	54.33
744.438	53.88
744.619	50.18
744.8	51.23
744.982	52.35
745.163	52.44
745.345	51.7
745.526	57.91
745.707	56.89
745.889	55.2
746.07	53.59
746.252	49.46
746.433	50.07
746.614	53.56
746.795	54.88
746.977	50.84
747.158	50.14
747.339	49.43
747.52	46.83
747.702	45.5
747.883	47.13
748.064	48.74
748.245	48.56
748.426	46.19
748.607	44.18
748.788	42.02
748.97	42.55
749.151	47.51
749.332	45.81
749.513	43.85
749.694	44.45
749.875	38.62
750.056	37.75
750.237	44.31
750.418	44.6
750.599	46.55
750.78	46.85
750.96	50.45
751.141	47.36
751.322	49.57
751.503	49.93
751.684	48.96
751.865	52.25
752.046	54.22
752.226	53.78
752.407	54.33
752.588	53.98
752.769	55.58
752.949	54.4
753.13	52.42
753.311	53.96
753.492	54.74
753.672	53.99
753.853	49.43
754.034	47.29
754.214	46.13
754.395	47.18
754.575	47.75
754.756	49.49
754.937	49.43
755.117	51.81
755.298	51.52
755.478	50.92
755.659	49.55
755.839	53.49
756.02	59.08
756.2	55.36
756.381	54.97
756.561	53.32
756.741	52.19
756.922	54
757.102	54.45
757.283	52.25
757.463	51.89
757.643	54.83
757.823	54.37
758.004	51.87
758.184	54.17
758.364	50.4
758.545	50.55
758.725	47.3
758.905	45.35
759.085	44.63
759.265	43.74
759.446	43.78
759.626	43.97
759.806	44.74
759.986	44.41
760.166	43.8
760.346	44.6
760.526	46.62
760.706	50.37
760.886	48.73
761.066	49.62
761.246	49.78
761.426	49.73
761.606	51
761.786	52.01
761.966	51.76
762.146	53.6
762.326	54.28
762.506	53.1
762.686	51.99
762.866	53.43
763.046	52.94
763.225	54.19
763.405	54.32
763.585	53.89
763.765	52.84
763.945	54.05
764.124	53.59
764.304	53.69
764.484	53.54
764.664	53.59
764.843	53.94
765.023	57.84
765.203	56.83
765.382	55.01
765.562	54.1
765.741	55.5
765.921	54.31
766.101	52.1
766.28	51.58
766.46	52.13
766.639	50.69
766.819	50.21
766.998	43.69
767.178	44.24
767.357	47.68
767.537	50.19
767.716	46.51
767.896	45.77
768.075	47.94
768.254	48.35
768.434	46.55
768.613	48.83
768.792	49.9
768.972	51.78
769.151	51.26
769.33	51.18
769.51	49.04
769.689	51.34
769.868	45.24
770.047	43.51
770.226	40.53
770.406	42.53
770.585	46.25
770.764	44.98
770.943	48.33
771.122	48.51
771.301	45.83
771.48	46.95
771.66	47.02
771.839	51.43
772.018	54.79
772.197	58.69
772.376	59.95
772.555	58.53
772.734	57.08
772.913	56.68
773.092	59.68
773.271	60.75
773.449	60
773.628	55.88
773.807	53.67
773.986	51.76
774.165	54.03
774.344	44.91
774.523	42.95
774.701	46.1
774.88	46.44
775.059	38.18
775.238	39.61
775.417	36.42
775.595	39.3
775.774	41.53
775.953	39.74
776.131	33.64
776.31	40.19
776.489	43.28
776.667	41.27
776.846	39.54
777.025	45.32
777.203	47.25
777.382	49.39
777.56	52.07
777.739	53.14
777.917	57.81
778.096	59.78
778.274	61.58
778.453	62.63
778.631	60.79
778.81	58.73
778.988	61.84
779.166	64
779.345	65.81
779.523	61.48
779.702	61.4
779.88	61.12
780.058	62.74
780.237	64.7
780.415	62.24
780.593	60.79
780.771	60.99
780.95	56.03
781.128	51.9
781.306	46.86
781.484	51.63
781.662	49.65
781.841	45.09
782.019	40.26
782.197	34.96
782.375	38.52
782.553	38.07
782.731	40
782.909	44.52
783.087	45.15
783.265	47.57
783.443	42.21
783.621	48.43
783.799	48.88
783.977	50.57
784.155	56.28
784.333	53.85
784.511	53.86
784.689	51.47
784.867	50.64
785.045	48.46
785.223	47.49
785.4	49.5
785.578	46.07
785.756	41.97
785.934	40.27
786.112	37.99
786.289	32.62
786.467	30.8
786.645	33.71
786.823	34.72
787	33.06
787.178	34.41
787.356	36.18
787.533	38.24
787.711	40.73
787.889	41.86
788.066	41.98
788.244	43.6
788.421	47.93
788.599	47.77
788.776	44.59
788.954	47.94
789.131	46.96
789.309	44.5
789.486	35.91
789.664	35.26
789.841	38.7
790.019	36.1
790.196	34.47
790.373	32.46
790.551	28.35
790.728	32
790.906	27.77
791.083	25.44
791.26	25.35
791.437	32.13
791.615	34.9
791.792	33.77
791.969	35.59
792.146	40.41
792.324	42.03
792.501	46.93
792.678	47.53
792.855	49.93
793.032	54.04
793.209	56.41
793.387	58.82
793.564	58.96
793.741	62.24
793.918	60.71
794.095	54.11
794.272	61.69
794.449	57.71
794.626	46.16
794.803	47.94
794.98	54.18
795.157	55.84
795.334	55.04
795.511	55.38
795.688	55.15
795.864	55.85
796.041	60.17
796.218	56.66
796.395	52.17
796.572	62.47
796.749	59.89
796.925	51.61
797.102	47.72
797.279	48.11
797.456	47.44
797.632	47.22
797.809	45.38
797.986	43.03
798.162	41.46
798.339	45.89
798.516	44.77
798.692	49.31
798.869	54.25
799.046	56.37
799.222	55.1
799.399	54.23
799.575	52.08
799.752	54.17
799.928	52.91
800.105	51.84
800.281	55.13
800.458	59.79
800.634	59.06
800.811	54.74
800.987	57.64
801.163	57.76
801.34	60.59
801.516	64.62
801.692	65.98
801.869	71.82
802.045	68.39
802.221	64.09
802.398	60.98
802.574	56.6
802.75	56.2
802.926	53.16
803.103	56.66
803.279	54.68
803.455	49.64
803.631	49.06
803.807	50.01
803.983	52.79
804.16	44.89
804.336	41.38
804.512	43.01
804.688	49.91
804.864	46.25
805.04	41.04
805.216	41.69
805.392	41
805.568	42.37
805.744	40.32
805.92	41.62
806.096	43.42
806.272	48.04
806.448	47.69
806.623	41.44
806.799	54.06
806.975	47.99
807.151	52.36
807.327	63.24
807.503	57.36
807.678	66.04
807.854	60.13
808.03	69.52
808.206	67.84
808.381	63.74
808.557	68.59
808.733	57.01
808.908	64.59
809.084	62.8
809.26	62.82
809.435	62.32
809.611	53.33
809.787	48.87
809.962	44.66
810.138	47.95
810.313	50.27
810.489	46.55
810.664	46.79
810.84	41.08
811.015	34.84
811.191	30.08
811.366	33.74
811.542	40.4
811.717	44.83
811.892	44.23
812.068	34.95
812.243	33.38
812.419	28
812.594	26.71
812.769	33.3
812.944	38.53
813.12	44.95
813.295	38.67
813.47	42.09
813.645	42.16
813.821	49.85
813.996	49.17
814.171	49.15
814.346	46.32
814.521	44.81
814.697	39.01
814.872	41
815.047	36.63
815.222	39.62
815.397	25.97
815.572	25.89
815.747	24.62
815.922	26.59
816.097	23.45
816.272	27.1
816.447	31.89
816.622	34.8
816.797	29.52
816.972	23.19
817.147	25.41
817.322	36.29
817.496	37.72
817.671	34
817.846	29.84
818.021	28.2
818.196	28.95
818.371	29.61
818.545	30.31
818.72	36.18
818.895	40.43
819.069	38.69
819.244	32.54
819.419	33.43
819.594	32.95
819.768	37.2
819.943	41.58
820.117	43.4
820.292	40.57
820.467	41
820.641	41.7
820.816	42.76
820.99	41.46
821.165	44.44
821.339	43.78
821.514	43.82
821.688	43.61
821.863	43.84
822.037	42.55
822.212	43.72
822.386	43.36
822.56	43.21
822.735	43.22
822.909	43.89
823.084	42.54
823.258	42.62
823.432	43.03
823.606	44
823.781	43.34
823.955	44.53
824.129	43.25
824.303	43.31
824.478	42.52
824.652	41.92
824.826	42.88
825	42.25
825.174	43.5
825.348	43.9
825.523	43.72
825.697	44.58
825.871	43.87
826.045	45.14
826.219	46.98
826.393	46.12
826.567	45.2
826.741	44.71
826.915	43.5
827.089	41.33
827.263	41.28
827.437	40.33
827.611	38.02
827.784	37.92
827.958	36.95
828.132	34.6
828.306	33.36
828.48	31.43
828.654	32.9
828.827	36.9
829.001	38.19
829.175	34.24
829.349	34.15
829.522	35.1
829.696	35.56
829.87	35.11
830.044	34.67
830.217	39.32
830.391	46.17
830.565	39.18
830.738	33.87
830.912	29.34
831.085	30.33
831.259	28.64
831.432	27.39
831.606	26.54
831.779	29.86
831.953	34.04
832.126	29.21
832.3	27.66
832.473	31.8
832.647	30.54
832.82	32.15
832.994	35.52
833.167	39.15
833.34	36.96
833.514	39.65
833.687	40.96
833.86	42.34
834.034	43.79
834.207	41.99
834.38	42.38
834.553	44.41
834.727	44.03
834.9	42.48
835.073	41.83
835.246	44.6
835.419	42.53
835.593	40.18
835.766	33.44
835.939	35.78
836.112	35.41
836.285	35.14
836.458	34.91
836.631	39.67
836.804	37.43
836.977	27.15
837.15	25.02
837.323	35.92
837.496	37.84
837.669	43.15
837.842	34.45
838.015	40.24
838.188	38.06
838.361	35.22
838.533	32.86
838.706	38.72
838.879	37.13
839.052	33.74
839.225	17.1
839.398	18.64
839.57	16.74
839.743	15.65
839.916	22.27
840.088	16.37
840.261	19.39
840.434	15.03
840.607	11.48
840.779	19.92
840.952	28.26
841.124	24.16
841.297	15.32
841.47	24.39
841.642	24.09
841.815	7.89
841.987	10.57
842.16	10.01
842.332	10.82
842.505	22.87
842.677	28.34
842.85	40.06
843.022	46.52
843.194	50.98
843.367	45.53
843.539	57.71
843.712	69.08
843.884	73.13
844.056	67.46
844.229	76.29
844.401	83.48
844.573	75.86
844.745	62.07
844.918	66.06
845.09	49.79
845.262	45.06
845.434	29.21
845.606	10.96
845.779	9.33
845.951	38.15
846.123	32.88
846.295	12.35
846.467	-0.73
846.639	-27.29
846.811	-32.11
846.983	-10.89
847.155	-137.16
847.327	-118.46
847.499	-170.2
847.671	-35.01
847.843	-47.54
848.015	-101.45
848.187	-68.61
848.359	-47.18
848.531	-23.45
848.703	3.45
848.875	-24.3
849.047	-4.04
849.218	-0.3
849.39	2.92
849.562	0.49
849.734	-5.2
849.905	21.05
850.077	37.21
850.249	40.34
850.421	40.11
850.592	35.86
850.764	34.39
850.936	46.94
851.107	43.32
851.279	47.5
851.451	35.67
851.622	32.18
851.794	27.4
851.965	9.21
852.137	-4.93
852.308	-2.15
852.48	-0.84
852.651	14.43
852.823	0.47
852.994	0.79
853.166	1.15
853.337	6.56
853.509	11.96
853.68	13.18
853.851	23.24
854.023	24.08
854.194	10.83
854.365	3.01
854.537	-7.88
854.708	17.73
854.879	43.33
855.05	44.19
855.222	49.94
855.393	21.12
855.564	-4.71
855.735	-38.55
855.906	-32.08
856.078	-11.48
856.249	12.7
856.42	-1.42
856.591	-2.12
856.762	-14.65
856.933	-34.82
857.104	-33.93
857.275	-17.18
857.446	5.48
857.617	18.27
857.788	21.61
857.959	27.19
858.13	4.38
858.301	22.28
858.472	22.72
858.643	37.04
858.814	32.69
858.985	22.2
859.155	11.68
859.326	8.23
859.497	-4.39
859.668	7.01
859.839	4.68
860.009	8.93
860.18	-5.7
860.351	-0.58
860.522	3.71
860.692	-3.01
860.863	3.8
861.034	2.69
861.204	-7.87
861.375	-0.04
861.546	-7.95
861.716	1.6
861.887	18.2
862.057	11.23
862.228	5.67
862.398	-8.33
862.569	-35.72
862.739	15.89
862.91	15.48
863.08	21.88
863.251	24.62
863.421	-6.05
863.592	-15.21
863.762	-6.86
863.932	2.58
864.103	-35.13
864.273	-38.23
864.443	-9.19
864.614	-20.59
864.784	-44.54
864.954	-64.42
865.125	-24.58
865.295	-1.91
865.465	-2.8
865.635	-65.34
865.805	-121.7
865.976	-128.32
866.146	-165.76
866.316	-323.09
866.486	-3901.52
866.656	446.89
866.826	357.26
866.996	224.85
867.166	137.14
867.336	170.35
867.506	260.02
867.676	-475.3
867.846	-47.79
868.016	-42.14
868.186	-18.24
868.356	15.66
868.526	21.85
868.696	41.46
868.866	52.68
869.036	29.68
869.206	25.61
869.376	2.09
869.545	7.98
869.715	-15.28
869.885	13.95
870.055	10.85
870.224	1.57
870.394	4.54
870.564	7.31
870.734	-14.18
870.903	18.28
871.073	31.01
871.243	30.43
871.412	32.95
871.582	56.39
871.751	34.6
871.921	45.91
872.091	56.93
872.26	49.11
872.43	37.08
872.599	16
872.769	-25.09
872.938	-18.42
873.108	-0.05
873.277	33.01
873.446	14.18
873.616	20.06
873.785	17.03
873.955	11.25
874.124	-1.35
874.293	-8.11
874.463	-9.76
874.632	-14.4
874.801	-28.55
874.971	-28.8
875.14	-59.8
875.309	-15.42
875.478	0.42
875.647	-37.77
875.817	-58.21
875.986	-43.86
876.155	-53.62
876.324	-69.59
876.493	-69.14
876.662	-44.55
876.831	-35.83
877	-83.7
877.17	-762.33
877.339	-849.75
877.508	-645.98
877.677	3981.15
877.846	-231.16
878.015	-144.87
878.184	-86.16
878.352	-71.82
878.521	-58.86
878.69	-50.02
878.859	13.38
879.028	38.57
879.197	35.74
879.366	38.26
879.534	51.21
879.703	48.52
879.872	52.11
880.041	46.88
880.21	43.64
880.378	35.87
880.547	35.47
880.716	31.21
880.884	30.83
881.053	33.85
881.222	35.23
881.39	33.82
881.559	33.28
881.727	32.98
881.896	33.95
882.065	32.19
882.233	33.45
882.402	33.07
882.57	30.92
882.739	30.64
882.907	29.62
883.076	27.9
883.244	27.13
883.412	26.52
883.581	24.62
883.749	25.5
883.918	27.36
884.086	24.51
884.254	20.54
884.423	25.87
884.591	23.03
884.759	22.18
884.927	19.87
885.096	18.22
885.264	5.53
885.432	2.97
885.6	-0.25
885.769	-2.04
885.937	-12.87
886.105	-32.24
886.273	-36.63
886.441	-43.32
886.609	-39.9
886.777	-24.79
886.945	-66.63
887.113	-44.99
887.281	-20.2
887.449	-24.4
887.617	-15.77
887.785	-1.21
887.953	22.15
888.121	11.81
888.289	-1.41
888.457	-21.56
888.625	-24.02
888.793	-10.98
888.961	-15.57
889.129	-27.93
889.296	-72.11
889.464	-137.66
889.632	-108.99
889.8	-245.72
889.967	-135.95
890.135	-71.97
