Data from JASIL_2932_Reflection_2.txt Node
Date: Sat Nov 07 20:54:02 EST 2015
User: Geneva
Spectrometer: USB4E03002
Autoset integration time: false
Trigger mode: 4
Integration Time (sec): 1.000000E-1
Scans to average: 10
Electric dark correction enabled: true
Nonlinearity correction enabled: false
Boxcar width: 5
Stray light correction enabled: false
XAxis mode: Wavelengths
Stop averaging: false
Number of Pixels in Spectrum: 3648
>>>>>Begin Spectral Data<<<<<
177.575	-1621.63
177.794	-367.08
178.014	-406.23
178.233	-40.05
178.452	-14.32
178.672	60.59
178.891	173
179.11	0
179.33	1132.62
179.549	-1101.03
179.768	803.39
179.987	-567.09
180.207	-36.5
180.426	15.14
180.645	27.12
180.864	40.61
181.084	46.09
181.303	36.25
181.522	13.21
181.741	13.63
181.96	8.85
182.179	19.6
182.398	10.43
182.618	1.25
182.837	-7.45
183.056	-22.02
183.275	-33.98
183.494	-35.97
183.713	-6.02
183.932	-5.23
184.151	-7.22
184.37	7.76
184.589	-0.52
184.808	6.58
185.027	17.7
185.246	14.7
185.465	16.32
185.684	11.66
185.903	16.59
186.122	19.6
186.341	21.84
186.56	15.61
186.779	14.66
186.998	12.74
187.216	17.45
187.435	3.47
187.654	-5.33
187.873	5.69
188.092	4.92
188.311	-7.43
188.53	-0.74
188.748	0.46
188.967	-1.8
189.186	-16.99
189.405	-10.5
189.623	-34.42
189.842	-12.93
190.061	-14.42
190.28	-32.2
190.498	-39.66
190.717	-55.15
190.936	-82.71
191.154	-116.79
191.373	-142.66
191.592	-153.65
191.81	-152.87
192.029	-121.11
192.248	-168.51
192.466	-106.84
192.685	-83.54
192.904	-52.34
193.122	-48.44
193.341	-47.02
193.559	-19.77
193.778	-12.91
193.996	-5.42
194.215	-3.08
194.433	-7.25
194.652	-0.29
194.87	-3.65
195.089	-1.79
195.307	-2.84
195.526	5.84
195.744	9.03
195.963	11.4
196.181	24.63
196.399	14.17
196.618	7.6
196.836	10.35
197.055	-2.18
197.273	2.15
197.491	9.62
197.71	10.7
197.928	-2.44
198.146	9.34
198.365	0.36
198.583	-9.55
198.801	14.87
199.019	9.03
199.238	25.52
199.456	37.24
199.674	13.65
199.892	11.61
200.111	-3.76
200.329	23.1
200.547	2.19
200.765	-10.05
200.983	-18.48
201.202	-0.8
201.42	6.05
201.638	-20.15
201.856	-15.44
202.074	-3.49
202.292	7.7
202.51	9.25
202.728	-12.84
202.946	-11.17
203.165	-3.17
203.383	-11.24
203.601	-26.64
203.819	-23
204.037	-11.61
204.255	-10.56
204.473	5.81
204.691	2.93
204.909	-14.76
205.127	12.63
205.345	23.27
205.562	24
205.78	24.17
205.998	22.78
206.216	25.03
206.434	19.48
206.652	18.52
206.87	15.92
207.088	7.41
207.306	13.04
207.523	2.28
207.741	-14.72
207.959	-18
208.177	-14.15
208.395	-36.67
208.612	-74.92
208.83	-36.77
209.048	-15.71
209.266	-65.48
209.483	-68.65
209.701	-50.36
209.919	-48.61
210.136	-39.23
210.354	-11.66
210.572	-7.2
210.79	1.73
211.007	2.55
211.225	0.68
211.442	-4.51
211.66	12.95
211.878	13.49
212.095	13.4
212.313	19.02
212.53	20.01
212.748	11.59
212.966	4.48
213.183	0.19
213.401	2.13
213.618	0.47
213.836	-4.61
214.053	-7.28
214.271	-0.73
214.488	-4.31
214.705	-14.77
214.923	-12.01
215.14	-9.58
215.358	-7.52
215.575	-8.65
215.793	-4.58
216.01	-9.25
216.227	-10.62
216.445	-20.44
216.662	-23.2
216.879	-15.75
217.097	-11.67
217.314	-13.45
217.531	-10.83
217.749	-12.31
217.966	-3.94
218.183	-2.54
218.4	-6.82
218.618	-0.1
218.835	8.21
219.052	9.17
219.269	6.33
219.487	7.93
219.704	4.95
219.921	3.9
220.138	6.62
220.355	2.22
220.572	0.96
220.79	4.76
221.007	8.73
221.224	7.21
221.441	5.2
221.658	2.07
221.875	-1.96
222.092	-0.8
222.309	0.13
222.526	0.89
222.743	1.93
222.96	-2.57
223.177	-4.88
223.394	-8.88
223.611	-9.69
223.828	-12.55
224.045	-10.29
224.262	-6.59
224.479	-6.79
224.696	-7.05
224.913	-4.61
225.13	-1.49
225.347	2.07
225.564	2.19
225.781	3.27
225.997	5.21
226.214	6.76
226.431	8.74
226.648	8.81
226.865	9.59
227.082	9.66
227.298	9.51
227.515	8.98
227.732	8.68
227.949	9.73
228.165	9.46
228.382	8.91
228.599	8.8
228.816	8.22
229.032	7.76
229.249	7.16
229.466	7.09
229.682	6.59
229.899	6.49
230.116	7.06
230.332	6.95
230.549	7.82
230.765	8.83
230.982	8.65
231.199	8.39
231.415	8.06
231.632	7.97
231.848	7.84
232.065	8.17
232.281	8.79
232.498	9
232.714	8.3
232.931	6.95
233.147	7.36
233.364	8
233.58	9.38
233.797	10.07
234.013	9.86
234.23	9.73
234.446	10.18
234.662	9.46
234.879	8.53
235.095	9.38
235.312	9.28
235.528	8.57
235.744	8.14
235.961	7.68
236.177	7.27
236.393	8.35
236.61	8.5
236.826	8.53
237.042	8.14
237.258	8.51
237.475	7.55
237.691	8.43
237.907	7.14
238.123	7.67
238.339	7.36
238.556	7.41
238.772	6.47
238.988	6.87
239.204	6.45
239.42	7.56
239.636	7.47
239.853	7.9
240.069	7.58
240.285	8.3
240.501	7.8
240.717	8.01
240.933	8.7
241.149	9.19
241.365	9.25
241.581	9.44
241.797	8.99
242.013	9
242.229	9.2
242.445	9.34
242.661	9.43
242.877	9.67
243.093	9.28
243.309	8.84
243.525	8.55
243.741	8.45
243.957	8.27
244.173	8.7
244.388	8.71
244.604	8.3
244.82	8.32
245.036	8.4
245.252	8.69
245.468	8.77
245.683	9.02
245.899	9.23
246.115	9.23
246.331	9.24
246.547	9.07
246.762	9.05
246.978	9.2
247.194	9.03
247.409	8.86
247.625	8.57
247.841	8.52
248.057	8.3
248.272	7.77
248.488	7.61
248.703	7.12
248.919	7.42
249.135	7.26
249.35	6.58
249.566	6.87
249.782	6.63
249.997	6.81
250.213	6.82
250.428	6.74
250.644	7.22
250.859	7.04
251.075	7.68
251.29	7.37
251.506	7.07
251.721	7.39
251.937	7.33
252.152	7.82
252.368	7.76
252.583	7.89
252.798	7.6
253.014	7
253.229	7.15
253.445	6.13
253.66	5.99
253.875	6.11
254.091	5.57
254.306	4.79
254.521	3.76
254.737	4.23
254.952	3.43
255.167	3.22
255.383	4
255.598	4
255.813	4.18
256.028	3.93
256.244	4.12
256.459	4.48
256.674	5.12
256.889	5.75
257.104	5.69
257.32	6.1
257.535	6.61
257.75	6.64
257.965	6.67
258.18	6.85
258.395	7.01
258.61	7.07
258.826	7.23
259.041	7.09
259.256	7.02
259.471	6.99
259.686	7.03
259.901	6.98
260.116	7.05
260.331	7.18
260.546	7.26
260.761	7.27
260.976	7.33
261.191	7.06
261.406	6.9
261.621	6.65
261.836	6.17
262.05	5.78
262.265	5.41
262.48	5.27
262.695	4.76
262.91	4.63
263.125	4.27
263.34	4.08
263.555	4.12
263.769	4.38
263.984	4.64
264.199	5.2
264.414	5.48
264.629	5.62
264.843	5.05
265.058	5.03
265.273	5.21
265.488	5.21
265.702	5.08
265.917	5.38
266.132	5.51
266.346	5.49
266.561	5.59
266.776	5.67
266.99	5.85
267.205	6.18
267.42	6.29
267.634	6.12
267.849	6.4
268.063	6.41
268.278	6.03
268.492	6.07
268.707	6.39
268.922	6.38
269.136	6.17
269.351	6.02
269.565	5.97
269.78	5.91
269.994	5.8
270.209	5.34
270.423	5.57
270.637	5.78
270.852	5.8
271.066	5.61
271.281	5.52
271.495	5.68
271.709	5.64
271.924	5.61
272.138	5.45
272.353	5.53
272.567	5.45
272.781	5.16
272.996	5.06
273.21	4.93
273.424	4.89
273.638	4.97
273.853	4.88
274.067	4.81
274.281	4.77
274.495	5.02
274.71	4.71
274.924	4.75
275.138	4.96
275.352	5.02
275.566	4.94
275.781	5.03
275.995	4.99
276.209	5.12
276.423	4.9
276.637	4.75
276.851	4.63
277.065	4.97
277.279	5.16
277.493	5.31
277.707	5.15
277.921	5.26
278.135	5.27
278.349	5.06
278.563	4.88
278.777	4.96
278.991	5.33
279.205	5.82
279.419	5.67
279.633	5.89
279.847	5.73
280.061	5.8
280.275	5.74
280.489	5.56
280.703	5.64
280.917	5.51
281.131	5.7
281.344	5.51
281.558	5.04
281.772	5.15
281.986	5.15
282.2	5.13
282.414	5.24
282.627	5.43
282.841	5.68
283.055	5.8
283.269	5.75
283.482	5.61
283.696	5.61
283.91	5.81
284.123	5.8
284.337	5.66
284.551	5.58
284.764	5.41
284.978	5.39
285.192	5.37
285.405	5.39
285.619	5.66
285.833	5.55
286.046	5.49
286.26	5.49
286.473	5.36
286.687	5.32
286.9	5.48
287.114	5.38
287.327	5.28
287.541	5.1
287.754	4.85
287.968	4.65
288.181	4.7
288.395	4.85
288.608	4.6
288.822	4.63
289.035	4.89
289.248	4.76
289.462	5.05
289.675	4.95
289.889	4.84
290.102	4.97
290.315	5.12
290.529	5.29
290.742	5.19
290.955	5.43
291.169	5.63
291.382	5.44
291.595	5.41
291.808	5.18
292.022	5.65
292.235	5.8
292.448	5.79
292.661	5.68
292.875	5.74
293.088	5.69
293.301	5.43
293.514	5.31
293.727	5.27
293.94	5.38
294.153	5.47
294.367	5.11
294.58	5.01
294.793	4.96
295.006	5.05
295.219	5.18
295.432	5.22
295.645	5.4
295.858	5.23
296.071	5.34
296.284	5.21
296.497	5.17
296.71	5.15
296.923	5.23
297.136	5.37
297.349	5.36
297.562	5.1
297.775	5.13
297.988	5.05
298.201	5.33
298.414	5.33
298.626	5.49
298.839	5.57
299.052	5.59
299.265	5.49
299.478	5.3
299.691	5.14
299.903	5.27
300.116	5.18
300.329	5.24
300.542	5.12
300.755	5.1
300.967	5.17
301.18	5.27
301.393	5.2
301.605	5.28
301.818	5.32
302.031	5.6
302.243	5.5
302.456	5.87
302.669	5.76
302.881	5.8
303.094	5.78
303.307	5.96
303.519	5.86
303.732	6.06
303.944	6.06
304.157	6.07
304.37	6.07
304.582	6.28
304.795	5.81
305.007	6.05
305.22	6.13
305.432	6.14
305.645	5.98
305.857	6.22
306.069	6.21
306.282	6.15
306.494	6.28
306.707	6.08
306.919	6
307.132	6.04
307.344	5.71
307.556	5.62
307.769	5.65
307.981	5.7
308.193	5.56
308.406	5.37
308.618	5.51
308.83	5.56
309.043	5.73
309.255	5.79
309.467	5.97
309.679	6.24
309.892	6.26
310.104	6.19
310.316	6.05
310.528	5.94
310.74	6.3
310.953	6.45
311.165	6.29
311.377	6
311.589	5.92
311.801	5.87
312.013	5.9
312.225	5.96
312.437	6.16
312.649	6.27
312.862	6.4
313.074	6.24
313.286	5.9
313.498	6.04
313.71	6.53
313.922	6.59
314.134	6.61
314.346	6.5
314.558	6.64
314.77	6.49
314.982	6.23
315.193	6.25
315.405	5.9
315.617	6.01
315.829	6
316.041	5.86
316.253	5.75
316.465	5.83
316.677	5.9
316.888	5.86
317.1	6
317.312	6.38
317.524	6.46
317.736	6.89
317.947	7.29
318.159	7.51
318.371	7.58
318.583	7.97
318.794	8.29
319.006	8.49
319.218	8.42
319.43	8.36
319.641	8.41
319.853	8.74
320.064	8.93
320.276	8.81
320.488	8.82
320.699	8.88
320.911	8.93
321.123	9
321.334	8.84
321.546	8.9
321.757	9.02
321.969	9.14
322.18	8.83
322.392	8.67
322.603	8.65
322.815	8.49
323.026	8.61
323.238	8.38
323.449	8.4
323.661	8.43
323.872	8.72
324.083	8.77
324.295	8.78
324.506	8.92
324.718	8.95
324.929	9.34
325.14	9.63
325.352	9.62
325.563	9.88
325.774	9.76
325.986	10.01
326.197	9.94
326.408	10.13
326.62	10.32
326.831	10.63
327.042	10.8
327.253	10.79
327.464	10.99
327.676	11.12
327.887	11.28
328.098	11.5
328.309	11.67
328.52	11.98
328.732	12.23
328.943	12.47
329.154	12.79
329.365	13.08
329.576	13.29
329.787	13.39
329.998	13.82
330.209	13.97
330.42	14.17
330.631	14.22
330.842	14.39
331.053	14.57
331.264	14.52
331.475	14.41
331.686	14.57
331.897	14.51
332.108	14.58
332.319	14.45
332.53	14.64
332.741	14.66
332.952	14.78
333.163	14.88
333.374	15.01
333.585	15.12
333.795	15.14
334.006	15.23
334.217	15.35
334.428	15.45
334.639	15.48
334.849	15.44
335.06	15.65
335.271	15.76
335.482	15.79
335.692	15.78
335.903	15.8
336.114	15.74
336.325	15.66
336.535	15.7
336.746	15.54
336.957	15.74
337.167	15.75
337.378	15.45
337.589	15.44
337.799	15.43
338.01	15.29
338.22	15.32
338.431	15.47
338.642	15.42
338.852	15.17
339.063	15.3
339.273	15.21
339.484	15.25
339.694	15.29
339.905	15.24
340.115	15.18
340.326	15.04
340.536	15.08
340.746	14.94
340.957	14.9
341.167	14.95
341.378	14.82
341.588	14.91
341.799	14.91
342.009	15.03
342.219	15
342.43	14.91
342.64	14.88
342.85	14.63
343.061	14.73
343.271	14.86
343.481	14.97
343.691	15.05
343.902	14.86
344.112	14.82
344.322	14.76
344.532	14.65
344.743	14.77
344.953	14.79
345.163	15.03
345.373	14.86
345.583	14.8
345.793	14.71
346.004	14.7
346.214	14.77
346.424	14.84
346.634	14.97
346.844	15.08
347.054	15.02
347.264	15.08
347.474	14.98
347.684	15.04
347.894	14.92
348.104	14.86
348.314	14.82
348.524	14.82
348.734	14.66
348.944	14.55
349.154	14.64
349.364	14.53
349.574	14.57
349.784	14.57
349.994	14.63
350.204	14.73
350.413	14.81
350.623	14.82
350.833	14.66
351.043	14.58
351.253	14.63
351.463	14.47
351.672	14.5
351.882	14.35
352.092	14.3
352.302	14.14
352.511	13.89
352.721	13.78
352.931	13.83
353.141	13.88
353.35	13.82
353.56	13.65
353.77	13.73
353.979	13.74
354.189	13.79
354.399	13.83
354.608	13.89
354.818	14.09
355.027	14.22
355.237	14.03
355.447	14.03
355.656	14.12
355.866	14.24
356.075	14.02
356.285	13.96
356.494	13.97
356.704	13.91
356.913	13.94
357.123	13.77
357.332	13.74
357.542	13.92
357.751	13.86
357.96	13.81
358.17	13.87
358.379	14
358.589	14.11
358.798	14.06
359.007	14.03
359.217	13.95
359.426	14.09
359.635	14.02
359.845	13.89
360.054	13.86
360.263	13.91
360.472	13.75
360.682	13.76
360.891	13.64
361.1	13.56
361.309	13.56
361.519	13.62
361.728	13.62
361.937	13.64
362.146	13.58
362.355	13.64
362.564	13.62
362.774	13.66
362.983	13.47
363.192	13.43
363.401	13.54
363.61	13.45
363.819	13.39
364.028	13.49
364.237	13.4
364.446	13.49
364.655	13.39
364.864	13.36
365.073	13.36
365.282	13.47
365.491	13.48
365.7	13.4
365.909	13.37
366.118	13.4
366.327	13.24
366.536	13.18
366.745	13.19
366.954	13.23
367.162	13.15
367.371	13.1
367.58	13.02
367.789	12.98
367.998	13.04
368.207	13.26
368.415	13.19
368.624	13.04
368.833	13.2
369.042	13.25
369.25	13.28
369.459	13.29
369.668	13.28
369.877	13.3
370.085	13.39
370.294	13.33
370.503	13.18
370.711	13.17
370.92	13.18
371.129	13.09
371.337	13.04
371.546	12.93
371.754	12.92
371.963	12.99
372.171	13
372.38	12.73
372.589	12.67
372.797	12.7
373.006	12.68
373.214	12.74
373.423	12.59
373.631	12.48
373.84	12.52
374.048	12.4
374.256	12.22
374.465	12.24
374.673	12.25
374.882	12.14
375.09	12.06
375.298	12.08
375.507	12
375.715	12.09
375.923	12
376.132	11.89
376.34	11.84
376.548	11.92
376.757	11.86
376.965	11.93
377.173	12.12
377.381	12.12
377.59	12.07
377.798	12.08
378.006	12.11
378.214	12.24
378.423	12.35
378.631	12.43
378.839	12.34
379.047	12.28
379.255	12.24
379.463	12.1
379.671	12.01
379.879	11.97
380.088	11.99
380.296	11.86
380.504	11.86
380.712	11.85
380.92	11.97
381.128	12.07
381.336	12.1
381.544	12.11
381.752	12.06
381.96	11.93
382.168	11.84
382.376	11.74
382.584	11.71
382.791	11.67
382.999	11.52
383.207	11.38
383.415	11.27
383.623	11.18
383.831	11.14
384.039	11.15
384.247	11.27
384.454	11.31
384.662	11.49
384.87	11.49
385.078	11.37
385.285	11.47
385.493	11.47
385.701	11.5
385.909	11.64
386.116	11.67
386.324	11.68
386.532	11.64
386.739	11.56
386.947	11.31
387.155	11.28
387.362	11.33
387.57	11.32
387.778	11.33
387.985	11.34
388.193	11.19
388.4	11.25
388.608	11.09
388.816	11.03
389.023	11.06
389.231	10.91
389.438	10.92
389.646	10.78
389.853	10.72
390.061	10.62
390.268	10.55
390.475	10.59
390.683	10.46
390.89	10.57
391.098	10.63
391.305	10.6
391.512	10.72
391.72	10.72
391.927	10.73
392.135	10.68
392.342	10.7
392.549	10.7
392.756	10.61
392.964	10.61
393.171	10.6
393.378	10.59
393.586	10.6
393.793	10.71
394	10.62
394.207	10.69
394.414	10.75
394.622	10.76
394.829	10.63
395.036	10.61
395.243	10.56
395.45	10.45
395.657	10.35
395.864	10.26
396.072	10.21
396.279	10.18
396.486	10.07
396.693	9.98
396.9	9.93
397.107	9.95
397.314	9.94
397.521	9.98
397.728	9.98
397.935	10
398.142	10.05
398.349	10
398.556	10.04
398.763	10.05
398.97	10
399.177	9.97
399.383	9.99
399.59	10
399.797	9.95
400.004	9.96
400.211	9.83
400.418	9.78
400.625	9.75
400.831	9.73
401.038	9.69
401.245	9.66
401.452	9.63
401.658	9.62
401.865	9.64
402.072	9.66
402.279	9.69
402.485	9.7
402.692	9.65
402.899	9.57
403.105	9.59
403.312	9.58
403.519	9.57
403.725	9.64
403.932	9.53
404.138	9.49
404.345	9.41
404.552	9.4
404.758	9.44
404.965	9.45
405.171	9.47
405.378	9.36
405.584	9.38
405.791	9.32
405.997	9.23
406.204	9.24
406.41	9.17
406.617	9.23
406.823	9.22
407.029	9.17
407.236	9.18
407.442	9.11
407.649	9.2
407.855	9.2
408.061	9.19
408.268	9.27
408.474	9.25
408.68	9.27
408.887	9.21
409.093	9.17
409.299	9.19
409.505	9.17
409.712	9.18
409.918	9
410.124	8.92
410.33	8.92
410.537	8.87
410.743	8.93
410.949	8.96
411.155	8.98
411.361	9
411.567	8.95
411.773	8.82
411.98	8.85
412.186	9
412.392	8.98
412.598	9.02
412.804	8.96
413.01	8.89
413.216	8.87
413.422	8.87
413.628	8.84
413.834	8.81
414.04	8.96
414.246	8.91
414.452	8.83
414.658	8.86
414.864	8.82
415.07	8.76
415.275	8.76
415.481	8.76
415.687	8.63
415.893	8.65
416.099	8.62
416.305	8.51
416.511	8.57
416.716	8.57
416.922	8.54
417.128	8.54
417.334	8.57
417.539	8.52
417.745	8.48
417.951	8.53
418.157	8.53
418.362	8.57
418.568	8.6
418.774	8.54
418.979	8.52
419.185	8.53
419.391	8.51
419.596	8.47
419.802	8.49
420.008	8.46
420.213	8.78
420.419	8.69
420.624	8.65
420.83	8.62
421.035	8.61
421.241	8.61
421.446	8.6
421.652	8.59
421.857	8.56
422.063	8.51
422.268	8.51
422.474	8.16
422.679	8.2
422.885	8.22
423.09	8.24
423.295	8.24
423.501	8.22
423.706	8.18
423.911	8.19
424.117	8.21
424.322	8.23
424.527	8.24
424.733	8.26
424.938	8.23
425.143	8.19
425.349	8.17
425.554	8.16
425.759	8.16
425.964	8.15
426.169	8.15
426.375	8.15
426.58	8.13
426.785	8.06
426.99	8.02
427.195	8.03
427.4	8.02
427.605	7.98
427.811	7.98
428.016	7.97
428.221	8.04
428.426	8.06
428.631	8
428.836	8.01
429.041	8.04
429.246	8.06
429.451	8.06
429.656	8.06
429.861	8.07
430.066	8.09
430.271	8.1
430.476	8.01
430.681	7.93
430.886	7.99
431.09	8.01
431.295	8.01
431.5	8
431.705	8.01
431.91	8.01
432.115	8.03
432.32	8
432.524	7.99
432.729	8
432.934	8.02
433.139	8.04
433.343	8.09
433.548	8.11
433.753	8.14
433.958	8.13
434.162	8.11
434.367	8.1
434.572	8.1
434.776	8.1
434.981	8.15
435.186	8.12
435.39	8.07
435.595	8.03
435.799	8.04
436.004	7.99
436.209	8.03
436.413	8.02
436.618	7.99
436.822	8.02
437.027	7.94
437.231	7.94
437.436	7.97
437.64	7.96
437.845	7.93
438.049	7.9
438.253	7.86
438.458	7.85
438.662	7.85
438.867	7.85
439.071	7.84
439.275	7.89
439.48	7.87
439.684	7.86
439.888	7.83
440.093	7.85
440.297	7.87
440.501	7.87
440.706	7.89
440.91	7.92
441.114	7.93
441.318	7.91
441.523	7.92
441.727	7.9
441.931	7.95
442.135	7.97
442.339	7.96
442.543	7.95
442.748	7.92
442.952	7.88
443.156	7.77
443.36	7.77
443.564	7.75
443.768	7.71
443.972	7.74
444.176	7.72
444.38	7.74
444.584	7.73
444.788	7.73
444.992	7.76
445.196	7.74
445.4	7.81
445.604	7.78
445.808	7.79
446.012	7.82
446.216	7.78
446.42	7.73
446.624	7.74
446.828	7.7
447.032	7.7
447.235	7.72
447.439	7.72
447.643	7.7
447.847	7.73
448.051	7.72
448.254	7.72
448.458	7.67
448.662	7.74
448.866	7.69
449.069	7.75
449.273	7.8
449.477	7.78
449.681	7.79
449.884	7.82
450.088	7.77
450.292	7.77
450.495	7.78
450.699	7.92
450.902	7.86
451.106	7.89
451.31	7.84
451.513	7.79
451.717	7.69
451.92	7.71
452.124	7.64
452.327	7.7
452.531	7.71
452.734	7.68
452.938	7.62
453.141	7.61
453.345	7.6
453.548	7.6
453.752	7.58
453.955	7.67
454.158	7.66
454.362	7.71
454.565	7.64
454.769	7.61
454.972	7.66
455.175	7.63
455.379	7.65
455.582	7.65
455.785	7.68
455.988	7.68
456.192	7.63
456.395	7.59
456.598	7.6
456.801	7.62
457.005	7.63
457.208	7.6
457.411	7.61
457.614	7.6
457.817	7.56
458.021	7.54
458.224	7.54
458.427	7.56
458.63	7.61
458.833	7.57
459.036	7.59
459.239	7.57
459.442	7.54
459.645	7.56
459.848	7.59
460.051	7.61
460.254	7.64
460.457	7.67
460.66	7.67
460.863	7.64
461.066	7.67
461.269	7.67
461.472	7.71
461.675	7.75
461.878	7.74
462.081	7.72
462.284	7.79
462.486	7.77
462.689	7.77
462.892	7.77
463.095	7.78
463.298	7.76
463.5	7.73
463.703	7.72
463.906	7.71
464.109	7.73
464.311	7.78
464.514	7.73
464.717	7.68
464.92	7.69
465.122	7.7
465.325	7.77
465.528	7.77
465.73	7.79
465.933	7.75
466.135	7.77
466.338	7.77
466.541	7.69
466.743	7.71
466.946	7.77
467.148	7.78
467.351	7.76
467.553	7.71
467.756	7.74
467.958	7.77
468.161	7.83
468.363	7.79
468.566	7.77
468.768	7.74
468.971	7.73
469.173	7.67
469.375	7.61
469.578	7.65
469.78	7.62
469.983	7.65
470.185	7.61
470.387	7.6
470.59	7.64
470.792	7.64
470.994	7.69
471.196	7.68
471.399	7.7
471.601	7.74
471.803	7.7
472.005	7.73
472.208	7.7
472.41	7.67
472.612	7.66
472.814	7.64
473.016	7.63
473.218	7.65
473.421	7.65
473.623	7.65
473.825	7.64
474.027	7.67
474.229	7.68
474.431	7.69
474.633	7.75
474.835	7.73
475.037	7.7
475.239	7.76
475.441	7.73
475.643	7.72
475.845	7.72
476.047	7.76
476.249	7.73
476.451	7.71
476.653	7.71
476.855	7.7
477.057	7.72
477.258	7.78
477.46	7.74
477.662	7.76
477.864	7.8
478.066	7.81
478.268	7.8
478.469	7.8
478.671	7.79
478.873	7.71
479.075	7.71
479.276	7.69
479.478	7.7
479.68	7.68
479.882	7.66
480.083	7.64
480.285	7.62
480.487	7.6
480.688	7.59
480.89	7.61
481.091	7.66
481.293	7.63
481.495	7.64
481.696	7.61
481.898	7.62
482.099	7.62
482.301	7.59
482.502	7.58
482.704	7.57
482.905	7.57
483.107	7.57
483.308	7.57
483.51	7.58
483.711	7.57
483.913	7.57
484.114	7.56
484.315	7.56
484.517	7.59
484.718	7.62
484.92	7.63
485.121	7.62
485.322	7.62
485.524	7.61
485.725	7.63
485.926	7.65
486.127	7.66
486.329	7.65
486.53	7.65
486.731	7.62
486.932	7.62
487.134	7.61
487.335	7.62
487.536	7.62
487.737	7.62
487.938	7.63
488.139	7.62
488.341	7.61
488.542	7.63
488.743	7.62
488.944	7.63
489.145	7.64
489.346	7.65
489.547	7.65
489.748	7.67
489.949	7.69
490.15	7.66
490.351	7.67
490.552	7.69
490.753	7.68
490.954	7.69
491.155	7.67
491.356	7.64
491.557	7.66
491.758	7.68
491.959	7.67
492.159	7.66
492.36	7.69
492.561	7.68
492.762	7.68
492.963	7.7
493.164	7.71
493.364	7.75
493.565	7.77
493.766	7.77
493.967	7.76
494.167	7.78
494.368	7.8
494.569	7.83
494.769	7.82
494.97	7.81
495.171	7.84
495.371	7.87
495.572	7.86
495.773	7.91
495.973	7.91
496.174	7.95
496.375	7.94
496.575	7.95
496.776	7.96
496.976	8.01
497.177	8.07
497.377	8.05
497.578	8.09
497.778	8.11
497.979	8.08
498.179	8.12
498.38	8.11
498.58	8.12
498.78	8.14
498.981	8.15
499.181	8.17
499.382	8.13
499.582	8.17
499.782	8.17
499.983	8.18
500.183	8.25
500.383	8.25
500.584	8.26
500.784	8.31
500.984	8.3
501.184	8.3
501.385	8.32
501.585	8.33
501.785	8.35
501.985	8.36
502.185	8.34
502.386	8.31
502.586	8.35
502.786	8.39
502.986	8.41
503.186	8.46
503.386	8.49
503.586	8.51
503.786	8.55
503.987	8.58
504.187	8.63
504.387	8.72
504.587	8.77
504.787	8.79
504.987	8.81
505.187	8.85
505.387	8.87
505.587	8.9
505.786	8.91
505.986	8.93
506.186	8.92
506.386	8.91
506.586	8.92
506.786	8.97
506.986	9.01
507.186	9.02
507.386	9.03
507.585	9.07
507.785	9.07
507.985	9.09
508.185	9.14
508.384	9.19
508.584	9.23
508.784	9.24
508.984	9.24
509.183	9.26
509.383	9.32
509.583	9.31
509.782	9.35
509.982	9.41
510.182	9.47
510.381	9.47
510.581	9.52
510.781	9.55
510.98	9.64
511.18	9.69
511.379	9.69
511.579	9.76
511.778	9.82
511.978	9.82
512.177	9.87
512.377	9.9
512.576	9.96
512.776	9.99
512.975	10.03
513.175	10.06
513.374	10.08
513.573	10.13
513.773	10.17
513.972	10.24
514.172	10.34
514.371	10.37
514.57	10.38
514.77	10.42
514.969	10.42
515.168	10.46
515.367	10.49
515.567	10.53
515.766	10.61
515.965	10.62
516.164	10.63
516.364	10.64
516.563	10.71
516.762	10.79
516.961	10.85
517.16	10.93
517.359	10.97
517.559	11.02
517.758	11.08
517.957	11.08
518.156	11.13
518.355	11.18
518.554	11.2
518.753	11.22
518.952	11.24
519.151	11.28
519.35	11.32
519.549	11.37
519.748	11.43
519.947	11.46
520.146	11.56
520.345	11.6
520.544	11.65
520.743	11.72
520.942	11.76
521.141	11.83
521.339	11.84
521.538	11.88
521.737	11.94
521.936	11.93
522.135	12.01
522.333	12.01
522.532	12.04
522.731	12.1
522.93	12.12
523.129	12.16
523.327	12.17
523.526	12.22
523.725	12.26
523.923	12.29
524.122	12.34
524.321	12.36
524.519	12.38
524.718	12.37
524.917	12.4
525.115	12.4
525.314	12.43
525.512	12.48
525.711	12.55
525.909	12.57
526.108	12.6
526.306	12.63
526.505	12.67
526.703	12.7
526.902	12.79
527.1	12.8
527.299	12.84
527.497	12.88
527.696	12.9
527.894	12.91
528.092	12.93
528.291	12.94
528.489	12.98
528.688	13.01
528.886	13.06
529.084	13.07
529.283	13.12
529.481	13.17
529.679	13.19
529.877	13.24
530.076	13.26
530.274	13.33
530.472	13.41
530.67	13.45
530.869	13.47
531.067	13.49
531.265	13.54
531.463	13.58
531.661	13.62
531.859	13.67
532.057	13.72
532.255	13.77
532.454	13.78
532.652	13.79
532.85	13.8
533.048	13.85
533.246	13.87
533.444	13.88
533.642	13.92
533.84	13.94
534.038	13.97
534.236	14.03
534.434	14.07
534.632	14.12
534.83	14.18
535.027	14.23
535.225	14.24
535.423	14.29
535.621	14.3
535.819	14.3
536.017	14.33
536.215	14.4
536.412	14.4
536.61	14.42
536.808	14.43
537.006	14.44
537.203	14.51
537.401	14.59
537.599	14.63
537.797	14.72
537.994	14.76
538.192	14.84
538.39	14.83
538.587	14.84
538.785	14.88
538.983	14.94
539.18	15
539.378	14.99
539.575	15.01
539.773	15.05
539.97	15.07
540.168	15.1
540.366	15.1
540.563	15.11
540.761	15.14
540.958	15.18
541.155	15.19
541.353	15.21
541.55	15.24
541.748	15.26
541.945	15.29
542.143	15.31
542.34	15.37
542.537	15.39
542.735	15.45
542.932	15.47
543.129	15.47
543.327	15.54
543.524	15.6
543.721	15.64
543.919	15.69
544.116	15.71
544.313	15.77
544.51	15.79
544.708	15.83
544.905	15.85
545.102	15.88
545.299	15.93
545.496	15.93
545.693	15.93
545.891	15.95
546.088	15.98
546.285	16.01
546.482	16
546.679	16.02
546.876	16.04
547.073	16.1
547.27	16.17
547.467	16.2
547.664	16.21
547.861	16.28
548.058	16.31
548.255	16.31
548.452	16.35
548.649	16.41
548.846	16.46
549.043	16.46
549.24	16.52
549.437	16.52
549.633	16.5
549.83	16.54
550.027	16.53
550.224	16.55
550.421	16.58
550.618	16.61
550.814	16.64
551.011	16.66
551.208	16.78
551.405	16.76
551.601	16.77
551.798	16.89
551.995	16.88
552.191	16.95
552.388	16.96
552.585	17
552.781	17.03
552.978	17.07
553.175	17.06
553.371	17.02
553.568	17.09
553.764	17.09
553.961	17.09
554.157	17.17
554.354	17.19
554.55	17.31
554.747	17.35
554.943	17.39
555.14	17.41
555.336	17.5
555.533	17.53
555.729	17.52
555.926	17.56
556.122	17.54
556.318	17.59
556.515	17.59
556.711	17.56
556.907	17.57
557.104	17.55
557.3	17.56
557.496	17.54
557.693	17.56
557.889	17.64
558.085	17.69
558.281	17.77
558.478	17.74
558.674	17.81
558.87	17.81
559.066	17.84
559.262	17.89
559.459	17.95
559.655	17.94
559.851	17.98
560.047	17.95
560.243	18.01
560.439	18.05
560.635	18.05
560.831	17.99
561.027	18.02
561.223	18.08
561.419	18.13
561.615	18.11
561.811	18.15
562.007	18.21
562.203	18.25
562.399	18.27
562.595	18.27
562.791	18.24
562.987	18.3
563.183	18.33
563.379	18.37
563.575	18.33
563.771	18.42
563.966	18.48
564.162	18.42
564.358	18.48
564.554	18.48
564.75	18.53
564.945	18.6
565.141	18.63
565.337	18.67
565.533	18.68
565.728	18.72
565.924	18.66
566.12	18.68
566.315	18.79
566.511	18.76
566.707	18.78
566.902	18.78
567.098	18.86
567.293	18.85
567.489	18.9
567.684	18.89
567.88	18.9
568.076	18.96
568.271	18.96
568.467	18.95
568.662	18.99
568.858	19.05
569.053	19.08
569.248	19.09
569.444	19.11
569.639	19.11
569.835	19.13
570.03	19.16
570.225	19.14
570.421	19.16
570.616	19.15
570.812	19.19
571.007	19.18
571.202	19.16
571.397	19.09
571.593	19.15
571.788	19.2
571.983	19.28
572.178	19.32
572.374	19.38
572.569	19.46
572.764	19.47
572.959	19.48
573.154	19.48
573.35	19.55
573.545	19.63
573.74	19.61
573.935	19.6
574.13	19.6
574.325	19.6
574.52	19.57
574.715	19.51
574.91	19.57
575.105	19.58
575.3	19.64
575.495	19.64
575.69	19.66
575.885	19.69
576.08	19.68
576.275	19.63
576.47	19.62
576.665	19.69
576.86	19.73
577.055	19.77
577.25	19.81
577.444	19.86
577.639	19.83
577.834	19.81
578.029	19.85
578.224	19.85
578.418	19.86
578.613	19.89
578.808	19.88
579.003	19.93
579.197	19.93
579.392	19.89
579.587	19.79
579.781	19.86
579.976	19.89
580.171	19.87
580.365	19.88
580.56	19.9
580.755	19.91
580.949	19.91
581.144	19.86
581.338	19.87
581.533	19.87
581.727	19.94
581.922	19.88
582.116	19.91
582.311	19.88
582.505	19.91
582.7	19.9
582.894	19.96
583.089	19.98
583.283	19.96
583.478	19.89
583.672	19.93
583.866	19.9
584.061	19.94
584.255	19.91
584.449	19.99
584.644	20.06
584.838	20.16
585.032	20.13
585.226	20.1
585.421	20.16
585.615	20.2
585.809	20.25
586.003	20.26
586.198	20.31
586.392	20.33
586.586	20.31
586.78	20.27
586.974	20.22
587.168	20.26
587.363	20.27
587.557	20.29
587.751	20.32
587.945	20.32
588.139	20.37
588.333	20.33
588.527	20.36
588.721	20.35
588.915	20.33
589.109	20.34
589.303	20.3
589.497	20.37
589.691	20.38
589.885	20.39
590.079	20.4
590.273	20.33
590.466	20.36
590.66	20.37
590.854	20.4
591.048	20.38
591.242	20.4
591.436	20.41
591.629	20.41
591.823	20.48
592.017	20.48
592.211	20.47
592.404	20.55
592.598	20.58
592.792	20.62
592.986	20.64
593.179	20.74
593.373	20.7
593.567	20.73
593.76	20.73
593.954	20.6
594.147	20.59
594.341	20.61
594.535	20.6
594.728	20.57
594.922	20.56
595.115	20.56
595.309	20.6
595.502	20.63
595.696	20.6
595.889	20.59
596.083	20.64
596.276	20.67
596.47	20.66
596.663	20.65
596.856	20.68
597.05	20.69
597.243	20.7
597.437	20.67
597.63	20.71
597.823	20.75
598.017	20.78
598.21	20.74
598.403	20.74
598.596	20.79
598.79	20.81
598.983	20.84
599.176	20.8
599.369	20.78
599.563	20.73
599.756	20.71
599.949	20.63
600.142	20.61
600.335	20.75
600.528	20.76
600.722	20.78
600.915	20.77
601.108	20.73
601.301	20.73
601.494	20.75
601.687	20.77
601.88	20.77
602.073	20.81
602.266	20.83
602.459	20.77
602.652	20.75
602.845	20.71
603.038	20.76
603.231	20.73
603.424	20.77
603.617	20.75
603.809	20.78
604.002	20.81
604.195	20.84
604.388	20.88
604.581	20.88
604.774	20.86
604.966	20.92
605.159	20.85
605.352	20.95
605.545	20.97
605.737	21.02
605.93	20.98
606.123	20.95
606.316	20.98
606.508	20.92
606.701	21.04
606.894	21.11
607.086	21.06
607.279	21.07
607.471	21.04
607.664	20.99
607.857	20.96
608.049	21.06
608.242	21.14
608.434	21.11
608.627	21.18
608.819	21.11
609.012	21.13
609.204	21.1
609.397	21.15
609.589	21.22
609.782	21.23
609.974	21.26
610.166	21.29
610.359	21.28
610.551	21.28
610.743	21.32
610.936	21.33
611.128	21.34
611.32	21.41
611.513	21.42
611.705	21.44
611.897	21.5
612.09	21.43
612.282	21.39
612.474	21.3
612.666	21.32
612.858	21.25
613.051	21.31
613.243	21.26
613.435	21.25
613.627	21.27
613.819	21.18
614.011	21.21
614.203	21.29
614.395	21.19
614.588	21.22
614.78	21.2
614.972	21.19
615.164	21.15
615.356	21.17
615.548	21.12
615.74	21.09
615.932	21.15
616.124	21.08
616.315	21.12
616.507	21.19
616.699	21.24
616.891	21.3
617.083	21.38
617.275	21.41
617.467	21.31
617.659	21.28
617.85	21.34
618.042	21.36
618.234	21.4
618.426	21.33
618.618	21.38
618.809	21.36
619.001	21.32
619.193	21.34
619.384	21.27
619.576	21.4
619.768	21.54
619.959	21.45
620.151	21.49
620.343	21.47
620.534	21.47
620.726	21.33
620.917	21.39
621.109	21.45
621.301	21.46
621.492	21.46
621.684	21.35
621.875	21.3
622.067	21.37
622.258	21.29
622.45	21.31
622.641	21.39
622.832	21.46
623.024	21.43
623.215	21.4
623.407	21.34
623.598	21.44
623.789	21.46
623.981	21.4
624.172	21.44
624.363	21.36
624.555	21.4
624.746	21.39
624.937	21.48
625.129	21.45
625.32	21.45
625.511	21.47
625.702	21.39
625.893	21.45
626.085	21.5
626.276	21.48
626.467	21.56
626.658	21.61
626.849	21.61
627.04	21.55
627.231	21.56
627.422	21.6
627.614	21.68
627.805	21.72
627.996	21.66
628.187	21.63
628.378	21.62
628.569	21.67
628.76	21.54
628.951	21.47
629.142	21.47
629.332	21.51
629.523	21.49
629.714	21.47
629.905	21.44
630.096	21.47
630.287	21.51
630.478	21.53
630.669	21.54
630.859	21.61
631.05	21.7
631.241	21.73
631.432	21.75
631.623	21.8
631.813	21.72
632.004	21.75
632.195	21.82
632.385	21.79
632.576	21.79
632.767	21.73
632.957	21.77
633.148	21.77
633.339	21.8
633.529	21.74
633.72	21.68
633.91	21.68
634.101	21.73
634.292	21.68
634.482	21.63
634.673	21.6
634.863	21.56
635.054	21.51
635.244	21.5
635.435	21.51
635.625	21.45
635.815	21.45
636.006	21.47
636.196	21.45
636.387	21.44
636.577	21.47
636.767	21.44
636.958	21.57
637.148	21.6
637.338	21.56
637.529	21.53
637.719	21.61
637.909	21.69
638.099	21.7
638.29	21.61
638.48	21.77
638.67	21.81
638.86	21.89
639.05	21.79
639.241	21.74
639.431	21.76
639.621	21.72
639.811	21.67
640.001	21.52
640.191	21.55
640.381	21.64
640.571	21.51
640.761	21.53
640.951	21.56
641.141	21.6
641.331	21.56
641.521	21.58
641.711	21.53
641.901	21.49
642.091	21.71
642.281	21.69
642.471	21.52
642.661	21.47
642.851	21.48
643.041	21.44
643.231	21.35
643.42	21.44
643.61	21.37
643.8	21.48
643.99	21.61
644.18	21.54
644.369	21.58
644.559	21.78
644.749	21.79
644.939	21.67
645.128	21.5
645.318	21.54
645.508	21.69
645.697	21.75
645.887	21.75
646.076	21.75
646.266	21.69
646.456	21.69
646.645	21.65
646.835	21.69
647.024	21.8
647.214	21.95
647.403	21.99
647.593	21.84
647.782	21.94
647.972	21.97
648.161	21.88
648.351	21.96
648.54	21.93
648.73	21.92
648.919	22.09
649.108	22.11
649.298	22.05
649.487	22.04
649.677	22.03
649.866	21.95
650.055	22.03
650.244	22.08
650.434	22.05
650.623	22.09
650.812	22.11
651.002	21.95
651.191	21.88
651.38	21.91
651.569	22
651.758	22
651.947	22
652.137	21.96
652.326	21.89
652.515	21.9
652.704	21.91
652.893	21.98
653.082	22.08
653.271	22.21
653.46	22.32
653.649	22.24
653.838	22.28
654.027	22.32
654.216	22.26
654.405	22.3
654.594	22.25
654.783	22.18
654.972	22.16
655.161	22.03
655.35	22
655.539	22.01
655.728	21.98
655.916	21.98
656.105	21.92
656.294	21.92
656.483	21.89
656.672	21.95
656.86	22.06
657.049	22.03
657.238	22.16
657.427	22.09
657.615	22.09
657.804	22.08
657.993	22.07
658.181	22.09
658.37	22.07
658.559	22.06
658.747	22.04
658.936	21.93
659.125	22
659.313	21.91
659.502	21.94
659.69	21.87
659.879	21.87
660.067	21.91
660.256	21.95
660.444	22.09
660.633	22.12
660.821	22.11
661.01	22.16
661.198	22.12
661.387	22.16
661.575	22.22
661.763	22.31
661.952	22.29
662.14	22.29
662.328	22.29
662.517	22.17
662.705	22.17
662.893	22.25
663.082	22.25
663.27	22.17
663.458	22.03
663.646	22.02
663.834	22
664.023	22.02
664.211	22.03
664.399	21.98
664.587	22.02
664.775	21.93
664.963	21.85
665.152	21.76
665.34	21.79
665.528	22.02
665.716	22.05
665.904	22
666.092	22.04
666.28	22.1
666.468	22.16
666.656	22.12
666.844	22.25
667.032	22.26
667.22	22.38
667.408	22.49
667.596	22.38
667.784	22.38
667.971	22.33
668.159	22.29
668.347	22.17
668.535	22.1
668.723	22.16
668.911	22.19
669.098	22.2
669.286	22.21
669.474	22.11
669.662	22.09
669.849	22.11
670.037	22.06
670.225	22.06
670.413	22.14
670.6	22.34
670.788	22.32
670.976	22.29
671.163	22.28
671.351	22.24
671.538	22.34
671.726	22.44
671.913	22.42
672.101	22.51
672.289	22.57
672.476	22.59
672.664	22.39
672.851	22.27
673.039	22.25
673.226	22.15
673.413	22.21
673.601	22.15
673.788	22.21
673.976	22.17
674.163	22.17
674.35	22.08
674.538	22
674.725	22.05
674.912	22.19
675.1	22.32
675.287	22.4
675.474	22.5
675.662	22.58
675.849	22.45
676.036	22.55
676.223	22.65
676.411	22.7
676.598	22.7
676.785	22.75
676.972	22.82
677.159	22.77
677.346	22.72
677.533	22.62
677.721	22.52
677.908	22.55
678.095	22.45
678.282	22.49
678.469	22.51
678.656	22.62
678.843	22.68
679.03	22.61
679.217	22.64
679.404	22.66
679.591	22.66
679.778	22.65
679.964	22.6
680.151	22.64
680.338	22.61
680.525	22.68
680.712	22.65
680.899	22.53
681.086	22.53
681.272	22.42
681.459	22.51
681.646	22.53
681.833	22.56
682.02	22.57
682.206	22.52
682.393	22.47
682.58	22.35
682.766	22.33
682.953	22.33
683.14	22.34
683.326	22.45
683.513	22.51
683.7	22.55
683.886	22.57
684.073	22.58
684.259	22.75
684.446	22.69
684.632	22.79
684.819	22.73
685.005	22.75
685.192	22.7
685.378	22.7
685.565	22.44
685.751	22.35
685.938	22.23
686.124	22.25
686.31	22.05
686.497	22.16
686.683	22.23
686.87	22.31
687.056	22.3
687.242	22.36
687.429	22.31
687.615	22.39
687.801	22.46
687.987	22.52
688.174	22.49
688.36	22.54
688.546	22.54
688.732	22.51
688.918	22.53
689.105	22.63
689.291	22.61
689.477	22.64
689.663	22.78
689.849	22.73
690.035	22.86
690.221	22.97
690.407	22.97
690.593	22.91
690.779	22.99
690.965	22.98
691.151	22.93
691.337	22.88
691.523	22.88
691.709	22.83
691.895	22.94
692.081	22.86
692.267	22.82
692.453	22.8
692.639	22.79
692.825	22.78
693.011	22.73
693.196	22.77
693.382	22.9
693.568	22.85
693.754	22.88
693.94	22.74
694.125	22.76
694.311	22.77
694.497	22.93
694.682	23
694.868	23.01
695.054	22.97
695.239	22.82
695.425	22.73
695.611	22.83
695.796	22.73
695.982	22.82
696.168	22.81
696.353	22.87
696.539	22.89
696.724	22.84
696.91	22.8
697.095	22.91
697.281	22.98
697.466	22.96
697.652	22.8
697.837	22.85
698.023	22.81
698.208	22.87
698.393	22.93
698.579	22.99
698.764	22.95
698.949	22.91
699.135	22.84
699.32	22.89
699.505	22.99
699.691	23.09
699.876	23.14
700.061	23.18
700.246	23.15
700.432	22.9
700.617	22.77
700.802	22.92
700.987	23
701.172	23.06
701.358	22.89
701.543	22.98
701.728	23.02
701.913	23.02
702.098	23.11
702.283	23.03
702.468	23.25
702.653	23.28
702.838	23.33
703.023	23.28
703.208	23.21
703.393	23.4
703.578	23.35
703.763	23.42
703.948	23.46
704.133	23.27
704.318	23.21
704.503	23.17
704.688	23.28
704.873	23.23
705.057	23.3
705.242	23.22
705.427	23.28
705.612	23.1
705.797	23.15
705.981	23.25
706.166	23.46
706.351	23.66
706.536	23.8
706.72	23.5
706.905	23.44
707.09	23.38
707.274	23.54
707.459	23.43
707.644	23.56
707.828	23.56
708.013	23.44
708.197	23.22
708.382	23.27
708.567	23.18
708.751	23.3
708.936	23.28
709.12	23.34
709.305	23.28
709.489	23.34
709.673	23.21
709.858	23.12
710.042	23.14
710.227	23.26
710.411	23.06
710.596	23.04
710.78	22.99
710.964	22.99
711.149	22.9
711.333	22.97
711.517	23.08
711.702	23.21
711.886	23.24
712.07	23.13
712.254	23.09
712.438	23.09
712.623	23.14
712.807	23.28
712.991	23.2
713.175	23.3
713.359	23.34
713.544	23.22
713.728	23.18
713.912	23.16
714.096	23.31
714.28	23.23
714.464	23.29
714.648	23.28
714.832	23.1
715.016	23.16
715.2	23.03
715.384	22.92
715.568	22.99
715.752	22.98
715.936	22.93
716.12	22.83
716.304	22.91
716.488	22.95
716.671	22.89
716.855	23.03
717.039	23.12
717.223	23.26
717.407	23.16
717.59	23.05
717.774	23.04
717.958	23.23
718.142	23.32
718.325	23.44
718.509	23.31
718.693	23.37
718.877	23.34
719.06	23.26
719.244	23.17
719.428	23.43
719.611	23.56
719.795	23.51
719.978	23.47
720.162	23.37
720.345	23.09
720.529	23.08
720.713	23.05
720.896	23.08
721.08	22.99
721.263	23.12
721.446	23.06
721.63	22.98
721.813	22.98
721.997	22.91
722.18	22.92
722.364	23.02
722.547	23.2
722.73	22.99
722.914	22.89
723.097	23.07
723.28	22.95
723.464	22.9
723.647	22.9
723.83	23.09
724.013	23.28
724.197	23.29
724.38	23.58
724.563	23.42
724.746	23.81
724.929	24.04
725.112	24.01
725.296	24.01
725.479	23.83
725.662	23.66
725.845	23.48
726.028	23.16
726.211	23.15
726.394	22.95
726.577	23.22
726.76	23.13
726.943	23.03
727.126	22.97
727.309	23.03
727.492	23.29
727.675	23.45
727.858	23.37
728.041	23.47
728.224	23.62
728.407	23.67
728.589	23.35
728.772	23.33
728.955	23.39
729.138	23.45
729.321	23.32
729.503	23.41
729.686	23.36
729.869	23.63
730.052	23.5
730.234	23.44
730.417	23.41
730.6	23.6
730.782	23.55
730.965	23.56
731.148	23.49
731.33	23.61
731.513	23.51
731.695	23.41
731.878	23.39
732.061	23.49
732.243	23.59
732.426	23.52
732.608	23.66
732.791	23.6
732.973	23.47
733.156	23.57
733.338	23.49
733.52	23.36
733.703	23.62
733.885	23.55
734.068	23.52
734.25	23.31
734.432	23.41
734.615	23.35
734.797	23.42
734.979	23.36
735.162	23.41
735.344	23.44
735.526	23.5
735.708	23.31
735.891	23.26
736.073	23.35
736.255	23.48
736.437	23.53
736.619	23.37
736.802	23.17
736.984	23.43
737.166	23.64
737.348	23.54
737.53	23.45
737.712	23.56
737.894	23.68
738.076	23.8
738.258	23.55
738.44	23.5
738.622	23.48
738.804	23.69
738.986	23.55
739.168	23.28
739.35	23.56
739.532	23.53
739.714	23.43
739.896	23.29
740.078	23.16
740.259	23.44
740.441	23.58
740.623	23.6
740.805	23.48
740.987	23.53
741.168	23.22
741.35	22.94
741.532	23.28
741.714	23.23
741.895	23.37
742.077	23.25
742.259	23.08
742.44	22.83
742.622	22.67
742.804	22.79
742.985	22.73
743.167	23.05
743.348	23.19
743.53	23.3
743.711	23.16
743.893	22.99
744.075	23.06
744.256	23.23
744.438	23.26
744.619	23.58
744.8	23.59
744.982	23.63
745.163	23.65
745.345	23.42
745.526	23.39
745.707	23.64
745.889	23.69
746.07	23.61
746.252	23.58
746.433	23.83
746.614	23.8
746.795	24.03
746.977	24.07
747.158	24.19
747.339	24.29
747.52	24.13
747.702	24.04
747.883	23.94
748.064	23.86
748.245	23.8
748.426	23.36
748.607	22.85
748.788	22.51
748.97	22.26
749.151	22.12
749.332	22.57
749.513	22.63
749.694	22.74
749.875	22.99
750.056	23.2
750.237	22.9
750.418	23.03
750.599	23.37
750.78	23.35
750.96	23.57
751.141	23.77
751.322	23.57
751.503	23.28
751.684	23.45
751.865	23.35
752.046	23.72
752.226	23.73
752.407	23.89
752.588	23.79
752.769	24.16
752.949	24.21
753.13	23.95
753.311	23.93
753.492	23.89
753.672	23.49
753.853	23.23
754.034	22.93
754.214	23.17
754.395	22.81
754.575	23.21
754.756	22.65
754.937	22.34
755.117	22.6
755.298	22.25
755.478	22.57
755.659	22.73
755.839	22.73
756.02	22.75
756.2	22.69
756.381	22.97
756.561	22.75
756.741	23.29
756.922	23.47
757.102	23.48
757.283	23.59
757.463	23.48
757.643	23.54
757.823	23.77
758.004	23.63
758.184	23.98
758.364	24.07
758.545	24.04
758.725	23.97
758.905	23.88
759.085	23.52
759.265	23.42
759.446	23.31
759.626	23.4
759.806	23.5
759.986	23.23
760.166	22.87
760.346	22.68
760.526	22.93
760.706	23.01
760.886	23.16
761.066	23.29
761.246	23.33
761.426	23.29
761.606	23.01
761.786	22.94
761.966	23.27
762.146	23.36
762.326	23.52
762.506	23.37
762.686	23.3
762.866	23.2
763.046	23.14
763.225	23.3
763.405	23.4
763.585	23.72
763.765	23.66
763.945	23.57
764.124	23.51
764.304	23.59
764.484	23.64
764.664	23.58
764.843	23.79
765.023	24.01
765.203	23.95
765.382	24.07
765.562	23.85
765.741	24.1
765.921	24.16
766.101	24.28
766.28	24.2
766.46	23.93
766.639	23.98
766.819	23.7
766.998	23.43
767.178	23.53
767.357	23.37
767.537	23.37
767.716	23.44
767.896	23.56
768.075	23.58
768.254	23.69
768.434	24.09
768.613	23.91
768.792	24.02
768.972	24.41
769.151	24.33
769.33	24.64
769.51	24.92
769.689	24.5
769.868	24.36
770.047	24.28
770.226	24.37
770.406	24.53
770.585	24.63
770.764	24.61
770.943	24.47
771.122	24.41
771.301	23.92
771.48	23.84
771.66	24.14
771.839	24.39
772.018	24.67
772.197	24.45
772.376	23.95
772.555	24
772.734	24.09
772.913	24.01
773.092	24.28
773.271	24.4
773.449	24.39
773.628	24.51
773.807	24.04
773.986	23.69
774.165	23.85
774.344	23.92
774.523	24.06
774.701	24.42
774.88	24.35
775.059	24.2
775.238	24.35
775.417	23.91
775.595	23.23
775.774	23.92
775.953	24.18
776.131	23.67
776.31	23.6
776.489	23.46
776.667	23.02
776.846	23.11
777.025	23.19
777.203	22.71
777.382	22.97
777.56	23.08
777.739	22.68
777.917	22.42
778.096	22.71
778.274	22.89
778.453	23.04
778.631	22.8
778.81	22.84
778.988	22.33
779.166	22.99
779.345	23.01
779.523	23.18
779.702	23.48
779.88	23.52
780.058	23.46
780.237	23.36
780.415	23.42
780.593	23.88
780.771	23.75
780.95	24.07
781.128	23.62
781.306	23.85
781.484	24.03
781.662	23.47
781.841	23.48
782.019	23.56
782.197	24.12
782.375	23.92
782.553	24.16
782.731	24.3
782.909	24.35
783.087	24.85
783.265	24.92
783.443	24.65
783.621	24.15
783.799	24.15
783.977	24.16
784.155	23.92
784.333	24
784.511	23.57
784.689	23.35
784.867	23.32
785.045	22.81
785.223	22.47
785.4	22.45
785.578	23.2
785.756	23.17
785.934	22.81
786.112	22.47
786.289	22.6
786.467	22.65
786.645	22.99
786.823	22.84
787	23.09
787.178	23.03
787.356	23.57
787.533	23.68
787.711	23.89
787.889	24.3
788.066	24.63
788.244	24.4
788.421	24.41
788.599	24.26
788.776	24.58
788.954	24.6
789.131	24.75
789.309	24.19
789.486	23.52
789.664	23.68
789.841	23.51
790.019	23.34
790.196	23.36
790.373	23.19
790.551	22.62
790.728	22.39
790.906	22.39
791.083	21.25
791.26	21.19
791.437	21.91
791.615	21.56
791.792	21.34
791.969	20.88
792.146	21.34
792.324	21.56
792.501	22.29
792.678	22.3
792.855	22.07
793.032	23.07
793.209	23.53
793.387	24.16
793.564	24.11
793.741	24.37
793.918	24.85
794.095	24.47
794.272	24.77
794.449	24.56
794.626	24.54
794.803	24.22
794.98	23.73
795.157	23.77
795.334	23.13
795.511	23.11
795.688	22.87
795.864	22.87
796.041	22.84
796.218	22.32
796.395	22.49
796.572	22.24
796.749	22.17
796.925	23.01
797.102	22.91
797.279	22.69
797.456	22.87
797.632	22.91
797.809	23.04
797.986	22.92
798.162	23.46
798.339	23.38
798.516	23.78
798.692	24.4
798.869	24.42
799.046	23.64
799.222	24.04
799.399	23.98
799.575	24.76
799.752	24.23
799.928	23.75
800.105	23.31
800.281	23.21
800.458	23.24
800.634	23.16
800.811	22.9
800.987	23.72
801.163	23.21
801.34	23.18
801.516	22.4
801.692	22.38
801.869	22.85
802.045	23
802.221	23.14
802.398	22.56
802.574	22.19
802.75	22.06
802.926	21.88
803.103	21.74
803.279	21.91
803.455	22.06
803.631	22.57
803.807	22.06
803.983	22.25
804.16	21.64
804.336	21.63
804.512	21.59
804.688	21.88
804.864	22.42
805.04	23.1
805.216	23.27
805.392	22.71
805.568	22.3
805.744	23.1
805.92	22.54
806.096	23.04
806.272	23.31
806.448	23.55
806.623	22.98
806.799	22.65
806.975	22.4
807.151	22.47
807.327	22.09
807.503	23.03
807.678	22.27
807.854	22.29
808.03	22.74
808.206	22.72
808.381	21.77
808.557	21.54
808.733	21.38
808.908	21.33
809.084	20.29
809.26	20.69
809.435	19.98
809.611	20.38
809.787	20.78
809.962	19.94
810.138	20.06
810.313	21.1
810.489	21.17
810.664	20.82
810.84	20.69
811.015	21.74
811.191	21.78
811.366	21.68
811.542	21.38
811.717	21.04
811.892	22.01
812.068	21.9
812.243	21.48
812.419	21.62
812.594	21.92
812.769	22.04
812.944	21.71
813.12	21.7
813.295	22.28
813.47	22.64
813.645	22.88
813.821	22.33
813.996	22.09
814.171	22.91
814.346	23.38
814.521	23.88
814.697	23.54
814.872	23.26
815.047	23.77
815.222	23.05
815.397	23.4
815.572	23.57
815.747	24.11
815.922	24.07
816.097	23.77
816.272	23.39
816.447	22.66
816.622	23.15
816.797	23.35
816.972	23.15
817.147	23.7
817.322	22.74
817.496	22.34
817.671	22.11
817.846	22.54
818.021	22.4
818.196	22.41
818.371	22.97
818.545	23.01
818.72	23.17
818.895	23.5
819.069	23.55
819.244	24.46
819.419	24.61
819.594	24.57
819.768	25.04
819.943	25.13
820.117	25.37
820.292	25.47
820.467	25.71
820.641	25.67
820.816	25.62
820.99	25.82
821.165	25.79
821.339	25.84
821.514	25.79
821.688	25.56
821.863	25.5
822.037	25.43
822.212	25.25
822.386	25.07
822.56	25.01
822.735	24.92
822.909	24.67
823.084	24.42
823.258	24.3
823.432	24.29
823.606	24.21
823.781	24.27
823.955	24.25
824.129	24.4
824.303	24.63
824.478	24.86
824.652	25.04
824.826	24.89
825	25.13
825.174	25.19
825.348	25.04
825.523	25.16
825.697	24.89
825.871	25.01
826.045	24.9
826.219	24.63
826.393	24.59
826.567	24.58
826.741	24.91
826.915	25.05
827.089	24.93
827.263	24.91
827.437	24.97
827.611	25.24
827.784	25.12
827.958	25.13
828.132	25.39
828.306	25.31
828.48	25.47
828.654	25.25
828.827	24.61
829.001	24.62
829.175	24.47
829.349	24.8
829.522	24.74
829.696	24.89
829.87	25.28
830.044	24.81
830.217	24.16
830.391	23.51
830.565	23.59
830.738	23.91
830.912	24.14
831.085	24.48
831.259	24.65
831.432	23.97
831.606	23.65
831.779	23.15
831.953	22.86
832.126	23.57
832.3	23.6
832.473	23.5
832.647	23.83
832.82	23.8
832.994	23.93
833.167	23.45
833.34	23.86
833.514	23.78
833.687	24.03
833.86	24.12
834.034	24.03
834.207	23.96
834.38	23.89
834.553	23.77
834.727	23.38
834.9	23.4
835.073	23.23
835.246	22.68
835.419	22.52
835.593	22.37
835.766	22.15
835.939	21.88
836.112	22.22
836.285	22.35
836.458	22.55
836.631	22.68
836.804	21.67
836.977	21.23
837.15	21.84
837.323	21.73
837.496	20.62
837.669	21.58
837.842	20.99
838.015	20.56
838.188	20.28
838.361	19.61
838.533	19.85
838.706	19.71
838.879	19.26
839.052	19
839.225	19.54
839.398	20.58
839.57	19.88
839.743	19.35
839.916	20.18
840.088	20.06
840.261	20.57
840.434	20.89
840.607	21.34
840.779	22.83
840.952	22.79
841.124	22.35
841.297	21.55
841.47	20.8
841.642	22.07
841.815	20.02
841.987	20.79
842.16	20.5
842.332	19.98
842.505	20.61
842.677	19.55
842.85	20.1
843.022	20
843.194	21.23
843.367	22.92
843.539	22.5
843.712	23.18
843.884	22.03
844.056	21.1
844.229	21.18
844.401	21.33
844.573	23.42
844.745	23.74
844.918	23.38
845.09	23.44
845.262	22.23
845.434	22.93
845.606	22.31
845.779	20.9
845.951	21.85
846.123	22.5
846.295	21.86
846.467	19.72
846.639	19.02
846.811	19.5
846.983	17.94
847.155	18.63
847.327	16.97
847.499	17.11
847.671	18.34
847.843	17.79
848.015	16.05
848.187	18.09
848.359	17.95
848.531	17.29
848.703	18.48
848.875	20.58
849.047	20.37
849.218	22.09
849.39	22.21
849.562	22.6
849.734	20.19
849.905	19.71
850.077	17.94
850.249	17.42
850.421	17.09
850.592	15.5
850.764	13.13
850.936	12.2
851.107	9.85
851.279	11.03
851.451	10.03
851.622	13.23
851.794	15.55
851.965	17.22
852.137	17.55
852.308	16.79
852.48	17.01
852.651	18.05
852.823	17.98
852.994	19.01
853.166	18.71
853.337	21.87
853.509	20.87
853.68	19.99
853.851	19.49
854.023	19.89
854.194	21.22
854.365	20.28
854.537	20.23
854.708	21.27
854.879	20
855.05	19.53
855.222	17.22
855.393	14.98
855.564	12.9
855.735	10.42
855.906	12.01
856.078	12.07
856.249	14.46
856.42	11.55
856.591	11.25
856.762	13.54
856.933	15.11
857.104	14.73
857.275	16.4
857.446	17.04
857.617	15.37
857.788	14.96
857.959	12.64
858.13	11.25
858.301	13.79
858.472	11.58
858.643	10.17
858.814	8.59
858.985	8.93
859.155	10.62
859.326	13.73
859.497	16.16
859.668	14.11
859.839	16.97
860.009	17.14
860.18	15.78
860.351	19.85
860.522	22.44
860.692	23.18
860.863	22.3
861.034	21.84
861.204	19.76
861.375	20.41
861.546	19.49
861.716	16.67
861.887	15.31
862.057	17.71
862.228	15.14
862.398	10.36
862.569	11.29
862.739	11.21
862.91	12.07
863.08	13.82
863.251	12.68
863.421	13.44
863.592	14.34
863.762	15.93
863.932	13.49
864.103	13.37
864.273	14.5
864.443	16.28
864.614	17.82
864.784	18.61
864.954	17.21
865.125	18.12
865.295	20.68
865.465	22.17
865.635	22.27
865.805	26.07
865.976	25.27
866.146	25.69
866.316	23.15
866.486	22.48
866.656	20.46
866.826	18.24
866.996	17.08
867.166	16.68
867.336	15.19
867.506	13.85
867.676	10.85
867.846	11.64
868.016	10.08
868.186	8.72
868.356	9.56
868.526	6.74
868.696	6.88
868.866	10.09
869.036	7.26
869.206	8.54
869.376	10.82
869.545	12.17
869.715	13.39
869.885	14.63
870.055	17.9
870.224	18.31
870.394	23.58
870.564	26.04
870.734	22.62
870.903	23.14
871.073	21.62
871.243	22.45
871.412	21.47
871.582	22.73
871.751	21.51
871.921	19.29
872.091	15.25
872.26	11.97
872.43	9.38
872.599	10.38
872.769	8.98
872.938	10.45
873.108	8.71
873.277	9.16
873.446	9.84
873.616	10.61
873.785	12.73
873.955	18.54
874.124	19.26
874.293	20.64
874.463	20.17
874.632	19.89
874.801	17.87
874.971	17.92
875.14	19.22
875.309	15.7
875.478	15.89
875.647	16.29
875.817	12.69
875.986	10.15
876.155	8.64
876.324	9.26
876.493	15.69
876.662	17.94
876.831	16.53
877	14.99
877.17	20.85
877.339	23.43
877.508	24
877.677	25.34
877.846	27.86
878.015	29.43
878.184	28.46
878.352	27.33
878.521	25.75
878.69	26.72
878.859	26.81
879.028	25.5
879.197	24.05
879.366	22.1
879.534	22.47
879.703	21.54
879.872	22.44
880.041	23.66
880.21	23.32
880.378	23.74
880.547	23.74
880.716	24
880.884	23.32
881.053	23.23
881.222	23.51
881.39	23.31
881.559	23.67
881.727	23.79
881.896	23.88
882.065	23.45
882.233	23.69
882.402	23.88
882.57	23.43
882.739	23.59
882.907	24.16
883.076	24.55
883.244	24.67
883.412	24.71
883.581	24.46
883.749	23.79
883.918	24.45
884.086	24.54
884.254	24.42
884.423	25.2
884.591	26.06
884.759	24.58
884.927	24.04
885.096	23.2
885.264	23.17
885.432	22.59
885.6	21.9
885.769	20.92
885.937	18.9
886.105	17.92
886.273	17.71
886.441	14.88
886.609	16.75
886.777	15.12
886.945	15.87
887.113	16.06
887.281	14.87
887.449	17.8
887.617	18.85
887.785	19.88
887.953	19.14
888.121	18.15
888.289	18.23
888.457	17.66
888.625	17.45
888.793	19.66
888.961	18.06
889.129	17.25
889.296	15.69
889.464	13.41
889.632	13.49
889.8	14.9
889.967	14.27
890.135	16.55
