Data from JASIL_3113_Reflection_2.txt Node
Date: Thu Nov 12 20:03:13 EST 2015
User: Geneva
Spectrometer: USB4E03002
Autoset integration time: false
Trigger mode: 4
Integration Time (sec): 1.000000E-1
Scans to average: 10
Electric dark correction enabled: true
Nonlinearity correction enabled: false
Boxcar width: 5
Stray light correction enabled: false
XAxis mode: Wavelengths
Stop averaging: false
Number of Pixels in Spectrum: 3648
>>>>>Begin Spectral Data<<<<<
177.575	93.84
177.794	-284.27
178.014	451.55
178.233	46.35
178.452	29
178.672	44.84
178.891	29.61
179.11	31.82
179.33	55.62
179.549	41.44
179.768	93.67
179.987	109.97
180.207	75.99
180.426	103.33
180.645	121.34
180.864	-89.68
181.084	51.26
181.303	-28.55
181.522	-240
181.741	-101.63
181.96	-58.64
182.179	-23.65
182.398	31.96
182.618	17.83
182.837	52.86
183.056	-793.84
183.275	875.73
183.494	406.03
183.713	135.32
183.932	-1248.91
184.151	-524.37
184.37	689.09
184.589	1210.16
184.808	363.79
185.027	1088.27
185.246	-236.32
185.465	-317.79
185.684	-252.02
185.903	-490.07
186.122	-443.58
186.341	-1106.22
186.56	-1729.66
186.779	-522.72
186.998	11685.33
187.216	934.17
187.435	1069.37
187.654	215.08
187.873	150.75
188.092	155.39
188.311	-444.92
188.53	57.14
188.748	421.38
188.967	-395.94
189.186	161.43
189.405	646.5
189.623	4186.84
189.842	-245.32
190.061	-219.65
190.28	-309.41
190.498	-518.7
190.717	1150.63
190.936	-1164.93
191.154	1095.52
191.373	579.51
191.592	-6305.03
191.81	2209.03
192.029	-1384.31
192.248	-470.66
192.466	-542.88
192.685	-1017.29
192.904	2053.26
193.122	997.02
193.341	451.27
193.559	421.09
193.778	345.76
193.996	331.5
194.215	1766.34
194.433	452.39
194.652	221.91
194.87	223.83
195.089	308.52
195.307	-526.26
195.526	841.74
195.744	-484.71
195.963	237.31
196.181	416.28
196.399	747.67
196.618	670.96
196.836	263.23
197.055	314.33
197.273	176.31
197.491	103.3
197.71	100.86
197.928	106.8
198.146	107.99
198.365	154.42
198.583	118.49
198.801	105.77
199.019	102.52
199.238	143.69
199.456	115.18
199.674	128.3
199.892	254.3
200.111	-2370.46
200.329	-565.84
200.547	-301.82
200.765	-125.86
200.983	-45.34
201.202	-1.58
201.42	-0.88
201.638	21.32
201.856	1.7
202.074	49.06
202.292	63.21
202.51	-16.62
202.728	-53.91
202.946	-151.32
203.165	1821.43
203.383	543.81
203.601	287.76
203.819	1102.05
204.037	-2101.52
204.255	-404.85
204.473	3184.39
204.691	-288.97
204.909	-454.56
205.127	-778.57
205.345	245.3
205.562	210.53
205.78	84.72
205.998	-66.17
206.216	3.32
206.434	54.33
206.652	90.53
206.87	143.05
207.088	88.46
207.306	119.12
207.523	128.83
207.741	212.84
207.959	908.75
208.177	93490
208.395	926.2
208.612	1047.36
208.83	-1440.05
209.048	-1594.51
209.266	-1004.05
209.483	-346.57
209.701	-179.68
209.919	-190.05
210.136	-109.06
210.354	-53.67
210.572	-24.82
210.79	17.39
211.007	15.16
211.225	10.78
211.442	26.31
211.66	27.57
211.878	41.12
212.095	26.77
212.313	14.34
212.53	26.65
212.748	20.16
212.966	25.9
213.183	-5.44
213.401	51.22
213.618	22.32
213.836	-56.05
214.053	-158.62
214.271	428.57
214.488	196.72
214.705	675.3
214.923	-401.24
215.14	-6679.01
215.358	955.84
215.575	-9481.82
215.793	-219.18
216.01	-910.53
216.227	1093.36
216.445	551.2
216.662	-213.59
216.879	-4233.83
217.097	306.24
217.314	223.11
217.531	416.2
217.749	395.02
217.966	642.11
218.183	725.89
218.4	375.69
218.618	1120.92
218.835	-1266.23
219.052	388.01
219.269	153.4
219.487	174.26
219.704	200.27
219.921	132.66
220.138	262.11
220.355	272.27
220.572	361.79
220.79	339.12
221.007	165.3
221.224	186.16
221.441	267.32
221.658	808.27
221.875	703.56
222.092	942.54
222.309	999.27
222.526	2408.47
222.743	2169.25
222.96	511.95
223.177	-2154.92
223.394	-678.19
223.611	-288.84
223.828	-2405.48
224.045	585.24
224.262	-360.63
224.479	-923.26
224.696	-152.86
224.913	-187.12
225.13	-60.85
225.347	-52.15
225.564	-77.65
225.781	-72.77
225.997	-72.09
226.214	-66.98
226.431	-68.16
226.648	-64.51
226.865	-22.44
227.082	-31.01
227.298	-36.4
227.515	-33.84
227.732	-40.84
227.949	-29.96
228.165	-30.62
228.382	-28.05
228.599	-21.18
228.816	-4.69
229.032	1.77
229.249	1.32
229.466	0.91
229.682	15.64
229.899	2.71
230.116	20.23
230.332	8.67
230.549	7.86
230.765	6.09
230.982	-0.13
231.199	-11.28
231.415	-29.92
231.632	-54.38
231.848	-51.82
232.065	-71.41
232.281	-38.88
232.498	-67.97
232.714	-44.33
232.931	-50.11
233.147	-76.1
233.364	-76.05
233.58	-81.23
233.797	-49.18
234.013	-37.81
234.23	-31.91
234.446	-27.72
234.662	-55.89
234.879	-79.38
235.095	-90.86
235.312	-60.49
235.528	-40.83
235.744	-45.58
235.961	-49.14
236.177	-69.33
236.393	-45.37
236.61	-45.6
236.826	-33.91
237.042	-38.51
237.258	-32.44
237.475	-14
237.691	-17.1
237.907	-18.74
238.123	-9.71
238.339	-16.49
238.556	2
238.772	-8.9
238.988	-26.33
239.204	-29.14
239.42	-13.64
239.636	-1.33
239.853	-11.04
240.069	-13.47
240.285	-20.78
240.501	-13.2
240.717	-9.93
240.933	-11.57
241.149	-10.1
241.365	-2.73
241.581	-9.73
241.797	-9.17
242.013	-14.75
242.229	-8.39
242.445	-9.55
242.661	-2.72
242.877	-5.6
243.093	-0.82
243.309	-3.31
243.525	-2.47
243.741	-5.28
243.957	-2.1
244.173	-6.17
244.388	-2.03
244.604	-1.75
244.82	6.63
245.036	9.95
245.252	9.44
245.468	3.01
245.683	4.68
245.899	1.15
246.115	-0.25
246.331	1.65
246.547	2.82
246.762	1.52
246.978	3.39
247.194	1.7
247.409	1.3
247.625	-0.74
247.841	0.87
248.057	0.35
248.272	4.9
248.488	4.08
248.703	1.91
248.919	1.06
249.135	2.92
249.35	-7.22
249.566	-13.58
249.782	-23.74
249.997	-19.49
250.213	-19.63
250.428	-21.59
250.644	-31.95
250.859	-20.03
251.075	-20.09
251.29	-13.92
251.506	-15.78
251.721	-8.33
251.937	-5.55
252.152	-3.5
252.368	-4.04
252.583	-0.27
252.798	3.49
253.014	2.27
253.229	-0.96
253.445	3.84
253.66	2.96
253.875	2.54
254.091	-6.36
254.306	-5.01
254.521	-8.84
254.737	-9.97
254.952	-18.39
255.167	-25.7
255.383	-15.79
255.598	-16.6
255.813	-16.12
256.028	-15.12
256.244	-14.66
256.459	-12.84
256.674	-16.51
256.889	-15.73
257.104	-16.47
257.32	-16.54
257.535	-12.6
257.75	-12.92
257.965	-11.17
258.18	-11.74
258.395	-9.87
258.61	-9.55
258.826	-5.65
259.041	-6.71
259.256	-4.01
259.471	-2.39
259.686	-3.02
259.901	-3.74
260.116	-2.59
260.331	-1.19
260.546	-1.53
260.761	-2.52
260.976	-2.81
261.191	-6.44
261.406	-3.3
261.621	-6.34
261.836	-9.42
262.05	-7.39
262.265	-11.03
262.48	-17.24
262.695	-23.37
262.91	-25.8
263.125	-24.65
263.34	-20.3
263.555	-16.26
263.769	-17.63
263.984	-15.26
264.199	-10.3
264.414	-5.02
264.629	0.34
264.843	3.57
265.058	0.42
265.273	1.59
265.488	-1.25
265.702	-1.2
265.917	-3.39
266.132	-3.89
266.346	-4.33
266.561	-5.64
266.776	-7.76
266.99	-8.61
267.205	-7.57
267.42	-5.94
267.634	-4.51
267.849	-5.26
268.063	-2.61
268.278	-2.89
268.492	-5.99
268.707	-5.81
268.922	-4.27
269.136	-2.75
269.351	-1.05
269.565	-0
269.78	1.88
269.994	0.97
270.209	0.27
270.423	-2.79
270.637	-3.87
270.852	-2.88
271.066	-2.98
271.281	-5.04
271.495	-3.14
271.709	-2.83
271.924	-1.62
272.138	-1.2
272.353	-1.92
272.567	-2.71
272.781	-3.76
272.996	-5.1
273.21	-3.32
273.424	-4.96
273.638	-4.59
273.853	-7.83
274.067	-6.49
274.281	-10.37
274.495	-10.96
274.71	-8.07
274.924	-6.95
275.138	-2.77
275.352	-3.1
275.566	-2.27
275.781	-1.03
275.995	-1.5
276.209	0.99
276.423	-1.84
276.637	1.48
276.851	2.02
277.065	-1.73
277.279	-1.93
277.493	-1.23
277.707	1.19
277.921	-1.36
278.135	-0.51
278.349	1.53
278.563	-2.3
278.777	-0.77
278.991	-1.15
279.205	-0.96
279.419	2.56
279.633	3.08
279.847	2.44
280.061	3.3
280.275	7.45
280.489	6
280.703	6.72
280.917	7.49
281.131	7.13
281.344	6.21
281.558	6.08
281.772	2.74
281.986	2.41
282.2	2.09
282.414	1.26
282.627	-2.07
282.841	-1.65
283.055	-3.22
283.269	1.1
283.482	-2.92
283.696	-5.72
283.91	-3.62
284.123	-2.82
284.337	-2.35
284.551	-2.69
284.764	-3.83
284.978	-1.87
285.192	-1.07
285.405	-2.39
285.619	-6.04
285.833	-1.8
286.046	-0.65
286.26	-2.89
286.473	-0.77
286.687	-0.16
286.9	-2.44
287.114	0.33
287.327	1.08
287.541	1.92
287.754	2.72
287.968	2.51
288.181	-0.19
288.395	-0.09
288.608	-1.09
288.822	-3.47
289.035	-3.55
289.248	-0.65
289.462	-0.83
289.675	-3.59
289.889	-3.1
290.102	-3.3
290.315	-3.09
290.529	-3.01
290.742	0.4
290.955	2.47
291.169	1.37
291.382	0.66
291.595	-1.53
291.808	-1.77
292.022	-3.29
292.235	-3.94
292.448	-2.05
292.661	0.82
292.875	1.68
293.088	-3.78
293.301	-4.2
293.514	-2.21
293.727	-2.83
293.94	-1.44
294.153	-1.77
294.367	0.4
294.58	-2.57
294.793	-2.17
295.006	-5.12
295.219	-4.61
295.432	-4.07
295.645	-6.39
295.858	-6.78
296.071	-6
296.284	-5.18
296.497	-4.29
296.71	-4.76
296.923	-1.6
297.136	-2.7
297.349	-1.07
297.562	-0.9
297.775	0.75
297.988	1.49
298.201	2.45
298.414	2.72
298.626	-0.65
298.839	-3.07
299.052	-2
299.265	-3.38
299.478	-2.22
299.691	-3.33
299.903	-1.58
300.116	-1.93
300.329	-0.46
300.542	-1.03
300.755	-1.3
300.967	1.12
301.18	3.53
301.393	2.84
301.605	3.24
301.818	4.53
302.031	3.49
302.243	1.79
302.456	-0.18
302.669	-0.03
302.881	-0.71
303.094	0.8
303.307	1.51
303.519	-0.03
303.732	2.03
303.944	1.56
304.157	-1.75
304.37	0.34
304.582	0.85
304.795	3.84
305.007	4.78
305.22	6.38
305.432	4.44
305.645	6.16
305.857	7.19
306.069	6.24
306.282	5.53
306.494	6.53
306.707	5.58
306.919	4.98
307.132	3.8
307.344	2.41
307.556	-0.23
307.769	0.19
307.981	-2.69
308.193	-3.21
308.406	-4.44
308.618	-2.59
308.83	-2.55
309.043	-1.47
309.255	-1.14
309.467	-2.11
309.679	-1.57
309.892	1.66
310.104	2.18
310.316	2.19
310.528	3.03
310.74	3.28
310.953	1.32
311.165	4.44
311.377	3.75
311.589	3.17
311.801	6.02
312.013	6.93
312.225	4.35
312.437	2.99
312.649	5.63
312.862	6.7
313.074	5.51
313.286	6.27
313.498	1.96
313.71	1.79
313.922	3.79
314.134	1.46
314.346	-0.86
314.558	-0.66
314.77	1.93
314.982	-0.7
315.193	1.29
315.405	3.61
315.617	3
315.829	4.07
316.041	3.53
316.253	2.86
316.465	3.63
316.677	5.51
316.888	5.8
317.1	7.85
317.312	10.21
317.524	6.58
317.736	2.86
317.947	3.4
318.159	2.75
318.371	2.69
318.583	0.52
318.794	-0.14
319.006	-0.07
319.218	0.11
319.43	-3.42
319.641	-7.68
319.853	-7.31
320.064	-3.05
320.276	-0.33
320.488	0.05
320.699	2.88
320.911	4.79
321.123	4.69
321.334	3.62
321.546	3.84
321.757	4.33
321.969	7.05
322.18	5.28
322.392	3.99
322.603	1.83
322.815	1.41
323.026	0.64
323.238	-0.25
323.449	0.78
323.661	2.95
323.872	2.7
324.083	1.02
324.295	2.54
324.506	4.73
324.718	6.11
324.929	9
325.14	9.34
325.352	8.92
325.563	10.66
325.774	10.85
325.986	12.13
326.197	11.44
326.408	12.64
326.62	12.83
326.831	14.48
327.042	13.59
327.253	11.94
327.464	10.78
327.676	10.45
327.887	10.42
328.098	9.5
328.309	4.46
328.52	6.02
328.732	8.06
328.943	7.27
329.154	4.81
329.365	2.81
329.576	3.35
329.787	6.85
329.998	6.95
330.209	6.94
330.42	7.51
330.631	11.17
330.842	12.05
331.053	10.75
331.264	7.82
331.475	10.25
331.686	11.8
331.897	12.18
332.108	11.59
332.319	12.78
332.53	14.39
332.741	13.38
332.952	12.09
333.163	12.07
333.374	11.98
333.585	15.46
333.795	11.96
334.006	11.24
334.217	9.99
334.428	9.55
334.639	9.46
334.849	6.42
335.06	7.45
335.271	10.11
335.482	7.23
335.692	7.52
335.903	5.42
336.114	8.84
336.325	10.82
336.535	13.06
336.746	13.63
336.957	13.71
337.167	15.74
337.378	15.2
337.589	13.65
337.799	14.71
338.01	15.03
338.22	15.21
338.431	12.54
338.642	12.7
338.852	11.25
339.063	9.24
339.273	9.94
339.484	9.27
339.694	9.82
339.905	9.29
340.115	13.67
340.326	14.05
340.536	13.64
340.746	15.26
340.957	13.38
341.167	13.12
341.378	14.56
341.588	12.04
341.799	12.26
342.009	11.51
342.219	12.48
342.43	9.27
342.64	8.53
342.85	9.41
343.061	9.01
343.271	9.83
343.481	10.43
343.691	11.01
343.902	11.97
344.112	10.92
344.322	11.4
344.532	12.13
344.743	12.02
344.953	11.39
345.163	10.17
345.373	9.53
345.583	9
345.793	7.58
346.004	7.5
346.214	9.21
346.424	9.71
346.634	10.93
346.844	10.26
347.054	10.64
347.264	11.19
347.474	10.54
347.684	10.33
347.894	13.01
348.104	15.26
348.314	14.87
348.524	14.59
348.734	13.71
348.944	14.99
349.154	14.78
349.364	15.58
349.574	14.57
349.784	16.02
349.994	15.82
350.204	15.01
350.413	15.31
350.623	15.28
350.833	13.02
351.043	12.33
351.253	10.62
351.463	10.08
351.672	7.87
351.882	10.54
352.092	10.69
352.302	11.9
352.511	12.08
352.721	11.27
352.931	12.43
353.141	12.77
353.35	13.77
353.56	12.72
353.77	11.3
353.979	12.78
354.189	11.16
354.399	11.82
354.608	10.75
354.818	9.64
355.027	9.93
355.237	9.02
355.447	10.52
355.656	11.08
355.866	11.53
356.075	12.47
356.285	11.37
356.494	12.6
356.704	13.09
356.913	13.99
357.123	13.63
357.332	12.16
357.542	11.21
357.751	11.05
357.96	10.5
358.17	10.22
358.379	10.92
358.589	12.08
358.798	10.11
359.007	9.61
359.217	8.41
359.426	9.78
359.635	9.83
359.845	10.99
360.054	11.06
360.263	11.54
360.472	12.19
360.682	12.53
360.891	12.41
361.1	13.94
361.309	13.31
361.519	14.65
361.728	14.12
361.937	14.55
362.146	14.23
362.355	14.91
362.564	15.28
362.774	15.43
362.983	16.31
363.192	16.08
363.401	15.41
363.61	14.92
363.819	14.8
364.028	14.41
364.237	15.81
364.446	15.8
364.655	15.76
364.864	14.7
365.073	13.03
365.282	12.34
365.491	11.58
365.7	12.84
365.909	13.36
366.118	12.83
366.327	13.64
366.536	12.13
366.745	11.12
366.954	10.29
367.162	12.17
367.371	12.65
367.58	12.44
367.789	12.48
367.998	10.39
368.207	11.34
368.415	10.75
368.624	9.72
368.833	8.9
369.042	10.7
369.25	10.51
369.459	10.2
369.668	10.29
369.877	10.17
370.085	10.61
370.294	12.62
370.503	11.98
370.711	12.84
370.92	13.16
371.129	13.86
371.337	12.99
371.546	12.62
371.754	11.42
371.963	10.72
372.171	11.66
372.38	11.89
372.589	12.04
372.797	12.35
373.006	12.09
373.214	11.88
373.423	12.75
373.631	12.79
373.84	12.52
374.048	12.08
374.256	12.75
374.465	11.73
374.673	12.94
374.882	11.44
375.09	11.59
375.298	11.68
375.507	12.84
375.715	12.88
375.923	12.34
376.132	13.16
376.34	13.62
376.548	13.17
376.757	12.47
376.965	11.8
377.173	12.9
377.381	12.68
377.59	12.42
377.798	10.87
378.006	10.94
378.214	11.9
378.423	11.38
378.631	12.07
378.839	14.19
379.047	15.04
379.255	14.96
379.463	14.86
379.671	15.55
379.879	15.92
380.088	17.19
380.296	17.18
380.504	17.18
380.712	18.05
380.92	17.52
381.128	16.6
381.336	16.76
381.544	16.24
381.752	15.03
381.96	14.32
382.168	14.82
382.376	13.03
382.584	12.67
382.791	12.93
382.999	12.79
383.207	12.03
383.415	12.6
383.623	11.67
383.831	13.54
384.039	13.29
384.247	13.08
384.454	13.13
384.662	14.82
384.87	14.98
385.078	14.01
385.285	14.19
385.493	14.94
385.701	13.47
385.909	13.34
386.116	12.03
386.324	13.35
386.532	13.58
386.739	13.44
386.947	13.57
387.155	12.35
387.362	13.46
387.57	13.53
387.778	13.54
387.985	14.23
388.193	13.36
388.4	13.13
388.608	13.3
388.816	13.21
389.023	12.94
389.231	13.5
389.438	14.39
389.646	14.04
389.853	13.49
390.061	13.4
390.268	13.25
390.475	14.68
390.683	14.7
390.89	14.35
391.098	15.44
391.305	15.29
391.512	13.56
391.72	13.58
391.927	13.36
392.135	14.06
392.342	14.68
392.549	14.29
392.756	14.82
392.964	15.22
393.171	14.68
393.378	14.17
393.586	14.78
393.793	16.08
394	16.31
394.207	16.12
394.414	15.29
394.622	14.82
394.829	15.32
395.036	14.73
395.243	14.05
395.45	14.66
395.657	14.04
395.864	13.24
396.072	12.39
396.279	12.24
396.486	13.15
396.693	12.78
396.9	12.6
397.107	12.63
397.314	11.86
397.521	12.6
397.728	12.23
397.935	13.02
398.142	12.7
398.349	12.94
398.556	12.94
398.763	12.2
398.97	13.46
399.177	13.98
399.383	14.58
399.59	15.68
399.797	15.85
400.004	16.37
400.211	15.5
400.418	15.8
400.625	16.33
400.831	16.16
401.038	16.1
401.245	16.11
401.452	16.11
401.658	15.52
401.865	15.06
402.072	14.86
402.279	13.64
402.485	14.48
402.692	15.53
402.899	15.06
403.105	14.96
403.312	14.85
403.519	14.57
403.725	14.82
403.932	15.91
404.138	15.81
404.345	14.94
404.552	15.82
404.758	15.76
404.965	15.15
405.171	16.32
405.378	16.35
405.584	16.78
405.791	17.55
405.997	17.09
406.204	16.8
406.41	17.36
406.617	17.06
406.823	17.34
407.029	17.85
407.236	17.4
407.442	16.96
407.649	17.94
407.855	18.23
408.061	18.01
408.268	19.02
408.474	19.48
408.68	18.83
408.887	19.47
409.093	20.02
409.299	19.45
409.505	19.9
409.712	20.23
409.918	19.74
410.124	21.03
410.33	20.56
410.537	19.4
410.743	19.22
410.949	19.74
411.155	20.36
411.361	19.74
411.567	20.65
411.773	20.52
411.98	19.44
412.186	20.1
412.392	19.15
412.598	19.28
412.804	20.06
413.01	19.95
413.216	20.39
413.422	20.21
413.628	20.65
413.834	20.11
414.04	20.84
414.246	21.44
414.452	21.21
414.658	21.6
414.864	21.92
415.07	22.02
415.275	21.77
415.481	21.47
415.687	21.15
415.893	20.88
416.099	20.8
416.305	20.68
416.511	20.84
416.716	20.35
416.922	20.35
417.128	19.6
417.334	19.81
417.539	19.5
417.745	19.49
417.951	19.86
418.157	19.4
418.362	19.16
418.568	19.02
418.774	18.65
418.979	18.42
419.185	18.27
419.391	18.57
419.596	18.39
419.802	18.77
420.008	19.15
420.213	18.97
420.419	19.03
420.624	19.6
420.83	19.45
421.035	19.42
421.241	19.7
421.446	19.33
421.652	19.46
421.857	19.29
422.063	19.41
422.268	18.78
422.474	18.7
422.679	19.23
422.885	19.33
423.09	19.9
423.295	20.06
423.501	19.81
423.706	20.04
423.911	19.88
424.117	19.82
424.322	20.19
424.527	20.6
424.733	20.73
424.938	20.85
425.143	20.61
425.349	20.33
425.554	20.49
425.759	20.79
425.964	21.21
426.169	21.06
426.375	21.5
426.58	20.65
426.785	20.21
426.99	20.74
427.195	20.53
427.4	20.41
427.605	20.41
427.811	20.97
428.016	21.04
428.221	20.02
428.426	20.78
428.631	20
428.836	19.93
429.041	20.29
429.246	20.81
429.451	20.56
429.656	20.37
429.861	20.2
430.066	19.51
430.271	20.01
430.476	20.51
430.681	20
430.886	20.86
431.09	21.74
431.295	21.28
431.5	20.74
431.705	20.74
431.91	20.89
432.115	20.78
432.32	20.41
432.524	20.4
432.729	20.85
432.934	21.12
433.139	20.6
433.343	19.99
433.548	20.99
433.753	20.76
433.958	21.15
434.162	20.82
434.367	21.33
434.572	22
434.776	22.07
434.981	21.65
435.186	21.44
435.39	21.61
435.595	21.28
435.799	20.61
436.004	20.66
436.209	20.12
436.413	20.47
436.618	20.67
436.822	20.66
437.027	20.43
437.231	20.75
437.436	21.37
437.64	21.35
437.845	22.1
438.049	22.47
438.253	22.93
438.458	22.97
438.662	23.14
438.867	22.48
439.071	22.2
439.275	22.22
439.48	22.38
439.684	22.07
439.888	21.77
440.093	21.76
440.297	21.59
440.501	21.13
440.706	21.5
440.91	21.26
441.114	21.51
441.318	21.39
441.523	22.09
441.727	21.37
441.931	22.06
442.135	22.67
442.339	22.07
442.543	22.07
442.748	22.13
442.952	21.37
443.156	21.95
443.36	22.03
443.564	22.2
443.768	21.5
443.972	21.33
444.176	20.56
444.38	20.07
444.584	20.67
444.788	21.05
444.992	21.02
445.196	21.41
445.4	20.95
445.604	20.86
445.808	20.92
446.012	21.08
446.216	21.07
446.42	21.15
446.624	21.49
446.828	21.69
447.032	21.05
447.235	21.22
447.439	21.36
447.643	21.4
447.847	21.51
448.051	21.32
448.254	20.81
448.458	20.6
448.662	20.36
448.866	20.19
449.069	19.14
449.273	19.29
449.477	19.1
449.681	18.32
449.884	18.37
450.088	17.62
450.292	17.94
450.495	18.51
450.699	18.22
450.902	18.32
451.106	18.45
451.31	19.14
451.513	19.26
451.717	19.23
451.92	19.71
452.124	19.05
452.327	19.2
452.531	19.01
452.734	18.47
452.938	19.52
453.141	19.73
453.345	19.92
453.548	20.2
453.752	19.95
453.955	20.26
454.158	20.29
454.362	20.81
454.565	21.67
454.769	21.32
454.972	21.42
455.175	21.18
455.379	21
455.582	21.14
455.785	20.91
455.988	21.29
456.192	21.16
456.395	20.85
456.598	20.69
456.801	19.9
457.005	20.54
457.208	20.51
457.411	20.51
457.614	20.15
457.817	19.88
458.021	19.8
458.224	19.47
458.427	19.48
458.63	20.08
458.833	19.69
459.036	20.1
459.239	19.58
459.442	19.71
459.645	19.71
459.848	20.06
460.051	19.98
460.254	19.91
460.457	20.17
460.66	19.84
460.863	19.61
461.066	20.01
461.269	19.79
461.472	20.09
461.675	20.03
461.878	20.14
462.081	19.54
462.284	19.31
462.486	19.43
462.689	19
462.892	19.34
463.095	19.2
463.298	19.27
463.5	19.07
463.703	18.93
463.906	19.22
464.109	19.58
464.311	19.71
464.514	20.24
464.717	20.45
464.92	20.78
465.122	21.02
465.325	21.07
465.528	21.03
465.73	21.31
465.933	21.66
466.135	21.72
466.338	21.5
466.541	21.99
466.743	21.96
466.946	21.14
467.148	21.44
467.351	21.42
467.553	21.73
467.756	21.76
467.958	21.98
468.161	21.91
468.363	22.03
468.566	22.07
468.768	22.5
468.971	22.07
469.173	22.9
469.375	22.46
469.578	22.71
469.78	22.39
469.983	22.53
470.185	22.06
470.387	21.61
470.59	21.62
470.792	21.16
470.994	20.41
471.196	20.31
471.399	20.71
471.601	21.05
471.803	20.88
472.005	20.86
472.208	20.96
472.41	20.84
472.612	21.86
472.814	21.5
473.016	21.71
473.218	22.36
473.421	22.64
473.623	22.34
473.825	21.99
474.027	21.69
474.229	21.3
474.431	21.38
474.633	21.53
474.835	21.09
475.037	21.25
475.239	21.31
475.441	20.47
475.643	20.3
475.845	20.07
476.047	20.38
476.249	20.58
476.451	21.07
476.653	21.18
476.855	21.24
477.057	21.4
477.258	21.71
477.46	21.87
477.662	22.39
477.864	23
478.066	22.77
478.268	22.7
478.469	22.56
478.671	22.26
478.873	21.88
479.075	21.96
479.276	21.82
479.478	21.5
479.68	21.86
479.882	21.86
480.083	21.2
480.285	21.32
480.487	21.47
480.688	21.47
480.89	21.53
481.091	21.39
481.293	21.39
481.495	21.16
481.696	20.75
481.898	20.4
482.099	19.85
482.301	20
482.502	19.84
482.704	19.59
482.905	19.65
483.107	19.74
483.308	19.84
483.51	19.7
483.711	19.78
483.913	19.99
484.114	19.81
484.315	19.98
484.517	19.98
484.718	19.95
484.92	20.15
485.121	20.1
485.322	19.9
485.524	19.94
485.725	20.07
485.926	19.83
486.127	19.72
486.329	20.04
486.53	20.32
486.731	20.27
486.932	20.39
487.134	20.3
487.335	20.48
487.536	20.63
487.737	20.69
487.938	20.62
488.139	20.76
488.341	20.75
488.542	20.57
488.743	20.42
488.944	20.58
489.145	20.92
489.346	20.91
489.547	20.61
489.748	20.6
489.949	20.48
490.15	20.68
490.351	20.78
490.552	21.03
490.753	21.06
490.954	21.17
491.155	21.24
491.356	21.16
491.557	21.39
491.758	21.54
491.959	21.49
492.159	21.34
492.36	21.42
492.561	21.5
492.762	21.37
492.963	21.59
493.164	21.33
493.364	21.33
493.565	21.35
493.766	21.62
493.967	21.39
494.167	21.74
494.368	22
494.569	22.06
494.769	21.7
494.97	21.65
495.171	21.67
495.371	21.82
495.572	21.19
495.773	20.85
495.973	20.24
496.174	20.42
496.375	20.63
496.575	20.96
496.776	20.5
496.976	20.79
497.177	20.68
497.377	20.14
497.578	20.04
497.778	20.61
497.979	21
498.179	21.04
498.38	21.06
498.58	20.74
498.78	19.95
498.981	20.37
499.181	20.6
499.382	20.71
499.582	21.52
499.782	21.78
499.983	21.97
500.183	21.77
500.383	22.12
500.584	22.27
500.784	22.07
500.984	22.85
501.184	22.69
501.385	22.68
501.585	22.87
501.785	22.43
501.985	22.23
502.185	21.98
502.386	21.88
502.586	21.81
502.786	21.76
502.986	22.21
503.186	21.63
503.386	21.84
503.586	21.67
503.786	21.75
503.987	21.92
504.187	22.43
504.387	22.84
504.587	22.55
504.787	22.44
504.987	22.08
505.187	22.15
505.387	22.05
505.587	21.76
505.786	21.91
505.986	22.3
506.186	22.41
506.386	22.01
506.586	21.48
506.786	22.01
506.986	21.91
507.186	22.19
507.386	22.57
507.585	23.2
507.785	23.48
507.985	23.25
508.185	22.7
508.384	23.04
508.584	23.18
508.784	23.71
508.984	23.78
509.183	23.64
509.383	23.61
509.583	22.84
509.782	22.76
509.982	22.18
510.182	22.18
510.381	22.45
510.581	22.35
510.781	22.18
510.98	21.59
511.18	21.74
511.379	22.28
511.579	22.08
511.778	22.36
511.978	22.44
512.177	23.29
512.377	23.1
512.576	22.78
512.776	22.32
512.975	22.88
513.175	23.33
513.374	22.94
513.573	22.65
513.773	23.39
513.972	23.23
514.172	23.5
514.371	23.16
514.57	23.46
514.77	23.5
514.969	23.62
515.168	23.92
515.367	23.7
515.567	24.02
515.766	24.03
515.965	23.83
516.164	24.1
516.364	23.53
516.563	23.16
516.762	23.42
516.961	23.95
517.16	23.93
517.359	23.76
517.559	23.74
517.758	23.74
517.957	23.93
518.156	23.92
518.355	23.94
518.554	24.32
518.753	24.74
518.952	24.43
519.151	24.33
519.35	24.83
519.549	25.03
519.748	25.25
519.947	25.17
520.146	25.33
520.345	25.52
520.544	25.39
520.743	25.24
520.942	25.35
521.141	25.95
521.339	25.9
521.538	25.89
521.737	26.21
521.936	26.14
522.135	26.19
522.333	26.08
522.532	25.83
522.731	25.7
522.93	25.6
523.129	26.13
523.327	26.11
523.526	26.2
523.725	26.14
523.923	25.51
524.122	25.82
524.321	26.46
524.519	26.45
524.718	26.67
524.917	27.19
525.115	27.67
525.314	27.48
525.512	27.58
525.711	27.61
525.909	27.49
526.108	27.64
526.306	27.46
526.505	27.6
526.703	27.57
526.902	27.66
527.1	27.75
527.299	27.8
527.497	27.79
527.696	27.62
527.894	27.7
528.092	27.77
528.291	27.89
528.489	28.01
528.688	27.68
528.886	27.86
529.084	27.97
529.283	27.86
529.481	27.77
529.679	27.73
529.877	27.94
530.076	27.98
530.274	28.15
530.472	28.34
530.67	28.55
530.869	28.79
531.067	28.67
531.265	28.6
531.463	28.63
531.661	28.27
531.859	28.75
532.057	28.74
532.255	28.8
532.454	28.79
532.652	28.4
532.85	28.19
533.048	28.33
533.246	28.36
533.444	28.47
533.642	28.59
533.84	29.05
534.038	28.93
534.236	28.97
534.434	29.1
534.632	29.11
534.83	29.5
535.027	29.85
535.225	29.72
535.423	29.94
535.621	29.84
535.819	29.93
536.017	29.78
536.215	29.45
536.412	29.47
536.61	29.33
536.808	29.47
537.006	29.25
537.203	29.12
537.401	29.24
537.599	29.02
537.797	29.11
537.994	28.8
538.192	29.07
538.39	29.35
538.587	29.19
538.785	28.91
538.983	28.98
539.18	29.24
539.378	29.49
539.575	29.53
539.773	29.76
539.97	29.79
540.168	30
540.366	29.97
540.563	30.03
540.761	30.15
540.958	30.42
541.155	30.55
541.353	30.52
541.55	30.36
541.748	30.35
541.945	30.59
542.143	30.61
542.34	30.73
542.537	31.01
542.735	30.89
542.932	30.91
543.129	31.05
543.327	31.03
543.524	31
543.721	31.26
543.919	31.19
544.116	30.85
544.313	30.92
544.51	30.97
544.708	30.86
544.905	31.07
545.102	31.34
545.299	31.14
545.496	31.17
545.693	31.51
545.891	31.51
546.088	31.96
546.285	32.02
546.482	32.42
546.679	31.97
546.876	31.86
547.073	31.99
547.27	32.08
547.467	32.15
547.664	32.17
547.861	32.1
548.058	31.98
548.255	31.95
548.452	32.38
548.649	32.27
548.846	32.41
549.043	32.32
549.24	31.95
549.437	32.21
549.633	32.51
549.83	32.34
550.027	32.44
550.224	32.47
550.421	32.32
550.618	31.82
550.814	31.32
551.011	31.98
551.208	32.33
551.405	32.58
551.601	32.26
551.798	32.38
551.995	32.49
552.191	32.52
552.388	32.41
552.585	32.14
552.781	32.75
552.978	32.88
553.175	32.14
553.371	32.24
553.568	32.37
553.764	32.17
553.961	32.43
554.157	32.33
554.354	32.18
554.55	32.61
554.747	33.1
554.943	32.58
555.14	33.06
555.336	34.22
555.533	34.05
555.729	34.06
555.926	34.98
556.122	35.12
556.318	34.82
556.515	34.24
556.711	34.7
556.907	34.25
557.104	34.46
557.3	33.92
557.496	33.1
557.693	33.3
557.889	33.31
558.085	32.91
558.281	32.72
558.478	33.45
558.674	33.92
558.87	33.56
559.066	33.68
559.262	33.39
559.459	34.65
559.655	35.02
559.851	34.14
560.047	34.12
560.243	34.06
560.439	34.25
560.635	33.71
560.831	33.72
561.027	33.38
561.223	33.86
561.419	34.33
561.615	33.01
561.811	33.06
562.007	33.98
562.203	34.2
562.399	34.2
562.595	34
562.791	34.95
562.987	35.7
563.183	36.32
563.379	35.91
563.575	36.16
563.771	36.44
563.966	36.64
564.162	36.44
564.358	36.81
564.554	36.73
564.75	36.33
564.945	35.95
565.141	36.04
565.337	36.14
565.533	36.29
565.728	36.08
565.924	36.23
566.12	36.26
566.315	36.38
566.511	35.88
566.707	35.88
566.902	35.93
567.098	35.89
567.293	35.15
567.489	34.81
567.684	34.44
567.88	34.83
568.076	35.21
568.271	35.34
568.467	35.59
568.662	35.56
568.858	35.79
569.053	36.4
569.248	36.51
569.444	37.15
569.639	37.13
569.835	37.79
570.03	37.74
570.225	36.84
570.421	36.55
570.616	36.61
570.812	37.16
571.007	37.38
571.202	36.99
571.397	36.75
571.593	36.77
571.788	36.62
571.983	36.71
572.178	36.53
572.374	37.44
572.569	37.55
572.764	37.59
572.959	37.16
573.154	37
573.35	37.59
573.545	37.55
573.74	37.64
573.935	38.25
574.13	37.8
574.325	37.9
574.52	37.45
574.715	37.6
574.91	37.47
575.105	37.18
575.3	37.82
575.495	37.58
575.69	37.92
575.885	37.55
576.08	37.54
576.275	37.91
576.47	37.21
576.665	37.66
576.86	37.43
577.055	37.56
577.25	38.07
577.444	37.91
577.639	37.77
577.834	38.18
578.029	38.86
578.224	38.51
578.418	38.5
578.613	39.25
578.808	39.43
579.003	40.34
579.197	40.69
579.392	40.88
579.587	40.15
579.781	40.26
579.976	39.77
580.171	39.36
580.365	39.34
580.56	39.15
580.755	39.45
580.949	38.58
581.144	38.39
581.338	38.33
581.533	38.2
581.727	38.35
581.922	38.51
582.116	39.08
582.311	39.01
582.505	38.93
582.7	38.98
582.894	38.43
583.089	38.8
583.283	38.67
583.478	38.12
583.672	38
583.866	37.9
584.061	37.29
584.255	37.27
584.449	37.29
584.644	37.42
584.838	37.89
585.032	38.58
585.226	38.7
585.421	38.49
585.615	38.87
585.809	38.67
586.003	38.91
586.198	39.88
586.392	39.32
586.586	39.68
586.78	40.08
586.974	40.09
587.168	39.73
587.363	40.11
587.557	40.09
587.751	39.99
587.945	40.45
588.139	40.33
588.333	40.26
588.527	39.81
588.721	39.23
588.915	39.46
589.109	38.96
589.303	39.12
589.497	38.54
589.691	38.35
589.885	38.57
590.079	38.71
590.273	38.36
590.466	38.64
590.66	39.06
590.854	40.23
591.048	40.54
591.242	40.5
591.436	41.41
591.629	41.29
591.823	41.66
592.017	41.63
592.211	42.06
592.404	42.64
592.598	41.84
592.792	42.24
592.986	41.49
593.179	40.31
593.373	41.03
593.567	40.03
593.76	40.69
593.954	40.2
594.147	39.73
594.341	39.69
594.535	39.86
594.728	39.78
594.922	39.88
595.115	39.94
595.309	40.34
595.502	40.24
595.696	40.9
595.889	41.17
596.083	41.43
596.276	42.12
596.47	41.88
596.663	42.29
596.856	42.82
597.05	43.75
597.243	43.78
597.437	43.94
597.63	43.96
597.823	43.14
598.017	42.74
598.21	43.49
598.403	43.83
598.596	43.93
598.79	43.41
598.983	43.88
599.176	42.65
599.369	43.52
599.563	44.28
599.756	44.25
599.949	44.7
600.142	45.27
600.335	44.94
600.528	44.27
600.722	44.57
600.915	45.35
601.108	44.37
601.301	44.51
601.494	43.5
601.687	42.97
601.88	42.94
602.073	42.6
602.266	42.07
602.459	42.18
602.652	42.31
602.845	42.25
603.038	42.41
603.231	42.4
603.424	42.39
603.617	42.5
603.809	42.26
604.002	42.75
604.195	43.01
604.388	43.65
604.581	43.1
604.774	43.38
604.966	43.01
605.159	41.95
605.352	42.3
605.545	42.64
605.737	42.61
605.93	42.9
606.123	42.09
606.316	42.22
606.508	41.68
606.701	42.2
606.894	41.83
607.086	41.71
607.279	42.36
607.471	42.32
607.664	41.87
607.857	42.58
608.049	42.39
608.242	42.57
608.434	42.59
608.627	42.56
608.819	42.9
609.012	43.33
609.204	43.48
609.397	43.62
609.589	43.86
609.782	43.64
609.974	43.53
610.166	43.28
610.359	42.96
610.551	43.35
610.743	43.04
610.936	42.14
611.128	42.02
611.32	42.53
611.513	41.99
611.705	41.86
611.897	42.54
612.09	42.64
612.282	43.51
612.474	44.77
612.666	44.64
612.858	46.5
613.051	47.59
613.243	47.21
613.435	46.07
613.627	46.48
613.819	46.93
614.011	46.86
614.203	45.88
614.395	45.03
614.588	45.11
614.78	44.69
614.972	43.23
615.164	43.49
615.356	43.29
615.548	44.56
615.74	45.64
615.932	45.78
616.124	45.94
616.315	46.85
616.507	47.83
616.699	46.89
616.891	46.59
617.083	46.46
617.275	45.6
617.467	45.58
617.659	45.51
617.85	44.02
618.042	44.14
618.234	43.53
618.426	43.25
618.618	43.25
618.809	44.1
619.001	45.19
619.193	45.28
619.384	45.7
619.576	46.06
619.768	45.44
619.959	45.43
620.151	44.75
620.343	44.47
620.534	44.25
620.726	44.86
620.917	45.22
621.109	44.58
621.301	44.69
621.492	44.6
621.684	45.24
621.875	45.97
622.067	45.99
622.258	46.25
622.45	46.82
622.641	47.43
622.832	46.8
623.024	46.07
623.215	45.27
623.407	45.19
623.598	45.05
623.789	44.29
623.981	44.04
624.172	44.75
624.363	44.69
624.555	44.76
624.746	44.56
624.937	45.02
625.129	44.55
625.32	45.1
625.511	44.84
625.702	44.93
625.893	44.97
626.085	45.86
626.276	46.22
626.467	46.12
626.658	46.27
626.849	45.97
627.04	44.96
627.231	45.03
627.422	45.64
627.614	46.56
627.805	46.73
627.996	46.78
628.187	45.6
628.378	44.79
628.569	44.87
628.76	45.01
628.951	44.68
629.142	45.91
629.332	46.58
629.523	46.69
629.714	46.65
629.905	46.06
630.096	46.16
630.287	46.46
630.478	46.34
630.669	46.93
630.859	47.16
631.05	47.85
631.241	47.08
631.432	46.64
631.623	45.37
631.813	45.39
632.004	45.97
632.195	45.34
632.385	45.11
632.576	45.25
632.767	45.06
632.957	45.47
633.148	45.69
633.339	46.04
633.529	46.1
633.72	46.56
633.91	46.16
634.101	46.3
634.292	47.18
634.482	47.26
634.673	47.07
634.863	47.39
635.054	46.16
635.244	45.8
635.435	45.72
635.625	46.46
635.815	46.48
636.006	46.35
636.196	45.89
636.387	46.22
636.577	46.77
636.767	47.09
636.958	46.43
637.148	46.65
637.338	46.1
637.529	46.48
637.719	46.15
637.909	46.69
638.099	46.4
638.29	47.03
638.48	45.97
638.67	46.25
638.86	46.35
639.05	47.41
639.241	48.16
639.431	48.4
639.621	47.93
639.811	47
640.001	46.67
640.191	47.77
640.381	47.75
640.571	48.35
640.761	48.27
640.951	48.64
641.141	47.88
641.331	47.07
641.521	46.6
641.711	45.9
641.901	46.78
642.091	47.04
642.281	46.65
642.471	46.44
642.661	46.87
642.851	46.36
643.041	46.47
643.231	46
643.42	46.48
643.61	47.9
643.8	49.09
643.99	49.51
644.18	50.54
644.369	50.57
644.559	51.17
644.749	51.62
644.939	50.59
645.128	50.83
645.318	51.26
645.508	52.2
645.697	51.96
645.887	51.9
646.076	51.09
646.266	50.37
646.456	51.76
646.645	51.91
646.835	51.45
647.024	52.95
647.214	52.17
647.403	52.17
647.593	51.41
647.782	51.05
647.972	50.67
648.161	51.12
648.351	51.26
648.54	50.48
648.73	49.91
648.919	49.35
649.108	48.64
649.298	48.68
649.487	48.64
649.677	48.54
649.866	48.7
650.055	48.56
650.244	47.35
650.434	47.08
650.623	46.53
650.812	46.51
651.002	47.38
651.191	47.54
651.38	47.93
651.569	48.55
651.758	48.38
651.947	48.99
652.137	49.02
652.326	49.57
652.515	50.69
652.704	50.27
652.893	50.2
653.082	49.11
653.271	49.34
653.46	49.76
653.649	49.21
653.838	49.48
654.027	48.51
654.216	48.71
654.405	51.08
654.594	49.83
654.783	50.5
654.972	50.73
655.161	52.49
655.35	52.2
655.539	51.89
655.728	52.38
655.916	52
656.105	52.97
656.294	52.54
656.483	50.48
656.672	50.79
656.86	50.05
657.049	49.22
657.238	47.88
657.427	46.97
657.615	46.89
657.804	46.09
657.993	46.96
658.181	46.82
658.37	47.74
658.559	48.36
658.747	48.43
658.936	48.27
659.125	50.1
659.313	49.56
659.502	50.43
659.69	50
659.879	50.71
660.067	49.57
660.256	49.89
660.444	49.19
660.633	49.73
660.821	49.63
661.01	50.44
661.198	48.99
661.387	49.9
661.575	52.03
661.763	53.53
661.952	52.44
662.14	52.94
662.328	52.83
662.517	53.02
662.705	52.54
662.893	52.78
663.082	52.82
663.27	52.68
663.458	53.14
663.646	50.99
663.834	50.29
664.023	52.19
664.211	52.36
664.399	52.1
664.587	52.34
664.775	52.56
664.963	51.44
665.152	51.51
665.34	51.54
665.528	50.49
665.716	51.43
665.904	52.15
666.092	50.61
666.28	51.04
666.468	50.75
666.656	50.8
666.844	49.88
667.032	50.82
667.22	50.62
667.408	50.43
667.596	51.15
667.784	49.57
667.971	48.18
668.159	48.88
668.347	48.97
668.535	48.72
668.723	47.54
668.911	48.15
669.098	47.92
669.286	48.95
669.474	49.08
669.662	49.84
669.849	50.68
670.037	52.39
670.225	51.41
670.413	49.67
670.6	50.81
670.788	53.09
670.976	51.81
671.163	52.14
671.351	52.01
671.538	52.89
671.726	51.57
671.913	52.07
672.101	50.58
672.289	51.77
672.476	52.91
672.664	51.52
672.851	50.54
673.039	50.8
673.226	50.95
673.413	49.3
673.601	47.48
673.788	47.91
673.976	46.62
674.163	46.76
674.35	46.47
674.538	47.55
674.725	49.48
674.912	49.64
675.1	50.78
675.287	51.12
675.474	52.26
675.662	52.19
675.849	51.9
676.036	52.14
676.223	51.99
676.411	51.92
676.598	51.31
676.785	50
676.972	49.42
677.159	48.69
677.346	48.79
677.533	48.6
677.721	49.91
677.908	49.82
678.095	50.87
678.282	50.47
678.469	50.97
678.656	50.59
678.843	51.5
679.03	52.6
679.217	52.31
679.404	51.95
679.591	51.47
679.778	51.31
679.964	52.33
680.151	51.37
680.338	52.31
680.525	52.53
680.712	52.94
680.899	52.62
681.086	51
681.272	51.98
681.459	51.53
681.646	51.2
681.833	50.94
682.02	50.44
682.206	51.95
682.393	52.49
682.58	51.04
682.766	51.63
682.953	52.45
683.14	53.54
683.326	54.66
683.513	53.89
683.7	55.3
683.886	55.91
684.073	55.53
684.259	55.84
684.446	54.37
684.632	55.7
684.819	54.56
685.005	54.18
685.192	54.26
685.378	50.81
685.565	53.23
685.751	52.42
685.938	51.17
686.124	51.99
686.31	50.82
686.497	52.09
686.683	52.44
686.87	52.94
687.056	52.54
687.242	51.63
687.429	53.33
687.615	51.99
687.801	51.39
687.987	52.71
688.174	52.1
688.36	53.02
688.546	52.49
688.732	51.17
688.918	51.31
689.105	51.24
689.291	52.15
689.477	51.14
689.663	50.82
689.849	51.59
690.035	51.38
690.221	51.69
690.407	49.4
690.593	49.96
690.779	48.78
690.965	47.37
691.151	45.84
691.337	45.51
691.523	47.27
691.709	47.38
691.895	46.68
692.081	46.88
692.267	46.85
692.453	48.72
692.639	48.19
692.825	50.89
693.011	52.37
693.196	53.56
693.382	52.4
693.568	52.27
693.754	54.31
693.94	55.44
694.125	55.02
694.311	54.85
694.497	54.21
694.682	54.06
694.868	53.23
695.054	52.65
695.239	52.48
695.425	52.52
695.611	53.76
695.796	52.29
695.982	51.57
696.168	51.73
696.353	51.31
696.539	50.23
696.724	51.18
696.91	50.96
697.095	51.2
697.281	51.82
697.466	52.61
697.652	51.22
697.837	51.34
698.023	51.5
698.208	51.68
698.393	52.02
698.579	52.69
698.764	51.86
698.949	52.77
699.135	53.52
699.32	53.53
699.505	54.36
699.691	55.69
699.876	55.75
700.061	56.22
700.246	55.75
700.432	55.52
700.617	56.35
700.802	56.2
700.987	55.33
701.172	56.31
701.358	55.29
701.543	55.2
701.728	54.23
701.913	54.34
702.098	54.39
702.283	55.17
702.468	55.17
702.653	54.34
702.838	54.37
703.023	52.93
703.208	51.51
703.393	52.61
703.578	51.86
703.763	51.28
703.948	50.46
704.133	50.65
704.318	50.28
704.503	50.89
704.688	49.31
704.873	51.57
705.057	53.83
705.242	51.91
705.427	50.11
705.612	51.68
705.797	53.6
705.981	53.62
706.166	53.15
706.351	52.8
706.536	50.82
706.72	54.26
706.905	53.03
707.09	52.54
707.274	53.37
707.459	53.05
707.644	50.39
707.828	47.68
708.013	47.15
708.197	48.69
708.382	51.44
708.567	51.13
708.751	49.2
708.936	47.82
709.12	47.63
709.305	48.76
709.489	49.63
709.673	51.47
709.858	51.86
710.042	50.84
710.227	49.95
710.411	48.92
710.596	50.66
710.78	50.25
710.964	50.52
711.149	50.96
711.333	50.52
711.517	51.98
711.702	50.09
711.886	51.37
712.07	53.67
712.254	53.84
712.438	52.91
712.623	52.47
712.807	54.29
712.991	54.63
713.175	54.61
713.359	53.33
713.544	53.6
713.728	55.33
713.912	53.57
714.096	53.88
714.28	54.01
714.464	50.84
714.648	53.32
714.832	53.24
715.016	53.04
715.2	52.14
715.384	53.92
715.568	53.11
715.752	52.36
715.936	52.15
716.12	50.63
716.304	50.23
716.488	55.37
716.671	52.48
716.855	53.86
717.039	54.54
717.223	56.61
717.407	56.08
717.59	56.06
717.774	54.26
717.958	56.62
718.142	57.15
718.325	58.33
718.509	55.39
718.693	57.39
718.877	56.23
719.06	56.17
719.244	53.6
719.428	53.84
719.611	52.29
719.795	53.26
719.978	51.55
720.162	53.38
720.345	54.09
720.529	54.79
720.713	55.05
720.896	54.17
721.08	52.68
721.263	55.45
721.446	56.54
721.63	59.07
721.813	62.08
721.997	61.31
722.18	58.4
722.364	57.42
722.547	55.09
722.73	54.72
722.914	55.33
723.097	57.21
723.28	56.24
723.464	54.51
723.647	53.46
723.83	51.87
724.013	52.53
724.197	53.27
724.38	53.42
724.563	55.75
724.746	53.33
724.929	53.04
725.112	47.65
725.296	46.38
725.479	48.21
725.662	51.4
725.845	51.41
726.028	51.9
726.211	53.27
726.394	50.98
726.577	50.84
726.76	52.32
726.943	52.8
727.126	57.35
727.309	59.34
727.492	58.08
727.675	54.91
727.858	55.94
728.041	55.74
728.224	56.38
728.407	57.08
728.589	57.74
728.772	57.27
728.955	55.5
729.138	55.68
729.321	53.81
729.503	55.7
729.686	57.79
729.869	54.18
730.052	53.93
730.234	51.25
730.417	50.8
730.6	48.41
730.782	49.12
730.965	50.22
731.148	48.86
731.33	50.36
731.513	48.45
731.695	47.55
731.878	49.51
732.061	48.96
732.243	50.71
732.426	50.45
732.608	50.22
732.791	49.52
732.973	49.51
733.156	49.57
733.338	50.25
733.52	48.6
733.703	47.76
733.885	47.85
734.068	49.45
734.25	49.76
734.432	49.84
734.615	52.77
734.797	55.32
734.979	56.5
735.162	59.41
735.344	56.5
735.526	55.07
735.708	56.28
735.891	56.42
736.073	57.06
736.255	56.57
736.437	57.87
736.619	55.64
736.802	54.61
736.984	53.74
737.166	52.89
737.348	55.06
737.53	58.62
737.712	56.84
737.894	56.41
738.076	56.63
738.258	55.7
738.44	56.16
738.622	57.41
738.804	54.96
738.986	56.28
739.168	57.12
739.35	57.41
739.532	56.2
739.714	57.8
739.896	59.59
740.078	59.89
740.259	62.56
740.441	63.75
740.623	63.06
740.805	64.39
740.987	60.92
741.168	59.85
741.35	60.72
741.532	60.9
741.714	58.7
741.895	58.39
742.077	57.53
742.259	56.51
742.44	57.09
742.622	58.87
742.804	59.88
742.985	59.21
743.167	60.41
743.348	57.71
743.53	57.43
743.711	62.64
743.893	61.25
744.075	58.67
744.256	58.2
744.438	57.87
744.619	58.17
744.8	58.79
744.982	64.14
745.163	61.05
745.345	61.39
745.526	64.38
745.707	57.82
745.889	59.12
746.07	61.86
746.252	58.77
746.433	56.71
746.614	54.02
746.795	54.79
746.977	51.24
747.158	48.46
747.339	47.16
747.52	45.19
747.702	49.53
747.883	51.98
748.064	48.35
748.245	46.59
748.426	44.1
748.607	43.82
748.788	42.27
748.97	43.11
749.151	45.69
749.332	48.79
749.513	50.9
749.694	48.94
749.875	40.02
750.056	41.75
750.237	48.39
750.418	49.02
750.599	50.12
750.78	48.36
750.96	49.06
751.141	48.52
751.322	49.1
751.503	48.4
751.684	47.26
751.865	52.21
752.046	55.96
752.226	54.89
752.407	59.04
752.588	61.18
752.769	63.92
752.949	63.51
753.13	63.99
753.311	62.99
753.492	61.97
753.672	64.04
753.853	57.31
754.034	55.99
754.214	57.54
754.395	52.19
754.575	52.63
754.756	50.15
754.937	50.17
755.117	52.02
755.298	50.85
755.478	50.08
755.659	47.81
755.839	56.84
756.02	56.6
756.2	53.27
756.381	57.29
756.561	54.75
756.741	55.41
756.922	54.37
757.102	50.43
757.283	51.77
757.463	51.24
757.643	55.91
757.823	54
758.004	51.51
758.184	54.07
758.364	49.3
758.545	51.15
758.725	49.98
758.905	49.69
759.085	52.45
759.265	53.23
759.446	54.26
759.626	54.41
759.806	55.65
759.986	55.6
760.166	55.31
760.346	57.95
760.526	58.59
760.706	59.59
760.886	63.18
761.066	62.97
761.246	63.09
761.426	64.71
761.606	61.28
761.786	59.88
761.966	59.31
762.146	58.66
762.326	58.44
762.506	57.46
762.686	58.57
762.866	57.44
763.046	57.43
763.225	55.7
763.405	53.09
763.585	53.48
763.765	52.49
763.945	55.44
764.124	56.56
764.304	56.91
764.484	56.11
764.664	56.28
764.843	57.41
765.023	59.74
765.203	60
765.382	61.2
765.562	61.83
765.741	63.01
765.921	60.6
766.101	60.1
766.28	59.57
766.46	61.43
766.639	59.46
766.819	57.98
766.998	53.24
767.178	52.25
767.357	53.52
767.537	57.22
767.716	54.82
767.896	55.21
768.075	53.69
768.254	53.98
768.434	52.12
768.613	54.83
768.792	56.15
768.972	57.4
769.151	60.29
769.33	61.13
769.51	52.61
769.689	52.06
769.868	47.37
770.047	49.09
770.226	50.07
770.406	53.43
770.585	53.37
770.764	51.19
770.943	54.77
771.122	56.99
771.301	53.15
771.48	56.29
771.66	59.1
771.839	64.62
772.018	63.99
772.197	64.77
772.376	61.24
772.555	62.5
772.734	62.53
772.913	61.85
773.092	63.43
773.271	65.87
773.449	67.65
773.628	64.01
773.807	61.9
773.986	62.22
774.165	61.88
774.344	61.1
774.523	58.74
774.701	62.28
774.88	62.42
775.059	54.57
775.238	54.56
775.417	54.17
775.595	59.68
775.774	59.33
775.953	53.26
776.131	52.81
776.31	53.16
776.489	49.25
776.667	45.13
776.846	43.66
777.025	48.59
777.203	49.57
777.382	47.93
777.56	47.61
777.739	48
777.917	53.98
778.096	51.91
778.274	52.5
778.453	59.22
778.631	59.13
778.81	57.4
778.988	56.72
779.166	57.49
779.345	62.52
779.523	62.29
779.702	66.56
779.88	68.02
780.058	71.14
780.237	74
780.415	73.87
780.593	72.43
780.771	69.1
780.95	68.02
781.128	66.14
781.306	62.83
781.484	62.14
781.662	53.99
781.841	54.4
782.019	50.06
782.197	45.24
782.375	43.05
782.553	47.29
782.731	54.26
782.909	55.23
783.087	56.59
783.265	53.44
783.443	56.03
783.621	65.05
783.799	56.97
783.977	58.51
784.155	61.3
784.333	62.96
784.511	61.79
784.689	63.48
784.867	64.47
785.045	60.75
785.223	63.52
785.4	59.01
785.578	53.31
785.756	57.66
785.934	60.1
786.112	59.2
786.289	51.4
786.467	49.99
786.645	48.94
786.823	49.04
787	47.91
787.178	50.05
787.356	51.84
787.533	55.44
787.711	52.63
787.889	51.27
788.066	50.59
788.244	54.28
788.421	51.56
788.599	49.5
788.776	48.17
788.954	52.18
789.131	49.95
789.309	48.86
789.486	40.44
789.664	40.89
789.841	42.04
790.019	43.36
790.196	40.85
790.373	43.98
790.551	43.77
790.728	48.36
790.906	47.64
791.083	55.2
791.26	49.65
791.437	53.2
791.615	54.9
791.792	53.63
791.969	55.8
792.146	58.7
792.324	59.26
792.501	66.33
792.678	63.62
792.855	62.2
793.032	59.48
793.209	67.34
793.387	69.19
793.564	68.12
793.741	70.96
793.918	64.8
794.095	64.62
794.272	70.35
794.449	60.84
794.626	56.84
794.803	61.73
794.98	59.56
795.157	62.01
795.334	65.01
795.511	59.39
795.688	61.32
795.864	62.52
796.041	65.09
796.218	58.52
796.395	59.93
796.572	63.3
796.749	55.87
796.925	53.34
797.102	47.5
797.279	51.21
797.456	58.86
797.632	55.62
797.809	47.7
797.986	46.27
798.162	48.26
798.339	47.81
798.516	47.14
798.692	51.46
798.869	52.63
799.046	56.43
799.222	51.81
799.399	44.72
799.575	44.07
799.752	53.94
799.928	55.68
800.105	53.32
800.281	58.13
800.458	62.01
800.634	59.93
800.811	61.3
800.987	59.02
801.163	60.72
801.34	70.25
801.516	68.89
801.692	72.03
801.869	68.61
802.045	64.56
802.221	58.73
802.398	56.52
802.574	55.53
802.75	52.3
802.926	48.87
803.103	44.59
803.279	41.06
803.455	39.45
803.631	39.55
803.807	38.68
803.983	40.11
804.16	34.87
804.336	32.23
804.512	37.69
804.688	35.53
804.864	37.69
805.04	39.94
805.216	40.25
805.392	39.52
805.568	32.54
805.744	29.46
805.92	33.24
806.096	37.85
806.272	38.07
806.448	25.02
806.623	23.12
806.799	25.55
806.975	17.26
807.151	5.83
807.327	20.79
807.503	21.06
807.678	45.33
807.854	35.59
808.03	34.83
808.206	40.36
808.381	36.28
808.557	43.15
808.733	48.09
808.908	53.47
809.084	53.88
809.26	57.1
809.435	56.09
809.611	46.56
809.787	49.79
809.962	54.76
810.138	54.54
810.313	63.98
810.489	64.98
810.664	57.46
810.84	56.32
811.015	55.29
811.191	49.16
811.366	54.04
811.542	55.6
811.717	52.93
811.892	46.1
812.068	43.51
812.243	46.6
812.419	41.91
812.594	43.37
812.769	44.33
812.944	37.96
813.12	35.71
813.295	35.64
813.47	33.61
813.645	35.36
813.821	47.28
813.996	49.55
814.171	43.76
814.346	50.93
814.521	45.18
814.697	42.71
814.872	47.23
815.047	44.94
815.222	41.05
815.397	38.29
815.572	40.56
815.747	34.12
815.922	33.17
816.097	40.07
816.272	33.13
816.447	35.04
816.622	36.25
816.797	37.67
816.972	36.46
817.147	39.73
817.322	42.34
817.496	40.5
817.671	39.03
817.846	34.44
818.021	32.38
818.196	31.68
818.371	33.05
818.545	30.21
818.72	32.69
818.895	30.83
819.069	30.8
819.244	34.6
819.419	36.25
819.594	37.02
819.768	40.07
819.943	41.84
820.117	45.24
820.292	43.72
820.467	44.49
820.641	43.76
820.816	45.27
820.99	43.81
821.165	44.35
821.339	43.35
821.514	43.47
821.688	44.64
821.863	44.17
822.037	43.69
822.212	44.25
822.386	44.99
822.56	46.01
822.735	46.46
822.909	46.59
823.084	47.13
823.258	47.79
823.432	48.11
823.606	47.73
823.781	48.17
823.955	48.85
824.129	49.33
824.303	48.85
824.478	48.86
824.652	48.77
824.826	49.91
825	48.55
825.174	51.02
825.348	50.05
825.523	50.12
825.697	48.87
825.871	47.78
826.045	48
826.219	48.39
826.393	47.98
826.567	49.28
826.741	49.73
826.915	49.62
827.089	48.62
827.263	51.61
827.437	50.87
827.611	50.78
827.784	51.95
827.958	51.34
828.132	49.94
828.306	49.82
828.48	46.5
828.654	49.31
828.827	49.72
829.001	48.46
829.175	44.9
829.349	44.75
829.522	44.98
829.696	43.22
829.87	41.57
830.044	44.07
830.217	40.57
830.391	44.48
830.565	36.09
830.738	33.59
830.912	39.03
831.085	46.24
831.259	53.6
831.432	56
831.606	58.4
831.779	58.78
831.953	61.5
832.126	63.81
832.3	64.24
832.473	64.04
832.647	62.09
832.82	57.93
832.994	55.35
833.167	54.02
833.34	52.55
833.514	52.5
833.687	56.28
833.86	54.43
834.034	52.37
834.207	51.96
834.38	50.61
834.553	51.4
834.727	53.93
834.9	53.04
835.073	55.24
835.246	59.6
835.419	55.14
835.593	52.09
835.766	50.63
835.939	56.13
836.112	53.64
836.285	55.67
836.458	55.65
836.631	52.2
836.804	53.62
836.977	38.6
837.15	32.67
837.323	39.8
837.496	39.39
837.669	40.62
837.842	33.73
838.015	29.55
838.188	37.37
838.361	32.77
838.533	32.01
838.706	38.02
838.879	45.48
839.052	53.43
839.225	46.05
839.398	44.07
839.57	49.43
839.743	47.43
839.916	61.31
840.088	49
840.261	46.61
840.434	52.25
840.607	46.97
840.779	46.18
840.952	31.4
841.124	37.03
841.297	43.35
841.47	32.54
841.642	42.54
841.815	35.44
841.987	26.37
842.16	21.09
842.332	15.78
842.505	17.49
842.677	21.34
842.85	28.74
843.022	16.97
843.194	14.89
843.367	20.43
843.539	14
843.712	18.85
843.884	26.25
844.056	37.38
844.229	38.28
844.401	30.82
844.573	32.41
844.745	33.66
844.918	46.05
845.09	40.4
845.262	49.68
845.434	58.33
845.606	51.71
845.779	69.21
845.951	66.84
846.123	60.96
846.295	70.98
846.467	65.6
846.639	36.79
846.811	52.18
846.983	38.25
847.155	-28.54
847.327	-68.27
847.499	-46.09
847.671	-22.19
847.843	-36.21
848.015	-106.85
848.187	-59.23
848.359	-98.18
848.531	-53.4
848.703	-42.59
848.875	-31.24
849.047	-8.75
849.218	-7.26
849.39	-20.1
849.562	-8.68
849.734	-1.56
849.905	22.04
850.077	26.46
850.249	32.26
850.421	55.79
850.592	42.56
850.764	59.22
850.936	48.72
851.107	45.78
851.279	58.14
851.451	53.21
851.622	53.94
851.794	52.74
851.965	52.44
852.137	49.3
852.308	47.16
852.48	48.48
852.651	45.03
852.823	45.72
852.994	32.91
853.166	23.59
853.337	20.36
853.509	16.59
853.68	17.16
853.851	34.23
854.023	31.81
854.194	16.07
854.365	16.23
854.537	1.88
854.708	17.57
854.879	54.34
855.05	37.05
855.222	32.63
855.393	29.57
855.564	-10.78
855.735	-58.95
855.906	-40.82
856.078	-29.06
856.249	-20.32
856.42	-25.8
856.591	-42.25
856.762	-41.93
856.933	-33.55
857.104	-21.23
857.275	-8.7
857.446	14.28
857.617	16.83
857.788	20.11
857.959	20.68
858.13	8.3
858.301	20.18
858.472	30.96
858.643	46.35
858.814	44.28
858.985	26.89
859.155	10.87
859.326	3.87
859.497	22.54
859.668	2.92
859.839	13.69
860.009	38.97
860.18	36.49
860.351	41.28
860.522	38.76
860.692	31.46
860.863	68.99
861.034	88.63
861.204	116.14
861.375	92.35
861.546	115.51
861.716	85.56
861.887	64.82
862.057	40.34
862.228	38.27
862.398	33.08
862.569	47.33
862.739	-30.14
862.91	-93.32
863.08	-18.33
863.251	-35.57
863.421	-9.03
863.592	-14.72
863.762	1.01
863.932	38.56
864.103	17.5
864.273	3.94
864.443	19.46
864.614	16.79
864.784	49.27
864.954	46.24
865.125	52.3
865.295	40.61
865.465	56.23
865.635	31.66
865.805	10.41
865.976	7.02
866.146	35.41
866.316	17.6
866.486	136.87
866.656	-23.75
866.826	104.27
866.996	116.84
867.166	56.57
867.336	78.22
867.506	59.6
867.676	171.48
867.846	47.22
868.016	5.81
868.186	-10.26
868.356	33.17
868.526	47.97
868.696	48.08
868.866	65.07
869.036	51.23
869.206	37.8
869.376	28.84
869.545	33.44
869.715	45.46
869.885	43.71
870.055	56.7
870.224	45.09
870.394	40.32
870.564	73.5
870.734	76.37
870.903	81.43
871.073	113.37
871.243	97.87
871.412	112.54
871.582	94.26
871.751	97.82
871.921	78.06
872.091	85.36
872.26	99.1
872.43	53.15
872.599	28.46
872.769	-8.75
872.938	1.75
873.108	37.2
873.277	44.17
873.446	39.84
873.616	11.78
873.785	-10.56
873.955	-7.62
874.124	-15.36
874.293	-0.25
874.463	-2.08
874.632	14.7
874.801	0.78
874.971	-9.79
875.14	-43.31
875.309	-2.99
875.478	17.53
875.647	15.05
875.817	14.18
875.986	-13.97
876.155	-15.36
876.324	3.74
876.493	32.9
876.662	31.85
876.831	20.97
877	-18.49
877.17	-551.55
877.339	-575.63
877.508	-519.77
877.677	3842.21
877.846	-169.01
878.015	-119.1
878.184	-84.51
878.352	-108.06
878.521	-74.49
878.69	-69.86
878.859	3.9
879.028	36.88
879.197	35.47
879.366	45.79
879.534	63.5
879.703	67.92
879.872	67.98
880.041	66.79
880.21	67.72
880.378	60.26
880.547	58.54
880.716	54.1
880.884	51.23
881.053	54.31
881.222	56.17
881.39	50.89
881.559	50.11
881.727	47.89
881.896	49.74
882.065	49.86
882.233	51.38
882.402	51.4
882.57	49.95
882.739	51.31
882.907	48.18
883.076	49.37
883.244	49.33
883.412	47.87
883.581	48.76
883.749	51.95
883.918	52.56
884.086	50.25
884.254	44.96
884.423	43.02
884.591	39.09
884.759	40.31
884.927	30.96
885.096	27.94
885.264	16.87
885.432	11.43
885.6	7.67
885.769	2.99
885.937	-14.38
886.105	11.8
886.273	18.44
886.441	15.61
886.609	15.32
886.777	14.73
886.945	11.54
887.113	26.91
887.281	31.99
887.449	22.54
887.617	20.49
887.785	22.31
887.953	20.68
888.121	20.87
888.289	22.41
888.457	11.6
888.625	17.62
888.793	14.86
888.961	24.3
889.129	54.66
889.296	43.89
889.464	51.27
889.632	77.12
889.8	44.93
889.967	31.52
890.135	44.4
