Data from JASIL_3272_Reflection_2.txt Node
Date: Tue Nov 17 18:57:29 EST 2015
User: Geneva
Spectrometer: USB4E03002
Autoset integration time: false
Trigger mode: 4
Integration Time (sec): 1.000000E-1
Scans to average: 10
Electric dark correction enabled: false
Nonlinearity correction enabled: false
Boxcar width: 5
Stray light correction enabled: false
XAxis mode: Wavelengths
Stop averaging: false
Number of Pixels in Spectrum: 3648
>>>>>Begin Spectral Data<<<<<
177.575	208.48
177.794	236.67
178.014	292.28
178.233	211.93
178.452	244.92
178.672	286.74
178.891	328.96
179.11	377.08
179.33	456.1
179.549	441.03
179.768	342.17
179.987	362
180.207	423.32
180.426	377.17
180.645	629.33
180.864	698.2
181.084	983.08
181.303	-94250
181.522	-2188
181.741	-1681.55
181.96	-610.84
182.179	-603.48
182.398	-819.43
182.618	-1711.21
182.837	-5694.12
183.056	-2530.43
183.275	1831.63
183.494	829.39
183.713	821.83
183.932	564.58
184.151	548.47
184.37	434.23
184.589	422.46
184.808	564.76
185.027	650
185.246	1172.2
185.465	1250.75
185.684	1802.72
185.903	3850
186.122	1878.72
186.341	-5246.94
186.56	-975.81
186.779	-1130.43
186.998	-1028.7
187.216	-1313.79
187.435	-687.22
187.654	-566.93
187.873	-572.92
188.092	-465.95
188.311	-850.66
188.53	-2659.72
188.748	-3022.22
188.967	1026.56
189.186	-2443.84
189.405	7265.38
189.623	-180500
189.842	1142.86
190.061	562.79
190.28	715.23
190.498	820.09
190.717	5866.67
190.936	178400
191.154	2179.07
191.373	2042.11
191.592	919.4
191.81	904.29
192.029	886.89
192.248	-1402.03
192.466	-1139.11
192.685	-859.47
192.904	-876.74
193.122	-1566.67
193.341	-1201.18
193.559	-851.36
193.778	-800.41
193.996	-1888.07
194.215	-3133.85
194.433	-1760.19
194.652	922.77
194.87	1106.25
195.089	799.24
195.307	2446.91
195.526	-69200
195.744	198300
195.963	-2340.7
196.181	-973.47
196.399	-516.28
196.618	-429.25
196.836	-878.37
197.055	-772.92
197.273	-2664
197.491	-1161.58
197.71	-1672.73
197.928	4497.96
198.146	-3101.43
198.365	-1842.48
198.583	9216.67
198.801	14612.5
199.019	-4582.35
199.238	-2252.38
199.456	8033.33
199.674	-1595.89
199.892	3314.86
200.111	-2317.92
200.329	-1207.8
200.547	-6471.05
200.765	1350
200.983	-30387.5
201.202	-6866.67
201.42	111300
201.638	-2185.58
201.856	-575.14
202.074	-453.95
202.292	-313.13
202.51	-537.99
202.728	-539.53
202.946	-549.67
203.165	-489.16
203.383	-807.31
203.601	-736.63
203.819	-550.99
204.037	-536.71
204.255	-6695.83
204.473	1441.32
204.691	926.89
204.909	987.32
205.127	891.18
205.345	1767.86
205.562	-3178.69
205.78	-11737.5
205.998	1577.97
206.216	1601.55
206.434	1741.46
206.652	9304.35
206.87	4250
207.088	-3468.97
207.306	8991.3
207.523	-11652.94
207.741	11882.35
207.959	1776.67
208.177	1869.83
208.395	1729.32
208.612	-4359.18
208.83	3648.39
209.048	1513.82
209.266	1933.33
209.483	1175.12
209.701	961.45
209.919	1233.8
210.136	733.14
210.354	1077.78
210.572	1139.02
210.79	-45740
211.007	1182.32
211.225	2280.65
211.442	1489.71
211.66	995.65
211.878	1710.28
212.095	4571.05
212.313	3281.48
212.53	-1101.34
212.748	5287.88
212.966	-1318.11
213.183	-3897.5
213.401	-1406.36
213.618	34740
213.836	-1315.67
214.053	-789
214.271	-664.29
214.488	-648.79
214.705	-1076.87
214.923	-1496.4
215.14	-2041.77
215.358	-3062.26
215.575	17060
215.793	-2161.54
216.01	-962.42
216.227	-653.59
216.445	-517.65
216.662	-1838.2
216.879	-1168.06
217.097	-769.16
217.314	-736.02
217.531	-822.17
217.749	3542.59
217.966	4661.54
218.183	473.97
218.4	581.03
218.618	395.09
218.835	435.38
219.052	430.4
219.269	328.97
219.487	335.25
219.704	318.64
219.921	276.88
220.138	422.74
220.355	440.85
220.572	695.35
220.79	474.58
221.007	518.77
221.224	334.57
221.441	359.79
221.658	429.25
221.875	466.42
222.092	478.01
222.309	525.07
222.526	323.41
222.743	308.03
222.96	329.09
223.177	344.19
223.394	279.26
223.611	367.92
223.828	391.7
224.045	320.82
224.262	290.69
224.479	237.72
224.696	229.37
224.913	268.92
225.13	304.79
225.347	343.52
225.564	272.81
225.781	293.89
225.997	243.73
226.214	167.66
226.431	157.01
226.648	157.16
226.865	147.5
227.082	126.14
227.298	108.32
227.515	92.39
227.732	83.19
227.949	81.51
228.165	79.88
228.382	79.51
228.599	83.4
228.816	86.12
229.032	83.13
229.249	86.16
229.466	94.59
229.682	100.07
229.899	111.01
230.116	123.78
230.332	130.72
230.549	146.05
230.765	170.26
230.982	158.86
231.199	151.27
231.415	168.22
231.632	178.21
231.848	163.11
232.065	172.31
232.281	159.94
232.498	151.21
232.714	144.14
232.931	147.83
233.147	137.26
233.364	136.73
233.58	140.48
233.797	137.62
234.013	136.68
234.23	138.15
234.446	132.15
234.662	129.99
234.879	125.76
235.095	134.41
235.312	117.95
235.528	118.8
235.744	134.93
235.961	140.97
236.177	130.31
236.393	144.72
236.61	137.06
236.826	137.75
237.042	146.97
237.258	152.47
237.475	128.16
237.691	143.82
237.907	131.94
238.123	132.34
238.339	119.65
238.556	108.31
238.772	98.63
238.988	95.63
239.204	99.73
239.42	92.13
239.636	81.29
239.853	78.35
240.069	70.26
240.285	64.96
240.501	53.91
240.717	52.17
240.933	51.11
241.149	49.88
241.365	49.76
241.581	42.47
241.797	44.09
242.013	46.06
242.229	46.55
242.445	49.77
242.661	51.88
242.877	55.08
243.093	58.1
243.309	59.56
243.525	60.56
243.741	61.5
243.957	63.5
244.173	57.16
244.388	53.16
244.604	49.52
244.82	42.97
245.036	36.72
245.252	35.26
245.468	31.39
245.683	29.62
245.899	29.3
246.115	28.44
246.331	28.43
246.547	30.55
246.762	30.99
246.978	29.91
247.194	31.35
247.409	33.03
247.625	32.84
247.841	35.96
248.057	37.19
248.272	39.12
248.488	44.66
248.703	43.48
248.919	45.27
249.135	49.55
249.35	51.42
249.566	52.74
249.782	53.91
249.997	51.88
250.213	48.62
250.428	48.24
250.644	46.57
250.859	43.54
251.075	42.99
251.29	41.08
251.506	40.85
251.721	45.7
251.937	44.58
252.152	45.86
252.368	50.22
252.583	55.24
252.798	57.67
253.014	61.02
253.229	62.88
253.445	70.34
253.66	76.43
253.875	77.8
254.091	69.31
254.306	72.77
254.521	78.1
254.737	77.78
254.952	71.95
255.167	67.85
255.383	63.96
255.598	63.4
255.813	61.57
256.028	56.59
256.244	57.42
256.459	56.18
256.674	49.33
256.889	44.56
257.104	42.35
257.32	39.18
257.535	35.45
257.75	33.95
257.965	29.93
258.18	27.42
258.395	24.06
258.61	21.49
258.826	21.6
259.041	21.67
259.256	21.13
259.471	20.35
259.686	21
259.901	21.52
260.116	21.1
260.331	21.75
260.546	21.99
260.761	24.71
260.976	26.35
261.191	25.96
261.406	27.65
261.621	32.13
261.836	31.71
262.05	32.47
262.265	35.4
262.48	38.49
262.695	41.72
262.91	43.02
263.125	43.09
263.34	41.89
263.555	44.25
263.769	43.35
263.984	36.75
264.199	39.65
264.414	40.38
264.629	40.74
264.843	38.2
265.058	35.47
265.273	34.76
265.488	36.49
265.702	36.91
265.917	32.38
266.132	33.79
266.346	35.68
266.561	35.01
266.776	34.4
266.99	33.02
267.205	33.1
267.42	35.05
267.634	35.92
267.849	36.21
268.063	38.28
268.278	42.57
268.492	38.75
268.707	37.46
268.922	36.25
269.136	33.69
269.351	33.63
269.565	32.94
269.78	33.05
269.994	30.37
270.209	27.92
270.423	26.01
270.637	24.49
270.852	26.51
271.066	27.47
271.281	28.72
271.495	29.06
271.709	29.46
271.924	29.26
272.138	27.23
272.353	28.99
272.567	29.79
272.781	30.24
272.996	32.36
273.21	33.29
273.424	32.47
273.638	32.51
273.853	34.18
274.067	33.28
274.281	34.08
274.495	37.46
274.71	37.21
274.924	37.05
275.138	38.63
275.352	35.58
275.566	35.18
275.781	35.77
275.995	34.45
276.209	33.6
276.423	32.45
276.637	29.23
276.851	26
277.065	24.47
277.279	22.91
277.493	20.72
277.707	23.05
277.921	19.38
278.135	17.83
278.349	18.88
278.563	20.04
278.777	19.46
278.991	24.14
279.205	23.76
279.419	24.15
279.633	28.13
279.847	27.04
280.061	27.33
280.275	29.13
280.489	28.65
280.703	27.24
280.917	26.73
281.131	27.63
281.344	25.53
281.558	27.08
281.772	27.46
281.986	23.79
282.2	24.81
282.414	24.47
282.627	22.94
282.841	25.89
283.055	26.67
283.269	25.88
283.482	26.05
283.696	27.75
283.91	27.13
284.123	26.48
284.337	28.16
284.551	26.8
284.764	25.39
284.978	26.66
285.192	25.03
285.405	25.12
285.619	24.82
285.833	24.95
286.046	24.04
286.26	23.48
286.473	24.04
286.687	24.38
286.9	27.17
287.114	28.38
287.327	27.66
287.541	28.31
287.754	28.28
287.968	28.54
288.181	27.3
288.395	26.1
288.608	26.02
288.822	25.51
289.035	22.51
289.248	21.23
289.462	20.92
289.675	22.17
289.889	21.53
290.102	22.05
290.315	22.47
290.529	22.81
290.742	24.05
290.955	23.71
291.169	23.91
291.382	25.7
291.595	24.32
291.808	24.56
292.022	24.07
292.235	24.35
292.448	22.27
292.661	19.92
292.875	21.04
293.088	20.09
293.301	20.83
293.514	21.44
293.727	20.83
293.94	21.1
294.153	21.15
294.367	19.97
294.58	19.32
294.793	19.34
295.006	21.06
295.219	20.67
295.432	19.93
295.645	18.33
295.858	17.2
296.071	17.31
296.284	17.99
296.497	17.27
296.71	17.12
296.923	17.25
297.136	17.83
297.349	17.6
297.562	17.86
297.775	19.2
297.988	20.64
298.201	21.53
298.414	21.33
298.626	21.41
298.839	21.78
299.052	21.98
299.265	23.13
299.478	21.68
299.691	21.23
299.903	20.04
300.116	19.72
300.329	20.86
300.542	21.14
300.755	20.97
300.967	21.74
301.18	21.67
301.393	21.5
301.605	21.61
301.818	22.24
302.031	23.39
302.243	24.41
302.456	23.18
302.669	22.2
302.881	22.31
303.094	23.23
303.307	22.62
303.519	23.41
303.732	24.1
303.944	22.89
304.157	22.9
304.37	21.26
304.582	20.7
304.795	20.31
305.007	21.35
305.22	21.5
305.432	21.35
305.645	20.39
305.857	19.62
306.069	20.02
306.282	20.01
306.494	19.19
306.707	18.92
306.919	17.79
307.132	18.45
307.344	17.39
307.556	16.93
307.769	16.62
307.981	16.37
308.193	17.59
308.406	16.66
308.618	17.31
308.83	18.63
309.043	19
309.255	20.11
309.467	20.08
309.679	18.87
309.892	18.97
310.104	18.68
310.316	19.02
310.528	17.85
310.74	17.34
310.953	17.36
311.165	17.18
311.377	18.98
311.589	18.97
311.801	19.42
312.013	19.8
312.225	19.04
312.437	19.73
312.649	20.05
312.862	19.73
313.074	21.01
313.286	21.01
313.498	20.43
313.71	17.66
313.922	18.08
314.134	18.66
314.346	20.26
314.558	20.47
314.77	20.62
314.982	22.44
315.193	22.69
315.405	23.16
315.617	22.92
315.829	24.43
316.041	25.12
316.253	24.24
316.465	25.12
316.677	25.47
316.888	26.98
317.1	28.64
317.312	27.44
317.524	27.66
317.736	28.41
317.947	28.92
318.159	29.64
318.371	30.37
318.583	30.68
318.794	28.99
319.006	29.59
319.218	29.65
319.43	28.76
319.641	30.45
319.853	32.84
320.064	31.68
320.276	31.87
320.488	29.99
320.699	30.33
320.911	30.18
321.123	31.4
321.334	30.63
321.546	30.5
321.757	29.8
321.969	26.82
322.18	26.56
322.392	26.94
322.603	26.19
322.815	26.44
323.026	26.88
323.238	27.43
323.449	26.53
323.661	24.16
323.872	23.31
324.083	22.31
324.295	24.4
324.506	22.95
324.718	22.88
324.929	22.85
325.14	22.96
325.352	22.64
325.563	22.22
325.774	22.59
325.986	23.17
326.197	25.32
326.408	25.93
326.62	23.65
326.831	24.08
327.042	23.5
327.253	25.72
327.464	26.45
327.676	26.84
327.887	26.13
328.098	27.1
328.309	27.1
328.52	24.92
328.732	26.03
328.943	27.02
329.154	26.66
329.365	26.98
329.576	23.99
329.787	22.76
329.998	22.04
330.209	22.35
330.42	20.31
330.631	21.49
330.842	23.05
331.053	22.98
331.264	23.59
331.475	24.36
331.686	25.53
331.897	26.31
332.108	26.98
332.319	26.95
332.53	27.75
332.741	29.52
332.952	29.88
333.163	29.35
333.374	27.96
333.585	27.13
333.795	26.52
334.006	25.37
334.217	25.81
334.428	24.91
334.639	25.66
334.849	25.58
335.06	24.56
335.271	24.39
335.482	24.16
335.692	24.62
335.903	25.02
336.114	25.46
336.325	25.8
336.535	25.58
336.746	26.33
336.957	25.55
337.167	26.6
337.378	26.71
337.589	26.4
337.799	24.79
338.01	26.5
338.22	25.1
338.431	25.81
338.642	25.06
338.852	24.58
339.063	23.93
339.273	23.07
339.484	20.96
339.694	20.24
339.905	20.46
340.115	21.62
340.326	18.78
340.536	20.31
340.746	19.02
340.957	19.65
341.167	21.28
341.378	22.01
341.588	23.29
341.799	24.6
342.009	26.48
342.219	27.42
342.43	28.35
342.64	29.58
342.85	29.84
343.061	29.36
343.271	29.03
343.481	27.57
343.691	27.9
343.902	26.15
344.112	25.64
344.322	23.87
344.532	22.9
344.743	22.55
344.953	23.04
345.163	22.59
345.373	23.09
345.583	22.78
345.793	22.52
346.004	21.87
346.214	23.97
346.424	23.57
346.634	24.51
346.844	24.18
347.054	23.48
347.264	22.75
347.474	22.55
347.684	22.31
347.894	21.94
348.104	22.88
348.314	21.93
348.524	19.71
348.734	19.52
348.944	20
349.154	20.93
349.364	21.88
349.574	22.22
349.784	22.43
349.994	22.73
350.204	23.53
350.413	23.6
350.623	24.2
350.833	24.97
351.043	25.2
351.253	24.5
351.463	23.29
351.672	21.84
351.882	21.34
352.092	20.07
352.302	20.19
352.511	20.22
352.721	18.94
352.931	19.47
353.141	18.39
353.35	18.09
353.56	17.91
353.77	17.77
353.979	18.33
354.189	18.28
354.399	18.83
354.608	18.28
354.818	17.81
355.027	19.95
355.237	18.75
355.447	19.89
355.656	19.97
355.866	19.94
356.075	19.68
356.285	19.9
356.494	20.48
356.704	19.93
356.913	20.47
357.123	20.66
357.332	18.81
357.542	19.81
357.751	20.4
357.96	20.86
358.17	20.54
358.379	21.44
358.589	21.82
358.798	21.03
359.007	21.19
359.217	20.48
359.426	20.56
359.635	20.45
359.845	19.13
360.054	18.52
360.263	17.96
360.472	18.51
360.682	18.14
360.891	17.18
361.1	17.16
361.309	17.62
361.519	17.28
361.728	16.35
361.937	17.04
362.146	17.03
362.355	17.54
362.564	17.18
362.774	16.63
362.983	17.06
363.192	17.24
363.401	17.56
363.61	16.93
363.819	17.48
364.028	17.28
364.237	16.71
364.446	17.23
364.655	16.15
364.864	16.99
365.073	16.52
365.282	16.1
365.491	15.96
365.7	15.55
365.909	15.26
366.118	15.65
366.327	17.2
366.536	17.69
366.745	17.59
366.954	19.17
367.162	19.46
367.371	20.46
367.58	20.82
367.789	21.71
367.998	22.22
368.207	22.62
368.415	22.16
368.624	22.36
368.833	21.71
369.042	22.61
369.25	21.38
369.459	21.65
369.668	20.96
369.877	20.53
370.085	20.56
370.294	20.06
370.503	20.06
370.711	19.33
370.92	18.08
371.129	18.78
371.337	18.41
371.546	18.35
371.754	17.99
371.963	18.08
372.171	18.92
372.38	18.91
372.589	19.25
372.797	19.25
373.006	19.85
373.214	20.79
373.423	20.53
373.631	20.88
373.84	21.02
374.048	21.32
374.256	21.25
374.465	20.34
374.673	19.42
374.882	18.79
375.09	19.35
375.298	18.91
375.507	18.71
375.715	18.65
375.923	17.82
376.132	17.13
376.34	15.91
376.548	15.66
376.757	15.89
376.965	15.73
377.173	16.04
377.381	15.86
377.59	15.74
377.798	15.38
378.006	15.54
378.214	16.52
378.423	16.46
378.631	16.13
378.839	16.69
379.047	16.73
379.255	17.2
379.463	16.97
379.671	16.63
379.879	17.85
380.088	18.34
380.296	17.94
380.504	17.68
380.712	18.48
380.92	19.16
381.128	18.6
381.336	18.8
381.544	19.08
381.752	20.02
381.96	19.97
382.168	19.33
382.376	19.16
382.584	19.58
382.791	18.6
382.999	18.23
383.207	18.55
383.415	18.16
383.623	17.3
383.831	17.51
384.039	17.39
384.247	17.09
384.454	16.66
384.662	16.5
384.87	15.6
385.078	16.39
385.285	16.77
385.493	16.7
385.701	16.89
385.909	16.52
386.116	16.26
386.324	14.61
386.532	14.93
386.739	14.98
386.947	15.57
387.155	16.04
387.362	15.77
387.57	15.73
387.778	15.17
387.985	16.21
388.193	17.2
388.4	16.69
388.608	17.98
388.816	17.68
389.023	17.74
389.231	17
389.438	16.54
389.646	16.83
389.853	16.33
390.061	16.95
390.268	16.31
390.475	16.3
390.683	16.7
390.89	16.33
391.098	16.28
391.305	16.72
391.512	17.39
391.72	17.6
391.927	17.13
392.135	17.59
392.342	17.2
392.549	17.62
392.756	17.45
392.964	16.85
393.171	17.68
393.378	18.28
393.586	17.75
393.793	17.36
394	16.41
394.207	16.83
394.414	16.47
394.622	16.84
394.829	16.14
395.036	16.47
395.243	17.23
395.45	17.15
395.657	16.64
395.864	16.52
396.072	16.16
396.279	17.4
396.486	17.26
396.693	17.18
396.9	16.85
397.107	17.46
397.314	17.01
397.521	16.31
397.728	15.77
397.935	15.95
398.142	16.98
398.349	17.23
398.556	17.17
398.763	16.82
398.97	16.99
399.177	17.41
399.383	16.89
399.59	17.4
399.797	17.65
400.004	17.87
400.211	17.71
400.418	17.28
400.625	17.42
400.831	17.41
401.038	17.24
401.245	16.79
401.452	16.89
401.658	17.63
401.865	17.41
402.072	17.72
402.279	17.74
402.485	17.47
402.692	16.66
402.899	16.77
403.105	16.94
403.312	17.63
403.519	18.49
403.725	17.83
403.932	17.16
404.138	16.98
404.345	17.26
404.552	17.18
404.758	17.59
404.965	17.51
405.171	16.92
405.378	16.87
405.584	16.43
405.791	15.72
405.997	16.02
406.204	16.55
406.41	16.39
406.617	16.08
406.823	15.8
407.029	16.13
407.236	16.51
407.442	17
407.649	16.92
407.855	16.63
408.061	17.5
408.268	17.73
408.474	17.35
408.68	18.4
408.887	18.35
409.093	17.95
409.299	17.5
409.505	17.69
409.712	17.24
409.918	17.55
410.124	18.15
410.33	17.19
410.537	16.94
410.743	16.66
410.949	16.86
411.155	16.55
411.361	16.78
411.567	17.14
411.773	17.11
411.98	17.45
412.186	16.74
412.392	16.33
412.598	17.31
412.804	17.69
413.01	17.94
413.216	16.6
413.422	17.18
413.628	17.31
413.834	17.2
414.04	17.69
414.246	17.46
414.452	17.21
414.658	17.37
414.864	16.91
415.07	16.71
415.275	16.61
415.481	16.46
415.687	15.97
415.893	15.88
416.099	15.83
416.305	15.63
416.511	15.85
416.716	15.94
416.922	16.46
417.128	16.69
417.334	16.82
417.539	16.7
417.745	16.52
417.951	16.34
418.157	16.15
418.362	16.1
418.568	15.63
418.774	15.45
418.979	15.45
419.185	14.84
419.391	14.48
419.596	14.05
419.802	13.78
420.008	13.9
420.213	11.59
420.419	11.89
420.624	11.73
420.83	11.85
421.035	12.02
421.241	11.85
421.446	12.03
421.652	11.99
421.857	12.3
422.063	12.52
422.268	12.46
422.474	14.8
422.679	14.56
422.885	14.41
423.09	14.43
423.295	14.24
423.501	14.52
423.706	14.46
423.911	14.31
424.117	14.23
424.322	14.16
424.527	14.45
424.733	14.61
424.938	14.95
425.143	15.2
425.349	15.51
425.554	15.57
425.759	15.67
425.964	15.62
426.169	15.98
426.375	16.19
426.58	16.64
426.785	16.73
426.99	16.49
427.195	16.41
427.4	16.49
427.605	16.13
427.811	16.21
428.016	16.03
428.221	16.08
428.426	15.6
428.631	15.51
428.836	15.89
429.041	16
429.246	15.91
429.451	15.65
429.656	15.71
429.861	15.97
430.066	16.23
430.271	16.23
430.476	16.56
430.681	16.96
430.886	16.91
431.09	16.54
431.295	16.36
431.5	16.99
431.705	17.16
431.91	17.27
432.115	16.87
432.32	16.46
432.524	16.66
432.729	16.82
432.934	16.71
433.139	16.78
433.343	16.59
433.548	16.48
433.753	16.02
433.958	15.88
434.162	15.69
434.367	15.89
434.572	16.13
434.776	16.2
434.981	15.67
435.186	16.37
435.39	16.39
435.595	16.32
435.799	16.81
436.004	16.82
436.209	16.59
436.413	16.43
436.618	16.4
436.822	16.27
437.027	16.35
437.231	16.82
437.436	15.97
437.64	15.92
437.845	16.24
438.049	16.06
438.253	16.05
438.458	16.22
438.662	16.51
438.867	16.62
439.071	16.47
439.275	16.06
439.48	15.81
439.684	15.85
439.888	15.66
440.093	15.46
440.297	15.2
440.501	15.3
440.706	15.39
440.91	15.42
441.114	15.33
441.318	15.35
441.523	15.41
441.727	15.26
441.931	15.41
442.135	15.55
442.339	15.55
442.543	15.71
442.748	15.43
442.952	15.75
443.156	15.41
443.36	15.56
443.564	15.64
443.768	15.54
443.972	15.47
444.176	15.13
444.38	15.19
444.584	15.21
444.788	15.01
444.992	15.08
445.196	14.75
445.4	14.56
445.604	14.47
445.808	14.57
446.012	14.51
446.216	14.42
446.42	14.65
446.624	14.46
446.828	14.54
447.032	14.37
447.235	14.44
447.439	14.3
447.643	14.55
447.847	14.62
448.051	14.41
448.254	14.51
448.458	14.66
448.662	14.76
448.866	14.91
449.069	14.9
449.273	15.17
449.477	15.1
449.681	14.95
449.884	14.62
450.088	14.65
450.292	15.14
450.495	15.17
450.699	15.16
450.902	14.98
451.106	14.99
451.31	14.78
451.513	15.19
451.717	15.47
451.92	15.91
452.124	15.86
452.327	15.65
452.531	15.68
452.734	15.79
452.938	15.8
453.141	16.07
453.345	16.14
453.548	16.39
453.752	16.24
453.955	15.98
454.158	15.87
454.362	16.06
454.565	16.22
454.769	16.11
454.972	15.81
455.175	15.9
455.379	15.52
455.582	15.32
455.785	15.3
455.988	14.89
456.192	15.06
456.395	15.23
456.598	15.49
456.801	15.29
457.005	15.3
457.208	15.47
457.411	15.22
457.614	15.19
457.817	15.03
458.021	14.72
458.224	15.15
458.427	14.83
458.63	14.46
458.833	14.15
459.036	14.12
459.239	14.03
459.442	13.96
459.645	14.13
459.848	14.35
460.051	14.24
460.254	14.51
460.457	14.41
460.66	14.71
460.863	14.89
461.066	14.97
461.269	15.38
461.472	15.36
461.675	15.33
461.878	15.38
462.081	15
462.284	15.25
462.486	15.25
462.689	15.11
462.892	15.24
463.095	15.62
463.298	15.67
463.5	15.09
463.703	15.31
463.906	15.84
464.109	16.02
464.311	16.59
464.514	16.46
464.717	16.86
464.92	16.44
465.122	16.16
465.325	15.94
465.528	16.35
465.73	16.63
465.933	16.74
466.135	16.38
466.338	16.13
466.541	15.83
466.743	15.94
466.946	15.27
467.148	15.72
467.351	15.97
467.553	16.28
467.756	16.07
467.958	15.95
468.161	15.54
468.363	15.71
468.566	15.85
468.768	15.85
468.971	15.84
469.173	15.96
469.375	15.64
469.578	15.38
469.78	14.84
469.983	15.03
470.185	15.37
470.387	15.54
470.59	15.44
470.792	15.49
470.994	15.88
471.196	15.78
471.399	15.96
471.601	16.01
471.803	15.96
472.005	16.35
472.208	16.33
472.41	15.63
472.612	15.67
472.814	16.06
473.016	16.01
473.218	15.82
473.421	16.01
473.623	15.72
473.825	15.95
474.027	15.75
474.229	15.72
474.431	15.32
474.633	16.12
474.835	15.92
475.037	15.55
475.239	15.44
475.441	15.05
475.643	15.06
475.845	15.41
476.047	15.59
476.249	15.98
476.451	15.86
476.653	15.96
476.855	15.54
477.057	15.67
477.258	15.73
477.46	15.65
477.662	16.03
477.864	15.82
478.066	15.29
478.268	14.98
478.469	14.77
478.671	14.55
478.873	14.53
479.075	14.34
479.276	14.06
479.478	14.1
479.68	13.78
479.882	13.57
480.083	13.72
480.285	13.84
480.487	13.66
480.688	13.52
480.89	13.56
481.091	13.5
481.293	13.3
481.495	13.31
481.696	13.06
481.898	13.01
482.099	12.89
482.301	12.75
482.502	12.62
482.704	12.51
482.905	12.47
483.107	12.34
483.308	12.25
483.51	12.36
483.711	12.27
483.913	12.21
484.114	12.24
484.315	12.19
484.517	12.18
484.718	12.28
484.92	12.37
485.121	12.33
485.322	12.43
485.524	12.51
485.725	12.61
485.926	12.59
486.127	12.51
486.329	12.56
486.53	12.54
486.731	12.54
486.932	12.3
487.134	12.41
487.335	12.42
487.536	12.4
487.737	12.44
487.938	12.31
488.139	12.36
488.341	12.51
488.542	12.59
488.743	12.88
488.944	13
489.145	13.44
489.346	13.37
489.547	13.53
489.748	13.63
489.949	13.42
490.15	13.34
490.351	13.22
490.552	13.16
490.753	13.09
490.954	12.84
491.155	12.88
491.356	12.7
491.557	12.83
491.758	12.88
491.959	12.92
492.159	13
492.36	13.33
492.561	13.65
492.762	14.01
492.963	14.19
493.164	14.47
493.364	14.71
493.565	14.97
493.766	14.86
493.967	15.02
494.167	15.18
494.368	15.54
494.569	15.48
494.769	15.42
494.97	15.24
495.171	15.21
495.371	15.17
495.572	15.02
495.773	15.07
495.973	15.01
496.174	14.87
496.375	14.64
496.575	14.71
496.776	14.42
496.976	14.43
497.177	14.56
497.377	14.73
497.578	14.63
497.778	14.67
497.979	14.76
498.179	14.8
498.38	14.97
498.58	15.2
498.78	15.21
498.981	15.44
499.181	15.4
499.382	15.44
499.582	15.4
499.782	15.76
499.983	15.89
500.183	15.96
500.383	16.28
500.584	16.42
500.784	16.41
500.984	16.54
501.184	16.53
501.385	16.72
501.585	16.93
501.785	16.74
501.985	16.69
502.185	16.08
502.386	16.01
502.586	16.12
502.786	16.23
502.986	16.38
503.186	16.32
503.386	16.26
503.586	16.39
503.786	16.07
503.987	16.41
504.187	16.57
504.387	17.03
504.587	17.25
504.787	16.96
504.987	16.67
505.187	16.59
505.387	16.71
505.587	17.01
505.786	17.14
505.986	17.17
506.186	16.86
506.386	16.83
506.586	16.69
506.786	16.69
506.986	16.83
507.186	16.83
507.386	16.83
507.585	16.64
507.785	16.36
507.985	16.33
508.185	16.11
508.384	16.35
508.584	16.26
508.784	16.42
508.984	16.26
509.183	16.33
509.383	16.59
509.583	16.39
509.782	16.61
509.982	16.78
510.182	16.63
510.381	16.94
510.581	16.89
510.781	16.66
510.98	16.64
511.18	16.78
511.379	16.46
511.579	16.29
511.778	16.38
511.978	16.22
512.177	16.04
512.377	16.11
512.576	15.95
512.776	15.68
512.975	15.95
513.175	15.95
513.374	16.23
513.573	16.62
513.773	16.67
513.972	17.02
514.172	17.12
514.371	17.65
514.57	17.52
514.77	17.75
514.969	18.07
515.168	18.12
515.367	18.23
515.567	17.97
515.766	17.99
515.965	18.06
516.164	17.9
516.364	17.94
516.563	17.56
516.762	17.73
516.961	17.72
517.16	17.59
517.359	17.56
517.559	17.52
517.758	17.53
517.957	17.68
518.156	17.74
518.355	17.76
518.554	18.16
518.753	18.43
518.952	18.29
519.151	18.43
519.35	18.91
519.549	18.93
519.748	19.12
519.947	18.96
520.146	19.16
520.345	19.13
520.544	19.22
520.743	18.58
520.942	18.44
521.141	18.66
521.339	18.72
521.538	18.56
521.737	18.62
521.936	18.45
522.135	18.77
522.333	18.34
522.532	18.62
522.731	18.46
522.93	18.67
523.129	18.87
523.327	18.95
523.526	18.85
523.725	18.8
523.923	18.98
524.122	19.06
524.321	18.98
524.519	19.23
524.718	19.13
524.917	19.16
525.115	18.99
525.314	19
525.512	18.77
525.711	18.79
525.909	18.8
526.108	18.58
526.306	18.46
526.505	18.29
526.703	18.01
526.902	17.75
527.1	17.74
527.299	17.74
527.497	17.54
527.696	17.58
527.894	17.47
528.092	17.4
528.291	17.49
528.489	17.56
528.688	17.6
528.886	17.65
529.084	17.92
529.283	17.98
529.481	18.1
529.679	18.21
529.877	18.41
530.076	18.6
530.274	18.79
530.472	18.86
530.67	18.96
530.869	19.23
531.067	19.43
531.265	19.36
531.463	19.45
531.661	19.47
531.859	19.68
532.057	19.58
532.255	19.58
532.454	19.46
532.652	19.55
532.85	19.66
533.048	19.6
533.246	19.59
533.444	19.69
533.642	19.7
533.84	19.96
534.038	20.04
534.236	20.15
534.434	20.31
534.632	20.5
534.83	20.68
535.027	20.52
535.225	20.67
535.423	20.7
535.621	20.72
535.819	20.97
536.017	20.91
536.215	20.86
536.412	20.99
536.61	21.19
536.808	21.36
537.006	21.44
537.203	21.79
537.401	21.65
537.599	22.04
537.797	22.43
537.994	22.18
538.192	22.22
538.39	22.71
538.587	22.66
538.785	22.58
538.983	22.62
539.18	22.47
539.378	22.14
539.575	22.2
539.773	21.93
539.97	21.85
540.168	21.9
540.366	21.87
540.563	21.81
540.761	21.92
540.958	21.9
541.155	21.88
541.353	21.86
541.55	22.26
541.748	22.37
541.945	22.68
542.143	22.57
542.34	22.69
542.537	22.91
542.735	22.87
542.932	23
543.129	23.2
543.327	23.39
543.524	23.58
543.721	23.45
543.919	23.52
544.116	23.57
544.313	23.88
544.51	24.01
544.708	24.04
544.905	23.98
545.102	24.05
545.299	24.34
545.496	24.27
545.693	24.38
545.891	24.56
546.088	24.77
546.285	24.6
546.482	24.68
546.679	24.88
546.876	24.95
547.073	25.6
547.27	25.56
547.467	25.36
547.664	25.62
547.861	25.56
548.058	25.57
548.255	25.7
548.452	26.43
548.649	26.88
548.846	27.14
549.043	27.53
549.24	27.41
549.437	27.75
549.633	28.13
549.83	28.37
550.027	28.7
550.224	29.06
550.421	29.09
550.618	28.9
550.814	28.56
551.011	28.48
551.208	28.48
551.405	28.42
551.601	28.61
551.798	28.56
551.995	28.61
552.191	28.78
552.388	28.58
552.585	28.69
552.781	28.61
552.978	28.75
553.175	29.08
553.371	29.06
553.568	29.36
553.764	29.61
553.961	29.8
554.157	29.9
554.354	29.53
554.55	29.93
554.747	30.13
554.943	30.6
555.14	30.99
555.336	30.95
555.533	31.13
555.729	31.2
555.926	31.22
556.122	31.59
556.318	31.67
556.515	32.3
556.711	32.3
556.907	32.41
557.104	32.34
557.3	32.26
557.496	32.42
557.693	32.13
557.889	32.38
558.085	32.19
558.281	32.3
558.478	32.66
558.674	32.46
558.87	32.43
559.066	32.42
559.262	32.66
559.459	32.73
559.655	32.88
559.851	33.29
560.047	32.95
560.243	33.27
560.439	32.89
560.635	32.38
560.831	32.65
561.027	32.78
561.223	32.94
561.419	32.68
561.615	32.83
561.811	32.96
562.007	33.09
562.203	33.19
562.399	33.24
562.595	33.66
562.791	34.05
562.987	34.33
563.183	34.66
563.379	34.64
563.575	34.66
563.771	34.64
563.966	34.7
564.162	34.74
564.358	35.05
564.554	34.95
564.75	34.74
564.945	34.46
565.141	34.39
565.337	34.24
565.533	34.5
565.728	34.33
565.924	34.34
566.12	34.11
566.315	34.21
566.511	34.12
566.707	34.39
566.902	34.24
567.098	34.69
567.293	34.87
567.489	34.91
567.684	34.63
567.88	35.03
568.076	35.04
568.271	34.99
568.467	35.05
568.662	35.14
568.858	35.06
569.053	35.52
569.248	35.38
569.444	35.3
569.639	35.47
569.835	35.71
570.03	35.78
570.225	35.88
570.421	35.57
570.616	35.55
570.812	35.56
571.007	35.54
571.202	35.26
571.397	35.54
571.593	35.43
571.788	35.4
571.983	35.45
572.178	35.67
572.374	35.44
572.569	36.08
572.764	36.06
572.959	36.03
573.154	35.91
573.35	36.47
573.545	36.48
573.74	36.7
573.935	36.43
574.13	36.5
574.325	36.37
574.52	36.67
574.715	36.52
574.91	36.52
575.105	36.77
575.3	37.02
575.495	37.03
575.69	36.91
575.885	37.05
576.08	37.3
576.275	37.69
576.47	37.74
576.665	38
576.86	38.52
577.055	38.74
577.25	38.71
577.444	38.73
577.639	38.74
577.834	39.1
578.029	38.89
578.224	39.16
578.418	38.76
578.613	38.65
578.808	39.04
579.003	38.56
579.197	38.36
579.392	38.42
579.587	38.41
579.781	38.35
579.976	38.08
580.171	38.56
580.365	38.78
580.56	39.36
580.755	40.18
580.949	39.9
581.144	40.4
581.338	40.62
581.533	41.06
581.727	41.66
581.922	42.28
582.116	42.8
582.311	42.46
582.505	42.17
582.7	41.62
582.894	41.24
583.089	41.03
583.283	40.84
583.478	41.18
583.672	41.23
583.866	40.65
584.061	40.07
584.255	40.23
584.449	40.37
584.644	40.49
584.838	40.54
585.032	40.78
585.226	41.15
585.421	41.24
585.615	41.22
585.809	41.21
586.003	41.51
586.198	41.78
586.392	41.7
586.586	41.45
586.78	41.55
586.974	42.08
587.168	41.82
587.363	41.86
587.557	42.59
587.751	42.66
587.945	42.57
588.139	43.02
588.333	42.97
588.527	42.92
588.721	43.45
588.915	43.97
589.109	43.76
589.303	43.84
589.497	43.7
589.691	43.53
589.885	43.68
590.079	43.46
590.273	43.02
590.466	42.91
590.66	42.81
590.854	42.59
591.048	41.93
591.242	42.28
591.436	42.04
591.629	41.7
591.823	41.16
592.017	41.21
592.211	41.1
592.404	41.4
592.598	41.61
592.792	41.18
592.986	41.27
593.179	41.32
593.373	40.87
593.567	41.35
593.76	41.51
593.954	42.59
594.147	42.57
594.341	42.55
594.535	42.57
594.728	42.17
594.922	42.54
595.115	42.19
595.309	42.12
595.502	42.28
595.696	42.51
595.889	42.69
596.083	42.11
596.276	42.13
596.47	42.29
596.663	42.54
596.856	43.07
597.05	43.23
597.243	43.87
597.437	44.6
597.63	44.97
597.823	44.5
598.017	45.14
598.21	45.45
598.403	45.63
598.596	46.17
598.79	45.84
598.983	45.49
599.176	45.74
599.369	45.44
599.563	45.66
599.756	45.6
599.949	46.01
600.142	45.47
600.335	45.14
600.528	44.98
600.722	44.82
600.915	44.95
601.108	45.31
601.301	45.18
601.494	45.39
601.687	45.34
601.88	45.31
602.073	44.91
602.266	44.93
602.459	44.97
602.652	44.76
602.845	44.64
603.038	44.21
603.231	44.31
603.424	43.96
603.617	43.34
603.809	42.87
604.002	42.88
604.195	42.94
604.388	42.98
604.581	42.98
604.774	43.28
604.966	43.74
605.159	44.2
605.352	43.99
605.545	44.17
605.737	44.97
605.93	45.69
606.123	46.12
606.316	46.76
606.508	47.14
606.701	47.34
606.894	47.3
607.086	46.97
607.279	46.88
607.471	46.78
607.664	47.12
607.857	47.28
608.049	47.26
608.242	46.56
608.434	46.22
608.627	45.63
608.819	45.4
609.012	45.17
609.204	45.23
609.397	45.64
609.589	45.82
609.782	45.94
609.974	45.78
610.166	45.57
610.359	46.15
610.551	46.44
610.743	47.46
610.936	47.7
611.128	48.12
611.32	48.02
611.513	47.6
611.705	47.55
611.897	47.47
612.09	47.75
612.282	47.91
612.474	47.41
612.666	47.53
612.858	47.12
613.051	47.57
613.243	47.92
613.435	48.31
613.627	48.7
613.819	49.48
614.011	51.23
614.203	51.63
614.395	51.73
614.588	52.48
614.78	52.12
614.972	52.5
615.164	52.81
615.356	52.3
615.548	51.78
615.74	51.89
615.932	51.16
616.124	49.79
616.315	50.26
616.507	50.51
616.699	50.92
616.891	51.46
617.083	51.27
617.275	50.84
617.467	51.68
617.659	52.78
617.85	53.25
618.042	53.77
618.234	53.83
618.426	53.28
618.618	53.54
618.809	52.98
619.001	52.95
619.193	53.29
619.384	53.42
619.576	53.24
619.768	52.58
619.959	52.53
620.151	52.63
620.343	52.83
620.534	52.77
620.726	52.28
620.917	52.25
621.109	52.02
621.301	51.93
621.492	52.61
621.684	52.54
621.875	53.27
622.067	53.51
622.258	53.24
622.45	53.16
622.641	53.65
622.832	53.47
623.024	53.21
623.215	53.42
623.407	52.87
623.598	52.26
623.789	52.41
623.981	52.03
624.172	51.19
624.363	51.89
624.555	51.35
624.746	50.7
624.937	50.79
625.129	51.25
625.32	51.77
625.511	51.91
625.702	51.83
625.893	51.32
626.085	51.15
626.276	51.17
626.467	50.84
626.658	50.91
626.849	51.2
627.04	51.49
627.231	51.78
627.422	51.56
627.614	51.9
627.805	52.23
627.996	52.91
628.187	52.96
628.378	53.6
628.569	53.16
628.76	53.46
628.951	53.76
629.142	53.23
629.332	53.2
629.523	53.08
629.714	53.06
629.905	52.68
630.096	52.73
630.287	53.27
630.478	53.16
630.669	53.74
630.859	53.85
631.05	53.72
631.241	53.91
631.432	53.99
631.623	53.82
631.813	53.78
632.004	53.41
632.195	53.1
632.385	52.62
632.576	52.58
632.767	52.94
632.957	53.11
633.148	53.66
633.339	54.27
633.529	54.16
633.72	53.71
633.91	53.59
634.101	53.81
634.292	54.31
634.482	54.88
634.673	55.04
634.863	54.63
635.054	54.47
635.244	53.74
635.435	53.95
635.625	53.81
635.815	54.43
636.006	55.04
636.196	56.09
636.387	56.3
636.577	56.59
636.767	56.55
636.958	55.85
637.148	57.32
637.338	57.53
637.529	57.53
637.719	58.44
637.909	58.27
638.099	57.76
638.29	56.74
638.48	56.91
638.67	56.35
638.86	56.72
639.05	58.51
639.241	57.39
639.431	57.63
639.621	57.72
639.811	57.62
640.001	57.76
640.191	58.13
640.381	59.24
640.571	58.96
640.761	59.13
640.951	58.99
641.141	58.87
641.331	59.16
641.521	60.19
641.711	60.27
641.901	59.07
642.091	59.73
642.281	59.87
642.471	59.99
642.661	60.3
642.851	61.01
643.041	60.71
643.231	60.2
643.42	60.23
643.61	59.19
643.8	59.17
643.99	60.28
644.18	59.66
644.369	59.52
644.559	59.62
644.749	59.36
644.939	59.18
645.128	60.07
645.318	60.85
645.508	61.4
645.697	61.28
645.887	61.45
646.076	61.51
646.266	62.51
646.456	63.32
646.645	63.33
646.835	63.85
647.024	63.94
647.214	63.41
647.403	61.99
647.593	61.34
647.782	62.31
647.972	62.52
648.161	62.84
648.351	62.1
648.54	62.05
648.73	61.73
648.919	61.22
649.108	60.87
649.298	61.46
649.487	62.41
649.677	62.38
649.866	61.67
650.055	61.83
650.244	61.57
650.434	61.97
650.623	60.77
650.812	60.78
651.002	60.1
651.191	60.24
651.38	59.61
651.569	59.24
651.758	60.07
651.947	60.71
652.137	60.58
652.326	60.03
652.515	60.36
652.704	61.28
652.893	60.98
653.082	62.08
653.271	62.13
653.46	63.01
653.649	63.99
653.838	63.6
654.027	64.03
654.216	63.27
654.405	63.76
654.594	63.11
654.783	62.65
654.972	64.3
655.161	63.36
655.35	63.72
655.539	62.66
655.728	62.08
655.916	62.12
656.105	61.25
656.294	61.58
656.483	60.99
656.672	61.19
656.86	61.13
657.049	59.44
657.238	59.43
657.427	58.9
657.615	59.18
657.804	58.98
657.993	58.19
658.181	57.75
658.37	58.04
658.559	58.33
658.747	58.31
658.936	58.88
659.125	59.82
659.313	59.68
659.502	60.03
659.69	60.64
659.879	60.8
660.067	61.71
660.256	61.91
660.444	62.21
660.633	63.01
660.821	64.22
661.01	63.53
661.198	63.95
661.387	65.67
661.575	65.44
661.763	64.75
661.952	65.96
662.14	65.47
662.328	66.21
662.517	65.97
662.705	65.77
662.893	65.15
663.082	65.79
663.27	65.48
663.458	64.49
663.646	64.39
663.834	65.24
664.023	63.99
664.211	64.27
664.399	64.19
664.587	64.26
664.775	64.49
664.963	63.81
665.152	64.3
665.34	64.86
665.528	64.98
665.716	65.79
665.904	65.82
666.092	66.29
666.28	66.92
666.468	65.83
666.656	66.6
666.844	66.28
667.032	67.48
667.22	67.41
667.408	66.3
667.596	66.64
667.784	66.29
667.971	65.81
668.159	64.93
668.347	64.89
668.535	65.69
668.723	65.43
668.911	65.13
669.098	64.78
669.286	64.55
669.474	65.17
669.662	65.5
669.849	65.74
670.037	66.33
670.225	67.36
670.413	67.77
670.6	68.32
670.788	67.29
670.976	67.43
671.163	65.95
671.351	66.23
671.538	67.35
671.726	67.59
671.913	67.47
672.101	66.74
672.289	67.11
672.476	66.56
672.664	66.38
672.851	67.37
673.039	68.38
673.226	69.88
673.413	70.34
673.601	68.93
673.788	69.2
673.976	69.5
674.163	71.31
674.35	70.99
674.538	72.09
674.725	72.1
674.912	71.5
675.1	71.63
675.287	72.51
675.474	72.23
675.662	72.37
675.849	71.28
676.036	72.75
676.223	71.36
676.411	71.27
676.598	71
676.785	70.95
676.972	70.27
677.159	70.01
677.346	69.02
677.533	68.68
677.721	68.68
677.908	68.28
678.095	67.38
678.282	67.33
678.469	66.33
678.656	65.28
678.843	64.99
679.03	65.48
679.217	65.89
679.404	65.2
679.591	65.04
679.778	64.35
679.964	64.39
680.151	63.85
680.338	64.12
680.525	64.92
680.712	65.66
680.899	66.35
681.086	67.23
681.272	66.91
681.459	68.33
681.646	69
681.833	70.26
682.02	71.53
682.206	71.19
682.393	72.1
682.58	72.43
682.766	72.79
682.953	72.55
683.14	72.5
683.326	71.82
683.513	71.31
683.7	71.43
683.886	71.61
684.073	70.29
684.259	71.5
684.446	70.88
684.632	72.3
684.819	70.28
685.005	70.61
685.192	70.34
685.378	71.29
685.565	71.03
685.751	70.6
685.938	70.61
686.124	72.5
686.31	72.86
686.497	73.36
686.683	72.33
686.87	74.01
687.056	73.59
687.242	73.38
687.429	73.61
687.615	74.02
687.801	74.75
687.987	74.61
688.174	74.5
688.36	73.62
688.546	73.33
688.732	74.27
688.918	73.79
689.105	75.16
689.291	75.98
689.477	75.45
689.663	76.68
689.849	75.92
690.035	76.89
690.221	76.05
690.407	78.06
690.593	76.65
690.779	75.11
690.965	75.35
691.151	75.06
691.337	74.79
691.523	74.84
691.709	73.99
691.895	73.97
692.081	73.6
692.267	75.05
692.453	73.58
692.639	76.53
692.825	77.65
693.011	78.74
693.196	78.71
693.382	79.3
693.568	78.75
693.754	79.4
693.94	81.12
694.125	80.44
694.311	79.38
694.497	80.38
694.682	78.63
694.868	78.75
695.054	77.09
695.239	77.33
695.425	76.71
695.611	77.39
695.796	76.92
695.982	74.56
696.168	73.99
696.353	72.69
696.539	70.47
696.724	69.92
696.91	68.99
697.095	69.18
697.281	67.75
697.466	66.78
697.652	66.48
697.837	66.03
698.023	66.72
698.208	67.2
698.393	67.42
698.579	68.31
698.764	68.48
698.949	69.26
699.135	70.03
699.32	70.64
699.505	72.45
699.691	73.6
699.876	74.12
700.061	74.94
700.246	75.52
700.432	77.22
700.617	78.02
700.802	79.98
700.987	80.27
701.172	81.93
701.358	83.84
701.543	83.72
701.728	82.75
701.913	83.13
702.098	83.29
702.283	82.77
702.468	83
702.653	82.65
702.838	82.06
703.023	82.07
703.208	80.81
703.393	81.11
703.578	82.02
703.763	82.72
703.948	83.54
704.133	83.99
704.318	84.56
704.503	83.41
704.688	84.41
704.873	85.2
705.057	85.2
705.242	84.75
705.427	82.74
705.612	82.08
705.797	83.13
705.981	83.46
706.166	83.95
706.351	85.3
706.536	87.27
706.72	87.94
706.905	87.01
707.09	88.16
707.274	89.45
707.459	90.48
707.644	90.87
707.828	89.72
708.013	89.23
708.197	88.15
708.382	88.05
708.567	86.71
708.751	85.15
708.936	83.88
709.12	81.95
709.305	80.77
709.489	79.66
709.673	78.73
709.858	78.62
710.042	78.4
710.227	79.47
710.411	78.83
710.596	79.22
710.78	80.43
710.964	82.45
711.149	83.59
711.333	84.29
711.517	85.43
711.702	86.29
711.886	87.14
712.07	87.86
712.254	86.73
712.438	86.35
712.623	83.63
712.807	83.76
712.991	82.34
713.175	82.51
713.359	82.23
713.544	81.47
713.728	80.92
713.912	80.36
714.096	80.07
714.28	81.02
714.464	81.16
714.648	84.04
714.832	83.24
715.016	83.76
715.2	84.56
715.384	85.95
715.568	85.61
715.752	86.67
715.936	87.89
716.12	87.31
716.304	87.69
716.488	87.37
716.671	84.79
716.855	85.91
717.039	86.52
717.223	86.41
717.407	86.68
717.59	88.69
717.774	88.37
717.958	87.63
718.142	89.26
718.325	89.78
718.509	91.57
718.693	96.73
718.877	95.66
719.06	95.09
719.244	93.46
719.428	93.43
719.611	94.26
719.795	94.99
719.978	96.02
720.162	95.21
720.345	95.51
720.529	94.8
720.713	94.16
720.896	95.04
721.08	95.81
721.263	96.98
721.446	94.17
721.63	94.6
721.813	93.41
721.997	93.69
722.18	92.97
722.364	91.39
722.547	90.88
722.73	92.03
722.914	93.14
723.097	94.2
723.28	94.59
723.464	97.7
723.647	96.78
723.83	97.53
724.013	95.88
724.197	96.84
724.38	97.39
724.563	97.03
724.746	94.31
724.929	94.09
725.112	91.52
725.296	90.94
725.479	90.32
725.662	90.1
725.845	90.11
726.028	91.46
726.211	91.9
726.394	91.31
726.577	90.58
726.76	89.32
726.943	88.55
727.126	89.53
727.309	88.43
727.492	87.61
727.675	87.35
727.858	87.45
728.041	87.91
728.224	86.03
728.407	86.02
728.589	84.63
728.772	85.97
728.955	85.59
729.138	86.06
729.321	86.29
729.503	86.65
729.686	87.49
729.869	87.13
730.052	85.27
730.234	86.55
730.417	86.06
730.6	87.69
730.782	86.88
730.965	86.2
731.148	87.06
731.33	87.79
731.513	85.99
731.695	86.07
731.878	87.19
732.061	88.48
732.243	89.73
732.426	90.69
732.608	89.83
732.791	90.77
732.973	93.18
733.156	93.17
733.338	93.59
733.52	95.9
733.703	94.7
733.885	94.7
734.068	95.16
734.25	95.15
734.432	95.87
734.615	100.1
734.797	102.43
734.979	102.35
735.162	101.69
735.344	104.52
735.526	104.17
735.708	105
735.891	104.97
736.073	103.98
736.255	105.72
736.437	106.03
736.619	104.16
736.802	102.06
736.984	100.64
737.166	101.25
737.348	98.04
737.53	99.82
737.712	99.45
737.894	98.21
738.076	98.84
738.258	97.34
738.44	96.83
738.622	94.86
738.804	96.36
738.986	96.39
739.168	96.45
739.35	96.9
739.532	96.48
739.714	97.78
739.896	99.12
740.078	99.07
740.259	98.52
740.441	99.24
740.623	100.09
740.805	99.22
740.987	99.84
741.168	100.08
741.35	102.5
741.532	101.62
741.714	100.59
741.895	99.72
742.077	99.34
742.259	98.63
742.44	99.29
742.622	102.65
742.804	102.89
742.985	102.17
743.167	101.79
743.348	99.34
743.53	103.04
743.711	105.78
743.893	106.21
744.075	106.55
744.256	106.8
744.438	107.37
744.619	103.62
744.8	101.11
744.982	104.76
745.163	107.14
745.345	109.34
745.526	106.4
745.707	104.77
745.889	105.19
746.07	107.59
746.252	109.63
746.433	111.22
746.614	116.76
746.795	117.99
746.977	115.76
747.158	113.33
747.339	111.94
747.52	110.23
747.702	111.79
747.883	112.45
748.064	111.42
748.245	110.85
748.426	109.24
748.607	107.42
748.788	111.76
748.97	113.31
749.151	114.78
749.332	115.82
749.513	117.09
749.694	115.01
749.875	113.43
750.056	113.77
750.237	114.58
750.418	113.6
750.599	112.61
750.78	111.58
750.96	109.22
751.141	107.2
751.322	107.46
751.503	107.56
751.684	107.66
751.865	109.76
752.046	107.6
752.226	108.86
752.407	109.7
752.588	108.93
752.769	109.15
752.949	109.99
753.13	112.11
753.311	111.41
753.492	114.03
753.672	114.81
753.853	113.5
754.034	113.73
754.214	113.98
754.395	112.11
754.575	114.01
754.756	112.36
754.937	113.6
755.117	111.18
755.298	111.35
755.478	110.31
755.659	109.62
755.839	111.14
756.02	112.42
756.2	112.96
756.381	115.27
756.561	114.86
756.741	111.66
756.922	112.93
757.102	113.47
757.283	114.71
757.463	113.39
757.643	112.42
757.823	110.65
758.004	109.56
758.184	106.09
758.364	106.29
758.545	106.88
758.725	112.02
758.905	107.55
759.085	110.12
759.265	106.45
759.446	105.57
759.626	106.37
759.806	107.99
759.986	109.26
760.166	108.09
760.346	107.61
760.526	107.8
760.706	102.88
760.886	101.05
761.066	96.48
761.246	95.51
761.426	92.84
761.606	88.59
761.786	85.71
761.966	82.44
762.146	83.01
762.326	80.27
762.506	78.06
762.686	79.35
762.866	79.38
763.046	80.27
763.225	81.24
763.405	83.59
763.585	85.77
763.765	86.1
763.945	87.56
764.124	87.46
764.304	89.52
764.484	92.18
764.664	95.75
764.843	98.34
765.023	98.3
765.203	99.16
765.382	100.32
765.562	101.41
765.741	103.26
765.921	107.92
766.101	109.33
766.28	107.73
766.46	105.69
766.639	100.99
766.819	102.21
766.998	103.06
767.178	104.63
767.357	103
767.537	103.38
767.716	106.52
767.896	105.22
768.075	106.17
768.254	109.96
768.434	113.84
768.613	118.91
768.792	118.16
768.972	116.7
769.151	117.53
769.33	118.73
769.51	122.44
769.689	121.45
769.868	123.77
770.047	125.34
770.226	123.48
770.406	123.78
770.585	125.12
770.764	126.22
770.943	128.85
771.122	128.5
771.301	130.56
771.48	129.44
771.66	130.19
771.839	128.01
772.018	125.02
772.197	133.31
772.376	133
772.555	127.99
772.734	128.46
772.913	130.85
773.092	125.98
773.271	126.45
773.449	125.62
773.628	126.28
773.807	122.45
773.986	126.27
774.165	121.37
774.344	120.39
774.523	120.2
774.701	123.36
774.88	121.51
775.059	127.73
775.238	123.72
775.417	125.35
775.595	121.41
775.774	125.61
775.953	123.39
776.131	124.12
776.31	127.87
776.489	127.87
776.667	129.29
776.846	130.01
777.025	128.86
777.203	135.33
777.382	135.29
777.56	139.21
777.739	140.35
777.917	141.46
778.096	143.11
778.274	143.04
778.453	146.21
778.631	145.35
778.81	149.96
778.988	146.78
779.166	143.51
779.345	143.19
779.523	142.07
779.702	147.95
779.88	146.58
780.058	145.99
780.237	140.98
780.415	143.55
780.593	142.37
780.771	138.71
780.95	140.31
781.128	143.12
781.306	143.95
781.484	144.44
781.662	138.7
781.841	141.35
782.019	140.96
782.197	147.03
782.375	146.58
782.553	143.5
782.731	146.49
782.909	151.25
783.087	148.47
783.265	151.81
783.443	152.33
783.621	151.24
783.799	153.85
783.977	148.13
784.155	144.66
784.333	143.71
784.511	141.31
784.689	144.16
784.867	144.72
785.045	149.97
785.223	148.11
785.4	143.74
785.578	145.13
785.756	138.99
785.934	140.07
786.112	142.55
786.289	140.55
786.467	139.22
786.645	134.35
786.823	131.13
787	126.91
787.178	123.88
787.356	124.86
787.533	122.85
787.711	122.57
787.889	121.6
788.066	120.49
788.244	118.32
788.421	120.2
788.599	123.7
788.776	124.74
788.954	126.74
789.131	128.73
789.309	132.24
789.486	132.3
789.664	136.09
789.841	141.81
790.019	144.36
790.196	145.06
790.373	147.65
790.551	142.82
790.728	142.72
790.906	142.01
791.083	144.79
791.26	145.28
791.437	147.12
791.615	148.56
791.792	146.63
791.969	144.6
792.146	142.59
792.324	141.95
792.501	153.03
792.678	151.59
792.855	154.98
793.032	151.64
793.209	150.09
793.387	150.12
793.564	145.74
793.741	146.74
793.918	148.12
794.095	154.76
794.272	153.42
794.449	146.92
794.626	148.42
794.803	139.01
794.98	135.24
795.157	137.95
795.334	139.86
795.511	140.5
795.688	140.97
795.864	133.41
796.041	131.32
796.218	133.22
796.395	126.36
796.572	121.44
796.749	127.82
796.925	131.16
797.102	127.18
797.279	129.65
797.456	128.51
797.632	123.65
797.809	129.05
797.986	127.96
798.162	126.29
798.339	130.89
798.516	132.87
798.692	129.16
798.869	133.4
799.046	133.3
799.222	127.95
799.399	132.25
799.575	140.68
799.752	142.01
799.928	141.59
800.105	145.71
800.281	144.28
800.458	151.66
800.634	156.18
800.811	151.6
800.987	153.69
801.163	154.66
801.34	148.56
801.516	145.2
801.692	143.14
801.869	140.58
802.045	137.53
802.221	138.84
802.398	136.67
802.574	137.82
802.75	138.88
802.926	142.04
803.103	143.35
803.279	145.25
803.455	142.23
803.631	149.37
803.807	161.34
803.983	156.88
804.16	156.08
804.336	159.12
804.512	155.84
804.688	152.49
804.864	150.5
805.04	155.84
805.216	157.55
805.392	153.46
805.568	146.87
805.744	145.26
805.92	156.31
806.096	154.17
806.272	149.43
806.448	151.2
806.623	152.35
806.799	148.08
806.975	145.39
807.151	143.48
807.327	148.55
807.503	149.19
807.678	148.07
807.854	157.03
808.03	161.37
808.206	161.53
808.381	153.75
808.557	160.48
808.733	166.67
808.908	168.55
809.084	171.1
809.26	173.08
809.435	172.23
809.611	168.8
809.787	155.93
809.962	164.11
810.138	165.54
810.313	176.11
810.489	164.77
810.664	172.73
810.84	161.61
811.015	169.52
811.191	166.6
811.366	168.22
811.542	166.93
811.717	158.86
811.892	152.11
812.068	150.5
812.243	144.12
812.419	145.31
812.594	134.6
812.769	137.73
812.944	132.95
813.12	139.22
813.295	136.35
813.47	142.9
813.645	148.54
813.821	144.97
813.996	146.03
814.171	157.95
814.346	166.92
814.521	166.48
814.697	165.94
814.872	167.68
815.047	150.97
815.222	152.42
815.397	143.95
815.572	144.49
815.747	149.29
815.922	147.75
816.097	138.35
816.272	133.66
816.447	136.01
816.622	133.84
816.797	130.99
816.972	134.77
817.147	138.62
817.322	140.96
817.496	135.87
817.671	128.46
817.846	126.44
818.021	123.36
818.196	118.73
818.371	114.89
818.545	117.62
818.72	115.54
818.895	114.44
819.069	106.7
819.244	102.74
819.419	98.74
819.594	98.4
819.768	93.6
819.943	89.83
820.117	83.3
820.292	80.83
820.467	75.8
820.641	72.9
820.816	68.57
820.99	66.1
821.165	63.49
821.339	61.4
821.514	59.52
821.688	59.93
821.863	58.67
822.037	58.71
822.212	57.39
822.386	57.35
822.56	56.95
822.735	57.41
822.909	58.34
823.084	59.2
823.258	60.06
823.432	60.03
823.606	59.6
823.781	60.33
823.955	61.14
824.129	62.48
824.303	63.57
824.478	64.04
824.652	65.72
824.826	68.18
825	69.04
825.174	68.26
825.348	70.8
825.523	70.78
825.697	71.57
825.871	73.41
826.045	71.97
826.219	71.02
826.393	71.58
826.567	72.01
826.741	70.46
826.915	70.41
827.089	73.44
827.263	74.78
827.437	76.27
827.611	77.06
827.784	77.56
827.958	79.99
828.132	82.25
828.306	86
828.48	86.58
828.654	86.86
828.827	88.69
829.001	91.18
829.175	88.47
829.349	92.54
829.522	95.45
829.696	97.03
829.87	100.16
830.044	101.36
830.217	105.5
830.391	110.2
830.565	110.01
830.738	110.55
830.912	110.2
831.085	113.41
831.259	110.95
831.432	109.31
831.606	108.82
831.779	108.03
831.953	108.29
832.126	97.73
832.3	92.77
832.473	91.87
832.647	90.71
832.82	91.36
832.994	91.02
833.167	92.17
833.34	92.32
833.514	87.12
833.687	88.08
833.86	87.1
834.034	91.2
834.207	92.21
834.38	92.59
834.553	94.25
834.727	93.73
834.9	93.05
835.073	90.33
835.246	92.12
835.419	96.97
835.593	96.57
835.766	99.36
835.939	98.87
836.112	104.27
836.285	108.17
836.458	111.39
836.631	110.91
836.804	116.52
836.977	125.55
837.15	136.72
837.323	140.57
837.496	142.26
837.669	145.9
837.842	144.83
838.015	145.18
838.188	142.09
838.361	139.61
838.533	144.55
838.706	141.25
838.879	134.47
839.052	126.14
839.225	131.57
839.398	129.56
839.57	134.46
839.743	136.1
839.916	135.84
840.088	140.4
840.261	146.92
840.434	141.42
840.607	144.72
840.779	148.15
840.952	156.43
841.124	152.75
841.297	161.98
841.47	150.74
841.642	164.03
841.815	171.42
841.987	189.39
842.16	176.45
842.332	189.2
842.505	209.07
842.677	222.63
842.85	210.31
843.022	235.38
843.194	261.76
843.367	284.2
843.539	268.23
843.712	264.09
843.884	228.9
844.056	264.07
844.229	267.55
844.401	265.45
844.573	283.23
844.745	274.25
844.918	247.1
845.09	252.42
845.262	265.98
845.434	260.38
845.606	269.48
845.779	249.73
845.951	241.96
846.123	256.57
846.295	223.89
846.467	202.4
846.639	237.83
846.811	230.81
846.983	207.34
847.155	226.44
847.327	226.14
847.499	233.91
847.671	273.2
847.843	269.74
848.015	251.6
848.187	260.99
848.359	298.35
848.531	279.99
848.703	282.82
848.875	288.79
849.047	262.47
849.218	296.43
849.39	259.54
849.562	268.91
849.734	277.19
849.905	266.72
850.077	304.61
850.249	256.55
850.421	236.63
850.592	232.06
850.764	231.03
850.936	224.27
851.107	227.27
851.279	256.92
851.451	247.56
851.622	240.9
851.794	300.34
851.965	279.73
852.137	302.02
852.308	345.45
852.48	377.61
852.651	354.06
852.823	343.89
852.994	276.85
853.166	273.63
853.337	269.52
853.509	269.91
853.68	241.49
853.851	229.81
854.023	215.79
854.194	226.82
854.365	217.77
854.537	239.27
854.708	243.38
854.879	273.86
855.05	273.05
855.222	273.59
855.393	282.07
855.564	284.13
855.735	287.89
855.906	312.77
856.078	280.61
856.249	279.89
856.42	272.49
856.591	267.95
856.762	259.38
856.933	284.62
857.104	306.21
857.275	299.38
857.446	310.86
857.617	309.72
857.788	379.14
857.959	459.35
858.13	440.92
858.301	467.09
858.472	432.87
858.643	366.84
858.814	321.58
858.985	298.77
859.155	282.12
859.326	254.21
859.497	264.36
859.668	228.63
859.839	189.77
860.009	182.68
860.18	196.63
860.351	211.17
860.522	240.73
860.692	227.3
860.863	261.93
861.034	297.52
861.204	291.21
861.375	281.41
861.546	295.91
861.716	328.9
861.887	379.11
862.057	357.83
862.228	313.48
862.398	312.16
862.569	335.34
862.739	283.32
862.91	243.97
863.08	241.31
863.251	249.69
863.421	246.93
863.592	221.48
863.762	215.39
863.932	219.52
864.103	194.57
864.273	188.46
864.443	186.93
864.614	211.99
864.784	221.57
864.954	212.81
865.125	227.2
865.295	210.75
865.465	248.3
865.635	230.16
865.805	230.27
865.976	273.92
866.146	272.32
866.316	273.95
866.486	267
866.656	258.01
866.826	266.7
866.996	244.13
867.166	245.74
867.336	244.37
867.506	279.07
867.676	261.88
867.846	290.25
868.016	295.09
868.186	315.14
868.356	256.75
868.526	292.97
868.696	310.63
868.866	326.44
869.036	409.76
869.206	384.5
869.376	355.21
869.545	383.76
869.715	357.09
869.885	322.48
870.055	277.43
870.224	277.91
870.394	236.68
870.564	244.44
870.734	252.81
870.903	243.37
871.073	247.5
871.243	231.39
871.412	221.25
871.582	233.55
871.751	232.42
871.921	232.64
872.091	233.43
872.26	235.59
872.43	206.94
872.599	193.24
872.769	184.26
872.938	184.26
873.108	201.15
873.277	207.16
873.446	203.37
873.616	222.27
873.785	220.07
873.955	224.2
874.124	233.92
874.293	278.77
874.463	286.11
874.632	299.82
874.801	263.37
874.971	231.18
875.14	205.8
875.309	204.91
875.478	178.46
875.647	189.99
875.817	184.37
875.986	183.87
876.155	173.6
876.324	178.96
876.493	176.24
876.662	180.84
876.831	201.02
877	223.45
877.17	215.39
877.339	261.35
877.508	249.69
877.677	244.03
877.846	232.69
878.015	233.38
878.184	208.04
878.352	214.19
878.521	236.79
878.69	202.7
878.859	188.27
879.028	181.81
879.197	171.06
879.366	149.56
879.534	153.51
879.703	141.37
879.872	133.16
880.041	125.87
880.21	110.08
880.378	93.6
880.547	94.29
880.716	88.49
880.884	82.4
881.053	74.77
881.222	69.9
881.39	64.6
881.559	63.04
881.727	59.29
881.896	57.81
882.065	60.42
882.233	60.32
882.402	58.55
882.57	56.49
882.739	56.89
882.907	59.76
883.076	61.57
883.244	63.77
883.412	63.74
883.581	67.61
883.749	70.81
883.918	70.2
884.086	72.35
884.254	76.22
884.423	81.81
884.591	84.09
884.759	87.32
884.927	89.18
885.096	93.9
885.264	101.38
885.432	102.11
885.6	103.65
885.769	109.89
885.937	124.88
886.105	130.14
886.273	133.51
886.441	144
886.609	139.64
886.777	148.71
886.945	142.47
887.113	143.39
887.281	145.19
887.449	147.63
887.617	153.67
887.785	148.57
887.953	154.79
888.121	156.37
888.289	161.07
888.457	195.66
888.625	214.38
888.793	216.55
888.961	237.1
889.129	244.78
889.296	276.25
889.464	275.4
889.632	263.62
889.8	255.05
889.967	263.03
890.135	309.87
