Data from JASIL_2932_Reflection_3.txt Node
Date: Sat Nov 07 20:54:11 EST 2015
User: Geneva
Spectrometer: USB4E03002
Autoset integration time: false
Trigger mode: 4
Integration Time (sec): 1.000000E-1
Scans to average: 10
Electric dark correction enabled: true
Nonlinearity correction enabled: false
Boxcar width: 5
Stray light correction enabled: false
XAxis mode: Wavelengths
Stop averaging: false
Number of Pixels in Spectrum: 3648
>>>>>Begin Spectral Data<<<<<
177.575	174.52
177.794	-15.85
178.014	38.64
178.233	-7.25
178.452	-16.75
178.672	43.64
178.891	19.16
179.11	0
179.33	62.77
179.549	295.38
179.768	78.51
179.987	320.3
180.207	153.97
180.426	115.74
180.645	72.9
180.864	70.79
181.084	75.42
181.303	57.41
181.522	78.76
181.741	73.68
181.96	85.99
182.179	90.81
182.398	86.66
182.618	74.94
182.837	73.45
183.056	74.79
183.275	83.46
183.494	92.21
183.713	101.06
183.932	118.8
184.151	143.94
184.37	103.43
184.589	83.7
184.808	89.17
185.027	84.9
185.246	89.97
185.465	97.32
185.684	97.14
185.903	97.79
186.122	112.55
186.341	108.27
186.56	103.87
186.779	115.38
186.998	119.62
187.216	103.64
187.435	123.87
187.654	119.16
187.873	130.79
188.092	120.19
188.311	115.45
188.53	102.33
188.748	96.35
188.967	79.91
189.186	76.78
189.405	81.05
189.623	95.43
189.842	68.76
190.061	61.29
190.28	49.82
190.498	48.17
190.717	25.42
190.936	11.54
191.154	-13.37
191.373	-4.34
191.592	-41.43
191.81	-67.76
192.029	-40.18
192.248	-45.9
192.466	-2.58
192.685	1.39
192.904	15.92
193.122	24.82
193.341	21.99
193.559	22.52
193.778	27.79
193.996	30.13
194.215	46.15
194.433	47.88
194.652	41.04
194.87	41.52
195.089	50.63
195.307	56.78
195.526	60.42
195.744	63.32
195.963	73.36
196.181	72.92
196.399	88.19
196.618	94.67
196.836	80.62
197.055	83.27
197.273	73.89
197.491	82.17
197.71	61.11
197.928	73.01
198.146	66.79
198.365	69.05
198.583	81.12
198.801	81.77
199.019	67.45
199.238	65.12
199.456	73.28
199.674	69.44
199.892	54.84
200.111	51.56
200.329	59.04
200.547	60.95
200.765	60.75
200.983	55.28
201.202	67.18
201.42	68.69
201.638	81.42
201.856	59.77
202.074	62.41
202.292	60.31
202.51	72.24
202.728	58.21
202.946	53.44
203.165	41.6
203.383	42.01
203.601	50.94
203.819	35.7
204.037	31.71
204.255	42.67
204.473	52.55
204.691	50.56
204.909	44.57
205.127	55.94
205.345	56.05
205.562	58.73
205.78	54.35
205.998	39.71
206.216	48.16
206.434	46.27
206.652	55.04
206.87	47.88
207.088	47.6
207.306	50.13
207.523	47.04
207.741	44.92
207.959	57.93
208.177	52.47
208.395	40.19
208.612	32.4
208.83	29.09
209.048	15.72
209.266	4.66
209.483	30.34
209.701	40.29
209.919	34.04
210.136	45.07
210.354	50.13
210.572	69.3
210.79	80.44
211.007	70.04
211.225	67.8
211.442	65.75
211.66	71.18
211.878	57.94
212.095	53.25
212.313	61.1
212.53	56.32
212.748	53.61
212.966	44.78
213.183	43.45
213.401	45.13
213.618	50.37
213.836	53.7
214.053	47.4
214.271	55.87
214.488	49.51
214.705	42.83
214.923	45.72
215.14	35.83
215.358	35.51
215.575	36.84
215.793	44.05
216.01	33.08
216.227	31.39
216.445	27.85
216.662	14.7
216.879	21.67
217.097	20.42
217.314	17.68
217.531	23.87
217.749	22.55
217.966	19.1
218.183	10.65
218.4	13.69
218.618	10.91
218.835	16.77
219.052	27.57
219.269	26.67
219.487	20.53
219.704	22.11
219.921	18.99
220.138	24.48
220.355	25.09
220.572	29.26
220.79	28.6
221.007	30.6
221.224	32.97
221.441	28.69
221.658	27.08
221.875	33.21
222.092	32.39
222.309	31.44
222.526	26.75
222.743	26.71
222.96	24.49
223.177	25.64
223.394	25.74
223.611	24.47
223.828	25.29
224.045	23.75
224.262	21.89
224.479	22.4
224.696	22.14
224.913	22.13
225.13	21.43
225.347	20.58
225.564	21.01
225.781	19.27
225.997	18.2
226.214	16.06
226.431	14.41
226.648	13.52
226.865	12.99
227.082	12.1
227.298	11.81
227.515	11.68
227.732	11.86
227.949	11.3
228.165	11.13
228.382	9.96
228.599	10.22
228.816	10.68
229.032	10.08
229.249	9.67
229.466	10.2
229.682	10.41
229.899	10.6
230.116	9.95
230.332	10.69
230.549	11.79
230.765	13.94
230.982	14.26
231.199	14.38
231.415	15
231.632	15.01
231.848	15.23
232.065	15.3
232.281	15.1
232.498	15.91
232.714	14.96
232.931	13.24
233.147	12.65
233.364	12.15
233.58	12.41
233.797	12.17
234.013	12.43
234.23	11.48
234.446	11.32
234.662	12
234.879	12.59
235.095	12.41
235.312	13.56
235.528	13.57
235.744	12.83
235.961	13.06
236.177	13.71
236.393	13.58
236.61	14.49
236.826	14.48
237.042	14.01
237.258	13.34
237.475	13.99
237.691	12.99
237.907	12.48
238.123	12.74
238.339	12.13
238.556	12.07
238.772	11.12
238.988	11.7
239.204	11.64
239.42	11.9
239.636	11.77
239.853	11.36
240.069	11.18
240.285	11.21
240.501	11.35
240.717	11.14
240.933	10.74
241.149	10.85
241.365	10.71
241.581	10.59
241.797	10.21
242.013	10.07
242.229	10.28
242.445	10.36
242.661	9.98
242.877	9.97
243.093	10.33
243.309	10.44
243.525	10.56
243.741	10.23
243.957	10.34
244.173	10.88
244.388	10.5
244.604	10.04
244.82	9.94
245.036	9.79
245.252	9.64
245.468	9.2
245.683	9.19
245.899	9.11
246.115	8.92
246.331	8.85
246.547	8.5
246.762	8.31
246.978	8.35
247.194	8.16
247.409	8.24
247.625	8.03
247.841	7.88
248.057	7.92
248.272	7.81
248.488	7.95
248.703	7.78
248.919	7.7
249.135	8.13
249.35	8.06
249.566	8.32
249.782	8.27
249.997	8.6
250.213	8.93
250.428	8.48
250.644	8.65
250.859	8.41
251.075	8.39
251.29	8.61
251.506	8.53
251.721	8.58
251.937	8.55
252.152	8.42
252.368	8.47
252.583	8.51
252.798	8.44
253.014	8.38
253.229	8.76
253.445	8.18
253.66	8.06
253.875	8.08
254.091	6.92
254.306	6.91
254.521	6.85
254.737	6.95
254.952	6.43
255.167	6.88
255.383	7.08
255.598	7.23
255.813	7.46
256.028	7.32
256.244	7.22
256.459	7.41
256.674	7.18
256.889	7.17
257.104	7.03
257.32	7.07
257.535	6.88
257.75	6.58
257.965	6.41
258.18	6.37
258.395	6.21
258.61	6.12
258.826	6.3
259.041	6.22
259.256	6.31
259.471	6.24
259.686	6.3
259.901	6.29
260.116	6.49
260.331	6.46
260.546	6.64
260.761	6.67
260.976	6.81
261.191	6.75
261.406	6.79
261.621	6.7
261.836	6.77
262.05	6.67
262.265	6.7
262.48	6.51
262.695	6.2
262.91	6.27
263.125	6.51
263.34	6.74
263.555	6.68
263.769	6.52
263.984	6.56
264.199	6.66
264.414	6.78
264.629	6.78
264.843	6.57
265.058	6.74
265.273	6.65
265.488	6.56
265.702	6.08
265.917	6.4
266.132	6.74
266.346	6.56
266.561	6.33
266.776	6.28
266.99	6.21
267.205	6.14
267.42	6.04
267.634	5.95
267.849	6.11
268.063	6.17
268.278	5.81
268.492	5.73
268.707	5.89
268.922	5.94
269.136	5.74
269.351	5.85
269.565	5.94
269.78	6.03
269.994	5.85
270.209	5.79
270.423	6.21
270.637	6.04
270.852	5.99
271.066	5.77
271.281	5.75
271.495	5.98
271.709	5.86
271.924	5.69
272.138	5.39
272.353	5.72
272.567	5.49
272.781	5.05
272.996	5.38
273.21	5.19
273.424	5.35
273.638	5.38
273.853	5.24
274.067	5.02
274.281	5.26
274.495	5.54
274.71	5.06
274.924	5.38
275.138	5.48
275.352	5.35
275.566	5.55
275.781	5.61
275.995	5.94
276.209	5.73
276.423	5.88
276.637	5.61
276.851	5.52
277.065	5.7
277.279	5.53
277.493	5.54
277.707	5.27
277.921	5.23
278.135	5.28
278.349	4.85
278.563	4.96
278.777	4.84
278.991	5.2
279.205	5.32
279.419	5.32
279.633	5.32
279.847	5.36
280.061	5.6
280.275	5.66
280.489	5.54
280.703	5.52
280.917	5.54
281.131	5.62
281.344	5.32
281.558	5.05
281.772	5.13
281.986	5.12
282.2	5.13
282.414	5.19
282.627	5.19
282.841	5.2
283.055	5.02
283.269	4.89
283.482	4.77
283.696	4.91
283.91	5.38
284.123	5.21
284.337	5.1
284.551	5.05
284.764	4.96
284.978	4.97
285.192	4.9
285.405	5.13
285.619	5.18
285.833	5.21
286.046	5.19
286.26	5.09
286.473	5.03
286.687	5.07
286.9	5.08
287.114	4.94
287.327	5.05
287.541	5.22
287.754	5.09
287.968	4.93
288.181	5
288.395	4.93
288.608	4.71
288.822	4.66
289.035	4.83
289.248	4.79
289.462	4.93
289.675	4.78
289.889	4.6
290.102	4.74
290.315	5
290.529	4.94
290.742	4.92
290.955	4.91
291.169	5.15
291.382	5.07
291.595	5.07
291.808	5.1
292.022	5.35
292.235	5.39
292.448	5.51
292.661	5.49
292.875	5.73
293.088	5.77
293.301	5.83
293.514	5.67
293.727	5.6
293.94	5.59
294.153	5.41
294.367	5.09
294.58	5
294.793	4.75
295.006	4.71
295.219	4.67
295.432	4.57
295.645	4.63
295.858	4.66
296.071	4.71
296.284	4.64
296.497	4.65
296.71	4.81
296.923	4.82
297.136	4.9
297.349	4.9
297.562	4.77
297.775	4.9
297.988	4.87
298.201	4.86
298.414	4.86
298.626	4.83
298.839	4.95
299.052	4.75
299.265	4.69
299.478	4.65
299.691	4.6
299.903	4.74
300.116	4.71
300.329	4.62
300.542	4.63
300.755	4.56
300.967	4.74
301.18	4.84
301.393	4.81
301.605	4.99
301.818	4.92
302.031	5.05
302.243	4.94
302.456	5.13
302.669	5.11
302.881	5.21
303.094	5.21
303.307	5.36
303.519	5.26
303.732	5.43
303.944	5.47
304.157	5.4
304.37	5.29
304.582	5.28
304.795	5.1
305.007	5.07
305.22	5.01
305.432	5.11
305.645	4.84
305.857	4.96
306.069	4.9
306.282	4.69
306.494	4.8
306.707	4.82
306.919	5.06
307.132	4.97
307.344	5.05
307.556	5.17
307.769	5.04
307.981	5.16
308.193	5.08
308.406	4.93
308.618	5
308.83	5.03
309.043	5.1
309.255	5
309.467	5.05
309.679	5.21
309.892	5.17
310.104	5.27
310.316	5.11
310.528	5.11
310.74	5.39
310.953	5.68
311.165	5.78
311.377	5.53
311.589	5.52
311.801	5.61
312.013	5.55
312.225	5.59
312.437	5.68
312.649	5.83
312.862	6.03
313.074	5.85
313.286	5.45
313.498	5.36
313.71	5.84
313.922	5.78
314.134	5.84
314.346	5.9
314.558	5.94
314.77	5.78
314.982	5.62
315.193	5.42
315.405	5.38
315.617	5.58
315.829	5.62
316.041	5.5
316.253	5.5
316.465	5.35
316.677	4.99
316.888	5.05
317.1	5.26
317.312	5.56
317.524	5.61
317.736	5.76
317.947	5.92
318.159	6.23
318.371	6.15
318.583	6.36
318.794	6.47
319.006	6.83
319.218	6.73
319.43	6.67
319.641	6.68
319.853	6.61
320.064	6.5
320.276	6.55
320.488	6.3
320.699	6.47
320.911	6.57
321.123	7.05
321.334	7.09
321.546	7.25
321.757	7.22
321.969	7.32
322.18	7.44
322.392	7.41
322.603	7.25
322.815	7.11
323.026	7.05
323.238	6.91
323.449	6.56
323.661	6.39
323.872	6.34
324.083	6.38
324.295	6.26
324.506	6.23
324.718	6.27
324.929	6.29
325.14	6.61
325.352	6.72
325.563	6.97
325.774	7.02
325.986	7.3
326.197	7.42
326.408	7.41
326.62	7.54
326.831	7.79
327.042	8.01
327.253	8.13
327.464	8.02
327.676	7.87
327.887	7.88
328.098	7.94
328.309	7.95
328.52	7.89
328.732	8.29
328.943	8.41
329.154	8.43
329.365	8.34
329.576	8.59
329.787	8.56
329.998	8.76
330.209	8.81
330.42	8.85
330.631	8.68
330.842	8.76
331.053	8.61
331.264	8.48
331.475	8.44
331.686	8.54
331.897	8.5
332.108	8.57
332.319	8.44
332.53	8.4
332.741	8.5
332.952	8.62
333.163	8.91
333.374	8.8
333.585	8.75
333.795	8.82
334.006	8.99
334.217	8.83
334.428	8.87
334.639	8.8
334.849	8.8
335.06	8.91
335.271	8.76
335.482	8.45
335.692	8.5
335.903	8.53
336.114	8.43
336.325	8.44
336.535	8.62
336.746	8.5
336.957	8.74
337.167	8.74
337.378	8.47
337.589	8.67
337.799	8.66
338.01	8.63
338.22	8.68
338.431	8.57
338.642	8.43
338.852	8.11
339.063	8.28
339.273	8.15
339.484	8.17
339.694	8.23
339.905	8.1
340.115	8.01
340.326	7.96
340.536	8.07
340.746	8.12
340.957	8.18
341.167	8.25
341.378	8.08
341.588	8.3
341.799	8.18
342.009	8.03
342.219	8.12
342.43	8.29
342.64	8.29
342.85	8.2
343.061	8.36
343.271	8.18
343.481	8.24
343.691	8.29
343.902	8.17
344.112	8.1
344.322	8.3
344.532	8.2
344.743	8.17
344.953	7.99
345.163	8.08
345.373	7.98
345.583	7.94
345.793	7.8
346.004	7.73
346.214	7.83
346.424	7.99
346.634	7.92
346.844	8.05
347.054	8.02
347.264	8.32
347.474	8.05
347.684	7.9
347.894	8.01
348.104	8.14
348.314	8.2
348.524	8.09
348.734	7.95
348.944	7.95
349.154	7.79
349.364	7.63
349.574	7.6
349.784	7.78
349.994	7.91
350.204	7.79
350.413	7.65
350.623	7.67
350.833	7.52
351.043	7.51
351.253	7.6
351.463	7.66
351.672	7.55
351.882	7.46
352.092	7.3
352.302	7.36
352.511	7.34
352.721	7.38
352.931	7.4
353.141	7.45
353.35	7.34
353.56	7.17
353.77	7.1
353.979	7.35
354.189	7.35
354.399	7.42
354.608	7.33
354.818	7.35
355.027	7.33
355.237	7.13
355.447	7.14
355.656	7.27
355.866	7.34
356.075	7.37
356.285	7.24
356.494	7.14
356.704	7.11
356.913	7.04
357.123	6.93
357.332	6.92
357.542	7.11
357.751	7.09
357.96	7.05
358.17	7.03
358.379	7.14
358.589	7.21
358.798	7.27
359.007	7.26
359.217	7.22
359.426	7.32
359.635	7.25
359.845	7.09
360.054	7.05
360.263	7.01
360.472	6.92
360.682	6.86
360.891	6.9
361.1	6.95
361.309	6.92
361.519	6.98
361.728	6.97
361.937	7
362.146	7.12
362.355	7.17
362.564	7.22
362.774	7.34
362.983	7.25
363.192	7.17
363.401	7.05
363.61	7.04
363.819	7.1
364.028	7.18
364.237	7.19
364.446	7.08
364.655	7.04
364.864	7.06
365.073	6.98
365.282	7.04
365.491	7.01
365.7	7.19
365.909	7.21
366.118	7.17
366.327	7.05
366.536	7.03
366.745	6.95
366.954	6.96
367.162	6.79
367.371	6.78
367.58	6.76
367.789	6.73
367.998	6.53
368.207	6.61
368.415	6.51
368.624	6.48
368.833	6.52
369.042	6.73
369.25	6.75
369.459	6.83
369.668	6.86
369.877	6.78
370.085	6.89
370.294	6.85
370.503	6.83
370.711	6.88
370.92	6.79
371.129	6.77
371.337	6.6
371.546	6.48
371.754	6.42
371.963	6.4
372.171	6.41
372.38	6.18
372.589	6.31
372.797	6.29
373.006	6.28
373.214	6.35
373.423	6.36
373.631	6.37
373.84	6.48
374.048	6.48
374.256	6.47
374.465	6.43
374.673	6.58
374.882	6.42
375.09	6.36
375.298	6.27
375.507	6.24
375.715	6.19
375.923	6.13
376.132	6.07
376.34	6.01
376.548	5.99
376.757	6.04
376.965	6.16
377.173	6.26
377.381	6.21
377.59	6.21
377.798	6.27
378.006	6.31
378.214	6.46
378.423	6.37
378.631	6.47
378.839	6.4
379.047	6.4
379.255	6.29
379.463	6.23
379.671	6.12
379.879	6.22
380.088	6.27
380.296	6.23
380.504	6.21
380.712	6.25
380.92	6.32
381.128	6.35
381.336	6.35
381.544	6.24
381.752	6.26
381.96	6.3
382.168	6.26
382.376	6.14
382.584	6.18
382.791	6.17
382.999	6.2
383.207	6.03
383.415	5.95
383.623	5.94
383.831	5.93
384.039	5.96
384.247	5.99
384.454	6.05
384.662	6.11
384.87	6.13
385.078	6.03
385.285	6.05
385.493	6.05
385.701	6.11
385.909	6.1
386.116	6.12
386.324	6.14
386.532	6.08
386.739	5.98
386.947	5.93
387.155	5.78
387.362	5.82
387.57	5.77
387.778	5.81
387.985	5.87
388.193	5.9
388.4	5.92
388.608	5.75
388.816	5.81
389.023	5.82
389.231	5.75
389.438	5.81
389.646	5.7
389.853	5.7
390.061	5.59
390.268	5.52
390.475	5.44
390.683	5.34
390.89	5.36
391.098	5.26
391.305	5.21
391.512	5.15
391.72	5.06
391.927	5.06
392.135	5.02
392.342	5.09
392.549	5.02
392.756	4.96
392.964	4.99
393.171	5.01
393.378	5
393.586	5
393.793	5.12
394	5.05
394.207	5.08
394.414	5.09
394.622	5.05
394.829	5.04
395.036	5.01
395.243	4.92
395.45	4.86
395.657	4.85
395.864	4.76
396.072	4.76
396.279	4.87
396.486	4.8
396.693	4.87
396.9	4.86
397.107	4.73
397.314	4.79
397.521	4.87
397.728	4.9
397.935	4.89
398.142	4.91
398.349	4.83
398.556	4.77
398.763	4.82
398.97	4.72
399.177	4.73
399.383	4.8
399.59	4.79
399.797	4.73
400.004	4.69
400.211	4.76
400.418	4.71
400.625	4.76
400.831	4.79
401.038	4.78
401.245	4.68
401.452	4.55
401.658	4.6
401.865	4.63
402.072	4.64
402.279	4.67
402.485	4.59
402.692	4.59
402.899	4.52
403.105	4.51
403.312	4.48
403.519	4.49
403.725	4.62
403.932	4.63
404.138	4.5
404.345	4.44
404.552	4.38
404.758	4.42
404.965	4.41
405.171	4.35
405.378	4.31
405.584	4.29
405.791	4.3
405.997	4.21
406.204	4.18
406.41	4.2
406.617	4.26
406.823	4.25
407.029	4.17
407.236	4.23
407.442	4.25
407.649	4.3
407.855	4.34
408.061	4.32
408.268	4.32
408.474	4.23
408.68	4.28
408.887	4.19
409.093	4.22
409.299	4.24
409.505	4.21
409.712	4.2
409.918	4.08
410.124	4.03
410.33	4.02
410.537	4.09
410.743	4.14
410.949	4.16
411.155	4.25
411.361	4.19
411.567	4.14
411.773	4.08
411.98	4.1
412.186	4.09
412.392	4.13
412.598	4.21
412.804	4.1
413.01	4.09
413.216	4.05
413.422	4.06
413.628	4.07
413.834	4.1
414.04	4.09
414.246	4.05
414.452	4.09
414.658	4.04
414.864	3.99
415.07	3.99
415.275	3.96
415.481	3.86
415.687	3.78
415.893	3.79
416.099	3.79
416.305	3.83
416.511	3.83
416.716	3.76
416.922	3.76
417.128	3.74
417.334	3.74
417.539	3.71
417.745	3.75
417.951	3.69
418.157	3.7
418.362	3.67
418.568	3.64
418.774	3.63
418.979	3.61
419.185	3.56
419.391	3.53
419.596	3.52
419.802	3.51
420.008	3.49
420.213	3.85
420.419	3.81
420.624	3.82
420.83	3.77
421.035	3.79
421.241	3.83
421.446	3.89
421.652	3.9
421.857	3.87
422.063	3.89
422.268	3.87
422.474	3.58
422.679	3.56
422.885	3.57
423.09	3.58
423.295	3.54
423.501	3.49
423.706	3.45
423.911	3.43
424.117	3.47
424.322	3.46
424.527	3.48
424.733	3.41
424.938	3.45
425.143	3.41
425.349	3.4
425.554	3.4
425.759	3.42
425.964	3.4
426.169	3.43
426.375	3.39
426.58	3.37
426.785	3.32
426.99	3.37
427.195	3.34
427.4	3.36
427.605	3.36
427.811	3.37
428.016	3.38
428.221	3.4
428.426	3.37
428.631	3.32
428.836	3.34
429.041	3.36
429.246	3.34
429.451	3.36
429.656	3.33
429.861	3.37
430.066	3.37
430.271	3.39
430.476	3.34
430.681	3.33
430.886	3.37
431.09	3.38
431.295	3.33
431.5	3.36
431.705	3.34
431.91	3.34
432.115	3.31
432.32	3.3
432.524	3.26
432.729	3.27
432.934	3.28
433.139	3.29
433.343	3.32
433.548	3.35
433.753	3.33
433.958	3.32
434.162	3.35
434.367	3.36
434.572	3.33
434.776	3.38
434.981	3.4
435.186	3.34
435.39	3.33
435.595	3.33
435.799	3.3
436.004	3.3
436.209	3.33
436.413	3.29
436.618	3.3
436.822	3.29
437.027	3.23
437.231	3.22
437.436	3.24
437.64	3.23
437.845	3.19
438.049	3.19
438.253	3.14
438.458	3.12
438.662	3.17
438.867	3.13
439.071	3.16
439.275	3.19
439.48	3.19
439.684	3.21
439.888	3.18
440.093	3.14
440.297	3.15
440.501	3.17
440.706	3.21
440.91	3.2
441.114	3.19
441.318	3.21
441.523	3.21
441.727	3.2
441.931	3.23
442.135	3.2
442.339	3.18
442.543	3.14
442.748	3.12
442.952	3.05
443.156	3.02
443.36	3.02
443.564	2.97
443.768	2.94
443.972	2.94
444.176	2.88
444.38	2.91
444.584	2.94
444.788	2.94
444.992	2.95
445.196	2.95
445.4	2.96
445.604	2.94
445.808	2.94
446.012	2.98
446.216	2.97
446.42	2.99
446.624	2.96
446.828	2.94
447.032	2.95
447.235	2.94
447.439	2.95
447.643	2.93
447.847	2.95
448.051	2.92
448.254	2.89
448.458	2.91
448.662	2.94
448.866	2.94
449.069	2.98
449.273	3.03
449.477	3.08
449.681	3.05
449.884	3.09
450.088	3.07
450.292	3.16
450.495	3.17
450.699	3.15
450.902	3.13
451.106	3.16
451.31	3.15
451.513	3.1
451.717	3
451.92	3.01
452.124	2.94
452.327	2.94
452.531	2.89
452.734	2.9
452.938	2.83
453.141	2.81
453.345	2.85
453.548	2.84
453.752	2.87
453.955	2.94
454.158	2.98
454.362	3.03
454.565	3.04
454.769	3.01
454.972	3
455.175	3.02
455.379	3.03
455.582	2.95
455.785	2.92
455.988	2.87
456.192	2.83
456.395	2.75
456.598	2.75
456.801	2.74
457.005	2.78
457.208	2.76
457.411	2.76
457.614	2.79
457.817	2.8
458.021	2.79
458.224	2.77
458.427	2.81
458.63	2.83
458.833	2.8
459.036	2.81
459.239	2.8
459.442	2.79
459.645	2.79
459.848	2.75
460.051	2.75
460.254	2.78
460.457	2.8
460.66	2.75
460.863	2.76
461.066	2.81
461.269	2.87
461.472	2.89
461.675	2.9
461.878	2.99
462.081	3.01
462.284	3.03
462.486	3.05
462.689	3.07
462.892	3.13
463.095	3.12
463.298	3.1
463.5	3.03
463.703	3.03
463.906	3.05
464.109	2.99
464.311	2.98
464.514	3.01
464.717	2.98
464.92	3.01
465.122	3.02
465.325	3.06
465.528	3.07
465.73	3.08
465.933	3.07
466.135	3.08
466.338	3.09
466.541	3.07
466.743	3.06
466.946	3.08
467.148	3.08
467.351	3.01
467.553	2.97
467.756	3.02
467.958	3.07
468.161	3.06
468.363	3.03
468.566	3.02
468.768	3
468.971	3.01
469.173	3.01
469.375	2.98
469.578	3.06
469.78	3.03
469.983	2.95
470.185	2.87
470.387	2.92
470.59	2.92
470.792	2.92
470.994	2.97
471.196	2.98
471.399	2.92
471.601	2.93
471.803	2.9
472.005	2.92
472.208	2.91
472.41	2.89
472.612	2.84
472.814	2.86
473.016	2.89
473.218	2.88
473.421	2.87
473.623	2.91
473.825	2.9
474.027	2.93
474.229	2.91
474.431	2.95
474.633	3.01
474.835	3.01
475.037	2.95
475.239	2.93
475.441	2.95
475.643	2.9
475.845	2.93
476.047	2.93
476.249	2.89
476.451	2.94
476.653	2.94
476.855	2.91
477.057	2.87
477.258	2.9
477.46	2.9
477.662	2.86
477.864	2.87
478.066	2.87
478.268	2.88
478.469	2.89
478.671	2.86
478.873	2.81
479.075	2.81
479.276	2.87
479.478	2.86
479.68	2.85
479.882	2.88
480.083	2.9
480.285	2.87
480.487	2.83
480.688	2.81
480.89	2.81
481.091	2.83
481.293	2.85
481.495	2.83
481.696	2.81
481.898	2.78
482.099	2.76
482.301	2.75
482.502	2.75
482.704	2.76
482.905	2.74
483.107	2.74
483.308	2.74
483.51	2.71
483.711	2.71
483.913	2.72
484.114	2.73
484.315	2.73
484.517	2.74
484.718	2.75
484.92	2.76
485.121	2.76
485.322	2.77
485.524	2.78
485.725	2.81
485.926	2.82
486.127	2.83
486.329	2.81
486.53	2.81
486.731	2.81
486.932	2.79
487.134	2.77
487.335	2.78
487.536	2.77
487.737	2.77
487.938	2.76
488.139	2.74
488.341	2.75
488.542	2.76
488.743	2.76
488.944	2.75
489.145	2.77
489.346	2.79
489.547	2.81
489.748	2.78
489.949	2.78
490.15	2.77
490.351	2.78
490.552	2.79
490.753	2.77
490.954	2.78
491.155	2.79
491.356	2.78
491.557	2.77
491.758	2.79
491.959	2.82
492.159	2.82
492.36	2.86
492.561	2.87
492.762	2.87
492.963	2.91
493.164	2.91
493.364	2.92
493.565	2.93
493.766	2.98
493.967	2.98
494.167	2.97
494.368	2.98
494.569	2.95
494.769	2.94
494.97	2.95
495.171	2.93
495.371	2.93
495.572	2.98
495.773	2.99
495.973	2.96
496.174	2.98
496.375	3.02
496.575	3.04
496.776	3.07
496.976	3.09
497.177	3.12
497.377	3.14
497.578	3.18
497.778	3.13
497.979	3.13
498.179	3.18
498.38	3.14
498.58	3.12
498.78	3.13
498.981	3.14
499.181	3.13
499.382	3.13
499.582	3.14
499.782	3.16
499.983	3.19
500.183	3.2
500.383	3.17
500.584	3.2
500.784	3.2
500.984	3.18
501.184	3.17
501.385	3.19
501.585	3.23
501.785	3.24
501.985	3.26
502.185	3.23
502.386	3.23
502.586	3.27
502.786	3.28
502.986	3.3
503.186	3.35
503.386	3.36
503.586	3.37
503.786	3.34
503.987	3.32
504.187	3.32
504.387	3.4
504.587	3.46
504.787	3.44
504.987	3.48
505.187	3.5
505.387	3.46
505.587	3.46
505.786	3.5
505.986	3.48
506.186	3.47
506.386	3.46
506.586	3.45
506.786	3.43
506.986	3.46
507.186	3.45
507.386	3.48
507.585	3.55
507.785	3.55
507.985	3.56
508.185	3.67
508.384	3.71
508.584	3.7
508.784	3.72
508.984	3.74
509.183	3.78
509.383	3.81
509.583	3.77
509.782	3.78
509.982	3.81
510.182	3.81
510.381	3.79
510.581	3.82
510.781	3.86
510.98	3.87
511.18	3.91
511.379	3.9
511.579	3.9
511.778	3.92
511.978	3.92
512.177	3.95
512.377	3.97
512.576	3.99
512.776	4.03
512.975	4.06
513.175	4.08
513.374	4.09
513.573	4.1
513.773	4.14
513.972	4.19
514.172	4.21
514.371	4.23
514.57	4.22
514.77	4.25
514.969	4.22
515.168	4.24
515.367	4.26
515.567	4.24
515.766	4.3
515.965	4.33
516.164	4.37
516.364	4.41
516.563	4.43
516.762	4.46
516.961	4.44
517.16	4.49
517.359	4.54
517.559	4.53
517.758	4.56
517.957	4.58
518.156	4.61
518.355	4.59
518.554	4.6
518.753	4.61
518.952	4.64
519.151	4.68
519.35	4.67
519.549	4.65
519.748	4.7
519.947	4.77
520.146	4.77
520.345	4.74
520.544	4.78
520.743	4.82
520.942	4.85
521.141	4.86
521.339	4.86
521.538	4.9
521.737	4.93
521.936	4.93
522.135	4.9
522.333	4.93
522.532	5.01
522.731	5.01
522.93	5
523.129	5.02
523.327	5.03
523.526	5.06
523.725	5.09
523.923	5.12
524.122	5.13
524.321	5.15
524.519	5.13
524.718	5.1
524.917	5.13
525.115	5.15
525.314	5.17
525.512	5.2
525.711	5.22
525.909	5.21
526.108	5.22
526.306	5.21
526.505	5.2
526.703	5.22
526.902	5.25
527.1	5.24
527.299	5.25
527.497	5.26
527.696	5.27
527.894	5.28
528.092	5.26
528.291	5.26
528.489	5.31
528.688	5.34
528.886	5.37
529.084	5.39
529.283	5.44
529.481	5.47
529.679	5.5
529.877	5.52
530.076	5.55
530.274	5.63
530.472	5.7
530.67	5.69
530.869	5.74
531.067	5.76
531.265	5.77
531.463	5.77
531.661	5.77
531.859	5.81
532.057	5.82
532.255	5.83
532.454	5.84
532.652	5.85
532.85	5.86
533.048	5.84
533.246	5.84
533.444	5.88
533.642	5.9
533.84	5.93
534.038	5.95
534.236	6.02
534.434	6.05
534.632	6.06
534.83	6.05
535.027	6.09
535.225	6.13
535.423	6.17
535.621	6.17
535.819	6.18
536.017	6.18
536.215	6.2
536.412	6.15
536.61	6.14
536.808	6.18
537.006	6.24
537.203	6.28
537.401	6.3
537.599	6.3
537.797	6.33
537.994	6.37
538.192	6.4
538.39	6.42
538.587	6.44
538.785	6.52
538.983	6.55
539.18	6.56
539.378	6.57
539.575	6.59
539.773	6.64
539.97	6.68
540.168	6.69
540.366	6.69
540.563	6.7
540.761	6.72
540.958	6.73
541.155	6.75
541.353	6.8
541.55	6.8
541.748	6.83
541.945	6.84
542.143	6.84
542.34	6.87
542.537	6.89
542.735	6.94
542.932	6.99
543.129	7.01
543.327	7.05
543.524	7.07
543.721	7.15
543.919	7.18
544.116	7.19
544.313	7.24
544.51	7.27
544.708	7.31
544.905	7.34
545.102	7.35
545.299	7.39
545.496	7.43
545.693	7.44
545.891	7.44
546.088	7.47
546.285	7.5
546.482	7.54
546.679	7.58
546.876	7.64
547.073	7.65
547.27	7.74
547.467	7.78
547.664	7.77
547.861	7.84
548.058	7.89
548.255	7.92
548.452	7.95
548.649	7.98
548.846	8.04
549.043	7.99
549.24	8.05
549.437	7.98
549.633	7.95
549.83	7.99
550.027	7.96
550.224	7.99
550.421	8
550.618	8.06
550.814	8.11
551.011	8.09
551.208	8.24
551.405	8.28
551.601	8.38
551.798	8.44
551.995	8.49
552.191	8.5
552.388	8.5
552.585	8.55
552.781	8.59
552.978	8.62
553.175	8.58
553.371	8.54
553.568	8.56
553.764	8.52
553.961	8.58
554.157	8.6
554.354	8.67
554.55	8.76
554.747	8.79
554.943	8.8
555.14	8.79
555.336	8.87
555.533	8.95
555.729	8.96
555.926	9.03
556.122	9.01
556.318	8.99
556.515	8.99
556.711	8.97
556.907	8.99
557.104	9.04
557.3	9.06
557.496	9.09
557.693	9.09
557.889	9.15
558.085	9.18
558.281	9.24
558.478	9.29
558.674	9.35
558.87	9.33
559.066	9.33
559.262	9.32
559.459	9.36
559.655	9.43
559.851	9.45
560.047	9.45
560.243	9.44
560.439	9.39
560.635	9.42
560.831	9.43
561.027	9.52
561.223	9.55
561.419	9.6
561.615	9.6
561.811	9.55
562.007	9.57
562.203	9.6
562.399	9.66
562.595	9.72
562.791	9.7
562.987	9.72
563.183	9.72
563.379	9.76
563.575	9.77
563.771	9.83
563.966	9.89
564.162	10.01
564.358	10.01
564.554	10.03
564.75	10.08
564.945	10.13
565.141	10.16
565.337	10.17
565.533	10.22
565.728	10.29
565.924	10.28
566.12	10.36
566.315	10.34
566.511	10.38
566.707	10.38
566.902	10.36
567.098	10.36
567.293	10.36
567.489	10.4
567.684	10.38
567.88	10.35
568.076	10.36
568.271	10.34
568.467	10.34
568.662	10.42
568.858	10.46
569.053	10.52
569.248	10.58
569.444	10.64
569.639	10.68
569.835	10.72
570.03	10.77
570.225	10.81
570.421	10.85
570.616	10.88
570.812	10.85
571.007	10.83
571.202	10.82
571.397	10.81
571.593	10.78
571.788	10.78
571.983	10.8
572.178	10.8
572.374	10.79
572.569	10.8
572.764	10.78
572.959	10.78
573.154	10.81
573.35	10.86
573.545	10.83
573.74	10.88
573.935	10.87
574.13	10.88
574.325	10.9
574.52	10.94
574.715	10.91
574.91	10.97
575.105	10.99
575.3	11.02
575.495	11.05
575.69	11.15
575.885	11.15
576.08	11.17
576.275	11.16
576.47	11.19
576.665	11.23
576.86	11.26
577.055	11.26
577.25	11.31
577.444	11.39
577.639	11.38
577.834	11.41
578.029	11.46
578.224	11.51
578.418	11.56
578.613	11.59
578.808	11.59
579.003	11.68
579.197	11.75
579.392	11.78
579.587	11.74
579.781	11.77
579.976	11.74
580.171	11.71
580.365	11.75
580.56	11.79
580.755	11.79
580.949	11.79
581.144	11.76
581.338	11.73
581.533	11.74
581.727	11.7
581.922	11.71
582.116	11.72
582.311	11.7
582.505	11.71
582.7	11.7
582.894	11.71
583.089	11.74
583.283	11.69
583.478	11.66
583.672	11.69
583.866	11.72
584.061	11.7
584.255	11.72
584.449	11.78
584.644	11.83
584.838	11.83
585.032	11.82
585.226	11.79
585.421	11.89
585.615	11.89
585.809	11.85
586.003	11.86
586.198	11.84
586.392	11.82
586.586	11.82
586.78	11.77
586.974	11.82
587.168	11.82
587.363	11.87
587.557	11.83
587.751	11.84
587.945	11.83
588.139	11.8
588.333	11.87
588.527	11.84
588.721	11.87
588.915	11.86
589.109	11.83
589.303	11.87
589.497	11.86
589.691	11.89
589.885	11.92
590.079	12
590.273	12.08
590.466	12.08
590.66	12.2
590.854	12.24
591.048	12.23
591.242	12.26
591.436	12.22
591.629	12.24
591.823	12.22
592.017	12.22
592.211	12.24
592.404	12.27
592.598	12.25
592.792	12.26
592.986	12.27
593.179	12.35
593.373	12.36
593.567	12.34
593.76	12.36
593.954	12.35
594.147	12.34
594.341	12.33
594.535	12.35
594.728	12.4
594.922	12.37
595.115	12.35
595.309	12.33
595.502	12.36
595.696	12.37
595.889	12.34
596.083	12.35
596.276	12.33
596.47	12.27
596.663	12.21
596.856	12.14
597.05	12.14
597.243	12.13
597.437	12.16
597.63	12.12
597.823	12.15
598.017	12.22
598.21	12.2
598.403	12.28
598.596	12.31
598.79	12.35
598.983	12.44
599.176	12.42
599.369	12.47
599.563	12.39
599.756	12.4
599.949	12.36
600.142	12.29
600.335	12.32
600.528	12.24
600.722	12.3
600.915	12.32
601.108	12.3
601.301	12.31
601.494	12.29
601.687	12.3
601.88	12.32
602.073	12.35
602.266	12.32
602.459	12.38
602.652	12.41
602.845	12.44
603.038	12.4
603.231	12.38
603.424	12.38
603.617	12.36
603.809	12.38
604.002	12.37
604.195	12.41
604.388	12.45
604.581	12.38
604.774	12.37
604.966	12.35
605.159	12.39
605.352	12.43
605.545	12.43
605.737	12.5
605.93	12.5
606.123	12.49
606.316	12.48
606.508	12.51
606.701	12.65
606.894	12.74
607.086	12.73
607.279	12.69
607.471	12.71
607.664	12.72
607.857	12.74
608.049	12.81
608.242	12.9
608.434	12.91
608.627	12.98
608.819	12.9
609.012	12.93
609.204	12.95
609.397	13.08
609.589	13.12
609.782	13.16
609.974	13.18
610.166	13.22
610.359	13.23
610.551	13.26
610.743	13.27
610.936	13.34
611.128	13.36
611.32	13.35
611.513	13.3
611.705	13.29
611.897	13.28
612.09	13.27
612.282	13.29
612.474	13.26
612.666	13.25
612.858	13.23
613.051	13.25
613.243	13.19
613.435	13.26
613.627	13.21
613.819	13.17
614.011	13.19
614.203	13.09
614.395	12.96
614.588	12.9
614.78	12.95
614.972	12.83
615.164	12.77
615.356	12.74
615.548	12.75
615.74	12.78
615.932	12.72
616.124	12.73
616.315	12.84
616.507	12.84
616.699	12.92
616.891	12.82
617.083	12.94
617.275	13.04
617.467	13.01
617.659	12.96
617.85	13.03
618.042	13.16
618.234	13.14
618.426	13.1
618.618	13.15
618.809	13.11
619.001	13.16
619.193	13.19
619.384	13.1
619.576	13.14
619.768	13.21
619.959	13.12
620.151	13.07
620.343	13.07
620.534	13.08
620.726	13.06
620.917	13.09
621.109	13.04
621.301	12.99
621.492	12.97
621.684	12.9
621.875	12.88
622.067	12.88
622.258	12.89
622.45	12.88
622.641	12.98
622.832	13.04
623.024	13.09
623.215	13.15
623.407	13.19
623.598	13.23
623.789	13.26
623.981	13.24
624.172	13.32
624.363	13.29
624.555	13.34
624.746	13.27
624.937	13.16
625.129	13.12
625.32	13.05
625.511	13.09
625.702	13.08
625.893	13.12
626.085	13.15
626.276	13.14
626.467	13.12
626.658	13.12
626.849	13.11
627.04	13.21
627.231	13.25
627.422	13.39
627.614	13.4
627.805	13.47
627.996	13.47
628.187	13.47
628.378	13.38
628.569	13.43
628.76	13.41
628.951	13.45
629.142	13.38
629.332	13.34
629.523	13.29
629.714	13.27
629.905	13.21
630.096	13.19
630.287	13.19
630.478	13.31
630.669	13.35
630.859	13.35
631.05	13.33
631.241	13.39
631.432	13.39
631.623	13.38
631.813	13.36
632.004	13.34
632.195	13.4
632.385	13.38
632.576	13.33
632.767	13.3
632.957	13.35
633.148	13.36
633.339	13.33
633.529	13.36
633.72	13.39
633.91	13.27
634.101	13.32
634.292	13.25
634.482	13.17
634.673	13.14
634.863	13.19
635.054	13.08
635.244	13.13
635.435	13.12
635.625	13.09
635.815	13.12
636.006	13.25
636.196	13.23
636.387	13.25
636.577	13.31
636.767	13.4
636.958	13.36
637.148	13.39
637.338	13.36
637.529	13.37
637.719	13.41
637.909	13.35
638.099	13.34
638.29	13.33
638.48	13.42
638.67	13.44
638.86	13.43
639.05	13.47
639.241	13.57
639.431	13.58
639.621	13.64
639.811	13.67
640.001	13.63
640.191	13.68
640.381	13.68
640.571	13.54
640.761	13.56
640.951	13.53
641.141	13.52
641.331	13.47
641.521	13.48
641.711	13.46
641.901	13.44
642.091	13.46
642.281	13.39
642.471	13.37
642.661	13.42
642.851	13.51
643.041	13.51
643.231	13.51
643.42	13.56
643.61	13.53
643.8	13.52
643.99	13.6
644.18	13.6
644.369	13.69
644.559	13.82
644.749	13.82
644.939	13.72
645.128	13.7
645.318	13.68
645.508	13.65
645.697	13.65
645.887	13.73
646.076	13.63
646.266	13.68
646.456	13.67
646.645	13.67
646.835	13.67
647.024	13.7
647.214	13.67
647.403	13.7
647.593	13.78
647.782	13.81
647.972	13.72
648.161	13.65
648.351	13.69
648.54	13.61
648.73	13.44
648.919	13.55
649.108	13.58
649.298	13.66
649.487	13.69
649.677	13.61
649.866	13.57
650.055	13.59
650.244	13.62
650.434	13.51
650.623	13.54
650.812	13.56
651.002	13.49
651.191	13.35
651.38	13.43
651.569	13.38
651.758	13.42
651.947	13.49
652.137	13.45
652.326	13.54
652.515	13.59
652.704	13.75
652.893	13.88
653.082	13.94
653.271	14.12
653.46	14.01
653.649	14.1
653.838	14.06
654.027	14.16
654.216	14.18
654.405	14.21
654.594	14.29
654.783	14.04
654.972	14.02
655.161	13.92
655.35	13.91
655.539	13.9
655.728	13.83
655.916	13.76
656.105	13.67
656.294	13.71
656.483	13.6
656.672	13.58
656.86	13.68
657.049	13.68
657.238	13.71
657.427	13.56
657.615	13.63
657.804	13.64
657.993	13.72
658.181	13.66
658.37	13.65
658.559	13.64
658.747	13.59
658.936	13.58
659.125	13.6
659.313	13.66
659.502	13.78
659.69	13.73
659.879	13.73
660.067	13.74
660.256	13.83
660.444	13.88
660.633	13.98
660.821	14.01
661.01	14.12
661.198	14.12
661.387	14.15
661.575	14.15
661.763	14.25
661.952	14.22
662.14	14.24
662.328	14.24
662.517	14.29
662.705	14.21
662.893	14.2
663.082	14.12
663.27	14.05
663.458	13.97
663.646	14.02
663.834	14.1
664.023	14.2
664.211	14.24
664.399	14.15
664.587	14.15
664.775	14.21
664.963	14.26
665.152	14.3
665.34	14.37
665.528	14.47
665.716	14.5
665.904	14.26
666.092	14.36
666.28	14.36
666.468	14.46
666.656	14.44
666.844	14.51
667.032	14.51
667.22	14.52
667.408	14.49
667.596	14.47
667.784	14.45
667.971	14.55
668.159	14.43
668.347	14.39
668.535	14.26
668.723	14.21
668.911	14.16
669.098	14.07
669.286	14.05
669.474	14.22
669.662	14.18
669.849	14.14
670.037	14.06
670.225	13.99
670.413	13.95
670.6	14.15
670.788	14.14
670.976	14.12
671.163	14.26
671.351	14.22
671.538	14.14
671.726	14.23
671.913	14.18
672.101	14.21
672.289	14.29
672.476	14.47
672.664	14.37
672.851	14.41
673.039	14.42
673.226	14.4
673.413	14.48
673.601	14.4
673.788	14.34
673.976	14.49
674.163	14.58
674.35	14.5
674.538	14.39
674.725	14.46
674.912	14.48
675.1	14.54
675.287	14.48
675.474	14.57
675.662	14.7
675.849	14.66
676.036	14.55
676.223	14.54
676.411	14.55
676.598	14.53
676.785	14.49
676.972	14.48
677.159	14.43
677.346	14.5
677.533	14.39
677.721	14.32
677.908	14.37
678.095	14.46
678.282	14.47
678.469	14.51
678.656	14.52
678.843	14.53
679.03	14.5
679.217	14.54
679.404	14.46
679.591	14.45
679.778	14.41
679.964	14.34
680.151	14.29
680.338	14.33
680.525	14.33
680.712	14.3
680.899	14.38
681.086	14.44
681.272	14.34
681.459	14.52
681.646	14.54
681.833	14.6
682.02	14.62
682.206	14.68
682.393	14.58
682.58	14.54
682.766	14.65
682.953	14.54
683.14	14.58
683.326	14.77
683.513	14.68
683.7	14.67
683.886	14.7
684.073	14.73
684.259	14.72
684.446	14.86
684.632	14.9
684.819	14.77
685.005	14.79
685.192	14.78
685.378	14.64
685.565	14.52
685.751	14.53
685.938	14.43
686.124	14.45
686.31	14.43
686.497	14.42
686.683	14.53
686.87	14.64
687.056	14.6
687.242	14.58
687.429	14.52
687.615	14.66
687.801	14.73
687.987	14.71
688.174	14.71
688.36	14.71
688.546	14.75
688.732	14.6
688.918	14.55
689.105	14.67
689.291	14.66
689.477	14.81
689.663	14.95
689.849	14.91
690.035	14.96
690.221	15.01
690.407	14.94
690.593	14.89
690.779	15
690.965	15.09
691.151	15.13
691.337	15.26
691.523	15.38
691.709	15.22
691.895	15.26
692.081	15.35
692.267	15.33
692.453	15.32
692.639	15.36
692.825	15.37
693.011	15.28
693.196	15.09
693.382	15.07
693.568	14.93
693.754	14.97
693.94	15
694.125	15.01
694.311	15.07
694.497	15.35
694.682	15.27
694.868	15.25
695.054	15.24
695.239	15.27
695.425	15.23
695.611	15.25
695.796	15.23
695.982	15.23
696.168	15.19
696.353	15.22
696.539	15.08
696.724	15.15
696.91	15.28
697.095	15.26
697.281	15.27
697.466	15.16
697.652	15.01
697.837	15.05
698.023	15
698.208	14.96
698.393	14.93
698.579	14.89
698.764	14.87
698.949	14.76
699.135	14.75
699.32	14.83
699.505	14.91
699.691	15.06
699.876	15.03
700.061	15.05
700.246	15.09
700.432	15.03
700.617	15.11
700.802	15.19
700.987	15.17
701.172	15.34
701.358	15.28
701.543	15.46
701.728	15.57
701.913	15.61
702.098	15.66
702.283	15.67
702.468	15.69
702.653	15.58
702.838	15.58
703.023	15.69
703.208	15.73
703.393	15.83
703.578	15.69
703.763	15.63
703.948	15.55
704.133	15.57
704.318	15.5
704.503	15.71
704.688	15.93
704.873	15.99
705.057	16.05
705.242	16.07
705.427	15.99
705.612	16.09
705.797	16.01
705.981	16.03
706.166	15.98
706.351	16.13
706.536	16.05
706.72	15.93
706.905	15.85
707.09	15.78
707.274	15.67
707.459	15.64
707.644	15.47
707.828	15.38
708.013	15.42
708.197	15.53
708.382	15.34
708.567	15.32
708.751	15.23
708.936	15.22
709.12	15.25
709.305	15.18
709.489	15.33
709.673	15.37
709.858	15.47
710.042	15.54
710.227	15.46
710.411	15.54
710.596	15.47
710.78	15.6
710.964	15.63
711.149	15.66
711.333	15.83
711.517	15.78
711.702	15.83
711.886	15.84
712.07	15.62
712.254	15.65
712.438	15.74
712.623	15.88
712.807	15.94
712.991	15.86
713.175	15.82
713.359	15.88
713.544	15.8
713.728	15.83
713.912	15.83
714.096	16.06
714.28	16.07
714.464	16.12
714.648	15.96
714.832	15.93
715.016	15.95
715.2	15.78
715.384	15.67
715.568	15.74
715.752	15.65
715.936	15.57
716.12	15.53
716.304	15.47
716.488	15.43
716.671	15.57
716.855	15.46
717.039	15.5
717.223	15.67
717.407	15.61
717.59	15.59
717.774	15.62
717.958	15.75
718.142	15.66
718.325	15.82
718.509	15.88
718.693	15.89
718.877	15.95
719.06	15.99
719.244	15.91
719.428	15.81
719.611	15.86
719.795	15.83
719.978	15.82
720.162	15.82
720.345	15.73
720.529	15.5
720.713	15.35
720.896	15.39
721.08	15.35
721.263	15.31
721.446	15.43
721.63	15.26
721.813	15.25
721.997	15.35
722.18	15.45
722.364	15.46
722.547	15.84
722.73	15.81
722.914	15.83
723.097	15.71
723.28	15.89
723.464	16.01
723.647	16.34
723.83	16.47
724.013	16.28
724.197	16.48
724.38	16.43
724.563	16.21
724.746	16.48
724.929	16.42
725.112	16.51
725.296	16.34
725.479	16.34
725.662	16.02
725.845	15.97
726.028	15.73
726.211	15.58
726.394	15.57
726.577	15.42
726.76	15.14
726.943	15.12
727.126	15.12
727.309	15.33
727.492	15.39
727.675	15.54
727.858	15.49
728.041	15.76
728.224	15.61
728.407	15.57
728.589	15.48
728.772	15.67
728.955	15.86
729.138	15.83
729.321	15.76
729.503	15.69
729.686	15.7
729.869	15.79
730.052	15.87
730.234	15.9
730.417	15.96
730.6	16.21
730.782	16.1
730.965	16.02
731.148	15.99
731.33	15.9
731.513	15.77
731.695	15.72
731.878	15.67
732.061	15.54
732.243	15.58
732.426	15.54
732.608	15.66
732.791	15.63
732.973	15.62
733.156	15.83
733.338	15.9
733.52	15.9
733.703	15.96
733.885	16.11
734.068	16.01
734.25	16.08
734.432	16.25
734.615	16.3
734.797	16.44
734.979	16.38
735.162	16.21
735.344	16.06
735.526	16.3
735.708	16.4
735.891	16.43
736.073	16.81
736.255	17.07
736.437	17.06
736.619	16.81
736.802	16.73
736.984	16.74
737.166	16.94
737.348	17.05
737.53	16.66
737.712	16.61
737.894	16.61
738.076	16.63
738.258	16.38
738.44	16.24
738.622	16.27
738.804	16.24
738.986	16.26
739.168	16.16
739.35	16.38
739.532	16.8
739.714	16.65
739.896	16.44
740.078	16.42
740.259	16.6
740.441	16.65
740.623	16.86
740.805	17.15
740.987	17.34
741.168	17.25
741.35	17.22
741.532	17.28
741.714	17.57
741.895	17.7
742.077	17.57
742.259	17.27
742.44	17.23
742.622	16.93
742.804	16.86
742.985	16.59
743.167	16.63
743.348	16.53
743.53	16.58
743.711	16.39
743.893	16.16
744.075	16.04
744.256	16.1
744.438	16.09
744.619	16.37
744.8	16.16
744.982	16.25
745.163	16.34
745.345	16.26
745.526	16.13
745.707	16.02
745.889	16.23
746.07	16.39
746.252	16.61
746.433	16.67
746.614	16.68
746.795	17.09
746.977	17.24
747.158	17.11
747.339	17.19
747.52	17.16
747.702	17.26
747.883	17.05
748.064	16.93
748.245	16.88
748.426	16.72
748.607	16.42
748.788	16.01
748.97	16.03
749.151	16.28
749.332	16.48
749.513	16.4
749.694	16.36
749.875	16.51
750.056	16.61
750.237	16.55
750.418	16.75
750.599	16.7
750.78	17
750.96	17.02
751.141	16.98
751.322	17.06
751.503	17.13
751.684	17.12
751.865	17.45
752.046	17.82
752.226	17.86
752.407	17.78
752.588	18.05
752.769	18.13
752.949	18.01
753.13	17.76
753.311	17.63
753.492	17.25
753.672	17.13
753.853	16.52
754.034	16.44
754.214	16.48
754.395	16.55
754.575	16.78
754.756	16.31
754.937	16.17
755.117	16.75
755.298	16.6
755.478	17.19
755.659	17.5
755.839	17.94
756.02	17.7
756.2	17.44
756.381	17.07
756.561	16.7
756.741	17.29
756.922	17.29
757.102	17.07
757.283	17.06
757.463	16.86
757.643	16.66
757.823	16.48
758.004	16.19
758.184	16.62
758.364	17.13
758.545	17.28
758.725	16.96
758.905	16.98
759.085	16.99
759.265	16.85
759.446	16.98
759.626	17.35
759.806	17.49
759.986	17.77
760.166	17.45
760.346	17.2
760.526	17.06
760.706	17.11
760.886	17.13
761.066	17
761.246	17.25
761.426	17.21
761.606	16.89
761.786	16.93
761.966	17.19
762.146	17.2
762.326	17.24
762.506	17.25
762.686	17.29
762.866	17.27
763.046	17.18
763.225	17.42
763.405	17.21
763.585	17.27
763.765	17.23
763.945	16.92
764.124	16.88
764.304	17.08
764.484	17.2
764.664	17.13
764.843	17.16
765.023	17.31
765.203	17.17
765.382	17.5
765.562	17.58
765.741	17.74
765.921	17.93
766.101	18.32
766.28	17.94
766.46	17.96
766.639	18.1
766.819	18.08
766.998	18.35
767.178	18.15
767.357	18.18
767.537	17.74
767.716	17.84
767.896	17.83
768.075	17.67
768.254	17.92
768.434	18.16
768.613	17.77
768.792	17.83
768.972	17.86
769.151	17.81
769.33	17.98
769.51	18.42
769.689	18.18
769.868	18.39
770.047	18.21
770.226	18.68
770.406	18.84
770.585	19.25
770.764	19.51
770.943	19.16
771.122	19.1
771.301	19.07
771.48	19.44
771.66	19.19
771.839	19.17
772.018	19.33
772.197	18.87
772.376	18.62
772.555	18.4
772.734	18.5
772.913	18.73
773.092	19.18
773.271	19.23
773.449	18.81
773.628	19.2
773.807	19.09
773.986	18.84
774.165	19.09
774.344	18.98
774.523	19.22
774.701	18.85
774.88	18.94
775.059	18.91
775.238	18.59
775.417	18.41
775.595	18.45
775.774	18.59
775.953	19.22
776.131	18.7
776.31	18.74
776.489	18.73
776.667	18.74
776.846	18.67
777.025	18.44
777.203	18.24
777.382	18.19
777.56	18.18
777.739	17.82
777.917	17.41
778.096	17.76
778.274	18.1
778.453	17.98
778.631	17.77
778.81	17.42
778.988	17.48
779.166	17.67
779.345	17.93
779.523	17.95
779.702	18.34
779.88	18.38
780.058	18.45
780.237	17.72
780.415	18.35
780.593	18.57
780.771	18.71
780.95	18.85
781.128	19.14
781.306	19.43
781.484	19.54
781.662	19.45
781.841	19.17
782.019	18.58
782.197	19.32
782.375	18.56
782.553	18.8
782.731	19.48
782.909	19.27
783.087	19.07
783.265	19.17
783.443	18.97
783.621	18.55
783.799	18.98
783.977	19.6
784.155	19
784.333	19.04
784.511	18.84
784.689	18.23
784.867	18.59
785.045	18.38
785.223	17.95
785.4	17.49
785.578	17.62
785.756	17.53
785.934	17.19
786.112	17.08
786.289	17.32
786.467	17.24
786.645	17.57
786.823	17.21
787	17.22
787.178	17.33
787.356	17.69
787.533	17.89
787.711	18.16
787.889	18.65
788.066	19.07
788.244	18.78
788.421	19.18
788.599	19
788.776	18.92
788.954	19.06
789.131	19.31
789.309	18.97
789.486	18.88
789.664	18.59
789.841	18.23
790.019	18.16
790.196	18.48
790.373	18.29
790.551	17.92
790.728	18.62
790.906	18.93
791.083	17.85
791.26	18.23
791.437	18.04
791.615	18.05
791.792	18.37
791.969	18.15
792.146	17.78
792.324	17.8
792.501	18.45
792.678	17.89
792.855	17.27
793.032	17.99
793.209	18.16
793.387	18.54
793.564	18.49
793.741	18.23
793.918	18.28
794.095	18.92
794.272	19.29
794.449	18.85
794.626	18.99
794.803	19.19
794.98	19.25
795.157	19.13
795.334	18.88
795.511	18.69
795.688	18.3
795.864	18.77
796.041	18.9
796.218	18.34
796.395	18.71
796.572	18.53
796.749	18.33
796.925	18.61
797.102	18.92
797.279	19.48
797.456	19.83
797.632	20.04
797.809	19.58
797.986	19.13
798.162	19.59
798.339	19.33
798.516	19.94
798.692	20.52
798.869	20.61
799.046	20.69
799.222	20.57
799.399	20.62
799.575	21.47
799.752	21.72
799.928	21.49
800.105	21.34
800.281	21.55
800.458	20.99
800.634	20.56
800.811	20.41
800.987	19.95
801.163	19.62
801.34	19.11
801.516	18.44
801.692	18.67
801.869	19.35
802.045	19.62
802.221	19.34
802.398	19.35
802.574	19.4
802.75	19.16
802.926	19.09
803.103	18.51
803.279	19.58
803.455	20.11
803.631	20.51
803.807	19.99
803.983	19.8
804.16	19.79
804.336	19.69
804.512	19.98
804.688	20.26
804.864	21.11
805.04	21.86
805.216	21.28
805.392	20.3
805.568	19.27
805.744	20.55
805.92	20.87
806.096	20.73
806.272	20.49
806.448	20.41
806.623	19.39
806.799	18.73
806.975	19.09
807.151	18.9
807.327	18.93
807.503	19.38
807.678	18.34
807.854	17.68
808.03	18.49
808.206	18.87
808.381	18.9
808.557	20.16
808.733	19.85
808.908	19.73
809.084	19.9
809.26	20.38
809.435	20.37
809.611	20.29
809.787	20.48
809.962	19.62
810.138	19.18
810.313	19.34
810.489	18.38
810.664	18.56
810.84	18.22
811.015	18.4
811.191	18.42
811.366	17.79
811.542	17.29
811.717	17.71
811.892	18.84
812.068	20.05
812.243	19.86
812.419	20.48
812.594	20.32
812.769	20.86
812.944	20.71
813.12	20.71
813.295	21.23
813.47	22.21
813.645	21.48
813.821	20.95
813.996	20.89
814.171	21.13
814.346	20.86
814.521	21.14
814.697	20.4
814.872	20.41
815.047	20.35
815.222	20.17
815.397	19.87
815.572	20.31
815.747	20.73
815.922	20.28
816.097	20.34
816.272	20.49
816.447	20.37
816.622	21.26
816.797	20.87
816.972	21.06
817.147	21.42
817.322	20.79
817.496	20.68
817.671	20.11
817.846	20.01
818.021	19.73
818.196	19.83
818.371	20.33
818.545	20.23
818.72	20.13
818.895	19.99
819.069	19.99
819.244	20.6
819.419	20.46
819.594	20.18
819.768	19.69
819.943	19.47
820.117	19.35
820.292	19.14
820.467	18.91
820.641	19.14
820.816	19
820.99	18.89
821.165	18.76
821.339	18.72
821.514	18.53
821.688	18.56
821.863	18.51
822.037	18.5
822.212	18.41
822.386	18.33
822.56	18.19
822.735	18.12
822.909	18.19
823.084	18.19
823.258	18.19
823.432	18.38
823.606	18.46
823.781	18.59
823.955	18.59
824.129	18.64
824.303	18.74
824.478	18.9
824.652	18.99
824.826	18.59
825	18.75
825.174	18.6
825.348	18.45
825.523	18.36
825.697	18.22
825.871	18.41
826.045	18.56
826.219	18.77
826.393	18.81
826.567	18.98
826.741	19.27
826.915	19.11
827.089	19.24
827.263	19.34
827.437	19.34
827.611	19.4
827.784	19.07
827.958	19.05
828.132	18.92
828.306	18.89
828.48	18.69
828.654	18.78
828.827	18.66
829.001	18.91
829.175	19.07
829.349	19.31
829.522	19.61
829.696	20.46
829.87	21.11
830.044	21.67
830.217	21.82
830.391	22.03
830.565	22.31
830.738	22.11
830.912	21.79
831.085	22
831.259	22.11
831.432	22.06
831.606	21.18
831.779	21.22
831.953	20.59
832.126	20.39
832.3	20.59
832.473	20.05
832.647	20.15
832.82	20.12
832.994	19.92
833.167	19.99
833.34	19.83
833.514	19.64
833.687	19.08
833.86	18.99
834.034	18.9
834.207	19.07
834.38	18.65
834.553	18.97
834.727	18.77
834.9	18.73
835.073	18.25
835.246	18.25
835.419	18.82
835.593	19.25
835.766	19.4
835.939	19.74
836.112	19.32
836.285	20.21
836.458	20.75
836.631	21.14
836.804	21.23
836.977	20.96
837.15	20.61
837.323	20.57
837.496	20.53
837.669	20.57
837.842	20.4
838.015	20.78
838.188	20.37
838.361	19.57
838.533	19.21
838.706	19.13
838.879	20.15
839.052	20.54
839.225	19.69
839.398	19.49
839.57	19.07
839.743	18.58
839.916	18.08
840.088	18.31
840.261	18.21
840.434	18.87
840.607	18.43
840.779	18.64
840.952	19.41
841.124	20.78
841.297	20.31
841.47	21.07
841.642	21.09
841.815	20.46
841.987	20.68
842.16	20.26
842.332	19.55
842.505	19.74
842.677	19.7
842.85	19.36
843.022	19.41
843.194	21.42
843.367	22.04
843.539	23.2
843.712	23.81
843.884	23.53
844.056	23.37
844.229	25.14
844.401	26.35
844.573	27
844.745	27.3
844.918	25.5
845.09	24.62
845.262	22.96
845.434	24.12
845.606	25.35
845.779	26.44
845.951	28.66
846.123	28.65
846.295	29.03
846.467	26.13
846.639	25.14
846.811	26.06
846.983	26.39
847.155	27.37
847.327	27.57
847.499	28.62
847.671	28.32
847.843	27.45
848.015	23.88
848.187	23.62
848.359	25.77
848.531	25.65
848.703	25.29
848.875	26.56
849.047	26.51
849.218	24.55
849.39	23.06
849.562	24.49
849.734	22.82
849.905	26.49
850.077	26.59
850.249	26.47
850.421	27.93
850.592	27.99
850.764	28.19
850.936	29.54
851.107	29.49
851.279	28.43
851.451	27.85
851.622	29.46
851.794	30.06
851.965	30.2
852.137	30.35
852.308	28.13
852.48	29.14
852.651	26.51
852.823	26.35
852.994	27.92
853.166	29.27
853.337	30.34
853.509	29.76
853.68	29.27
853.851	30.97
854.023	30.85
854.194	32.95
854.365	33.01
854.537	32.96
854.708	32.97
854.879	31.51
855.05	32.19
855.222	30.71
855.393	29.69
855.564	27.89
855.735	26.22
855.906	26.99
856.078	26.98
856.249	27.93
856.42	26.51
856.591	26.09
856.762	27.75
856.933	28.71
857.104	27.44
857.275	28.89
857.446	28.66
857.617	26.7
857.788	26.37
857.959	25.18
858.13	23.28
858.301	24.19
858.472	23.64
858.643	22.21
858.814	20.63
858.985	21.94
859.155	23.34
859.326	24.86
859.497	27.12
859.668	26.05
859.839	26.68
860.009	28.13
860.18	28.37
860.351	29.13
860.522	30.37
860.692	31.5
860.863	33.3
861.034	30.27
861.204	28.89
861.375	27
861.546	28.66
861.716	26.7
861.887	24.94
862.057	27.16
862.228	27.41
862.398	25.43
862.569	26.58
862.739	24.84
862.91	27.92
863.08	29.73
863.251	27.9
863.421	24.55
863.592	24.93
863.762	26.83
863.932	24.34
864.103	22.41
864.273	22.03
864.443	21.62
864.614	21.75
864.784	21.09
864.954	21.06
865.125	24.59
865.295	28.13
865.465	29.1
865.635	28.29
865.805	30.32
865.976	28.78
866.146	30.43
866.316	28.27
866.486	29.48
866.656	28.09
866.826	26.85
866.996	28.24
867.166	27
867.336	26.5
867.506	27.52
867.676	26.89
867.846	28.86
868.016	26.74
868.186	23.75
868.356	24.43
868.526	24.06
868.696	22.92
868.866	23.12
869.036	21.24
869.206	22.62
869.376	22.97
869.545	21.13
869.715	21.47
869.885	23.92
870.055	28.19
870.224	24.61
870.394	26.78
870.564	30.47
870.734	27.29
870.903	28.57
871.073	27.55
871.243	28.68
871.412	28.39
871.582	29.56
871.751	29.53
871.921	28.77
872.091	28.09
872.26	27.72
872.43	23.82
872.599	27.41
872.769	26.82
872.938	28.36
873.108	27.06
873.277	27.86
873.446	29.1
873.616	27.13
873.785	27.05
873.955	28.84
874.124	28.2
874.293	27.55
874.463	25.1
874.632	25
874.801	24.84
874.971	24.53
875.14	27.68
875.309	25.27
875.478	27.85
875.647	28.15
875.817	27.33
875.986	26.22
876.155	26.75
876.324	26.4
876.493	30.61
876.662	30.88
876.831	30.37
877	27.99
877.17	31.27
877.339	29.73
877.508	30.27
877.677	33.04
877.846	33.22
878.015	34.13
878.184	36.12
878.352	34.39
878.521	32.9
878.69	33.05
878.859	31.67
879.028	28.99
879.197	27.42
879.366	26.49
879.534	24.09
879.703	23.85
879.872	24.47
880.041	24.12
880.21	23.23
880.378	22.42
880.547	22.69
880.716	23.02
880.884	23.03
881.053	23.22
881.222	22.92
881.39	23.29
881.559	23
881.727	22.4
881.896	21.99
882.065	21.68
882.233	22.23
882.402	22.06
882.57	21.84
882.739	21.45
882.907	21.52
883.076	21.91
883.244	21.63
883.412	21.79
883.581	21.87
883.749	22.21
883.918	22.98
884.086	23.03
884.254	22.64
884.423	22.89
884.591	23.53
884.759	22.73
884.927	22.94
885.096	23.26
885.264	23.43
885.432	24.42
885.6	22.94
885.769	22.21
885.937	21.35
886.105	21.09
886.273	21.16
886.441	21.6
886.609	23.17
886.777	20.47
886.945	20.69
887.113	21.3
887.281	19.37
887.449	21.87
887.617	21.61
887.785	21.59
887.953	24.27
888.121	23.9
888.289	25.01
888.457	24.38
888.625	27.32
888.793	25.57
888.961	25.53
889.129	27.75
889.296	26.01
889.464	26.88
889.632	27.9
889.8	25.39
889.967	25.61
890.135	23.71
