Data from JASIL_3278_Reflection_2.txt Node
Date: Tue Nov 17 19:10:51 EST 2015
User: Geneva
Spectrometer: USB4E03002
Autoset integration time: false
Trigger mode: 4
Integration Time (sec): 1.000000E-1
Scans to average: 10
Electric dark correction enabled: false
Nonlinearity correction enabled: false
Boxcar width: 5
Stray light correction enabled: false
XAxis mode: Wavelengths
Stop averaging: false
Number of Pixels in Spectrum: 3648
>>>>>Begin Spectral Data<<<<<
177.575	192.65
177.794	65.66
178.014	240.79
178.233	1175
178.452	-300
178.672	63
178.891	65.62
179.11	141.88
179.33	138.35
179.549	100
179.768	155.43
179.987	213.6
180.207	97.22
180.426	375.36
180.645	-8.65
180.864	19.71
181.084	44.38
181.303	63.37
181.522	67.54
181.741	79.63
181.96	86.51
182.179	85.27
182.398	105.45
182.618	105.99
182.837	97.89
183.056	-391.67
183.275	14.48
183.494	9.97
183.713	42.89
183.932	28.44
184.151	44.54
184.37	41.9
184.589	38.58
184.808	33.72
185.027	15.98
185.246	-6.57
185.465	1.35
185.684	-1335
185.903	128.21
186.122	152.59
186.341	78.38
186.56	29.12
186.779	62.5
186.998	75.19
187.216	82.34
187.435	71.91
187.654	91.22
187.873	138.82
188.092	79.3
188.311	58.65
188.53	39.04
188.748	49.6
188.967	112.47
189.186	71.13
189.405	40.67
189.623	17.26
189.842	-28.38
190.061	-16.21
190.28	-4.44
190.498	-115.11
190.717	4087.5
190.936	381.55
191.154	454.92
191.373	498.1
191.592	6009.09
191.81	-410.79
192.029	2765.38
192.248	-5840
192.466	-240.6
192.685	-831.34
192.904	-114.59
193.122	-72.67
193.341	-57.94
193.559	-52.43
193.778	-18.18
193.996	20.05
194.215	10.03
194.433	76.49
194.652	31.31
194.87	97.65
195.089	57.53
195.307	131.82
195.526	975.86
195.744	-329.82
195.963	244.09
196.181	126.74
196.399	140.32
196.618	113.49
196.836	135.23
197.055	166.96
197.273	181.55
197.491	122.83
197.71	177.39
197.928	246.58
198.146	63.35
198.365	100.56
198.583	74.29
198.801	63.33
199.019	106.73
199.238	89.16
199.456	61.27
199.674	53.14
199.892	70.89
200.111	79.73
200.329	46.09
200.547	43.36
200.765	25.36
200.983	52.99
201.202	64.09
201.42	51.46
201.638	56.25
201.856	255.1
202.074	-184.62
202.292	194.12
202.51	685.19
202.728	138.58
202.946	107.26
203.165	127.04
203.383	192.74
203.601	417.33
203.819	167.61
204.037	193.4
204.255	134.55
204.473	123.62
204.691	103.07
204.909	110.46
205.127	89.81
205.345	90.57
205.562	49.36
205.78	-23.48
205.998	14.63
206.216	23.89
206.434	29.08
206.652	25
206.87	37.24
207.088	42.26
207.306	34.84
207.523	54.73
207.741	69.6
207.959	89.17
208.177	74.46
208.395	78.05
208.612	66.22
208.83	42.17
209.048	38.01
209.266	35.52
209.483	33.42
209.701	34.69
209.919	14.39
210.136	-11.62
210.354	-26.81
210.572	-57
210.79	-57.91
211.007	-66.82
211.225	-44.63
211.442	-34.02
211.66	-27.51
211.878	-12.31
212.095	-98.44
212.313	-116.03
212.53	-84.95
212.748	-80.16
212.966	-95.33
213.183	-82.39
213.401	-88.44
213.618	-80.18
213.836	-97.95
214.053	-161.3
214.271	-89.66
214.488	276.19
214.705	189.29
214.923	221.54
215.14	207.53
215.358	154.39
215.575	183.33
215.793	198.64
216.01	168.94
216.227	114.07
216.445	86.25
216.662	77.61
216.879	99.46
217.097	108.47
217.314	103.07
217.531	80.76
217.749	73.98
217.966	45.22
218.183	7.81
218.4	6.77
218.618	-31.21
218.835	-31.03
219.052	-21.57
219.269	-71.7
219.487	-66.87
219.704	-72.68
219.921	-53.49
220.138	-53.7
220.355	-15.67
220.572	8.49
220.79	21.34
221.007	48.92
221.224	40.52
221.441	27.51
221.658	47.35
221.875	46.41
222.092	37.04
222.309	55.6
222.526	64.23
222.743	49.58
222.96	79.89
223.177	40.13
223.394	19.48
223.611	59.92
223.828	53.09
224.045	29.65
224.262	27.25
224.479	35.37
224.696	11.89
224.913	0.6
225.13	6.87
225.347	-0.93
225.564	15.23
225.781	2.51
225.997	8.77
226.214	8.05
226.431	5.72
226.648	14.54
226.865	15.35
227.082	11.14
227.298	6.77
227.515	6.67
227.732	9.44
227.949	5.32
228.165	13.53
228.382	7.28
228.599	5.32
228.816	8.63
229.032	0.28
229.249	-0.86
229.466	9.86
229.682	13.73
229.899	14.95
230.116	11.13
230.332	9.95
230.549	-0.97
230.765	1.36
230.982	14.16
231.199	4.61
231.415	8.1
231.632	11.07
231.848	-14.37
232.065	-8.2
232.281	-16.15
232.498	-21.71
232.714	-14.38
232.931	-3.75
233.147	2.88
233.364	-7.17
233.58	-3.17
233.797	6.24
234.013	-4.25
234.23	6.17
234.446	-8.17
234.662	-4.79
234.879	7.89
235.095	-4.32
235.312	-17.27
235.528	-22.15
235.744	-14.31
235.961	-8.61
236.177	-20.64
236.393	-4.37
236.61	-4.16
236.826	-0.65
237.042	1.6
237.258	2.88
237.475	14.46
237.691	24.89
237.907	15.13
238.123	11.9
238.339	8.61
238.556	11.87
238.772	15.67
238.988	16.98
239.204	15.28
239.42	11.42
239.636	7.88
239.853	4.28
240.069	0.5
240.285	6.7
240.501	7.41
240.717	7.55
240.933	5.64
241.149	1.54
241.365	-1.66
241.581	2.09
241.797	0.23
242.013	0.22
242.229	2.49
242.445	2.06
242.661	1.58
242.877	0.64
243.093	0.15
243.309	2.96
243.525	4.39
243.741	8.48
243.957	5.21
244.173	11.26
244.388	7.73
244.604	5.39
244.82	5.45
245.036	5.12
245.252	9.07
245.468	7.35
245.683	5.83
245.899	6.24
246.115	3.7
246.331	4.33
246.547	3
246.762	3.33
246.978	3.77
247.194	5.75
247.409	6.52
247.625	4.97
247.841	6.78
248.057	8.07
248.272	3.83
248.488	5.14
248.703	8.4
248.919	12.38
249.135	13.14
249.35	13.41
249.566	11.11
249.782	10.98
249.997	10.16
250.213	10.39
250.428	6.64
250.644	9.88
250.859	10.64
251.075	8.46
251.29	4.09
251.506	3.97
251.721	6.94
251.937	5.45
252.152	-1.22
252.368	-1.4
252.583	-0.6
252.798	3.75
253.014	5.77
253.229	5.42
253.445	5.81
253.66	4.41
253.875	2.84
254.091	0.04
254.306	8.38
254.521	12.53
254.737	9.53
254.952	5.28
255.167	1.89
255.383	2.16
255.598	4.05
255.813	4.04
256.028	8.42
256.244	8.33
256.459	7.94
256.674	3.29
256.889	4.91
257.104	4.89
257.32	8
257.535	8.21
257.75	7.82
257.965	6.63
258.18	6.64
258.395	6.39
258.61	7.57
258.826	8.07
259.041	8.83
259.256	9.27
259.471	9.69
259.686	8.69
259.901	9.03
260.116	9.17
260.331	10.1
260.546	9.66
260.761	9.71
260.976	8.84
261.191	5.26
261.406	3.65
261.621	3.86
261.836	4.5
262.05	6.78
262.265	5.43
262.48	4.67
262.695	2.68
262.91	3.29
263.125	7.58
263.34	7.32
263.555	9.64
263.769	7.5
263.984	7.65
264.199	6.76
264.414	1.62
264.629	2.33
264.843	3.29
265.058	4.05
265.273	4.17
265.488	-2.12
265.702	-1.02
265.917	0.56
266.132	0.64
266.346	-0.7
266.561	0.82
266.776	3.75
266.99	4.65
267.205	5.08
267.42	5.79
267.634	5.99
267.849	8.82
268.063	8.75
268.278	8.19
268.492	11.65
268.707	11.31
268.922	9.77
269.136	8.72
269.351	8.56
269.565	6.29
269.78	5.83
269.994	4.38
270.209	3.5
270.423	5.17
270.637	4.95
270.852	2.99
271.066	4.27
271.281	3.73
271.495	5.35
271.709	4.72
271.924	6.02
272.138	6.25
272.353	6.88
272.567	7.78
272.781	7.57
272.996	8.86
273.21	8.35
273.424	5.57
273.638	6.2
273.853	6.42
274.067	6.86
274.281	7.47
274.495	7.47
274.71	8.01
274.924	8.34
275.138	6.44
275.352	5.99
275.566	8.58
275.781	10.31
275.995	9.08
276.209	8.27
276.423	9.28
276.637	9.74
276.851	7.67
277.065	5.91
277.279	5.77
277.493	6.93
277.707	7.39
277.921	4.48
278.135	2.67
278.349	5.31
278.563	5.65
278.777	3.81
278.991	4.65
279.205	7.79
279.419	7.89
279.633	5.99
279.847	8.22
280.061	7.33
280.275	9.21
280.489	10.03
280.703	10.3
280.917	8.76
281.131	9.16
281.344	7.27
281.558	5.66
281.772	5.78
281.986	5.86
282.2	2.68
282.414	2.75
282.627	3.61
282.841	3.31
283.055	3.31
283.269	5.34
283.482	5.33
283.696	6.32
283.91	6.17
284.123	7.36
284.337	8.72
284.551	9.61
284.764	8.71
284.978	7.01
285.192	7.08
285.405	5.32
285.619	3.95
285.833	6.2
286.046	4.22
286.26	3.42
286.473	3.12
286.687	1.15
286.9	0.96
287.114	1.16
287.327	2.1
287.541	1.18
287.754	2.01
287.968	2.95
288.181	-0.02
288.395	1.98
288.608	2.82
288.822	3.38
289.035	4.41
289.248	4.49
289.462	4.43
289.675	3.27
289.889	5.41
290.102	4.43
290.315	4.15
290.529	4.52
290.742	3.55
290.955	4.55
291.169	3.73
291.382	4.44
291.595	4.59
291.808	5.43
292.022	5.93
292.235	5.48
292.448	7.07
292.661	6.59
292.875	7.95
293.088	9.26
293.301	8.5
293.514	7.55
293.727	7.15
293.94	5.61
294.153	5.03
294.367	7.27
294.58	6.18
294.793	6.18
295.006	6.05
295.219	4.71
295.432	5.26
295.645	6.3
295.858	6.15
296.071	6.47
296.284	7.91
296.497	7.72
296.71	5.86
296.923	7.42
297.136	6.57
297.349	6.9
297.562	5.7
297.775	4.87
297.988	3.03
298.201	3.75
298.414	3.06
298.626	4.01
298.839	2.59
299.052	2.56
299.265	0.66
299.478	1
299.691	-1.3
299.903	1.1
300.116	0.45
300.329	2.3
300.542	4.82
300.755	5.43
300.967	4.95
301.18	6.95
301.393	8.01
301.605	8.55
301.818	8.47
302.031	8.49
302.243	8.93
302.456	10.5
302.669	11.21
302.881	8.08
303.094	7.67
303.307	6.16
303.519	5.65
303.732	6.08
303.944	5.97
304.157	6.87
304.37	9.28
304.582	9.15
304.795	8.31
305.007	8.11
305.22	8.65
305.432	6.79
305.645	6.87
305.857	7.63
306.069	6.45
306.282	7.42
306.494	6.28
306.707	6.22
306.919	6.67
307.132	7.9
307.344	9.45
307.556	9.94
307.769	9.88
307.981	9.99
308.193	9.25
308.406	8.38
308.618	7.8
308.83	8.51
309.043	8.35
309.255	7.6
309.467	5.56
309.679	4.48
309.892	3.42
310.104	4.19
310.316	4.49
310.528	5.39
310.74	5.49
310.953	6.47
311.165	6.14
311.377	5.16
311.589	4.69
311.801	6.23
312.013	5.9
312.225	6.98
312.437	9.01
312.649	9.26
312.862	7.95
313.074	8.97
313.286	6.75
313.498	9.04
313.71	9.31
313.922	9.72
314.134	9.37
314.346	8.33
314.558	8.56
314.77	6
314.982	3.73
315.193	3.49
315.405	2.84
315.617	5.5
315.829	2.04
316.041	2.75
316.253	1.44
316.465	2.19
316.677	3.11
316.888	2.86
317.1	3.1
317.312	4.96
317.524	5
317.736	6.93
317.947	5.16
318.159	6.88
318.371	6.42
318.583	8.15
318.794	9.08
319.006	8.87
319.218	8.9
319.43	8.94
319.641	10.48
319.853	10.77
320.064	9.5
320.276	10.54
320.488	11.4
320.699	11.1
320.911	10.14
321.123	7.44
321.334	6.74
321.546	4.89
321.757	5.96
321.969	3.02
322.18	3.31
322.392	4.21
322.603	3.59
322.815	2.04
323.026	2.77
323.238	2.54
323.449	2.7
323.661	3.94
323.872	5.05
324.083	2.91
324.295	5.5
324.506	5.71
324.718	6.52
324.929	5.33
325.14	5.69
325.352	7.24
325.563	9.07
325.774	9.47
325.986	9.47
326.197	11.48
326.408	13.68
326.62	13.18
326.831	13.97
327.042	13.93
327.253	15.47
327.464	15.45
327.676	13.76
327.887	11.27
328.098	11.59
328.309	12.09
328.52	11.76
328.732	10.96
328.943	11.34
329.154	10.61
329.365	10.29
329.576	9.53
329.787	8.76
329.998	8.13
330.209	9.18
330.42	10.16
330.631	11.09
330.842	10.29
331.053	11.37
331.264	11.57
331.475	11.65
331.686	9.62
331.897	10.43
332.108	11.76
332.319	12.74
332.53	12.21
332.741	11.99
332.952	9.96
333.163	9.15
333.374	8.43
333.585	8.22
333.795	8.77
334.006	10.06
334.217	9.86
334.428	8.97
334.639	10.1
334.849	10.14
335.06	8.82
335.271	8.43
335.482	8.86
335.692	10.3
335.903	9.31
336.114	11.12
336.325	11.03
336.535	11.69
336.746	12.59
336.957	12.3
337.167	14.12
337.378	14.64
337.589	15.05
337.799	15.47
338.01	16.08
338.22	15.99
338.431	13.95
338.642	12.45
338.852	11.74
339.063	11.16
339.273	9.82
339.484	9.88
339.694	9.59
339.905	10.03
340.115	9.97
340.326	8.37
340.536	8.95
340.746	8.24
340.957	10.07
341.167	8.99
341.378	8.63
341.588	8.43
341.799	8.3
342.009	8.55
342.219	9.17
342.43	8.92
342.64	9.37
342.85	8.88
343.061	11.01
343.271	11.11
343.481	11.48
343.691	12.7
343.902	13.82
344.112	12.74
344.322	13.28
344.532	14.02
344.743	13.75
344.953	13.59
345.163	12.86
345.373	11.49
345.583	11.72
345.793	12.9
346.004	12.29
346.214	11.88
346.424	12.84
346.634	12.49
346.844	10.51
347.054	10.76
347.264	11.28
347.474	11.83
347.684	11.17
347.894	10.55
348.104	9.94
348.314	10.09
348.524	10.24
348.734	10.08
348.944	9.05
349.154	9.01
349.364	8.13
349.574	7.15
349.784	8.45
349.994	9.28
350.204	8.77
350.413	9
350.623	7.37
350.833	7.42
351.043	7.08
351.253	7.02
351.463	8.69
351.672	8.8
351.882	9.71
352.092	8.67
352.302	8.47
352.511	8.68
352.721	8.25
352.931	8.89
353.141	8.46
353.35	8.6
353.56	10.11
353.77	9.81
353.979	10.94
354.189	10.87
354.399	11
354.608	11.6
354.818	11.7
355.027	12.02
355.237	12.15
355.447	12.18
355.656	11.16
355.866	10.63
356.075	10.43
356.285	10.7
356.494	9.69
356.704	9.73
356.913	8.92
357.123	9.37
357.332	8.89
357.542	8.94
357.751	9.05
357.96	9.74
358.17	9.08
358.379	8.81
358.589	8.49
358.798	7.88
359.007	8.52
359.217	9.27
359.426	8.94
359.635	8.84
359.845	8.79
360.054	8.85
360.263	8.89
360.472	9.49
360.682	9.26
360.891	8.78
361.1	9.27
361.309	8.7
361.519	8.38
361.728	8.49
361.937	8.39
362.146	8.26
362.355	7.96
362.564	8.2
362.774	7.52
362.983	6.76
363.192	7.75
363.401	7.92
363.61	8.3
363.819	8.64
364.028	8.72
364.237	9.62
364.446	9.65
364.655	10.01
364.864	9.56
365.073	10.42
365.282	11.78
365.491	10.69
365.7	10.88
365.909	9.86
366.118	9.06
366.327	8.41
366.536	7.95
366.745	7.31
366.954	6.37
367.162	6.39
367.371	5.68
367.58	5.37
367.789	5.68
367.998	6.21
368.207	6.7
368.415	7.05
368.624	7.73
368.833	8.28
369.042	8.47
369.25	8.79
369.459	8.95
369.668	8.81
369.877	8.59
370.085	8.91
370.294	8.9
370.503	8.56
370.711	7.69
370.92	7.4
371.129	6.18
371.337	6.97
371.546	7.78
371.754	7.41
371.963	7.31
372.171	7.74
372.38	7.15
372.589	6.26
372.797	6.41
373.006	6.87
373.214	7.73
373.423	8.65
373.631	7.82
373.84	7.4
374.048	7.73
374.256	7.78
374.465	7.69
374.673	7.97
374.882	7.66
375.09	7.96
375.298	8.05
375.507	6.86
375.715	6.15
375.923	6.6
376.132	6.2
376.34	6.18
376.548	6.23
376.757	6.56
376.965	6.84
377.173	7.09
377.381	7
377.59	7.26
377.798	7.72
378.006	7.95
378.214	7.12
378.423	7.09
378.631	7.33
378.839	7.52
379.047	7.04
379.255	6.31
379.463	6.26
379.671	5.55
379.879	5.47
380.088	4.54
380.296	4.16
380.504	5.04
380.712	5.47
380.92	5.26
381.128	4.67
381.336	5.14
381.544	5.61
381.752	6.17
381.96	6.94
382.168	6.84
382.376	8.18
382.584	8.37
382.791	8.5
382.999	8.21
383.207	8.15
383.415	8.44
383.623	7.92
383.831	7.67
384.039	7.46
384.247	6.41
384.454	5.55
384.662	5.46
384.87	6.25
385.078	5.76
385.285	5.82
385.493	5.63
385.701	5.94
385.909	6.56
386.116	6.31
386.324	6.57
386.532	7.67
386.739	8.42
386.947	8.53
387.155	8.18
387.362	9.15
387.57	9.32
387.778	9.62
387.985	9.87
388.193	9.94
388.4	10.3
388.608	9.72
388.816	9.47
389.023	8.66
389.231	8.88
389.438	9.01
389.646	8.12
389.853	7.97
390.061	6.95
390.268	6.37
390.475	5.15
390.683	5.11
390.89	4.56
391.098	4.8
391.305	5.43
391.512	5.23
391.72	5.78
391.927	5.72
392.135	5.43
392.342	6.49
392.549	6.3
392.756	6.38
392.964	6.16
393.171	6.22
393.378	6.08
393.586	6.68
393.793	6.04
394	5.24
394.207	5.72
394.414	5.86
394.622	5.51
394.829	5.82
395.036	7.06
395.243	6.85
395.45	7.16
395.657	7.41
395.864	7.5
396.072	7.42
396.279	7.14
396.486	7.05
396.693	7.1
396.9	7.08
397.107	6.42
397.314	5.87
397.521	6.31
397.728	5.82
397.935	5.45
398.142	4.43
398.349	4.82
398.556	5.1
398.763	4.59
398.97	4.85
399.177	4.91
399.383	6.45
399.59	6.12
399.797	6.35
400.004	7.28
400.211	7.47
400.418	8.39
400.625	7.74
400.831	7.97
401.038	8.13
401.245	7.13
401.452	6.82
401.658	6.14
401.865	6.1
402.072	5.81
402.279	5.7
402.485	5.28
402.692	4.61
402.899	5.43
403.105	5.09
403.312	5.22
403.519	5.62
403.725	5.39
403.932	5.75
404.138	5.92
404.345	5.27
404.552	4.95
404.758	4.93
404.965	4.91
405.171	4.62
405.378	4.78
405.584	4.53
405.791	5.05
405.997	5.36
406.204	5.05
406.41	4.78
406.617	5.16
406.823	5.92
407.029	5.93
407.236	5.95
407.442	6.15
407.649	6.15
407.855	7.16
408.061	6.85
408.268	6.38
408.474	6.16
408.68	5.63
408.887	5.33
409.093	4.72
409.299	5.27
409.505	5.48
409.712	5.31
409.918	5.54
410.124	4.97
410.33	5.38
410.537	6.03
410.743	6.14
410.949	6.47
411.155	6.97
411.361	6.94
411.567	5.92
411.773	5.65
411.98	5.58
412.186	6.32
412.392	6.34
412.598	6.05
412.804	6.04
413.01	6.13
413.216	5.94
413.422	5.35
413.628	6.1
413.834	6.33
414.04	6.57
414.246	6.45
414.452	5.47
414.658	4.84
414.864	5.08
415.07	4.92
415.275	4.61
415.481	4.71
415.687	5.37
415.893	5.09
416.099	5.25
416.305	5.12
416.511	5.4
416.716	5.46
416.922	5.48
417.128	4.95
417.334	5.05
417.539	5.09
417.745	5.5
417.951	5.4
418.157	4.95
418.362	4.95
418.568	4.73
418.774	4.56
418.979	4.65
419.185	4.88
419.391	5.14
419.596	4.99
419.802	5.14
420.008	5.1
420.213	5.24
420.419	5.5
420.624	5.53
420.83	5.82
421.035	5.72
421.241	5.76
421.446	6.03
421.652	6.02
421.857	5.96
422.063	5.8
422.268	5.53
422.474	5.4
422.679	5.35
422.885	5.45
423.09	5.4
423.295	6.07
423.501	6.04
423.706	5.82
423.911	5.53
424.117	5.59
424.322	5.28
424.527	5.38
424.733	4.99
424.938	4.82
425.143	4.53
425.349	4.54
425.554	3.95
425.759	4.09
425.964	3.72
426.169	4.17
426.375	3.84
426.58	4.39
426.785	4.57
426.99	4.94
427.195	5.44
427.4	5.71
427.605	5.64
427.811	5.57
428.016	5.06
428.221	5.22
428.426	5.27
428.631	5.54
428.836	5.15
429.041	4.84
429.246	4.38
429.451	4.13
429.656	3.91
429.861	3.5
430.066	3.53
430.271	3.68
430.476	3.62
430.681	3.51
430.886	3.93
431.09	4.26
431.295	4.35
431.5	4.81
431.705	5.02
431.91	5.14
432.115	5.58
432.32	5.42
432.524	5.51
432.729	5.38
432.934	5.51
433.139	5.09
433.343	4.95
433.548	4.94
433.753	4.87
433.958	4.44
434.162	4.55
434.367	4.44
434.572	4.65
434.776	4.48
434.981	4.55
435.186	4.6
435.39	4.92
435.595	4.8
435.799	5.03
436.004	5.19
436.209	5.17
436.413	5.34
436.618	5.41
436.822	5.05
437.027	5.08
437.231	5.42
437.436	4.91
437.64	4.69
437.845	4.8
438.049	4.6
438.253	4.57
438.458	4.73
438.662	4.41
438.867	4.33
439.071	4.7
439.275	4.97
439.48	5.03
439.684	5.03
439.888	5.36
440.093	5.53
440.297	5.7
440.501	5.69
440.706	5.3
440.91	5.26
441.114	5.37
441.318	5.15
441.523	5.04
441.727	4.89
441.931	4.86
442.135	4.55
442.339	4.39
442.543	4.43
442.748	4.52
442.952	5.2
443.156	5.25
443.36	5.02
443.564	4.75
443.768	4.43
443.972	4.39
444.176	4.55
444.38	4.64
444.584	4.58
444.788	4.31
444.992	4.43
445.196	4.07
445.4	4.08
445.604	4.15
445.808	4.46
446.012	4.42
446.216	4.34
446.42	4.19
446.624	4.55
446.828	4.57
447.032	4.61
447.235	4.07
447.439	4.39
447.643	4.53
447.847	4.67
448.051	4.53
448.254	4.81
448.458	4.65
448.662	4.65
448.866	4.07
449.069	4.23
449.273	4.1
449.477	4.65
449.681	4.66
449.884	4.51
450.088	3.97
450.292	3.92
450.495	3.64
450.699	3.9
450.902	4.42
451.106	4.64
451.31	4.56
451.513	4.61
451.717	4.51
451.92	4.51
452.124	4.41
452.327	4.8
452.531	4.71
452.734	4.77
452.938	4.83
453.141	4.66
453.345	4.61
453.548	4.55
453.752	4.72
453.955	4.4
454.158	4.52
454.362	4.65
454.565	4.69
454.769	4.96
454.972	4.87
455.175	4.95
455.379	5.05
455.582	4.83
455.785	4.89
455.988	4.83
456.192	5.03
456.395	4.26
456.598	4.37
456.801	4.32
457.005	4.56
457.208	4.46
457.411	4.52
457.614	4.23
457.817	3.99
458.021	3.96
458.224	3.89
458.427	4.07
458.63	4.13
458.833	3.88
459.036	3.74
459.239	3.69
459.442	3.73
459.645	3.51
459.848	3.61
460.051	3.98
460.254	4.1
460.457	3.94
460.66	4.07
460.863	4.27
461.066	4.63
461.269	4.63
461.472	4.62
461.675	4.41
461.878	4.59
462.081	4.64
462.284	4.82
462.486	4.55
462.689	4.77
462.892	4.8
463.095	4.64
463.298	4.42
463.5	4.56
463.703	4.32
463.906	4.99
464.109	4.83
464.311	4.78
464.514	4.46
464.717	4.53
464.92	4.89
465.122	4.63
465.325	4.71
465.528	4.74
465.73	4.73
465.933	4.37
466.135	4.4
466.338	4.67
466.541	4.89
466.743	5.14
466.946	5.1
467.148	4.93
467.351	4.68
467.553	4.85
467.756	5.05
467.958	5.35
468.161	5.37
468.363	5.21
468.566	5.01
468.768	4.35
468.971	3.91
469.173	3.99
469.375	3.76
469.578	3.86
469.78	3.99
469.983	3.43
470.185	3.01
470.387	3.31
470.59	3.31
470.792	3.43
470.994	3.53
471.196	3.57
471.399	3.4
471.601	3.61
471.803	3.85
472.005	3.76
472.208	4.39
472.41	4.27
472.612	4.72
472.814	4.88
473.016	5.25
473.218	6.02
473.421	6.44
473.623	6.92
473.825	6.92
474.027	6.9
474.229	7.26
474.431	7.01
474.633	7.31
474.835	7.24
475.037	6.79
475.239	6.83
475.441	6.24
475.643	6.19
475.845	5.63
476.047	5.66
476.249	5.62
476.451	5.17
476.653	5.13
476.855	5.13
477.057	5.28
477.258	5.24
477.46	4.63
477.662	4.63
477.864	4.3
478.066	4.63
478.268	4.43
478.469	4.39
478.671	4.5
478.873	4.73
479.075	4.55
479.276	4.02
479.478	4.33
479.68	4.7
479.882	4.83
480.083	5.15
480.285	5.03
480.487	5
480.688	4.99
480.89	4.92
481.091	4.69
481.293	4.55
481.495	4.83
481.696	4.92
481.898	4.76
482.099	4.73
482.301	4.7
482.502	4.73
482.704	4.7
482.905	4.63
483.107	4.45
483.308	4.45
483.51	4.54
483.711	4.52
483.913	4.46
484.114	4.5
484.315	4.5
484.517	4.35
484.718	4.36
484.92	4.35
485.121	4.38
485.322	4.62
485.524	4.54
485.725	4.5
485.926	4.35
486.127	4.17
486.329	4.09
486.53	4.1
486.731	4.23
486.932	4.31
487.134	4.31
487.335	4.25
487.536	4.22
487.737	4.27
487.938	4.29
488.139	4.16
488.341	4.19
488.542	4.14
488.743	4.09
488.944	3.98
489.145	3.8
489.346	3.93
489.547	3.88
489.748	3.97
489.949	3.94
490.15	4.14
490.351	4.46
490.552	4.56
490.753	4.67
490.954	4.63
491.155	4.74
491.356	4.78
491.557	4.68
491.758	4.85
491.959	4.77
492.159	4.97
492.36	4.88
492.561	4.6
492.762	4.7
492.963	4.78
493.164	5.15
493.364	4.99
493.565	4.82
493.766	5.08
493.967	5.29
494.167	5.42
494.368	5.44
494.569	5.6
494.769	5.87
494.97	5.7
495.171	5.52
495.371	5.33
495.572	5.24
495.773	5.27
495.973	5.36
496.174	5.11
496.375	5.28
496.575	5.34
496.776	5.1
496.976	5.12
497.177	5.21
497.377	5.12
497.578	5.14
497.778	5.14
497.979	5.55
498.179	5.37
498.38	5.69
498.58	5.47
498.78	5.14
498.981	5.19
499.181	5.07
499.382	5.01
499.582	5.2
499.782	5.02
499.983	5.4
500.183	5.27
500.383	5.35
500.584	4.99
500.784	5.1
500.984	5.56
501.184	5.6
501.385	5.63
501.585	5.75
501.785	5.85
501.985	6.04
502.185	6.07
502.386	6.12
502.586	6.2
502.786	5.93
502.986	5.84
503.186	6.06
503.386	6.31
503.586	6.16
503.786	5.84
503.987	5.64
504.187	5.57
504.387	5.52
504.587	5.56
504.787	5.72
504.987	6.07
505.187	5.81
505.387	5.42
505.587	5.2
505.786	5.27
505.986	5.5
506.186	5.63
506.386	5.58
506.586	5.71
506.786	5.11
506.986	5.12
507.186	5.12
507.386	5.55
507.585	5.54
507.785	5.86
507.985	6.06
508.185	6.08
508.384	6.19
508.584	6.38
508.784	6.39
508.984	6.75
509.183	6.64
509.383	6.66
509.583	6.97
509.782	7.06
509.982	6.81
510.182	6.87
510.381	6.81
510.581	6.87
510.781	6.83
510.98	6.71
511.18	6.78
511.379	6.78
511.579	6.82
511.778	6.68
511.978	6.7
512.177	6.96
512.377	6.91
512.576	7.17
512.776	7.32
512.975	7.38
513.175	7.3
513.374	6.96
513.573	7.26
513.773	7.64
513.972	7.92
514.172	8.27
514.371	8.45
514.57	8.63
514.77	8.67
514.969	8.69
515.168	9.05
515.367	9.15
515.567	9.35
515.766	9.37
515.965	9.05
516.164	8.78
516.364	8.72
516.563	8.58
516.762	8.38
516.961	8.42
517.16	8.22
517.359	8.18
517.559	8.44
517.758	8.72
517.957	8.67
518.156	8.86
518.355	9.13
518.554	9.3
518.753	9.3
518.952	9.48
519.151	9.58
519.35	9.86
519.549	9.8
519.748	9.57
519.947	9.62
520.146	9.6
520.345	9.55
520.544	9.25
520.743	9.33
520.942	9.59
521.141	9.79
521.339	9.84
521.538	9.91
521.737	10.19
521.936	10.33
522.135	10.64
522.333	10.87
522.532	10.9
522.731	11.28
522.93	10.91
523.129	10.61
523.327	10.49
523.526	10.61
523.725	10.79
523.923	11.01
524.122	11.16
524.321	10.92
524.519	11.02
524.718	11.18
524.917	10.97
525.115	11.18
525.314	11.27
525.512	11.6
525.711	11.52
525.909	11.51
526.108	11.64
526.306	11.74
526.505	11.88
526.703	11.78
526.902	11.9
527.1	11.88
527.299	11.83
527.497	11.82
527.696	11.78
527.894	11.93
528.092	11.91
528.291	11.71
528.489	11.56
528.688	11.52
528.886	11.6
529.084	11.62
529.283	11.7
529.481	11.8
529.679	11.83
529.877	11.82
530.076	11.91
530.274	12.09
530.472	12.1
530.67	12.59
530.869	12.52
531.067	12.37
531.265	12.44
531.463	12.51
531.661	12.75
531.859	12.88
532.057	12.95
532.255	12.85
532.454	12.9
532.652	12.98
532.85	12.9
533.048	12.98
533.246	13.31
533.444	13.46
533.642	13.48
533.84	13.39
534.038	13.47
534.236	13.65
534.434	13.8
534.632	13.79
534.83	13.97
535.027	14.04
535.225	14.39
535.423	14.37
535.621	14.31
535.819	14.52
536.017	14.32
536.215	14.43
536.412	14.23
536.61	14.34
536.808	14.49
537.006	14.46
537.203	14.74
537.401	14.79
537.599	15.05
537.797	14.98
537.994	14.99
538.192	15.34
538.39	15.75
538.587	16.14
538.785	15.89
538.983	15.86
539.18	16.13
539.378	15.91
539.575	15.82
539.773	15.56
539.97	15.81
540.168	15.89
540.366	16
540.563	15.85
540.761	15.77
540.958	15.95
541.155	15.9
541.353	15.93
541.55	15.91
541.748	16.02
541.945	16.14
542.143	16.28
542.34	16.36
542.537	16.28
542.735	16.41
542.932	16.48
543.129	16.59
543.327	16.77
543.524	16.62
543.721	16.95
543.919	17.02
544.116	17.1
544.313	17.05
544.51	17.09
544.708	17.01
544.905	16.87
545.102	16.98
545.299	16.93
545.496	17.13
545.693	17.5
545.891	17.42
546.088	17.41
546.285	17.52
546.482	17.36
546.679	17.38
546.876	17.71
547.073	18.07
547.27	18.17
547.467	18.45
547.664	18.39
547.861	18.28
548.058	18.13
548.255	18.3
548.452	18.47
548.649	18.57
548.846	18.69
549.043	18.37
549.24	18.37
549.437	18.51
549.633	18.14
549.83	18.16
550.027	18.35
550.224	18.73
550.421	18.94
550.618	18.93
550.814	18.72
551.011	19.07
551.208	19.52
551.405	19.42
551.601	19.32
551.798	19.59
551.995	19.93
552.191	19.95
552.388	20.21
552.585	20.31
552.781	20.78
552.978	20.95
553.175	20.73
553.371	20.85
553.568	21.05
553.764	21.38
553.961	21.76
554.157	21.79
554.354	21.88
554.55	21.71
554.747	21.46
554.943	20.83
555.14	21.11
555.336	21.41
555.533	21.42
555.729	21.47
555.926	21.26
556.122	20.96
556.318	21.26
556.515	21.55
556.711	21.68
556.907	22.1
557.104	22.96
557.3	23.36
557.496	23.53
557.693	23.3
557.889	23.25
558.085	23.34
558.281	23.63
558.478	23.51
558.674	23.84
558.87	23.87
559.066	23.66
559.262	23.57
559.459	23.77
559.655	23.53
559.851	24.04
560.047	24.39
560.243	24.48
560.439	24.86
560.635	25.16
560.831	24.81
561.027	25.17
561.223	25.41
561.419	25.2
561.615	24.68
561.811	24.85
562.007	24.8
562.203	24.93
562.399	24.97
562.595	24.69
562.791	24.22
562.987	23.97
563.183	23.63
563.379	23.76
563.575	23.98
563.771	24.32
563.966	24.32
564.162	24.19
564.358	24.08
564.554	24.35
564.75	24.38
564.945	24.82
565.141	25.07
565.337	25.33
565.533	25.24
565.728	25.5
565.924	25.46
566.12	25.97
566.315	26.29
566.511	26.43
566.707	26.51
566.902	26.7
567.098	26.75
567.293	27.24
567.489	27.26
567.684	27.5
567.88	27.27
568.076	27.67
568.271	27.48
568.467	27.72
568.662	27.98
568.858	27.85
569.053	28.01
569.248	27.72
569.444	27.91
569.639	27.88
569.835	27.95
570.03	28.24
570.225	28.09
570.421	27.99
570.616	27.76
570.812	27.57
571.007	27.7
571.202	27.58
571.397	27.7
571.593	27.32
571.788	27.41
571.983	27.48
572.178	27.33
572.374	26.97
572.569	27.22
572.764	27.38
572.959	27.51
573.154	28.15
573.35	27.99
573.545	28.25
573.74	28.42
573.935	28.52
574.13	28.38
574.325	28.17
574.52	28.89
574.715	28.93
574.91	28.78
575.105	28.63
575.3	28.28
575.495	28.46
575.69	28.56
575.885	28.51
576.08	28.58
576.275	28.7
576.47	29.12
576.665	29.28
576.86	29.22
577.055	29.44
577.25	29.65
577.444	29.5
577.639	29.69
577.834	29.65
578.029	29.77
578.224	29.92
578.418	30.07
578.613	30.3
578.808	30.55
579.003	30.55
579.197	30.78
579.392	31.5
579.587	32.01
579.781	32.19
579.976	32.14
580.171	32.32
580.365	32.22
580.56	32.95
580.755	33.06
580.949	32.76
581.144	33.04
581.338	33.04
581.533	32.9
581.727	32.51
581.922	32.42
582.116	32.99
582.311	32.98
582.505	33.11
582.7	32.41
582.894	32.19
583.089	31.99
583.283	32.01
583.478	32.06
583.672	32.15
583.866	32.38
584.061	32.58
584.255	32.04
584.449	32.26
584.644	32.68
584.838	33.15
585.032	33.25
585.226	33.79
585.421	33.82
585.615	33.71
585.809	33.17
586.003	33.64
586.198	34.08
586.392	34.55
586.586	34.53
586.78	33.73
586.974	33.59
587.168	33.55
587.363	32.95
587.557	33.2
587.751	33.74
587.945	33.77
588.139	33.44
588.333	32.99
588.527	33.31
588.721	33.27
588.915	33.7
589.109	33.95
589.303	34.22
589.497	34.35
589.691	34.28
589.885	33.82
590.079	34.1
590.273	34.17
590.466	34.57
590.66	34.43
590.854	34.46
591.048	34.43
591.242	34.38
591.436	34.01
591.629	34.28
591.823	33.89
592.017	33.67
592.211	33.95
592.404	34.07
592.598	34.17
592.792	34.18
592.986	34.47
593.179	34.58
593.373	34.37
593.567	34.36
593.76	34.11
593.954	34.43
594.147	35.3
594.341	35.27
594.535	35.37
594.728	35.13
594.922	35.13
595.115	35.27
595.309	35.31
595.502	35.09
595.696	35.57
595.889	35.54
596.083	35.5
596.276	35.45
596.47	35.34
596.663	35.1
596.856	35.08
597.05	34.87
597.243	34.59
597.437	35
597.63	35.53
597.823	35.4
598.017	35.92
598.21	35.88
598.403	36.11
598.596	36.66
598.79	36.98
598.983	36.97
599.176	36.75
599.369	36.65
599.563	36.35
599.756	36.08
599.949	36.44
600.142	36.42
600.335	36.83
600.528	36.27
600.722	36.18
600.915	36.11
601.108	36.55
601.301	37.07
601.494	37.25
601.687	37.13
601.88	36.64
602.073	36.5
602.266	36.17
602.459	35.36
602.652	35.59
602.845	35.6
603.038	35.46
603.231	34.97
603.424	35.05
603.617	35.03
603.809	35.23
604.002	35.48
604.195	34.92
604.388	34.67
604.581	35.3
604.774	35.37
604.966	35.11
605.159	35.23
605.352	35.85
605.545	35.74
605.737	35.59
605.93	35.48
606.123	35.47
606.316	36.29
606.508	36.92
606.701	37.3
606.894	37.04
607.086	36.91
607.279	36.75
607.471	36.62
607.664	36.57
607.857	36.86
608.049	37.25
608.242	37.3
608.434	37.42
608.627	37.38
608.819	37.24
609.012	37.23
609.204	37.84
609.397	38.36
609.589	38.31
609.782	38.64
609.974	38.53
610.166	38.01
610.359	38.65
610.551	38.61
610.743	39
610.936	38.7
611.128	39.51
611.32	39.03
611.513	38.99
611.705	39.28
611.897	38.93
612.09	40.13
612.282	40.66
612.474	40.66
612.666	40.82
612.858	41.07
613.051	40.93
613.243	40.45
613.435	40.41
613.627	39.84
613.819	39.85
614.011	39.42
614.203	38.73
614.395	39.39
614.588	39.54
614.78	39.21
614.972	38.55
615.164	39.3
615.356	38.94
615.548	39.43
615.74	39.57
615.932	39.68
616.124	40.17
616.315	40.27
616.507	39.57
616.699	39.42
616.891	39.76
617.083	39.34
617.275	39.05
617.467	40.29
617.659	40.21
617.85	40.59
618.042	40.51
618.234	40.69
618.426	40.21
618.618	40.36
618.809	40.47
619.001	39.89
619.193	40.32
619.384	40.68
619.576	39.98
619.768	39.92
619.959	39.53
620.151	39.56
620.343	40.24
620.534	40.15
620.726	40.35
620.917	40.29
621.109	41.26
621.301	42.2
621.492	42.05
621.684	42.32
621.875	42.2
622.067	42.88
622.258	42.74
622.45	42.26
622.641	42.48
622.832	42.27
623.024	41.89
623.215	41.5
623.407	40.88
623.598	40.26
623.789	40.74
623.981	41.02
624.172	41.11
624.363	41.2
624.555	41.07
624.746	41.36
624.937	41.55
625.129	41.38
625.32	40.91
625.511	41.31
625.702	41.79
625.893	41.08
626.085	40.88
626.276	40.55
626.467	40.94
626.658	40.4
626.849	40.44
627.04	40.44
627.231	41.32
627.422	42.33
627.614	42.31
627.805	42.43
627.996	42.77
628.187	43.04
628.378	43.44
628.569	42.91
628.76	43.03
628.951	42.99
629.142	42.43
629.332	42.17
629.523	40.97
629.714	40.38
629.905	40.12
630.096	40.01
630.287	40.45
630.478	40.12
630.669	40.19
630.859	40.58
631.05	40.72
631.241	41.33
631.432	41.52
631.623	42.37
631.813	42.59
632.004	43.28
632.195	43.13
632.385	42.04
632.576	42.37
632.767	41.94
632.957	42.91
633.148	42.54
633.339	42.15
633.529	42.15
633.72	42.09
633.91	42.13
634.101	41.71
634.292	42.08
634.482	42.91
634.673	42.89
634.863	43.97
635.054	43.39
635.244	43.37
635.435	43.5
635.625	43.09
635.815	42.92
636.006	42.73
636.196	42.72
636.387	42.79
636.577	43.19
636.767	43.1
636.958	43.13
637.148	42.97
637.338	43.72
637.529	43.31
637.719	44.07
637.909	44.65
638.099	45.69
638.29	45.91
638.48	45.9
638.67	45.97
638.86	46.19
639.05	46
639.241	47.02
639.431	47.83
639.621	48.57
639.811	48.65
640.001	49.3
640.191	48.65
640.381	48.88
640.571	49.13
640.761	48.81
640.951	48.02
641.141	48.24
641.331	47.36
641.521	46.1
641.711	46.93
641.901	46.7
642.091	46
642.281	46.66
642.471	46.09
642.661	45.41
642.851	45.73
643.041	46.72
643.231	46.47
643.42	47.2
643.61	48
643.8	47.4
643.99	47.25
644.18	46.21
644.369	45.82
644.559	46.67
644.749	47.58
644.939	47.82
645.128	47.44
645.318	47.48
645.508	47.59
645.697	47.25
645.887	46.98
646.076	47.17
646.266	47.88
646.456	47.9
646.645	47.37
646.835	46.69
647.024	45.91
647.214	46.53
647.403	46.2
647.593	46.07
647.782	45.17
647.972	46.3
648.161	46.59
648.351	46.29
648.54	46.32
648.73	46.83
648.919	47.11
649.108	47.34
649.298	47.37
649.487	47.73
649.677	47.97
649.866	49.14
650.055	48.12
650.244	46.48
650.434	46.64
650.623	46.72
650.812	46.83
651.002	47.08
651.191	47.02
651.38	46.86
651.569	47.35
651.758	46.79
651.947	46.18
652.137	46.12
652.326	47.52
652.515	48.61
652.704	48.93
652.893	49.15
653.082	49.53
653.271	49.74
653.46	49.45
653.649	49.02
653.838	49.33
654.027	49.49
654.216	50.89
654.405	50.33
654.594	49.6
654.783	49.86
654.972	49.1
655.161	48.95
655.35	48.99
655.539	49.65
655.728	49.69
655.916	49.19
656.105	49.29
656.294	49.2
656.483	49.37
656.672	49.6
656.86	49.07
657.049	49.01
657.238	47.53
657.427	47.65
657.615	46.42
657.804	45.68
657.993	45.35
658.181	44.97
658.37	44.24
658.559	44.41
658.747	44.08
658.936	43.6
659.125	43.59
659.313	44.96
659.502	44.54
659.69	45.81
659.879	46.28
660.067	47.07
660.256	47.99
660.444	48.4
660.633	48.6
660.821	48.61
661.01	49.48
661.198	50.21
661.387	49.92
661.575	50.61
661.763	50.47
661.952	50.73
662.14	50.85
662.328	50.21
662.517	50.28
662.705	51
662.893	51.49
663.082	51.63
663.27	51.39
663.458	51.57
663.646	52.13
663.834	51.48
664.023	52.45
664.211	52.14
664.399	52.04
664.587	52.05
664.775	50.58
664.963	51.36
665.152	50.76
665.34	50.52
665.528	50.19
665.716	50.28
665.904	50.21
666.092	49.38
666.28	49.34
666.468	49.81
666.656	49.84
666.844	51.09
667.032	50.24
667.22	50.82
667.408	51.29
667.596	51.89
667.784	50.8
667.971	51.74
668.159	51.68
668.347	52.09
668.535	52.81
668.723	52.72
668.911	52.39
669.098	52.4
669.286	51.93
669.474	51.97
669.662	51.1
669.849	51.92
670.037	51.32
670.225	51.73
670.413	51.76
670.6	51.6
670.788	51.72
670.976	51.66
671.163	51.58
671.351	51.52
671.538	51.75
671.726	51.63
671.913	50.52
672.101	50.85
672.289	51.13
672.476	52.15
672.664	52.52
672.851	52.1
673.039	51.8
673.226	51.91
673.413	53
673.601	52.74
673.788	53.08
673.976	53.52
674.163	53.12
674.35	53.52
674.538	53.12
674.725	53.3
674.912	54.37
675.1	55.12
675.287	54.84
675.474	54.83
675.662	53.87
675.849	54.22
676.036	54.66
676.223	54.22
676.411	54.11
676.598	52.5
676.785	51.16
676.972	50.94
677.159	50.24
677.346	50.1
677.533	49.65
677.721	50.35
677.908	51.04
678.095	50.48
678.282	51.17
678.469	51.02
678.656	51.45
678.843	50.51
679.03	49.31
679.217	49.72
679.404	49.84
679.591	50
679.778	50.18
679.964	49.17
680.151	48.9
680.338	48.1
680.525	47.24
680.712	47.41
680.899	48.85
681.086	49.22
681.272	48.72
681.459	49
681.646	49.1
681.833	48.59
682.02	49.64
682.206	49.97
682.393	51.15
682.58	52.35
682.766	53.25
682.953	52.43
683.14	53.07
683.326	54.66
683.513	53.64
683.7	52.98
683.886	54.07
684.073	53.92
684.259	55.23
684.446	54.33
684.632	53.51
684.819	52.6
685.005	53.25
685.192	51.84
685.378	50.75
685.565	51.72
685.751	52.92
685.938	52.35
686.124	51.55
686.31	51.87
686.497	52.87
686.683	52.69
686.87	53.24
687.056	53.68
687.242	55.36
687.429	55.89
687.615	56
687.801	55.51
687.987	56.01
688.174	57.41
688.36	55.87
688.546	55.08
688.732	55.17
688.918	54.66
689.105	54.8
689.291	54.19
689.477	54.88
689.663	55.72
689.849	55.73
690.035	56.22
690.221	54.71
690.407	54.58
690.593	55.54
690.779	55.86
690.965	56.54
691.151	57.42
691.337	58.48
691.523	57.15
691.709	56.1
691.895	56.33
692.081	56
692.267	57.23
692.453	57.91
692.639	58.45
692.825	59.64
693.011	59.78
693.196	58.42
693.382	58.87
693.568	59.38
693.754	60.78
693.94	60.48
694.125	60.12
694.311	60.37
694.497	60.3
694.682	59.36
694.868	59.52
695.054	58.69
695.239	59
695.425	57.39
695.611	56.69
695.796	55.48
695.982	55.24
696.168	54.5
696.353	54.11
696.539	53.1
696.724	52.98
696.91	52.32
697.095	51.96
697.281	51.28
697.466	50.59
697.652	50.22
697.837	49.69
698.023	49.81
698.208	49.62
698.393	48.73
698.579	49.04
698.764	48.85
698.949	49.1
699.135	49.95
699.32	49.41
699.505	51.17
699.691	52.02
699.876	53.59
700.061	54.01
700.246	55.62
700.432	57.28
700.617	58.45
700.802	59.92
700.987	60.78
701.172	60.76
701.358	61.84
701.543	61.81
701.728	61.66
701.913	60.54
702.098	60.71
702.283	60.73
702.468	59.98
702.653	58.86
702.838	57.29
703.023	56.83
703.208	56.31
703.393	58.42
703.578	58.79
703.763	59.83
703.948	60.76
704.133	59.94
704.318	60.44
704.503	61.21
704.688	62.3
704.873	62.74
705.057	61.27
705.242	62.03
705.427	59.92
705.612	57.93
705.797	57.59
705.981	58.05
706.166	57.83
706.351	57.52
706.536	56.42
706.72	57.41
706.905	59.14
707.09	59.78
707.274	60.25
707.459	61.03
707.644	62.76
707.828	62.93
708.013	62.5
708.197	62.72
708.382	61.51
708.567	61.14
708.751	59.58
708.936	58.53
709.12	59.02
709.305	59.02
709.489	60.08
709.673	60.03
709.858	59.28
710.042	58.61
710.227	58.66
710.411	58.03
710.596	58.58
710.78	58.88
710.964	59.2
711.149	58.65
711.333	57.31
711.517	57.24
711.702	56.41
711.886	55.94
712.07	55.38
712.254	56.55
712.438	58.2
712.623	58.28
712.807	58.07
712.991	57.07
713.175	58.37
713.359	58.25
713.544	56.73
713.728	58.34
713.912	59.81
714.096	60.15
714.28	59.68
714.464	59
714.648	58.71
714.832	59.16
715.016	60.38
715.2	58.8
715.384	60.48
715.568	61.67
715.752	60.86
715.936	61.38
716.12	62.02
716.304	61.73
716.488	62.66
716.671	63.28
716.855	63.93
717.039	63.34
717.223	65
717.407	64.38
717.59	64.11
717.774	65.28
717.958	64.38
718.142	64.07
718.325	65.47
718.509	65.82
718.693	66.11
718.877	66.72
719.06	67.5
719.244	66.51
719.428	66.45
719.611	66.27
719.795	65.9
719.978	66.34
720.162	67.41
720.345	66.87
720.529	66.61
720.713	66.01
720.896	67.46
721.08	67.39
721.263	68.04
721.446	69.16
721.63	69.59
721.813	69.95
721.997	69.99
722.18	71.16
722.364	71.65
722.547	69.79
722.73	72.01
722.914	69.1
723.097	66.98
723.28	66.36
723.464	66.11
723.647	65.14
723.83	65.37
724.013	65.24
724.197	64.09
724.38	62.98
724.563	64.84
724.746	63.81
724.929	64.7
725.112	67.85
725.296	68.26
725.479	67.34
725.662	66.71
725.845	65.91
726.028	65.63
726.211	66.31
726.394	65.41
726.577	63.79
726.76	63.78
726.943	62.02
727.126	60.19
727.309	59.27
727.492	58.96
727.675	60.11
727.858	58.99
728.041	59.97
728.224	60.99
728.407	63.04
728.589	63.77
728.772	65.16
728.955	66.5
729.138	66.16
729.321	66.09
729.503	68.66
729.686	68.53
729.869	69.59
730.052	68.79
730.234	67.28
730.417	65.4
730.6	66.27
730.782	65.23
730.965	65.6
731.148	66.7
731.33	68.03
731.513	66.47
731.695	66.39
731.878	65.87
732.061	66.37
732.243	66.72
732.426	67.41
732.608	66.7
732.791	64.62
732.973	64.72
733.156	65.25
733.338	63.25
733.52	63.98
733.703	64.53
733.885	66.31
734.068	66.46
734.25	67.51
734.432	67.23
734.615	67.94
734.797	71.56
734.979	71.22
735.162	71.57
735.344	73.83
735.526	73.06
735.708	73.79
735.891	73.19
736.073	72.17
736.255	70.9
736.437	72.25
736.619	72.81
736.802	71.84
736.984	72
737.166	71.74
737.348	71.61
737.53	72.9
737.712	71.28
737.894	70.79
738.076	72.73
738.258	72.2
738.44	73.06
738.622	72.92
738.804	73.41
738.986	73.34
739.168	73.63
739.35	74.07
739.532	72.93
739.714	72.67
739.896	72.61
740.078	72.94
740.259	72.81
740.441	72.16
740.623	72.46
740.805	72.34
740.987	72.4
741.168	71.01
741.35	71.95
741.532	74.35
741.714	75.33
741.895	75.2
742.077	74.98
742.259	74.69
742.44	73.87
742.622	73.15
742.804	71.32
742.985	71.94
743.167	72.62
743.348	70.77
743.53	67.54
743.711	68.33
743.893	68.5
744.075	66.7
744.256	68.5
744.438	71.24
744.619	73.7
744.8	74.87
744.982	77.61
745.163	77.33
745.345	79.34
745.526	80.81
745.707	80.37
745.889	82.43
746.07	83.07
746.252	86.02
746.433	82.52
746.614	80.34
746.795	81.69
746.977	78.49
747.158	77.88
747.339	76.33
747.52	76.45
747.702	76.68
747.883	75.22
748.064	75.79
748.245	75.14
748.426	77.57
748.607	75.75
748.788	73.08
748.97	73.15
749.151	73.86
749.332	73.93
749.513	75.99
749.694	77.56
749.875	76.89
750.056	77.27
750.237	76.46
750.418	74.28
750.599	77.83
750.78	80.05
750.96	82.18
751.141	83.02
751.322	83.31
751.503	80.07
751.684	80.38
751.865	81.76
752.046	81
752.226	79.67
752.407	81.3
752.588	81.6
752.769	81.77
752.949	78.46
753.13	75.67
753.311	73.8
753.492	74.92
753.672	72
753.853	71.74
754.034	70.4
754.214	71.54
754.395	71.74
754.575	70.19
754.756	70.84
754.937	73.51
755.117	75.69
755.298	77
755.478	77.28
755.659	79.39
755.839	78.7
756.02	80.63
756.2	80.14
756.381	76.24
756.561	77.54
756.741	75.6
756.922	72.78
757.102	73.45
757.283	74.41
757.463	73.88
757.643	73.58
757.823	74.58
758.004	73.21
758.184	71.43
758.364	72.98
758.545	71.55
758.725	71.54
758.905	72.8
759.085	72.61
759.265	72.04
759.446	72.05
759.626	70.88
759.806	70.42
759.986	70.15
760.166	69.48
760.346	69.93
760.526	69.6
760.706	69.3
760.886	69.91
761.066	69.85
761.246	70.53
761.426	70.27
761.606	68.05
761.786	66.38
761.966	68.11
762.146	67.46
762.326	66.06
762.506	65.68
762.686	65.74
762.866	64.92
763.046	63.34
763.225	61.61
763.405	61.58
763.585	62.26
763.765	62.86
763.945	61.99
764.124	62.99
764.304	63.48
764.484	63.45
764.664	62.92
764.843	62.25
765.023	63.72
765.203	64.14
765.382	64.29
765.562	64.9
765.741	67.29
765.921	67.87
766.101	69.28
766.28	70.75
766.46	73.12
766.639	75.91
766.819	77.91
766.998	76.98
767.178	78.45
767.357	79.13
767.537	82.31
767.716	79.94
767.896	81.37
768.075	81.56
768.254	82.35
768.434	79.4
768.613	78.77
768.792	80.56
768.972	82.93
769.151	84.68
769.33	85.65
769.51	83.2
769.689	84.55
769.868	81.67
770.047	80.01
770.226	82.04
770.406	84.4
770.585	84.58
770.764	84.54
770.943	84.83
771.122	87.54
771.301	87.18
771.48	90.12
771.66	90.85
771.839	95.96
772.018	98.7
772.197	97.66
772.376	96.84
772.555	97.94
772.734	94.05
772.913	96.97
773.092	93.2
773.271	93.63
773.449	95.09
773.628	97.27
773.807	97.04
773.986	97.67
774.165	101.33
774.344	104.89
774.523	108.12
774.701	111.81
774.88	108.12
775.059	109.87
775.238	109.5
775.417	107.67
775.595	104.5
775.774	101.71
775.953	103.47
776.131	100.48
776.31	97.98
776.489	93.21
776.667	94.05
776.846	96.12
777.025	95.08
777.203	92.62
777.382	91.9
777.56	92.66
777.739	92.78
777.917	94.36
778.096	93.92
778.274	93.76
778.453	99.45
778.631	100.02
778.81	95.4
778.988	96.07
779.166	98.62
779.345	95.26
779.523	96.51
779.702	95.02
779.88	93.17
780.058	92.95
780.237	90.92
780.415	85.92
780.593	85.51
780.771	88.7
780.95	88.66
781.128	90.1
781.306	93.1
781.484	93.36
781.662	97.92
781.841	97.36
782.019	96.51
782.197	98.67
782.375	98.12
782.553	99.3
782.731	98.8
782.909	99.3
783.087	98.21
783.265	99.12
783.443	98.26
783.621	92.05
783.799	94.88
783.977	93.91
784.155	98.17
784.333	99.85
784.511	94.81
784.689	95.88
784.867	94.7
785.045	96.43
785.223	92.88
785.4	93.44
785.578	98.65
785.756	98.94
785.934	97.91
786.112	95.65
786.289	96.22
786.467	96.35
786.645	94.73
786.823	94.38
787	89.65
787.178	92.2
787.356	90.86
787.533	84.97
787.711	78.14
787.889	80.47
788.066	80.52
788.244	80.68
788.421	81.75
788.599	85.35
788.776	82.58
788.954	80.44
789.131	82.75
789.309	83.33
789.486	88.67
789.664	95.5
789.841	93.86
790.019	93.68
790.196	91.27
790.373	93.43
790.551	87.95
790.728	91.07
790.906	96.98
791.083	96.41
791.26	100.05
791.437	101.84
791.615	99.28
791.792	100.71
791.969	101.08
792.146	102.23
792.324	100.86
792.501	102.91
792.678	103.48
792.855	102.02
793.032	98.97
793.209	97.29
793.387	98.28
793.564	100.14
793.741	97.44
793.918	99.05
794.095	100.27
794.272	100.33
794.449	100.38
794.626	101.22
794.803	100.12
794.98	100.17
795.157	99
795.334	96.95
795.511	94.99
795.688	94.57
795.864	93.29
796.041	93.56
796.218	96.11
796.395	94.5
796.572	92.75
796.749	95.75
796.925	95.84
797.102	93.36
797.279	91.32
797.456	89.18
797.632	90.5
797.809	90.93
797.986	88.59
798.162	81.68
798.339	83.57
798.516	84.9
798.692	84.4
798.869	82.82
799.046	82.5
799.222	82.46
799.399	86.85
799.575	83.63
799.752	83.26
799.928	84.3
800.105	90.47
800.281	86.77
800.458	88.54
800.634	85.75
800.811	85.97
800.987	90.85
801.163	91.24
801.34	89.5
801.516	93.36
801.692	94.68
801.869	94.45
802.045	91.91
802.221	98.11
802.398	98.3
802.574	100.81
802.75	101.32
802.926	102.1
803.103	105.13
803.279	103.69
803.455	102.92
803.631	97.53
803.807	97.7
803.983	98.19
804.16	90.2
804.336	84.02
804.512	80.89
804.688	77.4
804.864	72.95
805.04	71.18
805.216	70.88
805.392	74.4
805.568	79.24
805.744	83.69
805.92	84.63
806.096	87.9
806.272	92.44
806.448	89.42
806.623	92.42
806.799	92.32
806.975	88.62
807.151	87.99
807.327	85.78
807.503	82.01
807.678	82.28
807.854	81.97
808.03	83.38
808.206	82.13
808.381	86.41
808.557	87.13
808.733	88.43
808.908	90.59
809.084	89
809.26	89.27
809.435	92.11
809.611	83.11
809.787	87.19
809.962	84.18
810.138	85.17
810.313	84.79
810.489	85.64
810.664	82.96
810.84	81.66
811.015	81.93
811.191	82.64
811.366	81.7
811.542	86.48
811.717	82.6
811.892	82.27
812.068	81.91
812.243	78.62
812.419	76.29
812.594	77.53
812.769	74.91
812.944	76.41
813.12	72.96
813.295	73.78
813.47	68.3
813.645	71.95
813.821	76.86
813.996	72.66
814.171	79.42
814.346	77.58
814.521	80.72
814.697	85.9
814.872	89.2
815.047	89.53
815.222	93.34
815.397	97.21
815.572	94.34
815.747	92.44
815.922	97.52
816.097	93.32
816.272	96.65
816.447	96.89
816.622	98.14
816.797	93.18
816.972	91.63
817.147	86.44
817.322	85.82
817.496	86.72
817.671	85.37
817.846	80.16
818.021	79.25
818.196	77
818.371	69.48
818.545	65.9
818.72	71.35
818.895	74.07
819.069	76.94
819.244	76.24
819.419	75.07
819.594	70.27
819.768	69.84
819.943	66.48
820.117	63.87
820.292	61.43
820.467	59.1
820.641	54.09
820.816	51.6
820.99	48.46
821.165	47.17
821.339	44.78
821.514	44.28
821.688	43.07
821.863	42.28
822.037	42.06
822.212	42.72
822.386	43.17
822.56	43.11
822.735	42.9
822.909	43.1
823.084	43.1
823.258	43.37
823.432	43.99
823.606	44.37
823.781	45.21
823.955	44.57
824.129	44.99
824.303	44.3
824.478	44.91
824.652	44.34
824.826	43.56
825	43.17
825.174	44.77
825.348	45.39
825.523	46.62
825.697	45.73
825.871	47.65
826.045	47.45
826.219	48.07
826.393	47.8
826.567	47.58
826.741	48.94
826.915	49.68
827.089	49.58
827.263	48.82
827.437	48.18
827.611	49.7
827.784	49.2
827.958	49.62
828.132	48.97
828.306	49.63
828.48	52.05
828.654	54.37
828.827	55.37
829.001	55.74
829.175	58.58
829.349	60.49
829.522	61.15
829.696	62.67
829.87	63.55
830.044	67.42
830.217	66.89
830.391	66.2
830.565	64.12
830.738	65.53
830.912	65.22
831.085	64.85
831.259	63.5
831.432	60.38
831.606	59.73
831.779	58.16
831.953	58.3
832.126	58.45
832.3	55.48
832.473	55.18
832.647	54.11
832.82	53.4
832.994	53.53
833.167	54.5
833.34	55.87
833.514	55.41
833.687	56.1
833.86	53.74
834.034	53.57
834.207	55.4
834.38	55.11
834.553	54.89
834.727	57.47
834.9	57.4
835.073	57.28
835.246	58.06
835.419	59.09
835.593	59.28
835.766	62.83
835.939	64.57
836.112	66.74
836.285	65.5
836.458	66.14
836.631	64.83
836.804	68.12
836.977	66.88
837.15	68.07
837.323	67.66
837.496	66.28
837.669	58.8
837.842	58.83
838.015	58.8
838.188	59.77
838.361	59.58
838.533	61.34
838.706	58.69
838.879	60.99
839.052	64.71
839.225	67.48
839.398	65.72
839.57	73.13
839.743	74.43
839.916	76.09
840.088	82.47
840.261	83.05
840.434	80.36
840.607	76.03
840.779	84.15
840.952	81.02
841.124	85.72
841.297	96.59
841.47	91.21
841.642	98.46
841.815	96.78
841.987	93.01
842.16	96.18
842.332	103.77
842.505	102.68
842.677	92.79
842.85	101.11
843.022	92.79
843.194	91.5
843.367	96.16
843.539	94.86
843.712	98.75
843.884	99.45
844.056	101.39
844.229	99.05
844.401	104.57
844.573	111.66
844.745	103.1
844.918	108.62
845.09	102.72
845.262	102.79
845.434	93.88
845.606	96.22
845.779	89.76
845.951	95.31
846.123	96.37
846.295	97.57
846.467	106.67
846.639	101.43
846.811	96.8
846.983	110.37
847.155	117.01
847.327	117.66
847.499	115.59
847.671	122.48
847.843	115.55
848.015	106.97
848.187	111.39
848.359	103
848.531	109
848.703	104.96
848.875	94.78
849.047	96.29
849.218	97.15
849.39	98.31
849.562	106.42
849.734	110.39
849.905	119.86
850.077	119.9
850.249	116.78
850.421	117.14
850.592	124.04
850.764	128.58
850.936	110.25
851.107	115.84
851.279	110.65
851.451	91.16
851.622	91.17
851.794	93.12
851.965	90.08
852.137	91.52
852.308	102.32
852.48	96.58
852.651	91.4
852.823	98.28
852.994	92.24
853.166	85.67
853.337	102.06
853.509	91.1
853.68	100.28
853.851	102
854.023	97.05
854.194	84.43
854.365	80.51
854.537	78.99
854.708	79.74
854.879	85.42
855.05	92.96
855.222	86.56
855.393	87.01
855.564	78.28
855.735	78.37
855.906	83.78
856.078	87.05
856.249	103.54
856.42	119.11
856.591	122.56
856.762	124.83
856.933	130.46
857.104	133.54
857.275	142.04
857.446	149.34
857.617	139.5
857.788	135.76
857.959	127.16
858.13	119.26
858.301	105.92
858.472	97.42
858.643	98.94
858.814	90.34
858.985	99.8
859.155	107.43
859.326	104.57
859.497	96.78
859.668	101.17
859.839	96.29
860.009	96.49
860.18	102.37
860.351	105.76
860.522	100.49
860.692	107.71
860.863	91.38
861.034	88.59
861.204	83.82
861.375	95.47
861.546	93.54
861.716	100.13
861.887	104.37
862.057	96.53
862.228	104.75
862.398	94.01
862.569	93.09
862.739	101.46
862.91	106.84
863.08	101.8
863.251	97.94
863.421	91.94
863.592	94.88
863.762	93.21
863.932	93.29
864.103	83.13
864.273	103.73
864.443	91.83
864.614	86.87
864.784	89.16
864.954	97.96
865.125	99.45
865.295	84.42
865.465	88.34
865.635	86.1
865.805	81.69
865.976	90.22
866.146	82.03
866.316	83.96
866.486	92.78
866.656	90.38
866.826	96.2
866.996	97.12
867.166	106.8
867.336	98.21
867.506	90.43
867.676	96.01
867.846	92.58
868.016	103.75
868.186	115.08
868.356	118.07
868.526	112.06
868.696	107.4
868.866	106.81
869.036	117.71
869.206	142.03
869.376	137.53
869.545	123.64
869.715	136.12
869.885	115.44
870.055	105.58
870.224	98.74
870.394	93.05
870.564	95.92
870.734	98.68
870.903	100.8
871.073	99.14
871.243	117.37
871.412	134.53
871.582	118.2
871.751	116.94
871.921	116.31
872.091	120.51
872.26	119.8
872.43	121.26
872.599	117.74
872.769	114.12
872.938	101.6
873.108	96.72
873.277	100.57
873.446	103.16
873.616	111.86
873.785	119.71
873.955	101.45
874.124	111.21
874.293	94.98
874.463	90.09
874.632	78.76
874.801	91.35
874.971	89.57
875.14	70.75
875.309	58.62
875.478	58.77
875.647	63.26
875.817	65.2
875.986	71
876.155	78.22
876.324	78.34
876.493	84.82
876.662	80.62
876.831	73.76
877	74.53
877.17	84.76
877.339	81.15
877.508	79.45
877.677	74.8
877.846	71.43
878.015	76.64
878.184	74.45
878.352	76.4
878.521	70.08
878.69	68.34
878.859	78.11
879.028	81.69
879.197	83.21
879.366	72.27
879.534	69.08
879.703	66.7
879.872	63.68
880.041	63.85
880.21	57.8
880.378	54.31
880.547	55.18
880.716	49.11
880.884	46.51
881.053	43.25
881.222	44.75
881.39	45.83
881.559	44.3
881.727	41.8
881.896	38.98
882.065	39.3
882.233	40.12
882.402	39.72
882.57	41.57
882.739	42.09
882.907	43.85
883.076	43.95
883.244	41.27
883.412	42.49
883.581	42.86
883.749	44.41
883.918	46.05
884.086	45.02
884.254	46.79
884.423	49.02
884.591	53.37
884.759	53.54
884.927	55.56
885.096	60.84
885.264	56.63
885.432	58.7
885.6	64.15
885.769	61.97
885.937	65.4
886.105	62.34
886.273	55.98
886.441	49.46
886.609	49.37
886.777	47.87
886.945	43.39
887.113	50.71
887.281	54.11
887.449	50.29
887.617	49.56
887.785	51.37
887.953	63.6
888.121	80.81
888.289	83.11
888.457	85.05
888.625	87.29
888.793	85.13
888.961	83.98
889.129	82.72
889.296	81.68
889.464	86.33
889.632	86.43
889.8	83.05
889.967	66.18
890.135	61.7
