Data from JASIL_3173_Reflection_1.txt Node
Date: Thu Nov 12 23:02:24 EST 2015
User: Geneva
Spectrometer: USB4E03002
Autoset integration time: false
Trigger mode: 4
Integration Time (sec): 1.000000E-1
Scans to average: 10
Electric dark correction enabled: true
Nonlinearity correction enabled: false
Boxcar width: 5
Stray light correction enabled: false
XAxis mode: Wavelengths
Stop averaging: false
Number of Pixels in Spectrum: 3648
>>>>>Begin Spectral Data<<<<<
177.575	-149.5
177.794	-89.98
178.014	-64.73
178.233	-369.48
178.452	8.13
178.672	-48.44
178.891	48.39
179.11	92.32
179.33	672.8
179.549	275.11
179.768	-2238.08
179.987	-622.48
180.207	-537.7
180.426	-1405.49
180.645	1262.69
180.864	967.87
181.084	688.25
181.303	3348.15
181.522	711.44
181.741	285.49
181.96	542.39
182.179	418.44
182.398	1264.38
182.618	1047.6
182.837	-306.18
183.056	-277.37
183.275	-98.5
183.494	-113.66
183.713	-125.31
183.932	-82.89
184.151	-92.65
184.37	-63.5
184.589	-104.8
184.808	-110.26
185.027	-67.82
185.246	-117
185.465	-84.27
185.684	-94.47
185.903	-100.26
186.122	-116.4
186.341	-137.24
186.56	-128.74
186.779	-1101.22
186.998	-547.27
187.216	-253.61
187.435	-594.28
187.654	-1433.22
187.873	-1221.35
188.092	857.48
188.311	1520.8
188.53	5233.54
188.748	-8693.91
188.967	-440.9
189.186	-174.37
189.405	-303.38
189.623	-261.79
189.842	-208.71
190.061	-183.81
190.28	-203.52
190.498	-128.94
190.717	-158.57
190.936	-229.07
191.154	-140.02
191.373	-507.05
191.592	-279.35
191.81	-277.71
192.029	-1879.53
192.248	-767.34
192.466	-642.48
192.685	-747.89
192.904	-897.25
193.122	-907.7
193.341	-617.27
193.559	-1173.11
193.778	-479.64
193.996	-796.19
194.215	-329.4
194.433	-310.51
194.652	-602.31
194.87	-423.75
195.089	-599.26
195.307	-734.34
195.526	-1602.81
195.744	9110.61
195.963	927.11
196.181	317.78
196.399	250.56
196.618	185.22
196.836	215.87
197.055	354.18
197.273	356.42
197.491	406.83
197.71	312.45
197.928	341.2
198.146	519.84
198.365	1697.31
198.583	2148.45
198.801	2267.82
199.019	-925.68
199.238	-298.83
199.456	-968.41
199.674	-505.78
199.892	-1035.99
200.111	-729.32
200.329	-534.83
200.547	-337.22
200.765	-563.39
200.983	-291.31
201.202	-203.59
201.42	-350.51
201.638	-188.76
201.856	-202.01
202.074	-298.24
202.292	-93.68
202.51	-131.82
202.728	-207.78
202.946	-257.59
203.165	-250.78
203.383	-354.29
203.601	-256.68
203.819	-209.33
204.037	-245.68
204.255	-164.18
204.473	-179.02
204.691	-207.48
204.909	-150.5
205.127	-95.83
205.345	-106.57
205.562	-126.11
205.78	-105.4
205.998	-124.51
206.216	-164.78
206.434	-346.48
206.652	-565.82
206.87	-463.14
207.088	-14859.37
207.306	-1969.59
207.523	2169.39
207.741	1512.06
207.959	-4727.5
208.177	-1017.08
208.395	-1200.76
208.612	-584.2
208.83	-248.49
209.048	-283.6
209.266	-221.97
209.483	-83.63
209.701	-138.25
209.919	-94.18
210.136	-79.49
210.354	-67.98
210.572	-82.14
210.79	-58.72
211.007	-41.38
211.225	-80.24
211.442	-85.63
211.66	-111.05
211.878	-146.24
212.095	96.41
212.313	69.15
212.53	69.82
212.748	67.71
212.966	79.18
213.183	89.71
213.401	99.72
213.618	102.2
213.836	103.58
214.053	106.39
214.271	109.43
214.488	-9784.42
214.705	-2214.38
214.923	-1920.05
215.14	-1053.41
215.358	-928.2
215.575	-592.04
215.793	-733.94
216.01	2030.95
216.227	-134618.18
216.445	-700.8
216.662	-558.76
216.879	-683.21
217.097	-362.01
217.314	-331.33
217.531	-393.1
217.749	-280.43
217.966	-237.63
218.183	-257.01
218.4	-210.9
218.618	-155.48
218.835	-193.77
219.052	-204.97
219.269	-156.78
219.487	-160.81
219.704	-178.84
219.921	-247.78
220.138	-381.53
220.355	-542.24
220.572	-228.92
220.79	-120.91
221.007	-135.58
221.224	-179.62
221.441	-147.35
221.658	-156.5
221.875	-112.47
222.092	-121.05
222.309	-73.56
222.526	-68.7
222.743	-71.78
222.96	-96.36
223.177	-202.13
223.394	-339.94
223.611	-168.37
223.828	-196.41
224.045	-146.39
224.262	-224.43
224.479	-236.98
224.696	-189.17
224.913	-199.9
225.13	-245.16
225.347	-187.53
225.564	-121.87
225.781	-72.18
225.997	-91.68
226.214	-83.63
226.431	-87.99
226.648	-75.34
226.865	-72.31
227.082	-91.5
227.298	-55.94
227.515	-45.2
227.732	-59.62
227.949	-74.4
228.165	-67.6
228.382	-55.6
228.599	-61.94
228.816	-72.39
229.032	-70.31
229.249	-66.19
229.466	-50.14
229.682	-74.37
229.899	-79.27
230.116	-64.19
230.332	-78.74
230.549	-76.56
230.765	-65.03
230.982	-61.29
231.199	-51.24
231.415	-52.25
231.632	-51.26
231.848	-62.17
232.065	-39.37
232.281	-33.6
232.498	-42.96
232.714	-37.09
232.931	-47.53
233.147	-62.97
233.364	-52.99
233.58	-60.48
233.797	-70.38
234.013	-59.3
234.23	-53.57
234.446	-83.46
234.662	-90.7
234.879	-77.06
235.095	-55.55
235.312	-77.72
235.528	-55.38
235.744	-66.73
235.961	-83.37
236.177	-94.7
236.393	-108.33
236.61	-108.48
236.826	-89.27
237.042	-75.79
237.258	-86.4
237.475	-104.91
237.691	-80.56
237.907	-87.52
238.123	-77.34
238.339	-59.07
238.556	-49.81
238.772	-55.32
238.988	-31.17
239.204	-20.09
239.42	-31.82
239.636	-24.06
239.853	-19.3
240.069	-24.67
240.285	-22.18
240.501	-20.67
240.717	-11.74
240.933	-11.61
241.149	-6.02
241.365	-11.42
241.581	-16.56
241.797	-16.49
242.013	-18.89
242.229	-20.14
242.445	-13.48
242.661	-14.09
242.877	-17.12
243.093	-17.17
243.309	-19.14
243.525	-18.39
243.741	-14.9
243.957	-17.93
244.173	-16.46
244.388	-19.59
244.604	-15.51
244.82	-21.5
245.036	-22.41
245.252	-17.58
245.468	-14.06
245.683	-10.11
245.899	-8.38
246.115	-9.4
246.331	-6.94
246.547	-6.96
246.762	-3.75
246.978	-6.3
247.194	-8.03
247.409	-6.91
247.625	-8.14
247.841	-12.09
248.057	-12.25
248.272	-15.86
248.488	-10.43
248.703	-8.84
248.919	-10.91
249.135	-14.44
249.35	-14.82
249.566	-10.92
249.782	-14
249.997	-13.26
250.213	-13.43
250.428	-17.71
250.644	-30.24
250.859	-32.49
251.075	-37.62
251.29	-32.96
251.506	-29.25
251.721	-29.06
251.937	-28.89
252.152	-26.5
252.368	-27.27
252.583	-37.41
252.798	-34.07
253.014	-23.31
253.229	-32.24
253.445	-29.36
253.66	-28.81
253.875	-35.35
254.091	-36.45
254.306	-34.26
254.521	-48.06
254.737	-40.61
254.952	-33.19
255.167	-33.59
255.383	-26.97
255.598	-26.55
255.813	-29.38
256.028	-29.81
256.244	-29.92
256.459	-30.86
256.674	-30.36
256.889	-26.78
257.104	-23.02
257.32	-18.35
257.535	-17.87
257.75	-24.17
257.965	-23.23
258.18	-21.97
258.395	-23.94
258.61	-17.21
258.826	-11.55
259.041	-12.74
259.256	-11.09
259.471	-12.47
259.686	-15.64
259.901	-15.88
260.116	-13.44
260.331	-11.56
260.546	-8.22
260.761	-5.92
260.976	-7.84
261.191	-10.22
261.406	-5.85
261.621	-10.3
261.836	-13.31
262.05	-12.82
262.265	-15.31
262.48	-13.61
262.695	-13.39
262.91	-15.8
263.125	-15.2
263.34	-16.89
263.555	-19.14
263.769	-29.92
263.984	-26.21
264.199	-25.46
264.414	-20.12
264.629	-15.39
264.843	-19.82
265.058	-26.52
265.273	-25.32
265.488	-34.49
265.702	-29.13
265.917	-28.97
266.132	-28.78
266.346	-21.1
266.561	-23.05
266.776	-24.04
266.99	-26.2
267.205	-23.45
267.42	-20.35
267.634	-21.88
267.849	-14.32
268.063	-18.54
268.278	-18.32
268.492	-16.16
268.707	-15.25
268.922	-14.97
269.136	-11.24
269.351	-6.1
269.565	-6.33
269.78	-5.6
269.994	-6.21
270.209	-3.77
270.423	-3.07
270.637	-3.03
270.852	-2.26
271.066	-7.66
271.281	-5.1
271.495	-5.93
271.709	-11.45
271.924	-11.29
272.138	-11.14
272.353	-11.14
272.567	-13.96
272.781	-12.84
272.996	-10.32
273.21	-11.08
273.424	-7.6
273.638	-7.78
273.853	-9.96
274.067	-4.22
274.281	-2.78
274.495	-2.99
274.71	-0.69
274.924	-2.66
275.138	-3.04
275.352	-10.44
275.566	-10.59
275.781	-10.38
275.995	-7.91
276.209	-12.47
276.423	-17.7
276.637	-19.82
276.851	-20.79
277.065	-27.53
277.279	-29.46
277.493	-27.02
277.707	-20.58
277.921	-21.13
278.135	-23.45
278.349	-18.14
278.563	-16.65
278.777	-12.69
278.991	-12.6
279.205	-13.74
279.419	-7.79
279.633	-7.31
279.847	-6.99
280.061	-10.36
280.275	-8.2
280.489	-10.48
280.703	-22.77
280.917	-13.14
281.131	-15.42
281.344	-16.35
281.558	-13.96
281.772	-12.2
281.986	-12.57
282.2	-15.45
282.414	-10.52
282.627	-7.52
282.841	-3.04
283.055	5.44
283.269	1.27
283.482	1.36
283.696	2.8
283.91	4.23
284.123	-2.96
284.337	0.65
284.551	1.29
284.764	3.71
284.978	1.78
285.192	1.47
285.405	-0.53
285.619	0.53
285.833	3.08
286.046	3.71
286.26	2.38
286.473	4.85
286.687	2.9
286.9	6.04
287.114	3.63
287.327	1.06
287.541	-0.38
287.754	-2.14
287.968	-8.1
288.181	-11.8
288.395	-15.17
288.608	-12.86
288.822	-13.5
289.035	-15.45
289.248	-18.7
289.462	-20.08
289.675	-17.18
289.889	-16.09
290.102	-14.03
290.315	-9.67
290.529	-10.08
290.742	-12.08
290.955	-11.47
291.169	-9.4
291.382	-6.83
291.595	-4.85
291.808	-2.92
292.022	-0.09
292.235	1.17
292.448	4.53
292.661	4.42
292.875	4.6
293.088	7.4
293.301	5.45
293.514	1.49
293.727	1.24
293.94	-1.16
294.153	-0.36
294.367	-5.83
294.58	-5.45
294.793	-9.93
295.006	-12.53
295.219	-9.96
295.432	-8.79
295.645	-9.82
295.858	-6.63
296.071	-6.87
296.284	-4.65
296.497	-4.74
296.71	-3.06
296.923	-3.69
297.136	-2.71
297.349	-1.87
297.562	0.39
297.775	-0.13
297.988	1.03
298.201	0.61
298.414	1.62
298.626	0.91
298.839	-2.02
299.052	1.12
299.265	-0.63
299.478	1.33
299.691	0.68
299.903	-2.15
300.116	-0.76
300.329	0.31
300.542	1.87
300.755	0.47
300.967	-0.92
301.18	0.78
301.393	-3.32
301.605	-1.82
301.818	-5.51
302.031	-5.72
302.243	-8.04
302.456	-9.09
302.669	-11.34
302.881	-16.65
303.094	-16.72
303.307	-14.63
303.519	-12.13
303.732	-13.17
303.944	-11.28
304.157	-12.27
304.37	-10.99
304.582	-10.98
304.795	-10.67
305.007	-8.45
305.22	-1.92
305.432	-2.14
305.645	-2.81
305.857	-3.29
306.069	-2.84
306.282	-4.12
306.494	1.37
306.707	3.57
306.919	5.07
307.132	2.2
307.344	-0.69
307.556	-4.18
307.769	-4.66
307.981	-5.13
308.193	-8.44
308.406	-6.48
308.618	-6.63
308.83	-7.68
309.043	-7.04
309.255	-5.88
309.467	-6.39
309.679	-5.15
309.892	-4.63
310.104	-3.51
310.316	-3.52
310.528	-1.07
310.74	-2.17
310.953	-3.15
311.165	-4.79
311.377	-4.81
311.589	-5.74
311.801	-3.51
312.013	-4.68
312.225	-2.86
312.437	-5.06
312.649	-7.3
312.862	-7.19
313.074	-8.29
313.286	-7.87
313.498	-4
313.71	-9.44
313.922	-9.52
314.134	-13.14
314.346	-12.87
314.558	-13.73
314.77	-13.97
314.982	-10.26
315.193	-15.05
315.405	-16.44
315.617	-15.55
315.829	-21.39
316.041	-17.93
316.253	-16.76
316.465	-12.7
316.677	-10.4
316.888	-11.17
317.1	-5.49
317.312	-6.59
317.524	-4.68
317.736	-5.47
317.947	-4.61
318.159	-3.38
318.371	-0.48
318.583	1.37
318.794	0.65
319.006	-0.09
319.218	-0.06
319.43	-2.15
319.641	-3.84
319.853	0.11
320.064	2.77
320.276	0.18
320.488	-0.46
320.699	-2.74
320.911	-5.81
321.123	-8.22
321.334	-10.61
321.546	-10.72
321.757	-7.42
321.969	-5.71
322.18	-9.74
322.392	-11.16
322.603	-10.42
322.815	-8.72
323.026	-8.17
323.238	-8.33
323.449	-4.17
323.661	-3.24
323.872	-2.37
324.083	-6.05
324.295	-3.23
324.506	-0.33
324.718	0.99
324.929	3.24
325.14	4.16
325.352	1.99
325.563	4.42
325.774	5.02
325.986	4.29
326.197	3.97
326.408	7.57
326.62	5.81
326.831	3.28
327.042	2.44
327.253	2.32
327.464	2.21
327.676	3.68
327.887	2.79
328.098	2.5
328.309	5.61
328.52	6.33
328.732	2.85
328.943	2.71
329.154	4.54
329.365	4.78
329.576	4.78
329.787	5.7
329.998	6.94
330.209	5.14
330.42	4.88
330.631	1.48
330.842	1.55
331.053	0.38
331.264	1.07
331.475	0.45
331.686	2.01
331.897	2.13
332.108	-0.35
332.319	1.36
332.53	2.2
332.741	3.96
332.952	6.83
333.163	3.42
333.374	5.61
333.585	3.58
333.795	0.38
334.006	0.49
334.217	0.24
334.428	1.19
334.639	-0.82
334.849	-0.8
335.06	-0.58
335.271	-1.85
335.482	2.44
335.692	2.3
335.903	2.11
336.114	6.31
336.325	7.51
336.535	8.02
336.746	5.06
336.957	5.76
337.167	7
337.378	1.93
337.589	2.9
337.799	2.45
338.01	1.85
338.22	4.49
338.431	5.7
338.642	5.66
338.852	6.68
339.063	7.74
339.273	6.58
339.484	7.67
339.694	10.31
339.905	9.28
340.115	7.38
340.326	7.79
340.536	7.88
340.746	5.43
340.957	4.68
341.167	2.71
341.378	4.03
341.588	5.08
341.799	2.64
342.009	4.24
342.219	6.31
342.43	9.38
342.64	12.21
342.85	11.1
343.061	9.79
343.271	8.52
343.481	10.24
343.691	10.72
343.902	9.83
344.112	10.24
344.322	9.91
344.532	8.7
344.743	5.66
344.953	3.99
345.163	4.98
345.373	7.95
345.583	9.89
345.793	8.12
346.004	7.2
346.214	7.8
346.424	9.54
346.634	8.19
346.844	7.37
347.054	9.6
347.264	8.15
347.474	8.01
347.684	7.2
347.894	6.54
348.104	6.1
348.314	6.87
348.524	6.37
348.734	6.27
348.944	7.75
349.154	10.17
349.364	9.58
349.574	10.62
349.784	11.88
349.994	12.88
350.204	11.75
350.413	12.5
350.623	13.06
350.833	14.09
351.043	14.27
351.253	12.9
351.463	11.03
351.672	12.01
351.882	11.97
352.092	9.97
352.302	8.88
352.511	8.83
352.721	7.51
352.931	9.07
353.141	9.67
353.35	9.18
353.56	9.67
353.77	10.19
353.979	7.02
354.189	6.19
354.399	8.42
354.608	5.35
354.818	6.15
355.027	7.18
355.237	6.67
355.447	6.66
355.656	7.56
355.866	6.65
356.075	5.46
356.285	7.88
356.494	8.54
356.704	7.01
356.913	9.37
357.123	9.45
357.332	10.15
357.542	9.39
357.751	9.92
357.96	9.38
358.17	10.94
358.379	12.48
358.589	11.52
358.798	11.49
359.007	11.85
359.217	13.09
359.426	13.55
359.635	12.77
359.845	12.96
360.054	10.92
360.263	10.46
360.472	9.96
360.682	9.97
360.891	9.96
361.1	9.74
361.309	11.33
361.519	10.56
361.728	9.82
361.937	9.62
362.146	10.08
362.355	12
362.564	12.11
362.774	11.81
362.983	11.09
363.192	11.02
363.401	11.34
363.61	9.42
363.819	7.47
364.028	8.07
364.237	9.59
364.446	9.25
364.655	8.32
364.864	8.06
365.073	9.23
365.282	8.96
365.491	9.12
365.7	8.83
365.909	9.03
366.118	10.82
366.327	10.68
366.536	10.14
366.745	10.93
366.954	9.55
367.162	8.99
367.371	8.05
367.58	8.56
367.789	9.54
367.998	9.56
368.207	10.11
368.415	8.54
368.624	8.5
368.833	8.48
369.042	8.18
369.25	8.87
369.459	9.36
369.668	10.79
369.877	11.04
370.085	11.16
370.294	11.22
370.503	10.62
370.711	11.75
370.92	12.21
371.129	11.39
371.337	10.18
371.546	12.03
371.754	12.88
371.963	11.3
372.171	11.11
372.38	10.83
372.589	10.47
372.797	10.1
373.006	10.71
373.214	7.65
373.423	7.94
373.631	9.6
373.84	9.03
374.048	7.63
374.256	8.56
374.465	7.08
374.673	6.07
374.882	6.29
375.09	6.28
375.298	6.49
375.507	10.8
375.715	10.91
375.923	11.27
376.132	10.93
376.34	12.02
376.548	11.57
376.757	12.06
376.965	13.53
377.173	13.48
377.381	13.44
377.59	12.61
377.798	11.4
378.006	12.81
378.214	10.41
378.423	10.36
378.631	10.87
378.839	9.99
379.047	11.1
379.255	10.28
379.463	11.21
379.671	11.01
379.879	11.5
380.088	12.21
380.296	11.78
380.504	12.34
380.712	12.3
380.92	11.84
381.128	13.79
381.336	13.44
381.544	12.34
381.752	11.26
381.96	12.27
382.168	12.94
382.376	11.93
382.584	10.74
382.791	10.3
382.999	10.19
383.207	8.31
383.415	7.46
383.623	8.02
383.831	8.89
384.039	9.02
384.247	8.64
384.454	9.52
384.662	9.03
384.87	10.43
385.078	12.43
385.285	12.67
385.493	13.75
385.701	14.2
385.909	13.88
386.116	14.01
386.324	15.02
386.532	15.61
386.739	15.45
386.947	14.55
387.155	12.84
387.362	11.11
387.57	10.85
387.778	11.1
387.985	10.04
388.193	10.39
388.4	9.93
388.608	8.96
388.816	8.11
389.023	8.07
389.231	8.77
389.438	8.46
389.646	9.35
389.853	9.32
390.061	9.79
390.268	10.31
390.475	10.71
390.683	11.3
390.89	11.29
391.098	11.06
391.305	10.52
391.512	11.13
391.72	11.71
391.927	11.99
392.135	11.98
392.342	12.5
392.549	11.87
392.756	11.51
392.964	12.3
393.171	11.58
393.378	12.58
393.586	11.81
393.793	11.93
394	12.55
394.207	12.16
394.414	12.5
394.622	11.2
394.829	11.84
395.036	11.26
395.243	10.08
395.45	11.81
395.657	11.75
395.864	12.19
396.072	10.92
396.279	11.44
396.486	10.66
396.693	10.27
396.9	10.78
397.107	10.1
397.314	11.29
397.521	12.58
397.728	11.86
397.935	10.4
398.142	10.19
398.349	11.1
398.556	10.97
398.763	12.35
398.97	12.24
399.177	12.34
399.383	13.42
399.59	12.19
399.797	11.45
400.004	11.2
400.211	12.45
400.418	12.6
400.625	12.78
400.831	11.97
401.038	12
401.245	11.82
401.452	11.76
401.658	11.23
401.865	12
402.072	11.64
402.279	12.18
402.485	11.13
402.692	11.15
402.899	11.3
403.105	12.18
403.312	12.07
403.519	11.24
403.725	10.74
403.932	11.61
404.138	11
404.345	11.3
404.552	10.97
404.758	10.8
404.965	10.57
405.171	11.16
405.378	10.14
405.584	9.62
405.791	11.15
405.997	10.87
406.204	10.56
406.41	10.32
406.617	9.83
406.823	9.63
407.029	10.59
407.236	9.9
407.442	8.55
407.649	8.29
407.855	8.1
408.061	7.34
408.268	8.54
408.474	9.3
408.68	9.71
408.887	11.24
409.093	11.68
409.299	11.86
409.505	13.43
409.712	13.41
409.918	14.88
410.124	15.21
410.33	15.75
410.537	16.18
410.743	15.62
410.949	15.96
411.155	15.27
411.361	16.05
411.567	15.8
411.773	16.35
411.98	17.73
412.186	16.2
412.392	16.64
412.598	15.31
412.804	15.34
413.01	15.03
413.216	14.94
413.422	14.59
413.628	13.62
413.834	12.82
414.04	11.65
414.246	11.69
414.452	12.13
414.658	12.05
414.864	12.32
415.07	12.29
415.275	12.85
415.481	12.93
415.687	12.24
415.893	12.48
416.099	13.72
416.305	14.31
416.511	14.49
416.716	14.5
416.922	14.26
417.128	14.55
417.334	14.39
417.539	14.01
417.745	14.34
417.951	15.22
418.157	15.31
418.362	15.01
418.568	14.79
418.774	14.39
418.979	14.68
419.185	14.8
419.391	15.38
419.596	15.34
419.802	15.85
420.008	16.19
420.213	16.84
420.419	16.45
420.624	17.17
420.83	17.78
421.035	17.62
421.241	17.8
421.446	17.98
421.652	17.62
421.857	17.68
422.063	17.34
422.268	16.73
422.474	15.99
422.679	16.73
422.885	16.26
423.09	15.87
423.295	16.29
423.501	16.01
423.706	15.92
423.911	16.44
424.117	16.78
424.322	16.53
424.527	17.04
424.733	16.88
424.938	16.57
425.143	16.24
425.349	15.84
425.554	15.54
425.759	15.47
425.964	15.71
426.169	15.98
426.375	15.01
426.58	15.42
426.785	15.14
426.99	14.89
427.195	14.86
427.4	14.95
427.605	14.69
427.811	14.6
428.016	14.46
428.221	13.78
428.426	13.2
428.631	13.44
428.836	13.16
429.041	13.27
429.246	13.38
429.451	12.99
429.656	13.81
429.861	14.35
430.066	14.05
430.271	14.87
430.476	14.94
430.681	14.31
430.886	14.21
431.09	14.39
431.295	13.62
431.5	14.15
431.705	14.65
431.91	13.97
432.115	14.44
432.32	14.59
432.524	14.67
432.729	14.63
432.934	15.12
433.139	15.94
433.343	15.97
433.548	16.13
433.753	15.77
433.958	15.94
434.162	15.93
434.367	15.88
434.572	15.57
434.776	15.28
434.981	15.37
435.186	15.69
435.39	14.76
435.595	14.01
435.799	14.83
436.004	14.93
436.209	14.79
436.413	15.28
436.618	14.96
436.822	15.68
437.027	15.26
437.231	15.68
437.436	14.81
437.64	14.94
437.845	15.7
438.049	15.29
438.253	15.15
438.458	14.69
438.662	14.32
438.867	14.51
439.071	14.45
439.275	14.9
439.48	14.64
439.684	14.84
439.888	14.52
440.093	13.88
440.297	13.77
440.501	14.31
440.706	14.16
440.91	13.9
441.114	13.7
441.318	13.34
441.523	13.02
441.727	13.04
441.931	12.9
442.135	13.84
442.339	14.28
442.543	14.9
442.748	14.37
442.952	15.08
443.156	14.99
443.36	15.12
443.564	15.29
443.768	15.46
443.972	14.52
444.176	14.89
444.38	15.19
444.584	15.72
444.788	15.4
444.992	15.44
445.196	15.33
445.4	15.8
445.604	16.15
445.808	16.28
446.012	16.23
446.216	16.66
446.42	16.55
446.624	16.13
446.828	15.75
447.032	15.71
447.235	15.9
447.439	15.44
447.643	15.31
447.847	14.69
448.051	14.19
448.254	13.98
448.458	14.52
448.662	14.76
448.866	14.62
449.069	14.44
449.273	14.17
449.477	14.42
449.681	14.59
449.884	14.38
450.088	14.07
450.292	14.1
450.495	14.51
450.699	13.84
450.902	13.86
451.106	13.81
451.31	14.48
451.513	14.48
451.717	14.36
451.92	14.25
452.124	14.26
452.327	15.14
452.531	15.46
452.734	15.35
452.938	15.94
453.141	15.54
453.345	15.96
453.548	15.79
453.752	15.95
453.955	15.57
454.158	16.07
454.362	16.04
454.565	15.68
454.769	15.63
454.972	14.94
455.175	14.68
455.379	15.09
455.582	14.08
455.785	13.9
455.988	13.51
456.192	13.63
456.395	13.36
456.598	13.95
456.801	14.22
457.005	14.11
457.208	14.3
457.411	13.77
457.614	13.6
457.817	14
458.021	14.03
458.224	14.37
458.427	14.63
458.63	14.63
458.833	14.56
459.036	14.05
459.239	14.21
459.442	14.16
459.645	14.7
459.848	14.66
460.051	14.71
460.254	14.98
460.457	14.96
460.66	14.12
460.863	14.49
461.066	14.31
461.269	14.58
461.472	14.64
461.675	14.93
461.878	14.75
462.081	14.88
462.284	14.87
462.486	14.66
462.689	14.42
462.892	15.17
463.095	14.67
463.298	14.43
463.5	14.58
463.703	14.48
463.906	14.29
464.109	14.16
464.311	14.43
464.514	14.82
464.717	14.02
464.92	14.64
465.122	14.77
465.325	14.78
465.528	15.07
465.73	15.09
465.933	15.44
466.135	15.39
466.338	15.97
466.541	15.55
466.743	15.54
466.946	15.84
467.148	15.6
467.351	15.46
467.553	15.54
467.756	15.27
467.958	14.84
468.161	15.07
468.363	15.37
468.566	14.74
468.768	15
468.971	14.64
469.173	14.99
469.375	15.28
469.578	14.78
469.78	14.35
469.983	14.4
470.185	14.97
470.387	14.43
470.59	15.06
470.792	15.32
470.994	15.41
471.196	15.05
471.399	14.79
471.601	14.23
471.803	15.07
472.005	15.98
472.208	15.94
472.41	15.41
472.612	15.09
472.814	14.07
473.016	13.97
473.218	13.77
473.421	14.2
473.623	14.03
473.825	14.49
474.027	14.24
474.229	14.11
474.431	14.29
474.633	14.97
474.835	15.57
475.037	16.29
475.239	15.77
475.441	16.42
475.643	16.48
475.845	16.61
476.047	16.4
476.249	15.98
476.451	16.21
476.653	16.27
476.855	15.9
477.057	15.25
477.258	15.86
477.46	16.19
477.662	16.06
477.864	16.58
478.066	16.86
478.268	16.69
478.469	16.57
478.671	16.36
478.873	16.39
479.075	16.39
479.276	17.2
479.478	16.71
479.68	16.66
479.882	16.09
480.083	15.79
480.285	15.41
480.487	15.33
480.688	15.8
480.89	15.51
481.091	15.53
481.293	15.73
481.495	15.54
481.696	15.27
481.898	15.31
482.099	15.45
482.301	15.32
482.502	15.7
482.704	16.02
482.905	15.88
483.107	16.04
483.308	16.15
483.51	16.17
483.711	16.2
483.913	16.33
484.114	16.51
484.315	16.46
484.517	16.77
484.718	16.68
484.92	16.71
485.121	16.74
485.322	16.73
485.524	16.5
485.725	16.41
485.926	16.52
486.127	16.45
486.329	16.39
486.53	16.61
486.731	16.44
486.932	16.22
487.134	16.15
487.335	16.34
487.536	16.42
487.737	16.57
487.938	16.4
488.139	16.03
488.341	16.22
488.542	16.23
488.743	16.04
488.944	15.86
489.145	15.82
489.346	15.7
489.547	15.55
489.748	15.51
489.949	15.56
490.15	15.98
490.351	16.43
490.552	16.36
490.753	16.24
490.954	16.2
491.155	16.37
491.356	16.37
491.557	16.32
491.758	16.24
491.959	16.29
492.159	16.36
492.36	16.17
492.561	15.92
492.762	15.5
492.963	15.35
493.164	15.48
493.364	15.22
493.565	15.43
493.766	15.47
493.967	15.84
494.167	15.57
494.368	15.56
494.569	15.53
494.769	15.02
494.97	15
495.171	15.01
495.371	14.71
495.572	14.6
495.773	14.72
495.973	15.08
496.174	14.53
496.375	14.61
496.575	14.72
496.776	14.71
496.976	14.94
497.177	15.61
497.377	15.73
497.578	15.84
497.778	16.01
497.979	15.69
498.179	15.48
498.38	15.95
498.58	15.7
498.78	15.62
498.981	15.8
499.181	15.83
499.382	15.47
499.582	15.64
499.782	15.32
499.983	15.27
500.183	15.81
500.383	15.91
500.584	16.04
500.784	16.14
500.984	16.16
501.184	15.83
501.385	16.38
501.585	16.24
501.785	16.42
501.985	17.4
502.185	17.5
502.386	17.54
502.586	17.35
502.786	17.3
502.986	17.51
503.186	16.91
503.386	17.55
503.586	17.2
503.786	17.37
503.987	17.27
504.187	16.33
504.387	16.21
504.587	15.59
504.787	15.72
504.987	16.13
505.187	16.1
505.387	16.42
505.587	16.08
505.786	16.53
505.986	16.47
506.186	16.12
506.386	16.56
506.586	16.81
506.786	17.41
506.986	17.26
507.186	16.79
507.386	16.42
507.585	16.45
507.785	16.54
507.985	16.33
508.185	16.11
508.384	16.05
508.584	15.68
508.784	15.4
508.984	14.98
509.183	15.06
509.383	15.3
509.583	15.51
509.782	15.78
509.982	15.67
510.182	15.56
510.381	15.67
510.581	16.33
510.781	16.3
510.98	16.4
511.18	16.68
511.379	16.54
511.579	16.14
511.778	16.27
511.978	16.02
512.177	16.18
512.377	16.28
512.576	16.76
512.776	16.12
512.975	16.65
513.175	16.6
513.374	16.77
513.573	16.67
513.773	16.72
513.972	16.64
514.172	16.88
514.371	16.82
514.57	16.81
514.77	16.4
514.969	16.56
515.168	16.79
515.367	17.06
515.567	17
515.766	17.18
515.965	17.16
516.164	17.38
516.364	17.24
516.563	17.5
516.762	17.58
516.961	17.56
517.16	17.92
517.359	18.17
517.559	17.97
517.758	17.95
517.957	18.17
518.156	18.32
518.355	18.32
518.554	18.39
518.753	17.97
518.952	18.17
519.151	18.39
519.35	18.26
519.549	17.81
519.748	17.96
519.947	17.95
520.146	17.98
520.345	17.92
520.544	18.02
520.743	18.17
520.942	18.78
521.141	18.53
521.339	18.5
521.538	18.57
521.737	18.29
521.936	18.49
522.135	18.58
522.333	18.41
522.532	18.6
522.731	18.81
522.93	18.94
523.129	18.69
523.327	18.95
523.526	19.09
523.725	19.02
523.923	19.2
524.122	19.12
524.321	19.32
524.519	19.48
524.718	19.66
524.917	19.4
525.115	19.51
525.314	19.71
525.512	19.92
525.711	20.12
525.909	20.54
526.108	20.65
526.306	20.66
526.505	20.58
526.703	20.39
526.902	20.22
527.1	20.29
527.299	20.3
527.497	20.21
527.696	20.24
527.894	20.11
528.092	20.02
528.291	20.08
528.489	20.24
528.688	20.24
528.886	20.3
529.084	20.26
529.283	20.38
529.481	20.24
529.679	20.28
529.877	20.06
530.076	19.84
530.274	20
530.472	20.13
530.67	19.81
530.869	19.71
531.067	19.78
531.265	20
531.463	19.85
531.661	19.98
531.859	19.94
532.057	20.1
532.255	20.56
532.454	20.41
532.652	20.33
532.85	20.58
533.048	20.96
533.246	21.3
533.444	21.46
533.642	21.7
533.84	21.73
534.038	21.65
534.236	21.83
534.434	21.73
534.632	21.72
534.83	21.87
535.027	21.95
535.225	21.92
535.423	21.63
535.621	21.74
535.819	21.63
536.017	21.67
536.215	21.96
536.412	22.01
536.61	21.98
536.808	21.97
537.006	22.19
537.203	22.06
537.401	21.71
537.599	21.91
537.797	21.67
537.994	21.88
538.192	22.04
538.39	22.37
538.587	22.26
538.785	21.97
538.983	22.24
539.18	22.2
539.378	22.44
539.575	22.47
539.773	22.49
539.97	22.71
540.168	22.6
540.366	22.45
540.563	22.23
540.761	22.1
540.958	22.49
541.155	22.32
541.353	22.2
541.55	22.09
541.748	22.25
541.945	22.12
542.143	22.06
542.34	21.86
542.537	22.12
542.735	22.16
542.932	22.24
543.129	21.89
543.327	21.89
543.524	21.65
543.721	21.7
543.919	21.49
544.116	21.45
544.313	21.19
544.51	21.49
544.708	21.33
544.905	21.55
545.102	21.92
545.299	21.94
545.496	22.16
545.693	22.39
545.891	22.14
546.088	22.08
546.285	22.19
546.482	22.18
546.679	22.33
546.876	22.43
547.073	22.47
547.27	22.28
547.467	22.41
547.664	22.11
547.861	22.47
548.058	22.83
548.255	22.89
548.452	22.79
548.649	23.5
548.846	23.26
549.043	22.86
549.24	22.85
549.437	22.72
549.633	22.74
549.83	23.04
550.027	22.96
550.224	23.06
550.421	23.26
550.618	23.55
550.814	22.87
551.011	23.37
551.208	23.87
551.405	23.58
551.601	23.67
551.798	23.52
551.995	23.15
552.191	22.91
552.388	22.47
552.585	22.79
552.781	23.31
552.978	23.54
553.175	23.08
553.371	22.9
553.568	23.12
553.764	23.06
553.961	23.28
554.157	23.92
554.354	24.37
554.55	25.13
554.747	25.53
554.943	25.1
555.14	24.98
555.336	25.06
555.533	24.86
555.729	24.35
555.926	24.38
556.122	24.61
556.318	25.04
556.515	25.2
556.711	24.78
556.907	24.27
557.104	24.59
557.3	25.42
557.496	25.85
557.693	25.92
557.889	26.28
558.085	26.16
558.281	26.27
558.478	25.76
558.674	25.28
558.87	25.65
559.066	25.99
559.262	26.31
559.459	25.82
559.655	26.17
559.851	26.51
560.047	26.2
560.243	26.49
560.439	26.14
560.635	26.17
560.831	26.09
561.027	25.79
561.223	25.84
561.419	25.66
561.615	25.8
561.811	25.11
562.007	24.84
562.203	25.37
562.399	24.88
562.595	25.82
562.791	25.69
562.987	26.31
563.183	26.89
563.379	26.61
563.575	26.43
563.771	26.25
563.966	26.5
564.162	26.92
564.358	27.18
564.554	28.3
564.75	27.39
564.945	27.97
565.141	27.74
565.337	27.61
565.533	27.64
565.728	27.66
565.924	28.17
566.12	28.25
566.315	28
566.511	28.36
566.707	27.9
566.902	28.48
567.098	28.4
567.293	28.47
567.489	28.3
567.684	28.93
567.88	28.67
568.076	28.64
568.271	28.62
568.467	29.16
568.662	28.76
568.858	29.64
569.053	29.64
569.248	30
569.444	30.45
569.639	31.17
569.835	30.98
570.03	31.04
570.225	30.89
570.421	31.17
570.616	31.19
570.812	31.03
571.007	30.31
571.202	30.06
571.397	29.56
571.593	29.03
571.788	28.73
571.983	28.56
572.178	28.9
572.374	28.97
572.569	28.62
572.764	28.78
572.959	29.16
573.154	29.59
573.35	29.93
573.545	29.99
573.74	30.57
573.935	30.1
574.13	30.18
574.325	30.06
574.52	30.46
574.715	30.99
574.91	30.98
575.105	30.61
575.3	30.52
575.495	31.05
575.69	30.75
575.885	30.37
576.08	31.53
576.275	31.63
576.47	32.09
576.665	31.82
576.86	31.47
577.055	31.46
577.25	31.81
577.444	31.93
577.639	31.52
577.834	31.99
578.029	32.36
578.224	31.28
578.418	31.54
578.613	31.47
578.808	31.58
579.003	31.7
579.197	31.9
579.392	32.1
579.587	31.71
579.781	31.95
579.976	31.93
580.171	32.21
580.365	33.16
580.56	33.52
580.755	33.4
580.949	33.56
581.144	33.77
581.338	33.53
581.533	33.27
581.727	32.68
581.922	32.85
582.116	33
582.311	32.43
582.505	32.51
582.7	31.87
582.894	31.54
583.089	31.45
583.283	31.44
583.478	31.36
583.672	31.43
583.866	31.64
584.061	31.42
584.255	32.16
584.449	33.1
584.644	32.08
584.838	32.38
585.032	32.67
585.226	32.89
585.421	33.05
585.615	32.87
585.809	33.16
586.003	33.36
586.198	33.66
586.392	32.88
586.586	32.61
586.78	33.68
586.974	32.8
587.168	32.82
587.363	32.75
587.557	33.25
587.751	33.5
587.945	33.85
588.139	34.78
588.333	34.56
588.527	34.81
588.721	34.38
588.915	33.91
589.109	35.07
589.303	35.03
589.497	35.02
589.691	35.4
589.885	35.3
590.079	35.47
590.273	35.14
590.466	35.03
590.66	35
590.854	35.35
591.048	35.85
591.242	35.37
591.436	35.51
591.629	35.67
591.823	34.25
592.017	34.66
592.211	34.15
592.404	34.09
592.598	34.31
592.792	34.41
592.986	34.14
593.179	34.05
593.373	34.44
593.567	34.83
593.76	34.76
593.954	35.32
594.147	35.11
594.341	35.38
594.535	35.24
594.728	35.12
594.922	35.37
595.115	36.05
595.309	36.59
595.502	36.77
595.696	36.72
595.889	37.01
596.083	37.38
596.276	37.36
596.47	37.17
596.663	37.45
596.856	37.88
597.05	37.96
597.243	37.78
597.437	36.61
597.63	36.43
597.823	36.48
598.017	36.21
598.21	35.64
598.403	36.07
598.596	35.99
598.79	36.72
598.983	37.38
599.176	37.3
599.369	36.87
599.563	37.89
599.756	38.27
599.949	38.4
600.142	39.07
600.335	39.49
600.528	39.54
600.722	40.08
600.915	39.31
601.108	38.27
601.301	38.73
601.494	39.65
601.687	39
601.88	38.62
602.073	38.48
602.266	38.46
602.459	38.64
602.652	38.15
602.845	37.62
603.038	38.01
603.231	38.12
603.424	37.63
603.617	37.18
603.809	37.52
604.002	37.64
604.195	37.2
604.388	36.91
604.581	36.53
604.774	36.75
604.966	36.69
605.159	36.68
605.352	37.05
605.545	36.3
605.737	36.6
605.93	36.41
606.123	36.44
606.316	37.17
606.508	37.4
606.701	36.89
606.894	37.2
607.086	37.22
607.279	36.41
607.471	36.77
607.664	37.89
607.857	37.24
608.049	37.78
608.242	37.93
608.434	38.09
608.627	37.91
608.819	39.16
609.012	39.3
609.204	39.9
609.397	40.41
609.589	39.92
609.782	40.14
609.974	40.18
610.166	39.62
610.359	38.76
610.551	39.15
610.743	39
610.936	38.3
611.128	37.42
611.32	37.28
611.513	37.18
611.705	37.58
611.897	37.94
612.09	38.42
612.282	39.56
612.474	39.84
612.666	38.81
612.858	39
613.051	38.99
613.243	39.96
613.435	39.2
613.627	39.31
613.819	38.59
614.011	37.81
614.203	37.67
614.395	36.71
614.588	37.09
614.78	37.44
614.972	37.05
615.164	36.63
615.356	35.47
615.548	36.01
615.74	35.7
615.932	35.73
616.124	36.22
616.315	36.26
616.507	35.49
616.699	35.63
616.891	35.79
617.083	35.6
617.275	36.07
617.467	36.82
617.659	36.2
617.85	35.92
618.042	35.23
618.234	34.81
618.426	35.35
618.618	36.63
618.809	36.47
619.001	35.99
619.193	35.68
619.384	35.63
619.576	35.91
619.768	37.4
619.959	38.04
620.151	39.28
620.343	39.46
620.534	38.75
620.726	37.82
620.917	38.15
621.109	38.73
621.301	39.93
621.492	40.43
621.684	39.97
621.875	39.29
622.067	39.56
622.258	38.95
622.45	38.75
622.641	39.25
622.832	40.36
623.024	39.41
623.215	38.92
623.407	39
623.598	38.28
623.789	38.49
623.981	37.63
624.172	37.31
624.363	37.52
624.555	37.43
624.746	36.89
624.937	37.59
625.129	38.22
625.32	38.49
625.511	38.46
625.702	38.9
625.893	38.65
626.085	40.33
626.276	40.21
626.467	40.28
626.658	40.54
626.849	40.68
627.04	39.8
627.231	39.82
627.422	40.18
627.614	40.24
627.805	40.39
627.996	40.8
628.187	40
628.378	40.61
628.569	40.56
628.76	40.21
628.951	40.48
629.142	40.68
629.332	40.83
629.523	40.91
629.714	40.5
629.905	40.79
630.096	40.7
630.287	41.12
630.478	41.07
630.669	40.75
630.859	40.28
631.05	40.99
631.241	40.98
631.432	41.13
631.623	40.43
631.813	41.34
632.004	40.84
632.195	40.78
632.385	40.51
632.576	40.04
632.767	41.3
632.957	42.14
633.148	42.24
633.339	41.93
633.529	41.62
633.72	41.93
633.91	41.69
634.101	41.49
634.292	41.9
634.482	42.01
634.673	42.15
634.863	41.78
635.054	41.64
635.244	40.52
635.435	40.66
635.625	40.94
635.815	40.75
636.006	39.36
636.196	39.62
636.387	39.89
636.577	39.84
636.767	40
636.958	38.7
637.148	39.5
637.338	39.39
637.529	39.87
637.719	40.49
637.909	39.67
638.099	39.47
638.29	40.14
638.48	38.67
638.67	38.02
638.86	38.28
639.05	39.74
639.241	38.13
639.431	39.61
639.621	40.09
639.811	38.58
640.001	39.34
640.191	40.78
640.381	40.24
640.571	41.07
640.761	40.2
640.951	39.26
641.141	39.1
641.331	40.83
641.521	38.83
641.711	38.19
641.901	39.22
642.091	38.81
642.281	37.48
642.471	36.69
642.661	35.56
642.851	37.31
643.041	38.21
643.231	38.1
643.42	37.73
643.61	37.35
643.8	37.1
643.99	37.4
644.18	38.38
644.369	39.54
644.559	39.81
644.749	40.79
644.939	41.1
645.128	41.13
645.318	41.51
645.508	41.49
645.697	43.59
645.887	43.99
646.076	43.8
646.266	43.04
646.456	43.84
646.645	44.26
646.835	45.1
647.024	44.9
647.214	43.51
647.403	42.26
647.593	42.12
647.782	40.74
647.972	40.83
648.161	39.96
648.351	40.98
648.54	41.35
648.73	40.51
648.919	39.95
649.108	39.65
649.298	40.42
649.487	41.13
649.677	40.87
649.866	41.53
650.055	41.46
650.244	43.03
650.434	42.77
650.623	42.17
650.812	43.22
651.002	43.61
651.191	44.08
651.38	43.54
651.569	43.47
651.758	42.78
651.947	41.9
652.137	40.93
652.326	39.61
652.515	39.63
652.704	38.49
652.893	38.55
653.082	38.04
653.271	36.71
653.46	38.69
653.649	39.64
653.838	39.75
654.027	40.49
654.216	41.48
654.405	42.01
654.594	41.38
654.783	42.84
654.972	42.9
655.161	43.53
655.35	44.1
655.539	43.13
655.728	40.96
655.916	41.29
656.105	41.46
656.294	40.14
656.483	39.48
656.672	40.91
656.86	40.24
657.049	39.83
657.238	39.23
657.427	40.06
657.615	39.69
657.804	40.66
657.993	40.76
658.181	40.9
658.37	41.58
658.559	41.74
658.747	41.2
658.936	41.12
659.125	40.48
659.313	40.63
659.502	40.34
659.69	41.34
659.879	41.49
660.067	41.91
660.256	42.93
660.444	43.42
660.633	44.31
660.821	44.44
661.01	43.57
661.198	44.02
661.387	44.41
661.575	45.11
661.763	44.43
661.952	44.56
662.14	44.71
662.328	42.82
662.517	42.05
662.705	43.05
662.893	42.76
663.082	43.86
663.27	44.42
663.458	43.85
663.646	42.62
663.834	41.27
664.023	40.86
664.211	39.67
664.399	41.47
664.587	42.8
664.775	41.62
664.963	42.32
665.152	42.23
665.34	43.08
665.528	42.99
665.716	43.03
665.904	44.4
666.092	44.89
666.28	46.45
666.468	45.3
666.656	45.11
666.844	44.56
667.032	43.17
667.22	42.59
667.408	41.87
667.596	42.61
667.784	42.62
667.971	42.08
668.159	41.79
668.347	40.46
668.535	40.32
668.723	40.51
668.911	40.55
669.098	40.61
669.286	41.05
669.474	42.31
669.662	41.75
669.849	41.5
670.037	40.68
670.225	41.38
670.413	41.96
670.6	41.67
670.788	41.36
670.976	40.94
671.163	42.4
671.351	42.43
671.538	41.74
671.726	42.26
671.913	42.55
672.101	44.02
672.289	43.27
672.476	43.91
672.664	44.86
672.851	44.9
673.039	44.96
673.226	43.92
673.413	44.59
673.601	43.97
673.788	43.02
673.976	44.14
674.163	43.74
674.35	43.86
674.538	42.76
674.725	42.11
674.912	42.28
675.1	41.56
675.287	42.36
675.474	40.76
675.662	41.35
675.849	41.3
676.036	40.72
676.223	40.06
676.411	40.73
676.598	40.6
676.785	40.6
676.972	40.04
677.159	41.35
677.346	41.72
677.533	43.05
677.721	41.87
677.908	41.58
678.095	41.68
678.282	42.62
678.469	41.78
678.656	41.39
678.843	42.03
679.03	42.71
679.217	42.23
679.404	41.26
679.591	41.02
679.778	41.38
679.964	42.54
680.151	42.6
680.338	43.03
680.525	43.96
680.712	44.32
680.899	45.63
681.086	45.03
681.272	44.67
681.459	43.11
681.646	43.19
681.833	44.1
682.02	43.67
682.206	43.78
682.393	42.42
682.58	42.22
682.766	43.15
682.953	41.11
683.14	42.97
683.326	42.5
683.513	44.5
683.7	44.66
683.886	43.21
684.073	43.56
684.259	43.16
684.446	44.7
684.632	43.7
684.819	42.62
685.005	43.02
685.192	41.46
685.378	43.58
685.565	44.16
685.751	43.59
685.938	45.25
686.124	46.09
686.31	45.54
686.497	44.76
686.683	45.32
686.87	47.36
687.056	47.22
687.242	47.04
687.429	46.38
687.615	44.82
687.801	44.95
687.987	42.97
688.174	42.74
688.36	42.96
688.546	42.78
688.732	41.83
688.918	39.98
689.105	40.42
689.291	40.59
689.477	40.06
689.663	41.2
689.849	41.38
690.035	41.91
690.221	40.98
690.407	40.99
690.593	41.06
690.779	42.82
690.965	41.47
691.151	41.68
691.337	41.19
691.523	41.17
691.709	41.06
691.895	41.34
692.081	43.62
692.267	41.61
692.453	41.48
692.639	41.58
692.825	40.31
693.011	41.86
693.196	40.08
693.382	39.3
693.568	40.12
693.754	39.01
693.94	40.25
694.125	38.51
694.311	40.76
694.497	40.86
694.682	39.76
694.868	39.65
695.054	40.65
695.239	42.31
695.425	44.03
695.611	42.99
695.796	43.52
695.982	43.93
696.168	43.18
696.353	43.2
696.539	43.88
696.724	45.04
696.91	45.22
697.095	43.98
697.281	43.89
697.466	44.58
697.652	45.13
697.837	45.96
698.023	44.97
698.208	45.83
698.393	45.08
698.579	45.19
698.764	44.97
698.949	45.85
699.135	46.35
699.32	46.06
699.505	45.39
699.691	44.56
699.876	45.02
700.061	45.29
700.246	45.21
700.432	46.46
700.617	45.62
700.802	47.05
700.987	44.73
701.172	43.04
701.358	43.39
701.543	41.45
701.728	42.73
701.913	40.32
702.098	37.38
702.283	37.46
702.468	36.92
702.653	37.87
702.838	36.39
703.023	36.97
703.208	38.81
703.393	39.23
703.578	40.6
703.763	40.59
703.948	42.64
704.133	45.58
704.318	44.64
704.503	43.27
704.688	42.74
704.873	42.65
705.057	43.48
705.242	42.41
705.427	42.86
705.612	43.53
705.797	43.29
705.981	43.83
706.166	42.17
706.351	41.8
706.536	44.5
706.72	44.02
706.905	41.46
707.09	41.96
707.274	43.69
707.459	42.41
707.644	41.07
707.828	40.03
708.013	38.11
708.197	39.46
708.382	41.22
708.567	39.52
708.751	39.61
708.936	42.78
709.12	41.83
709.305	43.2
709.489	43.17
709.673	44.42
709.858	45.48
710.042	46.32
710.227	46.72
710.411	44.48
710.596	43.96
710.78	45.77
710.964	46.24
711.149	48.12
711.333	46.77
711.517	47.43
711.702	46.6
711.886	45.63
712.07	45.29
712.254	44.88
712.438	45.22
712.623	44.99
712.807	42.89
712.991	42.63
713.175	41.07
713.359	39.72
713.544	39.05
713.728	36.88
713.912	37.99
714.096	37.91
714.28	37.46
714.464	36.42
714.648	37.31
714.832	38.62
715.016	38.76
715.2	38.96
715.384	41.14
715.568	40.67
715.752	44.84
715.936	45.09
716.12	45.19
716.304	44.56
716.488	46.78
716.671	46.9
716.855	45.8
717.039	45.65
717.223	46.36
717.407	45.03
717.59	45.28
717.774	44.68
717.958	42.4
718.142	41.95
718.325	44.33
718.509	42.46
718.693	40.86
718.877	42.2
719.06	39.42
719.244	39.54
719.428	39.14
719.611	39.7
719.795	37.78
719.978	38.64
720.162	40.51
720.345	37.48
720.529	40.2
720.713	41.51
720.896	42.12
721.08	43.77
721.263	41.77
721.446	42.87
721.63	41.72
721.813	42.53
721.997	44.42
722.18	44.35
722.364	46.3
722.547	44.58
722.73	45.46
722.914	43.17
723.097	42.89
723.28	44.51
723.464	45.29
723.647	45.36
723.83	45.58
724.013	43.85
724.197	41.21
724.38	40.59
724.563	41.39
724.746	39.56
724.929	39.98
725.112	39.46
725.296	38.33
725.479	35.15
725.662	35.4
725.845	33.93
726.028	34.15
726.211	33.54
726.394	32.95
726.577	33.85
726.76	35.1
726.943	35.29
727.126	36.38
727.309	38.2
727.492	39.49
727.675	39.81
727.858	38.42
728.041	36.23
728.224	36.45
728.407	36.86
728.589	34.23
728.772	35.19
728.955	35.28
729.138	36.25
729.321	33.94
729.503	32.48
729.686	33.36
729.869	35.56
730.052	39.3
730.234	40.68
730.417	40.95
730.6	43.13
730.782	41.48
730.965	41.9
731.148	38.39
731.33	41.01
731.513	42.04
731.695	41.75
731.878	41.1
732.061	40.25
732.243	40.63
732.426	41.09
732.608	40.56
732.791	41.79
732.973	41.09
733.156	43.8
733.338	40.42
733.52	41.34
733.703	41.65
733.885	41.72
734.068	42.36
734.25	42.02
734.432	42.37
734.615	40.51
734.797	40.71
734.979	40.92
735.162	41.12
735.344	41.89
735.526	41.73
735.708	42.84
735.891	41.01
736.073	40.11
736.255	40.04
736.437	41.07
736.619	42.51
736.802	42.7
736.984	44.53
737.166	42.87
737.348	44.62
737.53	43.61
737.712	41.08
737.894	42.12
738.076	39.75
738.258	38.26
738.44	36.49
738.622	36.65
738.804	34.13
738.986	31.12
739.168	33.02
739.35	33.56
739.532	31.86
739.714	34.97
739.896	37.19
740.078	39.28
740.259	41.71
740.441	42.82
740.623	43.86
740.805	46.58
740.987	46.69
741.168	45.02
741.35	43.48
741.532	45.05
741.714	42.98
741.895	42.94
742.077	41.56
742.259	41.25
742.44	39.53
742.622	38.86
742.804	36.5
742.985	35.69
743.167	37.66
743.348	37.34
743.53	39.59
743.711	40.94
743.893	42.25
744.075	43.31
744.256	43.65
744.438	44.22
744.619	43.34
744.8	45.03
744.982	47.11
745.163	46.32
745.345	46.44
745.526	44.95
745.707	44.68
745.889	41.84
746.07	42.15
746.252	40.92
746.433	42.41
746.614	42.26
746.795	41.46
746.977	40.12
747.158	39.48
747.339	38.77
747.52	39.84
747.702	38.23
747.883	38.44
748.064	38.56
748.245	38.03
748.426	37.32
748.607	36.68
748.788	33.28
748.97	34.13
749.151	34
749.332	35.57
749.513	33.72
749.694	33.53
749.875	32.08
750.056	30.87
750.237	31.9
750.418	32.02
750.599	31.07
750.78	34.89
750.96	35.39
751.141	36.33
751.322	36.19
751.503	35.18
751.684	37.45
751.865	41
752.046	41.15
752.226	40.63
752.407	37.84
752.588	38.44
752.769	41.43
752.949	40.07
753.13	42.48
753.311	40.05
753.492	40.08
753.672	39.82
753.853	39.62
754.034	40
754.214	37.58
754.395	37.12
754.575	39.26
754.756	36.13
754.937	36.1
755.117	34.72
755.298	38.11
755.478	39.47
755.659	40.68
755.839	40.37
756.02	40.83
756.2	44.63
756.381	45.41
756.561	41.68
756.741	41.57
756.922	43.91
757.102	43.91
757.283	43.22
757.463	46.11
757.643	41.12
757.823	35.8
758.004	37.64
758.184	35.26
758.364	39.89
758.545	42.95
758.725	42.1
758.905	39.55
759.085	39.3
759.265	39.41
759.446	36.36
759.626	37.27
759.806	41.42
759.986	40.59
760.166	38.35
760.346	34.42
760.526	34.1
760.706	34.15
760.886	37.51
761.066	35.23
761.246	34.19
761.426	35.23
761.606	36.01
761.786	35.78
761.966	34.98
762.146	36.69
762.326	34.87
762.506	35.7
762.686	36.6
762.866	36.01
763.046	39.21
763.225	40.87
763.405	39.09
763.585	39.73
763.765	40.85
763.945	41.04
764.124	41.25
764.304	43.42
764.484	42.65
764.664	41.9
764.843	40.1
765.023	35.58
765.203	34.75
765.382	37.21
765.562	38.52
765.741	37.94
765.921	37.02
766.101	36.08
766.28	38.51
766.46	38.35
766.639	37.21
766.819	38.99
766.998	41.48
767.178	41.66
767.357	43.11
767.537	41.76
767.716	40.6
767.896	41.61
768.075	42.95
768.254	39.33
768.434	39.02
768.613	37.88
768.792	35.05
768.972	33.23
769.151	33.46
769.33	32.03
769.51	31.94
769.689	30.7
769.868	31.09
770.047	32.26
770.226	35.54
770.406	37.63
770.585	38.96
770.764	42.86
770.943	48.39
771.122	45.25
771.301	43
771.48	42
771.66	43.51
771.839	46.06
772.018	41.56
772.197	38.9
772.376	38.99
772.555	37.77
772.734	36.02
772.913	32.35
773.092	33.85
773.271	31.18
773.449	29.98
773.628	33.02
773.807	30.09
773.986	35.62
774.165	36.15
774.344	36.03
774.523	38.62
774.701	38.41
774.88	38.96
775.059	41.06
775.238	44.41
775.417	46.47
775.595	46.4
775.774	47.36
775.953	43.46
776.131	38.42
776.31	39.89
776.489	41.4
776.667	38.23
776.846	34.58
777.025	30.11
777.203	30.88
777.382	29.46
777.56	28.74
777.739	26.73
777.917	30.48
778.096	35.51
778.274	32.33
778.453	29.64
778.631	36.8
778.81	38.91
778.988	40.13
779.166	40.09
779.345	41.18
779.523	40.93
779.702	44.76
779.88	40.88
780.058	40.98
780.237	38.75
780.415	40.91
780.593	38.74
780.771	41.76
780.95	40.36
781.128	41.45
781.306	44.62
781.484	44.79
781.662	41.77
781.841	40.74
782.019	38.41
782.197	40.37
782.375	38.54
782.553	34.89
782.731	33.21
782.909	32.35
783.087	32.8
783.265	31.78
783.443	29.3
783.621	27.79
783.799	29.79
783.977	32.67
784.155	36
784.333	38.43
784.511	43.31
784.689	45.67
784.867	47.36
785.045	43.98
785.223	38.23
785.4	38.3
785.578	39.28
785.756	39.37
785.934	38.66
786.112	37.98
786.289	33.11
786.467	25.55
786.645	22.65
786.823	26.35
787	29.89
787.178	33.37
787.356	35.11
787.533	36.22
787.711	36.84
787.889	33.5
788.066	29.67
788.244	30.76
788.421	35.78
788.599	33.89
788.776	30.56
788.954	30.51
789.131	30.6
789.309	27.78
789.486	15.74
789.664	20.25
789.841	24.33
790.019	25.02
790.196	28.04
790.373	24.36
790.551	25.85
790.728	28.97
790.906	25.89
791.083	29.28
791.26	38.77
791.437	48.22
791.615	46.77
791.792	45.6
791.969	46.72
792.146	45.8
792.324	48.05
792.501	43.91
792.678	40.4
792.855	37.99
793.032	38.84
793.209	36.15
793.387	38.13
793.564	38.59
793.741	36.65
793.918	34.37
794.095	34.6
794.272	37.04
794.449	39.28
794.626	40.7
794.803	48.68
794.98	47.75
795.157	47.06
795.334	47.83
795.511	39.83
795.688	37.5
795.864	39.08
796.041	40.93
796.218	34.98
796.395	35.88
796.572	40.6
796.749	33.6
796.925	32.71
797.102	28.63
797.279	27.07
797.456	28.2
797.632	33.94
797.809	35.75
797.986	32.53
798.162	33.87
798.339	31.14
798.516	29.39
798.692	31.57
798.869	34.49
799.046	36.97
799.222	35.83
799.399	36.4
799.575	36.68
799.752	32.29
799.928	30.84
800.105	29.14
800.281	33.95
800.458	32.16
800.634	30.98
800.811	27.19
800.987	27.21
801.163	30.87
801.34	30.35
801.516	26.67
801.692	30.6
801.869	33.07
802.045	34.07
802.221	30.49
802.398	23.7
802.574	22.01
802.75	17.69
802.926	20.88
803.103	14.71
803.279	16.15
803.455	21.77
803.631	19.96
803.807	18.31
803.983	18.78
804.16	18.67
804.336	25.91
804.512	27.09
804.688	33.23
804.864	28.1
805.04	30.56
805.216	27.46
805.392	20.18
805.568	16.09
805.744	13.39
805.92	12.44
806.096	8.3
806.272	7.41
806.448	5.06
806.623	2.13
806.799	3.64
806.975	3.09
807.151	9.26
807.327	14.61
807.503	19.07
807.678	16.98
807.854	15.78
808.03	17.87
808.206	17.77
808.381	21.94
808.557	23.32
808.733	26.36
808.908	28.83
809.084	29.64
809.26	24.31
809.435	20.71
809.611	24.4
809.787	29.56
809.962	31.59
810.138	27.56
810.313	27.42
810.489	24.56
810.664	22.62
810.84	30.7
811.015	23.37
811.191	24.84
811.366	31.82
811.542	35.64
811.717	29.8
811.892	26.51
812.068	32.99
812.243	29.9
812.419	24.14
812.594	17.49
812.769	9.77
812.944	10.03
813.12	16.81
813.295	6.96
813.47	9.05
813.645	-0.29
813.821	1.63
813.996	-0.45
814.171	-2.45
814.346	5.37
814.521	17.12
814.697	14.02
814.872	15.6
815.047	15.53
815.222	20.64
815.397	17.71
815.572	26.49
815.747	29.39
815.922	33.82
816.097	32.58
816.272	33.05
816.447	32.37
816.622	30.93
816.797	28.68
816.972	29.29
817.147	28.14
817.322	27.47
817.496	27.03
817.671	17.51
817.846	9.93
818.021	13.12
818.196	15.08
818.371	12.43
818.545	16.33
818.72	17.89
818.895	13.2
819.069	16.83
819.244	19.36
819.419	20.36
819.594	28.84
819.768	32.8
819.943	32.32
820.117	31.49
820.292	32.37
820.467	33.81
820.641	35.61
820.816	38.39
820.99	37.69
821.165	37.73
821.339	38.35
821.514	37.47
821.688	37.73
821.863	38.73
822.037	38.81
822.212	37.98
822.386	37.79
822.56	37.4
822.735	36.36
822.909	36.23
823.084	36.91
823.258	36.04
823.432	37.12
823.606	37.34
823.781	35.41
823.955	35.1
824.129	35.35
824.303	35.39
824.478	36.58
824.652	36.16
824.826	36.78
825	35.88
825.174	36.46
825.348	35.47
825.523	35.36
825.697	36.64
825.871	37.03
826.045	37.32
826.219	37.58
826.393	35.47
826.567	36.08
826.741	35.16
826.915	35.8
827.089	34.27
827.263	32.85
827.437	32.43
827.611	34.13
827.784	31.2
827.958	31.55
828.132	30.9
828.306	32.78
828.48	29.16
828.654	30.42
828.827	26.13
829.001	24.59
829.175	27.42
829.349	26.24
829.522	21.51
829.696	24.12
829.87	23.15
830.044	22.78
830.217	21.74
830.391	20.45
830.565	19.91
830.738	19.88
830.912	20.67
831.085	14.82
831.259	12.34
831.432	12.91
831.606	13.63
831.779	16.6
831.953	17.48
832.126	20.58
832.3	19.93
832.473	12.12
832.647	15.94
832.82	20.69
832.994	22.08
833.167	21.92
833.34	21.55
833.514	21.82
833.687	23.16
833.86	25.82
834.034	21.64
834.207	23.86
834.38	27.86
834.553	27.71
834.727	24.43
834.9	30.26
835.073	33.7
835.246	35.45
835.419	33.59
835.593	30.62
835.766	28.52
835.939	24.46
836.112	26
836.285	27.57
836.458	27.97
836.631	31.01
836.804	24.55
836.977	17.61
837.15	15.17
837.323	19.34
837.496	18.52
837.669	11.74
837.842	22.52
838.015	21.83
838.188	16.46
838.361	15.69
838.533	6.58
838.706	10.17
838.879	18.33
839.052	18.37
839.225	10.53
839.398	17.45
839.57	20.05
839.743	19.42
839.916	21.32
840.088	24
840.261	26.25
840.434	35.87
840.607	33.27
840.779	27.49
840.952	28.07
841.124	33.09
841.297	29.52
841.47	28.77
841.642	27.38
841.815	25.29
841.987	23.07
842.16	16.56
842.332	9.36
842.505	8.05
842.677	6.47
842.85	11.12
843.022	7.3
843.194	-8.1
843.367	2.87
843.539	6.88
843.712	12.67
843.884	4.97
844.056	8.76
844.229	11.49
844.401	-0.46
844.573	8.13
844.745	-5
844.918	7.54
845.09	37.89
845.262	28.12
845.434	15.42
845.606	0.69
845.779	8.53
845.951	6.85
846.123	7.78
846.295	31.08
846.467	23.44
846.639	26
846.811	14.36
846.983	0.24
847.155	10.23
847.327	24.57
847.499	24.34
847.671	20.83
847.843	23.41
848.015	14.55
848.187	10.92
848.359	-2.22
848.531	-3.97
848.703	8.4
848.875	2.27
849.047	-10.1
849.218	-13.34
849.39	-34.72
849.562	-38.26
849.734	-59.63
849.905	-59.65
850.077	-59.35
850.249	-46.25
850.421	-52.25
850.592	-88.51
850.764	-89.05
850.936	-95.19
851.107	-121.3
851.279	-82.98
851.451	-51.68
851.622	-25.8
851.794	-10.88
851.965	-33.23
852.137	-23.36
852.308	-9.55
852.48	-2.85
852.651	-17.16
852.823	-18.44
852.994	-62.54
853.166	-55.75
853.337	-62.66
853.509	-59.43
853.68	-89.49
853.851	-63.68
854.023	-79.12
854.194	-67.52
854.365	-84.59
854.537	-53.61
854.708	-52.49
854.879	-16.97
855.05	-11.16
855.222	-18.87
855.393	-19.1
855.564	-12.49
855.735	-17.13
855.906	-5.24
856.078	-12.35
856.249	-11.23
856.42	-15.49
856.591	-3.05
856.762	-10.4
856.933	-5.54
857.104	14.87
857.275	17.65
857.446	26.85
857.617	32.28
857.788	36.58
857.959	29.97
858.13	34.03
858.301	28.08
858.472	16.45
858.643	22.26
858.814	12.07
858.985	-2.48
859.155	-19.7
859.326	-22.22
859.497	-29.46
859.668	-54.91
859.839	-61.91
860.009	-97.84
860.18	-103.65
860.351	-94.69
860.522	-102.1
860.692	-101.19
860.863	-149.79
861.034	-161.89
861.204	-363.6
861.375	-367.55
861.546	-178.28
861.716	-287.16
861.887	-227.87
862.057	-183.27
862.228	-90.63
862.398	-68.73
862.569	-38.07
862.739	-39.63
862.91	-20.8
863.08	-14.81
863.251	-3.02
863.421	7.9
863.592	25.22
863.762	30.9
863.932	10.79
864.103	-19.46
864.273	-61.03
864.443	-106.72
864.614	-81.33
864.784	-75.94
864.954	-60.15
865.125	-85.45
865.295	-91.3
865.465	-85.1
865.635	-78.58
865.805	-57.33
865.976	-50.27
866.146	-26.17
866.316	-14.33
866.486	-20.28
866.656	-32.41
866.826	-60.46
866.996	-55.91
867.166	-84.94
867.336	-106.7
867.506	-85.7
867.676	-112.34
867.846	-138.35
868.016	-156.16
868.186	-195.99
868.356	-171.17
868.526	-274.91
868.696	-220.39
868.866	-550.27
869.036	-199.01
869.206	-179.18
869.376	-179.13
869.545	-104.15
869.715	-67.46
869.885	-69.24
870.055	-48.12
870.224	-69.32
870.394	-57.67
870.564	-67.06
870.734	-26.42
870.903	-49.86
871.073	-38.3
871.243	-61.57
871.412	-78.88
871.582	-95.66
871.751	-91.86
871.921	-94.71
872.091	-110.1
872.26	-86.61
872.43	-76.77
872.599	-53.66
872.769	-35.18
872.938	-47.67
873.108	-48.22
873.277	-53.08
873.446	-30.9
873.616	-22.08
873.785	-23.78
873.955	-13.56
874.124	-28.09
874.293	-27.76
874.463	-46.74
874.632	-53.72
874.801	-58.88
874.971	-84.87
875.14	-108.38
875.309	-100.84
875.478	-96.49
875.647	-104.67
875.817	-93.19
875.986	-74.58
876.155	-72.8
876.324	-58.22
876.493	-62.69
876.662	-50.29
876.831	-49.52
877	-27.34
877.17	-25.85
877.339	-25.25
877.508	-6.11
877.677	-19.63
877.846	-20.58
878.015	-17.62
878.184	-32.27
878.352	-30.59
878.521	-49.06
878.69	-44.86
878.859	-33.11
879.028	-26.46
879.197	-34.19
879.366	-52.54
879.534	-38.19
879.703	-17.05
879.872	-19.14
880.041	-14.8
880.21	-10.07
880.378	4.04
880.547	14.11
880.716	10.32
880.884	10.79
881.053	13.7
881.222	14.15
881.39	14.13
881.559	16.22
881.727	17.55
881.896	20.24
882.065	21.56
882.233	20.26
882.402	20.51
882.57	21.71
882.739	22.61
882.907	24.43
883.076	24.71
883.244	27.9
883.412	23.9
883.581	25.08
883.749	25.66
883.918	23.83
884.086	21.8
884.254	18.45
884.423	15.98
884.591	12.89
884.759	10.36
884.927	5.72
885.096	5.77
885.264	4.54
885.432	1.92
885.6	-5.12
885.769	-9.06
885.937	2.19
886.105	-3.39
886.273	1.75
886.441	-7.39
886.609	-17.29
886.777	-7.31
886.945	-23.54
887.113	-32.98
887.281	-55.88
887.449	-47.32
887.617	-8.31
887.785	-24.54
887.953	-13.22
888.121	-41.09
888.289	-63.42
888.457	-100.32
888.625	-83.84
888.793	-76.9
888.961	-62.21
889.129	-28.15
889.296	-17.5
889.464	-48.43
889.632	-50.29
889.8	-58.7
889.967	-32.63
890.135	-15.59
