Data from JASIL_3245_Reflection_2.txt Node
Date: Mon Nov 16 20:35:37 EST 2015
User: Geneva
Spectrometer: USB4E03002
Autoset integration time: false
Trigger mode: 4
Integration Time (sec): 1.000000E-1
Scans to average: 10
Electric dark correction enabled: false
Nonlinearity correction enabled: false
Boxcar width: 5
Stray light correction enabled: false
XAxis mode: Wavelengths
Stop averaging: false
Number of Pixels in Spectrum: 3648
>>>>>Begin Spectral Data<<<<<
177.575	-415.38
177.794	-424.29
178.014	-419.28
178.233	-658.88
178.452	-1010.84
178.672	-739.39
178.891	-966.04
179.11	3062.16
179.33	1135.71
179.549	-6027.27
179.768	1207.63
179.987	1563.44
180.207	956.77
180.426	542.16
180.645	609.34
180.864	1028.57
181.084	411.05
181.303	346.99
181.522	612.27
181.741	1791.55
181.96	418.8
182.179	491.45
182.398	546.22
182.618	556.78
182.837	568.91
183.056	471.83
183.275	316.94
183.494	363.26
183.713	440.74
183.932	356.06
184.151	343.33
184.37	333.03
184.589	288.01
184.808	238.72
185.027	216.03
185.246	227.99
185.465	330.56
185.684	333.33
185.903	1127.59
186.122	359.64
186.341	463.48
186.56	249.47
186.779	363.73
186.998	589.23
187.216	656.69
187.435	567.07
187.654	605.41
187.873	290.84
188.092	267.35
188.311	266.67
188.53	403.09
188.748	404.66
188.967	934.4
189.186	535.25
189.405	493.94
189.623	484.72
189.842	468.72
190.061	474.16
190.28	1302.56
190.498	-1221.25
190.717	955.56
190.936	-2238.98
191.154	-1166.07
191.373	-28833.33
191.592	-15236.36
191.81	-990.23
192.029	-1347.33
192.248	-436.1
192.466	-389.37
192.685	-435.08
192.904	-641.03
193.122	-393.33
193.341	-758.38
193.559	-695.94
193.778	-631.52
193.996	-820.61
194.215	29200
194.433	-2516.67
194.652	547.78
194.87	525.54
195.089	466.38
195.307	497.89
195.526	1561.02
195.744	780.7
195.963	493.96
196.181	11262.5
196.399	-744.44
196.618	3815
196.836	12383.33
197.055	-648.36
197.273	-1291.38
197.491	-967.78
197.71	-1929.41
197.928	1343.75
198.146	2892.86
198.365	-12120
198.583	609.09
198.801	823.39
199.019	1924.68
199.238	-3628.57
199.456	1474.53
199.674	669.07
199.892	486.23
200.111	623.08
200.329	607.92
200.547	459.15
200.765	410.73
200.983	438.55
201.202	330
201.42	494.09
201.638	343.4
201.856	374.72
202.074	1138.02
202.292	1420.2
202.51	994.56
202.728	1623.71
202.946	-4025
203.165	5309.09
203.383	-1840.21
203.601	-2282.56
203.819	4200
204.037	19770
204.255	2085.57
204.473	880.84
204.691	1172.67
204.909	746.12
205.127	789.3
205.345	871.59
205.562	720.3
205.78	466.78
205.998	553.88
206.216	510.36
206.434	534.46
206.652	507.58
206.87	393.53
207.088	339.93
207.306	416.24
207.523	373.11
207.741	284.47
207.959	309.59
208.177	327.09
208.395	253.99
208.612	263.92
208.83	226.81
209.048	242.2
209.266	308.17
209.483	323.06
209.701	289.65
209.919	309.6
210.136	341.97
210.354	743
210.572	731.22
210.79	1100
211.007	710.04
211.225	1155.81
211.442	-6204.76
211.66	-1975
211.878	-881.25
212.095	188.35
212.313	191.82
212.53	239.83
212.748	159.64
212.966	139.72
213.183	144.36
213.401	137.71
213.618	124.27
213.836	145.94
214.053	121.38
214.271	112.9
214.488	873.95
214.705	490.37
214.923	346.77
215.14	331.67
215.358	276
215.575	387.74
215.793	423.29
216.01	571.78
216.227	213.83
216.445	175.15
216.662	212.17
216.879	186.54
217.097	168.46
217.314	193.06
217.531	219.25
217.749	273.45
217.966	292.33
218.183	223.42
218.4	292.83
218.618	416.54
218.835	473.97
219.052	330.32
219.269	300.22
219.487	458.68
219.704	341.76
219.921	292.32
220.138	203.39
220.355	215.98
220.572	225.29
220.79	233.22
221.007	242.8
221.224	268.69
221.441	224.35
221.658	213.42
221.875	138.46
222.092	111.51
222.309	147.1
222.526	228.63
222.743	183.67
222.96	284.91
223.177	175.8
223.394	180.99
223.611	146.97
223.828	181.68
224.045	223.3
224.262	260
224.479	195.1
224.696	133.76
224.913	141.98
225.13	138.8
225.347	107.69
225.564	98.34
225.781	93.65
225.997	95.76
226.214	78.78
226.431	65.64
226.648	61.95
226.865	59.85
227.082	59.78
227.298	53.84
227.515	43.31
227.732	42.63
227.949	38.42
228.165	31.78
228.382	27.91
228.599	27.04
228.816	28.31
229.032	29.25
229.249	23.36
229.466	22.82
229.682	24.94
229.899	26.59
230.116	28
230.332	31.33
230.549	36.05
230.765	40.3
230.982	43.88
231.199	46.5
231.415	50.67
231.632	56.51
231.848	57.87
232.065	55.39
232.281	54.46
232.498	57.01
232.714	59.15
232.931	57.56
233.147	56.73
233.364	56.72
233.58	52.7
233.797	55.07
234.013	57.57
234.23	63.8
234.446	70.44
234.662	69.04
234.879	69.46
235.095	71.29
235.312	75.39
235.528	80.37
235.744	79.66
235.961	79.67
236.177	69.8
236.393	77.64
236.61	72.68
236.826	69.62
237.042	71.56
237.258	68.79
237.475	62.19
237.691	59.56
237.907	49.21
238.123	48.48
238.339	49.72
238.556	49.55
238.772	42.95
238.988	41.53
239.204	41.54
239.42	40.24
239.636	38.27
239.853	40.12
240.069	35.75
240.285	38.19
240.501	36.84
240.717	34.77
240.933	32.82
241.149	28.64
241.365	29.04
241.581	27.72
241.797	26.01
242.013	25.93
242.229	23.93
242.445	25.11
242.661	24
242.877	24.99
243.093	25.76
243.309	27.43
243.525	29.06
243.741	29.46
243.957	27.97
244.173	28.64
244.388	28.31
244.604	28.58
244.82	26.89
245.036	25.97
245.252	22.49
245.468	21.51
245.683	18.81
245.899	18.48
246.115	17.68
246.331	17.91
246.547	17.16
246.762	15.59
246.978	17.14
247.194	16.83
247.409	16.94
247.625	17.48
247.841	17.55
248.057	17.97
248.272	18.12
248.488	20.69
248.703	22.97
248.919	23.37
249.135	26.44
249.35	22.37
249.566	24.16
249.782	22.97
249.997	22.79
250.213	22.75
250.428	23.58
250.644	24.65
250.859	23.21
251.075	17.6
251.29	22.63
251.506	22.05
251.721	24.82
251.937	24.21
252.152	25.26
252.368	26.19
252.583	26.05
252.798	25.47
253.014	25.59
253.229	23.05
253.445	27.51
253.66	25.35
253.875	27.52
254.091	30.97
254.306	31.5
254.521	31.72
254.737	34.21
254.952	34.61
255.167	36.43
255.383	35.25
255.598	32.77
255.813	30.61
256.028	31.26
256.244	31.34
256.459	26.74
256.674	26.49
256.889	26.23
257.104	23.51
257.32	21.6
257.535	20.14
257.75	17.36
257.965	17.2
258.18	16.89
258.395	14.85
258.61	13.39
258.826	13.3
259.041	12.39
259.256	11.87
259.471	11.84
259.686	12.06
259.901	11.63
260.116	12.71
260.331	13.49
260.546	13.06
260.761	13.78
260.976	13.94
261.191	14.11
261.406	15.27
261.621	16.37
261.836	18.66
262.05	19.72
262.265	22.53
262.48	23.82
262.695	23.22
262.91	23.49
263.125	24.38
263.34	23.79
263.555	25.82
263.769	26.26
263.984	25.92
264.199	24.52
264.414	23.91
264.629	21.24
264.843	20.27
265.058	20.04
265.273	19.78
265.488	19.95
265.702	22.03
265.917	21.07
266.132	19.68
266.346	21.7
266.561	21.53
266.776	21.68
266.99	22.07
267.205	22.25
267.42	22.39
267.634	23.46
267.849	22.06
268.063	21.9
268.278	23.52
268.492	24.85
268.707	22.7
268.922	21.56
269.136	20.91
269.351	19.99
269.565	18.69
269.78	19.91
269.994	17.27
270.209	17.08
270.423	15.36
270.637	13.34
270.852	11.44
271.066	9.99
271.281	11.48
271.495	10.7
271.709	11.26
271.924	12.79
272.138	13.15
272.353	14.14
272.567	13.7
272.781	13.75
272.996	14.21
273.21	15.12
273.424	16.69
273.638	16.37
273.853	18.44
274.067	18.42
274.281	17.63
274.495	14.93
274.71	16.05
274.924	16.61
275.138	17.4
275.352	15.48
275.566	15.66
275.781	14.84
275.995	15.36
276.209	14.48
276.423	15.42
276.637	14.08
276.851	17.05
277.065	16.07
277.279	17.95
277.493	16.45
277.707	16.44
277.921	15.6
278.135	17.19
278.349	16.9
278.563	17.53
278.777	16.86
278.991	18.26
279.205	17.34
279.419	18.22
279.633	17.11
279.847	18.87
280.061	20.19
280.275	20.5
280.489	19.86
280.703	17.75
280.917	16.5
281.131	15.74
281.344	15.71
281.558	15.77
281.772	14.64
281.986	14.39
282.2	14.24
282.414	12.97
282.627	13.83
282.841	12.56
283.055	13.61
283.269	14.35
283.482	14.26
283.696	14.77
283.91	13.21
284.123	13.07
284.337	12.65
284.551	12.18
284.764	12.05
284.978	10.89
285.192	11.62
285.405	11.88
285.619	10.96
285.833	11.05
286.046	9.48
286.26	9.63
286.473	9.33
286.687	8.98
286.9	9.57
287.114	11.02
287.327	11.88
287.541	11.35
287.754	10.89
287.968	10.69
288.181	11.7
288.395	10.83
288.608	12.98
288.822	14.64
289.035	16.53
289.248	15.93
289.462	15.54
289.675	15.57
289.889	15.58
290.102	14.97
290.315	15.68
290.529	14.25
290.742	15.6
290.955	14.41
291.169	14.41
291.382	13.58
291.595	14.72
291.808	13.83
292.022	14.01
292.235	14.26
292.448	16.03
292.661	15.61
292.875	17.54
293.088	17.37
293.301	17.08
293.514	14.68
293.727	13.63
293.94	12.6
294.153	14
294.367	13.86
294.58	13.41
294.793	12.31
295.006	13.56
295.219	12.38
295.432	13
295.645	11.97
295.858	13.11
296.071	12.89
296.284	12.74
296.497	11.36
296.71	10.75
296.923	11.41
297.136	10.52
297.349	8.98
297.562	9.68
297.775	9.63
297.988	9.83
298.201	10.11
298.414	9.9
298.626	9.89
298.839	11.08
299.052	10.24
299.265	9.57
299.478	11.77
299.691	11.67
299.903	10.51
300.116	11.09
300.329	11.15
300.542	11.45
300.755	13.19
300.967	14.2
301.18	13.52
301.393	15.48
301.605	16.25
301.818	15.36
302.031	16.93
302.243	17.15
302.456	16.77
302.669	18.48
302.881	18.55
303.094	18.52
303.307	17.43
303.519	18.04
303.732	18.15
303.944	17.14
304.157	16.57
304.37	15.77
304.582	16.1
304.795	15.24
305.007	14.15
305.22	13.11
305.432	12.83
305.645	14.65
305.857	14.78
306.069	13.89
306.282	14.08
306.494	13.26
306.707	13.17
306.919	13.47
307.132	13.58
307.344	13.94
307.556	14.44
307.769	14.42
307.981	12.99
308.193	13
308.406	12.99
308.618	13.75
308.83	14.65
309.043	15.51
309.255	16.31
309.467	15.64
309.679	14.79
309.892	14.39
310.104	14.18
310.316	13.53
310.528	12.98
310.74	12.9
310.953	12.4
311.165	12.98
311.377	12.56
311.589	12.55
311.801	12.88
312.013	12.97
312.225	13.78
312.437	12.9
312.649	14.43
312.862	15.54
313.074	15.43
313.286	16.72
313.498	17.48
313.71	16.65
313.922	16.67
314.134	16.1
314.346	16.77
314.558	17.13
314.77	17.85
314.982	17.81
315.193	16.8
315.405	17.84
315.617	17.21
315.829	16.71
316.041	17.43
316.253	16.09
316.465	17.7
316.677	17.97
316.888	17.98
317.1	17.91
317.312	17.76
317.524	17.61
317.736	17.73
317.947	17.76
318.159	17.27
318.371	16.99
318.583	17.61
318.794	18.17
319.006	18.05
319.218	17.46
319.43	18.16
319.641	18.21
319.853	18.98
320.064	17.94
320.276	17.6
320.488	17.2
320.699	18.37
320.911	19.68
321.123	21.3
321.334	22.89
321.546	23.76
321.757	24.34
321.969	24.66
322.18	24.5
322.392	22.55
322.603	23.16
322.815	24.55
323.026	23.38
323.238	23.03
323.449	19.85
323.661	18.8
323.872	18.25
324.083	17.2
324.295	15.62
324.506	15.39
324.718	15.58
324.929	15.49
325.14	14.43
325.352	16
325.563	15.96
325.774	16.35
325.986	15.64
326.197	14.74
326.408	14.71
326.62	14.79
326.831	14.5
327.042	15.89
327.253	15.43
327.464	17.68
327.676	15.84
327.887	15.98
328.098	17.34
328.309	17.71
328.52	19.95
328.732	20.36
328.943	22.12
329.154	23.01
329.365	24.1
329.576	24.63
329.787	22.34
329.998	24.03
330.209	21.73
330.42	20.96
330.631	22.74
330.842	20.58
331.053	21.05
331.264	20.53
331.475	19.54
331.686	19.83
331.897	18.57
332.108	20.03
332.319	19.39
332.53	20.16
332.741	20.27
332.952	19.32
333.163	19.73
333.374	18.99
333.585	18.41
333.795	19.41
334.006	16.94
334.217	17.6
334.428	17.23
334.639	17.11
334.849	16.44
335.06	17.27
335.271	17.74
335.482	18.22
335.692	17.37
335.903	17.66
336.114	18.35
336.325	20.58
336.535	21.26
336.746	21.3
336.957	22
337.167	23.34
337.378	23.14
337.589	22.01
337.799	21.72
338.01	24.47
338.22	23.79
338.431	24.05
338.642	23.55
338.852	24.39
339.063	23.21
339.273	22.66
339.484	22.7
339.694	22.5
339.905	22.62
340.115	23.13
340.326	21.6
340.536	21.82
340.746	21.09
340.957	21.47
341.167	19.56
341.378	20.8
341.588	20.09
341.799	20.46
342.009	20.44
342.219	22.63
342.43	22.53
342.64	22.6
342.85	22.86
343.061	22.13
343.271	20.72
343.481	20.69
343.691	19.04
343.902	19.29
344.112	18.66
344.322	18.39
344.532	17.14
344.743	17.25
344.953	16.44
345.163	15.76
345.373	15.69
345.583	17.09
345.793	16.87
346.004	18.14
346.214	18.07
346.424	18.07
346.634	16.87
346.844	16.8
347.054	16.56
347.264	17.02
347.474	17.83
347.684	17.47
347.894	16.76
348.104	17.83
348.314	17.14
348.524	17.66
348.734	17.74
348.944	18.63
349.154	18.37
349.364	18.67
349.574	18.89
349.784	18.81
349.994	18.96
350.204	18.4
350.413	17.91
350.623	17.89
350.833	17.96
351.043	18.16
351.253	18.83
351.463	18.55
351.672	17.36
351.882	17.39
352.092	18.54
352.302	18.58
352.511	19.24
352.721	20.43
352.931	20.99
353.141	20.31
353.35	18.98
353.56	18.77
353.77	19.75
353.979	20.18
354.189	20.03
354.399	18.83
354.608	19.57
354.818	18.71
355.027	17.65
355.237	16.23
355.447	17.38
355.656	17.99
355.866	17.54
356.075	16.28
356.285	16.03
356.494	14.88
356.704	14.55
356.913	13.69
357.123	14.61
357.332	13.62
357.542	13.95
357.751	12.93
357.96	13.57
358.17	13.31
358.379	13.74
358.589	13.67
358.798	14.72
359.007	14.86
359.217	14.35
359.426	13.88
359.635	15.08
359.845	15.27
360.054	15.26
360.263	15.06
360.472	14.62
360.682	14.36
360.891	13.94
361.1	13.91
361.309	13.5
361.519	14.24
361.728	14.49
361.937	13.98
362.146	13.7
362.355	13.82
362.564	13.56
362.774	13.56
362.983	13.63
363.192	14.67
363.401	14.48
363.61	14.68
363.819	14.64
364.028	13.62
364.237	13.37
364.446	13.22
364.655	12.84
364.864	12.81
365.073	13.75
365.282	13.15
365.491	12.22
365.7	11.47
365.909	11.56
366.118	11.19
366.327	12.13
366.536	12.81
366.745	12.83
366.954	13.88
367.162	14.18
367.371	13.91
367.58	14.72
367.789	15.31
367.998	16.19
368.207	16.65
368.415	17.76
368.624	17.55
368.833	17.17
369.042	17.4
369.25	16.77
369.459	16.81
369.668	16.76
369.877	16.46
370.085	15.98
370.294	15.26
370.503	14.77
370.711	14.45
370.92	14.12
371.129	15.51
371.337	15.29
371.546	14.5
371.754	14.44
371.963	14.61
372.171	14.91
372.38	15.45
372.589	15.9
372.797	16.1
373.006	15.65
373.214	15.4
373.423	14.07
373.631	14.16
373.84	13.96
374.048	12.66
374.256	12.61
374.465	11.6
374.673	11.2
374.882	10.75
375.09	10.62
375.298	10.52
375.507	11.21
375.715	10.64
375.923	10.11
376.132	10.78
376.34	11.39
376.548	11.81
376.757	12.39
376.965	13.03
377.173	13.31
377.381	13.55
377.59	14.02
377.798	13.47
378.006	14.09
378.214	14.77
378.423	15.06
378.631	15.2
378.839	14.07
379.047	14.75
379.255	13.96
379.463	13.73
379.671	13.35
379.879	12.8
380.088	12.88
380.296	12.55
380.504	13.14
380.712	13.16
380.92	12.74
381.128	13.24
381.336	12.89
381.544	13.51
381.752	13.71
381.96	14.31
382.168	14.23
382.376	14.52
382.584	14.86
382.791	14.11
382.999	14.36
383.207	14.21
383.415	14.33
383.623	13.45
383.831	12.21
384.039	12.26
384.247	12.1
384.454	12.3
384.662	11.79
384.87	11.68
385.078	11.54
385.285	10.26
385.493	10.82
385.701	11.02
385.909	11.57
386.116	12.08
386.324	12.25
386.532	12.09
386.739	11.84
386.947	11.83
387.155	12.56
387.362	12.84
387.57	12.9
387.778	13.1
387.985	13.3
388.193	13.65
388.4	13.75
388.608	13.81
388.816	13.3
389.023	13.55
389.231	14.07
389.438	13.28
389.646	13.26
389.853	14.34
390.061	13.94
390.268	13.26
390.475	12.13
390.683	11.57
390.89	11.44
391.098	11.54
391.305	11.47
391.512	10.87
391.72	10.31
391.927	10.57
392.135	10.44
392.342	10.22
392.549	10.65
392.756	11.23
392.964	11.53
393.171	11.64
393.378	11.65
393.586	11.32
393.793	10.89
394	11.92
394.207	11.86
394.414	11.55
394.622	11.82
394.829	11.24
395.036	11.28
395.243	11.44
395.45	11.4
395.657	11.45
395.864	11.22
396.072	12.16
396.279	11.25
396.486	11.65
396.693	11.69
396.9	11.86
397.107	11.77
397.314	11.8
397.521	12.1
397.728	11.49
397.935	11.65
398.142	12.12
398.349	11.93
398.556	11.78
398.763	11.2
398.97	11.43
399.177	11.37
399.383	12.19
399.59	12.21
399.797	11.53
400.004	12.11
400.211	11.68
400.418	11.96
400.625	12.37
400.831	12.86
401.038	12.55
401.245	12.25
401.452	12.48
401.658	12.4
401.865	12.43
402.072	12.67
402.279	12.3
402.485	12.56
402.692	11.95
402.899	11.58
403.105	11.13
403.312	12.05
403.519	11.82
403.725	11.38
403.932	11.13
404.138	10.52
404.345	10.47
404.552	10.37
404.758	10.5
404.965	10.34
405.171	10.4
405.378	10.95
405.584	10.09
405.791	10.44
405.997	10.01
406.204	9.94
406.41	10.24
406.617	10.21
406.823	10.56
407.029	10.9
407.236	11.19
407.442	10.55
407.649	10.24
407.855	10.26
408.061	10.64
408.268	11.32
408.474	11.62
408.68	10.8
408.887	10.91
409.093	10.94
409.299	10.76
409.505	10.82
409.712	10.94
409.918	11.19
410.124	11.15
410.33	10.85
410.537	10.23
410.743	9.77
410.949	10.75
411.155	11.1
411.361	10.92
411.567	10.74
411.773	10.89
411.98	11.14
412.186	10.29
412.392	10.32
412.598	9.53
412.804	10.17
413.01	9.56
413.216	9.93
413.422	9.64
413.628	9.94
413.834	9.81
414.04	9.87
414.246	10.03
414.452	10.53
414.658	10.63
414.864	10.93
415.07	11.1
415.275	11.7
415.481	11.49
415.687	11.26
415.893	10.8
416.099	10.87
416.305	10.76
416.511	10.52
416.716	10.15
416.922	9.9
417.128	9.81
417.334	9.35
417.539	9.4
417.745	9.03
417.951	8.82
418.157	8.46
418.362	8.07
418.568	7.69
418.774	7.41
418.979	7.59
419.185	7.38
419.391	7.32
419.596	7.43
419.802	7.22
420.008	7.05
420.213	9.29
420.419	9.4
420.624	9.49
420.83	9.37
421.035	9.53
421.241	9.15
421.446	9.41
421.652	9.19
421.857	8.95
422.063	8.77
422.268	8.94
422.474	6.97
422.679	6.96
422.885	6.91
423.09	6.89
423.295	6.74
423.501	7.01
423.706	6.75
423.911	6.91
424.117	6.95
424.322	6.96
424.527	7.08
424.733	6.75
424.938	6.66
425.143	6.64
425.349	6.73
425.554	7.06
425.759	7.05
425.964	7.42
426.169	7.2
426.375	7.39
426.58	7.63
426.785	7.43
426.99	7.67
427.195	8.02
427.4	7.68
427.605	7.71
427.811	7.4
428.016	7.58
428.221	7.41
428.426	7.75
428.631	7.77
428.836	7.67
429.041	7.96
429.246	8.28
429.451	8.26
429.656	8.78
429.861	8.94
430.066	9.03
430.271	8.78
430.476	8.59
430.681	8.67
430.886	8.53
431.09	8.28
431.295	8.11
431.5	7.89
431.705	7.95
431.91	7.34
432.115	6.91
432.32	7.22
432.524	7.37
432.729	7.12
432.934	7.02
433.139	6.85
433.343	7.14
433.548	7.05
433.753	6.79
433.958	6.83
434.162	7.04
434.367	7.73
434.572	7.44
434.776	7.32
434.981	7.77
435.186	7.71
435.39	8
435.595	8.13
435.799	8.04
436.004	8.5
436.209	8.04
436.413	8.17
436.618	7.56
436.822	7.64
437.027	7.39
437.231	6.78
437.436	6.76
437.64	6.45
437.845	6.35
438.049	6.43
438.253	6.17
438.458	6.08
438.662	6.05
438.867	5.96
439.071	5.98
439.275	6.23
439.48	6.65
439.684	6.76
439.888	6.67
440.093	6.89
440.297	6.84
440.501	6.66
440.706	6.95
440.91	7.09
441.114	7.13
441.318	7.35
441.523	7.56
441.727	7.66
441.931	7.73
442.135	7.73
442.339	7.52
442.543	7.53
442.748	7.89
442.952	7.83
443.156	7.63
443.36	7.58
443.564	7.44
443.768	7.09
443.972	7.34
444.176	7.08
444.38	7.37
444.584	7.19
444.788	6.99
444.992	6.8
445.196	6.68
445.4	6.92
445.604	7.09
445.808	6.94
446.012	7.14
446.216	6.68
446.42	6.56
446.624	6.67
446.828	6.6
447.032	6.8
447.235	6.77
447.439	6.82
447.643	6.7
447.847	6.84
448.051	6.97
448.254	6.94
448.458	6.91
448.662	6.98
448.866	6.99
449.069	7.11
449.273	7.11
449.477	7.34
449.681	7.47
449.884	7.5
450.088	7.4
450.292	7.11
450.495	6.98
450.699	7.53
450.902	7.83
451.106	7.66
451.31	7.84
451.513	8.06
451.717	7.87
451.92	8.07
452.124	8.03
452.327	7.94
452.531	8.02
452.734	8.02
452.938	7.49
453.141	7.55
453.345	7.45
453.548	7.33
453.752	7.37
453.955	7.86
454.158	7.3
454.362	7.53
454.565	7.74
454.769	7.84
454.972	8.15
455.175	8.24
455.379	8.21
455.582	8.24
455.785	8.12
455.988	7.75
456.192	7.21
456.395	7.64
456.598	7.45
456.801	7.41
457.005	7.52
457.208	7.1
457.411	7.29
457.614	7.29
457.817	7.64
458.021	7.71
458.224	7.58
458.427	7.56
458.63	7.62
458.833	7.54
459.036	7.35
459.239	7.03
459.442	6.92
459.645	6.84
459.848	6.85
460.051	6.41
460.254	6.32
460.457	6.31
460.66	6.33
460.863	6.01
461.066	5.95
461.269	6.01
461.472	6.09
461.675	6.61
461.878	6.85
462.081	6.98
462.284	7.18
462.486	7.48
462.689	8
462.892	8.02
463.095	8.33
463.298	8.33
463.5	8.44
463.703	8.83
463.906	8.41
464.109	8.13
464.311	8.11
464.514	8.49
464.717	8.52
464.92	7.96
465.122	8.23
465.325	8.32
465.528	8.87
465.73	8.41
465.933	8.44
466.135	8.51
466.338	8.45
466.541	8.14
466.743	7.82
466.946	7.58
467.148	7.75
467.351	7.51
467.553	7.38
467.756	7.3
467.958	7.55
468.161	7.28
468.363	7.04
468.566	7.04
468.768	7.32
468.971	7.19
469.173	7.25
469.375	7.13
469.578	7.06
469.78	6.88
469.983	6.4
470.185	6.58
470.387	6.54
470.59	6.87
470.792	6.74
470.994	6.24
471.196	6.46
471.399	6.46
471.601	6.53
471.803	6.57
472.005	6.72
472.208	6.81
472.41	6.55
472.612	6.69
472.814	6.34
473.016	6.62
473.218	6.73
473.421	6.7
473.623	6.53
473.825	6.44
474.027	6.59
474.229	6.6
474.431	6.76
474.633	6.91
474.835	7.02
475.037	7.52
475.239	7.42
475.441	7.74
475.643	7.9
475.845	7.91
476.047	8.03
476.249	7.92
476.451	7.9
476.653	7.74
476.855	7.84
477.057	7.5
477.258	7.3
477.46	7.23
477.662	7.23
477.864	6.95
478.066	6.98
478.268	6.97
478.469	6.79
478.671	6.51
478.873	6.43
479.075	6.4
479.276	6.57
479.478	6.42
479.68	6.39
479.882	6.02
480.083	5.94
480.285	6.02
480.487	6.13
480.688	6.41
480.89	6.49
481.091	6.54
481.293	6.36
481.495	6.21
481.696	6.29
481.898	6.19
482.099	6.21
482.301	6.18
482.502	5.98
482.704	5.73
482.905	5.52
483.107	5.4
483.308	5.23
483.51	5.13
483.711	5.06
483.913	4.92
484.114	4.94
484.315	4.88
484.517	4.81
484.718	4.8
484.92	4.81
485.121	4.82
485.322	4.94
485.524	4.93
485.725	5.03
485.926	5.13
486.127	5.22
486.329	5.18
486.53	5.19
486.731	5.25
486.932	5.21
487.134	5.18
487.335	5.19
487.536	5.06
487.737	5.14
487.938	5.03
488.139	4.95
488.341	4.82
488.542	4.93
488.743	4.96
488.944	5.05
489.145	5.04
489.346	5.25
489.547	5.17
489.748	5.41
489.949	5.36
490.15	5.53
490.351	5.58
490.552	5.68
490.753	5.57
490.954	5.55
491.155	5.53
491.356	5.56
491.557	5.5
491.758	5.58
491.959	5.35
492.159	5.51
492.36	5.38
492.561	5.39
492.762	5.42
492.963	5.43
493.164	5.38
493.364	5.3
493.565	5.54
493.766	5.45
493.967	5.44
494.167	5.57
494.368	5.56
494.569	5.74
494.769	5.81
494.97	5.95
495.171	6.23
495.371	6.3
495.572	6.46
495.773	6.25
495.973	6.38
496.174	6.45
496.375	6.73
496.575	6.85
496.776	6.95
496.976	6.72
497.177	6.62
497.377	6.62
497.578	6.83
497.778	6.99
497.979	7.17
498.179	7.04
498.38	7.07
498.58	7.09
498.78	6.96
498.981	6.96
499.181	7.36
499.382	7.6
499.582	7.39
499.782	7.23
499.983	7.09
500.183	7.05
500.383	6.86
500.584	6.93
500.784	6.91
500.984	6.97
501.184	6.69
501.385	6.49
501.585	6.29
501.785	6.51
501.985	6.8
502.185	6.8
502.386	6.81
502.586	7.06
502.786	6.96
502.986	6.86
503.186	6.82
503.386	7.03
503.586	7.26
503.786	7.63
503.987	7.4
504.187	7.36
504.387	7.62
504.587	7.32
504.787	7.6
504.987	7.95
505.187	8.02
505.387	8.22
505.587	8.26
505.786	8.18
505.986	8.08
506.186	8.05
506.386	7.99
506.586	7.6
506.786	7.8
506.986	7.85
507.186	7.82
507.386	7.6
507.585	7.26
507.785	7.35
507.985	7.5
508.185	7.13
508.384	7.18
508.584	7.13
508.784	7.31
508.984	7.37
509.183	7.25
509.383	7.19
509.583	7.45
509.782	7.93
509.982	7.99
510.182	7.84
510.381	7.97
510.581	8.29
510.781	8.46
510.98	8.43
511.18	8.46
511.379	8.35
511.579	8.33
511.778	8.21
511.978	8.04
512.177	7.91
512.377	8.06
512.576	8.03
512.776	7.78
512.975	7.75
513.175	7.67
513.374	7.69
513.573	7.69
513.773	7.71
513.972	7.63
514.172	7.48
514.371	7.7
514.57	7.58
514.77	7.54
514.969	7.81
515.168	7.77
515.367	7.86
515.567	8.08
515.766	8.24
515.965	8.31
516.164	8.5
516.364	8.68
516.563	8.58
516.762	8.72
516.961	8.93
517.16	8.85
517.359	8.66
517.559	8.79
517.758	8.68
517.957	8.6
518.156	8.75
518.355	8.5
518.554	8.54
518.753	8.42
518.952	8.35
519.151	8.32
519.35	8.34
519.549	8.41
519.748	8.45
519.947	8.36
520.146	8.53
520.345	8.26
520.544	8.43
520.743	8.53
520.942	8.74
521.141	8.78
521.339	8.84
521.538	8.88
521.737	8.94
521.936	8.56
522.135	8.76
522.333	8.97
522.532	9.06
522.731	9.23
522.93	9.22
523.129	8.83
523.327	9.03
523.526	9.01
523.725	9.01
523.923	9.29
524.122	9.52
524.321	9.36
524.519	9.25
524.718	9.31
524.917	9.24
525.115	9.1
525.314	9.43
525.512	9.3
525.711	9.29
525.909	9.22
526.108	8.89
526.306	8.91
526.505	8.92
526.703	8.7
526.902	8.67
527.1	8.64
527.299	8.56
527.497	8.47
527.696	8.44
527.894	8.38
528.092	8.37
528.291	8.45
528.489	8.42
528.688	8.4
528.886	8.36
529.084	8.27
529.283	8.34
529.481	8.29
529.679	8.39
529.877	8.39
530.076	8.47
530.274	8.57
530.472	8.71
530.67	8.82
530.869	8.95
531.067	9.16
531.265	9.37
531.463	9.38
531.661	9.63
531.859	9.61
532.057	9.55
532.255	9.6
532.454	9.53
532.652	9.49
532.85	9.34
533.048	9.35
533.246	9.35
533.444	9.36
533.642	9.41
533.84	9.32
534.038	9.23
534.236	9.38
534.434	9.29
534.632	9.36
534.83	9.35
535.027	9.45
535.225	9.5
535.423	9.71
535.621	9.71
535.819	9.63
536.017	9.57
536.215	9.83
536.412	9.82
536.61	10.02
536.808	9.9
537.006	9.93
537.203	10.39
537.401	10.41
537.599	10.42
537.797	10.57
537.994	10.54
538.192	10.82
538.39	10.89
538.587	11.06
538.785	11.14
538.983	11.36
539.18	11.59
539.378	11.2
539.575	11.19
539.773	11.09
539.97	11.05
540.168	11.13
540.366	11.03
540.563	10.93
540.761	10.79
540.958	10.71
541.155	10.68
541.353	10.54
541.55	10.41
541.748	10.44
541.945	10.46
542.143	10.33
542.34	10.28
542.537	10.21
542.735	10.15
542.932	10.08
543.129	10.05
543.327	10.03
543.524	10.24
543.721	10.54
543.919	10.67
544.116	10.98
544.313	11.15
544.51	11.25
544.708	11.64
544.905	11.83
545.102	12.18
545.299	12.49
545.496	12.63
545.693	12.5
545.891	12.62
546.088	12.69
546.285	12.46
546.482	12.59
546.679	12.77
546.876	12.89
547.073	12.95
547.27	12.72
547.467	12.58
547.664	12.54
547.861	12.5
548.058	12.41
548.255	12.46
548.452	12.69
548.649	12.8
548.846	12.76
549.043	12.58
549.24	12.84
549.437	13.3
549.633	13.25
549.83	13.8
550.027	14.21
550.224	14.18
550.421	14.32
550.618	14.21
550.814	14.06
551.011	14.69
551.208	14.47
551.405	14.25
551.601	14.21
551.798	14.31
551.995	13.98
552.191	13.81
552.388	14.17
552.585	13.94
552.781	14.06
552.978	14.39
553.175	13.87
553.371	14.16
553.568	14.15
553.764	14.21
553.961	14.49
554.157	14.35
554.354	14.47
554.55	14.26
554.747	14.42
554.943	14.25
555.14	14.11
555.336	14.57
555.533	15.01
555.729	15.16
555.926	15.41
556.122	15.16
556.318	15.81
556.515	15.96
556.711	15.94
556.907	15.65
557.104	16.21
557.3	16.41
557.496	15.89
557.693	15.55
557.889	15.89
558.085	15.7
558.281	16.11
558.478	15.71
558.674	15.97
558.87	15.75
559.066	16.14
559.262	15.68
559.459	15.52
559.655	15.81
559.851	15.99
560.047	15.64
560.243	15.46
560.439	15.41
560.635	15.58
560.831	15.49
561.027	16
561.223	15.92
561.419	16.18
561.615	16.75
561.811	16.77
562.007	16.91
562.203	16.96
562.399	16.79
562.595	16.74
562.791	17.02
562.987	17.29
563.183	17.41
563.379	17.86
563.575	18.1
563.771	17.64
563.966	17.7
564.162	17.39
564.358	17.4
564.554	17.86
564.75	17.79
564.945	17.46
565.141	17
565.337	16.62
565.533	16.56
565.728	16.34
565.924	16.26
566.12	16.33
566.315	16.33
566.511	16.38
566.707	16.34
566.902	16.48
567.098	16.76
567.293	17.21
567.489	17.01
567.684	16.89
567.88	17.06
568.076	17.36
568.271	17.19
568.467	17.28
568.662	17.67
568.858	18.22
569.053	17.88
569.248	17.78
569.444	17.5
569.639	18.19
569.835	18.27
570.03	18.32
570.225	18.23
570.421	18.32
570.616	18.65
570.812	18.8
571.007	18.25
571.202	18.34
571.397	18.45
571.593	18.53
571.788	18.4
571.983	18.18
572.178	18.25
572.374	18.52
572.569	18.75
572.764	18.92
572.959	18.6
573.154	18.86
573.35	19.18
573.545	19.2
573.74	19.3
573.935	19.79
574.13	20.04
574.325	20.21
574.52	19.92
574.715	20.06
574.91	19.88
575.105	20.34
575.3	20.73
575.495	21.06
575.69	21.2
575.885	21.43
576.08	21.24
576.275	21.26
576.47	21.18
576.665	21.48
576.86	21.47
577.055	21.38
577.25	20.87
577.444	20.54
577.639	20.43
577.834	20.76
578.029	20.45
578.224	20.56
578.418	20.66
578.613	20.81
578.808	20.93
579.003	20.9
579.197	21.23
579.392	21.8
579.587	21.99
579.781	21.75
579.976	21.64
580.171	21.93
580.365	21.3
580.56	21.6
580.755	21.77
580.949	21.4
581.144	21.64
581.338	21.53
581.533	21.28
581.727	21.45
581.922	21.44
582.116	21.8
582.311	21.67
582.505	22.14
582.7	21.95
582.894	22.21
583.089	22.31
583.283	22.23
583.478	22.27
583.672	22.31
583.866	22.15
584.061	22.31
584.255	21.92
584.449	22.07
584.644	22.11
584.838	22.51
585.032	22.58
585.226	22.56
585.421	22.99
585.615	23
585.809	23.26
586.003	23.41
586.198	23.49
586.392	23.61
586.586	23.99
586.78	24.02
586.974	23.74
587.168	22.85
587.363	23.42
587.557	23.22
587.751	23.55
587.945	23.21
588.139	23.22
588.333	23.48
588.527	23.01
588.721	22.96
588.915	22.86
589.109	22.74
589.303	23.43
589.497	23.15
589.691	23.37
589.885	23.21
590.079	23.44
590.273	23.4
590.466	23.61
590.66	24.13
590.854	23.95
591.048	24.32
591.242	24.71
591.436	24.48
591.629	24.59
591.823	24.6
592.017	24.57
592.211	24.96
592.404	25.21
592.598	24.52
592.792	24.34
592.986	24.75
593.179	24.2
593.373	23.55
593.567	23.72
593.76	23.75
593.954	23.57
594.147	23.45
594.341	23.21
594.535	23.06
594.728	23.16
594.922	23.1
595.115	22.76
595.309	22.73
595.502	23.18
595.696	23.1
595.889	23.2
596.083	23.02
596.276	23.38
596.47	23.38
596.663	23.08
596.856	23.21
597.05	23.25
597.243	23.16
597.437	23.85
597.63	23.87
597.823	23.84
598.017	23.79
598.21	23.86
598.403	23.96
598.596	24.11
598.79	24.52
598.983	24.57
599.176	24.87
599.369	25.37
599.563	25.01
599.756	25.28
599.949	25.45
600.142	25.17
600.335	25.37
600.528	25.15
600.722	24.59
600.915	24.07
601.108	24.49
601.301	23.96
601.494	23.45
601.687	23.53
601.88	23.22
602.073	23.45
602.266	23.37
602.459	23.54
602.652	23.3
602.845	23.71
603.038	23.85
603.231	23.98
603.424	23.92
603.617	24.08
603.809	23.83
604.002	23.77
604.195	23.76
604.388	23.98
604.581	24
604.774	24.19
604.966	24.09
605.159	24.21
605.352	23.51
605.545	23.8
605.737	23.74
605.93	24.21
606.123	24.7
606.316	24.13
606.508	24.19
606.701	24.08
606.894	24.57
607.086	24.7
607.279	25.04
607.471	25.28
607.664	25.46
607.857	25.49
608.049	24.89
608.242	24.39
608.434	25.04
608.627	25.09
608.819	25
609.012	24.21
609.204	24.22
609.397	23.69
609.589	24.27
609.782	24.24
609.974	24.45
610.166	24.57
610.359	24.54
610.551	24.55
610.743	24.47
610.936	24.28
611.128	24.1
611.32	24.21
611.513	24.63
611.705	24.68
611.897	24.94
612.09	24.91
612.282	25.59
612.474	25.49
612.666	24.99
612.858	25.18
613.051	25.65
613.243	26.34
613.435	25.96
613.627	26.22
613.819	25.47
614.011	26.12
614.203	26.07
614.395	25.61
614.588	25.83
614.78	26.27
614.972	26.51
615.164	26.93
615.356	26.82
615.548	27.53
615.74	28.1
615.932	28.53
616.124	27.69
616.315	27.76
616.507	28.47
616.699	28.74
616.891	28.65
617.083	28.49
617.275	27.97
617.467	28.24
617.659	27.68
617.85	27.14
618.042	27.29
618.234	27.51
618.426	27.29
618.618	26.62
618.809	26.25
619.001	26.49
619.193	26.58
619.384	26.91
619.576	27.13
619.768	27.53
619.959	27.14
620.151	27.01
620.343	27.09
620.534	27.26
620.726	26.95
620.917	27.61
621.109	27.47
621.301	28.06
621.492	27.94
621.684	28.05
621.875	28.12
622.067	28.29
622.258	28.01
622.45	28.12
622.641	28.02
622.832	28.32
623.024	28.25
623.215	28.11
623.407	27.53
623.598	28.11
623.789	27.61
623.981	28.29
624.172	28
624.363	28.04
624.555	27.34
624.746	27.36
624.937	28.02
625.129	27.88
625.32	28.39
625.511	28.26
625.702	27.33
625.893	27.66
626.085	26.7
626.276	27.35
626.467	27.13
626.658	27.61
626.849	27.5
627.04	26.91
627.231	26.93
627.422	26.9
627.614	27.24
627.805	27.4
627.996	27.39
628.187	27.51
628.378	27.12
628.569	27.58
628.76	27.43
628.951	27.55
629.142	28.03
629.332	28.01
629.523	27.07
629.714	27.21
629.905	27.65
630.096	27.51
630.287	27.66
630.478	28.01
630.669	28.03
630.859	28.26
631.05	28.63
631.241	28.34
631.432	28.59
631.623	29.51
631.813	29.35
632.004	29.03
632.195	28.39
632.385	28.08
632.576	28.38
632.767	28.16
632.957	28.3
633.148	28.61
633.339	28.47
633.529	28.26
633.72	27.7
633.91	27.73
634.101	27.96
634.292	28.7
634.482	28.93
634.673	28.79
634.863	29.57
635.054	29.49
635.244	29.04
635.435	29.7
635.625	29.92
635.815	30.23
636.006	30.47
636.196	30.81
636.387	30.82
636.577	31.15
636.767	30.95
636.958	30.19
637.148	30.52
637.338	30.91
637.529	30.76
637.719	30.62
637.909	30.69
638.099	30.55
638.29	29.49
638.48	29.81
638.67	29.53
638.86	29.88
639.05	29.71
639.241	29.88
639.431	29.9
639.621	30.38
639.811	30.5
640.001	30.87
640.191	30.57
640.381	31.7
640.571	31.46
640.761	31.35
640.951	31.36
641.141	31.61
641.331	31.41
641.521	31.63
641.711	31.51
641.901	31.54
642.091	31.19
642.281	31.08
642.471	30.61
642.661	30.52
642.851	31.24
643.041	30.44
643.231	31.56
643.42	30.83
643.61	30.57
643.8	30.2
643.99	30.36
644.18	30.56
644.369	30.68
644.559	30.88
644.749	31.41
644.939	31.25
645.128	31.88
645.318	31.1
645.508	31.71
645.697	31.75
645.887	31.42
646.076	30.69
646.266	30.63
646.456	30.16
646.645	30.43
646.835	29.77
647.024	29.88
647.214	29.76
647.403	29.23
647.593	29.17
647.782	28.72
647.972	28.85
648.161	29.26
648.351	29.45
648.54	29.9
648.73	29.95
648.919	29.79
649.108	29.42
649.298	29.96
649.487	30.06
649.677	30.26
649.866	30.18
650.055	30.67
650.244	31.19
650.434	30.82
650.623	31.97
650.812	31.55
651.002	31.76
651.191	32.05
651.38	31.59
651.569	31.77
651.758	31.85
651.947	32.44
652.137	31.98
652.326	31.34
652.515	31.56
652.704	30.9
652.893	30.85
653.082	30.85
653.271	30.86
653.46	31.1
653.649	31.26
653.838	30.91
654.027	30.17
654.216	30.47
654.405	31.19
654.594	31.78
654.783	31.88
654.972	32.33
655.161	32.45
655.35	32.24
655.539	31.7
655.728	31.6
655.916	31.16
656.105	31.65
656.294	31.66
656.483	31.51
656.672	31.08
656.86	30.59
657.049	30.36
657.238	29.7
657.427	29.72
657.615	30.02
657.804	29.6
657.993	29.35
658.181	28.85
658.37	29.75
658.559	29.41
658.747	29.15
658.936	29.4
659.125	29.13
659.313	29.59
659.502	30.25
659.69	30.13
659.879	30.29
660.067	31.14
660.256	31.69
660.444	30.75
660.633	31.1
660.821	31.37
661.01	31.17
661.198	31.32
661.387	32.06
661.575	32.03
661.763	32.6
661.952	33.53
662.14	33.25
662.328	33.18
662.517	33.76
662.705	33.48
662.893	33.04
663.082	33.24
663.27	33.14
663.458	32.12
663.646	31.38
663.834	31.71
664.023	31.38
664.211	31.51
664.399	32.3
664.587	31.68
664.775	31.62
664.963	32.73
665.152	32.66
665.34	32.86
665.528	33
665.716	33.65
665.904	33.34
666.092	32.99
666.28	33.86
666.468	32.71
666.656	32.47
666.844	33.7
667.032	32.72
667.22	33.11
667.408	32.93
667.596	32.97
667.784	32.8
667.971	32.28
668.159	32.17
668.347	31.32
668.535	32.22
668.723	32.64
668.911	31.7
669.098	32.04
669.286	31.91
669.474	32.36
669.662	33.41
669.849	33.59
670.037	33.77
670.225	34.51
670.413	34.45
670.6	34.42
670.788	34.96
670.976	35.03
671.163	35.17
671.351	34.94
671.538	35.37
671.726	34.62
671.913	34.31
672.101	34.25
672.289	34.35
672.476	34.66
672.664	35.21
672.851	34.58
673.039	34.57
673.226	34.11
673.413	34.42
673.601	34.05
673.788	34.23
673.976	34.14
674.163	34.31
674.35	34.1
674.538	34.9
674.725	34.41
674.912	34.29
675.1	34.09
675.287	33.78
675.474	34.11
675.662	34.16
675.849	34.95
676.036	34.18
676.223	34.18
676.411	34.39
676.598	33.62
676.785	33.94
676.972	33.66
677.159	34.18
677.346	35.11
677.533	34.81
677.721	34.67
677.908	33.93
678.095	34.99
678.282	35.1
678.469	34.76
678.656	34.77
678.843	34.5
679.03	34.52
679.217	34.46
679.404	34.62
679.591	34.38
679.778	34.41
679.964	34.15
680.151	33.74
680.338	33.46
680.525	33.57
680.712	33.16
680.899	32.44
681.086	32.91
681.272	32.91
681.459	33.02
681.646	33.35
681.833	33.14
682.02	33.39
682.206	33.9
682.393	34.28
682.58	34.78
682.766	35.27
682.953	35.63
683.14	35.68
683.326	36.37
683.513	36.01
683.7	35.66
683.886	36.3
684.073	36.46
684.259	35.86
684.446	35.81
684.632	35.13
684.819	34.99
685.005	35.66
685.192	35.66
685.378	35.17
685.565	35.11
685.751	34.63
685.938	34.05
686.124	33.75
686.31	35.04
686.497	35.36
686.683	35.35
686.87	35.85
687.056	34.94
687.242	35.1
687.429	35.11
687.615	34.46
687.801	35.4
687.987	35.18
688.174	35.45
688.36	34.9
688.546	34.9
688.732	34.87
688.918	34.55
689.105	35.64
689.291	35.37
689.477	35.3
689.663	36.4
689.849	36.29
690.035	36.4
690.221	35.98
690.407	36.98
690.593	36.5
690.779	37.12
690.965	36.12
691.151	35.27
691.337	35.79
691.523	35.6
691.709	34.99
691.895	35.26
692.081	35.79
692.267	36.58
692.453	35.53
692.639	36.02
692.825	36.09
693.011	37.46
693.196	39.04
693.382	38.03
693.568	38.85
693.754	38.95
693.94	38.89
694.125	38.25
694.311	39.03
694.497	37.52
694.682	37.88
694.868	37.69
695.054	37.55
695.239	36.88
695.425	37.31
695.611	36.09
695.796	36.42
695.982	36.06
696.168	36.57
696.353	35.78
696.539	36.8
696.724	36.56
696.91	36.76
697.095	36.49
697.281	35.19
697.466	35.12
697.652	35.37
697.837	35.04
698.023	35.21
698.208	34.05
698.393	33.74
698.579	33.26
698.764	32.69
698.949	32.24
699.135	31.68
699.32	32.84
699.505	33.47
699.691	32.57
699.876	32.42
700.061	32.5
700.246	33.42
700.432	33.19
700.617	34.07
700.802	33.81
700.987	34.43
701.172	34.22
701.358	34.21
701.543	33.6
701.728	36.07
701.913	36.73
702.098	35.93
702.283	37.16
702.468	38.43
702.653	37.73
702.838	38.49
703.023	37.73
703.208	38.32
703.393	37.67
703.578	38.29
703.763	38.2
703.948	38.19
704.133	38.58
704.318	38.77
704.503	38.14
704.688	39
704.873	39.54
705.057	40.36
705.242	41.93
705.427	42.68
705.612	42.33
705.797	41.48
705.981	40.03
706.166	40.16
706.351	39.71
706.536	39.69
706.72	39.22
706.905	39.71
707.09	39.52
707.274	39.26
707.459	38.97
707.644	38
707.828	38.06
708.013	39.66
708.197	39.08
708.382	38.4
708.567	39.8
708.751	40.27
708.936	40.6
709.12	40.78
709.305	40.83
709.489	41.17
709.673	40.82
709.858	42.16
710.042	41.92
710.227	42.59
710.411	44.26
710.596	43.88
710.78	43.67
710.964	42.21
711.149	41.47
711.333	40.44
711.517	40.44
711.702	41.82
711.886	40.25
712.07	40.45
712.254	41.04
712.438	38.99
712.623	39.22
712.807	38.35
712.991	38.23
713.175	38.3
713.359	39.29
713.544	38.21
713.728	37.94
713.912	37.64
714.096	37.77
714.28	37.07
714.464	37.58
714.648	36.16
714.832	36.78
715.016	36.71
715.2	37.65
715.384	37.68
715.568	38.36
715.752	38.3
715.936	38.77
716.12	37.77
716.304	36.97
716.488	37.15
716.671	37.12
716.855	37.25
717.039	38.38
717.223	36.83
717.407	37.2
717.59	36.77
717.774	37.02
717.958	37.96
718.142	39.42
718.325	40.86
718.509	41.37
718.693	41.37
718.877	41.78
719.06	42.47
719.244	43.92
719.428	44.49
719.611	45.54
719.795	45.38
719.978	45.18
720.162	43.92
720.345	43.73
720.529	43.78
720.713	44.95
720.896	44.54
721.08	43.96
721.263	44.83
721.446	44.02
721.63	43.79
721.813	44.19
721.997	44.73
722.18	45.59
722.364	45.93
722.547	46.26
722.73	45.93
722.914	46.9
723.097	47.35
723.28	47.64
723.464	49.44
723.647	49.13
723.83	48.39
724.013	47.23
724.197	47.26
724.38	47.04
724.563	47.38
724.746	48.46
724.929	47.28
725.112	47.6
725.296	45.98
725.479	45.1
725.662	44.07
725.845	43.54
726.028	43.76
726.211	44.12
726.394	44.05
726.577	43.52
726.76	42.9
726.943	42.6
727.126	41.32
727.309	40.86
727.492	40.26
727.675	41.95
727.858	42.77
728.041	42.37
728.224	41.5
728.407	41.89
728.589	40.31
728.772	39.21
728.955	39.12
729.138	39.25
729.321	40.68
729.503	40.73
729.686	40.63
729.869	40.18
730.052	40.11
730.234	40.33
730.417	39.34
730.6	40.8
730.782	40.92
730.965	41.65
731.148	40.07
731.33	38.92
731.513	38.34
731.695	37.35
731.878	38.89
732.061	38.51
732.243	38.06
732.426	37.66
732.608	36.88
732.791	37.29
732.973	37.31
733.156	40.19
733.338	41.51
733.52	41.51
733.703	41.29
733.885	39.23
734.068	39.53
734.25	40.22
734.432	42.76
734.615	43.36
734.797	42.26
734.979	42.32
735.162	42.25
735.344	43.04
735.526	44.03
735.708	44.46
735.891	45.89
736.073	46.37
736.255	46.83
736.437	45.41
736.619	45.76
736.802	48.39
736.984	48.07
737.166	47.19
737.348	45.74
737.53	45.76
737.712	46.49
737.894	45.64
738.076	44.48
738.258	44.75
738.44	45.5
738.622	45.64
738.804	44.37
738.986	44.15
739.168	44.87
739.35	44.68
739.532	44.69
739.714	45.43
739.896	44.15
740.078	46.92
740.259	45.76
740.441	46.8
740.623	47.74
740.805	47.95
740.987	48.7
741.168	47.64
741.35	47.42
741.532	48.13
741.714	48.29
741.895	51.21
742.077	48.09
742.259	49.45
742.44	47.53
742.622	46.66
742.804	46.64
742.985	47.37
743.167	49.11
743.348	49.99
743.53	48.91
743.711	48.61
743.893	47.24
744.075	48.32
744.256	47.31
744.438	49.53
744.619	50.8
744.8	50.42
744.982	51.19
745.163	52.27
745.345	53.93
745.526	54.37
745.707	54.71
745.889	54.84
746.07	58.08
746.252	58.26
746.433	57.56
746.614	58.1
746.795	57.57
746.977	57.22
747.158	56.24
747.339	55.46
747.52	56.3
747.702	55.41
747.883	55.99
748.064	54.74
748.245	56.44
748.426	55.76
748.607	53.73
748.788	56.57
748.97	55.46
749.151	53.78
749.332	53.14
749.513	53.91
749.694	54.35
749.875	56.7
750.056	55.36
750.237	53.97
750.418	56.08
750.599	58.18
750.78	56.55
750.96	56.53
751.141	57.25
751.322	58.19
751.503	55.35
751.684	56.13
751.865	53.04
752.046	54.01
752.226	51.8
752.407	51.76
752.588	49.81
752.769	49.71
752.949	50.04
753.13	50.1
753.311	47.97
753.492	49.38
753.672	47.88
753.853	50.15
754.034	49.32
754.214	52.14
754.395	50.35
754.575	50.17
754.756	48.2
754.937	50.01
755.117	50.46
755.298	53.78
755.478	54.22
755.659	52.49
755.839	50.28
756.02	52.31
756.2	52.84
756.381	51.77
756.561	53.48
756.741	54.11
756.922	49.52
757.102	50.54
757.283	49.4
757.463	48.54
757.643	52.3
757.823	49.88
758.004	47.07
758.184	45.55
758.364	45.53
758.545	45.3
758.725	46.72
758.905	50.51
759.085	51.07
759.265	48.95
759.446	49.2
759.626	47.16
759.806	48.96
759.986	49.18
760.166	49.86
760.346	52.73
760.526	50.98
760.706	50.08
760.886	48.59
761.066	47.79
761.246	48.26
761.426	46.55
761.606	46.07
761.786	46.1
761.966	46.92
762.146	46.08
762.326	42.67
762.506	44.01
762.686	44.3
762.866	43.22
763.046	42.17
763.225	40.61
763.405	40.01
763.585	38.64
763.765	38.66
763.945	38.37
764.124	39.55
764.304	41.68
764.484	40.85
764.664	39.54
764.843	40.95
765.023	42.38
765.203	42.65
765.382	44.66
765.562	47.39
765.741	48.62
765.921	50.86
766.101	50.93
766.28	49.55
766.46	48.75
766.639	48.89
766.819	49.73
766.998	49.59
767.178	51.62
767.357	51.83
767.537	53.92
767.716	52.54
767.896	51.45
768.075	49.22
768.254	50.17
768.434	53.34
768.613	55.5
768.792	54.92
768.972	51.7
769.151	54.24
769.33	54.99
769.51	53.56
769.689	57.17
769.868	54.02
770.047	55.76
770.226	55.91
770.406	55.18
770.585	55.15
770.764	55.88
770.943	58.69
771.122	55.6
771.301	56.73
771.48	55.81
771.66	53.18
771.839	56.13
772.018	59.1
772.197	60.85
772.376	62.27
772.555	62.91
772.734	61.32
772.913	61.5
773.092	64.08
773.271	62.89
773.449	65.73
773.628	65.92
773.807	66.5
773.986	63.85
774.165	61.07
774.344	60.25
774.523	60.84
774.701	62.9
774.88	62.23
775.059	61.41
775.238	62.58
775.417	60.87
775.595	61.02
775.774	61.14
775.953	60.42
776.131	59.32
776.31	57.5
776.489	58.28
776.667	56.51
776.846	54.28
777.025	53.29
777.203	53.65
777.382	54.14
777.56	55.28
777.739	55.31
777.917	56.54
778.096	61.49
778.274	62.72
778.453	62.51
778.631	63.89
778.81	65.65
778.988	64.93
779.166	63.95
779.345	65.62
779.523	64.92
779.702	68.07
779.88	69.43
780.058	64.88
780.237	65.93
780.415	66.06
780.593	62.36
780.771	67.27
780.95	71.64
781.128	70.86
781.306	70.55
781.484	71.65
781.662	69.37
781.841	68.79
782.019	69.84
782.197	70.09
782.375	65.84
782.553	68
782.731	68.81
782.909	65.94
783.087	67.16
783.265	70.62
783.443	73.32
783.621	72.43
783.799	70.38
783.977	72.43
784.155	68.11
784.333	67.92
784.511	67.9
784.689	64.17
784.867	65.37
785.045	66.44
785.223	59.28
785.4	56.8
785.578	55.97
785.756	53.81
785.934	54.16
786.112	57.29
786.289	64.1
786.467	64.95
786.645	63.55
786.823	63.85
787	62.83
787.178	66.55
787.356	65.39
787.533	64.81
787.711	65.87
787.889	63.95
788.066	62.61
788.244	61.43
788.421	63.94
788.599	65.36
788.776	66.61
788.954	67.78
789.131	62.23
789.309	62.98
789.486	66.9
789.664	68.12
789.841	70.28
790.019	70.92
790.196	71.75
790.373	68.98
790.551	69.25
790.728	70.44
790.906	70.57
791.083	78.06
791.26	79.48
791.437	71.62
791.615	74.62
791.792	77.57
791.969	79.69
792.146	77.55
792.324	78
792.501	80.38
792.678	76.67
792.855	71.66
793.032	67.3
793.209	65.18
793.387	68.64
793.564	66.31
793.741	65.41
793.918	63.17
794.095	60.81
794.272	61.63
794.449	60.62
794.626	60.7
794.803	63.65
794.98	63.5
795.157	64.03
795.334	65.34
795.511	65.01
795.688	62.95
795.864	64.14
796.041	66.78
796.218	66.74
796.395	63.79
796.572	63.71
796.749	67.23
796.925	65.19
797.102	62.68
797.279	59.93
797.456	63.12
797.632	62.69
797.809	63.4
797.986	61.76
798.162	61.34
798.339	67.33
798.516	68.92
798.692	68.48
798.869	72.09
799.046	78.72
799.222	80.42
799.399	77.38
799.575	80.81
799.752	77.95
799.928	76.31
800.105	75.14
800.281	71.39
800.458	70.86
800.634	68.47
800.811	69.93
800.987	70.21
801.163	73.15
801.34	73.41
801.516	68.7
801.692	68.3
801.869	70.45
802.045	69.39
802.221	67.07
802.398	66.88
802.574	68.45
802.75	68.22
802.926	69.44
803.103	70.2
803.279	66.96
803.455	66.83
803.631	67.73
803.807	69.23
803.983	75.66
804.16	80.03
804.336	81.41
804.512	86.08
804.688	89.47
804.864	85.21
805.04	77.8
805.216	80.99
805.392	85.4
805.568	92.72
805.744	93
805.92	88.08
806.096	88.13
806.272	88.96
806.448	83.4
806.623	85.62
806.799	87.9
806.975	88.86
807.151	87.56
807.327	86.79
807.503	82.55
807.678	83.16
807.854	86.25
808.03	90.23
808.206	84.86
808.381	83.96
808.557	75.71
808.733	74.9
808.908	78.28
809.084	81.45
809.26	86.7
809.435	92.06
809.611	89.13
809.787	84.12
809.962	87
810.138	93.87
810.313	98.25
810.489	99.82
810.664	99.13
810.84	95.14
811.015	92.88
811.191	94.99
811.366	96.89
811.542	103.53
811.717	104.39
811.892	96.81
812.068	94.78
812.243	99.88
812.419	100.46
812.594	98.05
812.769	99.59
812.944	104.35
813.12	96.16
813.295	91.92
813.47	82.43
813.645	88.87
813.821	95.02
813.996	96.07
814.171	91.32
814.346	94.99
814.521	96.5
814.697	94.94
814.872	91.71
815.047	90.79
815.222	85.51
815.397	88.65
815.572	86.85
815.747	83.7
815.922	79.84
816.097	78.54
816.272	75.61
816.447	74.28
816.622	78.72
816.797	77.68
816.972	78.75
817.147	81.56
817.322	85.49
817.496	82.42
817.671	82.52
817.846	80.82
818.021	80.83
818.196	80.33
818.371	80.14
818.545	76.72
818.72	75.24
818.895	73.97
819.069	72.68
819.244	70.96
819.419	69.5
819.594	62.55
819.768	60.35
819.943	54.63
820.117	50.74
820.292	49.84
820.467	48.96
820.641	48.36
820.816	47.66
820.99	45.02
821.165	41.43
821.339	41.31
821.514	41.45
821.688	40.45
821.863	40.46
822.037	40.46
822.212	39.45
822.386	38.9
822.56	37.92
822.735	37.13
822.909	36.83
823.084	37.31
823.258	36.39
823.432	35.96
823.606	36.35
823.781	36.62
823.955	37.2
824.129	37.63
824.303	38.11
824.478	37.74
824.652	38.28
824.826	40.03
825	40.07
825.174	39.66
825.348	39.14
825.523	37.88
825.697	37.65
825.871	36.94
826.045	38.06
826.219	38.05
826.393	39.58
826.567	39.68
826.741	39.75
826.915	40.69
827.089	43.52
827.263	45.02
827.437	47.9
827.611	49.23
827.784	51.24
827.958	52.28
828.132	54.06
828.306	54.07
828.48	54.4
828.654	54.7
828.827	54.6
829.001	54.32
829.175	53.67
829.349	53.92
829.522	54.81
829.696	57.15
829.87	57.93
830.044	57.38
830.217	63.57
830.391	67.3
830.565	68.53
830.738	72.26
830.912	76.86
831.085	77.39
831.259	75.36
831.432	78.11
831.606	80.17
831.779	79.14
831.953	75.07
832.126	71.94
832.3	70.06
832.473	66.83
832.647	66.97
832.82	63.54
832.994	66.05
833.167	62.95
833.34	59.49
833.514	55.46
833.687	55.65
833.86	54
834.034	53
834.207	50.08
834.38	52.73
834.553	48.46
834.727	49.91
834.9	49.52
835.073	54.85
835.246	56.16
835.419	58.34
835.593	61.9
835.766	70.39
835.939	69.46
836.112	76.23
836.285	72.42
836.458	78.16
836.631	74.6
836.804	75.67
836.977	73.64
837.15	78.63
837.323	76.09
837.496	68.56
837.669	68.12
837.842	68.98
838.015	71.78
838.188	78.43
838.361	84.61
838.533	86.58
838.706	94.67
838.879	92.28
839.052	91.46
839.225	104.47
839.398	112.76
839.57	108.62
839.743	113.88
839.916	114.14
840.088	108.76
840.261	112.15
840.434	122.82
840.607	111.71
840.779	117.57
840.952	117.36
841.124	107.3
841.297	117.17
841.47	114.9
841.642	111.28
841.815	108.56
841.987	124.8
842.16	114.37
842.332	114.26
842.505	124.14
842.677	124.53
842.85	130.47
843.022	144.64
843.194	135.14
843.367	149.46
843.539	152.19
843.712	151
843.884	136.91
844.056	145.25
844.229	140.82
844.401	152.5
844.573	149.56
844.745	146.77
844.918	150.91
845.09	141.86
845.262	143.39
845.434	145.69
845.606	155.26
845.779	152.49
845.951	161.02
846.123	136.43
846.295	129.85
846.467	128.76
846.639	129.19
846.811	129.98
846.983	134.01
847.155	136.3
847.327	124.51
847.499	126.9
847.671	142.56
847.843	132.68
848.015	196.16
848.187	192.6
848.359	211.89
848.531	218.6
848.703	198.76
848.875	260.1
849.047	247.77
849.218	323.63
849.39	303.75
849.562	249.77
849.734	233.48
849.905	184.45
850.077	207.71
850.249	257.05
850.421	282.54
850.592	268.01
850.764	213.33
850.936	192.96
851.107	230.54
851.279	234.25
851.451	198.95
851.622	170.46
851.794	165.29
851.965	144.35
852.137	135.38
852.308	130.86
852.48	134.7
852.651	130.06
852.823	129.25
852.994	110.64
853.166	112.32
853.337	125.65
853.509	153.27
853.68	187.03
853.851	186.82
854.023	208.33
854.194	200.72
854.365	225.34
854.537	227.32
854.708	326.99
854.879	594.87
855.05	533.18
855.222	419.76
855.393	248.88
855.564	297.11
855.735	297.46
855.906	249.03
856.078	291.61
856.249	337.6
856.42	314.1
856.591	276.15
856.762	263.53
856.933	340.6
857.104	406.62
857.275	466.09
857.446	278.68
857.617	262.18
857.788	252.58
857.959	214.48
858.13	167.93
858.301	188.27
858.472	228.53
858.643	240.61
858.814	243.44
858.985	221.55
859.155	253.74
859.326	345.82
859.497	354.65
859.668	310.96
859.839	536.67
860.009	393.59
860.18	290.54
860.351	227.88
860.522	213.11
860.692	181.87
860.863	181.34
861.034	154.52
861.204	131.71
861.375	128.1
861.546	142.98
861.716	120.55
861.887	131.44
862.057	158.41
862.228	142.33
862.398	150.9
862.569	146.97
862.739	159.34
862.91	164.76
863.08	199.52
863.251	216.67
863.421	225.33
863.592	201.1
863.762	219.03
863.932	181.54
864.103	211.13
864.273	191.37
864.443	219.18
864.614	193.32
864.784	204.04
864.954	192.51
865.125	201.07
865.295	192.28
865.465	213.19
865.635	234.12
865.805	217.21
865.976	222.44
866.146	231.86
866.316	271.65
866.486	371.16
866.656	252.66
866.826	285.86
866.996	256.26
867.166	255.19
867.336	249.01
867.506	195.56
867.676	217.78
867.846	198.22
868.016	214.81
868.186	184.7
868.356	167.78
868.526	191.2
868.696	207.15
868.866	207.14
869.036	208.72
869.206	198.65
869.376	230.53
869.545	211.71
869.715	246.77
869.885	250.48
870.055	274.18
870.224	316.84
870.394	439.12
870.564	317.05
870.734	330.36
870.903	276.48
871.073	322.33
871.243	235.57
871.412	242.36
871.582	193.13
871.751	192.55
871.921	196.12
872.091	172.69
872.26	168.59
872.43	120.53
872.599	124.25
872.769	154.33
872.938	137.22
873.108	201.5
873.277	209.48
873.446	257.58
873.616	228.47
873.785	250.66
873.955	325.88
874.124	257.89
874.293	750.77
874.463	819.76
874.632	959.09
874.801	1105.04
874.971	345.66
875.14	359.12
875.309	247.56
875.478	229.46
875.647	222.28
875.817	199.67
875.986	211.66
876.155	199.74
876.324	223.57
876.493	215.79
876.662	212.9
876.831	235.04
877	207.85
877.17	240.36
877.339	306.41
877.508	204.4
877.677	213.96
877.846	235.56
878.015	200
878.184	168.62
878.352	162.27
878.521	150.1
878.69	146.41
878.859	140.77
879.028	159.43
879.197	149.08
879.366	179.46
879.534	162.54
879.703	151.54
879.872	140.8
880.041	130.65
880.21	121.56
880.378	116.49
880.547	105.83
880.716	105.18
880.884	92.07
881.053	82.44
881.222	78.3
881.39	73.98
881.559	67.56
881.727	68.15
881.896	71.44
882.065	65.58
882.233	63.68
882.402	60.38
882.57	59.32
882.739	57.24
882.907	55.15
883.076	56.35
883.244	56.9
883.412	55.2
883.581	54.92
883.749	55.97
883.918	58.1
884.086	62.16
884.254	69.99
884.423	72.31
884.591	81.19
884.759	82.33
884.927	79.46
885.096	81.89
885.264	93.38
885.432	97.05
885.6	93.25
885.769	102.42
885.937	107.63
886.105	106.56
886.273	104.2
886.441	94.79
886.609	104.87
886.777	116.63
886.945	139.3
887.113	144.53
887.281	154.84
887.449	162.26
887.617	150.45
887.785	164.2
887.953	161.23
888.121	167.15
888.289	195.89
888.457	236.35
888.625	310.19
888.793	226.3
888.961	220.7
889.129	173
889.296	176.51
889.464	200.13
889.632	166.44
889.8	186.83
889.967	200.34
890.135	194.04
