Data from JASIL_3053_Reflection_01.txt Node
Date: Mon Nov 09 11:22:07 EST 2015
User: Geneva
Spectrometer: USB4E03002
Autoset integration time: false
Trigger mode: 4
Integration Time (sec): 1.000000E-1
Scans to average: 10
Electric dark correction enabled: false
Nonlinearity correction enabled: false
Boxcar width: 5
Stray light correction enabled: false
XAxis mode: Wavelengths
Stop averaging: false
Number of Pixels in Spectrum: 3648
>>>>>Begin Spectral Data<<<<<
177.575	140.91
177.794	1622.22
178.014	-15500
178.233	-173.58
178.452	77.92
178.672	300
178.891	47.22
179.11	67.12
179.33	285.94
179.549	-1138.46
179.768	-756.25
179.987	-70.73
180.207	-1514.29
180.426	658.82
180.645	193.68
180.864	338.62
181.084	432.35
181.303	-49500
181.522	-423.08
181.741	-515.79
181.96	-212.96
182.179	-29.24
182.398	-35.77
182.618	-19.55
182.837	-28.24
183.056	-28.2
183.275	-49.55
183.494	-28.02
183.713	-69.54
183.932	-33.7
184.151	-31.68
184.37	-76.26
184.589	750.85
184.808	372.73
185.027	600
185.246	617.98
185.465	485.05
185.684	-532.35
185.903	-474.24
186.122	-75.71
186.341	-243.65
186.56	-138.85
186.779	-90.71
186.998	-30.74
187.216	-13.34
187.435	-23.86
187.654	18
187.873	19.55
188.092	51.63
188.311	48.44
188.53	114.44
188.748	136.44
188.967	127.46
189.186	149.7
189.405	124.94
189.623	140.33
189.842	102.34
190.061	131.6
190.28	126.22
190.498	64.75
190.717	42.98
190.936	0.33
191.154	-7.39
191.373	-2033.33
191.592	6400
191.81	-67.5
192.029	217.31
192.248	-9.89
192.466	109.76
192.685	311.36
192.904	-268.42
193.122	-114.55
193.341	-38.98
193.559	452.63
193.778	-2.63
193.996	-1020
194.215	122.76
194.433	742.86
194.652	519.05
194.87	180.72
195.089	210.34
195.307	40.32
195.526	-285.71
195.744	-56.82
195.963	-2400
196.181	-89.87
196.399	-60.26
196.618	12.88
196.836	6.78
197.055	-4.87
197.273	-59.9
197.491	-69.27
197.71	-109.19
197.928	-284.82
198.146	-102.79
198.365	-72.25
198.583	-139.42
198.801	-444.83
199.019	-142.65
199.238	-139.66
199.456	-101.68
199.674	-62.09
199.892	-72.53
200.111	-648.21
200.329	-100
200.547	-697.87
200.765	-398.33
200.983	333.77
201.202	-375
201.42	530.19
201.638	70.83
201.856	63.75
202.074	45.1
202.292	55.95
202.51	29.74
202.728	49.68
202.946	79.8
203.165	98.54
203.383	132.5
203.601	-19.64
203.819	-50
204.037	74.89
204.255	55.36
204.473	-89.16
204.691	-229.27
204.909	25
205.127	162.07
205.345	50
205.562	58.21
205.78	-129.63
205.998	226.32
206.216	-51.22
206.434	72.22
206.652	-36.97
206.87	-120.62
207.088	-113.19
207.306	-491.67
207.523	40.14
207.741	32.74
207.959	36.91
208.177	-17.98
208.395	-1638.46
208.612	103.2
208.83	116.9
209.048	-48.28
209.266	-37.3
209.483	-301.64
209.701	425
209.919	-30.87
210.136	-1.01
210.354	35.44
210.572	34.29
210.79	101.75
211.007	-7.32
211.225	94.51
211.442	129.81
211.66	92.51
211.878	133.8
212.095	586.04
212.313	1605.48
212.53	796.15
212.748	957.35
212.966	1130.19
213.183	-872.44
213.401	3613.51
213.618	-1009.56
213.836	-360.98
214.053	-272.59
214.271	-303.01
214.488	-61.32
214.705	-63.81
214.923	-12.66
215.14	39.89
215.358	30.77
215.575	32.71
215.793	33.98
216.01	23.43
216.227	11.27
216.445	-10.07
216.662	-142.36
216.879	-439.52
217.097	-411.18
217.314	-345.4
217.531	1276
217.749	888.89
217.966	327.82
218.183	488.42
218.4	1133.8
218.618	-19633.33
218.835	-556.96
219.052	-881.25
219.269	-532.79
219.487	-78.46
219.704	-269.9
219.921	-210.71
220.138	279.52
220.355	-637.5
220.572	-866.67
220.79	175.9
221.007	180.6
221.224	234.31
221.441	252
221.658	349.28
221.875	75.36
222.092	137.34
222.309	143.97
222.526	1088.89
222.743	524.24
222.96	167.39
223.177	-612.5
223.394	-873.08
223.611	525.58
223.828	231.46
224.045	177.89
224.262	-41.25
224.479	-98.11
224.696	715.79
224.913	41.32
225.13	23.05
225.347	56.84
225.564	82.5
225.781	113.36
225.997	90.52
226.214	67.13
226.431	33.99
226.648	22.5
226.865	26.4
227.082	21.63
227.298	21.66
227.515	21.17
227.732	17.27
227.949	15.93
228.165	17.35
228.382	14.68
228.599	8.66
228.816	13.32
229.032	14.42
229.249	9.68
229.466	11.21
229.682	5.68
229.899	10.68
230.116	9.22
230.332	4.66
230.549	-44.3
230.765	-39.32
230.982	-19.07
231.199	-2.06
231.415	5.75
231.632	1.95
231.848	35.69
232.065	31.44
232.281	17.63
232.498	12.82
232.714	22.19
232.931	40.14
233.147	29.1
233.364	27.21
233.58	22.05
233.797	30.48
234.013	24.47
234.23	12.95
234.446	16.84
234.662	22.49
234.879	27.39
235.095	24.74
235.312	35.8
235.528	42.82
235.744	42.94
235.961	29.98
236.177	-5.98
236.393	12.2
236.61	6.35
236.826	19.43
237.042	-3.49
237.258	-7.97
237.475	-7.46
237.691	-28.93
237.907	-43.67
238.123	-30.27
238.339	-11.17
238.556	1.72
238.772	6.84
238.988	5.7
239.204	-3.37
239.42	5.63
239.636	-7.58
239.853	3.55
240.069	9.1
240.285	13.51
240.501	10.94
240.717	5.97
240.933	3.01
241.149	-2.11
241.365	1.58
241.581	2.66
241.797	4.79
242.013	9.71
242.229	7.13
242.445	12.36
242.661	10.54
242.877	16.07
243.093	17.58
243.309	18.37
243.525	21.85
243.741	18.37
243.957	21.66
244.173	19.43
244.388	22.93
244.604	19.96
244.82	9.78
245.036	8.17
245.252	4.57
245.468	4.23
245.683	3.52
245.899	3.27
246.115	3.9
246.331	3.76
246.547	4.78
246.762	4.7
246.978	4.2
247.194	3.53
247.409	4.75
247.625	7.38
247.841	7.74
248.057	10.84
248.272	10.98
248.488	11.4
248.703	5.14
248.919	4.35
249.135	-4.58
249.35	-11.44
249.566	-2.25
249.782	-12.88
249.997	-9.24
250.213	-9.77
250.428	-7.69
250.644	-4.7
250.859	-7.28
251.075	-4.27
251.29	-4.52
251.506	-0.67
251.721	5.45
251.937	1.32
252.152	9.42
252.368	8.21
252.583	5.09
252.798	1.38
253.014	0.54
253.229	8.36
253.445	8.58
253.66	4.85
253.875	7.46
254.091	-10.19
254.306	-14.78
254.521	-15.16
254.737	-7.13
254.952	7.18
255.167	12.83
255.383	12.61
255.598	14.25
255.813	15.89
256.028	18.39
256.244	16.59
256.459	25.69
256.674	29.64
256.889	24.84
257.104	17.83
257.32	14.01
257.535	10.42
257.75	9.98
257.965	10.79
258.18	9.37
258.395	8.24
258.61	10.45
258.826	9.03
259.041	8.76
259.256	8.19
259.471	9.13
259.686	9.45
259.901	12.11
260.116	12.22
260.331	9.83
260.546	10.21
260.761	12.54
260.976	7.43
261.191	7.48
261.406	3.91
261.621	6.16
261.836	5.44
262.05	9.89
262.265	6.37
262.48	7.75
262.695	10.09
262.91	6.78
263.125	7.85
263.34	14.64
263.555	17.22
263.769	17.21
263.984	18.4
264.199	10.84
264.414	6.59
264.629	1.58
264.843	0.82
265.058	0.91
265.273	9.4
265.488	8.84
265.702	3.76
265.917	3.65
266.132	8.66
266.346	5.45
266.561	9.66
266.776	9.1
266.99	13.16
267.205	11.03
267.42	5.87
267.634	1.48
267.849	-2.67
268.063	-0.8
268.278	-4.72
268.492	-6.81
268.707	-4.55
268.922	-2.58
269.136	-3.02
269.351	-4.73
269.565	-0.94
269.78	3.16
269.994	3.64
270.209	7.49
270.423	10.64
270.637	12.09
270.852	8.93
271.066	8.93
271.281	8.3
271.495	8.97
271.709	7.92
271.924	8.22
272.138	6.16
272.353	2.74
272.567	-3.36
272.781	-3.59
272.996	-1.99
273.21	-2.67
273.424	-1.19
273.638	-3.53
273.853	-9.29
274.067	-8.24
274.281	-6.66
274.495	-4.34
274.71	0.31
274.924	5.51
275.138	-0.61
275.352	-1.45
275.566	2.16
275.781	-2.31
275.995	-0.17
276.209	4.19
276.423	2.51
276.637	3.61
276.851	5.21
277.065	4.3
277.279	1.19
277.493	6.44
277.707	5.98
277.921	3.95
278.135	7
278.349	5.58
278.563	2.71
278.777	8.73
278.991	6.53
279.205	2.44
279.419	1.94
279.633	3.6
279.847	0.24
280.061	-0.53
280.275	0.3
280.489	2.14
280.703	3.7
280.917	7.03
281.131	4.45
281.344	3.21
281.558	2.13
281.772	2.71
281.986	2.73
282.2	5.12
282.414	6.11
282.627	6.53
282.841	4.82
283.055	5.93
283.269	4.69
283.482	4.58
283.696	3.11
283.91	3.87
284.123	3.01
284.337	1.83
284.551	1.76
284.764	-0.36
284.978	-0.03
285.192	0.43
285.405	-2.38
285.619	-3.39
285.833	-3.67
286.046	-5
286.26	-3.99
286.473	-2.58
286.687	-2.53
286.9	-3.18
287.114	-0
287.327	-1.83
287.541	0.45
287.754	-0.02
287.968	1.72
288.181	1.24
288.395	4
288.608	4.9
288.822	2.99
289.035	6.13
289.248	4.91
289.462	4.34
289.675	2.63
289.889	0.54
290.102	0.18
290.315	0.17
290.529	3.09
290.742	0.6
290.955	0.05
291.169	0.75
291.382	-0.41
291.595	-0.43
291.808	2.58
292.022	4.28
292.235	2.83
292.448	5.02
292.661	3.01
292.875	-2.72
293.088	1.81
293.301	1.19
293.514	1.4
293.727	1.9
293.94	3.84
294.153	-0.76
294.367	0.06
294.58	1.8
294.793	1.15
295.006	2.17
295.219	4.61
295.432	3.23
295.645	3.91
295.858	5.17
296.071	4.35
296.284	4.32
296.497	5.79
296.71	6.81
296.923	6.35
297.136	3.94
297.349	4.83
297.562	3.78
297.775	2.19
297.988	1.67
298.201	1
298.414	2.4
298.626	0.46
298.839	-2.99
299.052	-2.73
299.265	-1.65
299.478	3.35
299.691	2.03
299.903	3.36
300.116	7.76
300.329	7.2
300.542	4.94
300.755	3.19
300.967	4.92
301.18	8.57
301.393	8.79
301.605	5.95
301.818	3.72
302.031	0.79
302.243	2.26
302.456	0.33
302.669	2.94
302.881	3.92
303.094	5.28
303.307	6.6
303.519	6.42
303.732	3.92
303.944	5.79
304.157	6.2
304.37	9.84
304.582	8.5
304.795	6.68
305.007	6.48
305.22	5.92
305.432	4.99
305.645	2.96
305.857	-0.94
306.069	0.81
306.282	2.16
306.494	3.73
306.707	1.4
306.919	2.03
307.132	2.12
307.344	4.16
307.556	5.34
307.769	4.58
307.981	3.59
308.193	6.23
308.406	4.8
308.618	4.03
308.83	3.83
309.043	5.52
309.255	8.11
309.467	11.51
309.679	8.75
309.892	8.32
310.104	7.79
310.316	8.66
310.528	8.88
310.74	11.03
310.953	11.39
311.165	12.17
311.377	11.15
311.589	8.17
311.801	3.33
312.013	0.76
312.225	0.12
312.437	1.46
312.649	0.57
312.862	-0.71
313.074	0.06
313.286	0.27
313.498	0.74
313.71	7.18
313.922	5.27
314.134	8.69
314.346	10.02
314.558	9.33
314.77	8.08
314.982	9.75
315.193	10.73
315.405	9.54
315.617	12.1
315.829	14.6
316.041	10.96
316.253	13.3
316.465	12.91
316.677	13.68
316.888	14
317.1	15.12
317.312	12.96
317.524	12.92
317.736	13.08
317.947	9.23
318.159	6.57
318.371	4.58
318.583	4.73
318.794	2.05
319.006	2.45
319.218	4.63
319.43	3.96
319.641	2.16
319.853	1.08
320.064	1.86
320.276	1.23
320.488	-1.32
320.699	-1.38
320.911	-2.48
321.123	3.72
321.334	3.63
321.546	4.95
321.757	4.57
321.969	5.1
322.18	3.88
322.392	4.87
322.603	6.76
322.815	9.4
323.026	11.48
323.238	12.71
323.449	10.43
323.661	9.93
323.872	9.25
324.083	9.84
324.295	11.21
324.506	13.88
324.718	12.03
324.929	12.14
325.14	10.96
325.352	11.07
325.563	9.68
325.774	9.41
325.986	8.95
326.197	8
326.408	7.83
326.62	8.46
326.831	6.97
327.042	9.23
327.253	6.87
327.464	6.98
327.676	6.22
327.887	8.93
328.098	7.15
328.309	8.03
328.52	7.06
328.732	7.74
328.943	9.25
329.154	10.56
329.365	4.27
329.576	4.01
329.787	5.14
329.998	3.93
330.209	0.92
330.42	-0.14
330.631	-1.15
330.842	1.73
331.053	0.25
331.264	-2.26
331.475	-3.06
331.686	4.43
331.897	7.91
332.108	6.94
332.319	6.89
332.53	7.22
332.741	5.55
332.952	8.62
333.163	9.2
333.374	10.68
333.585	10.53
333.795	8.55
334.006	3.92
334.217	2.21
334.428	3.27
334.639	2.15
334.849	2.51
335.06	7.48
335.271	4.49
335.482	2.09
335.692	1.53
335.903	1.37
336.114	-0.9
336.325	5.34
336.535	7.14
336.746	6.88
336.957	7.85
337.167	5.02
337.378	5.5
337.589	7.42
337.799	8.27
338.01	8.68
338.22	8.61
338.431	11.53
338.642	7.29
338.852	6.94
339.063	8.4
339.273	7.25
339.484	11.1
339.694	11.66
339.905	11.49
340.115	12.8
340.326	11.19
340.536	13.56
340.746	14.59
340.957	14.77
341.167	14.98
341.378	12.39
341.588	14.28
341.799	11.71
342.009	10.9
342.219	10.27
342.43	8.88
342.64	9.19
342.85	5.48
343.061	3.56
343.271	5.84
343.481	3.11
343.691	3.99
343.902	3.56
344.112	4.04
344.322	5.15
344.532	4.53
344.743	2.04
344.953	3.22
345.163	3.53
345.373	5.55
345.583	2.13
345.793	3.02
346.004	0.87
346.214	0.53
346.424	0.08
346.634	-2.93
346.844	-0.63
347.054	1.32
347.264	1.95
347.474	5.78
347.684	7.1
347.894	7.73
348.104	9.54
348.314	10.04
348.524	9.61
348.734	11.15
348.944	11.75
349.154	11.98
349.364	9.04
349.574	7.4
349.784	6.38
349.994	3.34
350.204	2.2
350.413	1.27
350.623	0.9
350.833	-0.03
351.043	0.3
351.253	1.67
351.463	-1.18
351.672	4.61
351.882	5.92
352.092	4.56
352.302	4.84
352.511	7.43
352.721	7.98
352.931	9.06
353.141	11.92
353.35	10.24
353.56	8.21
353.77	8.13
353.979	6.56
354.189	3.89
354.399	2.11
354.608	5.64
354.818	3.42
355.027	1.02
355.237	1.61
355.447	0.95
355.656	1.58
355.866	1.44
356.075	4.1
356.285	5.16
356.494	8.04
356.704	10.28
356.913	8.34
357.123	9.7
357.332	11.18
357.542	11.49
357.751	11.79
357.96	12.36
358.17	11.86
358.379	10.38
358.589	6.91
358.798	5.5
359.007	4.15
359.217	4.95
359.426	4.11
359.635	5.15
359.845	3.93
360.054	3.7
360.263	4.18
360.472	5.57
360.682	6.75
360.891	8.14
361.1	8.69
361.309	9.88
361.519	8.95
361.728	8.93
361.937	7.81
362.146	7.99
362.355	6.04
362.564	5.64
362.774	5.5
362.983	4.8
363.192	4.01
363.401	4
363.61	3.5
363.819	2.86
364.028	3.62
364.237	4.34
364.446	5.79
364.655	6.94
364.864	6.93
365.073	6.45
365.282	5.41
365.491	4.65
365.7	4.5
365.909	5.28
366.118	4.87
366.327	3.27
366.536	3.38
366.745	2.93
366.954	3.27
367.162	4.12
367.371	4.86
367.58	4.58
367.789	7.05
367.998	6.79
368.207	8.11
368.415	7.87
368.624	8.97
368.833	9.19
369.042	8.22
369.25	8.52
369.459	7.19
369.668	8.06
369.877	8.48
370.085	7.58
370.294	7.66
370.503	5.71
370.711	6.3
370.92	5.04
371.129	4.94
371.337	6.23
371.546	6.23
371.754	8.66
371.963	7.79
372.171	7.31
372.38	7.76
372.589	6.68
372.797	6.61
373.006	7.33
373.214	9.55
373.423	9.05
373.631	9.33
373.84	8.28
374.048	6.64
374.256	6.64
374.465	6.8
374.673	7.59
374.882	8.59
375.09	9.01
375.298	9.38
375.507	9.64
375.715	10.39
375.923	9.17
376.132	8.98
376.34	8.73
376.548	9.17
376.757	10.31
376.965	9.22
377.173	7.82
377.381	7.16
377.59	8.13
377.798	7.06
378.006	3.41
378.214	3.91
378.423	5.42
378.631	4.46
378.839	3.54
379.047	3.12
379.255	3.86
379.463	5.03
379.671	4.82
379.879	2.73
380.088	3.9
380.296	5.44
380.504	6.3
380.712	5.24
380.92	6.09
381.128	6.11
381.336	5.51
381.544	4.57
381.752	5.33
381.96	6.2
382.168	5.46
382.376	5.11
382.584	6.39
382.791	5.14
382.999	4.85
383.207	3.82
383.415	3.18
383.623	1.99
383.831	2.81
384.039	2.79
384.247	1.96
384.454	3.99
384.662	2.67
384.87	2.4
385.078	2.14
385.285	2.55
385.493	5.36
385.701	6.6
385.909	8.52
386.116	7.15
386.324	5.67
386.532	5.09
386.739	3.98
386.947	4.35
387.155	3.99
387.362	5.35
387.57	6.37
387.778	5.3
387.985	5.07
388.193	4.64
388.4	4.61
388.608	5.58
388.816	5.69
389.023	5.09
389.231	4.85
389.438	4.35
389.646	4.1
389.853	2.88
390.061	2.22
390.268	2.14
390.475	2.53
390.683	3.27
390.89	2.48
391.098	2.9
391.305	3.18
391.512	3.48
391.72	4.44
391.927	3.28
392.135	4.03
392.342	3.76
392.549	3.84
392.756	3.63
392.964	3.51
393.171	4.18
393.378	3.3
393.586	3.01
393.793	3.4
394	4.08
394.207	4.75
394.414	4.21
394.622	4.64
394.829	4.35
395.036	4.42
395.243	4.97
395.45	4.68
395.657	5.77
395.864	6.29
396.072	5.45
396.279	3.98
396.486	4.2
396.693	4.49
396.9	4.81
397.107	4.24
397.314	3.28
397.521	3.4
397.728	4.47
397.935	4.35
398.142	3.71
398.349	5.66
398.556	6.92
398.763	7.1
398.97	7.32
399.177	6.1
399.383	4.64
399.59	4.75
399.797	4.15
400.004	3.79
400.211	4.06
400.418	3.72
400.625	3.22
400.831	2.43
401.038	3.24
401.245	2.63
401.452	4.59
401.658	5.54
401.865	6.43
402.072	6.43
402.279	6.4
402.485	7
402.692	7.99
402.899	7
403.105	7
403.312	5.33
403.519	5.75
403.725	4.06
403.932	4.81
404.138	4.01
404.345	4.49
404.552	3.29
404.758	2.93
404.965	3.13
405.171	2.89
405.378	1.72
405.584	1.84
405.791	0.9
405.997	2.81
406.204	2.58
406.41	3.83
406.617	3.5
406.823	4.83
407.029	4.34
407.236	3.59
407.442	3.8
407.649	4.85
407.855	4.64
408.061	5.11
408.268	3.25
408.474	3.29
408.68	3.4
408.887	2.9
409.093	1.52
409.299	1.52
409.505	1.53
409.712	2.71
409.918	2.65
410.124	3.87
410.33	4.37
410.537	4.29
410.743	4.35
410.949	3.78
411.155	4.77
411.361	4.47
411.567	6.14
411.773	5.88
411.98	4.29
412.186	4.61
412.392	4.53
412.598	4.92
412.804	5.2
413.01	5.7
413.216	5.69
413.422	4.5
413.628	6.17
413.834	5.26
414.04	5.56
414.246	4.65
414.452	5.26
414.658	5.01
414.864	4.93
415.07	5.95
415.275	5.56
415.481	5.92
415.687	6.41
415.893	5.76
416.099	5.68
416.305	6.28
416.511	6.55
416.716	6
416.922	6
417.128	5.33
417.334	5.42
417.539	5.42
417.745	4.53
417.951	4.71
418.157	5.04
418.362	4.74
418.568	4.71
418.774	5.11
418.979	5.14
419.185	4.87
419.391	4.93
419.596	4.32
419.802	5.03
420.008	5.48
420.213	6.1
420.419	5.92
420.624	6.16
420.83	5.92
421.035	6.38
421.241	6.08
421.446	6.05
421.652	6.75
421.857	7.17
422.063	6.35
422.268	6.35
422.474	5.62
422.679	5.18
422.885	5.03
423.09	4.99
423.295	4.6
423.501	4.75
423.706	5.04
423.911	4.41
424.117	4.1
424.322	4.29
424.527	4.57
424.733	4.63
424.938	4.64
425.143	5.15
425.349	5
425.554	4.8
425.759	4.66
425.964	4.46
426.169	4.89
426.375	5.27
426.58	5.32
426.785	4.42
426.99	4.37
427.195	5.24
427.4	4.44
427.605	4.75
427.811	5.18
428.016	5.41
428.221	5.89
428.426	5.58
428.631	5.15
428.836	5.33
429.041	5.55
429.246	5.26
429.451	4.98
429.656	5.32
429.861	5.28
430.066	5.27
430.271	5.65
430.476	5.41
430.681	4.85
430.886	4.6
431.09	4.5
431.295	5.08
431.5	5.29
431.705	5.61
431.91	5.22
432.115	5.13
432.32	5.2
432.524	4.39
432.729	4.28
432.934	4.41
433.139	5.09
433.343	5.15
433.548	4.57
433.753	5.05
433.958	4.45
434.162	5.67
434.367	6.28
434.572	6.65
434.776	6.51
434.981	6.63
435.186	7.34
435.39	7.33
435.595	6.75
435.799	7.45
436.004	6.43
436.209	7
436.413	6.1
436.618	5.97
436.822	6.08
437.027	6.58
437.231	6.27
437.436	5.58
437.64	5.17
437.845	5.33
438.049	4.8
438.253	4.84
438.458	4.43
438.662	3.67
438.867	3.45
439.071	2.99
439.275	2.94
439.48	3.02
439.684	2.63
439.888	2.96
440.093	3.26
440.297	3.26
440.501	3.63
440.706	3.71
440.91	4.08
441.114	4.19
441.318	4.18
441.523	3.75
441.727	3.57
441.931	3.8
442.135	3.74
442.339	3.12
442.543	2.8
442.748	2.76
442.952	2.96
443.156	2.86
443.36	2.21
443.564	2.13
443.768	2.22
443.972	2.57
444.176	3.53
444.38	2.89
444.584	3.4
444.788	3.09
444.992	3.73
445.196	3.68
445.4	3.97
445.604	4.26
445.808	4.15
446.012	4.09
446.216	4.16
446.42	3.95
446.624	4.53
446.828	4.44
447.032	5.44
447.235	4.56
447.439	4.76
447.643	4.98
447.847	5.23
448.051	5.58
448.254	6.24
448.458	6.27
448.662	5.59
448.866	5.6
449.069	5.52
449.273	5.13
449.477	5.64
449.681	5.52
449.884	4.69
450.088	4.38
450.292	3.56
450.495	3.21
450.699	2.54
450.902	2.74
451.106	2.69
451.31	2.06
451.513	2.28
451.717	1.9
451.92	0.64
452.124	1.2
452.327	1.15
452.531	1.49
452.734	1.46
452.938	2.24
453.141	2.27
453.345	2.48
453.548	3.93
453.752	3.23
453.955	3.5
454.158	4.7
454.362	4.57
454.565	5.48
454.769	6.04
454.972	6.15
455.175	5.48
455.379	6.13
455.582	5.71
455.785	4.52
455.988	4.66
456.192	5.08
456.395	4.75
456.598	5.05
456.801	4.41
457.005	4.8
457.208	4.7
457.411	4.55
457.614	4.45
457.817	4.75
458.021	4.72
458.224	5.04
458.427	4.74
458.63	5.24
458.833	4.63
459.036	4.51
459.239	4.16
459.442	4.33
459.645	4.47
459.848	4.29
460.051	3.64
460.254	3.43
460.457	3.42
460.66	3.54
460.863	3.04
461.066	3.8
461.269	4.46
461.472	4.52
461.675	4.22
461.878	4.96
462.081	4.36
462.284	5.2
462.486	5.37
462.689	5.68
462.892	5.43
463.095	4.81
463.298	4.46
463.5	3.98
463.703	4.46
463.906	5.47
464.109	5.21
464.311	5.96
464.514	5.96
464.717	6.61
464.92	5.99
465.122	5.87
465.325	6.34
465.528	6.31
465.73	6.34
465.933	5.48
466.135	4.83
466.338	4.47
466.541	4.39
466.743	3.85
466.946	3.32
467.148	3.22
467.351	4.01
467.553	3.77
467.756	3.53
467.958	3.17
468.161	3.9
468.363	3.4
468.566	3.96
468.768	4
468.971	3.92
469.173	4.28
469.375	3.91
469.578	2.51
469.78	2.93
469.983	3.52
470.185	3.29
470.387	3.06
470.59	4.04
470.792	3.3
470.994	3.29
471.196	3.93
471.399	3.56
471.601	4
471.803	4.43
472.005	4.32
472.208	4.06
472.41	3.94
472.612	3.36
472.814	2.49
473.016	3.5
473.218	3.49
473.421	3
473.623	3.06
473.825	3.34
474.027	3.64
474.229	3.61
474.431	3.37
474.633	4.52
474.835	4.56
475.037	5.31
475.239	4.78
475.441	4.6
475.643	4.72
475.845	4.57
476.047	4.47
476.249	4.76
476.451	5.3
476.653	5.71
476.855	4.65
477.057	4.98
477.258	4.43
477.46	4.87
477.662	5.53
477.864	5.93
478.066	6.57
478.268	6.51
478.469	6.58
478.671	6.22
478.873	6.23
479.075	6.98
479.276	6.8
479.478	6.84
479.68	6.78
479.882	6.16
480.083	5.44
480.285	5.16
480.487	5.02
480.688	4.62
480.89	4.38
481.091	4.6
481.293	4.61
481.495	4.77
481.696	4.88
481.898	4.59
482.099	4.58
482.301	4.78
482.502	4.99
482.704	4.92
482.905	4.87
483.107	4.83
483.308	4.97
483.51	4.77
483.711	4.56
483.913	4.6
484.114	4.57
484.315	4.42
484.517	4.5
484.718	4.3
484.92	4.35
485.121	4.36
485.322	4.56
485.524	4.25
485.725	4.38
485.926	4.84
486.127	4.78
486.329	4.86
486.53	5.19
486.731	5.19
486.932	5.32
487.134	5.45
487.335	5.41
487.536	5.37
487.737	5.37
487.938	5.33
488.139	5.15
488.341	5
488.542	5.19
488.743	5.2
488.944	5.17
489.145	5.07
489.346	4.94
489.547	5.02
489.748	5.03
489.949	5.01
490.15	4.97
490.351	4.87
490.552	4.94
490.753	4.78
490.954	4.53
491.155	4.46
491.356	4.15
491.557	4.45
491.758	4.51
491.959	4.47
492.159	4.65
492.36	4.67
492.561	4.71
492.762	4.82
492.963	4.58
493.164	4.86
493.364	4.87
493.565	5.13
493.766	4.77
493.967	4.58
494.167	4.53
494.368	4.42
494.569	4.77
494.769	4.72
494.97	4.71
495.171	4.93
495.371	5.15
495.572	4.73
495.773	4.67
495.973	4.79
496.174	5.53
496.375	5.65
496.575	5.37
496.776	5.26
496.976	5.46
497.177	5.36
497.377	5.87
497.578	6.07
497.778	6.32
497.979	6.82
498.179	6.68
498.38	6.13
498.58	6.36
498.78	6.51
498.981	6.28
499.181	5.87
499.382	6.34
499.582	6.01
499.782	5.44
499.983	5.81
500.183	5.4
500.383	5.18
500.584	4.93
500.784	4.4
500.984	4.53
501.184	4.69
501.385	5.47
501.585	5.7
501.785	5.56
501.985	5.86
502.185	5.61
502.386	5.51
502.586	5.67
502.786	6.11
502.986	6.41
503.186	6.16
503.386	6.32
503.586	5.58
503.786	4.57
503.987	4.44
504.187	4.58
504.387	4.91
504.587	5.4
504.787	5.34
504.987	5.52
505.187	5.54
505.387	5.68
505.587	5.9
505.786	6.34
505.986	6.77
506.186	7.27
506.386	6.78
506.586	7.02
506.786	7.11
506.986	6.89
507.186	6.45
507.386	6.69
507.585	6.79
507.785	6.34
507.985	6.26
508.185	6.38
508.384	6.17
508.584	6.27
508.784	5.75
508.984	4.93
509.183	5.5
509.383	5.63
509.583	5.13
509.782	4.91
509.982	4.88
510.182	4.89
510.381	4.58
510.581	4.95
510.781	5.1
510.98	4.96
511.18	5.58
511.379	5.36
511.579	5.1
511.778	5.62
511.978	6.06
512.177	6.46
512.377	6.62
512.576	7.34
512.776	6.93
512.975	6.87
513.175	7.05
513.374	7.3
513.573	7.19
513.773	7.82
513.972	7.98
514.172	7.92
514.371	7.78
514.57	7.83
514.77	7.7
514.969	8.02
515.168	8.53
515.367	8.66
515.567	8.47
515.766	8.77
515.965	8.39
516.164	8.14
516.364	7.8
516.563	8.25
516.762	8.28
516.961	8.42
517.16	8.34
517.359	8.36
517.559	8.8
517.758	9.39
517.957	9.21
518.156	9.41
518.355	9.83
518.554	10.28
518.753	9.85
518.952	9.95
519.151	9.96
519.35	9.79
519.549	9.46
519.748	9.33
519.947	8.51
520.146	8.88
520.345	8.87
520.544	8.81
520.743	8.73
520.942	8.84
521.141	8.71
521.339	8.54
521.538	8.63
521.737	8.49
521.936	8.36
522.135	8.73
522.333	8.81
522.532	8.81
522.731	8.73
522.93	8.55
523.129	8.4
523.327	8.84
523.526	9.2
523.725	9.32
523.923	9.83
524.122	10.18
524.321	9.97
524.519	9.8
524.718	10
524.917	10.03
525.115	10.28
525.314	10.81
525.512	10.98
525.711	10.67
525.909	10.75
526.108	10.88
526.306	10.95
526.505	10.94
526.703	11.25
526.902	11.18
527.1	11.29
527.299	11.33
527.497	11.28
527.696	11.15
527.894	11.47
528.092	11.52
528.291	11.43
528.489	11.38
528.688	11.61
528.886	11.47
529.084	11.67
529.283	11.57
529.481	11.66
529.679	11.78
529.877	11.68
530.076	11.28
530.274	11.45
530.472	11.81
530.67	11.61
530.869	11.79
531.067	11.74
531.265	11.79
531.463	12.02
531.661	12.1
531.859	12.07
532.057	12.16
532.255	12.51
532.454	12.46
532.652	12.37
532.85	12.62
533.048	12.58
533.246	12.69
533.444	13.06
533.642	13.11
533.84	13.34
534.038	13.37
534.236	13.54
534.434	13.72
534.632	13.88
534.83	13.96
535.027	14.1
535.225	14.09
535.423	14.27
535.621	14.06
535.819	14.02
536.017	13.76
536.215	13.76
536.412	14.05
536.61	13.72
536.808	13.55
537.006	13.62
537.203	13.59
537.401	13.71
537.599	13.83
537.797	13.49
537.994	13.52
538.192	13.92
538.39	14.27
538.587	13.88
538.785	13.96
538.983	14.36
539.18	14.33
539.378	14.2
539.575	14.38
539.773	14.55
539.97	14.8
540.168	14.74
540.366	14.51
540.563	14.46
540.761	14.67
540.958	14.75
541.155	14.75
541.353	14.77
541.55	15.1
541.748	15.11
541.945	15.04
542.143	15.01
542.34	15.23
542.537	15.61
542.735	15.76
542.932	15.53
543.129	15.63
543.327	15.39
543.524	15.6
543.721	15.17
543.919	14.91
544.116	14.46
544.313	14.28
544.51	14.33
544.708	13.91
544.905	13.96
545.102	14.56
545.299	14.44
545.496	14.84
545.693	14.71
545.891	15.07
546.088	15.27
546.285	15.81
546.482	15.99
546.679	16.04
546.876	16.73
547.073	16.69
547.27	15.91
547.467	16.43
547.664	15.87
547.861	15.71
548.058	15.55
548.255	15.25
548.452	15.02
548.649	14.99
548.846	14.57
549.043	14.33
549.24	14.93
549.437	15.63
549.633	15.24
549.83	15.63
550.027	15.52
550.224	15.82
550.421	16.41
550.618	16.25
550.814	16.29
551.011	16.1
551.208	15.97
551.405	15.46
551.601	15.86
551.798	15.97
551.995	16.22
552.191	16.97
552.388	16.7
552.585	16.89
552.781	17.12
552.978	16.93
553.175	17.42
553.371	17.28
553.568	17.34
553.764	16.63
553.961	16.6
554.157	16.89
554.354	16.71
554.55	17.24
554.747	16.81
554.943	16.94
555.14	16.5
555.336	16.85
555.533	16.4
555.729	16.32
555.926	16.66
556.122	16.83
556.318	16.52
556.515	16.54
556.711	16.63
556.907	16.85
557.104	16.66
557.3	17.64
557.496	17.75
557.693	17.93
557.889	18.09
558.085	17.82
558.281	17.49
558.478	17.73
558.674	17.78
558.87	17.84
559.066	18.16
559.262	18.32
559.459	18.89
559.655	19.15
559.851	19.59
560.047	19.78
560.243	20.2
560.439	19.81
560.635	19.24
560.831	18.18
561.027	18.25
561.223	17.81
561.419	17.65
561.615	17.24
561.811	17.08
562.007	16.74
562.203	16.98
562.399	17.69
562.595	18.46
562.791	18.66
562.987	19.38
563.183	19.13
563.379	19.8
563.575	20.24
563.771	19.92
563.966	20.2
564.162	20.55
564.358	20.35
564.554	19.67
564.75	19.62
564.945	20.03
565.141	19.79
565.337	19.66
565.533	18.95
565.728	18.27
565.924	18.74
566.12	18.01
566.315	18.02
566.511	17.62
566.707	17.46
566.902	17.04
567.098	16.29
567.293	16.4
567.489	16.23
567.684	16.64
567.88	17.65
568.076	17.61
568.271	17.88
568.467	17.68
568.662	18.23
568.858	18.55
569.053	18.83
569.248	19.66
569.444	19.25
569.639	19.65
569.835	18.89
570.03	18.39
570.225	18.44
570.421	18.42
570.616	18.38
570.812	18.32
571.007	17.77
571.202	17.63
571.397	17.08
571.593	17.9
571.788	17.86
571.983	18.01
572.178	18.44
572.374	18.18
572.569	18.5
572.764	18.92
572.959	18.98
573.154	19.82
573.35	20.62
573.545	20.74
573.74	20.81
573.935	20.1
574.13	20.78
574.325	20.49
574.52	20.42
574.715	19.99
574.91	19.93
575.105	20.14
575.3	20.16
575.495	19.6
575.69	20.25
575.885	19.89
576.08	20.31
576.275	20.09
576.47	20.05
576.665	19.99
576.86	20.64
577.055	20.54
577.25	20.6
577.444	20.23
577.639	19.94
577.834	19.39
578.029	19.5
578.224	20.11
578.418	20.1
578.613	20.41
578.808	20.85
579.003	20.06
579.197	19.77
579.392	18.73
579.587	19.11
579.781	19.46
579.976	19.19
580.171	19.1
580.365	18.87
580.56	18.83
580.755	19.19
580.949	18.78
581.144	19.25
581.338	19.32
581.533	20.18
581.727	20.11
581.922	20.69
582.116	20.88
582.311	20.96
582.505	20.44
582.7	20.51
582.894	20.78
583.089	21.04
583.283	21.6
583.478	21.59
583.672	21.11
583.866	21.29
584.061	20.87
584.255	20.17
584.449	21.08
584.644	21.96
584.838	21.86
585.032	20.63
585.226	20.3
585.421	19.41
585.615	19.24
585.809	18.97
586.003	18.41
586.198	18.05
586.392	18.97
586.586	17.85
586.78	17.01
586.974	17.55
587.168	18.23
587.363	18.9
587.557	19.29
587.751	19.35
587.945	18.88
588.139	19.6
588.333	20.64
588.527	20.39
588.721	20.86
588.915	20.72
589.109	20.3
589.303	21.22
589.497	21.04
589.691	21.13
589.885	21.48
590.079	21.99
590.273	22.3
590.466	21.59
590.66	22.35
590.854	22.27
591.048	22.9
591.242	23.35
591.436	22.59
591.629	21.96
591.823	21.67
592.017	22.04
592.211	22.97
592.404	21.4
592.598	22.15
592.792	21.97
592.986	21.72
593.179	21.88
593.373	21.81
593.567	21.6
593.76	22.91
593.954	22.97
594.147	23.03
594.341	22.53
594.535	23.97
594.728	23.2
594.922	22.36
595.115	22.73
595.309	22.99
595.502	23.25
595.696	23.23
595.889	22.01
596.083	21.79
596.276	21.74
596.47	21.92
596.663	20.76
596.856	20.63
597.05	21.45
597.243	21.16
597.437	20.99
597.63	20.8
597.823	21.17
598.017	21.32
598.21	21.45
598.403	20.96
598.596	21.19
598.79	21.04
598.983	21.98
599.176	21.48
599.369	21.16
599.563	20.49
599.756	19.85
599.949	19.07
600.142	19.53
600.335	19.25
600.528	18.72
600.722	18.6
600.915	19.69
601.108	19.41
601.301	19.85
601.494	20.15
601.687	20.69
601.88	20.75
602.073	20.6
602.266	21.35
602.459	22.02
602.652	22.51
602.845	22.61
603.038	22.11
603.231	22.16
603.424	21.94
603.617	21.69
603.809	21.42
604.002	21.5
604.195	21.73
604.388	22.12
604.581	21.79
604.774	21.89
604.966	21.6
605.159	21.46
605.352	21.11
605.545	21.05
605.737	21.01
605.93	21.09
606.123	21.12
606.316	21.87
606.508	20.97
606.701	20.62
606.894	21.48
607.086	22.18
607.279	22.78
607.471	23.01
607.664	23.16
607.857	23.5
608.049	23.86
608.242	24.07
608.434	23.66
608.627	22.92
608.819	23.23
609.012	22.76
609.204	21.95
609.397	22.05
609.589	21.92
609.782	21.91
609.974	21.56
610.166	21.02
610.359	20.97
610.551	20.81
610.743	21.42
610.936	21.64
611.128	20.79
611.32	21.15
611.513	20.78
611.705	21.28
611.897	20.24
612.09	21.16
612.282	21.45
612.474	21.28
612.666	21.59
612.858	22.46
613.051	21.64
613.243	22.82
613.435	22.57
613.627	21.91
613.819	21.83
614.011	22.35
614.203	21.81
614.395	21.4
614.588	21.73
614.78	21.78
614.972	20.24
615.164	21.54
615.356	20.63
615.548	20.56
615.74	21.71
615.932	21.61
616.124	22.3
616.315	22
616.507	22.31
616.699	21.88
616.891	21.02
617.083	21.91
617.275	20.84
617.467	21.15
617.659	22.03
617.85	22.05
618.042	22.69
618.234	23.24
618.426	23.4
618.618	22.76
618.809	23
619.001	23.24
619.193	22.67
619.384	23.13
619.576	24.71
619.768	24.61
619.959	25.11
620.151	24.59
620.343	23
620.534	22.78
620.726	23.6
620.917	22.88
621.109	23.48
621.301	23.58
621.492	23.85
621.684	22.01
621.875	21.61
622.067	20.95
622.258	21.18
622.45	21.32
622.641	21.72
622.832	20.62
623.024	22.08
623.215	23.02
623.407	22.6
623.598	22.01
623.789	23
623.981	21.71
624.172	21.62
624.363	20.53
624.555	20.69
624.746	21.11
624.937	21.86
625.129	21.13
625.32	20.11
625.511	21.27
625.702	21.66
625.893	20.4
626.085	21.18
626.276	20.19
626.467	20.73
626.658	21.35
626.849	20.4
627.04	21.01
627.231	20.6
627.422	20.96
627.614	20.97
627.805	20.05
627.996	20.79
628.187	21.37
628.378	22.57
628.569	23.47
628.76	23.5
628.951	24.46
629.142	24.88
629.332	25.53
629.523	25
629.714	23.89
629.905	25.84
630.096	25.76
630.287	25.61
630.478	25.34
630.669	24.01
630.859	23.83
631.05	23.65
631.241	22.69
631.432	22.25
631.623	22.62
631.813	23.8
632.004	23.74
632.195	22.04
632.385	21.88
632.576	22.19
632.767	22.96
632.957	22.58
633.148	22.83
633.339	22.86
633.529	23.89
633.72	23.5
633.91	23.28
634.101	21.99
634.292	23.87
634.482	24.45
634.673	24.41
634.863	23.15
635.054	24.36
635.244	23.5
635.435	23.35
635.625	22.45
635.815	22.18
636.006	21.54
636.196	22.86
636.387	22.67
636.577	21.91
636.767	21.84
636.958	21.99
637.148	21.66
637.338	22.83
637.529	23.15
637.719	23.52
637.909	23.66
638.099	24.49
638.29	22.39
638.48	22.64
638.67	23.54
638.86	23.56
639.05	24.71
639.241	24.98
639.431	25.26
639.621	25.31
639.811	25.66
640.001	24.85
640.191	23.87
640.381	24.15
640.571	23.01
640.761	22.25
640.951	22.27
641.141	21.49
641.331	20.54
641.521	19.38
641.711	19.21
641.901	17.75
642.091	18.84
642.281	17.81
642.471	18.52
642.661	19.62
642.851	19.89
643.041	19.76
643.231	20.5
643.42	19.15
643.61	18.95
643.8	19.11
643.99	20.87
644.18	21.02
644.369	21.1
644.559	20.8
644.749	19.62
644.939	17.95
645.128	18.12
645.318	18.62
645.508	20.04
645.697	20.01
645.887	19.83
646.076	18.41
646.266	19.03
646.456	19.72
646.645	20.15
646.835	21.51
647.024	21.59
647.214	20.69
647.403	20.08
647.593	19.65
647.782	20.71
647.972	20.41
648.161	21.64
648.351	21.38
648.54	23.09
648.73	22.83
648.919	23.23
649.108	25.08
649.298	25.46
649.487	25.02
649.677	25.26
649.866	25.13
650.055	25.53
650.244	25.11
650.434	24.87
650.623	24.05
650.812	24.2
651.002	22.6
651.191	20.86
651.38	21.27
651.569	20.99
651.758	21.05
651.947	20.08
652.137	19.5
652.326	19.13
652.515	17.95
652.704	16.63
652.893	18
653.082	19.62
653.271	20.58
653.46	20.69
653.649	19.82
653.838	19.91
654.027	19.89
654.216	19.81
654.405	21.26
654.594	21.9
654.783	23.13
654.972	23.01
655.161	21.28
655.35	20.23
655.539	19.18
655.728	21.14
655.916	22.39
656.105	21.93
656.294	22.42
656.483	20.03
656.672	20.15
656.86	19.56
657.049	19.34
657.238	21.17
657.427	23.64
657.615	24.51
657.804	23.82
657.993	23.02
658.181	23.94
658.37	24.17
658.559	24.57
658.747	25.62
658.936	27.34
659.125	27.75
659.313	26.05
659.502	24.79
659.69	23.23
659.879	24.17
660.067	24.68
660.256	25.25
660.444	26.16
660.633	27.11
660.821	26.5
661.01	25.47
661.198	25.71
661.387	26.72
661.575	25.77
661.763	28.72
661.952	28.28
662.14	27.2
662.328	26.03
662.517	26.31
662.705	27.45
662.893	28.45
663.082	29.07
663.27	29.2
663.458	28.69
663.646	29.97
663.834	29.52
664.023	28.97
664.211	28.27
664.399	28.86
664.587	26.23
664.775	25.5
664.963	23.6
665.152	23.16
665.34	21.82
665.528	23.04
665.716	23.77
665.904	23.75
666.092	23.24
666.28	24.28
666.468	24.6
666.656	26.56
666.844	27.56
667.032	28.82
667.22	27.78
667.408	28.44
667.596	29.59
667.784	28.75
667.971	28.64
668.159	29.84
668.347	30.11
668.535	29.77
668.723	28.79
668.911	28.1
669.098	27.52
669.286	26.85
669.474	26
669.662	23.38
669.849	23.75
670.037	22.09
670.225	20.63
670.413	21.41
670.6	21.25
670.788	20.42
670.976	18.83
671.163	18.09
671.351	18.97
671.538	19.25
671.726	20.58
671.913	19.45
672.101	19.89
672.289	19.01
672.476	16.5
672.664	14.48
672.851	15.28
673.039	16.76
673.226	17.61
673.413	17.67
673.601	17.68
673.788	17.04
673.976	18.11
674.163	19.41
674.35	22.15
674.538	23.3
674.725	25.76
674.912	26.28
675.1	25.56
675.287	26.17
675.474	26.87
675.662	25.66
675.849	25.33
676.036	23.96
676.223	24.32
676.411	22.91
676.598	24.22
676.785	24.9
676.972	24.26
677.159	23.38
677.346	22.03
677.533	20.94
677.721	21.13
677.908	22.01
678.095	24.04
678.282	23.44
678.469	24.49
678.656	22.96
678.843	22.76
679.03	24.12
679.217	25.91
679.404	26.36
679.591	26.06
679.778	28.33
679.964	27.37
680.151	26.42
680.338	26.03
680.525	24.88
680.712	25.1
680.899	24.2
681.086	23.01
681.272	22.47
681.459	22.01
681.646	24.09
681.833	21.42
682.02	21.4
682.206	21.53
682.393	21.64
682.58	22.55
682.766	22.45
682.953	23.62
683.14	23.44
683.326	23.39
683.513	24.06
683.7	21.51
683.886	22.75
684.073	23.32
684.259	23.3
684.446	23.96
684.632	24.26
684.819	24.48
685.005	23.26
685.192	23.62
685.378	23.2
685.565	22.45
685.751	24.23
685.938	23.67
686.124	24.15
686.31	23.99
686.497	23.43
686.683	22.81
686.87	21.96
687.056	22.08
687.242	20.76
687.429	21.14
687.615	23.11
687.801	23.51
687.987	23.12
688.174	22.77
688.36	23.82
688.546	23.89
688.732	24.42
688.918	26.65
689.105	27.69
689.291	27.02
689.477	25.42
689.663	24.82
689.849	22.95
690.035	23.66
690.221	23.6
690.407	22.77
690.593	24.19
690.779	24.11
690.965	21.67
691.151	19.95
691.337	22.4
691.523	23.67
691.709	21.29
691.895	22.15
692.081	22.4
692.267	23.08
692.453	24.02
692.639	22.18
692.825	21.52
693.011	22.49
693.196	22.56
693.382	22.34
693.568	24.65
693.754	25.95
693.94	26.79
694.125	26.98
694.311	24.61
694.497	23.87
694.682	23.92
694.868	24.44
695.054	25.56
695.239	25.83
695.425	24.33
695.611	21.34
695.796	21.89
695.982	21.28
696.168	20.96
696.353	21.89
696.539	21.71
696.724	22.63
696.91	22.83
697.095	22.43
697.281	23.85
697.466	24.8
697.652	25.98
697.837	25.78
698.023	25.57
698.208	26.23
698.393	26.09
698.579	25.82
698.764	24.97
698.949	24.91
699.135	24.23
699.32	22.19
699.505	20.84
699.691	19.31
699.876	18.67
700.061	19.51
700.246	20.23
700.432	20.97
700.617	22.38
700.802	22.75
700.987	23.62
701.172	25.46
701.358	27.07
701.543	26.48
701.728	28.6
701.913	28.61
702.098	27.9
702.283	26.57
702.468	24.83
702.653	24.83
702.838	25.71
703.023	24.26
703.208	22.93
703.393	22.78
703.578	25.27
703.763	26.51
703.948	28.25
704.133	26.32
704.318	25.6
704.503	26.3
704.688	25.22
704.873	21.75
705.057	19.55
705.242	18.58
705.427	18.86
705.612	18.27
705.797	15.25
705.981	13.47
706.166	15.71
706.351	15.19
706.536	16.9
706.72	16.75
706.905	22.06
707.09	22.63
707.274	23.4
707.459	24.74
707.644	26.22
707.828	26.25
708.013	28.31
708.197	27.9
708.382	28.27
708.567	27.77
708.751	28.08
708.936	27.94
709.12	30.18
709.305	29.61
709.489	26.8
709.673	26.39
709.858	28.2
710.042	26.21
710.227	27.12
710.411	27.51
710.596	28.23
710.78	28.69
710.964	26.63
711.149	25.62
711.333	26.1
711.517	27.26
711.702	25.97
711.886	24.82
712.07	25.34
712.254	24.34
712.438	24.84
712.623	21.74
712.807	20.17
712.991	18.3
713.175	17.94
713.359	18.63
713.544	19.84
713.728	19.85
713.912	17.12
714.096	18.73
714.28	18.45
714.464	19.02
714.648	21.97
714.832	24.54
715.016	24.18
715.2	21.98
715.384	22.1
715.568	21.59
715.752	22.29
715.936	22.9
716.12	21.46
716.304	21.86
716.488	21.34
716.671	19.81
716.855	17.58
717.039	20.76
717.223	23.73
717.407	23.02
717.59	20.89
717.774	19.13
717.958	19.84
718.142	18.77
718.325	16.98
718.509	15.29
718.693	15.39
718.877	15.65
719.06	13.83
719.244	8.77
719.428	8.11
719.611	12.71
719.795	15.66
719.978	15.84
720.162	17.5
720.345	18.94
720.529	17.55
720.713	17.16
720.896	15.5
721.08	13.41
721.263	19.46
721.446	18.05
721.63	15.42
721.813	13.21
721.997	13.27
722.18	15.46
722.364	17.43
722.547	20.78
722.73	23.6
722.914	25.16
723.097	28.59
723.28	29.12
723.464	31.92
723.647	33.44
723.83	34.57
724.013	35.36
724.197	35.03
724.38	33.07
724.563	31.38
724.746	31.2
724.929	29.56
725.112	29.12
725.296	27.02
725.479	26.58
725.662	24.1
725.845	24.23
726.028	22.03
726.211	21.29
726.394	19.63
726.577	18.76
726.76	18.21
726.943	20.31
727.126	18.24
727.309	18.81
727.492	19.17
727.675	19.37
727.858	20.12
728.041	22.25
728.224	20.24
728.407	21.75
728.589	24.49
728.772	23.64
728.955	22.68
729.138	22.38
729.321	22.24
729.503	21.76
729.686	26.84
729.869	26.59
730.052	25.7
730.234	24.79
730.417	26.62
730.6	22.96
730.782	22.08
730.965	25.87
731.148	26.22
731.33	26.78
731.513	28.19
731.695	24.44
731.878	25.55
732.061	26.49
732.243	30.11
732.426	29.32
732.608	31.06
732.791	32.71
732.973	29.38
733.156	30.66
733.338	30.57
733.52	30.69
733.703	29.9
733.885	29.66
734.068	28.76
734.25	27.06
734.432	25.36
734.615	24.68
734.797	25.79
734.979	28.84
735.162	26.49
735.344	24.82
735.526	24
735.708	26.19
735.891	25.74
736.073	24.37
736.255	22.53
736.437	23.87
736.619	25.35
736.802	23.9
736.984	19.36
737.166	22.52
737.348	25.67
737.53	25.45
737.712	26.04
737.894	22.83
738.076	23.39
738.258	26.12
738.44	25.53
738.622	24.86
738.804	27.3
738.986	27.32
739.168	26.14
739.35	21.04
739.532	20.41
739.714	20.35
739.896	19.51
740.078	23.99
740.259	24.38
740.441	24.75
740.623	22.08
740.805	18.13
740.987	21.1
741.168	23.9
741.35	28.87
741.532	27.57
741.714	21.71
741.895	25.58
742.077	25.3
742.259	24.26
742.44	25.83
742.622	32.56
742.804	30.82
742.985	29.6
743.167	26.92
743.348	24.91
743.53	24.67
743.711	30.7
743.893	33.41
744.075	29.32
744.256	31.33
744.438	30.39
744.619	28.81
744.8	33.49
744.982	34.23
745.163	33.9
745.345	34.04
745.526	30.16
745.707	31.7
745.889	28.51
746.07	29.31
746.252	23.65
746.433	23.14
746.614	21.39
746.795	15.47
746.977	15.68
747.158	21.69
747.339	23.95
747.52	33.58
747.702	30.29
747.883	30.03
748.064	31.62
748.245	35.16
748.426	34.79
748.607	33.54
748.788	34.17
748.97	29.36
749.151	21.87
749.332	18.11
749.513	16.09
749.694	21.35
749.875	24.87
750.056	26.85
750.237	26.21
750.418	26.71
750.599	24.6
750.78	35.03
750.96	36.66
751.141	38.35
751.322	33.18
751.503	34.89
751.684	31.95
751.865	29.03
752.046	20.5
752.226	18.28
752.407	22.05
752.588	27.74
752.769	26.05
752.949	25.95
753.13	28.88
753.311	32.3
753.492	29.38
753.672	28.37
753.853	25.63
754.034	27.38
754.214	30.37
754.395	28.13
754.575	29.35
754.756	26.97
754.937	22.41
755.117	20.61
755.298	23.36
755.478	22.66
755.659	23.7
755.839	23.87
756.02	24.4
756.2	22.31
756.381	17.35
756.561	13.75
756.741	17.61
756.922	24.36
757.102	22.2
757.283	18.21
757.463	24.3
757.643	23.98
757.823	22.98
758.004	18.38
758.184	21.47
758.364	24.29
758.545	20.28
758.725	19.83
758.905	19.26
759.085	16.62
759.265	16.51
759.446	13.93
759.626	17.21
759.806	21.79
759.986	29.38
760.166	27.18
760.346	31.77
760.526	34.49
760.706	32.11
760.886	32.41
761.066	35.74
761.246	37.87
761.426	34.07
761.606	31.71
761.786	29.66
761.966	26.51
762.146	27.8
762.326	25.78
762.506	27.32
762.686	27.49
762.866	25.99
763.046	25.65
763.225	25.22
763.405	27.03
763.585	28.02
763.765	29.93
763.945	31.55
764.124	30.14
764.304	32.62
764.484	31.16
764.664	30.88
764.843	30.64
765.023	30.35
765.203	29.09
765.382	30.74
765.562	27.45
765.741	29.49
765.921	32.07
766.101	34.22
766.28	33.79
766.46	36.19
766.639	34.93
766.819	36.12
766.998	41.82
767.178	43.11
767.357	40.52
767.537	39.95
767.716	38.95
767.896	30.52
768.075	32.37
768.254	28.39
768.434	37.48
768.613	39.72
768.792	45.96
768.972	38
769.151	41.03
769.33	41.76
769.51	40.95
769.689	40.34
769.868	42.21
770.047	38.17
770.226	37.73
770.406	33.21
770.585	33.87
770.764	36.06
770.943	36.39
771.122	36.7
771.301	35.46
771.48	42.01
771.66	39.99
771.839	44.07
772.018	48.61
772.197	51.17
772.376	46.77
772.555	48.6
772.734	44.47
772.913	43.88
773.092	41.97
773.271	41.76
773.449	36.42
773.628	43.2
773.807	38.07
773.986	36.53
774.165	37.81
774.344	45.51
774.523	46.42
774.701	46.43
774.88	50.09
775.059	50.31
775.238	57.63
775.417	59.16
775.595	53.4
775.774	56.31
775.953	54.42
776.131	48.46
776.31	43.43
776.489	38.08
776.667	34.96
776.846	35.09
777.025	35.61
777.203	27.39
777.382	25.8
777.56	21.37
777.739	20.18
777.917	19.68
778.096	25.22
778.274	27.06
778.453	32.26
778.631	29.97
778.81	31.29
778.988	35.36
779.166	37.62
779.345	32.93
779.523	37.9
779.702	43.85
779.88	44.11
780.058	50.14
780.237	45.79
780.415	42.95
780.593	44.05
780.771	41.29
780.95	35.15
781.128	39.14
781.306	38.9
781.484	35.49
781.662	16.04
781.841	15.16
782.019	10.66
782.197	13.08
782.375	15.33
782.553	15.23
782.731	15.02
782.909	15.34
783.087	17.42
783.265	14.9
783.443	16.28
783.621	28.2
783.799	38.54
783.977	44.79
784.155	50.75
784.333	47.25
784.511	43.03
784.689	29.99
784.867	35.18
785.045	36.89
785.223	31.39
785.4	39.06
785.578	31.25
785.756	23.01
785.934	9.49
786.112	0.78
786.289	1.08
786.467	11.71
786.645	15.49
786.823	8.41
787	6.83
787.178	10.46
787.356	6.85
787.533	9.26
787.711	1.08
787.889	6.9
788.066	15.91
788.244	12.92
788.421	18.02
788.599	20.92
788.776	27.28
788.954	24.69
789.131	40.06
789.309	42.4
789.486	47.12
789.664	53.25
789.841	57.56
790.019	57.75
790.196	62.57
790.373	59.01
790.551	58.64
790.728	47.88
790.906	52.18
791.083	50.14
791.26	39.94
791.437	34.09
791.615	37.46
791.792	28.99
791.969	24.63
792.146	22.78
792.324	21.1
792.501	27.04
792.678	35.35
792.855	29.88
793.032	24.24
793.209	47.85
793.387	54.42
793.564	62.96
793.741	66.46
793.918	67.52
794.095	67.77
794.272	68.39
794.449	57.05
794.626	58.57
794.803	60.12
794.98	52.82
795.157	40.3
795.334	34.88
795.511	24.34
795.688	23.61
795.864	25.83
796.041	25.83
796.218	22.77
796.395	31.71
796.572	25.96
796.749	26.13
796.925	26.33
797.102	22.9
797.279	25.61
797.456	23.3
797.632	24.32
797.809	19.37
797.986	19.28
798.162	22.83
798.339	22.47
798.516	30.54
798.692	31.72
798.869	41.43
799.046	43.22
799.222	47.78
799.399	54.94
799.575	50.93
799.752	53
799.928	59.34
800.105	59.45
800.281	60.67
800.458	48.14
800.634	51.39
800.811	41.48
800.987	36.21
801.163	18.31
801.34	16.43
801.516	13.83
801.692	6.32
801.869	-25.15
802.045	-2.15
802.221	2.6
802.398	23.26
802.574	21.22
802.75	20.7
802.926	35.71
803.103	40.06
803.279	51.24
803.455	61.46
803.631	62.77
803.807	78.94
803.983	71.58
804.16	73.23
804.336	104.11
804.512	107.76
804.688	102.17
804.864	110.74
805.04	121.76
805.216	102.08
805.392	80.64
805.568	94.03
805.744	77.68
805.92	78.96
806.096	64.19
806.272	38.45
806.448	9.6
806.623	23.34
806.799	34.14
806.975	50.63
807.151	54.43
807.327	57.3
807.503	59.55
807.678	53.4
807.854	52.29
808.03	60.39
808.206	53.68
808.381	48.77
808.557	37.41
808.733	34.15
808.908	15.7
809.084	4.2
809.26	6.52
809.435	-8.64
809.611	-16.67
809.787	-10.27
809.962	-39.18
810.138	-44.18
810.313	-28.07
810.489	-37.09
810.664	-36.25
810.84	-26.91
811.015	-25.47
811.191	-29.63
811.366	-10.7
811.542	-1.23
811.717	1.63
811.892	16.06
812.068	32.43
812.243	15.7
812.419	32.11
812.594	30.84
812.769	32.94
812.944	46.23
813.12	60.19
813.295	55.41
813.47	46.93
813.645	25.84
813.821	26.09
813.996	-5.12
814.171	2.37
814.346	-28.57
814.521	-3.83
814.697	8.45
814.872	25.35
815.047	19.39
815.222	5.24
815.397	10.32
815.572	1.29
815.747	12.37
815.922	6.66
816.097	14.67
816.272	27.8
816.447	31.41
816.622	33.64
816.797	28.09
816.972	30.32
817.147	46.64
817.322	44.18
817.496	56.42
817.671	47.92
817.846	54.44
818.021	49.72
818.196	54.23
818.371	53.03
818.545	44.81
818.72	51.31
818.895	40.03
819.069	36.48
819.244	37.49
819.419	27.48
819.594	27.85
819.768	27.05
819.943	26.98
820.117	24.76
820.292	25.67
820.467	27.13
820.641	24.91
820.816	24.13
820.99	22.88
821.165	23.88
821.339	25.19
821.514	23.41
821.688	21.74
821.863	21.52
822.037	19.97
822.212	19.22
822.386	16.54
822.56	15.25
822.735	17
822.909	15.9
823.084	14.5
823.258	13.15
823.432	11.46
823.606	13.23
823.781	13.82
823.955	16.64
824.129	13.15
824.303	14.28
824.478	14.7
824.652	16.38
824.826	19.07
825	18.35
825.174	18.61
825.348	19.78
825.523	19.45
825.697	13.25
825.871	12.99
826.045	14.11
826.219	19.86
826.393	21.92
826.567	20.8
826.741	23.74
826.915	24.54
827.089	29.34
827.263	31.86
827.437	33.09
827.611	46.19
827.784	50.54
827.958	51.68
828.132	47.85
828.306	46.78
828.48	45.81
828.654	41.86
828.827	45.35
829.001	43.51
829.175	49.92
829.349	57.42
829.522	25.37
829.696	23.74
829.87	26.94
830.044	19.54
830.217	35.03
830.391	43.85
830.565	46.39
830.738	43.49
830.912	29.13
831.085	37.33
831.259	32.96
831.432	45.78
831.606	40.89
831.779	41.17
831.953	38.9
832.126	37.18
832.3	33.87
832.473	28.49
832.647	21.25
832.82	30.94
832.994	25.45
833.167	24.48
833.34	26.07
833.514	25
833.687	18.12
833.86	23.71
834.034	23.02
834.207	25.3
834.38	28.11
834.553	23.71
834.727	24.45
834.9	13.49
835.073	19.97
835.246	13.6
835.419	10.85
835.593	30.42
835.766	30.78
835.939	25.02
836.112	11.19
836.285	9.54
836.458	27.92
836.631	19.4
836.804	31.08
836.977	20.74
837.15	25.23
837.323	43.33
837.496	24.17
837.669	21.52
837.842	11.78
838.015	26.49
838.188	26.33
838.361	27.91
838.533	30.13
838.706	29.78
838.879	38.01
839.052	15.74
839.225	14.25
839.398	17.23
839.57	19.02
839.743	13.83
839.916	9.81
840.088	19.52
840.261	23.37
840.434	31.04
840.607	33.05
840.779	24.15
840.952	40.96
841.124	18.57
841.297	30.09
841.47	13.85
841.642	40.47
841.815	41.14
841.987	14.55
842.16	21.54
842.332	-65.9
842.505	-47.42
842.677	-17.65
842.85	4416.67
843.022	1618.75
843.194	-1118.18
843.367	609.68
843.539	363.53
843.712	434.21
843.884	440.74
844.056	654.55
844.229	-24.82
844.401	0.43
844.573	-79.52
844.745	32.41
844.918	51.11
845.09	48.76
845.262	65.84
845.434	78.43
845.606	124.03
845.779	172.77
845.951	238.01
846.123	203.08
846.295	228.72
846.467	300
846.639	243.64
846.811	254.17
846.983	437.86
847.155	-262.12
847.327	-313.79
847.499	3086.67
847.671	-477.33
847.843	-1236.36
848.015	-466.33
848.187	-304.35
848.359	-512.86
848.531	-174.67
848.703	-64.23
848.875	-111.06
849.047	-68.16
849.218	-23.82
849.39	-28.31
849.562	-48.71
849.734	-203.95
849.905	-36.73
850.077	-39.7
850.249	-458
850.421	522.58
850.592	209.25
850.764	156.28
850.936	147.32
851.107	124.69
851.279	98.32
851.451	82.85
851.622	55.21
851.794	37.62
851.965	40.07
852.137	13.8
852.308	-20.78
852.48	-43.25
852.651	-20.95
852.823	-5.96
852.994	-16.08
853.166	-11.64
853.337	6.7
853.509	0.7
853.68	-383.02
853.851	208.11
854.023	49.52
854.194	59.75
854.365	96.07
854.537	80.37
854.708	55.3
854.879	200
855.05	193.75
855.222	1453.85
855.393	50.94
855.564	258.25
855.735	-291.3
855.906	-26.87
856.078	94.48
856.249	114.89
856.42	82.95
856.591	-7.32
856.762	222.08
856.933	141.8
857.104	73.26
857.275	16.39
857.446	9.23
857.617	-38.28
857.788	-68.11
857.959	368.03
858.13	225.93
858.301	937.5
858.472	255.26
858.643	385.19
858.814	165.77
858.985	179.49
859.155	440
859.326	126.23
859.497	136.39
859.668	93.97
859.839	62.77
860.009	39.8
860.18	106.19
860.351	5
860.522	-775
860.692	-42.86
860.863	900
861.034	6.41
861.204	477.27
861.375	-38.14
861.546	57.14
861.716	-283.33
861.887	160.42
862.057	-6850
862.228	883.33
862.398	1850
862.569	-248.1
862.739	-122.4
862.91	-496.97
863.08	-58.02
863.251	322.86
863.421	81
863.592	280.65
863.762	668
863.932	389.32
864.103	191.13
864.273	200.85
864.443	577.22
864.614	199.21
864.784	200
864.954	2325
865.125	260.39
865.295	187.16
865.465	825
865.635	707.58
865.805	2243.75
865.976	553.57
866.146	88.45
866.316	133.7
866.486	153.17
866.656	137.88
866.826	100.59
866.996	111.96
867.166	70.1
867.336	82.94
867.506	23.95
867.676	20.63
867.846	67.86
868.016	185.37
868.186	-14
868.356	-122.5
868.526	-46.25
868.696	772.22
868.866	81.72
869.036	56.82
869.206	-38.36
869.376	20
869.545	35.68
869.715	109.46
869.885	47.22
870.055	-664.29
870.224	5400
870.394	-26.32
870.564	-50.93
870.734	58.93
870.903	46.62
871.073	-12.47
871.243	-12.39
871.412	-67.2
871.582	-48.52
871.751	-277.55
871.921	205.61
872.091	147.06
872.26	91.59
872.43	107.73
872.599	86.28
872.769	93.26
872.938	82.34
873.108	83.68
873.277	60.64
873.446	65.29
873.616	68.44
873.785	57.11
873.955	39.7
874.124	59.67
874.293	71.76
874.463	76.57
874.632	78.64
874.801	72.42
874.971	80.12
875.14	81.45
875.309	84.94
875.478	109.71
875.647	109.84
875.817	128.18
875.986	114.49
876.155	98.52
876.324	63.36
876.493	60.43
876.662	86.36
876.831	96.3
877	122.69
877.17	87.47
877.339	103.7
877.508	100.19
877.677	143.75
877.846	125.9
878.015	152.23
878.184	201.4
878.352	500
878.521	214.42
878.69	116.87
878.859	122.83
879.028	267.06
879.197	58.9
879.366	6.73
879.534	-17.65
879.703	-9.29
879.872	3.8
880.041	21.67
880.21	22.99
880.378	28.08
880.547	26.82
880.716	20.88
880.884	27.4
881.053	23.76
881.222	28.38
881.39	26
881.559	23.46
881.727	14.56
881.896	10.12
882.065	17.53
882.233	18.22
882.402	25.38
882.57	24.39
882.739	30.76
882.907	40.16
883.076	45.17
883.244	60.13
883.412	84.13
883.581	100.22
883.749	115.07
883.918	110.23
884.086	100.88
884.254	73.04
884.423	64.98
884.591	70.02
884.759	52.03
884.927	62.7
885.096	50.54
885.264	27.8
885.432	16.72
885.6	4.36
885.769	29.7
885.937	9.73
886.105	90.82
886.273	140.58
886.441	88.73
886.609	288.52
886.777	140.61
886.945	78.12
887.113	122.96
887.281	181.61
887.449	-1871.43
887.617	3100
887.785	569.23
887.953	-1262.86
888.121	-303.82
888.289	-375
888.457	-955.74
888.625	-275.58
888.793	-114.52
888.961	-146.57
889.129	-194.92
889.296	-701.02
889.464	-344.76
889.632	-181.82
889.8	-267.27
889.967	-299.01
890.135	-547.06
