Data from JASIL_3138_Reflection_1.txt Node
Date: Thu Nov 12 20:50:06 EST 2015
User: Geneva
Spectrometer: USB4E03002
Autoset integration time: false
Trigger mode: 4
Integration Time (sec): 1.000000E-1
Scans to average: 10
Electric dark correction enabled: true
Nonlinearity correction enabled: false
Boxcar width: 5
Stray light correction enabled: false
XAxis mode: Wavelengths
Stop averaging: false
Number of Pixels in Spectrum: 3648
>>>>>Begin Spectral Data<<<<<
177.575	156.25
177.794	204.92
178.014	202.33
178.233	33.33
178.452	29.81
178.672	1355.56
178.891	-254.29
179.11	64.08
179.33	77.63
179.549	116.33
179.768	500
179.987	114.94
180.207	-1600
180.426	128.46
180.645	182.32
180.864	146.69
181.084	63.86
181.303	29.52
181.522	69.6
181.741	75.78
181.96	8.37
182.179	-40.46
182.398	-44.87
182.618	36.36
182.837	58.15
183.056	90.63
183.275	-90
183.494	322.58
183.713	170.3
183.932	315.24
184.151	318.84
184.37	294.44
184.589	304.8
184.808	618.9
185.027	846.88
185.246	609.24
185.465	-880
185.684	577.94
185.903	-325.3
186.122	-272.88
186.341	-340.4
186.56	-273.95
186.779	-124.26
186.998	-55.61
187.216	-81.61
187.435	-93.35
187.654	-128.38
187.873	-26150
188.092	-430.84
188.311	539.02
188.53	-815.15
188.748	-85.25
188.967	22.27
189.186	38.58
189.405	67.9
189.623	141.49
189.842	58.27
190.061	111.99
190.28	79.07
190.498	100.22
190.717	41.1
190.936	42.39
191.154	16.18
191.373	4.89
191.592	52.94
191.81	16.17
192.029	-33.16
192.248	-342.15
192.466	1671.05
192.685	14100
192.904	3600
193.122	347.52
193.341	333.6
193.559	213.32
193.778	226.4
193.996	323.28
194.215	353.25
194.433	352.16
194.652	297.92
194.87	282.47
195.089	371.75
195.307	257.68
195.526	343.53
195.744	394.34
195.963	-2735.29
196.181	635.44
196.399	334.75
196.618	193.33
196.836	154.27
197.055	130.47
197.273	107.84
197.491	56.57
197.71	36.91
197.928	30.13
198.146	45.71
198.365	55.32
198.583	72.44
198.801	77.66
199.019	92.5
199.238	99.7
199.456	110.86
199.674	128.13
199.892	156.83
200.111	170.1
200.329	204.21
200.547	203.92
200.765	241.88
200.983	214.91
201.202	202.22
201.42	161.73
201.638	153.15
201.856	136.47
202.074	177.86
202.292	1135.29
202.51	-57.56
202.728	-14.6
202.946	-4
203.165	-66.22
203.383	-6.26
203.601	10.45
203.819	24.42
204.037	-22.97
204.255	-84.27
204.473	-172.15
204.691	-403.45
204.909	260.42
205.127	151.07
205.345	179.32
205.562	221.08
205.78	1338.46
205.998	-2543.75
206.216	1238.1
206.434	-500
206.652	-104.8
206.87	-92.08
207.088	-95.65
207.306	-48.23
207.523	-318.37
207.741	628.57
207.959	-111.63
208.177	9900
208.395	82.07
208.612	13.41
208.83	85.52
209.048	77.78
209.266	98.04
209.483	82.77
209.701	115.07
209.919	110.47
210.136	118.48
210.354	121.31
210.572	126.25
210.79	169.05
211.007	195.79
211.225	168.84
211.442	261.85
211.66	706.25
211.878	-1940
212.095	-210.66
212.313	-162.39
212.53	-221.28
212.748	-493.28
212.966	-438.52
213.183	-220.73
213.401	-91.99
213.618	-107.41
213.836	-125.08
214.053	-186.57
214.271	-86.67
214.488	-200
214.705	-283.84
214.923	-2891.67
215.14	226.45
215.358	90.32
215.575	125.69
215.793	153.18
216.01	192.21
216.227	386.08
216.445	174.74
216.662	167.02
216.879	220.74
217.097	-436.23
217.314	-870.83
217.531	-144.94
217.749	-22.94
217.966	-6.67
218.183	-115.6
218.4	-1150
218.618	162.79
218.835	109.42
219.052	102.61
219.269	97.19
219.487	79.33
219.704	120
219.921	122.49
220.138	106.98
220.355	99.5
220.572	90.87
220.79	88.93
221.007	112.14
221.224	110.27
221.441	120.17
221.658	140
221.875	141.94
222.092	136.17
222.309	155.78
222.526	212.82
222.743	215.42
222.96	202.59
223.177	214.47
223.394	266.67
223.611	396.74
223.828	68900
224.045	303.92
224.262	-2330.77
224.479	596.15
224.696	4453.85
224.913	-254.76
225.13	-149.66
225.347	-106.25
225.564	-353.15
225.781	-259.05
225.997	-189.89
226.214	-180.57
226.431	-52.2
226.648	-68.43
226.865	-59.17
227.082	-42.74
227.298	-52.39
227.515	-46.3
227.732	-43.93
227.949	-15.1
228.165	-12.33
228.382	-23.81
228.599	-16.27
228.816	-14.29
229.032	-23.68
229.249	-20.92
229.466	-29.79
229.682	-35.78
229.899	-54.39
230.116	-50.07
230.332	-51.39
230.549	-72.59
230.765	-62.05
230.982	-69.56
231.199	-111.2
231.415	-92.54
231.632	-75.44
231.848	-55.07
232.065	-60.56
232.281	-42.76
232.498	-42.67
232.714	-47.14
232.931	-37.81
233.147	-43.65
233.364	-40.3
233.58	-24.82
233.797	-15.67
234.013	-10.97
234.23	-25.34
234.446	-23.31
234.662	-28.57
234.879	-49.88
235.095	-44.87
235.312	-36.85
235.528	-43.95
235.744	-29.8
235.961	-15.07
236.177	-52.03
236.393	-97.84
236.61	-75.46
236.826	-92.08
237.042	-59.36
237.258	-34.33
237.475	-46.44
237.691	-59.97
237.907	-25.39
238.123	-42.63
238.339	-35.84
238.556	-11.62
238.772	-1.71
238.988	-2.08
239.204	9.46
239.42	11.71
239.636	0.68
239.853	4.87
240.069	12.04
240.285	13.71
240.501	13.12
240.717	-3.29
240.933	-9.39
241.149	-9.99
241.365	-4.15
241.581	-4.73
241.797	-5.06
242.013	1.7
242.229	-1.59
242.445	-2.74
242.661	-8.22
242.877	-2.3
243.093	3.44
243.309	5.19
243.525	11.1
243.741	9.84
243.957	6.44
244.173	1.3
244.388	0.45
244.604	3.23
244.82	3.21
245.036	2.81
245.252	-3.38
245.468	-6.63
245.683	-6.94
245.899	-13.23
246.115	-13.07
246.331	-6.85
246.547	-5.9
246.762	-10.01
246.978	-11.37
247.194	-17.36
247.409	-16.18
247.625	-13.99
247.841	-11.97
248.057	-10.33
248.272	-6.15
248.488	-6.12
248.703	-7.81
248.919	-12.34
249.135	-11.14
249.35	-5.56
249.566	2.35
249.782	4.8
249.997	5.13
250.213	10.57
250.428	8.45
250.644	8.11
250.859	8.83
251.075	8.26
251.29	5.76
251.506	6.38
251.721	4.59
251.937	2.95
252.152	0.34
252.368	2.14
252.583	0.63
252.798	5.44
253.014	0.04
253.229	-4.97
253.445	-5.05
253.66	1.59
253.875	3.24
254.091	-1.27
254.306	2.25
254.521	1.01
254.737	-3.53
254.952	-5.68
255.167	-9.31
255.383	-6.73
255.598	-3.69
255.813	-3.12
256.028	-7.39
256.244	-13.46
256.459	-10.39
256.674	-17.56
256.889	-18.75
257.104	-18.98
257.32	-19.75
257.535	-17.38
257.75	-11.71
257.965	-8.52
258.18	-6.21
258.395	-2.58
258.61	0.29
258.826	-1.44
259.041	0.44
259.256	0.6
259.471	1.39
259.686	1.68
259.901	-0.45
260.116	-0.59
260.331	-0.72
260.546	-3.91
260.761	-4.59
260.976	-8.85
261.191	-6
261.406	-9.61
261.621	-10.88
261.836	-9.88
262.05	-12.5
262.265	-10.78
262.48	-9.89
262.695	-21.54
262.91	-17.44
263.125	-22.23
263.34	-18.69
263.555	-18.9
263.769	-12.98
263.984	-11.31
264.199	-15.89
264.414	-11.94
264.629	-10.41
264.843	-14.82
265.058	-3.72
265.273	-3.57
265.488	0.24
265.702	1.7
265.917	2.27
266.132	-1.75
266.346	-3.97
266.561	-4.1
266.776	-4.34
266.99	-0.28
267.205	1.8
267.42	-0.8
267.634	-0.42
267.849	-2.19
268.063	-0.05
268.278	-2.22
268.492	2.69
268.707	3.78
268.922	6.66
269.136	4.79
269.351	-2.57
269.565	-5.69
269.78	-3.69
269.994	-3.94
270.209	-3.93
270.423	-7.51
270.637	-3.53
270.852	-8.28
271.066	-6.5
271.281	-3.32
271.495	-1.1
271.709	1.5
271.924	5.5
272.138	4.67
272.353	1.81
272.567	-0.67
272.781	-0.46
272.996	-3.54
273.21	0.32
273.424	-0.24
273.638	-2.08
273.853	-0.11
274.067	-0.96
274.281	-3.35
274.495	-5
274.71	-4.65
274.924	-0.94
275.138	0.62
275.352	-2.21
275.566	-0.58
275.781	0.55
275.995	0.02
276.209	-5.84
276.423	-4.76
276.637	-4.95
276.851	-3.2
277.065	0.21
277.279	-0.25
277.493	2.73
277.707	5.6
277.921	-0.63
278.135	-3.12
278.349	-4.28
278.563	-2.06
278.777	-2.87
278.991	-3.18
279.205	-5.09
279.419	-3.33
279.633	-2.23
279.847	-5.37
280.061	-7.09
280.275	-6.13
280.489	-1.16
280.703	1.52
280.917	-1.95
281.131	0.04
281.344	4.32
281.558	4.07
281.772	0.73
281.986	-0.87
282.2	-3.94
282.414	-3.2
282.627	-1.52
282.841	-4.95
283.055	-8.77
283.269	-5.6
283.482	-9.14
283.696	-13.19
283.91	-12.47
284.123	-12.26
284.337	-14.48
284.551	-12.31
284.764	-10.96
284.978	-8.89
285.192	-8.88
285.405	-6.88
285.619	-7.08
285.833	-4
286.046	-1.25
286.26	0.98
286.473	1.58
286.687	2.96
286.9	4.02
287.114	3.92
287.327	3.29
287.541	4.2
287.754	2.03
287.968	2.97
288.181	2.38
288.395	1.48
288.608	-2.14
288.822	-2.38
289.035	-1.02
289.248	-0.09
289.462	-1.06
289.675	-2.98
289.889	-3.35
290.102	-1.15
290.315	-0.97
290.529	-0.94
290.742	-1.24
290.955	-3.1
291.169	-2.9
291.382	-2.78
291.595	-6.26
291.808	-6.05
292.022	-1.58
292.235	2.11
292.448	1.09
292.661	-0.06
292.875	-0.88
293.088	-4.04
293.301	-0.65
293.514	-2.5
293.727	-0.79
293.94	1.52
294.153	2.89
294.367	-0.97
294.58	-3.2
294.793	-1.85
295.006	-0.58
295.219	-0.48
295.432	0.79
295.645	0.57
295.858	2.33
296.071	1.94
296.284	1.7
296.497	-0.3
296.71	0.89
296.923	2.01
297.136	0.69
297.349	1.35
297.562	2.15
297.775	3.02
297.988	4.46
298.201	3.45
298.414	1.16
298.626	1.13
298.839	4.22
299.052	4.71
299.265	4.52
299.478	2.67
299.691	0.77
299.903	0.06
300.116	-1.26
300.329	-0.82
300.542	0.95
300.755	3.07
300.967	3.35
301.18	1.89
301.393	-0.29
301.605	-0.44
301.818	2.23
302.031	2.02
302.243	2.05
302.456	0.67
302.669	1.64
302.881	2.02
303.094	2.96
303.307	1.89
303.519	4.41
303.732	3.83
303.944	1.86
304.157	1.32
304.37	1.55
304.582	0.34
304.795	2.6
305.007	2.45
305.22	-0.44
305.432	-2.29
305.645	-2.49
305.857	-7.11
306.069	-4.54
306.282	-6.59
306.494	-6.15
306.707	-3.08
306.919	-2.79
307.132	-2.31
307.344	-6.21
307.556	-6.2
307.769	-5.89
307.981	-4.49
308.193	-2.82
308.406	-0.5
308.618	2.23
308.83	4.52
309.043	3.22
309.255	5.47
309.467	5.81
309.679	8.33
309.892	7.15
310.104	9.62
310.316	10.86
310.528	11.69
310.74	9.84
310.953	9.98
311.165	8.54
311.377	9.53
311.589	10.57
311.801	12.94
312.013	13.06
312.225	13.33
312.437	11.09
312.649	11.75
312.862	12.56
313.074	14.07
313.286	16.37
313.498	15.89
313.71	14.57
313.922	13.86
314.134	11.13
314.346	10.67
314.558	12.65
314.77	11.83
314.982	8.03
315.193	5.37
315.405	4.68
315.617	3.02
315.829	5.86
316.041	7.47
316.253	4.11
316.465	0.93
316.677	0.47
316.888	-0.72
317.1	0.83
317.312	2.81
317.524	1.61
317.736	3.99
317.947	5.02
318.159	2.44
318.371	1.06
318.583	1.12
318.794	3.67
319.006	4.52
319.218	6.9
319.43	6.15
319.641	5.21
319.853	8.14
320.064	5.92
320.276	1.13
320.488	2.56
320.699	4.3
320.911	4.45
321.123	8.63
321.334	5.13
321.546	5.82
321.757	4.56
321.969	4.54
322.18	1.21
322.392	0.84
322.603	3.62
322.815	2.77
323.026	1.71
323.238	2.81
323.449	-0.49
323.661	2.37
323.872	1.28
324.083	2.81
324.295	6.12
324.506	8.55
324.718	7.33
324.929	4.93
325.14	4.69
325.352	6.03
325.563	5.68
325.774	8.38
325.986	8.88
326.197	9.19
326.408	10.35
326.62	7.98
326.831	5.27
327.042	5.59
327.253	8.08
327.464	8.01
327.676	6.5
327.887	7.14
328.098	7.71
328.309	5.47
328.52	6.13
328.732	3.84
328.943	3.04
329.154	3.9
329.365	6.01
329.576	6.2
329.787	8.14
329.998	8.37
330.209	9.76
330.42	8.32
330.631	9.55
330.842	10.12
331.053	9.86
331.264	10.61
331.475	11.7
331.686	10.04
331.897	11.76
332.108	9.97
332.319	8.74
332.53	8.99
332.741	10.1
332.952	11.01
333.163	8.6
333.374	10.18
333.585	11.31
333.795	10.57
334.006	11.74
334.217	11.04
334.428	12.78
334.639	15.52
334.849	13.21
335.06	9.21
335.271	8.26
335.482	10.17
335.692	9.05
335.903	8.57
336.114	8.85
336.325	6.91
336.535	7.19
336.746	4.91
336.957	2.88
337.167	3.53
337.378	5.46
337.589	3.43
337.799	1.91
338.01	1.51
338.22	0.57
338.431	2.37
338.642	3.37
338.852	-0.65
339.063	2.19
339.273	3.69
339.484	5.94
339.694	5.85
339.905	6.97
340.115	8.42
340.326	9.3
340.536	9.86
340.746	8.71
340.957	8.21
341.167	10.44
341.378	9.07
341.588	7.4
341.799	7.33
342.009	7.18
342.219	7.59
342.43	5.6
342.64	5.63
342.85	3.78
343.061	4.63
343.271	3.01
343.481	3.19
343.691	2.88
343.902	2.26
344.112	0.87
344.322	0.58
344.532	2.33
344.743	3.18
344.953	3.97
345.163	5.53
345.373	4.45
345.583	7.37
345.793	6.86
346.004	5.5
346.214	7.04
346.424	7.3
346.634	7.81
346.844	6.78
347.054	6.62
347.264	6.15
347.474	3.94
347.684	6.08
347.894	7.54
348.104	5.29
348.314	7.58
348.524	7.13
348.734	4.58
348.944	4.3
349.154	3.7
349.364	4.94
349.574	4.48
349.784	5.96
349.994	4.97
350.204	3.07
350.413	3.43
350.623	5.51
350.833	5.91
351.043	7.85
351.253	8.13
351.463	8.54
351.672	8.34
351.882	8.81
352.092	8.19
352.302	8.43
352.511	7.94
352.721	9.42
352.931	6.68
353.141	5.69
353.35	6.65
353.56	5.69
353.77	6.82
353.979	6.54
354.189	6.46
354.399	8.03
354.608	6.73
354.818	7.22
355.027	7.43
355.237	6.14
355.447	7.34
355.656	6.26
355.866	8.35
356.075	7.88
356.285	7.96
356.494	7.62
356.704	8.76
356.913	7.85
357.123	8.84
357.332	9.08
357.542	11.12
357.751	10.71
357.96	11
358.17	9.22
358.379	7.66
358.589	8.19
358.798	7.72
359.007	6.73
359.217	7.96
359.426	7.08
359.635	7.71
359.845	6.33
360.054	6.67
360.263	5.94
360.472	6.28
360.682	6.49
360.891	5.15
361.1	5.32
361.309	5.09
361.519	4.95
361.728	3.78
361.937	2.36
362.146	2.58
362.355	1.46
362.564	2.29
362.774	1.27
362.983	2.06
363.192	3.36
363.401	3.76
363.61	3.72
363.819	5.4
364.028	7.21
364.237	8.29
364.446	7.36
364.655	7.42
364.864	8.08
365.073	8.85
365.282	8.37
365.491	7.63
365.7	8.48
365.909	9.16
366.118	6.81
366.327	5.78
366.536	4.73
366.745	4.76
366.954	5.78
367.162	3.51
367.371	4.53
367.58	4.91
367.789	3.81
367.998	3.54
368.207	2.98
368.415	4.32
368.624	4.34
368.833	5.38
369.042	6.03
369.25	5.3
369.459	6.08
369.668	6.95
369.877	6.25
370.085	6
370.294	5.48
370.503	5.37
370.711	5.54
370.92	5.4
371.129	6.13
371.337	7.07
371.546	7.21
371.754	8.48
371.963	6.47
372.171	6.78
372.38	5.89
372.589	6.44
372.797	6.54
373.006	5.83
373.214	6.27
373.423	5.02
373.631	5.1
373.84	4.91
374.048	5.71
374.256	6.73
374.465	7.33
374.673	9.43
374.882	8.33
375.09	8.43
375.298	8.86
375.507	9.17
375.715	9.79
375.923	8.2
376.132	8.13
376.34	6.01
376.548	5.74
376.757	5.31
376.965	3.26
377.173	2.86
377.381	2.23
377.59	1.15
377.798	0.76
378.006	-0.09
378.214	1.75
378.423	2.69
378.631	3.24
378.839	3.47
379.047	2.87
379.255	4.41
379.463	5.43
379.671	4.75
379.879	4.31
380.088	4.03
380.296	3.92
380.504	2.95
380.712	1.51
380.92	1.39
381.128	2.05
381.336	2.56
381.544	2.33
381.752	1.92
381.96	2.64
382.168	3.65
382.376	4.91
382.584	5
382.791	4.8
382.999	5.51
383.207	6.46
383.415	5.33
383.623	5.12
383.831	5.39
384.039	4.97
384.247	3.55
384.454	2.05
384.662	1.24
384.87	2.22
385.078	1.59
385.285	0.87
385.493	-0.56
385.701	-2.15
385.909	-2.19
386.116	-0.82
386.324	0.31
386.532	2.16
386.739	3.8
386.947	2.46
387.155	2.88
387.362	4.25
387.57	4.5
387.778	5.4
387.985	5.3
388.193	6.22
388.4	4.27
388.608	3.39
388.816	2.78
389.023	1.77
389.231	2.72
389.438	1.46
389.646	1.91
389.853	1.26
390.061	1.19
390.268	2.78
390.475	3.35
390.683	5.13
390.89	6.23
391.098	6.4
391.305	7.03
391.512	7.55
391.72	6.62
391.927	6.41
392.135	7.17
392.342	6.16
392.549	6.51
392.756	5.46
392.964	5
393.171	5
393.378	5.75
393.586	6.44
393.793	5.85
394	6.67
394.207	6.7
394.414	6.57
394.622	7.58
394.829	7.69
395.036	6.54
395.243	6.11
395.45	5.11
395.657	4.93
395.864	4.23
396.072	3.52
396.279	4.39
396.486	3.3
396.693	3.1
396.9	2.79
397.107	2.03
397.314	2.74
397.521	2.24
397.728	2.64
397.935	0.57
398.142	-0.36
398.349	0.54
398.556	-0.79
398.763	-0.88
398.97	-0.91
399.177	0.08
399.383	0.03
399.59	-0.05
399.797	0.07
400.004	0.37
400.211	2.03
400.418	2.37
400.625	2.18
400.831	2.74
401.038	4.01
401.245	4.59
401.452	3.29
401.658	2.65
401.865	3.94
402.072	5.34
402.279	5.54
402.485	5.15
402.692	5.74
402.899	5.59
403.105	5.66
403.312	4.96
403.519	5.08
403.725	4.34
403.932	5.25
404.138	5.63
404.345	4.89
404.552	4.8
404.758	5.42
404.965	5.28
405.171	5.3
405.378	3.82
405.584	3.76
405.791	3.26
405.997	4.88
406.204	5.24
406.41	4.75
406.617	4.75
406.823	3.93
407.029	2.74
407.236	3
407.442	2.5
407.649	4.09
407.855	4.14
408.061	4.34
408.268	3.37
408.474	2.85
408.68	2.17
408.887	1.2
409.093	1.2
409.299	1.59
409.505	0.3
409.712	0.94
409.918	0.82
410.124	0.97
410.33	1.34
410.537	2.84
410.743	2.44
410.949	2.53
411.155	2.74
411.361	1.87
411.567	2.9
411.773	4.17
411.98	4.06
412.186	4.15
412.392	4.51
412.598	4.45
412.804	3.43
413.01	3.47
413.216	3.15
413.422	4.45
413.628	5.4
413.834	4.04
414.04	4.28
414.246	5.17
414.452	5.72
414.658	4.51
414.864	4.21
415.07	4.79
415.275	5.23
415.481	4.97
415.687	4.49
415.893	4.89
416.099	5.86
416.305	5.21
416.511	4.41
416.716	4.49
416.922	5.71
417.128	6.19
417.334	6.02
417.539	5.51
417.745	5.61
417.951	5.42
418.157	5.72
418.362	5.43
418.568	5.23
418.774	5.69
418.979	5.36
419.185	4.82
419.391	4.43
419.596	4.38
419.802	4.34
420.008	4.6
420.213	5.04
420.419	4.66
420.624	4.61
420.83	4.78
421.035	4.6
421.241	4.45
421.446	4.52
421.652	4.51
421.857	4.1
422.063	4.23
422.268	4.24
422.474	3.93
422.679	4.12
422.885	3.97
423.09	4.21
423.295	4.34
423.501	4.53
423.706	4.43
423.911	4.38
424.117	5.24
424.322	5.19
424.527	5.31
424.733	5.41
424.938	5.37
425.143	5.71
425.349	5.35
425.554	5.48
425.759	5.24
425.964	5.66
426.169	6.33
426.375	5.7
426.58	6.01
426.785	5.64
426.99	5.77
427.195	5.19
427.4	4.88
427.605	5.91
427.811	5
428.016	5.04
428.221	5.31
428.426	4.55
428.631	5.16
428.836	5.01
429.041	5.18
429.246	4.97
429.451	5.35
429.656	5.48
429.861	5.06
430.066	5.38
430.271	4.99
430.476	3.54
430.681	3.38
430.886	2.62
431.09	2.83
431.295	2.53
431.5	2.81
431.705	2.85
431.91	2.92
432.115	3.16
432.32	3.41
432.524	3.99
432.729	4.69
432.934	4.8
433.139	4.92
433.343	4.87
433.548	5.17
433.753	4.69
433.958	4.98
434.162	5.49
434.367	5.45
434.572	5.33
434.776	5.33
434.981	5.16
435.186	5.36
435.39	5.69
435.595	5.36
435.799	4.92
436.004	5.29
436.209	5.16
436.413	3.75
436.618	3.4
436.822	3.59
437.027	3.74
437.231	3.36
437.436	3.19
437.64	3.24
437.845	3.5
438.049	4.08
438.253	4.47
438.458	4.82
438.662	5.47
438.867	5.52
439.071	5.49
439.275	5.38
439.48	5.54
439.684	5.7
439.888	5.08
440.093	4.89
440.297	4.96
440.501	4.43
440.706	4.07
440.91	4.08
441.114	4.33
441.318	4.48
441.523	4.79
441.727	4.95
441.931	4.62
442.135	4.88
442.339	5.02
442.543	5.12
442.748	5.3
442.952	4.85
443.156	5.16
443.36	4.62
443.564	4.74
443.768	4.14
443.972	4.4
444.176	4.9
444.38	5.31
444.584	5.69
444.788	4.78
444.992	4.97
445.196	5.46
445.4	5.45
445.604	5.65
445.808	5.08
446.012	5.05
446.216	5.2
446.42	4.93
446.624	4.95
446.828	4.57
447.032	4.99
447.235	4.87
447.439	4.66
447.643	4.23
447.847	3.79
448.051	3.96
448.254	4.39
448.458	3.88
448.662	4.05
448.866	3.61
449.069	4.12
449.273	3.68
449.477	3.1
449.681	3.04
449.884	3.51
450.088	3.84
450.292	3.31
450.495	2.84
450.699	2.88
450.902	2.96
451.106	2.73
451.31	2.45
451.513	3.17
451.717	3.57
451.92	3.64
452.124	3.01
452.327	3.74
452.531	4.29
452.734	4.4
452.938	4.25
453.141	4.32
453.345	4.27
453.548	3.97
453.752	4.22
453.955	4.36
454.158	4.39
454.362	4.13
454.565	3.88
454.769	3.67
454.972	4.01
455.175	4.28
455.379	4.2
455.582	5.14
455.785	4.99
455.988	4.34
456.192	4.13
456.395	4.02
456.598	4.28
456.801	3.26
457.005	3.15
457.208	3.36
457.411	3.15
457.614	2.91
457.817	2.11
458.021	2.4
458.224	2.59
458.427	2.81
458.63	3.13
458.833	3.45
459.036	3.43
459.239	4.08
459.442	3.67
459.645	4.19
459.848	4.45
460.051	4.7
460.254	4.93
460.457	4.86
460.66	4.45
460.863	4.41
461.066	4.64
461.269	5.41
461.472	5.05
461.675	5.05
461.878	5.14
462.081	4.87
462.284	5.43
462.486	5.32
462.689	5.46
462.892	5.8
463.095	5.51
463.298	4.88
463.5	4.89
463.703	5.41
463.906	4.99
464.109	4.25
464.311	4.21
464.514	3.67
464.717	3.49
464.92	3.55
465.122	4.05
465.325	4.37
465.528	4.12
465.73	3.97
465.933	3.47
466.135	2.95
466.338	3.18
466.541	2.75
466.743	2.36
466.946	2.41
467.148	2.85
467.351	2.59
467.553	2.43
467.756	3.23
467.958	2.52
468.161	2.12
468.363	3.9
468.566	3.84
468.768	4.6
468.971	4.75
469.173	4.87
469.375	4.78
469.578	4.83
469.78	4.49
469.983	4.39
470.185	5.19
470.387	5.74
470.59	5
470.792	5.45
470.994	5.12
471.196	5.5
471.399	5.45
471.601	5.05
471.803	4.91
472.005	5.01
472.208	5.03
472.41	4.7
472.612	4.81
472.814	5.34
473.016	5
473.218	5.1
473.421	5.11
473.623	5.31
473.825	5
474.027	5.25
474.229	5.38
474.431	5.09
474.633	5
474.835	4.49
475.037	4.09
475.239	4.11
475.441	4.12
475.643	4.34
475.845	3.92
476.047	4.03
476.249	4.03
476.451	4.28
476.653	4.17
476.855	4.44
477.057	5.12
477.258	5.37
477.46	5.35
477.662	5.13
477.864	4.37
478.066	4.68
478.268	4.93
478.469	4.73
478.671	5.02
478.873	5.41
479.075	5.33
479.276	5.09
479.478	4.55
479.68	4.33
479.882	4.25
480.083	5.02
480.285	4.83
480.487	4.96
480.688	4.84
480.89	4.57
481.091	4.52
481.293	4.56
481.495	4.77
481.696	5.01
481.898	5.24
482.099	5.42
482.301	5.2
482.502	5.29
482.704	5.16
482.905	5.3
483.107	5.33
483.308	5.31
483.51	5.46
483.711	5.37
483.913	5.4
484.114	5.25
484.315	5.29
484.517	5.5
484.718	5.49
484.92	5.64
485.121	5.58
485.322	5.73
485.524	5.81
485.725	5.79
485.926	5.78
486.127	5.61
486.329	5.71
486.53	5.58
486.731	5.14
486.932	4.99
487.134	4.92
487.335	4.86
487.536	4.87
487.737	4.85
487.938	4.62
488.139	4.6
488.341	4.68
488.542	4.53
488.743	4.59
488.944	4.93
489.145	5.22
489.346	5.02
489.547	5.2
489.748	4.89
489.949	4.7
490.15	5.02
490.351	5.11
490.552	5.18
490.753	5.39
490.954	5.36
491.155	5.25
491.356	5.21
491.557	5.42
491.758	5.3
491.959	5.35
492.159	5.58
492.36	5.25
492.561	5.06
492.762	4.99
492.963	4.86
493.164	4.93
493.364	5.09
493.565	5.09
493.766	5.37
493.967	5.57
494.167	5.5
494.368	5.34
494.569	5.46
494.769	5.14
494.97	5.47
495.171	5.41
495.371	5.54
495.572	5.38
495.773	5.42
495.973	4.77
496.174	4.59
496.375	4.74
496.575	4.78
496.776	4.61
496.976	4.66
497.177	4.26
497.377	4.26
497.578	3.59
497.778	3.51
497.979	3.63
498.179	3.79
498.38	4.1
498.58	3.51
498.78	3.61
498.981	3.82
499.181	4.05
499.382	3.82
499.582	3.86
499.782	4.68
499.983	4.99
500.183	4.6
500.383	4.64
500.584	3.73
500.784	4.29
500.984	3.6
501.184	3.7
501.385	3.87
501.585	4.21
501.785	4.53
501.985	3.63
502.185	3.38
502.386	3.92
502.586	4.05
502.786	4.5
502.986	4.64
503.186	5.14
503.386	5.82
503.586	5.75
503.786	5.8
503.987	5.49
504.187	5.75
504.387	5.91
504.587	5.52
504.787	5.71
504.987	5.92
505.187	5.79
505.387	5.71
505.587	5.19
505.786	5.31
505.986	5.77
506.186	5.7
506.386	5.93
506.586	5.86
506.786	5.79
506.986	5.73
507.186	5.95
507.386	5.97
507.585	6.13
507.785	5.94
507.985	5.76
508.185	5.43
508.384	5.74
508.584	6.03
508.784	6.06
508.984	6.55
509.183	6.3
509.383	6.09
509.583	6.21
509.782	6.24
509.982	6.26
510.182	6.3
510.381	6.42
510.581	6.52
510.781	6.28
510.98	6.42
511.18	6.17
511.379	6.42
511.579	6.88
511.778	7.35
511.978	7.23
512.177	7.4
512.377	7.66
512.576	7.32
512.776	7.39
512.975	8.01
513.175	7.75
513.374	7.48
513.573	7.97
513.773	7.52
513.972	7.28
514.172	7.66
514.371	7.46
514.57	7.41
514.77	7.46
514.969	7.16
515.168	6.7
515.367	6.82
515.567	7.47
515.766	7
515.965	7.58
516.164	7.31
516.364	6.94
516.563	7.51
516.762	7.77
516.961	8.32
517.16	8.4
517.359	8.55
517.559	8.78
517.758	8.45
517.957	8.8
518.156	8.48
518.355	8.73
518.554	8.98
518.753	8.85
518.952	8.85
519.151	8.43
519.35	8.45
519.549	8.2
519.748	8.48
519.947	8.73
520.146	8.72
520.345	8.7
520.544	8.69
520.743	8.49
520.942	8.61
521.141	8.4
521.339	9.19
521.538	9.38
521.737	9.71
521.936	9.2
522.135	9.58
522.333	9.38
522.532	9.65
522.731	9.45
522.93	9.66
523.129	9.63
523.327	9.93
523.526	9.9
523.725	10.18
523.923	10.53
524.122	10.74
524.321	10.52
524.519	10.72
524.718	10.83
524.917	11.25
525.115	11.37
525.314	11.47
525.512	11.48
525.711	11.7
525.909	11.65
526.108	11.57
526.306	11.67
526.505	11.74
526.703	11.56
526.902	11.68
527.1	11.77
527.299	11.85
527.497	12.02
527.696	12.11
527.894	12.04
528.092	12.12
528.291	12.14
528.489	11.98
528.688	12.03
528.886	12.14
529.084	12.1
529.283	12.03
529.481	11.98
529.679	11.98
529.877	11.88
530.076	11.66
530.274	11.56
530.472	11.75
530.67	12.12
530.869	12.12
531.067	12.35
531.265	12.58
531.463	12.36
531.661	12.72
531.859	12.91
532.057	13.26
532.255	13.3
532.454	13.18
532.652	13.22
532.85	13.4
533.048	13.47
533.246	13.62
533.444	13.49
533.642	13.95
533.84	13.95
534.038	13.75
534.236	13.66
534.434	14.06
534.632	14.58
534.83	14.51
535.027	14.36
535.225	14.32
535.423	14.27
535.621	14.26
535.819	14.16
536.017	13.77
536.215	13.74
536.412	13.66
536.61	13.7
536.808	13.6
537.006	13.46
537.203	13.35
537.401	13.61
537.599	13.7
537.797	14.07
537.994	13.93
538.192	14.36
538.39	14.48
538.587	14.56
538.785	14.59
538.983	14.67
539.18	14.76
539.378	15.13
539.575	15.16
539.773	15.33
539.97	15.44
540.168	15.61
540.366	15.57
540.563	15.68
540.761	15.72
540.958	15.59
541.155	15.67
541.353	15.9
541.55	15.95
541.748	15.92
541.945	15.79
542.143	15.76
542.34	15.85
542.537	15.77
542.735	15.83
542.932	15.7
543.129	15.81
543.327	15.71
543.524	15.75
543.721	15.45
543.919	15.18
544.116	15.15
544.313	15
544.51	15.03
544.708	15
544.905	15.17
545.102	15.57
545.299	15.58
545.496	15.66
545.693	15.85
545.891	16.28
546.088	16.49
546.285	16.58
546.482	16.8
546.679	16.72
546.876	17.16
547.073	17.18
547.27	17.1
547.467	17.14
547.664	17.05
547.861	16.5
548.058	16.38
548.255	16.61
548.452	16.52
548.649	16.73
548.846	16.52
549.043	16.23
549.24	16.33
549.437	16.35
549.633	16.16
549.83	16.39
550.027	16.33
550.224	16.22
550.421	15.85
550.618	16.08
550.814	15.52
551.011	16.52
551.208	16.98
551.405	16.94
551.601	16.9
551.798	17.04
551.995	16.9
552.191	17.73
552.388	17.9
552.585	18.17
552.781	18.33
552.978	18.64
553.175	17.91
553.371	17.92
553.568	17.25
553.764	17.29
553.961	17.35
554.157	17.23
554.354	16.08
554.55	15.72
554.747	15.66
554.943	15.3
555.14	15.13
555.336	15.29
555.533	15.37
555.729	16.22
555.926	16.25
556.122	16.57
556.318	16.74
556.515	17.84
556.711	18.53
556.907	18.83
557.104	19.13
557.3	18.86
557.496	19.64
557.693	19.39
557.889	19.4
558.085	19.44
558.281	19.5
558.478	19.68
558.674	19.79
558.87	19.63
559.066	19.6
559.262	19.85
559.459	20.14
559.655	19.89
559.851	20.26
560.047	20.3
560.243	20.28
560.439	20.3
560.635	20.17
560.831	20.2
561.027	20.14
561.223	20.02
561.419	19.65
561.615	20.11
561.811	19.65
562.007	19.36
562.203	19.39
562.399	19.48
562.595	19.6
562.791	19.76
562.987	19.41
563.183	19.48
563.379	19.84
563.575	20.3
563.771	20.21
563.966	20.37
564.162	19.99
564.358	19.86
564.554	19.73
564.75	19.35
564.945	19.33
565.141	19.39
565.337	18.97
565.533	18.93
565.728	18.83
565.924	18.82
566.12	18.68
566.315	19.13
566.511	19.22
566.707	19.4
566.902	19.2
567.098	19.35
567.293	19.42
567.489	19.84
567.684	19.61
567.88	19.57
568.076	19.27
568.271	19.66
568.467	19.72
568.662	19.01
568.858	19.64
569.053	19.42
569.248	19.33
569.444	19.83
569.639	19.23
569.835	19.29
570.03	19.58
570.225	19.77
570.421	19.54
570.616	20
570.812	20.77
571.007	20.59
571.202	21.01
571.397	21.1
571.593	20.77
571.788	21.04
571.983	21.01
572.178	20.92
572.374	21.1
572.569	21.07
572.764	21
572.959	20.93
573.154	20.83
573.35	21.15
573.545	21.09
573.74	20.7
573.935	21.31
574.13	21.44
574.325	21.34
574.52	21.36
574.715	21.4
574.91	20.84
575.105	20.81
575.3	20.83
575.495	20.7
575.69	20.68
575.885	20.65
576.08	20.6
576.275	21.05
576.47	21.02
576.665	20.67
576.86	21.2
577.055	21.1
577.25	21.46
577.444	21.39
577.639	21.45
577.834	21.49
578.029	21.59
578.224	22.05
578.418	22.21
578.613	22.3
578.808	22.2
579.003	21.69
579.197	21.78
579.392	21.55
579.587	21.24
579.781	21.78
579.976	22.11
580.171	22.82
580.365	22.31
580.56	21.74
580.755	21.35
580.949	22.14
581.144	22.26
581.338	23.07
581.533	23.09
581.727	23.53
581.922	22.77
582.116	22.77
582.311	22.16
582.505	22.27
582.7	21.19
582.894	21.69
583.089	21.41
583.283	21.93
583.478	21.04
583.672	19.63
583.866	19.58
584.061	20.04
584.255	19.99
584.449	20.9
584.644	20.96
584.838	22.42
585.032	22.82
585.226	23.53
585.421	22.92
585.615	24.03
585.809	25.74
586.003	25.53
586.198	25.85
586.392	25.85
586.586	25.87
586.78	25.04
586.974	25.29
587.168	24.5
587.363	23.76
587.557	24.31
587.751	23.58
587.945	23.76
588.139	23.84
588.333	23.1
588.527	22.7
588.721	22.51
588.915	22.45
589.109	22.18
589.303	22.68
589.497	23.31
589.691	23.45
589.885	24.15
590.079	23.27
590.273	23.05
590.466	23.13
590.66	24.34
590.854	23.56
591.048	24.05
591.242	23.65
591.436	23.32
591.629	22.42
591.823	21.56
592.017	21.48
592.211	21.82
592.404	21.91
592.598	22.13
592.792	20.87
592.986	21.58
593.179	21.79
593.373	22.04
593.567	22.07
593.76	22.23
593.954	23.27
594.147	23.31
594.341	23.64
594.535	24.18
594.728	24.5
594.922	24.73
595.115	24.42
595.309	24.44
595.502	24.48
595.696	25.13
595.889	25.06
596.083	24.59
596.276	24.75
596.47	24.79
596.663	25
596.856	24.85
597.05	24.73
597.243	25.2
597.437	25.38
597.63	25.51
597.823	25.13
598.017	25.43
598.21	25.9
598.403	24.9
598.596	24.91
598.79	24.45
598.983	24.5
599.176	25.25
599.369	24.18
599.563	24.34
599.756	23.97
599.949	23.79
600.142	23.82
600.335	23.46
600.528	24.25
600.722	23.32
600.915	23.27
601.108	23.15
601.301	23.39
601.494	24.4
601.687	24.31
601.88	24.89
602.073	25.23
602.266	25.38
602.459	24.59
602.652	24.49
602.845	24.53
603.038	23.34
603.231	23.16
603.424	22.67
603.617	22.85
603.809	22.72
604.002	23.01
604.195	23.04
604.388	22.96
604.581	23.03
604.774	23.65
604.966	24.09
605.159	25.29
605.352	25.64
605.545	26.3
605.737	26.21
605.93	26.26
606.123	25.37
606.316	25.41
606.508	25.48
606.701	26.27
606.894	25.46
607.086	25.59
607.279	25.36
607.471	25.48
607.664	24.48
607.857	24.38
608.049	24.56
608.242	24.79
608.434	24.27
608.627	24.21
608.819	24.26
609.012	24.41
609.204	24.47
609.397	24.68
609.589	25.27
609.782	25.43
609.974	25.09
610.166	25.11
610.359	25.1
610.551	25.09
610.743	24.79
610.936	24.7
611.128	24.58
611.32	24.87
611.513	25.28
611.705	23.86
611.897	23.69
612.09	24
612.282	23.39
612.474	24.17
612.666	25.65
612.858	25.25
613.051	25.59
613.243	25.23
613.435	25.14
613.627	24.99
613.819	25.03
614.011	25.42
614.203	25.32
614.395	25.59
614.588	25.53
614.78	24.46
614.972	25.66
615.164	25
615.356	25.5
615.548	25.1
615.74	24.55
615.932	24.84
616.124	24.55
616.315	24.94
616.507	25.29
616.699	24.28
616.891	24.13
617.083	23.81
617.275	24.14
617.467	24.09
617.659	24.08
617.85	24.88
618.042	25.9
618.234	25.91
618.426	25.52
618.618	26.24
618.809	26.66
619.001	25.96
619.193	25.99
619.384	26.25
619.576	26.33
619.768	25.79
619.959	25.24
620.151	24.8
620.343	24.47
620.534	24.21
620.726	23.55
620.917	23.17
621.109	23.47
621.301	23.52
621.492	23.47
621.684	23.28
621.875	23.95
622.067	24.23
622.258	24.63
622.45	25.82
622.641	25.66
622.832	25.32
623.024	26.8
623.215	27.02
623.407	26.17
623.598	26.25
623.789	26.83
623.981	28
624.172	27.53
624.363	27.12
624.555	27.1
624.746	26.84
624.937	26.69
625.129	26.59
625.32	27.09
625.511	27.9
625.702	27.5
625.893	27.8
626.085	26.99
626.276	27.25
626.467	27.12
626.658	26.54
626.849	27.14
627.04	27.69
627.231	26.66
627.422	26.52
627.614	25.76
627.805	25.61
627.996	24.71
628.187	24.54
628.378	24.09
628.569	23.56
628.76	23.8
628.951	22.82
629.142	22.5
629.332	23.04
629.523	23.75
629.714	23.99
629.905	24.43
630.096	23.94
630.287	24.04
630.478	24.79
630.669	25.62
630.859	25.66
631.05	26.43
631.241	26.25
631.432	26
631.623	25.16
631.813	24.53
632.004	24.92
632.195	24.88
632.385	25.16
632.576	24.73
632.767	24.62
632.957	24.53
633.148	24.54
633.339	24.21
633.529	24.91
633.72	24.97
633.91	26.13
634.101	25.14
634.292	26.24
634.482	25.59
634.673	25.83
634.863	25.29
635.054	25.45
635.244	25.51
635.435	25.76
635.625	24.7
635.815	25.49
636.006	25.51
636.196	25.04
636.387	23.57
636.577	23.75
636.767	22.8
636.958	22.93
637.148	22.74
637.338	23.33
637.529	23.89
637.719	24.77
637.909	24.23
638.099	24.09
638.29	26.3
638.48	27.36
638.67	28.08
638.86	29.63
639.05	29.4
639.241	29.26
639.431	28.84
639.621	28.95
639.811	29.22
640.001	29.16
640.191	28.98
640.381	27.89
640.571	27.04
640.761	26.24
640.951	24.95
641.141	25.24
641.331	24.85
641.521	24.4
641.711	23.07
641.901	23.07
642.091	21.58
642.281	21.85
642.471	21.54
642.661	22.52
642.851	22.08
643.041	22.33
643.231	22.55
643.42	22.99
643.61	23.31
643.8	24.89
643.99	24.16
644.18	26.23
644.369	25.99
644.559	26.15
644.749	25.87
644.939	25.52
645.128	26.3
645.318	26.46
645.508	27.82
645.697	28.58
645.887	27.72
646.076	27.29
646.266	25.93
646.456	25.99
646.645	26.74
646.835	26.92
647.024	28.72
647.214	28.8
647.403	28.7
647.593	27.05
647.782	26.53
647.972	26.74
648.161	26.87
648.351	27.09
648.54	28.01
648.73	27.88
648.919	28.15
649.108	27.02
649.298	26.83
649.487	26.24
649.677	27.47
649.866	26.87
650.055	26.58
650.244	27.23
650.434	28.24
650.623	27.78
650.812	28.12
651.002	27.05
651.191	26.98
651.38	26.27
651.569	27.19
651.758	27.49
651.947	28.01
652.137	28.18
652.326	27.09
652.515	26.78
652.704	25.86
652.893	24.38
653.082	24.52
653.271	24.11
653.46	24.94
653.649	24.95
653.838	24.17
654.027	23.8
654.216	23.94
654.405	24.42
654.594	24.33
654.783	25.33
654.972	25.96
655.161	27.05
655.35	27.98
655.539	27.26
655.728	26.37
655.916	25.95
656.105	25.79
656.294	25.77
656.483	24.99
656.672	25.18
656.86	24.35
657.049	24.99
657.238	25.39
657.427	25.09
657.615	25.92
657.804	26.37
657.993	26.37
658.181	28.1
658.37	27.7
658.559	28.47
658.747	28.07
658.936	28.54
659.125	28.68
659.313	28.29
659.502	28.5
659.69	27.79
659.879	27.79
660.067	28.12
660.256	26.35
660.444	27.31
660.633	27.07
660.821	27.43
661.01	27.51
661.198	26.47
661.387	25.44
661.575	25.62
661.763	26.19
661.952	26.01
662.14	26.83
662.328	26.77
662.517	26.26
662.705	27.77
662.893	27.16
663.082	27
663.27	27.91
663.458	28.79
663.646	28.88
663.834	29.43
664.023	30.45
664.211	28.3
664.399	28.33
664.587	28.23
664.775	27.21
664.963	27.61
665.152	27.56
665.34	26.92
665.528	26.9
665.716	25.81
665.904	24.9
666.092	23.55
666.28	24.56
666.468	25.21
666.656	24.14
666.844	24.06
667.032	25.06
667.22	24.77
667.408	24.51
667.596	25.2
667.784	24.38
667.971	24.54
668.159	24.46
668.347	24.69
668.535	24.3
668.723	25.55
668.911	26
669.098	24.62
669.286	24.99
669.474	25.34
669.662	25.74
669.849	26.8
670.037	27.55
670.225	26.91
670.413	26.37
670.6	26.14
670.788	25.87
670.976	24.02
671.163	23.35
671.351	23.43
671.538	23.47
671.726	23.37
671.913	23.61
672.101	22.64
672.289	23.64
672.476	24.17
672.664	23.89
672.851	24.72
673.039	26.78
673.226	28.63
673.413	28.44
673.601	27.8
673.788	25.67
673.976	25.79
674.163	26.64
674.35	27.24
674.538	26.37
674.725	27.86
674.912	26.8
675.1	26.37
675.287	25.59
675.474	25.4
675.662	25.29
675.849	26.36
676.036	26.07
676.223	25.82
676.411	26.27
676.598	25.92
676.785	24.57
676.972	24.8
677.159	24.61
677.346	24.61
677.533	24.99
677.721	25.57
677.908	25.67
678.095	25.84
678.282	24.79
678.469	23.65
678.656	24.99
678.843	26.28
679.03	26.14
679.217	26.57
679.404	27.21
679.591	27.31
679.778	27.88
679.964	26.88
680.151	26.34
680.338	26.77
680.525	27.32
680.712	27.03
680.899	26.2
681.086	26.16
681.272	25.44
681.459	24.85
681.646	24.82
681.833	22.66
682.02	23.43
682.206	25.07
682.393	25.23
682.58	25.95
682.766	25.94
682.953	26.08
683.14	27.07
683.326	26.37
683.513	25.15
683.7	25.26
683.886	26.41
684.073	26.29
684.259	26.2
684.446	26.03
684.632	24.54
684.819	25.17
685.005	24.82
685.192	24.29
685.378	25.06
685.565	25.04
685.751	24.75
685.938	25.31
686.124	24.87
686.31	24.75
686.497	25.97
686.683	25.82
686.87	25.35
687.056	25.32
687.242	24.93
687.429	25.46
687.615	27.16
687.801	26.56
687.987	27.43
688.174	29.22
688.36	28.78
688.546	26.41
688.732	26.7
688.918	27.33
689.105	28.84
689.291	30.08
689.477	29.39
689.663	28.72
689.849	27.87
690.035	26.27
690.221	25.7
690.407	23.95
690.593	24.97
690.779	24.43
690.965	23.39
691.151	23.58
691.337	24.01
691.523	24.98
691.709	24.88
691.895	27.14
692.081	26.81
692.267	27.34
692.453	29.03
692.639	28.91
692.825	30.78
693.011	30.54
693.196	28.73
693.382	27.53
693.568	28.02
693.754	28.41
693.94	26.89
694.125	26.5
694.311	25.55
694.497	25.08
694.682	25.29
694.868	23.39
695.054	23.37
695.239	22.75
695.425	22.27
695.611	22.18
695.796	20.19
695.982	21.56
696.168	24.47
696.353	24.46
696.539	24.39
696.724	24.38
696.91	23.76
697.095	24.3
697.281	24.37
697.466	24.08
697.652	23.99
697.837	26.19
698.023	25.75
698.208	24.85
698.393	24.66
698.579	25.07
698.764	24.3
698.949	25.06
699.135	24.1
699.32	24.73
699.505	24.97
699.691	24.54
699.876	21.56
700.061	21.48
700.246	19.58
700.432	19.75
700.617	18.79
700.802	20.53
700.987	21.72
701.172	23.72
701.358	25.14
701.543	25.89
701.728	25.61
701.913	27.48
702.098	26.25
702.283	27.31
702.468	27.66
702.653	27.21
702.838	27.74
703.023	25.29
703.208	22.92
703.393	21.96
703.578	23.05
703.763	22.77
703.948	23.12
704.133	24.09
704.318	24.55
704.503	25.15
704.688	25.56
704.873	23.86
705.057	24.58
705.242	25.22
705.427	25.77
705.612	24.03
705.797	22.73
705.981	24.04
706.166	24.73
706.351	23.84
706.536	22.78
706.72	21.91
706.905	23.28
707.09	25.37
707.274	26.46
707.459	25.33
707.644	26.05
707.828	28.02
708.013	27.37
708.197	27.51
708.382	29
708.567	29.2
708.751	28.56
708.936	27.51
709.12	26.47
709.305	25.24
709.489	27.64
709.673	27.56
709.858	27.29
710.042	27.01
710.227	26.41
710.411	24.57
710.596	23.7
710.78	26.12
710.964	27
711.149	26.04
711.333	27.33
711.517	24.56
711.702	24.76
711.886	25.81
712.07	26.2
712.254	26.2
712.438	27.59
712.623	27.17
712.807	26.27
712.991	25.53
713.175	25.67
713.359	24.66
713.544	24.02
713.728	23.13
713.912	22.21
714.096	23.3
714.28	22.44
714.464	22.78
714.648	23.63
714.832	22.65
715.016	23.19
715.2	23.83
715.384	26.11
715.568	28.01
715.752	27.71
715.936	27.16
716.12	28.34
716.304	30.64
716.488	30.84
716.671	29.57
716.855	30.67
717.039	29.39
717.223	29.76
717.407	26.57
717.59	24.17
717.774	25
717.958	23.62
718.142	20.58
718.325	19.85
718.509	18.8
718.693	19.9
718.877	18.15
719.06	20.45
719.244	20.3
719.428	21.92
719.611	23.49
719.795	22.4
719.978	24.09
720.162	24.08
720.345	22.82
720.529	23.4
720.713	22.41
720.896	23.99
721.08	23.86
721.263	22.12
721.446	19.99
721.63	22.44
721.813	24.07
721.997	23.37
722.18	23.88
722.364	23.36
722.547	24.18
722.73	23.58
722.914	24.74
723.097	23.19
723.28	23.35
723.464	27.73
723.647	27.75
723.83	26.34
724.013	27.78
724.197	26.54
724.38	26.46
724.563	22.96
724.746	24.87
724.929	23.67
725.112	23.49
725.296	25.28
725.479	21.39
725.662	19.46
725.845	20.38
726.028	18.07
726.211	20.89
726.394	21.25
726.577	22.56
726.76	24.34
726.943	25.38
727.126	26.3
727.309	27.42
727.492	25.16
727.675	24.54
727.858	24.64
728.041	26.57
728.224	24.5
728.407	26.11
728.589	30.24
728.772	29.34
728.955	28.15
729.138	29.56
729.321	26.52
729.503	28.04
729.686	27.9
729.869	27.35
730.052	27.42
730.234	26.46
730.417	26.47
730.6	22.76
730.782	22.54
730.965	22.87
731.148	19.84
731.33	21.49
731.513	23.24
731.695	23.13
731.878	22.51
732.061	21.41
732.243	21.33
732.426	18.75
732.608	21.8
732.791	18.71
732.973	18.7
733.156	21.35
733.338	20.06
733.52	19.09
733.703	19.06
733.885	19.16
734.068	18.6
734.25	18.98
734.432	22.12
734.615	18.73
734.797	25.02
734.979	25.16
735.162	24.67
735.344	26.01
735.526	27.42
735.708	27.54
735.891	28.47
736.073	29.27
736.255	28.21
736.437	25.61
736.619	26.29
736.802	21.96
736.984	23.6
737.166	23.36
737.348	22.7
737.53	23.03
737.712	23.67
737.894	24.72
738.076	25.47
738.258	28.28
738.44	28.36
738.622	26.76
738.804	27.19
738.986	25.01
739.168	23.07
739.35	22.96
739.532	20.63
739.714	20.65
739.896	18.26
740.078	16.69
740.259	15.84
740.441	16.07
740.623	16.84
740.805	19.54
740.987	18.78
741.168	18.5
741.35	17.04
741.532	17.03
741.714	16.44
741.895	16.92
742.077	16.12
742.259	15.81
742.44	19.81
742.622	20.25
742.804	16.25
742.985	16.75
743.167	18.05
743.348	21.61
743.53	22.75
743.711	20.71
743.893	24.17
744.075	24.67
744.256	23.22
744.438	20.95
744.619	23.47
744.8	21.88
744.982	19.91
745.163	21.04
745.345	18.53
745.526	18.81
745.707	19.16
745.889	16.33
746.07	21.28
746.252	21.63
746.433	22.63
746.614	19.49
746.795	22.79
746.977	25.02
747.158	26.31
747.339	27.43
747.52	27.68
747.702	28.72
747.883	29.61
748.064	25.21
748.245	24.97
748.426	21.57
748.607	21.84
748.788	21.06
748.97	20.66
749.151	17.92
749.332	17.73
749.513	17.14
749.694	16.68
749.875	17.2
750.056	20.29
750.237	22.07
750.418	23.98
750.599	24.14
750.78	25.22
750.96	27.25
751.141	25.73
751.322	23.42
751.503	23.66
751.684	22.15
751.865	18.95
752.046	20.23
752.226	17.47
752.407	16.55
752.588	16.38
752.769	15.65
752.949	15.32
753.13	21.01
753.311	24.64
753.492	23.3
753.672	27.2
753.853	27.1
754.034	25.19
754.214	28.14
754.395	29.7
754.575	32.91
754.756	29.91
754.937	31.05
755.117	28.81
755.298	25.96
755.478	28.27
755.659	27.64
755.839	28.42
756.02	28.65
756.2	22.75
756.381	22.53
756.561	18.59
756.741	24.11
756.922	24.41
757.102	20.15
757.283	20.21
757.463	20.54
757.643	15.48
757.823	14.79
758.004	14.27
758.184	16.37
758.364	17.06
758.545	19.77
758.725	22.44
758.905	21.7
759.085	27.7
759.265	26.09
759.446	25.27
759.626	29.54
759.806	28.67
759.986	30.14
760.166	30.96
760.346	28.23
760.526	28.37
760.706	29.02
760.886	29.12
761.066	26.34
761.246	29.78
761.426	32.68
761.606	29.79
761.786	32.91
761.966	31.72
762.146	34.39
762.326	36.36
762.506	36.1
762.686	33.11
762.866	31.98
763.046	31.41
763.225	29.13
763.405	25.29
763.585	28.58
763.765	27.75
763.945	29.35
764.124	27.13
764.304	25.4
764.484	27.65
764.664	29.01
764.843	30
765.023	30.14
765.203	30
765.382	29.7
765.562	27.26
765.741	27.54
765.921	23.96
766.101	23.94
766.28	25.34
766.46	20.85
766.639	20.25
766.819	18.55
766.998	18.92
767.178	17.72
767.357	20.12
767.537	16.12
767.716	12.57
767.896	13.98
768.075	14.22
768.254	11.98
768.434	14.15
768.613	12.33
768.792	12.37
768.972	14.78
769.151	21.56
769.33	20.68
769.51	25.6
769.689	29.43
769.868	34.07
770.047	35.07
770.226	37.26
770.406	37.77
770.585	40.04
770.764	40.87
770.943	39.91
771.122	35.02
771.301	34.6
771.48	32.1
771.66	28.21
771.839	25.07
772.018	26.69
772.197	27.99
772.376	25.6
772.555	21.8
772.734	19.78
772.913	20.5
773.092	19.66
773.271	22.15
773.449	23.78
773.628	25.55
773.807	21.5
773.986	16.52
774.165	13.99
774.344	13.58
774.523	9.14
774.701	10.63
774.88	5.81
775.059	4.71
775.238	2.73
775.417	6.39
775.595	5.21
775.774	6.17
775.953	11.39
776.131	11.46
776.31	12.2
776.489	10.67
776.667	8.97
776.846	13.7
777.025	19.61
777.203	25.99
777.382	21.14
777.56	24
777.739	24.04
777.917	19.63
778.096	18.3
778.274	17.77
778.453	22.63
778.631	25.31
778.81	22.69
778.988	17.98
779.166	10.91
779.345	11.33
779.523	11.71
779.702	13.58
779.88	16.81
780.058	19.78
780.237	21.94
780.415	26.83
780.593	23.78
780.771	24.36
780.95	27
781.128	30.93
781.306	31.32
781.484	30.02
781.662	23.28
781.841	22.23
782.019	23.08
782.197	22.74
782.375	24.24
782.553	22.95
782.731	25.37
782.909	23.15
783.087	15.98
783.265	12
783.443	8.69
783.621	11.8
783.799	11.93
783.977	7.33
784.155	7.36
784.333	4.07
784.511	12.78
784.689	10.82
784.867	15.28
785.045	20.94
785.223	22.08
785.4	24.12
785.578	26.75
785.756	27.01
785.934	30.72
786.112	30.89
786.289	30.99
786.467	24.33
786.645	24.58
786.823	20.85
787	23.79
787.178	25.5
787.356	25.06
787.533	23.62
787.711	21.12
787.889	16.12
788.066	16.99
788.244	16.06
788.421	16.27
788.599	16.08
788.776	18.06
788.954	13.82
789.131	11.89
789.309	12.67
789.486	19.1
789.664	19.95
789.841	28.11
790.019	26.81
790.196	25.99
790.373	29.89
790.551	38.03
790.728	38.92
790.906	40.62
791.083	47.26
791.26	46.02
791.437	41.5
791.615	42.47
791.792	35.12
791.969	35.7
792.146	37.48
792.324	37.71
792.501	33.44
792.678	34.41
792.855	31.86
793.032	22.52
793.209	17.96
793.387	10.4
793.564	12.19
793.741	9.53
793.918	5.27
794.095	6.03
794.272	7.48
794.449	6.74
794.626	2.97
794.803	11.19
794.98	13.76
795.157	18.13
795.334	25.4
795.511	23.41
795.688	28.25
795.864	28.96
796.041	29.65
796.218	25.76
796.395	13.52
796.572	11.91
796.749	0.95
796.925	2.84
797.102	1.31
797.279	7
797.456	5.48
797.632	4.48
797.809	3.81
797.986	3.49
798.162	5.29
798.339	11.09
798.516	14.13
798.692	20.18
798.869	19.71
799.046	25.64
799.222	24.96
799.399	21.43
799.575	25.72
799.752	29.27
799.928	32.33
800.105	28.94
800.281	32.75
800.458	28.02
800.634	32.6
800.811	32.3
800.987	29.3
801.163	17.47
801.34	21.12
801.516	15.58
801.692	13.04
801.869	13.72
802.045	23.39
802.221	21.54
802.398	28.7
802.574	25.04
802.75	22.51
802.926	22.55
803.103	32.2
803.279	25.03
803.455	24.63
803.631	28.13
803.807	13.34
803.983	9.13
804.16	8.99
804.336	2.95
804.512	-2.68
804.688	-2.91
804.864	1.88
805.04	-0.65
805.216	5.48
805.392	20.65
805.568	18.31
805.744	42.47
805.92	43.54
806.096	40.46
806.272	46.61
806.448	51.42
806.623	52.09
806.799	46.79
806.975	42.5
807.151	46.32
807.327	36.45
807.503	35.2
807.678	24.25
807.854	21.51
808.03	19.17
808.206	12.24
808.381	12.53
808.557	15.12
808.733	12.38
808.908	4.74
809.084	7.59
809.26	0.41
809.435	-0.97
809.611	-7.75
809.787	-13.61
809.962	-9.23
810.138	-8.15
810.313	-4.8
810.489	-7.04
810.664	1.72
810.84	10.1
811.015	10.36
811.191	7.6
811.366	7.01
811.542	14.45
811.717	22.63
811.892	18.51
812.068	16.79
812.243	12.87
812.419	18.86
812.594	13.93
812.769	12.88
812.944	6.52
813.12	16.4
813.295	19.73
813.47	7.65
813.645	8.68
813.821	7.19
813.996	11.9
814.171	17.5
814.346	17.13
814.521	26.05
814.697	21.57
814.872	28.83
815.047	22.49
815.222	19.25
815.397	26.24
815.572	22.25
815.747	25.93
815.922	24.28
816.097	22.71
816.272	18.21
816.447	16.98
816.622	24.49
816.797	19.31
816.972	21.71
817.147	21.66
817.322	21.86
817.496	17.16
817.671	21.95
817.846	24.11
818.021	23.8
818.196	26.33
818.371	21.43
818.545	24.32
818.72	30.76
818.895	27.9
819.069	29
819.244	28.32
819.419	27.75
819.594	25.71
819.768	24.04
819.943	25.48
820.117	24.34
820.292	22.54
820.467	22.11
820.641	21.73
820.816	21.94
820.99	22.7
821.165	22.07
821.339	23.55
821.514	23.57
821.688	23.17
821.863	22.72
822.037	24.02
822.212	24.79
822.386	23.49
822.56	22.52
822.735	22.15
822.909	21.38
823.084	22.19
823.258	21.28
823.432	20.32
823.606	19.58
823.781	19.32
823.955	18.45
824.129	18.52
824.303	19
824.478	17.96
824.652	18.49
824.826	19.24
825	21.5
825.174	20.58
825.348	21.9
825.523	21.44
825.697	18.99
825.871	16.86
826.045	17.4
826.219	16.89
826.393	20.44
826.567	22.15
826.741	22.7
826.915	20.62
827.089	23.4
827.263	23.49
827.437	25.49
827.611	29.04
827.784	31.67
827.958	31.72
828.132	31.22
828.306	30.44
828.48	26.43
828.654	25.59
828.827	22.72
829.001	20.24
829.175	20.69
829.349	19.37
829.522	18.41
829.696	16.52
829.87	12.42
830.044	16.96
830.217	18.4
830.391	22.92
830.565	18.85
830.738	25.86
830.912	25.56
831.085	22.91
831.259	25.76
831.432	20.83
831.606	20.91
831.779	26.15
831.953	25.87
832.126	20.7
832.3	22.28
832.473	25.19
832.647	21.43
832.82	22.93
832.994	26.22
833.167	23.91
833.34	26.82
833.514	25.45
833.687	23.1
833.86	23.74
834.034	25.59
834.207	26.18
834.38	23.18
834.553	24.16
834.727	22.73
834.9	21.41
835.073	22.11
835.246	19.04
835.419	16.54
835.593	14.46
835.766	14.68
835.939	15.41
836.112	13.73
836.285	15.59
836.458	11.81
836.631	13.41
836.804	12
836.977	15.96
837.15	21.45
837.323	25.49
837.496	25.63
837.669	22.81
837.842	19.24
838.015	15.61
838.188	11.93
838.361	16.8
838.533	19.28
838.706	13.35
838.879	13.84
839.052	6.63
839.225	9.99
839.398	3.46
839.57	0.75
839.743	9.22
839.916	6.98
840.088	5.58
840.261	13.27
840.434	1.15
840.607	-1.9
840.779	-12.22
840.952	-6.5
841.124	-12.03
841.297	-4.23
841.47	-7.25
841.642	-33.01
841.815	-26.06
841.987	-13.19
842.16	-39.9
842.332	-18.49
842.505	-10.85
842.677	-13
842.85	-18.71
843.022	-10.48
843.194	-15.28
843.367	-16.52
843.539	12.16
843.712	-9.02
843.884	-38
844.056	-34.12
844.229	-72.12
844.401	-59.1
844.573	-43.32
844.745	-70.91
844.918	-155.42
845.09	-129.97
845.262	-263.74
845.434	-496.85
845.606	-115.96
845.779	-83.62
845.951	-169.96
846.123	-90.94
846.295	-99.18
846.467	-112.33
846.639	-50.81
846.811	8.57
846.983	-3.01
847.155	-5.18
847.327	16.27
847.499	3.16
847.671	-20.43
847.843	-0.21
848.015	-16.01
848.187	-13.15
848.359	-6.73
848.531	14.48
848.703	-62.4
848.875	-85.44
849.047	-24.55
849.218	-39.23
849.39	-98.83
849.562	-34.62
849.734	-29.63
849.905	-15.29
850.077	-11.98
850.249	-68.57
850.421	-47.28
850.592	-39.82
850.764	-10.67
850.936	-43.07
851.107	-74.18
851.279	-0.96
851.451	16.48
851.622	15.46
851.794	25.29
851.965	33.33
852.137	30.54
852.308	46.69
852.48	60.94
852.651	46.23
852.823	70.22
852.994	101.76
853.166	87.95
853.337	105.95
853.509	67.68
853.68	58.01
853.851	29.86
854.023	52.09
854.194	21.69
854.365	6.86
854.537	38.96
854.708	24.27
854.879	20.81
855.05	18.74
855.222	21.03
855.393	29.57
855.564	34.43
855.735	19.89
855.906	0.44
856.078	32.64
856.249	44.08
856.42	13.97
856.591	35.63
856.762	63.5
856.933	95.11
857.104	140.43
857.275	108.44
857.446	71.06
857.617	76.36
857.788	63.62
857.959	51.24
858.13	44.85
858.301	38.65
858.472	25.5
858.643	-30.02
858.814	-33.79
858.985	-48.31
859.155	-60.66
859.326	-66.07
859.497	-17.56
859.668	-9.75
859.839	-30.89
860.009	-41.78
860.18	-16.69
860.351	-0.48
860.522	12.95
860.692	14.2
860.863	7.4
861.034	19.33
861.204	23.44
861.375	2.03
861.546	-2.69
861.716	-13.84
861.887	3.96
862.057	-2.11
862.228	-22.8
862.398	-11.52
862.569	-35.14
862.739	-55.85
862.91	-79.93
863.08	-155.93
863.251	-118.34
863.421	-86.21
863.592	-49.84
863.762	-50.33
863.932	-45.8
864.103	-63.1
864.273	-125.39
864.443	-125.26
864.614	-84.68
864.784	-78.83
864.954	-160.74
865.125	-88.22
865.295	-137.54
865.465	-173.74
865.635	-212.93
865.805	-471.62
865.976	-584.62
866.146	-137.5
866.316	-33.99
866.486	4.12
866.656	27.52
866.826	33.59
866.996	29.95
867.166	36.82
867.336	45.04
867.506	57.28
867.676	65.51
867.846	52.65
868.016	49.65
868.186	41.72
868.356	36.98
868.526	39.05
868.696	39
868.866	52.78
869.036	55.85
869.206	34.01
869.376	-16.09
869.545	-1.61
869.715	-12.79
869.885	14.95
870.055	16.4
870.224	-67.58
870.394	-101.1
870.564	-42.33
870.734	-67.36
870.903	-83.81
871.073	-126.32
871.243	-2.93
871.412	-18.62
871.582	-35.46
871.751	-101.63
871.921	-99.5
872.091	-43.9
872.26	-42.18
872.43	-100.31
872.599	-61.44
872.769	-24.9
872.938	-12.13
873.108	-32.97
873.277	-114.09
873.446	-46.51
873.616	-54.99
873.785	-38.46
873.955	-8.26
874.124	-53.85
874.293	-10.39
874.463	-50.77
874.632	-27.83
874.801	-52.59
874.971	-36.87
875.14	-21.38
875.309	7.66
875.478	26.2
875.647	32.56
875.817	18.8
875.986	64.76
876.155	56.82
876.324	46.38
876.493	35.35
876.662	-5.48
876.831	-20
877	16.67
877.17	-170.83
877.339	-84.55
877.508	-141.5
877.677	-157.08
877.846	-225.12
878.015	-196.92
878.184	-36.44
878.352	-53.41
878.521	4.62
878.69	-30.09
878.859	-1.87
879.028	6.86
879.197	6.14
879.366	3.31
879.534	14.62
879.703	27.95
879.872	20.14
880.041	13.05
880.21	21.93
880.378	20.52
880.547	26.72
880.716	22.2
880.884	17.48
881.053	21.36
881.222	20.99
881.39	21.78
881.559	19.91
881.727	21.57
881.896	24.14
882.065	21.97
882.233	20.92
882.402	19.25
882.57	19.04
882.739	21.1
882.907	21.85
883.076	20.13
883.244	19.46
883.412	17.81
883.581	19.58
883.749	16.18
883.918	16.03
884.086	15.42
884.254	16.41
884.423	16.32
884.591	19.12
884.759	13.52
884.927	16.85
885.096	16.72
885.264	17.88
885.432	4.16
885.6	13.08
885.769	18.46
885.937	23.36
886.105	23.66
886.273	26.84
886.441	21.57
886.609	26.88
886.777	22.17
886.945	20.85
887.113	25.2
887.281	47.13
887.449	29.08
887.617	-2.63
887.785	-3.33
887.953	11.9
888.121	-31.26
888.289	-92.27
888.457	-89.93
888.625	-100
888.793	-77.2
888.961	-141.18
889.129	-121.57
889.296	-81.3
889.464	-81.6
889.632	-136.89
889.8	-162.98
889.967	-201.46
890.135	-16.06
