Data from JASIL_3237_Reflection_2.txt Node
Date: Mon Nov 16 20:20:59 EST 2015
User: Geneva
Spectrometer: USB4E03002
Autoset integration time: false
Trigger mode: 4
Integration Time (sec): 1.000000E-1
Scans to average: 10
Electric dark correction enabled: false
Nonlinearity correction enabled: false
Boxcar width: 5
Stray light correction enabled: false
XAxis mode: Wavelengths
Stop averaging: false
Number of Pixels in Spectrum: 3648
>>>>>Begin Spectral Data<<<<<
177.575	2086.27
177.794	3583.33
178.014	2206.82
178.233	1939.77
178.452	1349.29
178.672	2480.62
178.891	3141.54
179.11	2587.26
179.33	2905.71
179.549	1915.62
179.768	1981.82
179.987	1296.87
180.207	1021.63
180.426	1383.04
180.645	1565.99
180.864	1812.7
181.084	1210.67
181.303	1465.74
181.522	1751.08
181.741	1337.77
181.96	1101.75
182.179	1376.52
182.398	1807.69
182.618	7145.59
182.837	5987.65
183.056	5476.4
183.275	3144.37
183.494	6554.67
183.713	2675.27
183.932	1499.39
184.151	2230.66
184.37	2431.96
184.589	2149.77
184.808	2303.33
185.027	1408.02
185.246	1185.11
185.465	1232.43
185.684	2283.87
185.903	1601.86
186.122	1839.93
186.341	7862.5
186.56	3362.67
186.779	-6435.06
186.998	-4934.34
187.216	-2759.88
187.435	-11931.71
187.654	-6358.67
187.873	-8494.64
188.092	-13122.22
188.311	-46350
188.53	-4664.29
188.748	6520.27
188.967	-7901.64
189.186	6293.42
189.405	2901.18
189.623	2379.43
189.842	4673.33
190.061	7152.17
190.28	2920.48
190.498	3739.06
190.717	6780.88
190.936	4626.73
191.154	10739.53
191.373	5973.42
191.592	5216.67
191.81	6193.24
192.029	4952.17
192.248	-11048.72
192.466	-12817.65
192.685	-1856.33
192.904	-2696.08
193.122	-1904.65
193.341	-4537.78
193.559	-2601.95
193.778	-3500.88
193.996	7992.45
194.215	-9323.91
194.433	-2197.4
194.652	-2134.3
194.87	-2195.05
195.089	-4076.58
195.307	-2476.32
195.526	-3280.27
195.744	-2267.12
195.963	-1797.08
196.181	-1388.76
196.399	-850.18
196.618	-693.87
196.836	-1572.31
197.055	-1577.33
197.273	-81833.33
197.491	-15081.82
197.71	3621.01
197.928	12587.5
198.146	7774.6
198.365	3259.09
198.583	1784
198.801	1347.33
199.019	842.76
199.238	1116.63
199.456	1008.79
199.674	1477.48
199.892	1291.43
200.111	1411.6
200.329	1054.65
200.547	1404.33
200.765	2218
200.983	15217.24
201.202	-4310.58
201.42	-3803.17
201.638	-7880.33
201.856	18946.15
202.074	4595.33
202.292	10684.78
202.51	-8386.21
202.728	8494.55
202.946	4343.93
203.165	2336.36
203.383	2188.46
203.601	1656.36
203.819	2977.03
204.037	6090.41
204.255	12973.53
204.473	-6950
204.691	-19095.45
204.909	-24464.71
205.127	-3541.67
205.345	10313.95
205.562	3042.57
205.78	1818.9
205.998	1450.47
206.216	1136.23
206.434	1354.24
206.652	1292.08
206.87	1550
207.088	1218.81
207.306	1731.29
207.523	2810.93
207.741	8840.35
207.959	32131.25
208.177	-14380.56
208.395	-3018.79
208.612	-4074.59
208.83	4283.48
209.048	4191.3
209.266	475700
209.483	-4543.69
209.701	23610
209.919	3736.51
210.136	1552.96
210.354	1076.26
210.572	832.81
210.79	659.89
211.007	630.69
211.225	777.93
211.442	810.88
211.66	620.98
211.878	662.65
212.095	660.24
212.313	650.54
212.53	890.48
212.748	1003.08
212.966	1282.53
213.183	1642.51
213.401	1526.5
213.618	1685.26
213.836	1417.2
214.053	1583.95
214.271	963.45
214.488	948.53
214.705	1076.11
214.923	843.77
215.14	1592.25
215.358	1159.9
215.575	1598.62
215.793	1494.65
216.01	899.06
216.227	1036.75
216.445	1050.53
216.662	1413.08
216.879	1516.13
217.097	936.25
217.314	934.1
217.531	752.95
217.749	829.2
217.966	743.2
218.183	824.83
218.4	1825.76
218.618	1397.71
218.835	1244.42
219.052	1127.94
219.269	1233.17
219.487	3244.59
219.704	4554.37
219.921	2433.5
220.138	2150.68
220.355	1264.34
220.572	2235.19
220.79	1398.85
221.007	1600.97
221.224	1613
221.441	2622.7
221.658	2227.93
221.875	2043.62
222.092	3194.84
222.309	81383.33
222.526	5077.78
222.743	11314.29
222.96	2591.3
223.177	933.02
223.394	914.53
223.611	836.66
223.828	836.91
224.045	666.62
224.262	531.24
224.479	516.61
224.696	458.53
224.913	445.83
225.13	465.12
225.347	371.37
225.564	432.26
225.781	359.06
225.997	350.22
226.214	274.85
226.431	255.84
226.648	234.3
226.865	215.27
227.082	194.27
227.298	173.92
227.515	150.59
227.732	144.58
227.949	132.08
228.165	123.67
228.382	115.91
228.599	114.07
228.816	114.17
229.032	119.28
229.249	115.99
229.466	115.9
229.682	120.97
229.899	131.5
230.116	141.7
230.332	150.18
230.549	157.24
230.765	168.67
230.982	178.38
231.199	194.66
231.415	197.72
231.632	199.62
231.848	200.41
232.065	214.59
232.281	209.99
232.498	206.55
232.714	228.63
232.931	236.48
233.147	226.78
233.364	226.64
233.58	217.7
233.797	203.35
234.013	192.11
234.23	195.25
234.446	186.1
234.662	192.63
234.879	192.93
235.095	168.46
235.312	167.04
235.528	174.76
235.744	178.78
235.961	182.61
236.177	192.9
236.393	200.48
236.61	198.91
236.826	197.7
237.042	210.98
237.258	202.66
237.475	232.95
237.691	229.46
237.907	220.23
238.123	210.51
238.339	200.59
238.556	193.6
238.772	193.81
238.988	188.09
239.204	173.97
239.42	151.81
239.636	148.91
239.853	133.1
240.069	124.22
240.285	113.96
240.501	110.38
240.717	103.42
240.933	92.88
241.149	86.3
241.365	81.05
241.581	78.3
241.797	74.57
242.013	72.22
242.229	72.57
242.445	72.27
242.661	72.52
242.877	73.53
243.093	72.62
243.309	77.67
243.525	80.43
243.741	83.45
243.957	85.13
244.173	85.95
244.388	83.47
244.604	80.54
244.82	75.6
245.036	72.57
245.252	65.28
245.468	62.86
245.683	58.36
245.899	53.85
246.115	50.36
246.331	48.7
246.547	46.04
246.762	45.63
246.978	44.94
247.194	45.29
247.409	45.29
247.625	46.48
247.841	48.4
248.057	49.93
248.272	51.93
248.488	56.46
248.703	58.42
248.919	62.72
249.135	66.33
249.35	69.83
249.566	74.49
249.782	80.59
249.997	84.12
250.213	83.48
250.428	84.42
250.644	84.62
250.859	81.58
251.075	82.01
251.29	83.55
251.506	84.09
251.721	82.73
251.937	82.77
252.152	80.59
252.368	79.98
252.583	83.61
252.798	85.31
253.014	88.17
253.229	90.74
253.445	92.63
253.66	97.28
253.875	100.06
254.091	104.63
254.306	106.48
254.521	111.14
254.737	122.09
254.952	122.32
255.167	126.15
255.383	128.22
255.598	131.89
255.813	130.05
256.028	122.5
256.244	116.74
256.459	111.33
256.674	103.67
256.889	96.62
257.104	84.15
257.32	78.23
257.535	70.39
257.75	64.34
257.965	59.13
258.18	55.15
258.395	51.09
258.61	48.41
258.826	45.25
259.041	43.12
259.256	41.44
259.471	40.22
259.686	38.38
259.901	39.24
260.116	38.95
260.331	39.07
260.546	39.85
260.761	42.29
260.976	43.45
261.191	46.1
261.406	47.89
261.621	51.12
261.836	54.07
262.05	59.08
262.265	59.7
262.48	62.07
262.695	65.81
262.91	68.92
263.125	70.67
263.34	73.44
263.555	74.32
263.769	75.81
263.984	74.94
264.199	75.71
264.414	72.26
264.629	72.28
264.843	74.35
265.058	72.82
265.273	68.08
265.488	63.9
265.702	61.57
265.917	62.99
266.132	62.57
266.346	63.14
266.561	62.75
266.776	63.7
266.99	63.57
267.205	61.89
267.42	59.71
267.634	60.57
267.849	59.85
268.063	60.15
268.278	57.52
268.492	57.63
268.707	55.13
268.922	55.04
269.136	52.23
269.351	50.9
269.565	49.14
269.78	48.56
269.994	48.73
270.209	49.08
270.423	49.05
270.637	49.38
270.852	47.85
271.066	46.62
271.281	46.05
271.495	47.59
271.709	46.79
271.924	47.46
272.138	48.94
272.353	48.42
272.567	49.33
272.781	49.27
272.996	48.71
273.21	51.65
273.424	54.09
273.638	54.52
273.853	55.05
274.067	57.61
274.281	57.59
274.495	58.15
274.71	58.23
274.924	58.33
275.138	56.6
275.352	59.58
275.566	58.3
275.781	58.96
275.995	58.22
276.209	59.1
276.423	58.64
276.637	60.89
276.851	58.61
277.065	59.48
277.279	59.39
277.493	60.81
277.707	57.85
277.921	56.23
278.135	55.34
278.349	57.03
278.563	56.92
278.777	56.57
278.991	54.27
279.205	55.17
279.419	54.83
279.633	56.31
279.847	55.31
280.061	55.24
280.275	54.64
280.489	54.55
280.703	51.46
280.917	50.43
281.131	49.02
281.344	49.73
281.558	48.69
281.772	48.48
281.986	47.06
282.2	47.23
282.414	46.14
282.627	45.32
282.841	44.99
283.055	45.54
283.269	45.01
283.482	46.16
283.696	43.95
283.91	43.27
284.123	42.2
284.337	40.81
284.551	39.51
284.764	39.72
284.978	39.39
285.192	38.66
285.405	38.94
285.619	38.81
285.833	37.46
286.046	38.13
286.26	39.22
286.473	38.78
286.687	39.58
286.9	39.08
287.114	39.56
287.327	40.38
287.541	39.95
287.754	40.14
287.968	40.47
288.181	40.46
288.395	40.52
288.608	40.59
288.822	41.17
289.035	40.77
289.248	42.11
289.462	42.46
289.675	41.61
289.889	42.39
290.102	41.9
290.315	41.66
290.529	42.44
290.742	42.58
290.955	43.07
291.169	43.7
291.382	44.92
291.595	46.6
291.808	45.59
292.022	46.18
292.235	46.45
292.448	46.03
292.661	44.72
292.875	43.85
293.088	43.89
293.301	43.07
293.514	42.52
293.727	41.13
293.94	39.24
294.153	39.91
294.367	39.39
294.58	38.63
294.793	38.23
295.006	39.12
295.219	37.99
295.432	37.51
295.645	36.06
295.858	35.66
296.071	35.15
296.284	34.03
296.497	33.19
296.71	32.79
296.923	32.83
297.136	32.92
297.349	31.85
297.562	31.97
297.775	32.1
297.988	32.92
298.201	32.97
298.414	33.83
298.626	34.5
298.839	34.19
299.052	36.14
299.265	37.9
299.478	37.63
299.691	39.57
299.903	40.32
300.116	41.18
300.329	41.75
300.542	41.85
300.755	42.08
300.967	43.25
301.18	43.38
301.393	42.08
301.605	40.32
301.818	41.64
302.031	40.96
302.243	40.12
302.456	40.88
302.669	40.36
302.881	42.64
303.094	42.29
303.307	42.22
303.519	42.9
303.732	44.16
303.944	45.09
304.157	45.95
304.37	46.44
304.582	48.25
304.795	47.7
305.007	48.43
305.22	46.02
305.432	46.26
305.645	45.72
305.857	44.97
306.069	44.76
306.282	43.32
306.494	41.27
306.707	40.41
306.919	39.75
307.132	38.92
307.344	38.94
307.556	38.83
307.769	38.61
307.981	38.58
308.193	38.49
308.406	36.37
308.618	35.92
308.83	36.08
309.043	35.74
309.255	35.63
309.467	35.88
309.679	34.5
309.892	33.68
310.104	32.87
310.316	33.02
310.528	32.96
310.74	34.39
310.953	35.26
311.165	35.19
311.377	36.35
311.589	36.03
311.801	35.08
312.013	37.07
312.225	38.5
312.437	39.34
312.649	40.66
312.862	41.77
313.074	42.22
313.286	43.3
313.498	44.55
313.71	44.75
313.922	46.31
314.134	47.53
314.346	46.46
314.558	45.74
314.77	47.18
314.982	45.93
315.193	46.64
315.405	47.1
315.617	46.69
315.829	47.5
316.041	47.3
316.253	46.5
316.465	47.67
316.677	47.92
316.888	49.19
317.1	48.18
317.312	49.26
317.524	49.98
317.736	50.25
317.947	50.93
318.159	50.64
318.371	51.29
318.583	52.21
318.794	51.51
319.006	52.37
319.218	52.52
319.43	53.42
319.641	53.38
319.853	52.6
320.064	52.2
320.276	52.85
320.488	52.58
320.699	52.95
320.911	53.93
321.123	54.86
321.334	56.43
321.546	56.69
321.757	54.94
321.969	55.82
322.18	55.03
322.392	54.78
322.603	52.97
322.815	53
323.026	52.31
323.238	49.8
323.449	49.06
323.661	47.89
323.872	45.58
324.083	46.91
324.295	45.13
324.506	44.54
324.718	43.94
324.929	43.76
325.14	43.42
325.352	43.19
325.563	44.28
325.774	43.58
325.986	43.68
326.197	44.83
326.408	45.56
326.62	45.37
326.831	45.81
327.042	45.91
327.253	46.09
327.464	46.91
327.676	46.45
327.887	46.4
328.098	46.19
328.309	45.83
328.52	45.76
328.732	43.71
328.943	45.12
329.154	46.16
329.365	47.5
329.576	48.71
329.787	48.78
329.998	48.63
330.209	49
330.42	49.7
330.631	50.63
330.842	50.38
331.053	49.78
331.264	48.98
331.475	50.3
331.686	49.72
331.897	48.24
332.108	48.14
332.319	49.21
332.53	49.08
332.741	49.81
332.952	48.1
333.163	48.73
333.374	49.74
333.585	50.11
333.795	48.63
334.006	49.01
334.217	49.97
334.428	50.8
334.639	50.02
334.849	49.59
335.06	48.37
335.271	48.29
335.482	48.34
335.692	47.77
335.903	46.92
336.114	46.43
336.325	46.83
336.535	46.31
336.746	45.23
336.957	45.91
337.167	45.66
337.378	45.71
337.589	47.47
337.799	47.14
338.01	47.61
338.22	48.28
338.431	48.84
338.642	48.32
338.852	48.4
339.063	47.88
339.273	46.96
339.484	47.36
339.694	48.24
339.905	47.97
340.115	47.82
340.326	47.23
340.536	46.7
340.746	46.11
340.957	44.3
341.167	44.06
341.378	44.48
341.588	44.59
341.799	44.26
342.009	44.09
342.219	42.31
342.43	42.22
342.64	42.29
342.85	41.88
343.061	41.04
343.271	42.89
343.481	42.57
343.691	41.38
343.902	41.07
344.112	40.82
344.322	39.82
344.532	40.37
344.743	40.2
344.953	40.26
345.163	41.75
345.373	43.29
345.583	42.37
345.793	42.08
346.004	42.86
346.214	42.25
346.424	41.53
346.634	42.04
346.844	42.58
347.054	42.66
347.264	42.66
347.474	42.56
347.684	41.77
347.894	42.79
348.104	42.39
348.314	42.8
348.524	43.55
348.734	43.33
348.944	43.76
349.154	43.52
349.364	43.39
349.574	43.05
349.784	41.99
349.994	41.52
350.204	40.66
350.413	41.03
350.623	41.36
350.833	41.25
351.043	42.03
351.253	40.67
351.463	39.11
351.672	40.27
351.882	40.64
352.092	41.02
352.302	41.69
352.511	41.64
352.721	41.93
352.931	41.46
353.141	41.7
353.35	41.41
353.56	41.4
353.77	42.86
353.979	41.83
354.189	41.39
354.399	41.04
354.608	40.45
354.818	40.29
355.027	40.08
355.237	39.9
355.447	39.64
355.656	39.53
355.866	38.82
356.075	38.56
356.285	36.89
356.494	36.84
356.704	37.27
356.913	36.86
357.123	35.64
357.332	34.79
357.542	34.07
357.751	33.96
357.96	33.72
358.17	33.95
358.379	33.42
358.589	33.86
358.798	33.32
359.007	31.63
359.217	30.42
359.426	30.26
359.635	30.49
359.845	29.69
360.054	28.48
360.263	27.86
360.472	27.99
360.682	27.82
360.891	27.84
361.1	27.38
361.309	27.43
361.519	27.46
361.728	27.47
361.937	27.92
362.146	28.46
362.355	28.76
362.564	29.63
362.774	29.15
362.983	29.07
363.192	29.34
363.401	29.35
363.61	29.71
363.819	30.95
364.028	31.1
364.237	30.87
364.446	31.14
364.655	31.13
364.864	30.83
365.073	31.43
365.282	31.19
365.491	31.06
365.7	31.92
365.909	31.94
366.118	32.14
366.327	32.31
366.536	31.4
366.745	32.21
366.954	32.6
367.162	33.06
367.371	33.07
367.58	34.46
367.789	34.76
367.998	35.08
368.207	35.4
368.415	36.04
368.624	36.66
368.833	36.66
369.042	35.24
369.25	35.82
369.459	35.99
369.668	35.99
369.877	34.47
370.085	34.4
370.294	33.21
370.503	32.8
370.711	31.78
370.92	31.28
371.129	32.22
371.337	32.23
371.546	31.22
371.754	31.24
371.963	30.77
372.171	31.21
372.38	30.31
372.589	31.18
372.797	31.05
373.006	30.43
373.214	30.35
373.423	30.23
373.631	30.6
373.84	31.53
374.048	31.15
374.256	31.35
374.465	30.97
374.673	31.33
374.882	31.02
375.09	31.1
375.298	31.15
375.507	31.1
375.715	30.5
375.923	29.7
376.132	28.64
376.34	28.48
376.548	27.92
376.757	28.63
376.965	29.22
377.173	28.69
377.381	28.35
377.59	29.24
377.798	29.1
378.006	29.29
378.214	30.35
378.423	30.88
378.631	30.63
378.839	31.52
379.047	31.15
379.255	30.15
379.463	31.7
379.671	32.53
379.879	31.81
380.088	32.2
380.296	32.01
380.504	31.76
380.712	32.11
380.92	31.76
381.128	31.58
381.336	31.57
381.544	32.23
381.752	31.07
381.96	30.41
382.168	30.22
382.376	30.38
382.584	30.83
382.791	29.82
382.999	29.6
383.207	29.47
383.415	29.57
383.623	28.87
383.831	28.28
384.039	28.21
384.247	27.92
384.454	28.09
384.662	27.83
384.87	27.3
385.078	27.6
385.285	27.3
385.493	27.74
385.701	26.94
385.909	27
386.116	27.03
386.324	26.58
386.532	26.48
386.739	26.03
386.947	25.75
387.155	26.57
387.362	26.77
387.57	27.27
387.778	27.18
387.985	27.98
388.193	28.78
388.4	28.81
388.608	28.86
388.816	29.08
389.023	29.93
389.231	29.44
389.438	28.81
389.646	28.52
389.853	27.45
390.061	26.43
390.268	24.98
390.475	24.1
390.683	24.39
390.89	24.34
391.098	24.37
391.305	24.04
391.512	24.05
391.72	23.63
391.927	23.68
392.135	23.84
392.342	24.26
392.549	25.24
392.756	24.88
392.964	24.48
393.171	24.82
393.378	24.26
393.586	23.58
393.793	23.64
394	23.29
394.207	22.92
394.414	22.9
394.622	23.31
394.829	22.89
395.036	23.59
395.243	24.32
395.45	23.75
395.657	24.37
395.864	24.51
396.072	24.56
396.279	24.92
396.486	24.28
396.693	24.72
396.9	24.23
397.107	24.83
397.314	24.79
397.521	24.01
397.728	24.52
397.935	24.46
398.142	24.23
398.349	24.2
398.556	24.51
398.763	25.27
398.97	24.66
399.177	25.25
399.383	25.07
399.59	24.56
399.797	24.51
400.004	23.39
400.211	23.08
400.418	23.5
400.625	23.5
400.831	22.93
401.038	23.24
401.245	23.33
401.452	23.05
401.658	22.79
401.865	23.16
402.072	23.49
402.279	24.43
402.485	24.35
402.692	23.95
402.899	24.07
403.105	24.2
403.312	24.14
403.519	23.86
403.725	23.29
403.932	23.08
404.138	22.66
404.345	22.11
404.552	21.87
404.758	21.89
404.965	22.58
405.171	22.35
405.378	22
405.584	21.98
405.791	22.1
405.997	22.38
406.204	22.68
406.41	22.84
406.617	23.37
406.823	23.48
407.029	23.44
407.236	23.23
407.442	23.33
407.649	24.73
407.855	24
408.061	24.21
408.268	23.77
408.474	23.13
408.68	22.74
408.887	22.74
409.093	22.63
409.299	22.82
409.505	21.93
409.712	21.5
409.918	19.91
410.124	20.16
410.33	19.82
410.537	20.25
410.743	21.3
410.949	21.77
411.155	21.07
411.361	20.98
411.567	20.94
411.773	21.73
411.98	21.84
412.186	22.27
412.392	22.5
412.598	22.49
412.804	22.42
413.01	21.04
413.216	21.64
413.422	21.99
413.628	21.81
413.834	21.41
414.04	20.89
414.246	20.86
414.452	20.39
414.658	20.47
414.864	20.5
415.07	20.14
415.275	20.51
415.481	19.58
415.687	19.36
415.893	19.53
416.099	18.99
416.305	18.76
416.511	18.23
416.716	18.01
416.922	17.47
417.128	16.91
417.334	16.94
417.539	16.28
417.745	15.98
417.951	15.44
418.157	14.93
418.362	15.08
418.568	14.87
418.774	14.87
418.979	14.77
419.185	14.44
419.391	14.42
419.596	14.03
419.802	14.01
420.008	13.75
420.213	15.87
420.419	16.12
420.624	15.87
420.83	15.77
421.035	15.62
421.241	15.62
421.446	15.48
421.652	15.36
421.857	15.34
422.063	15.46
422.268	15.49
422.474	13.43
422.679	13.07
422.885	12.95
423.09	12.76
423.295	12.69
423.501	12.46
423.706	12.56
423.911	12.43
424.117	12.48
424.322	12.37
424.527	12.31
424.733	12.48
424.938	12.71
425.143	12.75
425.349	12.89
425.554	12.85
425.759	13.1
425.964	13.32
426.169	13.55
426.375	13.55
426.58	13.74
426.785	14.07
426.99	14.35
427.195	14.24
427.4	14.89
427.605	15.31
427.811	15.67
428.016	15.96
428.221	16.19
428.426	16.39
428.631	16.84
428.836	17.04
429.041	16.98
429.246	16.94
429.451	17.05
429.656	17.11
429.861	16.85
430.066	17.1
430.271	16.85
430.476	16.82
430.681	16.68
430.886	16.2
431.09	15.85
431.295	15.64
431.5	15.52
431.705	15.39
431.91	14.78
432.115	15.1
432.32	14.98
432.524	14.63
432.729	14.29
432.934	14.08
433.139	14.36
433.343	14.3
433.548	14.5
433.753	14.45
433.958	14.42
434.162	14.51
434.367	14.57
434.572	14.47
434.776	15.03
434.981	15.16
435.186	15.36
435.39	15.35
435.595	15.6
435.799	15.61
436.004	15.33
436.209	15.11
436.413	14.99
436.618	14.58
436.822	14.3
437.027	13.97
437.231	13.85
437.436	13.67
437.64	13.22
437.845	13.08
438.049	12.69
438.253	12.69
438.458	12.56
438.662	12.64
438.867	12.3
439.071	12.49
439.275	12.51
439.48	12.29
439.684	12.03
439.888	12.12
440.093	12.07
440.297	12.15
440.501	12.41
440.706	12.54
440.91	12.56
441.114	12.67
441.318	12.57
441.523	12.77
441.727	13.19
441.931	13.83
442.135	13.61
442.339	13.9
442.543	13.93
442.748	13.71
442.952	13.66
443.156	13.78
443.36	13.7
443.564	13.79
443.768	13.24
443.972	13.12
444.176	12.58
444.38	12.78
444.584	12.42
444.788	12.57
444.992	12.04
445.196	12.02
445.4	11.4
445.604	11.47
445.808	11.53
446.012	11.84
446.216	11.54
446.42	11.75
446.624	11.65
446.828	11.31
447.032	11.16
447.235	11.54
447.439	11.56
447.643	12.08
447.847	12.39
448.051	12.38
448.254	12.44
448.458	12.84
448.662	12.98
448.866	13.22
449.069	13.93
449.273	14.05
449.477	14.12
449.681	14.25
449.884	14.39
450.088	14.45
450.292	14.27
450.495	14.5
450.699	14.45
450.902	14.21
451.106	14.27
451.31	14.21
451.513	14.48
451.717	14.44
451.92	14.64
452.124	14.68
452.327	14.53
452.531	14.59
452.734	14.56
452.938	14.9
453.141	15.21
453.345	15.35
453.548	15.34
453.752	15.12
453.955	15.79
454.158	15.56
454.362	15.46
454.565	15.45
454.769	15.7
454.972	15.59
455.175	15.21
455.379	15.49
455.582	15.61
455.785	15.61
455.988	16.1
456.192	15.08
456.395	15.05
456.598	15
456.801	15.26
457.005	15.29
457.208	14.93
457.411	14.92
457.614	14.58
457.817	13.85
458.021	13.42
458.224	12.49
458.427	12.63
458.63	12.46
458.833	12.23
459.036	11.75
459.239	11.28
459.442	11.22
459.645	10.98
459.848	10.66
460.051	11.02
460.254	11.01
460.457	11.54
460.66	11.72
460.863	11.77
461.066	11.92
461.269	12.22
461.472	12.67
461.675	13.01
461.878	13.63
462.081	14.06
462.284	14.03
462.486	14.57
462.689	14.76
462.892	14.88
463.095	15.14
463.298	15.32
463.5	15.79
463.703	15.88
463.906	15.71
464.109	15.18
464.311	15.23
464.514	15.3
464.717	15.24
464.92	14.67
465.122	14.58
465.325	14.47
465.528	14.73
465.73	14.4
465.933	14.02
466.135	14.1
466.338	14.08
466.541	14.13
466.743	13.98
466.946	13.88
467.148	14.41
467.351	14.13
467.553	14.05
467.756	13.85
467.958	13.82
468.161	14.3
468.363	14.36
468.566	14.68
468.768	14.81
468.971	15.09
469.173	15.1
469.375	15.15
469.578	15.61
469.78	16.08
469.983	16.21
470.185	16.26
470.387	15.91
470.59	15.77
470.792	15.68
470.994	15.5
471.196	15.56
471.399	15.58
471.601	15.13
471.803	14.84
472.005	14.38
472.208	14.35
472.41	13.97
472.612	13.85
472.814	14.01
473.016	14.34
473.218	14.54
473.421	14.29
473.623	14.04
473.825	14.38
474.027	14.73
474.229	14.95
474.431	14.79
474.633	14.89
474.835	14.91
475.037	14.77
475.239	14.42
475.441	14.24
475.643	14.09
475.845	14.08
476.047	13.68
476.249	13.59
476.451	13.84
476.653	13.33
476.855	13.08
477.057	13.47
477.258	12.99
477.46	12.79
477.662	12.69
477.864	12.57
478.066	12.58
478.268	12.59
478.469	12.47
478.671	11.76
478.873	12.05
479.075	12.49
479.276	11.97
479.478	12.15
479.68	11.65
479.882	11.54
480.083	11.53
480.285	11.56
480.487	11.74
480.688	11.54
480.89	11.73
481.091	11.25
481.293	10.84
481.495	10.57
481.696	10.24
481.898	9.96
482.099	9.52
482.301	9.09
482.502	8.44
482.704	7.87
482.905	7.43
483.107	6.96
483.308	6.73
483.51	6.43
483.711	6.32
483.913	6.13
484.114	6.09
484.315	6.08
484.517	6.09
484.718	6.18
484.92	6.24
485.121	6.4
485.322	6.56
485.524	6.77
485.725	7.07
485.926	7.13
486.127	7.32
486.329	7.33
486.53	7.24
486.731	7.12
486.932	7.11
487.134	7.19
487.335	7.14
487.536	7.02
487.737	7
487.938	6.98
488.139	6.99
488.341	7.01
488.542	7.11
488.743	7.18
488.944	7.41
489.145	7.57
489.346	7.69
489.547	7.9
489.748	8.14
489.949	8.28
490.15	8.1
490.351	8.17
490.552	8.13
490.753	8
490.954	7.91
491.155	7.82
491.356	7.82
491.557	7.79
491.758	7.69
491.959	7.82
492.159	7.86
492.36	8.06
492.561	8.28
492.762	8.53
492.963	9.11
493.164	9.5
493.364	9.98
493.565	10.25
493.766	10.53
493.967	10.71
494.167	10.92
494.368	11.01
494.569	11.31
494.769	11.21
494.97	11.12
495.171	10.84
495.371	10.97
495.572	10.89
495.773	10.97
495.973	10.75
496.174	10.93
496.375	10.84
496.575	10.88
496.776	10.76
496.976	10.89
497.177	10.75
497.377	10.91
497.578	10.8
497.778	10.85
497.979	10.89
498.179	11.16
498.38	11.57
498.58	11.67
498.78	11.97
498.981	11.93
499.181	12.1
499.382	12.52
499.582	12.37
499.782	12.5
499.983	12.62
500.183	12.68
500.383	12.83
500.584	12.31
500.784	12.39
500.984	12.39
501.184	12.52
501.385	12.24
501.585	12.68
501.785	12.51
501.985	12.4
502.185	12.19
502.386	12.23
502.586	12.03
502.786	12.32
502.986	12.33
503.186	12.12
503.386	11.98
503.586	12.15
503.786	11.73
503.987	12.1
504.187	12.17
504.387	12.41
504.587	12.19
504.787	12.41
504.987	12.18
505.187	12.16
505.387	12.35
505.587	12.64
505.786	12.58
505.986	12.57
506.186	12.35
506.386	12.44
506.586	12.45
506.786	12.68
506.986	12.71
507.186	12.89
507.386	12.75
507.585	12.36
507.785	12.26
507.985	12.37
508.185	12.27
508.384	12.15
508.584	11.87
508.784	11.45
508.984	11.44
509.183	11.12
509.383	11
509.583	11.13
509.782	11.44
509.982	11.68
510.182	11.61
510.381	11.66
510.581	12.06
510.781	12.46
510.98	12.68
511.18	12.96
511.379	13.3
511.579	13.58
511.778	13.27
511.978	13.15
512.177	12.98
512.377	13.03
512.576	12.82
512.776	12.81
512.975	12.75
513.175	12.75
513.374	12.61
513.573	12.39
513.773	12.3
513.972	12.8
514.172	13.1
514.371	12.95
514.57	12.93
514.77	13.23
514.969	13.06
515.168	12.8
515.367	12.82
515.567	12.83
515.766	12.67
515.965	12.95
516.164	12.62
516.364	12.27
516.563	12.2
516.762	12.2
516.961	12.07
517.16	12.02
517.359	12.11
517.559	12.16
517.758	11.93
517.957	11.97
518.156	11.6
518.355	11.44
518.554	11.57
518.753	11.37
518.952	11.23
519.151	11.41
519.35	11.57
519.549	11.61
519.748	11.64
519.947	11.62
520.146	11.88
520.345	12.21
520.544	12.6
520.743	12.71
520.942	13.32
521.141	13.59
521.339	13.51
521.538	13.46
521.737	13.4
521.936	13.17
522.135	13.26
522.333	13.27
522.532	13.04
522.731	13.13
522.93	13.36
523.129	13.39
523.327	13.55
523.526	13.46
523.725	13.47
523.923	13.5
524.122	13.59
524.321	13.53
524.519	13.25
524.718	13.31
524.917	13.07
525.115	12.69
525.314	12.41
525.512	12.14
525.711	11.98
525.909	12.04
526.108	11.9
526.306	11.87
526.505	11.75
526.703	11.54
526.902	11.17
527.1	11
527.299	10.89
527.497	10.72
527.696	10.6
527.894	10.55
528.092	10.37
528.291	10.32
528.489	10.29
528.688	10.28
528.886	10.3
529.084	10.35
529.283	10.4
529.481	10.46
529.679	10.67
529.877	10.86
530.076	10.99
530.274	11.19
530.472	11.49
530.67	11.68
530.869	11.83
531.067	12.11
531.265	12.39
531.463	12.55
531.661	12.57
531.859	12.58
532.057	12.67
532.255	12.71
532.454	12.55
532.652	12.36
532.85	12.24
533.048	12.25
533.246	12.21
533.444	12.22
533.642	12.26
533.84	12.37
534.038	12.54
534.236	12.46
534.434	12.69
534.632	12.9
534.83	13.19
535.027	13.4
535.225	13.64
535.423	13.96
535.621	13.87
535.819	14.08
536.017	14.3
536.215	14.05
536.412	14.16
536.61	14.22
536.808	14.28
537.006	14.32
537.203	14.46
537.401	14.45
537.599	14.48
537.797	14.81
537.994	14.96
538.192	15.03
538.39	15.44
538.587	15.33
538.785	15.26
538.983	15.21
539.18	15.13
539.378	15.06
539.575	15.08
539.773	14.89
539.97	14.75
540.168	14.41
540.366	14.22
540.563	14.07
540.761	14.03
540.958	13.81
541.155	13.66
541.353	13.61
541.55	13.42
541.748	13.21
541.945	13.24
542.143	13.13
542.34	13.3
542.537	13.4
542.735	13.29
542.932	13.5
543.129	13.71
543.327	13.96
543.524	14.07
543.721	14.22
543.919	14.57
544.116	14.74
544.313	15.22
544.51	15.21
544.708	15.47
544.905	15.75
545.102	16.04
545.299	16.12
545.496	16.45
545.693	16.48
545.891	16.68
546.088	16.71
546.285	16.81
546.482	16.61
546.679	16.83
546.876	16.75
547.073	16.9
547.27	16.84
547.467	17.07
547.664	16.95
547.861	17.31
548.058	17.79
548.255	18.15
548.452	18.35
548.649	19.08
548.846	19.52
549.043	19.74
549.24	19.92
549.437	20.35
549.633	20.63
549.83	21.46
550.027	21.8
550.224	21.87
550.421	21.98
550.618	22.23
550.814	22.03
551.011	21.89
551.208	22.07
551.405	22.19
551.601	22.06
551.798	22.02
551.995	21.7
552.191	21.72
552.388	21.34
552.585	21.38
552.781	21.29
552.978	21.53
553.175	21.85
553.371	21.94
553.568	21.99
553.764	22.41
553.961	22.72
554.157	22.76
554.354	22.88
554.55	23.52
554.747	24.05
554.943	24.12
555.14	24.12
555.336	24.37
555.533	24.85
555.729	25.18
555.926	25.22
556.122	25.08
556.318	25.37
556.515	25.55
556.711	25.48
556.907	25.36
557.104	25.74
557.3	25.92
557.496	25.27
557.693	25.33
557.889	25.43
558.085	25.33
558.281	25.51
558.478	25.72
558.674	25.68
558.87	26.11
559.066	26.21
559.262	25.8
559.459	25.32
559.655	25.86
559.851	26.02
560.047	26.35
560.243	26.51
560.439	26.66
560.635	26.46
560.831	26.54
561.027	26.27
561.223	26.17
561.419	26.47
561.615	26.81
561.811	27.07
562.007	27.13
562.203	26.47
562.399	26.43
562.595	26.89
562.791	27.06
562.987	27.22
563.183	27.32
563.379	27.32
563.575	27.31
563.771	27.79
563.966	27.54
564.162	27.21
564.358	27.52
564.554	27.38
564.75	27.09
564.945	26.95
565.141	26.67
565.337	26.57
565.533	26.3
565.728	26.02
565.924	25.86
566.12	25.9
566.315	25.79
566.511	25.83
566.707	25.94
566.902	25.81
567.098	25.81
567.293	25.87
567.489	25.8
567.684	26.02
567.88	26.93
568.076	27.06
568.271	27.19
568.467	27.4
568.662	27.43
568.858	27.93
569.053	27.95
569.248	28
569.444	28.35
569.639	28.61
569.835	29.24
570.03	28.67
570.225	28.5
570.421	28.21
570.616	28.52
570.812	28.62
571.007	27.98
571.202	27.9
571.397	27.75
571.593	27.4
571.788	27.33
571.983	27
572.178	27.25
572.374	27.41
572.569	27.56
572.764	27.37
572.959	27.15
573.154	27.47
573.35	27.64
573.545	28.06
573.74	28.36
573.935	28.88
574.13	28.6
574.325	28.47
574.52	28.64
574.715	28.85
574.91	28.82
575.105	29.32
575.3	29.48
575.495	30.02
575.69	30.05
575.885	30.47
576.08	30.52
576.275	30.91
576.47	31.54
576.665	31.58
576.86	31.86
577.055	32.07
577.25	32.36
577.444	32.39
577.639	31.99
577.834	32.14
578.029	32.18
578.224	32.1
578.418	32.52
578.613	32.56
578.808	32.9
579.003	33.12
579.197	33.5
579.392	33.5
579.587	33.69
579.781	34.29
579.976	34.78
580.171	34.63
580.365	34.41
580.56	34.66
580.755	34.47
580.949	34.09
581.144	34
581.338	34.17
581.533	34.11
581.727	34.43
581.922	34.7
582.116	34.48
582.311	34.78
582.505	35.29
582.7	35.09
582.894	35.53
583.089	35.92
583.283	36.04
583.478	35.92
583.672	35.88
583.866	35.83
584.061	35.47
584.255	35.71
584.449	35.88
584.644	36.01
584.838	35.92
585.032	35.62
585.226	35.6
585.421	35.41
585.615	35.71
585.809	36.37
586.003	36.52
586.198	36.62
586.392	36.55
586.586	36.34
586.78	35.92
586.974	36.34
587.168	36.47
587.363	36.58
587.557	36.68
587.751	36.71
587.945	36.42
588.139	36.61
588.333	36.54
588.527	36.29
588.721	36.57
588.915	36.96
589.109	36.78
589.303	36.86
589.497	36.58
589.691	37.14
589.885	36.69
590.079	36.63
590.273	36.28
590.466	36.73
590.66	37.21
590.854	37.62
591.048	37.52
591.242	37.26
591.436	36.89
591.629	36.92
591.823	36.5
592.017	36.81
592.211	36.93
592.404	37.31
592.598	36.52
592.792	36.31
592.986	35.82
593.179	35.79
593.373	35.7
593.567	35.89
593.76	35.73
593.954	35.69
594.147	36.08
594.341	36.18
594.535	35.97
594.728	36.49
594.922	36.33
595.115	36.56
595.309	36.6
595.502	37.08
595.696	36.59
595.889	36.73
596.083	36.55
596.276	36.52
596.47	35.93
596.663	35.7
596.856	35.82
597.05	35.8
597.243	35.5
597.437	35.57
597.63	35.65
597.823	36.19
598.017	36.35
598.21	36.46
598.403	35.99
598.596	36.69
598.79	37.03
598.983	37.23
599.176	37.65
599.369	37.77
599.563	37.83
599.756	37.81
599.949	37.8
600.142	38.16
600.335	38.6
600.528	39.09
600.722	39.02
600.915	39.36
601.108	39.04
601.301	38.52
601.494	38.06
601.687	38.19
601.88	38.04
602.073	38.29
602.266	37.94
602.459	37.28
602.652	36.48
602.845	36.54
603.038	36.05
603.231	35.58
603.424	35.55
603.617	35.95
603.809	35.73
604.002	35.53
604.195	35.74
604.388	35.78
604.581	36
604.774	36.66
604.966	36.58
605.159	36.57
605.352	36.84
605.545	37.1
605.737	37.07
605.93	37.09
606.123	37.49
606.316	37.01
606.508	37
606.701	37.43
606.894	37.12
607.086	37.59
607.279	37.79
607.471	38.13
607.664	37.98
607.857	38.33
608.049	38.29
608.242	38.12
608.434	37.82
608.627	37.67
608.819	37.57
609.012	37.63
609.204	37.57
609.397	37.64
609.589	37.52
609.782	37.88
609.974	37.77
610.166	38.52
610.359	38.53
610.551	39.07
610.743	39.48
610.936	40.17
611.128	40.77
611.32	40.76
611.513	41.05
611.705	42.16
611.897	42
612.09	42.71
612.282	42.3
612.474	43.17
612.666	44.46
612.858	44.67
613.051	44.62
613.243	44.81
613.435	45.59
613.627	45.92
613.819	44.87
614.011	46.94
614.203	47.12
614.395	47.61
614.588	47.08
614.78	46.08
614.972	46.46
615.164	46.25
615.356	46.2
615.548	45.57
615.74	45.44
615.932	45.94
616.124	44.25
616.315	44.18
616.507	44.16
616.699	44.81
616.891	44.48
617.083	44.35
617.275	44.39
617.467	44.5
617.659	44.53
617.85	45.02
618.042	45.05
618.234	45.38
618.426	45.27
618.618	45.39
618.809	45.2
619.001	45.14
619.193	45.73
619.384	45.45
619.576	45.67
619.768	45.48
619.959	45.2
620.151	45.65
620.343	46.06
620.534	45.76
620.726	45.47
620.917	45.98
621.109	46.4
621.301	46.21
621.492	46.52
621.684	46.42
621.875	46.98
622.067	47
622.258	46.7
622.45	46.81
622.641	46.64
622.832	46.4
623.024	45.58
623.215	46.31
623.407	45.44
623.598	46.01
623.789	45.79
623.981	45.43
624.172	45.45
624.363	44.92
624.555	44.03
624.746	44
624.937	44.17
625.129	44.58
625.32	43.49
625.511	43.87
625.702	42.58
625.893	42.82
626.085	42.64
626.276	42.24
626.467	42.76
626.658	42.68
626.849	42.27
627.04	42.43
627.231	42.21
627.422	42.88
627.614	42.37
627.805	42.99
627.996	42.87
628.187	43.22
628.378	43.79
628.569	44.02
628.76	44.4
628.951	44.93
629.142	44.43
629.332	43.76
629.523	43.9
629.714	44.4
629.905	44.34
630.096	44.55
630.287	44.45
630.478	44.31
630.669	43.69
630.859	43.76
631.05	43.91
631.241	44.26
631.432	44.87
631.623	44.57
631.813	44.8
632.004	44.19
632.195	43.97
632.385	44.12
632.576	44.09
632.767	44.12
632.957	43.99
633.148	44.54
633.339	44.19
633.529	43.92
633.72	43.7
633.91	43.53
634.101	44.15
634.292	44.18
634.482	43.97
634.673	44.03
634.863	43.89
635.054	44.26
635.244	43.65
635.435	43.75
635.625	43.89
635.815	43.88
636.006	44.01
636.196	44.01
636.387	44.08
636.577	44
636.767	43.73
636.958	43.96
637.148	43.94
637.338	44.29
637.529	44.67
637.719	45.21
637.909	45.38
638.099	45.09
638.29	45.25
638.48	45.22
638.67	46.36
638.86	47.75
639.05	48.1
639.241	48.65
639.431	48.71
639.621	48.86
639.811	49.19
640.001	49.78
640.191	50.53
640.381	50.73
640.571	50.29
640.761	49.67
640.951	49.18
641.141	49.29
641.331	48.83
641.521	48.89
641.711	49.61
641.901	49.35
642.091	49.43
642.281	49.3
642.471	49.39
642.661	50.72
642.851	50.75
643.041	50.86
643.231	51.24
643.42	51.84
643.61	51.73
643.8	51.8
643.99	51.66
644.18	51.69
644.369	52.16
644.559	52.38
644.749	51.72
644.939	51.85
645.128	51.32
645.318	50.73
645.508	50.58
645.697	51.45
645.887	51.52
646.076	52.37
646.266	52.3
646.456	51.91
646.645	51.75
646.835	51.86
647.024	51.99
647.214	51.99
647.403	52.11
647.593	51.45
647.782	50.48
647.972	50.06
648.161	48.97
648.351	48.85
648.54	48.61
648.73	49.04
648.919	48.84
649.108	48.69
649.298	48.91
649.487	49.44
649.677	50
649.866	50.37
650.055	50.42
650.244	50.57
650.434	50.49
650.623	50.55
650.812	50.19
651.002	50.12
651.191	49.91
651.38	50.24
651.569	50.26
651.758	49.58
651.947	49.05
652.137	49.21
652.326	50.06
652.515	50.56
652.704	50.67
652.893	50.78
653.082	50.34
653.271	50.85
653.46	49.52
653.649	49.03
653.838	49.73
654.027	50.27
654.216	50.05
654.405	49.38
654.594	49.15
654.783	49.51
654.972	49.72
655.161	50.57
655.35	50.28
655.539	51.37
655.728	52.2
655.916	51.48
656.105	51.81
656.294	51.91
656.483	51.63
656.672	51.06
656.86	50.61
657.049	50.13
657.238	49.79
657.427	49.43
657.615	48.72
657.804	47.91
657.993	47.64
658.181	47.04
658.37	46.29
658.559	45.59
658.747	45.85
658.936	46.48
659.125	46.21
659.313	46.3
659.502	46.33
659.69	46.69
659.879	46.54
660.067	47.48
660.256	47.56
660.444	47.67
660.633	48.72
660.821	49.09
661.01	49
661.198	49.37
661.387	49.71
661.575	50.41
661.763	50.91
661.952	51.39
662.14	52.09
662.328	52.16
662.517	52.93
662.705	52.89
662.893	53.48
663.082	53.47
663.27	54.88
663.458	54.67
663.646	54.45
663.834	54.76
664.023	55.45
664.211	55.3
664.399	56.05
664.587	56.27
664.775	57.01
664.963	57.13
665.152	57.37
665.34	56.52
665.528	56.37
665.716	55.94
665.904	55.72
666.092	55.47
666.28	54.95
666.468	55.47
666.656	55.91
666.844	55.9
667.032	55.05
667.22	55.38
667.408	55.96
667.596	57.39
667.784	57.54
667.971	57.55
668.159	57.16
668.347	56.28
668.535	55.27
668.723	54.49
668.911	54.1
669.098	53.72
669.286	53
669.474	51.82
669.662	50.83
669.849	52.22
670.037	52.37
670.225	52.61
670.413	53.64
670.6	54.3
670.788	54.77
670.976	54.73
671.163	55.87
671.351	55.66
671.538	56.05
671.726	55.95
671.913	55.43
672.101	55.65
672.289	55.49
672.476	55.86
672.664	55.53
672.851	55.2
673.039	55.87
673.226	56.25
673.413	57.34
673.601	58.22
673.788	59.32
673.976	58.77
674.163	58.6
674.35	58.77
674.538	57.86
674.725	58.35
674.912	58.06
675.1	58.38
675.287	58.13
675.474	57.44
675.662	56.76
675.849	55.55
676.036	56.23
676.223	56.28
676.411	56.27
676.598	56.03
676.785	55.71
676.972	55.91
677.159	55.84
677.346	55.42
677.533	55.61
677.721	55.05
677.908	55.43
678.095	54.49
678.282	53.92
678.469	53.37
678.656	53.42
678.843	53.05
679.03	53.38
679.217	53.06
679.404	52.79
679.591	52.41
679.778	52.78
679.964	53.09
680.151	53.2
680.338	53.54
680.525	54.45
680.712	54.36
680.899	54.8
681.086	54.86
681.272	55.03
681.459	55.86
681.646	56.1
681.833	55.56
682.02	55.07
682.206	55.5
682.393	55.35
682.58	54.9
682.766	55.69
682.953	56.77
683.14	56.58
683.326	57.94
683.513	58.14
683.7	59.23
683.886	60.25
684.073	61.48
684.259	61.9
684.446	63.31
684.632	63.83
684.819	64.16
685.005	62.4
685.192	63.15
685.378	61.6
685.565	60.65
685.751	59.81
685.938	60.36
686.124	59.11
686.31	58.39
686.497	57.37
686.683	56.58
686.87	56.31
687.056	57.33
687.242	56.24
687.429	56.37
687.615	56.13
687.801	56.41
687.987	55.78
688.174	55.67
688.36	56.38
688.546	56.09
688.732	58.06
688.918	59.01
689.105	59.03
689.291	60.04
689.477	60.19
689.663	60.84
689.849	60.8
690.035	62.17
690.221	64.02
690.407	65.53
690.593	65.77
690.779	64.52
690.965	63.94
691.151	64.07
691.337	64.85
691.523	66
691.709	66.74
691.895	67.28
692.081	65.37
692.267	65.21
692.453	63.88
692.639	63.85
692.825	65.61
693.011	65.69
693.196	66.86
693.382	67.19
693.568	66.88
693.754	66.42
693.94	66.8
694.125	68.02
694.311	68.35
694.497	68.16
694.682	68.79
694.868	67.6
695.054	66.73
695.239	65.37
695.425	63.74
695.611	62.64
695.796	61.89
695.982	60.92
696.168	59.88
696.353	57.85
696.539	57.75
696.724	57.67
696.91	57.27
697.095	57.82
697.281	56.86
697.466	56.65
697.652	55.91
697.837	55.56
698.023	54.96
698.208	54.26
698.393	54.29
698.579	53.92
698.764	53.1
698.949	52.84
699.135	52.63
699.32	53.48
699.505	53.04
699.691	54.15
699.876	54.84
700.061	55.52
700.246	56.86
700.432	57.68
700.617	58.43
700.802	59.53
700.987	60.11
701.172	60.25
701.358	60.73
701.543	63.27
701.728	62.13
701.913	62.92
702.098	63.93
702.283	65.84
702.468	66.32
702.653	66.87
702.838	67.88
703.023	69.02
703.208	69.36
703.393	69.6
703.578	71.16
703.763	73.33
703.948	73.27
704.133	72.85
704.318	71.14
704.503	71.9
704.688	73.08
704.873	72.07
705.057	71.45
705.242	72.68
705.427	73.19
705.612	71.52
705.797	70.07
705.981	70.1
706.166	70.92
706.351	70.67
706.536	69.49
706.72	67.44
706.905	68.02
707.09	68.39
707.274	67.94
707.459	67.6
707.644	67.87
707.828	69.03
708.013	67.84
708.197	66.67
708.382	67.24
708.567	67.35
708.751	66.64
708.936	65.94
709.12	66.1
709.305	66.29
709.489	65.87
709.673	64.95
709.858	65.46
710.042	65.89
710.227	66.69
710.411	65.94
710.596	65.34
710.78	67.78
710.964	69.01
711.149	69.03
711.333	67.5
711.517	67.55
711.702	68.19
711.886	67.54
712.07	68.45
712.254	68.82
712.438	69.67
712.623	70.6
712.807	67.99
712.991	68.69
713.175	68.81
713.359	70.83
713.544	71.07
713.728	69.7
713.912	68.35
714.096	68.16
714.28	67.75
714.464	68.1
714.648	68.55
714.832	70.47
715.016	68.53
715.2	68.78
715.384	67.5
715.568	67.6
715.752	68.33
715.936	69.56
716.12	69.7
716.304	70.43
716.488	70.42
716.671	71.44
716.855	72.03
717.039	73.79
717.223	73.06
717.407	74.37
717.59	74.91
717.774	75.33
717.958	75.6
718.142	76.71
718.325	77.87
718.509	76.67
718.693	75.9
718.877	74.56
719.06	74.35
719.244	75.47
719.428	75.63
719.611	76.81
719.795	78.05
719.978	78.38
720.162	78.25
720.345	77.42
720.529	80.58
720.713	83.05
720.896	83.5
721.08	83.13
721.263	82.94
721.446	84.03
721.63	84.32
721.813	85.71
721.997	85.51
722.18	85.18
722.364	85.34
722.547	84.01
722.73	82.05
722.914	83.55
723.097	84.19
723.28	83.78
723.464	82.61
723.647	82.67
723.83	81.1
724.013	82.81
724.197	83.37
724.38	83.91
724.563	84.11
724.746	84.78
724.929	85.11
725.112	85.75
725.296	86.7
725.479	86.22
725.662	84.31
725.845	84.5
726.028	83.47
726.211	83.02
726.394	81.64
726.577	81.33
726.76	79.87
726.943	79.47
727.126	77.75
727.309	77.6
727.492	77.84
727.675	78.31
727.858	77.36
728.041	76.89
728.224	77.22
728.407	76.41
728.589	75.88
728.772	75.27
728.955	75.76
729.138	75.53
729.321	74.76
729.503	75.27
729.686	75.54
729.869	76.27
730.052	76.46
730.234	76.61
730.417	78.69
730.6	80.31
730.782	82.55
730.965	80.83
731.148	82.54
731.33	81.99
731.513	82.02
731.695	81.05
731.878	81.31
732.061	80.81
732.243	79.71
732.426	79.52
732.608	78.85
732.791	79.77
732.973	81.2
733.156	79.42
733.338	80.35
733.52	80.76
733.703	81.04
733.885	81.84
734.068	81.98
734.25	84.11
734.432	83.71
734.615	84.06
734.797	83.31
734.979	82.66
735.162	82.3
735.344	82.38
735.526	81.9
735.708	83.76
735.891	84.38
736.073	86.23
736.255	84.54
736.437	83.94
736.619	83.98
736.802	82.27
736.984	83.49
737.166	87.93
737.348	86.79
737.53	86.49
737.712	85.5
737.894	83.88
738.076	83.81
738.258	83.14
738.44	82.65
738.622	82.52
738.804	82.99
738.986	82.91
739.168	79.25
739.35	82.31
739.532	83.72
739.714	85.66
739.896	85.2
740.078	85.22
740.259	88.49
740.441	91.53
740.623	91.91
740.805	93.61
740.987	91.73
741.168	93.36
741.35	92.01
741.532	94.05
741.714	92.35
741.895	93.48
742.077	94.61
742.259	94.37
742.44	95.11
742.622	94.48
742.804	96.5
742.985	99.06
743.167	98.67
743.348	100.86
743.53	98.06
743.711	97.83
743.893	101.21
744.075	100.14
744.256	100.3
744.438	99.76
744.619	102.93
744.8	100.52
744.982	103.19
745.163	105.36
745.345	102.47
745.526	104.05
745.707	105.71
745.889	104.78
746.07	106.6
746.252	106.05
746.433	104.8
746.614	103.33
746.795	104.34
746.977	104.68
747.158	103.44
747.339	104.4
747.52	103.29
747.702	102.21
747.883	100.27
748.064	99.61
748.245	96.81
748.426	96.22
748.607	94.47
748.788	94.67
748.97	91.81
749.151	93.88
749.332	94.11
749.513	95.6
749.694	96.47
749.875	97.49
750.056	98.19
750.237	103.59
750.418	105.29
750.599	109.21
750.78	107.05
750.96	107.7
751.141	107.7
751.322	111.69
751.503	112.75
751.684	115.97
751.865	115.54
752.046	117.19
752.226	113.04
752.407	112.64
752.588	110.49
752.769	112.37
752.949	111.14
753.13	111.34
753.311	108.17
753.492	107.11
753.672	105
753.853	106.37
754.034	104.56
754.214	108.48
754.395	108.21
754.575	113.47
754.756	116.55
754.937	121.46
755.117	117.77
755.298	118.46
755.478	117.62
755.659	116.19
755.839	117.19
756.02	115.47
756.2	113.59
756.381	112.59
756.561	107.21
756.741	104.98
756.922	101.48
757.102	104.73
757.283	106.59
757.463	106.6
757.643	107.48
757.823	104.21
758.004	104.38
758.184	103.53
758.364	104.29
758.545	105.68
758.725	105.35
758.905	104.61
759.085	102.27
759.265	102.12
759.446	102.26
759.626	102.16
759.806	104.3
759.986	105.47
760.166	105.31
760.346	105.29
760.526	103.07
760.706	102.38
760.886	101.3
761.066	101.95
761.246	98.56
761.426	94.91
761.606	92.42
761.786	90.16
761.966	88.99
762.146	86.15
762.326	83.54
762.506	83.11
762.686	80.21
762.866	79.15
763.046	77.11
763.225	77.35
763.405	76.87
763.585	76.79
763.765	75.79
763.945	74.59
764.124	75.76
764.304	78.77
764.484	80.4
764.664	82.4
764.843	85.64
765.023	89.59
765.203	90.81
765.382	94.45
765.562	97.46
765.741	99
765.921	103.89
766.101	104.55
766.28	101.78
766.46	103.58
766.639	103.62
766.819	102.77
766.998	102.37
767.178	102.69
767.357	103.84
767.537	102.54
767.716	106.71
767.896	104.67
768.075	107.66
768.254	110.59
768.434	109.47
768.613	113.18
768.792	113.98
768.972	115.51
769.151	117.45
769.33	117.23
769.51	123.64
769.689	121.74
769.868	126.13
770.047	124.32
770.226	126.29
770.406	127.55
770.585	130.67
770.764	130.17
770.943	128.82
771.122	129.97
771.301	132.21
771.48	131.19
771.66	129.87
771.839	127.6
772.018	131.82
772.197	130.46
772.376	129.53
772.555	129.19
772.734	133.01
772.913	134.83
773.092	132.13
773.271	126.99
773.449	126.05
773.628	127.39
773.807	127.08
773.986	128.26
774.165	131.03
774.344	131.68
774.523	129.62
774.701	129.95
774.88	137.36
775.059	140.66
775.238	150.12
775.417	150.02
775.595	153.85
775.774	158.51
775.953	155.34
776.131	152.33
776.31	153.38
776.489	155.51
776.667	150.15
776.846	143.17
777.025	142.85
777.203	137.75
777.382	132.59
777.56	131.02
777.739	127.89
777.917	132.03
778.096	135.11
778.274	135.82
778.453	133.38
778.631	134.61
778.81	131.15
778.988	130.75
779.166	133.03
779.345	136.57
779.523	135.65
779.702	135.46
779.88	134.04
780.058	132.83
780.237	135.45
780.415	135.68
780.593	135.92
780.771	139.78
780.95	142.52
781.128	145.13
781.306	147.44
781.484	151.72
781.662	164.47
781.841	158.07
782.019	155.72
782.197	154.99
782.375	153.31
782.553	157.9
782.731	159.27
782.909	155.59
783.087	156.97
783.265	158.8
783.443	159.51
783.621	151.39
783.799	158.7
783.977	164.82
784.155	169.74
784.333	175.43
784.511	169.68
784.689	175.22
784.867	177.39
785.045	173.18
785.223	174.35
785.4	169.21
785.578	168.09
785.756	167.13
785.934	161.49
786.112	156.6
786.289	154.12
786.467	152.6
786.645	143.12
786.823	139.6
787	138.07
787.178	134.33
787.356	135.51
787.533	137.61
787.711	133.47
787.889	134.78
788.066	132.36
788.244	131.74
788.421	136.36
788.599	134.95
788.776	137.08
788.954	138.87
789.131	134.66
789.309	139.62
789.486	137.25
789.664	142.19
789.841	138.21
790.019	138.15
790.196	145.29
790.373	145.85
790.551	156.78
790.728	155.35
790.906	154.05
791.083	160.68
791.26	158.02
791.437	156.24
791.615	159.33
791.792	166.38
791.969	169.33
792.146	161.73
792.324	163.97
792.501	161.05
792.678	164.15
792.855	160.42
793.032	158.6
793.209	156.4
793.387	158.32
793.564	155.04
793.741	151.65
793.918	147.6
794.095	152.73
794.272	152.82
794.449	145.8
794.626	146.28
794.803	149.16
794.98	151.18
795.157	147.2
795.334	145.8
795.511	144.38
795.688	147.66
795.864	146.19
796.041	142.72
796.218	144.32
796.395	148.03
796.572	145.85
796.749	153.31
796.925	155.04
797.102	161.87
797.279	165.83
797.456	167.42
797.632	168.88
797.809	176.22
797.986	181.26
798.162	178.41
798.339	180.41
798.516	185.09
798.692	181.64
798.869	174.32
799.046	169.11
799.222	162.86
799.399	165.66
799.575	170.13
799.752	170.14
799.928	165.43
800.105	162.14
800.281	172.91
800.458	173.87
800.634	174.31
800.811	192.98
800.987	211.5
801.163	226.58
801.34	233.82
801.516	231.84
801.692	254.54
801.869	250.66
802.045	278.74
802.221	253.69
802.398	253.68
802.574	248.91
802.75	229.66
802.926	213.14
803.103	204.57
803.279	196.29
803.455	194.68
803.631	180.71
803.807	179.51
803.983	171.46
804.16	181.66
804.336	180.23
804.512	182.26
804.688	186.24
804.864	191.66
805.04	196.13
805.216	201.91
805.392	199.1
805.568	211.39
805.744	213.57
805.92	223.4
806.096	213.6
806.272	221.95
806.448	228.97
806.623	233.5
806.799	229.14
806.975	229.44
807.151	229.95
807.327	244.46
807.503	231.58
807.678	245.69
807.854	234.4
808.03	246.42
808.206	236.59
808.381	221.7
808.557	212.51
808.733	209.49
808.908	212.09
809.084	217.39
809.26	208.38
809.435	212.06
809.611	205.46
809.787	202.71
809.962	199.19
810.138	203.35
810.313	202.33
810.489	208.52
810.664	208.93
810.84	215.61
811.015	216.04
811.191	225.19
811.366	220.12
811.542	214.38
811.717	208.68
811.892	200.51
812.068	207
812.243	214.81
812.419	207.1
812.594	214.56
812.769	209.59
812.944	201.96
813.12	196.85
813.295	208.29
813.47	208.65
813.645	228.98
813.821	240.28
813.996	229.47
814.171	235.58
814.346	238.58
814.521	237.63
814.697	242.59
814.872	233.67
815.047	237.92
815.222	231.15
815.397	231.67
815.572	215.56
815.747	205.1
815.922	212.11
816.097	210.97
816.272	210.87
816.447	203.94
816.622	202.72
816.797	212.17
816.972	205.6
817.147	204.42
817.322	210.53
817.496	217.33
817.671	219.25
817.846	221.78
818.021	212.77
818.196	203.22
818.371	194.25
818.545	182.79
818.72	182.1
818.895	178.38
819.069	171.46
819.244	161.87
819.419	150.45
819.594	147.77
819.768	139.42
819.943	133.17
820.117	123.89
820.292	115.45
820.467	106.1
820.641	95.8
820.816	89.17
820.99	85.28
821.165	78.94
821.339	76.15
821.514	73.16
821.688	68.48
821.863	65.52
822.037	63.57
822.212	63.34
822.386	62.98
822.56	61.73
822.735	61.95
822.909	60.39
823.084	61.15
823.258	61.25
823.432	62.06
823.606	63.85
823.781	65.12
823.955	67.88
824.129	70.72
824.303	74.93
824.478	78.86
824.652	79.75
824.826	85.77
825	87.59
825.174	91.56
825.348	90.61
825.523	93.53
825.697	96.43
825.871	99.04
826.045	95.95
826.219	95.93
826.393	96.96
826.567	97.73
826.741	97.71
826.915	96.08
827.089	95.34
827.263	95.93
827.437	95.12
827.611	95.17
827.784	94.41
827.958	97.35
828.132	97.85
828.306	102.62
828.48	107.36
828.654	107.9
828.827	113.27
829.001	114.32
829.175	120.6
829.349	124.6
829.522	132.04
829.696	138.31
829.87	147.5
830.044	155.12
830.217	155.71
830.391	159.69
830.565	162.7
830.738	164.52
830.912	168.5
831.085	174.96
831.259	188.46
831.432	182.4
831.606	182.72
831.779	174.76
831.953	171.04
832.126	160.51
832.3	151.68
832.473	144.52
832.647	144.06
832.82	141.88
832.994	132.29
833.167	127.25
833.34	123.34
833.514	114.78
833.687	115.05
833.86	119.44
834.034	122.52
834.207	125.53
834.38	127.11
834.553	126.5
834.727	128.22
834.9	136.29
835.073	140.77
835.246	147.31
835.419	158.92
835.593	159.92
835.766	151.26
835.939	157.92
836.112	156.52
836.285	171.91
836.458	194.57
836.631	207.21
836.804	209.67
836.977	204.77
837.15	219.83
837.323	229.35
837.496	238.96
837.669	240.88
837.842	235.39
838.015	256.96
838.188	250.16
838.361	241.81
838.533	234.37
838.706	244.49
838.879	255.57
839.052	240.57
839.225	238.76
839.398	238.52
839.57	238.18
839.743	246.54
839.916	241.8
840.088	248.74
840.261	252.66
840.434	244.65
840.607	248.42
840.779	245.74
840.952	243.67
841.124	273.13
841.297	305.25
841.47	340.69
841.642	353.2
841.815	365.84
841.987	371.54
842.16	346.85
842.332	428.31
842.505	426.16
842.677	393.59
842.85	365.13
843.022	348
843.194	344.89
843.367	397.34
843.539	373.16
843.712	373.76
843.884	360.79
844.056	398.76
844.229	369.48
844.401	353.55
844.573	407.03
844.745	533.69
844.918	552.82
845.09	486.63
845.262	444.73
845.434	488.34
845.606	511.5
845.779	669.21
845.951	668.58
846.123	865.53
846.295	847.73
846.467	676.53
846.639	708.11
846.811	685.02
846.983	682.56
847.155	602.18
847.327	644.49
847.499	680.55
847.671	672.31
847.843	635.57
848.015	521.93
848.187	635.96
848.359	667.52
848.531	559.52
848.703	487.98
848.875	589.88
849.047	524.71
849.218	504.21
849.39	473.72
849.562	374.28
849.734	392.65
849.905	474.67
850.077	440.11
850.249	459.87
850.421	489.13
850.592	483.73
850.764	477.78
850.936	527.89
851.107	563.34
851.279	551.14
851.451	728.06
851.622	643.86
851.794	582.59
851.965	609.99
852.137	582.41
852.308	546.74
852.48	632.46
852.651	504
852.823	528.08
852.994	509.17
853.166	519.78
853.337	514.58
853.509	569.92
853.68	640.14
853.851	541.11
854.023	496.6
854.194	437.98
854.365	424.27
854.537	487.27
854.708	454.39
854.879	476.04
855.05	485.2
855.222	415.94
855.393	387.74
855.564	348.22
855.735	372.63
855.906	443.97
856.078	634.06
856.249	610.42
856.42	599.52
856.591	615.47
856.762	643.71
856.933	564.13
857.104	682.38
857.275	692.72
857.446	772.26
857.617	693.28
857.788	638.43
857.959	475.6
858.13	494.55
858.301	490.13
858.472	473.85
858.643	433.58
858.814	489.56
858.985	537.48
859.155	635.07
859.326	681.81
859.497	1186.19
859.668	2157.08
859.839	2404.1
860.009	2535.14
860.18	12650
860.351	-14365.63
860.522	13271.43
860.692	-23552.63
860.863	6879.03
861.034	2707.69
861.204	1794.4
861.375	846.3
861.546	614.8
861.716	643.72
861.887	577.88
862.057	561.25
862.228	557.78
862.398	649.72
862.569	554.36
862.739	569.06
862.91	536.97
863.08	550
863.251	641.74
863.421	776.97
863.592	1044.47
863.762	2170.1
863.932	1368.35
864.103	1167.19
864.273	1029.7
864.443	1201.37
864.614	1554.55
864.784	863.05
864.954	713.48
865.125	570.77
865.295	552.55
865.465	445.35
865.635	413.01
865.805	419.22
865.976	443.71
866.146	459.75
866.316	474.29
866.486	411.88
866.656	513.64
866.826	541.55
866.996	561.93
867.166	485.77
867.336	536.59
867.506	453.98
867.676	455.63
867.846	469.77
868.016	459.56
868.186	433.72
868.356	441.19
868.526	400.31
868.696	449.21
868.866	453.7
869.036	554.72
869.206	518.95
869.376	592.09
869.545	514.22
869.715	520.48
869.885	478.65
870.055	452.38
870.224	458.65
870.394	499.89
870.564	452.2
870.734	518.09
870.903	500.42
871.073	520.62
871.243	457.83
871.412	556.51
871.582	527.67
871.751	594.43
871.921	755.24
872.091	758.6
872.26	735.99
872.43	787.28
872.599	667.58
872.769	596.75
872.938	678.41
873.108	817.5
873.277	767.97
873.446	691.02
873.616	642.88
873.785	579.04
873.955	622.24
874.124	466.09
874.293	447.74
874.463	458.76
874.632	397.06
874.801	384.34
874.971	455.9
875.14	472.19
875.309	453.62
875.478	473.32
875.647	468.83
875.817	410.99
875.986	528.19
876.155	507.1
876.324	564.29
876.493	724.63
876.662	554.5
876.831	430.79
877	442.31
877.17	519.44
877.339	552.86
877.508	580.05
877.677	598.72
877.846	502.06
878.015	570.09
878.184	572.47
878.352	513.33
878.521	545.45
878.69	585.46
878.859	540.09
879.028	454.99
879.197	437.98
879.366	491.62
879.534	470.82
879.703	444.3
879.872	386.44
880.041	318.1
880.21	301.01
880.378	284.41
880.547	263.8
880.716	227.04
880.884	218.35
881.053	201.21
881.222	177.22
881.39	164.17
881.559	154.34
881.727	149.29
881.896	144.08
882.065	139.32
882.233	139.89
882.402	133.94
882.57	133.94
882.739	132.79
882.907	133.06
883.076	133.09
883.244	134
883.412	138.23
883.581	142.58
883.749	147.47
883.918	153.81
884.086	158.47
884.254	167.31
884.423	170.89
884.591	180.52
884.759	183.64
884.927	196.1
885.096	212.4
885.264	231.61
885.432	242.31
885.6	260.41
885.769	294.05
885.937	306.33
886.105	328.11
886.273	349.76
886.441	371.67
886.609	423.73
886.777	438.41
886.945	463.2
887.113	525.2
887.281	617.25
887.449	592.01
887.617	523.31
887.785	533.11
887.953	566.08
888.121	719.03
888.289	691.92
888.457	601.76
888.625	610.61
888.793	759.31
888.961	665.45
889.129	651.14
889.296	616.88
889.464	612.36
889.632	657.14
889.8	623.05
889.967	558.69
890.135	530.72
