Data from JASIL_3901_Reflection_1.txt Node
Date: Sat Nov 07 20:09:57 EST 2015
User: Geneva
Spectrometer: USB4E03002
Autoset integration time: false
Trigger mode: 4
Integration Time (sec): 1.000000E-1
Scans to average: 10
Electric dark correction enabled: true
Nonlinearity correction enabled: false
Boxcar width: 5
Stray light correction enabled: false
XAxis mode: Wavelengths
Stop averaging: false
Number of Pixels in Spectrum: 3648
>>>>>Begin Spectral Data<<<<<
177.575	135.52
177.794	132.22
178.014	82.81
178.233	189.1
178.452	175.26
178.672	169.28
178.891	122.09
179.11	460.98
179.33	329.37
179.549	217.87
179.768	148.5
179.987	166.19
180.207	169.29
180.426	196.64
180.645	300.31
180.864	319.39
181.084	362.72
181.303	562.22
181.522	354.2
181.741	318.05
181.96	251.71
182.179	258.76
182.398	341.47
182.618	339.67
182.837	332.73
183.056	497.78
183.275	538.97
183.494	391.49
183.713	275.28
183.932	393.93
184.151	350.74
184.37	361.14
184.589	234.49
184.808	194.04
185.027	193.44
185.246	169.41
185.465	117.28
185.684	124.4
185.903	133.18
186.122	137.01
186.341	141.29
186.56	178.18
186.779	197.48
186.998	208.8
187.216	211.67
187.435	211.52
187.654	217.51
187.873	299.38
188.092	221.04
188.311	196.04
188.53	209.52
188.748	179.92
188.967	158.1
189.186	152.48
189.405	179.05
189.623	183.93
189.842	166.25
190.061	157.42
190.28	182.12
190.498	212.34
190.717	195.18
190.936	193.26
191.154	204.5
191.373	176.89
191.592	189.72
191.81	178.84
192.029	176.66
192.248	190.51
192.466	173.04
192.685	142.6
192.904	140.31
193.122	157.9
193.341	162.35
193.559	159.15
193.778	172.53
193.996	140.28
194.215	167.13
194.433	166.82
194.652	208.02
194.87	247.42
195.089	268.42
195.307	245.04
195.526	237.66
195.744	209.26
195.963	188.87
196.181	171.13
196.399	221.03
196.618	196.71
196.836	185.1
197.055	160.48
197.273	149.93
197.491	142.91
197.71	137.12
197.928	139.55
198.146	137.93
198.365	151.93
198.583	161.91
198.801	155.3
199.019	138.59
199.238	151.69
199.456	121.96
199.674	141.11
199.892	135.7
200.111	147.28
200.329	136.54
200.547	146.28
200.765	173.35
200.983	162.37
201.202	154.61
201.42	202.05
201.638	196.11
201.856	270.24
202.074	272.04
202.292	304.54
202.51	298.56
202.728	280.24
202.946	298.15
203.165	238.99
203.383	239.69
203.601	236.19
203.819	216.62
204.037	234.21
204.255	207.84
204.473	217.14
204.691	243.71
204.909	248.6
205.127	268.7
205.345	227.98
205.562	229.8
205.78	246.11
205.998	223.07
206.216	210.11
206.434	199.36
206.652	171.54
206.87	152.15
207.088	154.83
207.306	155.89
207.523	140.06
207.741	140.97
207.959	147.53
208.177	183.44
208.395	185.3
208.612	209.55
208.83	231.79
209.048	259.41
209.266	262.71
209.483	224.74
209.701	268.24
209.919	348.57
210.136	376.11
210.354	351.5
210.572	223.54
210.79	216.62
211.007	166.97
211.225	153.38
211.442	183.26
211.66	183.02
211.878	182.83
212.095	84.42
212.313	83.94
212.53	85.3
212.748	77.87
212.966	77.86
213.183	74.32
213.401	83.23
213.618	72.85
213.836	73.27
214.053	76.25
214.271	68.72
214.488	155.23
214.705	145.6
214.923	155.78
215.14	171.02
215.358	166.49
215.575	170.08
215.793	164.31
216.01	177.47
216.227	179.4
216.445	173.16
216.662	168.05
216.879	156.27
217.097	184.83
217.314	187.78
217.531	179.14
217.749	162.42
217.966	165.51
218.183	160.2
218.4	171.68
218.618	157.38
218.835	152.77
219.052	150.15
219.269	162.73
219.487	134.4
219.704	124.9
219.921	111.74
220.138	108.59
220.355	115.48
220.572	118.23
220.79	121.71
221.007	115.11
221.224	115.57
221.441	122.4
221.658	108.65
221.875	122.71
222.092	109.11
222.309	109.41
222.526	111.71
222.743	104.29
222.96	104.78
223.177	110.22
223.394	104.36
223.611	107.99
223.828	108.78
224.045	108.41
224.262	99.55
224.479	109.32
224.696	111.85
224.913	113.35
225.13	108.5
225.347	108.38
225.564	104.43
225.781	107.84
225.997	104.22
226.214	100.12
226.431	95.25
226.648	92.66
226.865	90.89
227.082	87.37
227.298	82.08
227.515	81.7
227.732	79.94
227.949	79.37
228.165	77.84
228.382	73.2
228.599	72.2
228.816	71.46
229.032	71.87
229.249	70.69
229.466	72.34
229.682	73.11
229.899	73.6
230.116	73.29
230.332	72.03
230.549	77.51
230.765	83.82
230.982	83.67
231.199	86.7
231.415	88.51
231.632	88.5
231.848	87.08
232.065	86.75
232.281	84.4
232.498	85.5
232.714	81.4
232.931	73.68
233.147	73.78
233.364	73.51
233.58	75.22
233.797	75.33
234.013	73.21
234.23	75.23
234.446	77.2
234.662	78.78
234.879	78.39
235.095	81.31
235.312	85.23
235.528	87.85
235.744	91.01
235.961	86.2
236.177	82.21
236.393	85.05
236.61	80.41
236.826	79.72
237.042	78.13
237.258	78.94
237.475	79.86
237.691	79.18
237.907	75.33
238.123	73.92
238.339	76.19
238.556	82.4
238.772	81.29
238.988	81.22
239.204	76.44
239.42	77.16
239.636	73.88
239.853	70.44
240.069	68.41
240.285	66.5
240.501	65.08
240.717	62.6
240.933	60.43
241.149	57.22
241.365	55.9
241.581	56.57
241.797	55.07
242.013	54.27
242.229	54.72
242.445	53.91
242.661	53.14
242.877	52.58
243.093	53.57
243.309	52.65
243.525	54.7
243.741	56.96
243.957	57.18
244.173	58.35
244.388	58.77
244.604	57.13
244.82	55.72
245.036	53.59
245.252	51.92
245.468	50.71
245.683	50.49
245.899	49.05
246.115	47.64
246.331	46.95
246.547	45.69
246.762	44.87
246.978	44.94
247.194	44.32
247.409	44.77
247.625	45.34
247.841	44.9
248.057	44.96
248.272	45.08
248.488	45.02
248.703	43.88
248.919	44.54
249.135	44.77
249.35	44.84
249.566	46.02
249.782	45.48
249.997	44.71
250.213	44.54
250.428	42.86
250.644	44.52
250.859	44.17
251.075	45.42
251.29	43.82
251.506	43.09
251.721	40.53
251.937	40.12
252.152	40.11
252.368	40.01
252.583	41.06
252.798	41.81
253.014	40.11
253.229	39.9
253.445	39.45
253.66	40.54
253.875	41.57
254.091	44.69
254.306	44.66
254.521	44.27
254.737	44.18
254.952	42.29
255.167	40.79
255.383	41.84
255.598	41.76
255.813	41.33
256.028	40.92
256.244	40.93
256.459	40.5
256.674	39.1
256.889	38.48
257.104	38.29
257.32	38.44
257.535	38
257.75	35.81
257.965	35.31
258.18	34.9
258.395	33.7
258.61	32.34
258.826	31.79
259.041	31.86
259.256	31.36
259.471	30.83
259.686	30.44
259.901	30.2
260.116	30.78
260.331	30.03
260.546	29.57
260.761	29.77
260.976	30.41
261.191	30.14
261.406	30.03
261.621	30.43
261.836	30.31
262.05	29.55
262.265	29.46
262.48	28.92
262.695	29.38
262.91	29.88
263.125	32.09
263.34	33.32
263.555	35.14
263.769	35.33
263.984	36.22
264.199	36.81
264.414	37.08
264.629	36.67
264.843	36.7
265.058	37.47
265.273	36.24
265.488	34.02
265.702	33.72
265.917	32.63
266.132	32.37
266.346	32.33
266.561	31.72
266.776	32.03
266.99	31.87
267.205	31.53
267.42	30.42
267.634	30.09
267.849	30.59
268.063	30.11
268.278	30.16
268.492	30.11
268.707	29.2
268.922	29.62
269.136	29.22
269.351	29.41
269.565	29.39
269.78	29.59
269.994	29.52
270.209	29.05
270.423	28.61
270.637	28.08
270.852	27.41
271.066	27.92
271.281	27.65
271.495	27.99
271.709	28.11
271.924	27.42
272.138	27.73
272.353	28.42
272.567	28.6
272.781	28.48
272.996	28.93
273.21	29.55
273.424	29.71
273.638	29.39
273.853	29.1
274.067	28.78
274.281	29.35
274.495	28.49
274.71	28.13
274.924	28.06
275.138	28.63
275.352	28.71
275.566	29.13
275.781	28.32
275.995	28.85
276.209	29.06
276.423	28.66
276.637	28.64
276.851	29.21
277.065	29.02
277.279	28.36
277.493	27.51
277.707	27.4
277.921	26.72
278.135	25.85
278.349	24.8
278.563	24.76
278.777	25.11
278.991	25.07
279.205	24.78
279.419	24.92
279.633	25.75
279.847	25.82
280.061	25.81
280.275	25.7
280.489	26.72
280.703	26.37
280.917	26
281.131	25.51
281.344	25.95
281.558	25.43
281.772	25.57
281.986	25
282.2	24.63
282.414	23.87
282.627	23.93
282.841	24.35
283.055	25.41
283.269	24.72
283.482	24.97
283.696	24.34
283.91	24.33
284.123	24.19
284.337	24.15
284.551	24.25
284.764	24.61
284.978	24.51
285.192	23.62
285.405	22.68
285.619	22.54
285.833	22.72
286.046	22.85
286.26	22.98
286.473	22.5
286.687	22.27
286.9	22.91
287.114	22.6
287.327	22.63
287.541	22.38
287.754	22.8
287.968	23.67
288.181	23.46
288.395	22.97
288.608	23.24
288.822	23.04
289.035	23.07
289.248	22.36
289.462	22.6
289.675	22.15
289.889	22.56
290.102	22.23
290.315	21.88
290.529	21.73
290.742	21.96
290.955	21.84
291.169	22.2
291.382	22.49
291.595	22.92
291.808	22.74
292.022	22.82
292.235	23.21
292.448	23.85
292.661	23.33
292.875	22.97
293.088	22.8
293.301	22.54
293.514	22.25
293.727	22.08
293.94	21.99
294.153	21.58
294.367	21.78
294.58	20.81
294.793	20.79
295.006	21.19
295.219	21.76
295.432	21.6
295.645	21.32
295.858	21.13
296.071	21.14
296.284	20.65
296.497	20.58
296.71	20.42
296.923	20.74
297.136	20.32
297.349	20.15
297.562	19.72
297.775	19.87
297.988	20.22
298.201	20.52
298.414	20.37
298.626	20.65
298.839	21.02
299.052	21.36
299.265	21.74
299.478	21.55
299.691	21.75
299.903	21.85
300.116	21.73
300.329	21.38
300.542	21.24
300.755	21.72
300.967	21.49
301.18	21.66
301.393	21.19
301.605	20.75
301.818	21.21
302.031	21.69
302.243	21.68
302.456	21.9
302.669	22.35
302.881	22.64
303.094	22.36
303.307	22.01
303.519	21.91
303.732	21.86
303.944	21.71
304.157	22.07
304.37	21.51
304.582	21.78
304.795	21.5
305.007	21.8
305.22	21.9
305.432	22.11
305.645	22.51
305.857	22.36
306.069	22.25
306.282	22.6
306.494	22.59
306.707	22.82
306.919	22.16
307.132	22.15
307.344	21.83
307.556	21.54
307.769	21.88
307.981	22.04
308.193	22.33
308.406	22.71
308.618	22.42
308.83	21.84
309.043	21.65
309.255	21.79
309.467	21.57
309.679	21.74
309.892	21.68
310.104	20.94
310.316	20.55
310.528	20.01
310.74	19.66
310.953	19.65
311.165	19.99
311.377	20.03
311.589	20.21
311.801	20.71
312.013	19.99
312.225	20.53
312.437	20.92
312.649	21.73
312.862	22.06
313.074	21.86
313.286	22.36
313.498	22.14
313.71	22.27
313.922	22.61
314.134	22.55
314.346	23.02
314.558	22.85
314.77	23.31
314.982	23.36
315.193	23
315.405	23.85
315.617	23.53
315.829	23.66
316.041	23.85
316.253	23.57
316.465	23.45
316.677	23.4
316.888	23.24
317.1	22.7
317.312	22.13
317.524	22.89
317.736	23.27
317.947	23.42
318.159	23.61
318.371	23.14
318.583	22.99
318.794	22.73
319.006	23.23
319.218	23.4
319.43	23.83
319.641	24.23
319.853	24.61
320.064	24.22
320.276	24.5
320.488	24.35
320.699	24.32
320.911	24.67
321.123	25.38
321.334	25.23
321.546	25.44
321.757	25.27
321.969	25.11
322.18	24.43
322.392	24.23
322.603	24.09
322.815	24.39
323.026	24.94
323.238	24.58
323.449	24.64
323.661	24.65
323.872	24.94
324.083	25.55
324.295	26.17
324.506	26.34
324.718	26.69
324.929	26.74
325.14	26.94
325.352	26.91
325.563	27.53
325.774	27.4
325.986	27.49
326.197	27.44
326.408	27.27
326.62	27.16
326.831	27.11
327.042	27.54
327.253	27.43
327.464	27.4
327.676	27.7
327.887	27.77
328.098	27.93
328.309	28.25
328.52	28.54
328.732	28.63
328.943	29.05
329.154	29.59
329.365	29.93
329.576	30.78
329.787	31.32
329.998	31.42
330.209	31.71
330.42	32.23
330.631	32.57
330.842	32.3
331.053	32.41
331.264	31.97
331.475	32.28
331.686	31.82
331.897	32.01
332.108	32.33
332.319	32.05
332.53	31.86
332.741	31.76
332.952	31.55
333.163	31.65
333.374	32.06
333.585	32.12
333.795	32.06
334.006	32.09
334.217	31.87
334.428	31.84
334.639	32.05
334.849	31.95
335.06	31.86
335.271	32.05
335.482	32.61
335.692	32.15
335.903	32.67
336.114	33.09
336.325	33.06
336.535	33.14
336.746	33.14
336.957	33.37
337.167	33.61
337.378	34.15
337.589	34.1
337.799	33.78
338.01	33.86
338.22	33.4
338.431	33.12
338.642	33.19
338.852	33.15
339.063	32.28
339.273	32.26
339.484	32.1
339.694	31.65
339.905	31.77
340.115	31.87
340.326	31.91
340.536	31.59
340.746	31.65
340.957	31.56
341.167	31.7
341.378	32.39
341.588	32.51
341.799	32.47
342.009	32.47
342.219	31.97
342.43	31.81
342.64	31.65
342.85	31.95
343.061	31.43
343.271	31.8
343.481	31.51
343.691	31.04
343.902	30.52
344.112	30.4
344.322	30.29
344.532	30.82
344.743	30.54
344.953	30.36
345.163	30.1
345.373	30.47
345.583	30.33
345.793	30.3
346.004	30.31
346.214	30.51
346.424	30.51
346.634	30.38
346.844	30.27
347.054	30.65
347.264	30.98
347.474	31.14
347.684	30.62
347.894	30.54
348.104	30.5
348.314	30.69
348.524	30.44
348.734	30.45
348.944	30.23
349.154	30.12
349.364	29.9
349.574	29.4
349.784	29.45
349.994	29.62
350.204	29.13
350.413	29.11
350.623	29.11
350.833	29.17
351.043	28.62
351.253	28.92
351.463	28.72
351.672	28.84
351.882	28.8
352.092	28.73
352.302	28.85
352.511	29.14
352.721	28.99
352.931	28.74
353.141	28.93
353.35	29.58
353.56	29.28
353.77	29.19
353.979	28.77
354.189	29.29
354.399	28.96
354.608	28.85
354.818	28.83
355.027	28.77
355.237	28.87
355.447	28.67
355.656	28.45
355.866	28.63
356.075	28.42
356.285	28.62
356.494	28.51
356.704	28.68
356.913	28.43
357.123	28.44
357.332	28.39
357.542	28.25
357.751	28.26
357.96	28.29
358.17	28.11
358.379	28.42
358.589	28.53
358.798	28.03
359.007	28.23
359.217	28.24
359.426	28.12
359.635	27.91
359.845	28.12
360.054	27.68
360.263	27.77
360.472	27.66
360.682	27.28
360.891	26.76
361.1	26.81
361.309	26.45
361.519	26.39
361.728	26.29
361.937	26.49
362.146	26.3
362.355	26.5
362.564	25.96
362.774	25.94
362.983	26.08
363.192	26.5
363.401	26.71
363.61	26.64
363.819	26.72
364.028	26.66
364.237	26.23
364.446	25.97
364.655	26.03
364.864	26.47
365.073	26.36
365.282	26.38
365.491	25.84
365.7	25.72
365.909	26.1
366.118	26.06
366.327	26
366.536	26.37
366.745	26.28
366.954	26.28
367.162	26.08
367.371	26.03
367.58	25.97
367.789	26
367.998	25.86
368.207	25.7
368.415	25.93
368.624	25.99
368.833	25.83
369.042	26.15
369.25	26.12
369.459	26.18
369.668	26.19
369.877	25.91
370.085	25.82
370.294	25.89
370.503	25.64
370.711	25.31
370.92	25.2
371.129	24.99
371.337	24.75
371.546	24.39
371.754	24.24
371.963	24.2
372.171	24.29
372.38	24.38
372.589	24.19
372.797	24.17
373.006	23.9
373.214	23.82
373.423	23.67
373.631	23.71
373.84	23.82
374.048	23.71
374.256	23.52
374.465	23.71
374.673	23.72
374.882	23.83
375.09	23.72
375.298	23.82
375.507	23.56
375.715	23.69
375.923	23.18
376.132	22.95
376.34	22.93
376.548	22.84
376.757	22.73
376.965	22.69
377.173	22.57
377.381	22.87
377.59	22.91
377.798	22.96
378.006	22.8
378.214	22.93
378.423	22.99
378.631	22.86
378.839	22.75
379.047	22.53
379.255	22.45
379.463	22.11
379.671	21.6
379.879	21.56
380.088	21.61
380.296	21.51
380.504	21.59
380.712	21.63
380.92	21.76
381.128	22.03
381.336	21.9
381.544	21.84
381.752	21.89
381.96	22.12
382.168	21.73
382.376	21.82
382.584	22.17
382.791	22.16
382.999	22.15
383.207	22.02
383.415	21.73
383.623	21.63
383.831	21.63
384.039	21.56
384.247	21.34
384.454	21.39
384.662	21.03
384.87	20.8
385.078	20.63
385.285	20.26
385.493	20.2
385.701	20.15
385.909	20.12
386.116	20.2
386.324	20.14
386.532	20.03
386.739	19.96
386.947	20.15
387.155	20.11
387.362	20.14
387.57	20.35
387.778	20.22
387.985	20.22
388.193	20.37
388.4	20.36
388.608	20.48
388.816	20.48
389.023	20.54
389.231	20.35
389.438	20.38
389.646	20.29
389.853	20.11
390.061	20.1
390.268	20.19
390.475	19.81
390.683	19.6
390.89	19.56
391.098	19.56
391.305	19.61
391.512	19.48
391.72	19.33
391.927	19.33
392.135	19.29
392.342	19.06
392.549	19.08
392.756	19.33
392.964	19.26
393.171	19.16
393.378	19.01
393.586	18.8
393.793	18.99
394	18.83
394.207	18.96
394.414	18.99
394.622	19.32
394.829	19.33
395.036	19.13
395.243	19.16
395.45	19.09
395.657	19.3
395.864	19.32
396.072	19.13
396.279	19.26
396.486	18.95
396.693	19.01
396.9	18.65
397.107	18.48
397.314	18.76
397.521	18.62
397.728	18.65
397.935	18.61
398.142	18.59
398.349	18.48
398.556	18.27
398.763	18.2
398.97	18.09
399.177	18.36
399.383	18.25
399.59	18.03
399.797	17.96
400.004	17.73
400.211	17.73
400.418	17.71
400.625	17.89
400.831	17.96
401.038	17.91
401.245	17.84
401.452	17.64
401.658	17.6
401.865	17.36
402.072	17.4
402.279	17.44
402.485	17.09
402.692	17.05
402.899	16.91
403.105	16.98
403.312	17.3
403.519	17.25
403.725	17.07
403.932	17.07
404.138	17.17
404.345	17.11
404.552	17.09
404.758	17.41
404.965	17.23
405.171	17.24
405.378	17.18
405.584	17
405.791	16.87
405.997	17.03
406.204	17.05
406.41	16.99
406.617	16.94
406.823	16.9
407.029	16.64
407.236	16.93
407.442	16.83
407.649	16.83
407.855	16.64
408.061	16.8
408.268	16.66
408.474	16.5
408.68	16.33
408.887	16.55
409.093	16.44
409.299	16.49
409.505	16.32
409.712	16.38
409.918	16.34
410.124	16.44
410.33	16.49
410.537	16.72
410.743	16.9
410.949	17.06
411.155	16.91
411.361	17.02
411.567	17.09
411.773	17.11
411.98	17.08
412.186	17.15
412.392	17.05
412.598	16.97
412.804	16.77
413.01	16.52
413.216	16.58
413.422	16.78
413.628	16.84
413.834	16.53
414.04	16.52
414.246	16.45
414.452	16.34
414.658	16.4
414.864	16.28
415.07	16.24
415.275	16.24
415.481	15.99
415.687	15.71
415.893	15.62
416.099	15.73
416.305	15.52
416.511	15.49
416.716	15.51
416.922	15.41
417.128	15.38
417.334	15.36
417.539	15.4
417.745	15.33
417.951	15.42
418.157	15.34
418.362	15.32
418.568	15.34
418.774	15.39
418.979	15.36
419.185	15.42
419.391	15.3
419.596	15.23
419.802	15.11
420.008	15.14
420.213	14.32
420.419	14.36
420.624	14.21
420.83	14.27
421.035	14.14
421.241	14.11
421.446	14.03
421.652	14.18
421.857	14.12
422.063	14.1
422.268	14.16
422.474	14.82
422.679	14.74
422.885	14.82
423.09	14.71
423.295	14.73
423.501	14.63
423.706	14.54
423.911	14.4
424.117	14.41
424.322	14.42
424.527	14.42
424.733	14.45
424.938	14.5
425.143	14.47
425.349	14.59
425.554	14.65
425.759	14.76
425.964	14.84
426.169	14.85
426.375	14.95
426.58	15.03
426.785	15.09
426.99	15.19
427.195	15.21
427.4	15.28
427.605	15.16
427.811	15.12
428.016	15.04
428.221	15.03
428.426	15.14
428.631	15.27
428.836	15.29
429.041	15.23
429.246	15.16
429.451	15.25
429.656	15.29
429.861	15.28
430.066	15.33
430.271	15.31
430.476	15.36
430.681	15.25
430.886	15.14
431.09	15.05
431.295	14.89
431.5	14.83
431.705	14.56
431.91	14.37
432.115	14.34
432.32	14.2
432.524	14.31
432.729	14.27
432.934	14.17
433.139	14.12
433.343	14.16
433.548	14.31
433.753	14.53
433.958	14.7
434.162	14.83
434.367	14.88
434.572	14.9
434.776	14.83
434.981	14.8
435.186	14.94
435.39	14.98
435.595	14.94
435.799	14.76
436.004	14.62
436.209	14.5
436.413	14.48
436.618	14.38
436.822	14.41
437.027	14.29
437.231	14.38
437.436	14.3
437.64	14.18
437.845	14.21
438.049	14.28
438.253	14.16
438.458	14.12
438.662	14.13
438.867	14.09
439.071	14.19
439.275	14.24
439.48	14.27
439.684	14.28
439.888	14.43
440.093	14.43
440.297	14.48
440.501	14.52
440.706	14.58
440.91	14.66
441.114	14.74
441.318	14.61
441.523	14.71
441.727	14.58
441.931	14.62
442.135	14.62
442.339	14.59
442.543	14.55
442.748	14.47
442.952	14.48
443.156	14.43
443.36	14.45
443.564	14.35
443.768	14.11
443.972	14.1
444.176	13.93
444.38	13.8
444.584	13.77
444.788	13.63
444.992	13.65
445.196	13.65
445.4	13.53
445.604	13.45
445.808	13.41
446.012	13.49
446.216	13.45
446.42	13.55
446.624	13.59
446.828	13.56
447.032	13.6
447.235	13.59
447.439	13.62
447.643	13.82
447.847	13.96
448.051	14.15
448.254	14.18
448.458	14.33
448.662	14.45
448.866	14.41
449.069	14.38
449.273	14.59
449.477	14.63
449.681	14.52
449.884	14.29
450.088	14.22
450.292	14.02
450.495	13.96
450.699	13.94
450.902	13.79
451.106	13.83
451.31	14
451.513	13.76
451.717	13.81
451.92	13.84
452.124	13.93
452.327	13.9
452.531	14.1
452.734	14.04
452.938	13.98
453.141	13.96
453.345	13.9
453.548	13.84
453.752	13.9
453.955	13.81
454.158	13.87
454.362	13.85
454.565	13.91
454.769	13.87
454.972	14
455.175	13.9
455.379	13.93
455.582	13.94
455.785	13.99
455.988	14.06
456.192	14.06
456.395	14.02
456.598	14
456.801	13.78
457.005	13.67
457.208	13.58
457.411	13.64
457.614	13.46
457.817	13.47
458.021	13.25
458.224	13.07
458.427	12.98
458.63	12.98
458.833	12.93
459.036	12.95
459.239	13
459.442	13
459.645	12.98
459.848	13.17
460.051	13.08
460.254	13.29
460.457	13.5
460.66	13.67
460.863	13.83
461.066	14.01
461.269	14.12
461.472	14.33
461.675	14.37
461.878	14.54
462.081	14.56
462.284	14.77
462.486	14.69
462.689	14.66
462.892	14.54
463.095	14.46
463.298	14.31
463.5	14.29
463.703	14.14
463.906	14.22
464.109	14.19
464.311	14.16
464.514	14.06
464.717	14.12
464.92	14.16
465.122	14.23
465.325	14.15
465.528	14.13
465.73	14.12
465.933	14.12
466.135	13.78
466.338	13.72
466.541	13.75
466.743	13.7
466.946	13.74
467.148	13.74
467.351	13.79
467.553	13.85
467.756	13.81
467.958	13.81
468.161	13.8
468.363	14.04
468.566	13.95
468.768	13.75
468.971	13.81
469.173	13.76
469.375	13.71
469.578	13.47
469.78	13.47
469.983	13.68
470.185	13.67
470.387	13.7
470.59	13.86
470.792	14.07
470.994	14.24
471.196	14.17
471.399	14.13
471.601	14.03
471.803	14.17
472.005	14.12
472.208	14.06
472.41	14.1
472.612	13.98
472.814	13.94
473.016	13.93
473.218	14
473.421	14.04
473.623	14.09
473.825	14.2
474.027	14.23
474.229	14.15
474.431	14.06
474.633	14.11
474.835	14.24
475.037	14.15
475.239	14.05
475.441	13.94
475.643	14.01
475.845	13.97
476.047	13.94
476.249	13.88
476.451	13.88
476.653	13.76
476.855	13.69
477.057	13.62
477.258	13.64
477.46	13.65
477.662	13.65
477.864	13.51
478.066	13.45
478.268	13.5
478.469	13.5
478.671	13.52
478.873	13.62
479.075	13.58
479.276	13.53
479.478	13.53
479.68	13.42
479.882	13.39
480.083	13.39
480.285	13.34
480.487	13.28
480.688	13.26
480.89	13.23
481.091	13.07
481.293	13.09
481.495	13.06
481.696	12.93
481.898	12.83
482.099	12.69
482.301	12.59
482.502	12.46
482.704	12.3
482.905	12.23
483.107	12.18
483.308	12.23
483.51	12.24
483.711	12.34
483.913	12.51
484.114	12.65
484.315	12.85
484.517	13.09
484.718	13.34
484.92	13.64
485.121	13.85
485.322	13.97
485.524	14
485.725	13.93
485.926	13.79
486.127	13.56
486.329	13.36
486.53	13.18
486.731	12.9
486.932	12.77
487.134	12.62
487.335	12.58
487.536	12.66
487.737	12.73
487.938	12.86
488.139	12.96
488.341	13.1
488.542	13.33
488.743	13.48
488.944	13.67
489.145	13.75
489.346	13.87
489.547	13.87
489.748	13.77
489.949	13.62
490.15	13.43
490.351	13.22
490.552	13.07
490.753	12.85
490.954	12.76
491.155	12.72
491.356	12.78
491.557	12.82
491.758	12.88
491.959	13.05
492.159	13.25
492.36	13.46
492.561	13.69
492.762	13.9
492.963	14.15
493.164	14.4
493.364	14.57
493.565	14.66
493.766	14.68
493.967	14.62
494.167	14.53
494.368	14.37
494.569	14.22
494.769	14.06
494.97	13.99
495.171	13.97
495.371	13.74
495.572	13.64
495.773	13.5
495.973	13.52
496.174	13.54
496.375	13.53
496.575	13.63
496.776	13.72
496.976	13.85
497.177	13.83
497.377	13.89
497.578	14.01
497.778	14.1
497.979	14.21
498.179	14.25
498.38	14.33
498.58	14.33
498.78	14.36
498.981	14.4
499.181	14.44
499.382	14.52
499.582	14.5
499.782	14.56
499.983	14.69
500.183	14.69
500.383	14.69
500.584	14.64
500.784	14.67
500.984	14.71
501.184	14.64
501.385	14.6
501.585	14.68
501.785	14.71
501.985	14.78
502.185	14.8
502.386	14.88
502.586	14.84
502.786	14.9
502.986	14.89
503.186	14.9
503.386	15.01
503.586	15.05
503.786	15.07
503.987	15.14
504.187	15.15
504.387	15.14
504.587	15.19
504.787	15.37
504.987	15.43
505.187	15.57
505.387	15.61
505.587	15.68
505.786	15.79
505.986	15.83
506.186	15.88
506.386	15.92
506.586	15.91
506.786	15.9
506.986	15.9
507.186	15.96
507.386	15.88
507.585	15.85
507.785	15.88
507.985	15.88
508.185	15.9
508.384	15.88
508.584	15.9
508.784	15.99
508.984	16.18
509.183	16.25
509.383	16.29
509.583	16.4
509.782	16.57
509.982	16.62
510.182	16.67
510.381	16.79
510.581	16.91
510.781	17.07
510.98	17.13
511.18	17.13
511.379	17.17
511.579	17.26
511.778	17.41
511.978	17.52
512.177	17.6
512.377	17.77
512.576	17.85
512.776	17.97
512.975	18.1
513.175	18.19
513.374	18.34
513.573	18.42
513.773	18.55
513.972	18.52
514.172	18.6
514.371	18.67
514.57	18.78
514.77	18.9
514.969	18.85
515.168	18.8
515.367	18.86
515.567	18.79
515.766	18.9
515.965	18.87
516.164	19
516.364	18.96
516.563	18.99
516.762	18.95
516.961	18.86
517.16	18.92
517.359	18.84
517.559	18.86
517.758	18.95
517.957	18.96
518.156	19.06
518.355	19.11
518.554	19.28
518.753	19.45
518.952	19.6
519.151	19.82
519.35	20.06
519.549	20.35
519.748	20.6
519.947	20.77
520.146	20.94
520.345	21
520.544	21.19
520.743	21.11
520.942	21.21
521.141	21.29
521.339	21.25
521.538	21.18
521.737	21.17
521.936	21.09
522.135	21.07
522.333	21.09
522.532	21.22
522.731	21.21
522.93	21.23
523.129	21.2
523.327	21.17
523.526	21.16
523.725	21.17
523.923	21.11
524.122	21.04
524.321	21.03
524.519	21.01
524.718	21.01
524.917	21.01
525.115	21.19
525.314	21.23
525.512	21.38
525.711	21.57
525.909	21.68
526.108	21.81
526.306	21.89
526.505	21.86
526.703	21.77
526.902	21.63
527.1	21.45
527.299	21.27
527.497	21.1
527.696	20.99
527.894	20.89
528.092	20.92
528.291	21
528.489	21.18
528.688	21.41
528.886	21.75
529.084	22.15
529.283	22.62
529.481	23.09
529.679	23.61
529.877	24.07
530.076	24.53
530.274	24.84
530.472	24.98
530.67	24.97
530.869	24.79
531.067	24.56
531.265	24.21
531.463	23.93
531.661	23.61
531.859	23.33
532.057	23.09
532.255	22.88
532.454	22.72
532.652	22.71
532.85	22.71
533.048	22.87
533.246	23.04
533.444	23.32
533.642	23.56
533.84	23.89
534.038	24.26
534.236	24.54
534.434	24.86
534.632	25.14
534.83	25.23
535.027	25.22
535.225	25.05
535.423	24.86
535.621	24.62
535.819	24.4
536.017	24.21
536.215	24.08
536.412	24.09
536.61	24.13
536.808	24.21
537.006	24.34
537.203	24.57
537.401	24.86
537.599	25.14
537.797	25.36
537.994	25.54
538.192	25.7
538.39	25.76
538.587	25.66
538.785	25.46
538.983	25.2
539.18	25
539.378	24.75
539.575	24.48
539.773	24.18
539.97	23.89
540.168	23.74
540.366	23.64
540.563	23.61
540.761	23.66
540.958	23.77
541.155	23.91
541.353	24.1
541.55	24.36
541.748	24.66
541.945	25
542.143	25.36
542.34	25.72
542.537	26.02
542.735	26.31
542.932	26.6
543.129	26.76
543.327	26.92
543.524	27.03
543.721	27.05
543.919	27.04
544.116	27.06
544.313	27.04
544.51	26.96
544.708	26.89
544.905	26.77
545.102	26.57
545.299	26.54
545.496	26.4
545.693	26.23
545.891	26.17
546.088	26.12
546.285	26.15
546.482	26.25
546.679	26.37
546.876	26.47
547.073	26.67
547.27	26.9
547.467	27.1
547.664	27.31
547.861	27.5
548.058	27.72
548.255	27.9
548.452	27.95
548.649	28.08
548.846	28.11
549.043	28.25
549.24	28.16
549.437	28.13
549.633	28.06
549.83	28.02
550.027	28.04
550.224	28.01
550.421	27.85
550.618	27.75
550.814	27.6
551.011	27.56
551.208	27.38
551.405	27.24
551.601	27.11
551.798	27.09
551.995	27.06
552.191	27.03
552.388	26.95
552.585	27.04
552.781	27.04
552.978	27.21
553.175	27.35
553.371	27.5
553.568	27.76
553.764	27.93
553.961	28.08
554.157	28.27
554.354	28.37
554.55	28.53
554.747	28.53
554.943	28.66
555.14	28.54
555.336	28.5
555.533	28.48
555.729	28.43
555.926	28.44
556.122	28.32
556.318	28.35
556.515	28.33
556.711	28.25
556.907	28.37
557.104	28.46
557.3	28.59
557.496	28.54
557.693	28.53
557.889	28.55
558.085	28.59
558.281	28.69
558.478	28.65
558.674	28.65
558.87	28.7
559.066	28.73
559.262	28.59
559.459	28.63
559.655	28.71
559.851	28.76
560.047	28.88
560.243	28.86
560.439	28.89
560.635	28.91
560.831	29.01
561.027	29.04
561.223	29.08
561.419	29.2
561.615	29.13
561.811	29.25
562.007	29.25
562.203	29.12
562.399	29.18
562.595	29.19
562.791	29.28
562.987	29.21
563.183	29.3
563.379	29.29
563.575	29.27
563.771	29.35
563.966	29.22
564.162	29.32
564.358	29.34
564.554	29.33
564.75	29.22
564.945	29.2
565.141	29.23
565.337	29.03
565.533	28.93
565.728	28.97
565.924	29.01
566.12	29.16
566.315	29.3
566.511	29.53
566.707	29.62
566.902	29.81
567.098	29.96
567.293	30.1
567.489	30.39
567.684	30.44
567.88	30.52
568.076	30.59
568.271	30.61
568.467	30.45
568.662	30.26
568.858	30.33
569.053	30.3
569.248	30.06
569.444	29.96
569.639	29.85
569.835	29.81
570.03	29.8
570.225	29.65
570.421	29.64
570.616	29.69
570.812	29.74
571.007	29.65
571.202	29.67
571.397	29.78
571.593	29.78
571.788	29.89
571.983	30.08
572.178	30.18
572.374	30.46
572.569	30.52
572.764	30.57
572.959	30.68
573.154	30.74
573.35	30.68
573.545	30.82
573.74	30.87
573.935	30.84
574.13	30.72
574.325	30.64
574.52	30.6
574.715	30.62
574.91	30.69
575.105	30.72
575.3	30.82
575.495	31.09
575.69	31.22
575.885	31.39
576.08	31.47
576.275	31.66
576.47	31.79
576.665	31.85
576.86	31.93
577.055	31.94
577.25	31.9
577.444	31.9
577.639	31.93
577.834	31.86
578.029	31.93
578.224	32.02
578.418	32.07
578.613	32.12
578.808	31.98
579.003	31.9
579.197	31.98
579.392	31.85
579.587	31.87
579.781	31.63
579.976	31.49
580.171	31.31
580.365	31.13
580.56	30.99
580.755	30.97
580.949	31
581.144	31.12
581.338	30.92
581.533	31.26
581.727	31.26
581.922	31.42
582.116	31.45
582.311	31.51
582.505	31.69
582.7	31.8
582.894	31.79
583.089	31.68
583.283	31.58
583.478	31.73
583.672	31.5
583.866	31.44
584.061	31.46
584.255	31.54
584.449	31.51
584.644	31.39
584.838	31.32
585.032	31.47
585.226	31.58
585.421	31.65
585.615	31.6
585.809	31.61
586.003	31.64
586.198	31.56
586.392	31.5
586.586	31.51
586.78	31.49
586.974	31.58
587.168	31.23
587.363	31.31
587.557	31.21
587.751	31.21
587.945	31.15
588.139	31.28
588.333	31.37
588.527	31.5
588.721	31.62
588.915	31.72
589.109	31.65
589.303	31.86
589.497	31.84
589.691	31.91
589.885	32.04
590.079	32.28
590.273	32.23
590.466	32.26
590.66	32.31
590.854	32.36
591.048	32.43
591.242	32.49
591.436	32.47
591.629	32.61
591.823	32.76
592.017	32.71
592.211	32.58
592.404	32.54
592.598	32.42
592.792	32.25
592.986	32.14
593.179	32
593.373	32.11
593.567	32.14
593.76	32.08
593.954	32.09
594.147	32.13
594.341	32.06
594.535	32.03
594.728	32.07
594.922	32.09
595.115	32.08
595.309	32.06
595.502	31.83
595.696	31.72
595.889	31.6
596.083	31.49
596.276	31.44
596.47	31.53
596.663	31.6
596.856	31.75
597.05	31.94
597.243	32.06
597.437	32.26
597.63	32.51
597.823	32.74
598.017	33.04
598.21	33.23
598.403	33.36
598.596	33.5
598.79	33.61
598.983	33.6
599.176	33.39
599.369	33.37
599.563	33.41
599.756	33.5
599.949	33.49
600.142	33.27
600.335	33.16
600.528	33.2
600.722	32.99
600.915	32.95
601.108	32.68
601.301	32.65
601.494	32.57
601.687	32.36
601.88	32.19
602.073	31.92
602.266	31.87
602.459	31.78
602.652	31.6
602.845	31.62
603.038	31.49
603.231	31.57
603.424	31.57
603.617	31.51
603.809	31.5
604.002	31.64
604.195	31.95
604.388	32.12
604.581	32.23
604.774	32.5
604.966	32.65
605.159	32.87
605.352	33.13
605.545	33.45
605.737	33.68
605.93	33.96
606.123	34.07
606.316	34.06
606.508	34.18
606.701	34.31
606.894	34.21
607.086	34.18
607.279	34
607.471	33.75
607.664	33.35
607.857	33.17
608.049	33
608.242	32.85
608.434	32.77
608.627	32.68
608.819	32.73
609.012	32.71
609.204	32.78
609.397	33.06
609.589	33.26
609.782	33.73
609.974	34.12
610.166	34.59
610.359	34.89
610.551	35.08
610.743	35.15
610.936	35.23
611.128	35.34
611.32	35.53
611.513	35.57
611.705	35.6
611.897	35.43
612.09	35.26
612.282	35.09
612.474	34.95
612.666	34.91
612.858	35.09
613.051	35.06
613.243	35.04
613.435	34.91
613.627	34.85
613.819	34.84
614.011	34.99
614.203	34.79
614.395	34.78
614.588	34.69
614.78	34.68
614.972	34.66
615.164	34.62
615.356	34.6
615.548	34.65
615.74	34.71
615.932	34.57
616.124	34.35
616.315	34.53
616.507	34.47
616.699	34.5
616.891	34.46
617.083	34.36
617.275	34.33
617.467	34.47
617.659	34.31
617.85	34.31
618.042	34.32
618.234	34.37
618.426	34.55
618.618	34.56
618.809	34.57
619.001	34.64
619.193	34.86
619.384	34.93
619.576	34.97
619.768	35.21
619.959	35.08
620.151	35.27
620.343	35.33
620.534	35.22
620.726	35.23
620.917	35.34
621.109	35.3
621.301	35.06
621.492	35.02
621.684	35
621.875	34.82
622.067	34.96
622.258	34.98
622.45	34.88
622.641	34.78
622.832	34.7
623.024	34.52
623.215	34.66
623.407	34.63
623.598	34.66
623.789	34.63
623.981	34.66
624.172	34.68
624.363	34.49
624.555	34.5
624.746	34.53
624.937	34.47
625.129	34.6
625.32	34.49
625.511	34.65
625.702	34.52
625.893	34.5
626.085	34.44
626.276	34.38
626.467	34.37
626.658	34.59
626.849	34.61
627.04	34.74
627.231	34.76
627.422	34.9
627.614	34.83
627.805	35.05
627.996	35.12
628.187	35.24
628.378	35.14
628.569	35.08
628.76	35.01
628.951	34.99
629.142	34.95
629.332	34.96
629.523	34.91
629.714	35.03
629.905	34.97
630.096	34.95
630.287	34.97
630.478	34.97
630.669	35.18
630.859	35.03
631.05	35.15
631.241	35.26
631.432	35.28
631.623	35.28
631.813	35.16
632.004	35.19
632.195	35.07
632.385	35.13
632.576	35.23
632.767	35.2
632.957	35.21
633.148	35.13
633.339	34.94
633.529	35.01
633.72	35.03
633.91	35.05
634.101	35.04
634.292	35.24
634.482	35.2
634.673	35.27
634.863	35.37
635.054	35.48
635.244	35.3
635.435	35.39
635.625	35.27
635.815	35.16
636.006	35.29
636.196	35.26
636.387	35.11
636.577	35.08
636.767	34.98
636.958	35.01
637.148	35.05
637.338	35.28
637.529	35.3
637.719	35.5
637.909	35.79
638.099	35.68
638.29	35.61
638.48	35.98
638.67	36.11
638.86	36.43
639.05	36.5
639.241	36.57
639.431	36.68
639.621	36.72
639.811	36.6
640.001	36.44
640.191	36.47
640.381	36.43
640.571	36.25
640.761	36.03
640.951	35.91
641.141	35.7
641.331	35.47
641.521	35.2
641.711	35.3
641.901	35.22
642.091	35.03
642.281	34.82
642.471	34.94
642.661	34.95
642.851	35.18
643.041	35.07
643.231	35.29
643.42	35.49
643.61	35.84
643.8	35.81
643.99	35.83
644.18	35.9
644.369	36.14
644.559	36.23
644.749	36.05
644.939	36.02
645.128	36.07
645.318	35.96
645.508	35.99
645.697	35.86
645.887	35.88
646.076	36.13
646.266	36.27
646.456	36.39
646.645	36.31
646.835	36.3
647.024	36.1
647.214	36.03
647.403	36.02
647.593	35.88
647.782	35.79
647.972	35.7
648.161	35.58
648.351	35.61
648.54	35.6
648.73	35.55
648.919	35.59
649.108	35.55
649.298	35.62
649.487	35.67
649.677	35.77
649.866	35.85
650.055	35.68
650.244	35.71
650.434	35.5
650.623	35.49
650.812	35.47
651.002	35.67
651.191	35.93
651.38	35.97
651.569	35.92
651.758	35.87
651.947	36.07
652.137	36.46
652.326	36.4
652.515	36.56
652.704	36.65
652.893	36.91
653.082	36.92
653.271	37.11
653.46	37.38
653.649	37.57
653.838	37.8
654.027	37.56
654.216	37.45
654.405	37.64
654.594	37.69
654.783	37.66
654.972	37.63
655.161	37.6
655.35	37.4
655.539	36.98
655.728	37.06
655.916	36.75
656.105	36.78
656.294	36.67
656.483	36.47
656.672	36.35
656.86	35.98
657.049	35.85
657.238	35.66
657.427	35.46
657.615	35.65
657.804	35.43
657.993	35.32
658.181	35.24
658.37	35.27
658.559	35.19
658.747	35.22
658.936	35.48
659.125	35.61
659.313	35.76
659.502	35.85
659.69	35.81
659.879	36.06
660.067	36.41
660.256	36.71
660.444	36.79
660.633	37.26
660.821	37.56
661.01	37.73
661.198	37.95
661.387	38.12
661.575	38.27
661.763	38.37
661.952	38.36
662.14	38.29
662.328	38.29
662.517	38.36
662.705	38.06
662.893	37.89
663.082	38.06
663.27	37.67
663.458	37.53
663.646	37.49
663.834	37.31
664.023	37.32
664.211	37.58
664.399	37.41
664.587	37.37
664.775	37.32
664.963	37.2
665.152	37.1
665.34	37.31
665.528	37.33
665.716	37.47
665.904	37.56
666.092	37.48
666.28	37.38
666.468	37.36
666.656	37.22
666.844	37.41
667.032	37.49
667.22	37.45
667.408	37.35
667.596	37.32
667.784	37.06
667.971	37.21
668.159	37.13
668.347	36.77
668.535	36.89
668.723	36.96
668.911	36.87
669.098	36.79
669.286	36.85
669.474	36.92
669.662	36.79
669.849	37.19
670.037	36.89
670.225	36.92
670.413	37.27
670.6	37.19
670.788	37.43
670.976	37.61
671.163	37.62
671.351	37.37
671.538	37.24
671.726	37.35
671.913	37.02
672.101	37.26
672.289	37.32
672.476	37.38
672.664	37.42
672.851	37.48
673.039	37.14
673.226	37.43
673.413	37.4
673.601	37.45
673.788	37.54
673.976	37.84
674.163	37.8
674.35	37.7
674.538	37.67
674.725	37.56
674.912	37.25
675.1	37.37
675.287	37.34
675.474	37.33
675.662	37.16
675.849	37.3
676.036	37.08
676.223	37.2
676.411	37.19
676.598	36.76
676.785	36.95
676.972	37.01
677.159	37.06
677.346	36.69
677.533	36.91
677.721	37.27
677.908	37.13
678.095	37.17
678.282	36.9
678.469	36.88
678.656	37.14
678.843	37.01
679.03	37.03
679.217	37.08
679.404	37.18
679.591	37
679.778	36.76
679.964	36.88
680.151	36.95
680.338	37.15
680.525	37.19
680.712	37.2
680.899	37.42
681.086	37.37
681.272	37.53
681.459	37.66
681.646	37.91
681.833	38.28
682.02	38.32
682.206	38.49
682.393	38.53
682.58	38.74
682.766	38.89
682.953	38.96
683.14	39.28
683.326	39.33
683.513	39.3
683.7	39.18
683.886	38.81
684.073	38.8
684.259	38.65
684.446	38.78
684.632	38.73
684.819	38.8
685.005	38.36
685.192	38.1
685.378	37.83
685.565	37.98
685.751	37.9
685.938	38.03
686.124	37.88
686.31	37.79
686.497	37.66
686.683	37.53
686.87	37.28
687.056	37.6
687.242	37.56
687.429	37.72
687.615	37.76
687.801	37.67
687.987	37.74
688.174	37.77
688.36	37.71
688.546	37.68
688.732	37.85
688.918	37.82
689.105	37.75
689.291	37.99
689.477	38.08
689.663	37.97
689.849	38.23
690.035	38.62
690.221	38.88
690.407	39.56
690.593	39.61
690.779	39.42
690.965	39.65
691.151	39.82
691.337	39.86
691.523	39.75
691.709	39.9
691.895	39.92
692.081	39.7
692.267	39.65
692.453	39.34
692.639	39.45
692.825	39.45
693.011	39.32
693.196	39.49
693.382	39.2
693.568	38.96
693.754	39
693.94	38.96
694.125	38.88
694.311	38.72
694.497	38.66
694.682	38.42
694.868	38.6
695.054	38.64
695.239	38.54
695.425	38.72
695.611	38.83
695.796	38.66
695.982	38.54
696.168	38.45
696.353	38.21
696.539	37.97
696.724	37.94
696.91	37.72
697.095	37.5
697.281	37.15
697.466	36.89
697.652	36.9
697.837	37.13
698.023	37.09
698.208	37.14
698.393	37.51
698.579	37.67
698.764	37.8
698.949	37.94
699.135	38.26
699.32	38.5
699.505	39.04
699.691	39.23
699.876	38.99
700.061	39.47
700.246	39.54
700.432	39.52
700.617	39.59
700.802	39.57
700.987	39.66
701.172	39.72
701.358	39.75
701.543	39.64
701.728	39.69
701.913	39.97
702.098	39.79
702.283	39.96
702.468	39.5
702.653	39.81
702.838	40.09
703.023	40.05
703.208	39.98
703.393	40.19
703.578	40.16
703.763	40.15
703.948	39.78
704.133	39.68
704.318	39.38
704.503	39.76
704.688	39.43
704.873	39.24
705.057	39.37
705.242	39.6
705.427	39.46
705.612	39.5
705.797	39.38
705.981	39.59
706.166	39.73
706.351	39.68
706.536	39.6
706.72	39.53
706.905	39.53
707.09	39.53
707.274	39.33
707.459	39.62
707.644	39.5
707.828	39.37
708.013	39.2
708.197	38.83
708.382	38.93
708.567	38.88
708.751	39.03
708.936	38.89
709.12	38.79
709.305	38.67
709.489	38.27
709.673	38.26
709.858	38.27
710.042	38.41
710.227	38.47
710.411	38.45
710.596	38.56
710.78	38.59
710.964	38.96
711.149	39.02
711.333	39.27
711.517	39.35
711.702	39.58
711.886	39.8
712.07	39.75
712.254	40.1
712.438	40.41
712.623	40.38
712.807	40.14
712.991	40.1
713.175	40.18
713.359	39.81
713.544	39.92
713.728	39.74
713.912	39.9
714.096	40.05
714.28	39.88
714.464	39.9
714.648	39.9
714.832	40.41
715.016	40.4
715.2	40.37
715.384	40.68
715.568	40.69
715.752	40.49
715.936	40.46
716.12	40.72
716.304	40.86
716.488	40.49
716.671	40.57
716.855	40.32
717.039	40.35
717.223	40.16
717.407	40.1
717.59	39.97
717.774	40.18
717.958	40.17
718.142	40.06
718.325	39.99
718.509	40.46
718.693	40.55
718.877	40.33
719.06	39.91
719.244	40.11
719.428	39.86
719.611	39.55
719.795	39.62
719.978	39.81
720.162	39.53
720.345	39.6
720.529	39.45
720.713	39.73
720.896	40.04
721.08	40.44
721.263	40.28
721.446	40.59
721.63	41.1
721.813	40.91
721.997	40.69
722.18	40.71
722.364	40.8
722.547	40.5
722.73	39.91
722.914	39.61
723.097	39.42
723.28	40.02
723.464	39.81
723.647	39.72
723.83	40.04
724.013	40.05
724.197	40.03
724.38	39.99
724.563	40.29
724.746	40.36
724.929	40.81
725.112	40.84
725.296	39.94
725.479	39.85
725.662	39.98
725.845	39.73
726.028	39.21
726.211	39.12
726.394	38.92
726.577	38.54
726.76	38.34
726.943	38.17
727.126	37.91
727.309	38.46
727.492	38.75
727.675	38.19
727.858	38.05
728.041	38.73
728.224	39.07
728.407	39.03
728.589	39.52
728.772	39.57
728.955	39.83
729.138	39.83
729.321	39.34
729.503	39.43
729.686	39.97
729.869	40.26
730.052	40.19
730.234	39.61
730.417	39.49
730.6	38.84
730.782	38.73
730.965	38.8
731.148	38.93
731.33	39.36
731.513	39.16
731.695	39.03
731.878	38.75
732.061	38.42
732.243	38.53
732.426	38.61
732.608	39.08
732.791	39.12
732.973	38.65
733.156	38.65
733.338	38.21
733.52	38.18
733.703	38.06
733.885	38.65
734.068	38.81
734.25	39.4
734.432	39.27
734.615	39.13
734.797	39.12
734.979	39.01
735.162	39.11
735.344	39.71
735.526	39.64
735.708	39.66
735.891	39.5
736.073	39.2
736.255	39.18
736.437	39.18
736.619	39.11
736.802	39.33
736.984	39.26
737.166	39.15
737.348	38.94
737.53	39.1
737.712	39.13
737.894	38.78
738.076	38.89
738.258	38.6
738.44	38.66
738.622	39.04
738.804	38.45
738.986	38.49
739.168	38.37
739.35	38.37
739.532	38.25
739.714	38.34
739.896	38.01
740.078	37.61
740.259	37.55
740.441	37.78
740.623	37.27
740.805	38.01
740.987	38.35
741.168	38.37
741.35	38.56
741.532	38.62
741.714	38.56
741.895	39.35
742.077	39.68
742.259	39.61
742.44	39.51
742.622	40.27
742.804	39.73
742.985	39.55
743.167	39.79
743.348	39.63
743.53	39.32
743.711	39.76
743.893	39.65
744.075	39.53
744.256	40.15
744.438	39.6
744.619	39.31
744.8	39.97
744.982	39.69
745.163	39.18
745.345	39.32
745.526	40.22
745.707	39.8
745.889	39.24
746.07	39.74
746.252	39.23
746.433	39.74
746.614	39.51
746.795	38.74
746.977	39.19
747.158	39.7
747.339	40
747.52	39.29
747.702	39.14
747.883	39.07
748.064	38.84
748.245	39.04
748.426	38.63
748.607	38.49
748.788	38.74
748.97	38.79
749.151	38.7
749.332	37.83
749.513	37.94
749.694	38.69
749.875	39.04
750.056	39.15
750.237	38.46
750.418	38.86
750.599	38.79
750.78	39
750.96	38.25
751.141	38.17
751.322	38.29
751.503	38.68
751.684	38.13
751.865	37.45
752.046	37
752.226	37.41
752.407	37.47
752.588	37.56
752.769	37.75
752.949	38.05
753.13	38.58
753.311	39.14
753.492	38.49
753.672	38.91
753.853	39.66
754.034	40.3
754.214	40.47
754.395	40.46
754.575	40.03
754.756	39.8
754.937	39.79
755.117	39.29
755.298	39.19
755.478	38.91
755.659	38.39
755.839	38.33
756.02	37.84
756.2	37.46
756.381	37.17
756.561	37.56
756.741	37.81
756.922	38.03
757.102	37.81
757.283	37.83
757.463	38.24
757.643	38.04
757.823	37.71
758.004	37.2
758.184	36.62
758.364	37.13
758.545	37.04
758.725	36.83
758.905	36.55
759.085	36.7
759.265	35.9
759.446	35.77
759.626	35.74
759.806	35.48
759.986	35.97
760.166	36.71
760.346	36.36
760.526	36.25
760.706	36.03
760.886	35.89
761.066	35.93
761.246	36.43
761.426	36.57
761.606	36.25
761.786	36.19
761.966	36.05
762.146	35.99
762.326	35.99
762.506	35.75
762.686	35.31
762.866	35.51
763.046	35.63
763.225	35.36
763.405	34.85
763.585	34.66
763.765	34.46
763.945	34.3
764.124	34.14
764.304	34.27
764.484	34.26
764.664	34.74
764.843	34.76
765.023	34.38
765.203	34.58
765.382	34.93
765.562	35.49
765.741	35.96
765.921	36.14
766.101	36.09
766.28	35.51
766.46	35.94
766.639	36.31
766.819	36.17
766.998	36.4
767.178	36.16
767.357	36.44
767.537	36.48
767.716	36.77
767.896	36.38
768.075	36.43
768.254	36.18
768.434	35.98
768.613	35.89
768.792	35.89
768.972	35.95
769.151	35.79
769.33	35.2
769.51	35.58
769.689	35.39
769.868	36.06
770.047	37.17
770.226	37.72
770.406	38.12
770.585	37.68
770.764	37.78
770.943	37.66
771.122	38.25
771.301	39.26
771.48	38.33
771.66	38.24
771.839	38.07
772.018	36.86
772.197	36.67
772.376	36.32
772.555	36.47
772.734	36.35
772.913	36.48
773.092	36.53
773.271	35.77
773.449	36.54
773.628	36.54
773.807	36.51
773.986	36.7
774.165	36.03
774.344	36.17
774.523	36.23
774.701	36.38
774.88	36.36
775.059	35.48
775.238	36.22
775.417	36.6
775.595	36.64
775.774	36.29
775.953	36.02
776.131	37.35
776.31	37.37
776.489	37.65
776.667	37.62
776.846	38.05
777.025	38.47
777.203	37.41
777.382	36.62
777.56	37.07
777.739	37.74
777.917	37.65
778.096	37.86
778.274	37.85
778.453	37.86
778.631	37.96
778.81	37.39
778.988	37.17
779.166	37.67
779.345	38.25
779.523	38.06
779.702	38.45
779.88	38.77
780.058	37.66
780.237	37.73
780.415	37.36
780.593	37.2
780.771	38.07
780.95	38.56
781.128	38.44
781.306	38.62
781.484	38.94
781.662	38.49
781.841	39.06
782.019	39.38
782.197	39.18
782.375	39.61
782.553	39.61
782.731	38.69
782.909	38.65
783.087	39.25
783.265	38.9
783.443	38.08
783.621	38.5
783.799	39.04
783.977	38.77
784.155	38.74
784.333	38.56
784.511	38.31
784.689	38.71
784.867	39.19
785.045	38.91
785.223	38.33
785.4	38.53
785.578	38.29
785.756	36.81
785.934	36.7
786.112	36.82
786.289	36.17
786.467	35.94
786.645	35.65
786.823	35.23
787	35.12
787.178	35.41
787.356	35.74
787.533	35.57
787.711	36.45
787.889	36.89
788.066	37.04
788.244	37.73
788.421	38.36
788.599	38.54
788.776	38.33
788.954	38.56
789.131	38.44
789.309	38.8
789.486	38.98
789.664	38.97
789.841	38.78
790.019	38.32
790.196	38.24
790.373	37.55
790.551	37.66
790.728	37.93
790.906	38.48
791.083	37.46
791.26	36.79
791.437	36.18
791.615	36.12
791.792	36.49
791.969	36.89
792.146	36.19
792.324	36.74
792.501	37.11
792.678	36.71
792.855	35.03
793.032	36.69
793.209	37.35
793.387	37.51
793.564	37.52
793.741	37.34
793.918	37.08
794.095	37.11
794.272	36.99
794.449	36.09
794.626	36.95
794.803	38.66
794.98	38.59
795.157	37.78
795.334	38.36
795.511	37.92
795.688	37.88
795.864	37.63
796.041	38.17
796.218	38.42
796.395	39.12
796.572	38.9
796.749	37.67
796.925	37.47
797.102	37.54
797.279	36.81
797.456	36.95
797.632	36.7
797.809	37.03
797.986	37.37
798.162	37.27
798.339	35.82
798.516	36.67
798.692	37.64
798.869	36.64
799.046	37.19
799.222	37.82
799.399	37.34
799.575	37.35
799.752	37.5
799.928	37.76
800.105	38.28
800.281	38.86
800.458	38.78
800.634	38.33
800.811	39.79
800.987	39.19
801.163	38.87
801.34	39.23
801.516	39.94
801.692	40.98
801.869	40.22
802.045	39.57
802.221	39.95
802.398	39.24
802.574	38.1
802.75	38.14
802.926	37.76
803.103	37.65
803.279	37.08
803.455	37.33
803.631	35.62
803.807	36.06
803.983	35.93
804.16	36.07
804.336	35.13
804.512	36.09
804.688	34.72
804.864	35.71
805.04	35.56
805.216	36.19
805.392	35.26
805.568	36.65
805.744	36.69
805.92	35.81
806.096	36.03
806.272	37.9
806.448	37.77
806.623	38.65
806.799	37.85
806.975	38.33
807.151	37.87
807.327	37.38
807.503	36.52
807.678	36.26
807.854	37.36
808.03	37.26
808.206	36.35
808.381	37.14
808.557	36.77
808.733	37.24
808.908	36.69
809.084	36.92
809.26	38.4
809.435	38.31
809.611	38.32
809.787	37.68
809.962	38.51
810.138	39.27
810.313	38.45
810.489	38.42
810.664	38.52
810.84	39.36
811.015	40.94
811.191	40.88
811.366	42.36
811.542	42.62
811.717	43.56
811.892	43.8
812.068	43.09
812.243	42.96
812.419	43.41
812.594	43.46
812.769	42.85
812.944	41.58
813.12	41.62
813.295	41.23
813.47	40.78
813.645	40.71
813.821	40.34
813.996	40.17
814.171	40.64
814.346	41.03
814.521	41.63
814.697	43.13
814.872	43.82
815.047	42.56
815.222	42.6
815.397	42.21
815.572	41.27
815.747	40.46
815.922	40.84
816.097	40.89
816.272	40.54
816.447	39.59
816.622	38.42
816.797	37.58
816.972	38.44
817.147	36.53
817.322	36
817.496	36.29
817.671	36.83
817.846	35.94
818.021	35.75
818.196	36.34
818.371	36.62
818.545	35.69
818.72	36.25
818.895	36.03
819.069	36.51
819.244	37.88
819.419	37.88
819.594	38.39
819.768	38.55
819.943	38.87
820.117	37.96
820.292	37.82
820.467	38.2
820.641	37.92
820.816	37.53
820.99	37.12
821.165	36.3
821.339	35.83
821.514	35.16
821.688	34.63
821.863	33.78
822.037	33.19
822.212	32.69
822.386	31.95
822.56	31.34
822.735	30.83
822.909	30.33
823.084	29.95
823.258	29.4
823.432	28.83
823.606	28.53
823.781	28.51
823.955	28.55
824.129	28.2
824.303	28.24
824.478	28.15
824.652	28
824.826	28.19
825	28.18
825.174	28.77
825.348	29.26
825.523	29.3
825.697	29.91
825.871	30.18
826.045	30.96
826.219	30.9
826.393	31.03
826.567	31.13
826.741	31.24
826.915	30.99
827.089	30.88
827.263	30.64
827.437	30.65
827.611	29.75
827.784	29.38
827.958	28.52
828.132	28.24
828.306	27.87
828.48	28.18
828.654	27.54
828.827	28.22
829.001	27.36
829.175	27.07
829.349	27.44
829.522	27.73
829.696	28.77
829.87	29.31
830.044	30.92
830.217	31.71
830.391	31.37
830.565	31.92
830.738	32.2
830.912	33.98
831.085	34.6
831.259	35.31
831.432	36.63
831.606	36.77
831.779	36.56
831.953	35.81
832.126	35.82
832.3	36.13
832.473	36.18
832.647	35.71
832.82	35.33
832.994	35.34
833.167	34.22
833.34	33.51
833.514	32.47
833.687	32.69
833.86	32.69
834.034	32.24
834.207	32.23
834.38	32.13
834.553	32.12
834.727	31.79
834.9	30.87
835.073	30.47
835.246	30.55
835.419	31.2
835.593	31.13
835.766	31.29
835.939	31.73
836.112	31.05
836.285	31.02
836.458	30.94
836.631	31.28
836.804	32.52
836.977	33.32
837.15	33.34
837.323	32.47
837.496	32.25
837.669	31.07
837.842	31.67
838.015	33.55
838.188	33.82
838.361	34.03
838.533	34.41
838.706	34.86
838.879	35.3
839.052	35.5
839.225	35.69
839.398	35.51
839.57	36.29
839.743	35.65
839.916	34.67
840.088	35.39
840.261	34.54
840.434	34.4
840.607	33.86
840.779	36.12
840.952	35.16
841.124	35.34
841.297	36.77
841.47	36.84
841.642	36.03
841.815	35.78
841.987	35.98
842.16	36.39
842.332	35.94
842.505	36.29
842.677	35.24
842.85	34.84
843.022	36.58
843.194	36.43
843.367	37.67
843.539	37.92
843.712	37.43
843.884	38.13
844.056	39.56
844.229	40.24
844.401	41.7
844.573	41.26
844.745	44.02
844.918	42.49
845.09	41.23
845.262	39.87
845.434	42.16
845.606	42.82
845.779	42.2
845.951	41.83
846.123	44.49
846.295	43.2
846.467	41.77
846.639	41.57
846.811	41.1
846.983	42.15
847.155	41.91
847.327	42.69
847.499	43.73
847.671	42.77
847.843	42.48
848.015	39.21
848.187	40.01
848.359	41.6
848.531	40.56
848.703	41.32
848.875	41.98
849.047	42.69
849.218	43.35
849.39	43.42
849.562	45.7
849.734	47.06
849.905	49.48
850.077	48.41
850.249	47.46
850.421	48.13
850.592	47.22
850.764	46.33
850.936	48.04
851.107	45.05
851.279	45.5
851.451	42.32
851.622	44.26
851.794	43.63
851.965	42.68
852.137	41.88
852.308	42.44
852.48	46.5
852.651	45.61
852.823	43.05
852.994	42.08
853.166	43.99
853.337	48.02
853.509	44.54
853.68	42.29
853.851	46.75
854.023	46.94
854.194	45.35
854.365	42.39
854.537	42.36
854.708	43.09
854.879	49.19
855.05	47.92
855.222	45.32
855.393	46.11
855.564	47.87
855.735	44.44
855.906	44.02
856.078	47.04
856.249	46.77
856.42	49.73
856.591	52.88
856.762	47.15
856.933	47.04
857.104	48.92
857.275	49.14
857.446	49.44
857.617	49.48
857.788	50.68
857.959	47.8
858.13	48.93
858.301	49.27
858.472	46.58
858.643	47.88
858.814	49.1
858.985	48.11
859.155	47.77
859.326	48.71
859.497	50.59
859.668	47.87
859.839	50.44
860.009	53.23
860.18	48.99
860.351	48.42
860.522	47.36
860.692	43.56
860.863	43.1
861.034	43.49
861.204	41.54
861.375	43.01
861.546	46.31
861.716	42.75
861.887	42.55
862.057	44.52
862.228	42.83
862.398	45.21
862.569	46.44
862.739	48.37
862.91	49.54
863.08	50.86
863.251	52.06
863.421	49.69
863.592	53.39
863.762	53.42
863.932	55.08
864.103	54.89
864.273	54.26
864.443	54.39
864.614	54.45
864.784	53.12
864.954	54.11
865.125	54.22
865.295	57.51
865.465	53.22
865.635	50.77
865.805	50.52
865.976	54.86
866.146	55.08
866.316	54.48
866.486	53.3
866.656	54.24
866.826	52.42
866.996	44.62
867.166	43.99
867.336	44.06
867.506	45.69
867.676	43.16
867.846	42.44
868.016	39.96
868.186	39.83
868.356	39.38
868.526	38.41
868.696	37.78
868.866	40.04
869.036	40.98
869.206	43.35
869.376	40.11
869.545	41.65
869.715	42.73
869.885	43.36
870.055	46.31
870.224	45.89
870.394	51.66
870.564	53.91
870.734	53.38
870.903	50.75
871.073	52.42
871.243	56.04
871.412	54.65
871.582	53.27
871.751	57.32
871.921	58.55
872.091	57.3
872.26	51.98
872.43	49.9
872.599	52.24
872.769	54.7
872.938	53.5
873.108	48.63
873.277	47.52
873.446	46.06
873.616	41.5
873.785	39.46
873.955	40.81
874.124	42.39
874.293	43.31
874.463	42.93
874.632	43.05
874.801	42.4
874.971	44.82
875.14	45.8
875.309	48.59
875.478	46.73
875.647	43.12
875.817	42.67
875.986	43.43
876.155	46.44
876.324	45.61
876.493	45.88
876.662	44.24
876.831	45.7
877	46.47
877.17	43.86
877.339	48.38
877.508	49.92
877.677	51.5
877.846	48.47
878.015	44.22
878.184	44.47
878.352	40.49
878.521	42.27
878.69	39.86
878.859	36.91
879.028	36.31
879.197	36.64
879.366	36.6
879.534	35.63
879.703	35.83
879.872	37.31
880.041	36.71
880.21	35.33
880.378	33.69
880.547	32.37
880.716	31.89
880.884	31.48
881.053	30.1
881.222	29.5
881.39	28.28
881.559	27.64
881.727	26.65
881.896	26.02
882.065	26.12
882.233	26.52
882.402	26.8
882.57	26.65
882.739	26.01
882.907	25.51
883.076	25.2
883.244	25.39
883.412	25.3
883.581	24.71
883.749	24.59
883.918	24.28
884.086	23.68
884.254	23.24
884.423	24.37
884.591	25.12
884.759	25.42
884.927	25.3
885.096	26.1
885.264	26.31
885.432	27.74
885.6	27.2
885.769	27.86
885.937	28.06
886.105	28.11
886.273	27.18
886.441	27.22
886.609	28.14
886.777	28.54
886.945	27.26
887.113	26.98
887.281	26.68
887.449	28.41
887.617	29.62
887.785	31.48
887.953	34.29
888.121	34.82
888.289	35.29
888.457	39.17
888.625	41.62
888.793	43.24
888.961	44.99
889.129	48.37
889.296	47.95
889.464	48.62
889.632	47.11
889.8	46.69
889.967	45.42
890.135	46.79
