Data from JASIL_3284_Reflection_1.txt Node
Date: Tue Nov 17 19:18:34 EST 2015
User: Geneva
Spectrometer: USB4E03002
Autoset integration time: false
Trigger mode: 4
Integration Time (sec): 1.000000E-1
Scans to average: 10
Electric dark correction enabled: false
Nonlinearity correction enabled: false
Boxcar width: 5
Stray light correction enabled: false
XAxis mode: Wavelengths
Stop averaging: false
Number of Pixels in Spectrum: 3648
>>>>>Begin Spectral Data<<<<<
177.575	176.47
177.794	218.18
178.014	528.95
178.233	4862.5
178.452	-1687.5
178.672	-116.74
178.891	-208.75
179.11	-98.75
179.33	-15.41
179.549	-61.19
179.768	-93.48
179.987	-248
180.207	-625
180.426	-384.06
180.645	427.88
180.864	199.64
181.084	120.65
181.303	111.63
181.522	150.4
181.741	122.84
181.96	139.46
182.179	145.23
182.398	173.57
182.618	175.58
182.837	186.32
183.056	-1458.33
183.275	5.36
183.494	-8.28
183.713	7.68
183.932	24.87
184.151	18.14
184.37	17.4
184.589	2.69
184.808	-1.42
185.027	-18.33
185.246	-52.01
185.465	-131
185.684	-3505
185.903	354.36
186.122	298.8
186.341	275.41
186.56	363.6
186.779	305.11
186.998	202.24
187.216	190.08
187.435	178.68
187.654	221.94
187.873	354.9
188.092	325.8
188.311	286.97
188.53	229.1
188.748	246.77
188.967	275.71
189.186	324.65
189.405	308.87
189.623	268.21
189.842	347.19
190.061	379.66
190.28	244
190.498	377.78
190.717	-9762.5
190.936	-603.88
191.154	-345.08
191.373	-245.57
191.592	-4372.73
191.81	435.97
192.029	-1303.85
192.248	4120
192.466	172.22
192.685	450.75
192.904	103.95
193.122	58.59
193.341	68.41
193.559	102.56
193.778	126.49
193.996	150.36
194.215	196.32
194.433	255.8
194.652	253.2
194.87	1009.41
195.089	352.05
195.307	1263.64
195.526	4072.41
195.744	-1139.47
195.963	746.24
196.181	424.13
196.399	583.47
196.618	466.78
196.836	702.27
197.055	650
197.273	791.07
197.491	886.61
197.71	943.48
197.928	1234.25
198.146	253.41
198.365	292.66
198.583	214.62
198.801	205.56
199.019	218.52
199.238	126.27
199.456	58.99
199.674	62.23
199.892	83.18
200.111	75.3
200.329	99.83
200.547	112.59
200.765	109.4
200.983	162.55
201.202	122.05
201.42	164.08
201.638	216.54
201.856	1255.1
202.074	-3276.92
202.292	1935.29
202.51	-855.56
202.728	205.58
202.946	202.23
203.165	198.71
203.383	251.28
203.601	597.33
203.819	233.2
204.037	298.98
204.255	194.55
204.473	202.62
204.691	170.95
204.909	166.01
205.127	192.96
205.345	217.71
205.562	239.15
205.78	284.35
205.998	129
206.216	93.61
206.434	79.53
206.652	99.46
206.87	61.73
207.088	68.15
207.306	87.7
207.523	61.89
207.741	54.13
207.959	71.46
208.177	74.31
208.395	84.92
208.612	82.11
208.83	46.87
209.048	50.22
209.266	48.97
209.483	50.52
209.701	41.33
209.919	21.66
210.136	26.32
210.354	27.29
210.572	37.87
210.79	50.1
211.007	70.82
211.225	132.02
211.442	111.55
211.66	139.47
211.878	142.19
212.095	121.4
212.313	143.65
212.53	145.82
212.748	138.67
212.966	147.53
213.183	136.45
213.401	146.38
213.618	148.39
213.836	210.02
214.053	238.7
214.271	198.19
214.488	354.17
214.705	236.43
214.923	244.23
215.14	241.1
215.358	151.61
215.575	202.31
215.793	170.07
216.01	153.3
216.227	146.48
216.445	114.65
216.662	123.13
216.879	126.62
217.097	117.68
217.314	107.49
217.531	125.95
217.749	133.74
217.966	94.11
218.183	109.52
218.4	127.29
218.618	120.13
218.835	115.52
219.052	140.23
219.269	214.47
219.487	179.1
219.704	118.3
219.921	104.84
220.138	96.56
220.355	97.24
220.572	109.23
220.79	75.41
221.007	101.85
221.224	83.23
221.441	70.79
221.658	34.28
221.875	25.9
222.092	60.91
222.309	59.14
222.526	72.36
222.743	95.26
222.96	100.8
223.177	124.95
223.394	124.23
223.611	135.22
223.828	128.34
224.045	132.91
224.262	149.36
224.479	130.4
224.696	117.25
224.913	107.06
225.13	72.85
225.347	66.98
225.564	61.26
225.781	59.18
225.997	65.99
226.214	53.72
226.431	54.42
226.648	47.63
226.865	40.68
227.082	35.19
227.298	30.46
227.515	31.33
227.732	29.01
227.949	25.49
228.165	22.97
228.382	20.59
228.599	21.28
228.816	21.11
229.032	15.32
229.249	20.05
229.466	27.01
229.682	27.39
229.899	28.32
230.116	23.47
230.332	23.82
230.549	25.95
230.765	17.57
230.982	28.52
231.199	22.22
231.415	34.96
231.632	23.22
231.848	12.27
232.065	6.28
232.281	-1.37
232.498	3.87
232.714	6.5
232.931	14.23
233.147	20.19
233.364	22.22
233.58	30.97
233.797	31.07
234.013	35.12
234.23	33.29
234.446	35.99
234.662	48.96
234.879	44.96
235.095	43.84
235.312	35.63
235.528	42.45
235.744	31.84
235.961	30.94
236.177	22.84
236.393	32.16
236.61	27.42
236.826	25.91
237.042	17.39
237.258	32.85
237.475	37.99
237.691	41.14
237.907	31.68
238.123	25.26
238.339	22.05
238.556	23.89
238.772	22.03
238.988	27.94
239.204	23.01
239.42	21.05
239.636	17.72
239.853	12.79
240.069	11.04
240.285	16.77
240.501	16.82
240.717	14.97
240.933	14.91
241.149	13
241.365	11.06
241.581	15.83
241.797	11.95
242.013	13.32
242.229	15.64
242.445	15.8
242.661	10.71
242.877	14.53
243.093	18.71
243.309	18.25
243.525	16.93
243.741	19.74
243.957	18.13
244.173	23.17
244.388	18.62
244.604	16.16
244.82	14.78
245.036	15.97
245.252	16.19
245.468	14.73
245.683	14.21
245.899	16.11
246.115	12.18
246.331	12.87
246.547	12.89
246.762	12.17
246.978	12.81
247.194	14.65
247.409	15.58
247.625	18.17
247.841	21.05
248.057	22.65
248.272	20.91
248.488	25.65
248.703	26.21
248.919	26.94
249.135	28.07
249.35	30.44
249.566	29.83
249.782	29.39
249.997	23.39
250.213	17.84
250.428	18.52
250.644	16.46
250.859	18.48
251.075	17.63
251.29	15.63
251.506	14.99
251.721	12.9
251.937	13.94
252.152	9.25
252.368	7.8
252.583	10.05
252.798	9.43
253.014	12.26
253.229	12.22
253.445	13.43
253.66	22.22
253.875	26.78
254.091	26.21
254.306	27.47
254.521	31.81
254.737	31.46
254.952	31.71
255.167	27.81
255.383	28.49
255.598	28.29
255.813	26.64
256.028	18.84
256.244	18.32
256.459	17.78
256.674	9.14
256.889	7.88
257.104	8.22
257.32	11.33
257.535	12.32
257.75	8.9
257.965	5.74
258.18	6.03
258.395	7.9
258.61	7.2
258.826	7.56
259.041	10.19
259.256	10.25
259.471	11.42
259.686	9.67
259.901	10.01
260.116	12.19
260.331	12.89
260.546	12.72
260.761	13.07
260.976	13.65
261.191	11.97
261.406	10.17
261.621	9.11
261.836	7.37
262.05	7.49
262.265	4.93
262.48	6
262.695	6.74
262.91	10.54
263.125	11.91
263.34	14.2
263.555	15.45
263.769	16.9
263.984	20.24
264.199	22.09
264.414	21.48
264.629	22.07
264.843	21.12
265.058	19.39
265.273	17.64
265.488	12.86
265.702	10.18
265.917	12.45
266.132	11.14
266.346	7.68
266.561	10.26
266.776	10.13
266.99	10.18
267.205	8.88
267.42	10.85
267.634	10.46
267.849	12.57
268.063	13.92
268.278	11.08
268.492	14.34
268.707	14.33
268.922	10.42
269.136	10.8
269.351	11.21
269.565	10.8
269.78	10.32
269.994	8.35
270.209	8.46
270.423	9.08
270.637	11.27
270.852	9.75
271.066	11.71
271.281	11.49
271.495	12.03
271.709	9.9
271.924	10.94
272.138	11.07
272.353	11.95
272.567	12.76
272.781	13.16
272.996	13.91
273.21	13.97
273.424	13.21
273.638	12.86
273.853	12.71
274.067	13.64
274.281	14.85
274.495	13.9
274.71	15.04
274.924	13.44
275.138	12.46
275.352	10.41
275.566	9.9
275.781	9.69
275.995	11.3
276.209	12.22
276.423	14.98
276.637	14.19
276.851	11.83
277.065	11.12
277.279	11.58
277.493	12.28
277.707	12.36
277.921	12.88
278.135	12.54
278.349	12.26
278.563	11.22
278.777	8.62
278.991	8.48
279.205	11.62
279.419	9.64
279.633	9.84
279.847	11.11
280.061	10.81
280.275	10.09
280.489	12.48
280.703	11.03
280.917	10.28
281.131	11.98
281.344	12.87
281.558	11.08
281.772	12.63
281.986	11.98
282.2	9.74
282.414	10.49
282.627	11.53
282.841	8.99
283.055	8.46
283.269	9.71
283.482	8.02
283.696	7.02
283.91	6.57
284.123	5.82
284.337	7.29
284.551	8.69
284.764	7.22
284.978	6.87
285.192	7.53
285.405	7.44
285.619	7.03
285.833	8.18
286.046	7.07
286.26	8.13
286.473	8.43
286.687	7.11
286.9	6.61
287.114	7.33
287.327	6.66
287.541	5.86
287.754	7.65
287.968	7.63
288.181	6.56
288.395	8.36
288.608	7.66
288.822	8.81
289.035	9.21
289.248	9.41
289.462	10.14
289.675	9.69
289.889	10.68
290.102	8.79
290.315	8.04
290.529	7.99
290.742	8.01
290.955	8.69
291.169	7.46
291.382	6.47
291.595	6.62
291.808	5.52
292.022	6.45
292.235	5.77
292.448	8.34
292.661	8.39
292.875	9.47
293.088	8.61
293.301	8.79
293.514	7.39
293.727	10.08
293.94	9.78
294.153	8.35
294.367	8.9
294.58	8.45
294.793	7.59
295.006	6.66
295.219	5.26
295.432	6.51
295.645	7.64
295.858	8.02
296.071	6.88
296.284	6.22
296.497	7.73
296.71	6.06
296.923	7.15
297.136	6.21
297.349	8.07
297.562	8.14
297.775	7.34
297.988	5.35
298.201	6.32
298.414	5.9
298.626	6.78
298.839	6.7
299.052	7.52
299.265	7.31
299.478	8.95
299.691	7.57
299.903	8.84
300.116	7.32
300.329	8.37
300.542	9.1
300.755	8.94
300.967	8.19
301.18	8.94
301.393	10.84
301.605	10.8
301.818	9.87
302.031	9.72
302.243	9.25
302.456	10.82
302.669	10.81
302.881	10.6
303.094	10.99
303.307	10.52
303.519	10.08
303.732	9.62
303.944	8.55
304.157	8.5
304.37	8.56
304.582	7.4
304.795	7.64
305.007	7.22
305.22	6.44
305.432	6.12
305.645	7.59
305.857	8.52
306.069	7.77
306.282	9.14
306.494	9.12
306.707	9.6
306.919	9.83
307.132	9.07
307.344	10.86
307.556	11.03
307.769	10.26
307.981	10.58
308.193	9.29
308.406	9.34
308.618	8.57
308.83	9.53
309.043	9.67
309.255	10.12
309.467	9.44
309.679	8.72
309.892	9.01
310.104	9.15
310.316	8.29
310.528	8.15
310.74	7.7
310.953	7.33
311.165	7.18
311.377	6.55
311.589	7.82
311.801	10.08
312.013	9.51
312.225	8.58
312.437	10.21
312.649	10.52
312.862	10.64
313.074	12.39
313.286	12.61
313.498	13.21
313.71	14.07
313.922	12.6
314.134	12.56
314.346	13.72
314.558	14.51
314.77	11.86
314.982	11.52
315.193	11.05
315.405	9.55
315.617	12.8
315.829	11.92
316.041	12.54
316.253	12.77
316.465	10.05
316.677	10.16
316.888	10.12
317.1	12.14
317.312	11.37
317.524	13.67
317.736	15.45
317.947	13.45
318.159	15.16
318.371	13.97
318.583	14.67
318.794	16.69
319.006	16.21
319.218	16.35
319.43	16.27
319.641	17.18
319.853	15
320.064	12.94
320.276	10.73
320.488	10.02
320.699	9.85
320.911	9.23
321.123	8.87
321.334	6.48
321.546	3.99
321.757	4.17
321.969	2.62
322.18	3.62
322.392	3.35
322.603	5.74
322.815	5.44
323.026	6.82
323.238	8.74
323.449	8.39
323.661	12.61
323.872	15.02
324.083	14.14
324.295	16.12
324.506	15.23
324.718	17.21
324.929	17.45
325.14	17.28
325.352	17.31
325.563	16.6
325.774	16.58
325.986	14.66
326.197	16.47
326.408	17.05
326.62	16.63
326.831	17.43
327.042	17.71
327.253	17.12
327.464	16.01
327.676	15.49
327.887	14.16
328.098	13.45
328.309	14.59
328.52	12.78
328.732	13.08
328.943	13.59
329.154	14.66
329.365	13.27
329.576	13.21
329.787	14.69
329.998	15.59
330.209	16.94
330.42	17.87
330.631	17.85
330.842	19.01
331.053	19.26
331.264	19.57
331.475	18.93
331.686	19.07
331.897	20.33
332.108	20.29
332.319	20.49
332.53	19.25
332.741	20.01
332.952	17.42
333.163	16.95
333.374	16.12
333.585	16.13
333.795	16.22
334.006	15.45
334.217	12.94
334.428	13.15
334.639	12.75
334.849	12.57
335.06	11.28
335.271	13.7
335.482	13.76
335.692	14.97
335.903	13.4
336.114	14.68
336.325	15.28
336.535	16.5
336.746	15.64
336.957	14.78
337.167	15.77
337.378	16.44
337.589	15.14
337.799	13.4
338.01	13.79
338.22	14.46
338.431	12.31
338.642	11.96
338.852	11.15
339.063	10.96
339.273	11.57
339.484	12.15
339.694	11.38
339.905	12.38
340.115	13.19
340.326	12.18
340.536	13.6
340.746	13.6
340.957	13.99
341.167	13.6
341.378	14.73
341.588	15.83
341.799	14.88
342.009	15.79
342.219	16.44
342.43	16.33
342.64	16.76
342.85	14.78
343.061	16.03
343.271	17.74
343.481	17.94
343.691	18.37
343.902	17.49
344.112	16.68
344.322	15.94
344.532	15.94
344.743	15.17
344.953	13.53
345.163	14.78
345.373	13.24
345.583	12.46
345.793	15.26
346.004	14.23
346.214	13.24
346.424	14.31
346.634	14.81
346.844	13.65
347.054	14.05
347.264	15.27
347.474	13.54
347.684	14.57
347.894	14.33
348.104	12.82
348.314	12.45
348.524	13.33
348.734	12.75
348.944	12.55
349.154	12.28
349.364	12.23
349.574	11.48
349.784	13.06
349.994	11.98
350.204	11.65
350.413	10.39
350.623	10.43
350.833	10.26
351.043	10.95
351.253	10.38
351.463	10.91
351.672	11.76
351.882	13.04
352.092	12.34
352.302	13.46
352.511	13.54
352.721	14.72
352.931	13.81
353.141	13.15
353.35	13.9
353.56	15.78
353.77	15.26
353.979	15.38
354.189	15.71
354.399	15.17
354.608	15.19
354.818	15.42
355.027	15.14
355.237	15.19
355.447	15.81
355.656	14.15
355.866	12.78
356.075	13.3
356.285	13.38
356.494	12.29
356.704	12.41
356.913	11.27
357.123	11.5
357.332	11.26
357.542	10.64
357.751	10
357.96	11.11
358.17	11.51
358.379	11.66
358.589	10.81
358.798	10.05
359.007	10.53
359.217	10.82
359.426	9.76
359.635	9.34
359.845	10.83
360.054	10.48
360.263	10.8
360.472	10.88
360.682	10.05
360.891	10.03
361.1	10.49
361.309	10.05
361.519	10.82
361.728	11.07
361.937	11.76
362.146	11.75
362.355	12.92
362.564	11.83
362.774	10.72
362.983	10.6
363.192	11.99
363.401	12.22
363.61	13.09
363.819	12.32
364.028	12.33
364.237	12.62
364.446	11.71
364.655	11.24
364.864	11.81
365.073	13.23
365.282	14.03
365.491	13.55
365.7	13.38
365.909	13.5
366.118	13.13
366.327	12.9
366.536	12.07
366.745	12.49
366.954	11.99
367.162	12.03
367.371	11.23
367.58	11.62
367.789	10.31
367.998	11.41
368.207	10.97
368.415	11.09
368.624	11.17
368.833	11.91
369.042	12.14
369.25	12.64
369.459	12.05
369.668	11.89
369.877	11.24
370.085	11.83
370.294	11.43
370.503	10.98
370.711	11.65
370.92	11.76
371.129	11.61
371.337	10.66
371.546	10.35
371.754	10.54
371.963	10.87
372.171	11.05
372.38	12.06
372.589	11.71
372.797	12.54
373.006	12.04
373.214	12.1
373.423	11.82
373.631	12.04
373.84	12.46
374.048	13.11
374.256	12.19
374.465	12.04
374.673	11.22
374.882	10.07
375.09	9.93
375.298	10.04
375.507	9.66
375.715	9.73
375.923	10.19
376.132	9.7
376.34	8.16
376.548	8.67
376.757	9.71
376.965	10.47
377.173	11.3
377.381	10.3
377.59	10.35
377.798	11.35
378.006	10.84
378.214	10.89
378.423	11.14
378.631	12.98
378.839	13.68
379.047	12.7
379.255	11.36
379.463	11.22
379.671	12.06
379.879	12.29
380.088	12.19
380.296	11.93
380.504	12.69
380.712	12.65
380.92	12.16
381.128	10.81
381.336	11.14
381.544	12.1
381.752	12.57
381.96	12.11
382.168	11.24
382.376	11.23
382.584	11.1
382.791	10.45
382.999	11.13
383.207	10.94
383.415	11.6
383.623	11.36
383.831	10.72
384.039	10.31
384.247	10.34
384.454	10.91
384.662	10.79
384.87	11.8
385.078	11.25
385.285	11.04
385.493	11.61
385.701	12.13
385.909	13.11
386.116	13.32
386.324	13.5
386.532	13.9
386.739	13.8
386.947	13.88
387.155	13.52
387.362	14.36
387.57	14.71
387.778	14.69
387.985	13.9
388.193	13.57
388.4	13.59
388.608	13.25
388.816	12.9
389.023	12.45
389.231	11.7
389.438	11.82
389.646	11.29
389.853	10.75
390.061	9.62
390.268	9.85
390.475	9.21
390.683	9.27
390.89	9.72
391.098	10.46
391.305	11.02
391.512	11.41
391.72	11.74
391.927	11.31
392.135	10.89
392.342	11.93
392.549	12.48
392.756	12.27
392.964	11.79
393.171	11.34
393.378	10.78
393.586	10.99
393.793	10.97
394	9.63
394.207	9.94
394.414	10.12
394.622	9.43
394.829	8.93
395.036	9.95
395.243	10.59
395.45	10.49
395.657	11.12
395.864	11.18
396.072	10.5
396.279	10.72
396.486	11.39
396.693	11.25
396.9	10.94
397.107	10.17
397.314	9.29
397.521	9.06
397.728	8.97
397.935	7.96
398.142	7.22
398.349	8.14
398.556	8.58
398.763	8
398.97	8.11
399.177	8.74
399.383	10.19
399.59	10.48
399.797	10.75
400.004	11.12
400.211	11.44
400.418	11.93
400.625	11.71
400.831	11.82
401.038	11.78
401.245	11.22
401.452	11.3
401.658	10.93
401.865	10.96
402.072	10.71
402.279	10.74
402.485	10.92
402.692	10.17
402.899	10.71
403.105	10.5
403.312	10.6
403.519	10.78
403.725	10.09
403.932	9.78
404.138	10.01
404.345	9.63
404.552	9.64
404.758	9.11
404.965	10.49
405.171	10.26
405.378	10.8
405.584	10.83
405.791	11.71
405.997	12.41
406.204	12.8
406.41	12.49
406.617	12.49
406.823	12.76
407.029	12.97
407.236	12.06
407.442	11.77
407.649	11.35
407.855	11.71
408.061	12.02
408.268	11.76
408.474	11.69
408.68	10.84
408.887	10.98
409.093	11.08
409.299	11.4
409.505	11.65
409.712	11.59
409.918	11.9
410.124	11.53
410.33	11.23
410.537	11.14
410.743	11.2
410.949	11.52
411.155	11.74
411.361	11.69
411.567	11.31
411.773	11.35
411.98	11.17
412.186	11.78
412.392	12.06
412.598	11.88
412.804	12.32
413.01	12.31
413.216	12.36
413.422	11.97
413.628	11.67
413.834	11.98
414.04	11.73
414.246	11.64
414.452	10.65
414.658	10.59
414.864	10.19
415.07	9.68
415.275	9.17
415.481	9.41
415.687	9.92
415.893	10.39
416.099	10.22
416.305	9.7
416.511	9.72
416.716	10.35
416.922	10.27
417.128	10.12
417.334	10.15
417.539	10.37
417.745	10.73
417.951	10.58
418.157	10.07
418.362	10.27
418.568	10.4
418.774	10.62
418.979	10.11
419.185	9.78
419.391	10.01
419.596	10.06
419.802	10.24
420.008	9.99
420.213	7.53
420.419	7.69
420.624	7.44
420.83	7.8
421.035	7.67
421.241	7.97
421.446	8.38
421.652	8.47
421.857	8.27
422.063	8.22
422.268	8.4
422.474	10.87
422.679	11.05
422.885	10.71
423.09	10.66
423.295	11.09
423.501	11.2
423.706	11.14
423.911	10.84
424.117	11.18
424.322	10.9
424.527	10.76
424.733	10.84
424.938	10.81
425.143	11.4
425.349	11.23
425.554	10.95
425.759	11.11
425.964	10.96
426.169	11.11
426.375	10.57
426.58	10.67
426.785	10.72
426.99	10.52
427.195	10.77
427.4	10.74
427.605	10.87
427.811	10.53
428.016	10.12
428.221	10.12
428.426	10.54
428.631	11.2
428.836	11.14
429.041	10.96
429.246	10.93
429.451	10.42
429.656	9.98
429.861	10.56
430.066	10.78
430.271	10.84
430.476	10.58
430.681	10.21
430.886	10.45
431.09	10.79
431.295	10.67
431.5	10.94
431.705	11.04
431.91	11.07
432.115	10.87
432.32	11.09
432.524	11.17
432.729	11.7
432.934	11.66
433.139	11.34
433.343	11.25
433.548	11.27
433.753	11.3
433.958	11.35
434.162	11.74
434.367	11.76
434.572	11.77
434.776	11.55
434.981	11.33
435.186	11.7
435.39	11.49
435.595	11.35
435.799	11.83
436.004	11.74
436.209	11.31
436.413	11.34
436.618	11.32
436.822	10.88
437.027	10.66
437.231	10.83
437.436	10.47
437.64	10.57
437.845	10.74
438.049	10.53
438.253	10.25
438.458	10.62
438.662	10.19
438.867	9.81
439.071	10.09
439.275	10.66
439.48	10.44
439.684	10.44
439.888	10.64
440.093	10.73
440.297	10.71
440.501	10.84
440.706	10.79
440.91	10.92
441.114	11.04
441.318	11.11
441.523	10.81
441.727	10.49
441.931	10.54
442.135	10.56
442.339	10.33
442.543	10.37
442.748	10.69
442.952	10.87
443.156	11.19
443.36	11.13
443.564	10.63
443.768	10.55
443.972	10.84
444.176	10.87
444.38	10.88
444.584	10.91
444.788	10.94
444.992	10.81
445.196	10.63
445.4	10.31
445.604	10.2
445.808	10.41
446.012	10.34
446.216	10.23
446.42	10.36
446.624	10.6
446.828	10.55
447.032	10.39
447.235	10.34
447.439	10.5
447.643	10.77
447.847	11.25
448.051	11.46
448.254	11.63
448.458	11.77
448.662	11.56
448.866	11.05
449.069	11.09
449.273	11.3
449.477	11.19
449.681	10.98
449.884	10.82
450.088	10.51
450.292	10.45
450.495	10.24
450.699	10.48
450.902	10.61
451.106	10.51
451.31	10.49
451.513	10.19
451.717	10.06
451.92	10.28
452.124	10.72
452.327	11.01
452.531	10.59
452.734	10.52
452.938	10.65
453.141	10.4
453.345	10.7
453.548	10.73
453.752	10.75
453.955	10.67
454.158	10.71
454.362	10.3
454.565	10.24
454.769	10.9
454.972	10.93
455.175	10.79
455.379	11.17
455.582	11.19
455.785	11.26
455.988	11.59
456.192	11.39
456.395	11.38
456.598	11.4
456.801	11.4
457.005	11.28
457.208	10.94
457.411	10.88
457.614	10.7
457.817	10.44
458.021	10.2
458.224	10.17
458.427	10.42
458.63	10.35
458.833	10.49
459.036	10.22
459.239	10.3
459.442	10.58
459.645	10.41
459.848	10.49
460.051	10.68
460.254	10.92
460.457	10.79
460.66	11.13
460.863	10.81
461.066	10.59
461.269	10.74
461.472	10.35
461.675	10.34
461.878	10.39
462.081	10.55
462.284	10.61
462.486	10.38
462.689	10.29
462.892	10.14
463.095	10.36
463.298	10.39
463.5	10.18
463.703	10.35
463.906	10.8
464.109	10.94
464.311	10.76
464.514	11.23
464.717	11.37
464.92	11.76
465.122	11.93
465.325	12
465.528	11.89
465.73	11.84
465.933	11.67
466.135	11.77
466.338	11.91
466.541	11.82
466.743	11.53
466.946	11.59
467.148	11.53
467.351	11.16
467.553	11.18
467.756	11.52
467.958	11.89
468.161	11.74
468.363	11.46
468.566	11.25
468.768	11.23
468.971	11.09
469.173	11.16
469.375	11.27
469.578	11.07
469.78	11.24
469.983	11.38
470.185	11.41
470.387	11.67
470.59	11.64
470.792	11.7
470.994	11.58
471.196	11.49
471.399	11.25
471.601	11.12
471.803	11.73
472.005	11.32
472.208	11.06
472.41	10.6
472.612	10.8
472.814	11.1
473.016	11.53
473.218	11.98
473.421	11.82
473.623	12.14
473.825	12.32
474.027	12.08
474.229	12.68
474.431	12.63
474.633	12.85
474.835	12.75
475.037	12.2
475.239	12.15
475.441	11.77
475.643	11.98
475.845	11.63
476.047	11.49
476.249	11.51
476.451	11.21
476.653	11.44
476.855	11.43
477.057	11.43
477.258	11.26
477.46	10.72
477.662	10.57
477.864	10.54
478.066	10.78
478.268	10.57
478.469	10.63
478.671	10.66
478.873	10.69
479.075	10.54
479.276	10.46
479.478	10.85
479.68	10.98
479.882	11.13
480.083	11.16
480.285	10.91
480.487	11.11
480.688	11.17
480.89	11.03
481.091	10.83
481.293	10.82
481.495	10.94
481.696	10.93
481.898	10.89
482.099	10.99
482.301	10.88
482.502	10.92
482.704	10.74
482.905	10.7
483.107	10.61
483.308	10.56
483.51	10.65
483.711	10.61
483.913	10.53
484.114	10.61
484.315	10.49
484.517	10.47
484.718	10.48
484.92	10.58
485.121	10.42
485.322	10.49
485.524	10.6
485.725	10.47
485.926	10.42
486.127	10.36
486.329	10.28
486.53	10.35
486.731	10.38
486.932	10.43
487.134	10.24
487.335	10.35
487.536	10.25
487.737	10.15
487.938	10.15
488.139	9.96
488.341	9.84
488.542	9.72
488.743	9.57
488.944	9.37
489.145	9.38
489.346	9.71
489.547	9.58
489.748	9.73
489.949	9.76
490.15	9.89
490.351	10.16
490.552	10.38
490.753	10.58
490.954	10.51
491.155	10.71
491.356	10.65
491.557	10.47
491.758	10.62
491.959	10.54
492.159	10.63
492.36	10.5
492.561	10.35
492.762	10.4
492.963	10.54
493.164	10.99
493.364	11.02
493.565	10.97
493.766	11.24
493.967	11.18
494.167	11.47
494.368	11.41
494.569	11.57
494.769	11.81
494.97	11.74
495.171	11.43
495.371	11.46
495.572	11.46
495.773	11.42
495.973	11.35
496.174	11.03
496.375	11.08
496.575	11.3
496.776	11.33
496.976	11.31
497.177	11.4
497.377	11.47
497.578	11.32
497.778	11.05
497.979	11.32
498.179	11.62
498.38	12.08
498.58	12.14
498.78	12.06
498.981	11.91
499.181	11.94
499.382	12.16
499.582	12.16
499.782	11.83
499.983	12.44
500.183	12.43
500.383	11.98
500.584	12.15
500.784	12.23
500.984	12.29
501.184	12.42
501.385	12.21
501.585	11.98
501.785	12.28
501.985	12.7
502.185	12.6
502.386	12.47
502.586	13.06
502.786	12.68
502.986	12.75
503.186	12.99
503.386	13.25
503.586	13.15
503.786	13.07
503.987	12.72
504.187	12.55
504.387	12.51
504.587	12.74
504.787	12.15
504.987	12.24
505.187	11.77
505.387	11.51
505.587	11.22
505.786	11.38
505.986	11.72
506.186	12.11
506.386	12.17
506.586	12.39
506.786	12.03
506.986	12.45
507.186	12.57
507.386	13.18
507.585	13
507.785	13.11
507.985	13.2
508.185	12.7
508.384	12.56
508.584	12.95
508.784	12.94
508.984	13.03
509.183	12.83
509.383	12.77
509.583	12.52
509.782	12.59
509.982	12.42
510.182	12.51
510.381	12.87
510.581	12.82
510.781	12.38
510.98	11.84
511.18	11.84
511.379	11.9
511.579	11.99
511.778	11.92
511.978	12.16
512.177	12.39
512.377	12.39
512.576	12.27
512.776	12.64
512.975	12.84
513.175	13.17
513.374	13.39
513.573	13.75
513.773	13.82
513.972	14.3
514.172	14.24
514.371	14.32
514.57	14.1
514.77	14.15
514.969	13.84
515.168	13.84
515.367	14.14
515.567	13.9
515.766	13.93
515.965	13.62
516.164	13.19
516.364	13.21
516.563	13.22
516.762	13.39
516.961	13.58
517.16	13.61
517.359	13.78
517.559	13.68
517.758	13.69
517.957	13.39
518.156	13.64
518.355	13.79
518.554	14.08
518.753	13.97
518.952	14.11
519.151	14.14
519.35	14.07
519.549	13.97
519.748	13.84
519.947	14.27
520.146	14.36
520.345	14.76
520.544	14.78
520.743	14.61
520.942	15.13
521.141	14.92
521.339	14.87
521.538	14.84
521.737	14.96
521.936	15.19
522.135	14.89
522.333	15.12
522.532	14.45
522.731	14.54
522.93	14.37
523.129	13.79
523.327	13.74
523.526	14.05
523.725	14.34
523.923	14.34
524.122	14.4
524.321	14.51
524.519	14.47
524.718	14.63
524.917	14.42
525.115	14.49
525.314	14.88
525.512	14.89
525.711	14.78
525.909	14.71
526.108	14.77
526.306	14.68
526.505	14.81
526.703	14.68
526.902	14.65
527.1	14.75
527.299	14.83
527.497	14.71
527.696	14.8
527.894	14.72
528.092	14.78
528.291	14.72
528.489	14.57
528.688	14.55
528.886	14.7
529.084	14.77
529.283	14.85
529.481	14.83
529.679	14.79
529.877	14.74
530.076	14.79
530.274	14.86
530.472	14.87
530.67	15.18
530.869	15.05
531.067	14.97
531.265	15.02
531.463	14.91
531.661	14.98
531.859	15.03
532.057	15.15
532.255	15.24
532.454	14.95
532.652	14.91
532.85	14.97
533.048	14.9
533.246	14.98
533.444	15.07
533.642	15.22
533.84	15.21
534.038	15.3
534.236	15.53
534.434	15.51
534.632	15.87
534.83	15.86
535.027	16.07
535.225	16.18
535.423	16.19
535.621	15.84
535.819	15.87
536.017	15.71
536.215	15.59
536.412	15.37
536.61	15.36
536.808	15.46
537.006	15.64
537.203	15.35
537.401	15.55
537.599	15.57
537.797	15.89
537.994	15.78
538.192	15.88
538.39	16.27
538.587	16.24
538.785	16.12
538.983	16.1
539.18	16.41
539.378	16.4
539.575	16.18
539.773	16.13
539.97	16.32
540.168	16.22
540.366	16.36
540.563	16.12
540.761	16.18
540.958	16.23
541.155	16.15
541.353	15.96
541.55	16.04
541.748	16.23
541.945	16.15
542.143	16.24
542.34	16.62
542.537	16.58
542.735	16.63
542.932	16.57
543.129	16.56
543.327	16.57
543.524	16.24
543.721	16.35
543.919	16.32
544.116	16.56
544.313	16.35
544.51	16.32
544.708	16.25
544.905	16.44
545.102	16.64
545.299	16.75
545.496	16.79
545.693	17.18
545.891	17.04
546.088	16.95
546.285	16.97
546.482	16.97
546.679	16.79
546.876	16.98
547.073	17.11
547.27	17.31
547.467	17.61
547.664	17.67
547.861	17.82
548.058	17.8
548.255	18.09
548.452	18.13
548.649	18.39
548.846	18.6
549.043	18.21
549.24	18.03
549.437	18
549.633	17.73
549.83	18.07
550.027	18.18
550.224	18.67
550.421	18.59
550.618	18.75
550.814	18.7
551.011	18.67
551.208	19.03
551.405	19.05
551.601	19.04
551.798	19.09
551.995	18.92
552.191	18.85
552.388	18.82
552.585	18.72
552.781	18.78
552.978	18.81
553.175	19.06
553.371	19.34
553.568	19.74
553.764	19.44
553.961	20.08
554.157	20.2
554.354	20.28
554.55	20.2
554.747	20.98
554.943	20.81
555.14	20.72
555.336	20.49
555.533	20.41
555.729	20.64
555.926	21
556.122	20.35
556.318	20.74
556.515	20.79
556.711	20.74
556.907	20.31
557.104	21.08
557.3	21.36
557.496	21.68
557.693	21.65
557.889	21.34
558.085	21.48
558.281	21.84
558.478	21.73
558.674	22.24
558.87	22.43
559.066	22.46
559.262	22.15
559.459	21.92
559.655	21.91
559.851	22.08
560.047	22.12
560.243	22.5
560.439	22.51
560.635	22.48
560.831	22.16
561.027	22
561.223	21.9
561.419	21.55
561.615	21.92
561.811	21.42
562.007	21.35
562.203	21.59
562.399	20.91
562.595	21.11
562.791	21.21
562.987	21.27
563.183	21.3
563.379	21.87
563.575	22.42
563.771	22.29
563.966	22.5
564.162	22.37
564.358	22.48
564.554	22.69
564.75	22.48
564.945	22.58
565.141	22.77
565.337	23.16
565.533	22.65
565.728	22.54
565.924	22.26
566.12	22.67
566.315	23.01
566.511	22.67
566.707	22.85
566.902	23.29
567.098	23.08
567.293	22.95
567.489	22.84
567.684	23.16
567.88	23.1
568.076	23.55
568.271	23.27
568.467	23.66
568.662	24.04
568.858	24.17
569.053	23.92
569.248	24.24
569.444	24.5
569.639	24.46
569.835	24.44
570.03	24.92
570.225	24.84
570.421	25.1
570.616	24.51
570.812	24.46
571.007	24.33
571.202	24.29
571.397	24.31
571.593	24.18
571.788	24.23
571.983	24.43
572.178	24.1
572.374	24.03
572.569	23.86
572.764	23.97
572.959	24.19
573.154	24.22
573.35	24.04
573.545	24.22
573.74	24.2
573.935	24.37
574.13	24.12
574.325	24.13
574.52	24.46
574.715	24.62
574.91	25.1
575.105	24.86
575.3	25.12
575.495	25.35
575.69	24.97
575.885	25.13
576.08	25.14
576.275	25.19
576.47	25.28
576.665	25.6
576.86	25.79
577.055	25.39
577.25	25.88
577.444	25.35
577.639	25.51
577.834	25.4
578.029	25.88
578.224	26.25
578.418	26.42
578.613	26.56
578.808	26.16
579.003	26.14
579.197	26.05
579.392	26.34
579.587	26.95
579.781	26.97
579.976	27.51
580.171	27.4
580.365	27.07
580.56	27.25
580.755	27.47
580.949	27.72
581.144	27.5
581.338	27.66
581.533	27.13
581.727	27.15
581.922	27.2
582.116	27.49
582.311	27.05
582.505	27.03
582.7	27.2
582.894	26.67
583.089	26.49
583.283	26.82
583.478	27.19
583.672	27.29
583.866	27.62
584.061	27.39
584.255	27.28
584.449	27.56
584.644	27.8
584.838	27.67
585.032	27.46
585.226	27.9
585.421	27.96
585.615	27.59
585.809	27.72
586.003	27.97
586.198	28.48
586.392	28.16
586.586	28.37
586.78	27.97
586.974	28.68
587.168	29.37
587.363	29.25
587.557	29.38
587.751	29.74
587.945	29.64
588.139	29.17
588.333	28.91
588.527	29.36
588.721	29
588.915	29.27
589.109	29.22
589.303	29.21
589.497	29.35
589.691	29.27
589.885	28.9
590.079	29.15
590.273	29.42
590.466	29.51
590.66	29.54
590.854	29.88
591.048	30.18
591.242	29.95
591.436	29.9
591.629	29.69
591.823	29.35
592.017	29.54
592.211	29.23
592.404	29.43
592.598	29.86
592.792	30.09
592.986	30.27
593.179	30.05
593.373	29.88
593.567	29.83
593.76	29.91
593.954	30.39
594.147	30.81
594.341	30.96
594.535	30.76
594.728	30.86
594.922	30.34
595.115	29.91
595.309	29.66
595.502	30.06
595.696	30.11
595.889	30.1
596.083	30.06
596.276	30.12
596.47	30.2
596.663	30.2
596.856	30.01
597.05	29.79
597.243	30.27
597.437	30.74
597.63	30.78
597.823	31.24
598.017	31.41
598.21	31.77
598.403	31.73
598.596	31.94
598.79	32.17
598.983	32.33
599.176	32.89
599.369	32.87
599.563	33.36
599.756	33.66
599.949	34.02
600.142	34.22
600.335	34.1
600.528	34.18
600.722	34.21
600.915	34.15
601.108	34.31
601.301	34.06
601.494	33.98
601.687	33.12
601.88	32
602.073	31.58
602.266	31.11
602.459	30.72
602.652	30.78
602.845	30.93
603.038	31
603.231	30.46
603.424	30.99
603.617	31.42
603.809	31.68
604.002	32.07
604.195	31.81
604.388	31.93
604.581	32.18
604.774	32.45
604.966	32.25
605.159	32.23
605.352	33.09
605.545	33.24
605.737	33.04
605.93	33.37
606.123	33.3
606.316	33.9
606.508	34.02
606.701	34.22
606.894	33.06
607.086	33.16
607.279	32.84
607.471	32.12
607.664	31.49
607.857	31.29
608.049	31.48
608.242	31.68
608.434	31.66
608.627	31.97
608.819	32.06
609.012	32.7
609.204	32.95
609.397	32.9
609.589	33.18
609.782	33.49
609.974	33.84
610.166	33.94
610.359	34.5
610.551	34.33
610.743	34.53
610.936	33.97
611.128	34.1
611.32	34.26
611.513	34.87
611.705	35.32
611.897	35.66
612.09	35.9
612.282	35.9
612.474	35.41
612.666	35.62
612.858	35.74
613.051	35.98
613.243	36.14
613.435	35.53
613.627	34.87
613.819	34.18
614.011	34.11
614.203	33.48
614.395	33.54
614.588	33.33
614.78	33.49
614.972	33.2
615.164	33.39
615.356	33.37
615.548	33.84
615.74	34.46
615.932	35.5
616.124	35
616.315	35.59
616.507	35.2
616.699	35.4
616.891	34.93
617.083	35.29
617.275	35.48
617.467	35.38
617.659	35.51
617.85	35.39
618.042	35.24
618.234	35.44
618.426	35.49
618.618	35.23
618.809	35.47
619.001	35.65
619.193	35.2
619.384	35.36
619.576	36.14
619.768	36.21
619.959	36.86
620.151	36.99
620.343	37.12
620.534	36.52
620.726	37.16
620.917	37.18
621.109	37.62
621.301	38.1
621.492	38.38
621.684	37.49
621.875	36.76
622.067	36.77
622.258	35.91
622.45	36.33
622.641	36.51
622.832	36.55
623.024	36.61
623.215	36.41
623.407	36.14
623.598	35.84
623.789	36.58
623.981	36.61
624.172	36.56
624.363	36.97
624.555	36.98
624.746	36.81
624.937	36.51
625.129	36.47
625.32	36.38
625.511	36.13
625.702	35.98
625.893	35.81
626.085	35.87
626.276	35.31
626.467	35.02
626.658	34.49
626.849	34.92
627.04	35.18
627.231	35.47
627.422	35.61
627.614	36.28
627.805	36.56
627.996	36.5
628.187	37.05
628.378	37.24
628.569	37.53
628.76	37.46
628.951	37.43
629.142	37.1
629.332	36.55
629.523	36.35
629.714	35.86
629.905	36.38
630.096	36.29
630.287	36.53
630.478	37
630.669	37.18
630.859	37.7
631.05	37.4
631.241	37.67
631.432	37.97
631.623	38.94
631.813	38.77
632.004	38.36
632.195	38.55
632.385	37.86
632.576	36.92
632.767	36.57
632.957	36.59
633.148	36.59
633.339	36.37
633.529	36.44
633.72	35.47
633.91	36.14
634.101	35.89
634.292	35.81
634.482	36.39
634.673	37.63
634.863	37.93
635.054	38.59
635.244	38.32
635.435	38.32
635.625	38.32
635.815	38.62
636.006	38.25
636.196	38.35
636.387	38.78
636.577	38.34
636.767	37.73
636.958	37.68
637.148	37.2
637.338	38.04
637.529	38.19
637.719	37.83
637.909	38.27
638.099	38.18
638.29	38.78
638.48	38.02
638.67	37.98
638.86	38.7
639.05	39.08
639.241	39.77
639.431	40.15
639.621	40.99
639.811	42.1
640.001	42.18
640.191	42.35
640.381	41.73
640.571	42.96
640.761	42.89
640.951	42.49
641.141	42.02
641.331	40.7
641.521	40.22
641.711	40.25
641.901	39.86
642.091	39.83
642.281	40.22
642.471	40.69
642.661	39.5
642.851	39.47
643.041	38.88
643.231	39.58
643.42	40.93
643.61	40.61
643.8	40.39
643.99	40.46
644.18	38.94
644.369	39.21
644.559	38.8
644.749	39.6
644.939	40.19
645.128	40.08
645.318	39.14
645.508	38.53
645.697	38.9
645.887	38.7
646.076	37.73
646.266	38.56
646.456	38.05
646.645	38.64
646.835	38.44
647.024	37.6
647.214	37.98
647.403	38.33
647.593	38.14
647.782	38.49
647.972	37.86
648.161	38.94
648.351	39.63
648.54	39.74
648.73	39.07
648.919	39.08
649.108	40.14
649.298	40.2
649.487	41.08
649.677	41.3
649.866	40.93
650.055	41
650.244	40.51
650.434	40.01
650.623	39.97
650.812	40.65
651.002	40.97
651.191	40.51
651.38	40.76
651.569	40.16
651.758	39.66
651.947	40.54
652.137	40.43
652.326	41.38
652.515	42.22
652.704	42.62
652.893	42
653.082	41.46
653.271	41.81
653.46	41.23
653.649	41.09
653.838	41.33
654.027	39.83
654.216	40.82
654.405	39.26
654.594	39.04
654.783	39.05
654.972	38.98
655.161	39.31
655.35	39.09
655.539	39.87
655.728	39.72
655.916	39.87
656.105	40.58
656.294	40.68
656.483	41.19
656.672	40.63
656.86	40.81
657.049	41.48
657.238	40.68
657.427	40.82
657.615	39.54
657.804	39.1
657.993	39.13
658.181	38.58
658.37	37.94
658.559	37.85
658.747	38.07
658.936	37.32
659.125	37.21
659.313	38.01
659.502	38.17
659.69	39.43
659.879	40.07
660.067	40.33
660.256	40.68
660.444	40.81
660.633	41.3
660.821	41.05
661.01	41.06
661.198	40.69
661.387	40.62
661.575	40.7
661.763	39.98
661.952	39.78
662.14	39.43
662.328	39.25
662.517	39.92
662.705	39.91
662.893	40.58
663.082	41.24
663.27	41.35
663.458	41.16
663.646	41.63
663.834	42.36
664.023	42.83
664.211	43.14
664.399	43.98
664.587	43.04
664.775	42.35
664.963	41.57
665.152	41.48
665.34	41.95
665.528	42
665.716	42.3
665.904	42.11
666.092	41.78
666.28	41.41
666.468	40.85
666.656	41.38
666.844	42.12
667.032	43.47
667.22	43.53
667.408	43.35
667.596	44.07
667.784	43.38
667.971	43.55
668.159	44.36
668.347	45.02
668.535	44.8
668.723	45.6
668.911	46.22
669.098	45.37
669.286	45.23
669.474	45.17
669.662	44.4
669.849	44.43
670.037	44.04
670.225	43.46
670.413	43.9
670.6	44.19
670.788	43.78
670.976	43.83
671.163	43.56
671.351	43.51
671.538	44.49
671.726	44.41
671.913	43.8
672.101	43.87
672.289	43.68
672.476	42.69
672.664	42.63
672.851	41.04
673.039	40.11
673.226	40.22
673.413	40.76
673.601	39.74
673.788	40.53
673.976	40.54
674.163	41.26
674.35	42.45
674.538	42.38
674.725	43.01
674.912	43.98
675.1	44.58
675.287	44.41
675.474	44.36
675.662	44.48
675.849	43.78
676.036	43.95
676.223	43.27
676.411	42.61
676.598	42.12
676.785	42.26
676.972	43.09
677.159	42.76
677.346	43.42
677.533	42.28
677.721	42.11
677.908	43.03
678.095	43
678.282	44.01
678.469	43.8
678.656	44.84
678.843	43.66
679.03	43.22
679.217	43.37
679.404	43.64
679.591	44.71
679.778	44.38
679.964	43.78
680.151	44.36
680.338	43.31
680.525	43.23
680.712	41.84
680.899	43.5
681.086	43.3
681.272	43.09
681.459	41.91
681.646	41.42
681.833	42.07
682.02	42.26
682.206	41.81
682.393	42.2
682.58	42.82
682.766	44.24
682.953	42.64
683.14	42.99
683.326	42.39
683.513	42.27
683.7	42.3
683.886	42.44
684.073	42.32
684.259	41.79
684.446	41.67
684.632	41.69
684.819	41.3
685.005	42.03
685.192	41.64
685.378	42.53
685.565	44.04
685.751	44.41
685.938	44.91
686.124	44.26
686.31	44.96
686.497	45.1
686.683	45.55
686.87	47.29
687.056	47.15
687.242	47.7
687.429	47.47
687.615	47.58
687.801	47.52
687.987	46.83
688.174	47.25
688.36	47.67
688.546	46.72
688.732	45.48
688.918	44.21
689.105	44.37
689.291	44.06
689.477	44.69
689.663	45.26
689.849	44.94
690.035	45.6
690.221	46.51
690.407	46.21
690.593	48.5
690.779	49.07
690.965	48.55
691.151	49.22
691.337	50.2
691.523	49.38
691.709	48.25
691.895	48.72
692.081	48.3
692.267	48.41
692.453	49.25
692.639	48.89
692.825	48.85
693.011	49.11
693.196	47.78
693.382	47.47
693.568	48.19
693.754	48.39
693.94	48.64
694.125	49.21
694.311	48.51
694.497	47.53
694.682	47.03
694.868	48.82
695.054	48.8
695.239	49.92
695.425	49.12
695.611	48.19
695.796	47.57
695.982	45.62
696.168	44.32
696.353	44.69
696.539	44.16
696.724	43.79
696.91	42.41
697.095	41.86
697.281	41.32
697.466	41.89
697.652	41.37
697.837	41.39
698.023	42.32
698.208	42.15
698.393	41.24
698.579	41.29
698.764	41.6
698.949	41.58
699.135	42.49
699.32	42.31
699.505	41.34
699.691	41.88
699.876	41.72
700.061	41.36
700.246	42.37
700.432	43.77
700.617	44.04
700.802	43.94
700.987	44.13
701.172	41.07
701.358	41.27
701.543	43.04
701.728	43.93
701.913	44.24
702.098	45.02
702.283	46.11
702.468	45.14
702.653	44.92
702.838	44.81
703.023	46.26
703.208	49.33
703.393	49.92
703.578	50.07
703.763	49.55
703.948	48.79
704.133	48.33
704.318	47.3
704.503	47.27
704.688	48.3
704.873	47.77
705.057	46.11
705.242	47.04
705.427	46.18
705.612	44.7
705.797	44.42
705.981	45.39
706.166	46.41
706.351	46.93
706.536	47.11
706.72	46.67
706.905	47.65
707.09	47.6
707.274	46.94
707.459	47.17
707.644	47.67
707.828	48.38
708.013	48.34
708.197	47.78
708.382	46.11
708.567	45.6
708.751	46.05
708.936	46.24
709.12	46.06
709.305	45.3
709.489	46.17
709.673	46.07
709.858	46.13
710.042	46.88
710.227	45.91
710.411	46.96
710.596	46.82
710.78	45.52
710.964	44.81
711.149	45.19
711.333	45.71
711.517	45.21
711.702	46.66
711.886	46.22
712.07	44.73
712.254	45.79
712.438	45.81
712.623	46.82
712.807	45.76
712.991	45.76
713.175	46.56
713.359	46.22
713.544	45.26
713.728	43.78
713.912	44.11
714.096	44.79
714.28	44.21
714.464	43.94
714.648	44.71
714.832	46.21
715.016	47.22
715.2	45.99
715.384	46.86
715.568	48.01
715.752	48.56
715.936	48.94
716.12	48.18
716.304	49.1
716.488	49.14
716.671	47.85
716.855	49.08
717.039	47.85
717.223	48.45
717.407	47.73
717.59	48.51
717.774	47.6
717.958	46.45
718.142	46.07
718.325	45.66
718.509	47.62
718.693	48.68
718.877	48.35
719.06	49.07
719.244	50.41
719.428	49.78
719.611	48.81
719.795	49.76
719.978	51.54
720.162	53.93
720.345	54.79
720.529	54
720.713	52.37
720.896	52.86
721.08	54.43
721.263	52.38
721.446	53.89
721.63	54.58
721.813	53.34
721.997	52.59
722.18	52.5
722.364	51.92
722.547	50.69
722.73	51.37
722.914	50.62
723.097	46.42
723.28	48.85
723.464	47.9
723.647	47.91
723.83	48.21
724.013	48.85
724.197	48.1
724.38	49.15
724.563	48.28
724.746	49.22
724.929	48.93
725.112	51.18
725.296	50.03
725.479	51.19
725.662	49.25
725.845	49.7
726.028	47.97
726.211	49.26
726.394	47.8
726.577	48.51
726.76	48.85
726.943	47.98
727.126	47.31
727.309	46.76
727.492	45.98
727.675	46.75
727.858	46.38
728.041	46.6
728.224	44.49
728.407	45.56
728.589	47.17
728.772	45.81
728.955	47.06
729.138	47.61
729.321	46.99
729.503	48.79
729.686	48.93
729.869	49.86
730.052	50.47
730.234	52.07
730.417	50.81
730.6	49.51
730.782	50.27
730.965	49.04
731.148	49.69
731.33	50.69
731.513	49.47
731.695	50.27
731.878	49.57
732.061	48.64
732.243	46.78
732.426	47.21
732.608	48.03
732.791	46.59
732.973	47.51
733.156	48.24
733.338	47.93
733.52	47.36
733.703	47.88
733.885	48.5
734.068	49.83
734.25	50.12
734.432	50.19
734.615	49.12
734.797	51.23
734.979	51.66
735.162	50.33
735.344	50.01
735.526	49.52
735.708	49.45
735.891	50.12
736.073	49.77
736.255	50.54
736.437	50.9
736.619	52.66
736.802	52.48
736.984	51.92
737.166	52.33
737.348	51.79
737.53	53.66
737.712	53.79
737.894	53.71
738.076	54.09
738.258	54.9
738.44	55.8
738.622	53.91
738.804	54.77
738.986	55.28
739.168	56.61
739.35	58.06
739.532	57.51
739.714	57.12
739.896	56.41
740.078	56.99
740.259	56.97
740.441	57.23
740.623	58.1
740.805	56.04
740.987	55.25
741.168	51.61
741.35	51.78
741.532	52.76
741.714	51.38
741.895	52.62
742.077	51.92
742.259	51.37
742.44	49.27
742.622	49.91
742.804	51.42
742.985	51.61
743.167	53.45
743.348	53.38
743.53	52.3
743.711	54.35
743.893	52.98
744.075	53.14
744.256	53.17
744.438	55.1
744.619	55.63
744.8	55.83
744.982	57.72
745.163	57.88
745.345	58.34
745.526	58.01
745.707	56.8
745.889	57.97
746.07	57.31
746.252	60.97
746.433	58.76
746.614	57.98
746.795	59.26
746.977	59.58
747.158	60
747.339	59.09
747.52	58.34
747.702	57.96
747.883	56.15
748.064	58.64
748.245	56.68
748.426	57.59
748.607	56.87
748.788	54.31
748.97	53.92
749.151	54.46
749.332	55.06
749.513	57.41
749.694	58.2
749.875	60.04
750.056	59.37
750.237	58.99
750.418	61.26
750.599	62.75
750.78	64.26
750.96	65.26
751.141	65.17
751.322	66.26
751.503	65.63
751.684	66.68
751.865	64.78
752.046	64.9
752.226	65.38
752.407	64.3
752.588	64.9
752.769	64.19
752.949	61.32
753.13	59.92
753.311	57.01
753.492	57.53
753.672	58.71
753.853	58.81
754.034	58.66
754.214	57.44
754.395	56.71
754.575	57.15
754.756	57.8
754.937	60.65
755.117	59.84
755.298	60.26
755.478	59.01
755.659	57.39
755.839	58.15
756.02	56.28
756.2	56.03
756.381	56.21
756.561	55.01
756.741	55.12
756.922	53.92
757.102	57.62
757.283	58.92
757.463	59.09
757.643	57.01
757.823	58.41
758.004	58.43
758.184	58.56
758.364	59.31
758.545	58.45
758.725	59.85
758.905	58.73
759.085	56.14
759.265	54.61
759.446	53.95
759.626	56.54
759.806	54.5
759.986	54.07
760.166	52.93
760.346	51.47
760.526	51.13
760.706	49.29
760.886	48.88
761.066	51.43
761.246	52.2
761.426	52.02
761.606	48.7
761.786	49.09
761.966	50.17
762.146	50.52
762.326	51.01
762.506	51.47
762.686	51.94
762.866	51.3
763.046	48.49
763.225	48.31
763.405	48.41
763.585	49.69
763.765	50
763.945	49.5
764.124	50.89
764.304	50.27
764.484	49.68
764.664	48.88
764.843	49.58
765.023	51.52
765.203	52.75
765.382	52.66
765.562	50.69
765.741	51.71
765.921	52.83
766.101	54.15
766.28	54.9
766.46	55.24
766.639	56.95
766.819	56.57
766.998	56.02
767.178	54.86
767.357	55.87
767.537	59.06
767.716	56.88
767.896	55.92
768.075	50.99
768.254	52.33
768.434	52.44
768.613	53.1
768.792	56.02
768.972	55.23
769.151	56.99
769.33	60.08
769.51	57.99
769.689	59.68
769.868	58.56
770.047	60.39
770.226	58.88
770.406	60.28
770.585	58.28
770.764	56.75
770.943	57.77
771.122	57.43
771.301	51.05
771.48	53.56
771.66	54.74
771.839	58.02
772.018	58.17
772.197	58.89
772.376	58.61
772.555	59.29
772.734	59.71
772.913	60.57
773.092	60.55
773.271	63.19
773.449	65.54
773.628	65.85
773.807	62.8
773.986	63.09
774.165	66.08
774.344	68.04
774.523	69.09
774.701	69.26
774.88	68.81
775.059	68.33
775.238	69.89
775.417	69.86
775.595	69.22
775.774	71.34
775.953	73.44
776.131	69.02
776.31	65.74
776.489	64.14
776.667	65.53
776.846	67.38
777.025	66.19
777.203	66.22
777.382	65.78
777.56	64.11
777.739	62.41
777.917	62.83
778.096	63.89
778.274	64.62
778.453	64.81
778.631	66.42
778.81	63.09
778.988	65.6
779.166	63.63
779.345	60.18
779.523	61.45
779.702	63.29
779.88	63.99
780.058	65.09
780.237	66.3
780.415	65.77
780.593	62.91
780.771	63.95
780.95	62.97
781.128	64.12
781.306	68.66
781.484	72.03
781.662	70.76
781.841	68.15
782.019	67.45
782.197	65.07
782.375	64.57
782.553	66.09
782.731	68.93
782.909	71.72
783.087	73.22
783.265	69.55
783.443	66.57
783.621	66.59
783.799	68.95
783.977	68.45
784.155	70.75
784.333	73.68
784.511	73.42
784.689	71.93
784.867	68.37
785.045	66.09
785.223	67.13
785.4	66.31
785.578	67.36
785.756	67.79
785.934	65.01
786.112	65.99
786.289	66.16
786.467	64.08
786.645	64.57
786.823	65.19
787	65.41
787.178	65.12
787.356	66.37
787.533	63.63
787.711	60.31
787.889	62.3
788.066	61.11
788.244	58.26
788.421	58.63
788.599	58.02
788.776	58.42
788.954	56.44
789.131	56.5
789.309	54.2
789.486	54.81
789.664	58.22
789.841	57.17
790.019	58.75
790.196	59.57
790.373	56.46
790.551	55.87
790.728	56.3
790.906	59.16
791.083	65.03
791.26	71.43
791.437	77.2
791.615	75.65
791.792	76.17
791.969	75.8
792.146	75.81
792.324	79.49
792.501	85.54
792.678	87.47
792.855	89.24
793.032	80.7
793.209	77.03
793.387	72.8
793.564	73.33
793.741	75.06
793.918	73.95
794.095	73.67
794.272	75.35
794.449	71.66
794.626	68.97
794.803	66.32
794.98	70.04
795.157	66.48
795.334	67.36
795.511	68.35
795.688	67.72
795.864	68.2
796.041	69.57
796.218	67.27
796.395	65.81
796.572	65.55
796.749	70.65
796.925	69.28
797.102	73.9
797.279	74.21
797.456	68.44
797.632	67.7
797.809	68.18
797.986	69.4
798.162	66.74
798.339	69.32
798.516	67.92
798.692	64.49
798.869	62.46
799.046	59.38
799.222	59.1
799.399	63.37
799.575	63.23
799.752	62.53
799.928	62.61
800.105	64.52
800.281	60.49
800.458	63.27
800.634	61.95
800.811	63.72
800.987	68.67
801.163	68.58
801.34	70.65
801.516	71.45
801.692	71.45
801.869	67.55
802.045	70.01
802.221	74.02
802.398	72.94
802.574	75.4
802.75	78.9
802.926	76.13
803.103	79.78
803.279	74.4
803.455	76.55
803.631	75.29
803.807	75.07
803.983	71.69
804.16	71.21
804.336	66.53
804.512	67.07
804.688	64.32
804.864	59.76
805.04	59.03
805.216	56.06
805.392	51.23
805.568	54.63
805.744	59.48
805.92	62.42
806.096	62.62
806.272	66.39
806.448	60.74
806.623	57.08
806.799	60.93
806.975	52.38
807.151	59.27
807.327	65.69
807.503	61.87
807.678	60.88
807.854	63.64
808.03	64.02
808.206	66.49
808.381	71.68
808.557	73.25
808.733	73.77
808.908	80.44
809.084	77.07
809.26	73.49
809.435	77.74
809.611	74.03
809.787	73.35
809.962	71.63
810.138	69.76
810.313	69.55
810.489	68.5
810.664	65.88
810.84	65.45
811.015	64.5
811.191	65.16
811.366	64.03
811.542	68.2
811.717	66.27
811.892	64.66
812.068	67.08
812.243	65.41
812.419	66.87
812.594	68.91
812.769	69
812.944	70.18
813.12	68.99
813.295	67.08
813.47	64.03
813.645	62.42
813.821	62.93
813.996	56.42
814.171	57.7
814.346	54.81
814.521	54.25
814.697	53.63
814.872	56.12
815.047	56.36
815.222	59.15
815.397	58.33
815.572	60.09
815.747	60.22
815.922	66.31
816.097	66.71
816.272	73.98
816.447	71.93
816.622	73.38
816.797	72.42
816.972	72.96
817.147	69.68
817.322	71.45
817.496	73.28
817.671	74.85
817.846	69.11
818.021	69.27
818.196	62.15
818.371	62.24
818.545	60.09
818.72	60.46
818.895	59.05
819.069	59.85
819.244	58.02
819.419	55.77
819.594	52.51
819.768	53.27
819.943	47.74
820.117	46.14
820.292	42.77
820.467	40.38
820.641	37.19
820.816	36.56
820.99	35.49
821.165	34.08
821.339	32.41
821.514	32.5
821.688	32.16
821.863	32.34
822.037	32.22
822.212	31.99
822.386	31.91
822.56	32.14
822.735	32.4
822.909	32.67
823.084	33.38
823.258	33.67
823.432	33.22
823.606	32.61
823.781	32.52
823.955	32.33
824.129	33.88
824.303	34.59
824.478	35.79
824.652	34.24
824.826	31.77
825	30.9
825.174	30.42
825.348	31.29
825.523	32.6
825.697	32.38
825.871	32.1
826.045	31.88
826.219	32.11
826.393	31.68
826.567	32.66
826.741	35.9
826.915	37.74
827.089	38.7
827.263	38.66
827.437	39.86
827.611	40.76
827.784	41.66
827.958	41.63
828.132	40.45
828.306	40.99
828.48	41.83
828.654	43.31
828.827	42.52
829.001	43.09
829.175	45.71
829.349	47.04
829.522	47.01
829.696	48.28
829.87	50.01
830.044	52.6
830.217	53.03
830.391	55.42
830.565	52.38
830.738	56.04
830.912	59.66
831.085	55.48
831.259	50.06
831.432	52.84
831.606	51.12
831.779	48.89
831.953	50.32
832.126	51.18
832.3	48.42
832.473	49.63
832.647	46.31
832.82	42.86
832.994	43.73
833.167	45.25
833.34	43.17
833.514	43.76
833.687	43.35
833.86	41.36
834.034	42.13
834.207	43.05
834.38	42.62
834.553	42.4
834.727	44.55
834.9	44.66
835.073	45.25
835.246	44.85
835.419	46.62
835.593	50.71
835.766	55.53
835.939	52.22
836.112	51.28
836.285	51.65
836.458	52.85
836.631	53.46
836.804	59.19
836.977	61.71
837.15	64.8
837.323	61.05
837.496	59.16
837.669	49.62
837.842	50.55
838.015	52.65
838.188	53.67
838.361	58.4
838.533	55.09
838.706	49.98
838.879	50.14
839.052	55.5
839.225	59.59
839.398	55.58
839.57	58.5
839.743	57.1
839.916	57.49
840.088	59.97
840.261	55.18
840.434	58.4
840.607	56.23
840.779	58.32
840.952	52.18
841.124	51.19
841.297	59.13
841.47	58.77
841.642	68.43
841.815	78
841.987	69.46
842.16	74.74
842.332	82.01
842.505	82.78
842.677	74.88
842.85	79.25
843.022	78.43
843.194	72.05
843.367	75.7
843.539	74.13
843.712	72.2
843.884	80.78
844.056	75.53
844.229	74
844.401	73.13
844.573	78.16
844.745	72.76
844.918	75.19
845.09	75.25
845.262	81.66
845.434	78.57
845.606	75.95
845.779	68.57
845.951	81.6
846.123	78.92
846.295	81.9
846.467	86.35
846.639	91.77
846.811	93.95
846.983	102.56
847.155	104.53
847.327	94.31
847.499	99.26
847.671	106.85
847.843	97.48
848.015	97.75
848.187	100.85
848.359	96.13
848.531	94.9
848.703	85.92
848.875	87.76
849.047	80.86
849.218	94.36
849.39	86.32
849.562	83.23
849.734	88.52
849.905	96.9
850.077	101.26
850.249	104.55
850.421	114.87
850.592	124.11
850.764	120.21
850.936	117
851.107	124.73
851.279	122.66
851.451	116
851.622	117.93
851.794	115.74
851.965	115.67
852.137	116.09
852.308	116.61
852.48	112.88
852.651	110.04
852.823	118.76
852.994	105.47
853.166	102.03
853.337	109.65
853.509	96.73
853.68	98.81
853.851	91.49
854.023	85.45
854.194	85.14
854.365	89.81
854.537	85.67
854.708	89.33
854.879	86.8
855.05	94.47
855.222	90.34
855.393	97.66
855.564	80.64
855.735	84.19
855.906	86.35
856.078	84.14
856.249	91.08
856.42	103.34
856.591	109.07
856.762	116.58
856.933	117.75
857.104	126.37
857.275	126.03
857.446	142.72
857.617	139.27
857.788	145.66
857.959	133.38
858.13	125.22
858.301	116.21
858.472	97.37
858.643	111.95
858.814	107.36
858.985	111.1
859.155	121.23
859.326	121.99
859.497	122.88
859.668	114.57
859.839	103.5
860.009	98.28
860.18	105.12
860.351	104.81
860.522	87.77
860.692	81.97
860.863	89.6
861.034	84.51
861.204	82.32
861.375	86.78
861.546	89.21
861.716	100.99
861.887	105.65
862.057	99.46
862.228	112.04
862.398	97.1
862.569	103.45
862.739	94.66
862.91	101.67
863.08	99.14
863.251	90.49
863.421	80.95
863.592	87.53
863.762	96.05
863.932	97.43
864.103	92.03
864.273	105.79
864.443	109.52
864.614	92.75
864.784	92.15
864.954	90.87
865.125	84.67
865.295	89.67
865.465	74
865.635	51.26
865.805	52.76
865.976	59.38
866.146	64
866.316	58.02
866.486	69.62
866.656	70.16
866.826	73.76
866.996	71.12
867.166	77.12
867.336	88.3
867.506	96.36
867.676	99.94
867.846	100.18
868.016	104.85
868.186	110.66
868.356	115.33
868.526	115.72
868.696	110.44
868.866	113.39
869.036	111.97
869.206	109.61
869.376	94.3
869.545	103.94
869.715	113.11
869.885	106.29
870.055	107
870.224	113.32
870.394	99.45
870.564	106.9
870.734	110.61
870.903	109.03
871.073	110.58
871.243	126.89
871.412	127.68
871.582	108.12
871.751	100.78
871.921	102.92
872.091	89.32
872.26	86.27
872.43	87.77
872.599	91.63
872.769	95.46
872.938	89
873.108	86.03
873.277	72.48
873.446	77.63
873.616	92.6
873.785	75.41
873.955	66.05
874.124	87.37
874.293	81.43
874.463	76.2
874.632	74.33
874.801	77.78
874.971	79.22
875.14	74.58
875.309	77.11
875.478	67.33
875.647	77.76
875.817	76.06
875.986	72
876.155	74.58
876.324	74.21
876.493	70.1
876.662	75.53
876.831	66.31
877	75.38
877.17	78.35
877.339	86.6
877.508	79.58
877.677	86.31
877.846	91.56
878.015	85.2
878.184	90.7
878.352	95.55
878.521	87.83
878.69	87.37
878.859	78.59
879.028	77.05
879.197	74.09
879.366	69.37
879.534	59.06
879.703	50.89
879.872	49.24
880.041	46.19
880.21	42.44
880.378	38.29
880.547	39.94
880.716	39.81
880.884	37.97
881.053	34.41
881.222	34.32
881.39	34.61
881.559	33.61
881.727	32.34
881.896	31.6
882.065	32.77
882.233	32.45
882.402	30.92
882.57	30.53
882.739	30.12
882.907	33.31
883.076	33.13
883.244	34.41
883.412	36.5
883.581	36.89
883.749	38.99
883.918	38.6
884.086	39.45
884.254	40.19
884.423	40.03
884.591	41.65
884.759	37.98
884.927	38.63
885.096	41
885.264	39.36
885.432	38.25
885.6	37.01
885.769	38.25
885.937	40.27
886.105	41.23
886.273	42.24
886.441	36.61
886.609	35.81
886.777	39.09
886.945	37.01
887.113	37.31
887.281	47.99
887.449	44.79
887.617	44.17
887.785	46.87
887.953	54.19
888.121	51.82
888.289	57.95
888.457	56.75
888.625	53.85
888.793	54.89
888.961	59.25
889.129	54.65
889.296	63.36
889.464	60.69
889.632	58.45
889.8	56.97
889.967	57.81
890.135	62.18
