Data from JASIL_2998_Reflection_01.txt Node
Date: Mon Nov 09 09:57:48 EST 2015
User: Geneva
Spectrometer: USB4E03002
Autoset integration time: false
Trigger mode: 4
Integration Time (sec): 1.000000E-1
Scans to average: 10
Electric dark correction enabled: false
Nonlinearity correction enabled: false
Boxcar width: 5
Stray light correction enabled: false
XAxis mode: Wavelengths
Stop averaging: false
Number of Pixels in Spectrum: 3648
>>>>>Begin Spectral Data<<<<<
177.575	13.66
177.794	-0.88
178.014	-6.93
178.233	-21.22
178.452	-12.06
178.672	-16.9
178.891	-23.48
179.11	-43.53
179.33	-67.72
179.549	-93.81
179.768	-198.85
179.987	-146.71
180.207	-60.25
180.426	-60.29
180.645	-58.22
180.864	-82.22
181.084	-59.45
181.303	-65.58
181.522	-96.5
181.741	-83.49
181.96	-46.07
182.179	-6.21
182.398	10.58
182.618	3.85
182.837	11.19
183.056	19.7
183.275	22.81
183.494	31.36
183.713	40.46
183.932	72.11
184.151	65.56
184.37	49.02
184.589	19.05
184.808	-1.97
185.027	-26.4
185.246	-51.72
185.465	-18.35
185.684	-2.5
185.903	-40.57
186.122	-44.27
186.341	-96.57
186.56	-196.99
186.779	-138.9
186.998	-89.59
187.216	-54.13
187.435	-53.89
187.654	-30.65
187.873	-42.05
188.092	-90.71
188.311	-21.92
188.53	-39.3
188.748	-5.07
188.967	-31.15
189.186	-31.37
189.405	-13.64
189.623	14.9
189.842	52.14
190.061	47.99
190.28	-17.45
190.498	-29.88
190.717	-5.84
190.936	-40.36
191.154	-31.15
191.373	63.2
191.592	29.43
191.81	-10.03
192.029	-173.79
192.248	-300.68
192.466	-118.79
192.685	-103.48
192.904	-62.72
193.122	-131.03
193.341	-180.17
193.559	-206.28
193.778	-366.89
193.996	-185.17
194.215	-102.09
194.433	-77.6
194.652	-70.19
194.87	-74.23
195.089	-93.44
195.307	-143.65
195.526	-101.29
195.744	-83.37
195.963	-86.65
196.181	-67.34
196.399	-98.96
196.618	-138.44
196.836	-130.14
197.055	-89.36
197.273	-108.09
197.491	-149.44
197.71	-97.52
197.928	-89.15
198.146	-55.46
198.365	-78.99
198.583	-46.29
198.801	-31.91
199.019	-45.19
199.238	-76.16
199.456	-89.76
199.674	-86.2
199.892	-37.88
200.111	-104.62
200.329	-121.28
200.547	-77.29
200.765	-43.79
200.983	-106.72
201.202	-208.7
201.42	-197.48
201.638	-78.61
201.856	-387.32
202.074	635.14
202.292	585.37
202.51	9.36
202.728	3.57
202.946	-19.48
203.165	-55.56
203.383	-73.84
203.601	-150.35
203.819	-252.91
204.037	-160.25
204.255	-90.38
204.473	-50.34
204.691	-74.44
204.909	-136.71
205.127	-102.85
205.345	-157.64
205.562	-339.33
205.78	-117.19
205.998	-42.68
206.216	-95.44
206.434	-155.22
206.652	-166.33
206.87	-210.97
207.088	-169.2
207.306	-147.6
207.523	-216.34
207.741	-120.86
207.959	-100.8
208.177	-209.09
208.395	-146.29
208.612	-97.15
208.83	-57.91
209.048	3.17
209.266	-22.92
209.483	-9.91
209.701	-36.08
209.919	-11.64
210.136	-105.65
210.354	-66.48
210.572	-33.77
210.79	-72.38
211.007	-7.84
211.225	17.69
211.442	-26
211.66	-13.57
211.878	-46.58
212.095	-17.04
212.313	-11.63
212.53	6.7
212.748	7.27
212.966	18.77
213.183	17.51
213.401	11.32
213.618	11.11
213.836	12.74
214.053	10.94
214.271	12.49
214.488	30.57
214.705	19.21
214.923	-2.05
215.14	-16.78
215.358	-54.06
215.575	-25.82
215.793	-50.25
216.01	-57.89
216.227	-83.56
216.445	-89.12
216.662	-38.02
216.879	-37.18
217.097	-25.25
217.314	8.53
217.531	-59.3
217.749	-41.62
217.966	-64.98
218.183	-64.54
218.4	-209.3
218.618	-141
218.835	-115.37
219.052	-574.29
219.269	-1345.61
219.487	-464.33
219.704	-1322.22
219.921	1031.58
220.138	1223.08
220.355	541.1
220.572	0
220.79	-1121.21
221.007	-268.94
221.224	-199.26
221.441	-28.13
221.658	-13.91
221.875	-64.66
222.092	-33.04
222.309	-22.27
222.526	-10.18
222.743	-31.95
222.96	-21.89
223.177	-28.24
223.394	-40.27
223.611	-65.47
223.828	-195.81
224.045	-182.84
224.262	-90.84
224.479	-94.55
224.696	-80.1
224.913	-115.7
225.13	-138.28
225.347	-118.84
225.564	-119.16
225.781	-122.56
225.997	-102.55
226.214	-56.22
226.431	-40.48
226.648	-54.46
226.865	-44.39
227.082	-54.33
227.298	-47.7
227.515	-40.09
227.732	-40.77
227.949	-33.95
228.165	-18.58
228.382	-17.39
228.599	-24.96
228.816	-29.56
229.032	-34.38
229.249	-41.57
229.466	-35.22
229.682	-32.94
229.899	-30.98
230.116	-34.93
230.332	-40.18
230.549	-46.52
230.765	-81.54
230.982	-59.54
231.199	-37.29
231.415	-9.04
231.632	-12.06
231.848	-12.94
232.065	-12.07
232.281	-23.57
232.498	-25.91
232.714	-12.12
232.931	-14.86
233.147	-0.48
233.364	-7.99
233.58	-19.67
233.797	-25.1
234.013	-19.29
234.23	-30.21
234.446	-28.52
234.662	-16.92
234.879	-6.77
235.095	-6.57
235.312	-10.16
235.528	-16.09
235.744	-16.28
235.961	-10.76
236.177	-8.1
236.393	-9.55
236.61	-4.73
236.826	-7.14
237.042	3.22
237.258	3.68
237.475	-1.72
237.691	0.34
237.907	3.52
238.123	-3.5
238.339	-10.5
238.556	-8.7
238.772	-28.6
238.988	-20.05
239.204	-19.85
239.42	-20.48
239.636	-6.94
239.853	-1.95
240.069	-6.36
240.285	-4.17
240.501	5.46
240.717	2.44
240.933	-0.89
241.149	5.38
241.365	4.63
241.581	2.3
241.797	-0.03
242.013	-6.85
242.229	-9.07
242.445	-1.89
242.661	-3.67
242.877	-7.14
243.093	-6.28
243.309	-11.13
243.525	-19.33
243.741	-19.02
243.957	-16.09
244.173	-15.31
244.388	-17.06
244.604	-12.56
244.82	-13.16
245.036	-6.98
245.252	-2.14
245.468	1.06
245.683	3.14
245.899	8.27
246.115	9.06
246.331	7.23
246.547	6.54
246.762	8.24
246.978	6.94
247.194	4.88
247.409	3.43
247.625	-0.97
247.841	-2.16
248.057	-0.03
248.272	-3.4
248.488	-6.24
248.703	-0.06
248.919	-2.18
249.135	-8.5
249.35	-10.07
249.566	-9.63
249.782	-17.47
249.997	-13.88
250.213	-22.03
250.428	-18.55
250.644	-15.22
250.859	-9.33
251.075	-12.97
251.29	-11.58
251.506	-3.2
251.721	-2.66
251.937	2.93
252.152	7.2
252.368	4.44
252.583	10.2
252.798	1.35
253.014	0.63
253.229	-6.4
253.445	-9.87
253.66	-13.74
253.875	-21.4
254.091	-22.18
254.306	-26.22
254.521	-20.97
254.737	-19.92
254.952	-18.78
255.167	-18.07
255.383	-24.41
255.598	-25.63
255.813	-17.22
256.028	-15.31
256.244	-13.83
256.459	-6.38
256.674	-2.04
256.889	-2.56
257.104	-2.52
257.32	-4.69
257.535	-1.56
257.75	1.03
257.965	2.96
258.18	1.24
258.395	2.98
258.61	3.25
258.826	0.63
259.041	-0.8
259.256	-3.21
259.471	-2
259.686	-0.14
259.901	-1.8
260.116	-3.71
260.331	-8.32
260.546	-8.8
260.761	-11.31
260.976	-17.25
261.191	-18.66
261.406	-20.14
261.621	-14.28
261.836	-16.28
262.05	-21.51
262.265	-21.17
262.48	-17.78
262.695	-15.65
262.91	-13.46
263.125	-14.32
263.34	-13.42
263.555	-12.24
263.769	-11.73
263.984	-13.16
264.199	-18.56
264.414	-14.62
264.629	-7.81
264.843	-9.53
265.058	-4.85
265.273	-8.39
265.488	-9.15
265.702	-7.27
265.917	-5.03
266.132	-6.8
266.346	-5.4
266.561	0.3
266.776	-0.51
266.99	-4.17
267.205	-3.7
267.42	-2.35
267.634	-1.41
267.849	-0.65
268.063	0.78
268.278	-1.39
268.492	-0.99
268.707	1.07
268.922	-1.27
269.136	-2.79
269.351	-3.57
269.565	-0.02
269.78	-4.43
269.994	-3.32
270.209	-1.64
270.423	-1.82
270.637	0.27
270.852	2.94
271.066	0.85
271.281	2.35
271.495	4.46
271.709	4.83
271.924	0.69
272.138	2.63
272.353	2.05
272.567	2.14
272.781	0.09
272.996	0.11
273.21	-3.24
273.424	-5.73
273.638	-7.28
273.853	-6.29
274.067	-4.71
274.281	-4.81
274.495	-3.92
274.71	-1.69
274.924	-1.81
275.138	0.83
275.352	3.55
275.566	4.02
275.781	6.08
275.995	7.94
276.209	8.07
276.423	4.11
276.637	5.51
276.851	3.6
277.065	1.77
277.279	-1.25
277.493	-3.89
277.707	-5.29
277.921	-7.48
278.135	-7.71
278.349	-12.02
278.563	-17.88
278.777	-14.32
278.991	-15.08
279.205	-16.46
279.419	-17.95
279.633	-18.75
279.847	-14.38
280.061	-19.62
280.275	-14.77
280.489	-13.01
280.703	-11.08
280.917	-9.86
281.131	-6.06
281.344	-4.17
281.558	-2.67
281.772	0.73
281.986	2.67
282.2	0.71
282.414	2.32
282.627	2.87
282.841	4.27
283.055	1.66
283.269	4.19
283.482	2.02
283.696	1.54
283.91	0.08
284.123	-1.79
284.337	-2.04
284.551	-0.91
284.764	-1.06
284.978	0.46
285.192	-2.07
285.405	1.55
285.619	0.23
285.833	-0.91
286.046	-2.61
286.26	-3.67
286.473	-3.18
286.687	-4.37
286.9	-4.14
287.114	-4.55
287.327	-6.52
287.541	-6.64
287.754	-11.6
287.968	-9.72
288.181	-10.4
288.395	-9.4
288.608	-8.52
288.822	-8.86
289.035	-6.04
289.248	-8.82
289.462	-8.14
289.675	-7.51
289.889	-6.15
290.102	-1.95
290.315	-2.93
290.529	-3.76
290.742	-3.82
290.955	-3.24
291.169	-3.6
291.382	-6.83
291.595	-9.79
291.808	-7.3
292.022	-7.09
292.235	-6.88
292.448	-7.71
292.661	-7.69
292.875	-6.14
293.088	-4.2
293.301	-1.27
293.514	-1.96
293.727	-0.75
293.94	2.98
294.153	1.55
294.367	-0.93
294.58	-3.83
294.793	-5.89
295.006	-7.67
295.219	-3.62
295.432	-5.61
295.645	-5.85
295.858	-6.46
296.071	-5.12
296.284	-4.54
296.497	-4.76
296.71	-4.37
296.923	-2.12
297.136	-2.19
297.349	0.84
297.562	-2.18
297.775	-1.18
297.988	-0.06
298.201	4.56
298.414	5.03
298.626	4.1
298.839	3.29
299.052	4.92
299.265	6.66
299.478	7.26
299.691	7.45
299.903	7.96
300.116	8.36
300.329	3.94
300.542	-0.15
300.755	-0.71
300.967	2.11
301.18	4.23
301.393	2.6
301.605	0.54
301.818	-1.48
302.031	-1.74
302.243	-3.48
302.456	-4
302.669	1.11
302.881	1.25
303.094	0.91
303.307	0.1
303.519	-4.1
303.732	-6.87
303.944	-7.55
304.157	-4.04
304.37	-5.45
304.582	-2.57
304.795	-0.64
305.007	-3.34
305.22	-3.16
305.432	-5.75
305.645	-7.4
305.857	-2.72
306.069	2.45
306.282	3.54
306.494	4.08
306.707	1.59
306.919	-1.9
307.132	-5.62
307.344	-8.07
307.556	-9.59
307.769	-4.5
307.981	-2.99
308.193	-4.38
308.406	-6.36
308.618	-6.27
308.83	-5.47
309.043	1.71
309.255	2.83
309.467	4.21
309.679	4.49
309.892	5.87
310.104	4.42
310.316	3.09
310.528	4.08
310.74	4.68
310.953	4.43
311.165	6.8
311.377	0.76
311.589	0.46
311.801	2.01
312.013	5.65
312.225	5.48
312.437	4.36
312.649	5.84
312.862	6.99
313.074	7.18
313.286	9.8
313.498	6.09
313.71	6.51
313.922	7.79
314.134	7.32
314.346	3.54
314.558	5.24
314.77	6.15
314.982	7.12
315.193	5.98
315.405	4.11
315.617	3.34
315.829	1.78
316.041	2.19
316.253	0.86
316.465	0.77
316.677	2.31
316.888	2.77
317.1	0.29
317.312	-3.92
317.524	-3.08
317.736	0.22
317.947	-0.61
318.159	0.22
318.371	2.96
318.583	2.3
318.794	-0.83
319.006	-0.47
319.218	-4.59
319.43	-1.45
319.641	1.58
319.853	-0.53
320.064	-3.27
320.276	-8.11
320.488	-7.47
320.699	-8.4
320.911	-7.33
321.123	-4.12
321.334	-5.62
321.546	-5.13
321.757	-6.55
321.969	-8.08
322.18	-5.37
322.392	-4.12
322.603	-3.33
322.815	-0.46
323.026	0.62
323.238	-0.13
323.449	-1.37
323.661	1.41
323.872	1.38
324.083	1.9
324.295	1.96
324.506	1.65
324.718	0.8
324.929	3.33
325.14	0.5
325.352	2
325.563	3.51
325.774	4.86
325.986	3.41
326.197	5.03
326.408	5.39
326.62	4.96
326.831	6.06
327.042	5.39
327.253	2.07
327.464	4.85
327.676	2.75
327.887	4.3
328.098	3.51
328.309	5.97
328.52	3.46
328.732	3.74
328.943	1.43
329.154	-4.11
329.365	-6.55
329.576	-3.16
329.787	-4.31
329.998	-3.42
330.209	-5.85
330.42	-4.6
330.631	-9.61
330.842	-8.45
331.053	-8.23
331.264	-6.44
331.475	-1.08
331.686	4.13
331.897	3.74
332.108	3.78
332.319	2.57
332.53	0.47
332.741	-0.49
332.952	2.98
333.163	4.6
333.374	5.87
333.585	4.87
333.795	2.6
334.006	3.18
334.217	4.23
334.428	5.83
334.639	6.86
334.849	9.25
335.06	11.01
335.271	9.21
335.482	9.06
335.692	6.56
335.903	8.74
336.114	9.16
336.325	9.16
336.535	7.01
336.746	6.58
336.957	6.04
337.167	6.53
337.378	7.52
337.589	10.04
337.799	8.88
338.01	9.86
338.22	9.8
338.431	7.45
338.642	5.93
338.852	4.15
339.063	0.4
339.273	5.12
339.484	5.92
339.694	2.87
339.905	-0.31
340.115	2.35
340.326	0
340.536	0.35
340.746	4.49
340.957	6.56
341.167	9.66
341.378	11.1
341.588	5.6
341.799	3.35
342.009	4.99
342.219	4.14
342.43	4.08
342.64	6.89
342.85	9.68
343.061	6.38
343.271	2.94
343.481	3.34
343.691	3.13
343.902	5.96
344.112	5.95
344.322	4.81
344.532	6.98
344.743	6.23
344.953	5.53
345.163	3.23
345.373	6.17
345.583	7.48
345.793	5.23
346.004	6.8
346.214	5.28
346.424	5.75
346.634	3.89
346.844	3.44
347.054	3.09
347.264	0.41
347.474	0.43
347.684	-0.86
347.894	0.45
348.104	3.44
348.314	2
348.524	3.43
348.734	5.01
348.944	6.9
349.154	7.37
349.364	5.59
349.574	5.87
349.784	5.66
349.994	7.75
350.204	6.21
350.413	5.73
350.623	7.05
350.833	7.04
351.043	5.11
351.253	6.17
351.463	4.5
351.672	7.57
351.882	10.02
352.092	9.16
352.302	7.89
352.511	8.69
352.721	8.04
352.931	8.69
353.141	8.27
353.35	9.03
353.56	7.77
353.77	5.53
353.979	4.44
354.189	5.66
354.399	4.37
354.608	5.01
354.818	4.15
355.027	3.03
355.237	1.15
355.447	1.23
355.656	0.27
355.866	-0.86
356.075	1.11
356.285	0.47
356.494	-1.8
356.704	-0.67
356.913	-3.37
357.123	-2.29
357.332	-1.8
357.542	-1.11
357.751	-1.49
357.96	-0.49
358.17	1.21
358.379	1.19
358.589	1.42
358.798	3.1
359.007	3.2
359.217	3.13
359.426	1.94
359.635	1.97
359.845	1.52
360.054	0.23
360.263	0.11
360.472	0.59
360.682	0.66
360.891	1.19
361.1	0.93
361.309	1.47
361.519	3.19
361.728	4
361.937	3.67
362.146	4.38
362.355	5.87
362.564	4.93
362.774	3.91
362.983	4.36
363.192	4.29
363.401	5.24
363.61	5.89
363.819	5.73
364.028	4.5
364.237	5.96
364.446	6.15
364.655	6.27
364.864	8.89
365.073	9.48
365.282	9.87
365.491	9.77
365.7	9.13
365.909	6.83
366.118	6.34
366.327	6.91
366.536	7.37
366.745	6.44
366.954	5.94
367.162	5.16
367.371	4.23
367.58	4.69
367.789	3.99
367.998	3.87
368.207	5.38
368.415	4.56
368.624	4.38
368.833	5.16
369.042	5.45
369.25	5.38
369.459	5.02
369.668	6.1
369.877	3.78
370.085	5.28
370.294	4.92
370.503	3.63
370.711	4.06
370.92	4.5
371.129	2.57
371.337	3.01
371.546	2.96
371.754	2.37
371.963	1.25
372.171	1.5
372.38	2.02
372.589	0.72
372.797	-0.17
373.006	-0.52
373.214	-1.63
373.423	-0.92
373.631	-1.51
373.84	-1.48
374.048	-1.75
374.256	-1.08
374.465	1.08
374.673	0.02
374.882	0.58
375.09	3.3
375.298	2.95
375.507	3.7
375.715	2.74
375.923	3.48
376.132	2.99
376.34	4.36
376.548	4.83
376.757	3.32
376.965	3.67
377.173	4.07
377.381	2.55
377.59	2.53
377.798	2.82
378.006	3.09
378.214	3.17
378.423	4.32
378.631	3.12
378.839	3.23
379.047	4.07
379.255	3.41
379.463	3.51
379.671	4.24
379.879	5.08
380.088	5.26
380.296	4.47
380.504	4.7
380.712	4.74
380.92	5.18
381.128	6.04
381.336	5.28
381.544	5.91
381.752	6.69
381.96	7
382.168	6.97
382.376	6.58
382.584	6.67
382.791	6.12
382.999	5.22
383.207	3.48
383.415	2.09
383.623	3.24
383.831	3.53
384.039	2.38
384.247	1.79
384.454	1.92
384.662	1.56
384.87	2.53
385.078	2.02
385.285	2.5
385.493	3.82
385.701	4.09
385.909	3.47
386.116	2.32
386.324	3.21
386.532	3.01
386.739	3.24
386.947	2.74
387.155	3.07
387.362	3.85
387.57	1.87
387.778	2.46
387.985	3.36
388.193	4.28
388.4	4.72
388.608	4.71
388.816	3.95
389.023	2.14
389.231	2.92
389.438	3.34
389.646	3.78
389.853	5.91
390.061	4.98
390.268	3.79
390.475	2.89
390.683	3.04
390.89	3.11
391.098	4.77
391.305	6.3
391.512	7.37
391.72	6.7
391.927	5.11
392.135	5.01
392.342	4.45
392.549	4.87
392.756	4.9
392.964	5.13
393.171	4.58
393.378	4.27
393.586	3.41
393.793	1.83
394	2.25
394.207	3.27
394.414	3.53
394.622	4.21
394.829	3.86
395.036	4.39
395.243	4.59
395.45	6.45
395.657	5.02
395.864	4.43
396.072	4.47
396.279	4.54
396.486	4.15
396.693	4.7
396.9	5.23
397.107	5.86
397.314	5.36
397.521	4.01
397.728	3.04
397.935	4.31
398.142	5.37
398.349	6
398.556	5.21
398.763	4.67
398.97	3.49
399.177	3.12
399.383	2.47
399.59	1.1
399.797	1.81
400.004	1.27
400.211	1.36
400.418	1.23
400.625	2.61
400.831	3.76
401.038	4.36
401.245	3.75
401.452	3.42
401.658	4.2
401.865	5.76
402.072	6.27
402.279	4.97
402.485	4.66
402.692	4.44
402.899	4.07
403.105	3.1
403.312	2.98
403.519	3.2
403.725	3.84
403.932	3.95
404.138	3.46
404.345	2.88
404.552	3.32
404.758	3.03
404.965	4.7
405.171	3.84
405.378	4.82
405.584	5.23
405.791	6.93
405.997	6.72
406.204	5.12
406.41	5.03
406.617	5.48
406.823	5.32
407.029	5.79
407.236	4.26
407.442	5.34
407.649	5.13
407.855	4.63
408.061	2.65
408.268	2.97
408.474	4.01
408.68	4.13
408.887	3.89
409.093	3.93
409.299	4.46
409.505	4.95
409.712	3.6
409.918	2.86
410.124	3.09
410.33	3.97
410.537	4.76
410.743	4.84
410.949	5.12
411.155	5.23
411.361	6.9
411.567	6.31
411.773	5.52
411.98	6.24
412.186	6.75
412.392	6.23
412.598	5.9
412.804	4.32
413.01	4.42
413.216	4.37
413.422	5.07
413.628	3.91
413.834	4.27
414.04	3.8
414.246	3.78
414.452	3.14
414.658	2.84
414.864	2.26
415.07	2.67
415.275	2.27
415.481	2.88
415.687	1.42
415.893	2.11
416.099	1.08
416.305	1.59
416.511	1.3
416.716	1.61
416.922	2.62
417.128	3.3
417.334	3.36
417.539	3.83
417.745	3.9
417.951	4.32
418.157	4.02
418.362	5.02
418.568	4.77
418.774	5.07
418.979	5.4
419.185	5.18
419.391	4.94
419.596	4.6
419.802	4.55
420.008	4.67
420.213	0.45
420.419	0.61
420.624	0.2
420.83	0.89
421.035	1.13
421.241	0.62
421.446	0.31
421.652	0.36
421.857	0.36
422.063	0.24
422.268	-0.29
422.474	4.05
422.679	3.94
422.885	3.77
423.09	3.52
423.295	3.23
423.501	3.39
423.706	3.31
423.911	3.22
424.117	3.4
424.322	3.67
424.527	3.61
424.733	3.54
424.938	3.26
425.143	3.17
425.349	3
425.554	3.45
425.759	3.48
425.964	3.85
426.169	4.26
426.375	4.28
426.58	4.06
426.785	4
426.99	2.65
427.195	3.38
427.4	3.46
427.605	2.96
427.811	2.6
428.016	1.97
428.221	2.78
428.426	1.9
428.631	2.14
428.836	1.89
429.041	1.83
429.246	3.14
429.451	2.49
429.656	1.9
429.861	1.83
430.066	0.77
430.271	2.33
430.476	1.05
430.681	1.59
430.886	1.88
431.09	2.07
431.295	2.15
431.5	2.34
431.705	2.21
431.91	3.07
432.115	3.09
432.32	3.58
432.524	2.33
432.729	2.14
432.934	1.7
433.139	1.75
433.343	1.58
433.548	2.13
433.753	1.85
433.958	1.93
434.162	1.87
434.367	2.49
434.572	2.27
434.776	2.94
434.981	3.33
435.186	3.1
435.39	3.19
435.595	3.25
435.799	2.24
436.004	2.93
436.209	3.49
436.413	3.01
436.618	3.09
436.822	3.01
437.027	2.73
437.231	2.67
437.436	3.22
437.64	2.61
437.845	2.19
438.049	3.06
438.253	2.57
438.458	2.78
438.662	2.68
438.867	2.19
439.071	2.42
439.275	2.74
439.48	3.31
439.684	3.07
439.888	3.31
440.093	3.1
440.297	2.86
440.501	3.4
440.706	2.74
440.91	2.87
441.114	3.19
441.318	2.95
441.523	2.96
441.727	2.46
441.931	2.68
442.135	2.86
442.339	3.66
442.543	3.92
442.748	3.55
442.952	3.6
443.156	3.35
443.36	3.34
443.564	3.4
443.768	3.2
443.972	2.74
444.176	2.68
444.38	2.56
444.584	2.34
444.788	2.22
444.992	2.36
445.196	2.52
445.4	3.16
445.604	3.33
445.808	3.66
446.012	3.74
446.216	4.38
446.42	4.55
446.624	3.85
446.828	4.05
447.032	4.03
447.235	3.42
447.439	3.25
447.643	3.41
447.847	3.16
448.051	2.51
448.254	2.54
448.458	2.16
448.662	2.29
448.866	3.21
449.069	3.37
449.273	3.2
449.477	4.03
449.681	4.66
449.884	4.33
450.088	3.74
450.292	4.18
450.495	4.84
450.699	5.69
450.902	5.62
451.106	5.88
451.31	4.88
451.513	5.03
451.717	4.81
451.92	3.83
452.124	3.61
452.327	4.25
452.531	4.53
452.734	3.58
452.938	3
453.141	2.27
453.345	1.46
453.548	1.51
453.752	1.53
453.955	1.79
454.158	1.8
454.362	2.27
454.565	2.73
454.769	2.8
454.972	3.44
455.175	3.27
455.379	2.96
455.582	3.61
455.785	3.98
455.988	3.13
456.192	2.37
456.395	2.86
456.598	2.11
456.801	0.65
457.005	0.96
457.208	0.07
457.411	0.27
457.614	0.92
457.817	0.92
458.021	0.76
458.224	1.26
458.427	1.02
458.63	1.27
458.833	1.05
459.036	1.71
459.239	1.04
459.442	1.44
459.645	1.56
459.848	1.32
460.051	1.37
460.254	2.13
460.457	1.69
460.66	2.12
460.863	1.89
461.066	2.47
461.269	2.07
461.472	2.78
461.675	2.41
461.878	1.76
462.081	2.42
462.284	1.77
462.486	1.31
462.689	1.88
462.892	1.96
463.095	2.24
463.298	2.2
463.5	2.92
463.703	2.87
463.906	3.48
464.109	4.75
464.311	4.58
464.514	5.16
464.717	5.16
464.92	5.52
465.122	5.21
465.325	5.1
465.528	5.35
465.73	5.22
465.933	4.95
466.135	4.01
466.338	3.31
466.541	3.35
466.743	3.6
466.946	3.87
467.148	3.49
467.351	4.37
467.553	3.66
467.756	3.26
467.958	3.89
468.161	3.38
468.363	3.55
468.566	3.78
468.768	3.39
468.971	2.51
469.173	2.84
469.375	2.57
469.578	1.91
469.78	2.5
469.983	1.75
470.185	0.91
470.387	1.17
470.59	2.05
470.792	1.22
470.994	0.88
471.196	1.56
471.399	1.48
471.601	2.24
471.803	2.16
472.005	1.59
472.208	2.23
472.41	2.52
472.612	3.18
472.814	2.46
473.016	3.05
473.218	4.25
473.421	3.98
473.623	3.37
473.825	2.74
474.027	2.68
474.229	3.3
474.431	3.27
474.633	2.24
474.835	1.73
475.037	2.65
475.239	2.66
475.441	2.09
475.643	2.38
475.845	2.7
476.047	3.1
476.249	3.2
476.451	3.07
476.653	3.35
476.855	4.53
477.057	4.24
477.258	3.84
477.46	4.35
477.662	4.36
477.864	4.69
478.066	4.54
478.268	4.32
478.469	4.23
478.671	4.69
478.873	4.86
479.075	4.63
479.276	4.98
479.478	4.79
479.68	4.62
479.882	4.63
480.083	4.23
480.285	4.14
480.487	4.43
480.688	4.45
480.89	3.9
481.091	3.66
481.293	3.71
481.495	3.84
481.696	4.01
481.898	3.8
482.099	3.78
482.301	3.83
482.502	3.88
482.704	3.86
482.905	4.01
483.107	4.27
483.308	4.46
483.51	4.38
483.711	4.28
483.913	4.3
484.114	4.12
484.315	3.9
484.517	3.84
484.718	3.84
484.92	3.52
485.121	3.33
485.322	3.15
485.524	3.03
485.725	2.91
485.926	3.07
486.127	2.8
486.329	3.12
486.53	3.46
486.731	3.6
486.932	3.64
487.134	3.74
487.335	3.68
487.536	3.55
487.737	3.52
487.938	3.66
488.139	3.44
488.341	3.82
488.542	3.94
488.743	3.86
488.944	3.72
489.145	3.48
489.346	3.6
489.547	3.6
489.748	3.77
489.949	3.83
490.15	3.97
490.351	4
490.552	3.74
490.753	3.62
490.954	3.46
491.155	3.56
491.356	3.8
491.557	3.91
491.758	4.23
491.959	4.45
492.159	4.32
492.36	4.34
492.561	4.71
492.762	5.13
492.963	4.98
493.164	5.29
493.364	4.93
493.565	5.01
493.766	4.97
493.967	4.67
494.167	4.35
494.368	4.3
494.569	4.76
494.769	4.05
494.97	4.03
495.171	4.15
495.371	4.11
495.572	3.98
495.773	3.88
495.973	4.03
496.174	4.58
496.375	4.18
496.575	4.14
496.776	4.03
496.976	4.26
497.177	4.14
497.377	4.17
497.578	3.85
497.778	4.2
497.979	4.49
498.179	4.3
498.38	3.84
498.58	4.47
498.78	4.79
498.981	4.16
499.181	4.28
499.382	3.85
499.582	3.77
499.782	4.04
499.983	4.05
500.183	3.51
500.383	3.41
500.584	2.85
500.784	2.41
500.984	2.07
501.184	2.02
501.385	2.2
501.585	2.24
501.785	2.18
501.985	2.21
502.185	2.47
502.386	2.07
502.586	2.31
502.786	2.7
502.986	2.92
503.186	3.56
503.386	3.99
503.586	4.01
503.786	4.38
503.987	4.35
504.187	4.39
504.387	4.17
504.587	4.61
504.787	4.92
504.987	4.99
505.187	4.68
505.387	3.96
505.587	3.31
505.786	3.02
505.986	2.67
506.186	2.75
506.386	3.07
506.586	3.29
506.786	3.98
506.986	3.73
507.186	3.96
507.386	4.47
507.585	4.81
507.785	5.21
507.985	5.47
508.185	6
508.384	6.16
508.584	5.82
508.784	5.8
508.984	5.32
509.183	5.11
509.383	5.08
509.583	5.26
509.782	5.42
509.982	5.61
510.182	5.84
510.381	5.57
510.581	5.78
510.781	6.31
510.98	5.99
511.18	5.96
511.379	6.17
511.579	5.99
511.778	6.1
511.978	5.89
512.177	5.78
512.377	5.68
512.576	6.23
512.776	6.55
512.975	5.88
513.175	6.3
513.374	6.53
513.573	6.54
513.773	6.82
513.972	6.4
514.172	6.54
514.371	6.42
514.57	5.77
514.77	5.99
514.969	5.6
515.168	5.93
515.367	6.14
515.567	6.4
515.766	6.92
515.965	7.21
516.164	7.44
516.364	7.69
516.563	7.9
516.762	8.04
516.961	7.87
517.16	8.22
517.359	8.51
517.559	8.37
517.758	8.22
517.957	7.97
518.156	7.68
518.355	8.02
518.554	7.57
518.753	7.61
518.952	7.75
519.151	7.62
519.35	7.3
519.549	7.12
519.748	7.3
519.947	7.31
520.146	7.21
520.345	7.64
520.544	7.49
520.743	7.45
520.942	7.39
521.141	8.08
521.339	8.41
521.538	8.22
521.737	8.28
521.936	8.19
522.135	8.15
522.333	8.07
522.532	8.04
522.731	7.95
522.93	8.3
523.129	8.53
523.327	8.19
523.526	7.47
523.725	7.55
523.923	7.8
524.122	7.78
524.321	8.31
524.519	8.31
524.718	8.01
524.917	8.05
525.115	8.12
525.314	8.15
525.512	8.44
525.711	8.89
525.909	9.09
526.108	9.37
526.306	9.3
526.505	8.82
526.703	8.94
526.902	9.21
527.1	9.34
527.299	9.32
527.497	9.32
527.696	9.22
527.894	9.33
528.092	9.45
528.291	9.32
528.489	9.42
528.688	9.78
528.886	9.92
529.084	10.11
529.283	10.12
529.481	10.33
529.679	10.4
529.877	10.43
530.076	10.09
530.274	10.24
530.472	10.43
530.67	10.62
530.869	10.43
531.067	10.02
531.265	9.8
531.463	9.76
531.661	9.63
531.859	9.83
532.057	9.98
532.255	9.96
532.454	9.73
532.652	9.58
532.85	9.59
533.048	9.52
533.246	9.9
533.444	9.75
533.642	9.55
533.84	9.81
534.038	9.46
534.236	9.32
534.434	9.59
534.632	9.4
534.83	9.68
535.027	9.7
535.225	10.17
535.423	10.25
535.621	10.34
535.819	10.27
536.017	10.36
536.215	10.72
536.412	10.5
536.61	10.85
536.808	11.12
537.006	10.66
537.203	10.64
537.401	10.44
537.599	10.24
537.797	10.38
537.994	10.77
538.192	10.57
538.39	10.59
538.587	10.82
538.785	10.47
538.983	11.08
539.18	11.18
539.378	11.22
539.575	11.43
539.773	11.7
539.97	11.98
540.168	12.27
540.366	12.26
540.563	12.09
540.761	12.23
540.958	12.45
541.155	11.85
541.353	12
541.55	12.4
541.748	12.3
541.945	12.22
542.143	11.95
542.34	11.7
542.537	11.59
542.735	11.49
542.932	11.67
543.129	11.78
543.327	12.48
543.524	12.57
543.721	12.01
543.919	11.91
544.116	11.98
544.313	12.23
544.51	12.45
544.708	12.66
544.905	13.08
545.102	12.92
545.299	12.93
545.496	13.32
545.693	13.62
545.891	14.17
546.088	14.26
546.285	14.67
546.482	14.64
546.679	14.61
546.876	14.68
547.073	14.37
547.27	14.93
547.467	15.11
547.664	14.56
547.861	13.97
548.058	13.26
548.255	13.25
548.452	12.71
548.649	13.18
548.846	13.33
549.043	13.89
549.24	14.58
549.437	14.35
549.633	14.19
549.83	13.67
550.027	14.07
550.224	14.43
550.421	14.61
550.618	15.09
550.814	14.6
551.011	14.33
551.208	14.32
551.405	13.89
551.601	14.17
551.798	14.15
551.995	14.11
552.191	14.1
552.388	14.21
552.585	13.89
552.781	13.29
552.978	13.61
553.175	14.32
553.371	14.22
553.568	14.59
553.764	13.77
553.961	14.33
554.157	14.77
554.354	14.95
554.55	15.78
554.747	16.18
554.943	16.38
555.14	16.67
555.336	16.54
555.533	15.92
555.729	15.45
555.926	15.95
556.122	15.51
556.318	16.07
556.515	15.94
556.711	14.66
556.907	14.68
557.104	15.6
557.3	15.06
557.496	14.4
557.693	15.25
557.889	16.22
558.085	16.4
558.281	16.3
558.478	15.93
558.674	15.94
558.87	16.56
559.066	16.27
559.262	15.39
559.459	15.31
559.655	16
559.851	15.57
560.047	15.79
560.243	15.77
560.439	15.98
560.635	15.85
560.831	16.14
561.027	15.86
561.223	16.33
561.419	17.28
561.615	17.62
561.811	17.73
562.007	17.99
562.203	17.53
562.399	17.14
562.595	16.93
562.791	17.46
562.987	16.75
563.183	17.35
563.379	17.61
563.575	17.08
563.771	16.57
563.966	16.37
564.162	16.5
564.358	16.77
564.554	16.89
564.75	17.22
564.945	17.01
565.141	17.67
565.337	17.42
565.533	17.71
565.728	17.74
565.924	17.96
566.12	17.69
566.315	17.71
566.511	17.51
566.707	17.58
566.902	17.5
567.098	17.48
567.293	17.66
567.489	17.31
567.684	16.38
567.88	16.06
568.076	16.19
568.271	16.18
568.467	16.63
568.662	16.76
568.858	17.19
569.053	17.77
569.248	18.03
569.444	17.16
569.639	17.74
569.835	18.15
570.03	19.31
570.225	19.54
570.421	19.51
570.616	18.86
570.812	17.54
571.007	17.14
571.202	16.46
571.397	16.11
571.593	16.74
571.788	16.64
571.983	16.96
572.178	16.32
572.374	16.12
572.569	16.39
572.764	16.56
572.959	17.68
573.154	17.82
573.35	18.29
573.545	17.86
573.74	17.31
573.935	16.71
574.13	16.54
574.325	16.55
574.52	16.42
574.715	15.83
574.91	15.87
575.105	15.37
575.3	15.39
575.495	15
575.69	15.66
575.885	15.9
576.08	16.6
576.275	16.21
576.47	16.48
576.665	17.24
576.86	18.44
577.055	18.81
577.25	19.41
577.444	19.37
577.639	19.21
577.834	18.88
578.029	18.94
578.224	18.43
578.418	18.54
578.613	18.43
578.808	17.46
579.003	16.63
579.197	16.39
579.392	16.61
579.587	16.6
579.781	17.22
579.976	17.32
580.171	17.32
580.365	17.82
580.56	18.54
580.755	18.83
580.949	19.28
581.144	19.66
581.338	19.9
581.533	20.18
581.727	19.85
581.922	19.48
582.116	19.95
582.311	20.35
582.505	20.85
582.7	21.02
582.894	20.64
583.089	21.01
583.283	21.02
583.478	21.24
583.672	20.84
583.866	21.47
584.061	21.87
584.255	21.44
584.449	20.95
584.644	20.06
584.838	19.93
585.032	20.51
585.226	20.33
585.421	20.92
585.615	20.22
585.809	19.82
586.003	20
586.198	20.01
586.392	20.9
586.586	21.06
586.78	20.74
586.974	19.63
587.168	19.07
587.363	18.93
587.557	18.03
587.751	18.3
587.945	18.71
588.139	18.48
588.333	18.01
588.527	17.57
588.721	18.4
588.915	18.82
589.109	19.76
589.303	19.06
589.497	18.8
589.691	18.1
589.885	18.5
590.079	18.97
590.273	19.38
590.466	19.82
590.66	19.65
590.854	19.36
591.048	19.53
591.242	19.17
591.436	19.92
591.629	19.87
591.823	21.68
592.017	21.12
592.211	20.66
592.404	20.55
592.598	20.95
592.792	20.27
592.986	19.98
593.179	19.02
593.373	19.09
593.567	18.44
593.76	18.52
593.954	17.32
594.147	17.67
594.341	17.8
594.535	17.09
594.728	17.13
594.922	17.84
595.115	17.76
595.309	18.42
595.502	18.1
595.696	18.13
595.889	18.38
596.083	19.28
596.276	18.83
596.47	18.57
596.663	19.38
596.856	18.86
597.05	19.4
597.243	19.65
597.437	19.5
597.63	19.76
597.823	19.97
598.017	19.93
598.21	19.83
598.403	20.43
598.596	21.08
598.79	20.62
598.983	20.87
599.176	20.1
599.369	21.09
599.563	21.53
599.756	21.89
599.949	22.7
600.142	22.21
600.335	21.13
600.528	21
600.722	20.69
600.915	20.17
601.108	20.02
601.301	20
601.494	18.85
601.687	19
601.88	19.12
602.073	19.09
602.266	19.22
602.459	19.91
602.652	20.28
602.845	20.16
603.038	19.96
603.231	20.32
603.424	19.69
603.617	19.68
603.809	19.36
604.002	19.28
604.195	19.07
604.388	19.16
604.581	18.96
604.774	18.42
604.966	19.16
605.159	19.73
605.352	19.46
605.545	20.08
605.737	20.64
605.93	20.95
606.123	20.49
606.316	20.45
606.508	20.77
606.701	20.58
606.894	21.18
607.086	19.78
607.279	19.74
607.471	19.66
607.664	20.26
607.857	19.38
608.049	19.38
608.242	19.98
608.434	20.07
608.627	19.81
608.819	19.77
609.012	19.94
609.204	20.49
609.397	21.01
609.589	20.81
609.782	20.44
609.974	20.09
610.166	20.11
610.359	20.59
610.551	20.71
610.743	21.69
610.936	22.33
611.128	22.64
611.32	23.24
611.513	22.75
611.705	23.99
611.897	24.02
612.09	25.53
612.282	26.15
612.474	26.2
612.666	25.89
612.858	25.3
613.051	25.96
613.243	25.66
613.435	24.77
613.627	25.48
613.819	24.11
614.011	24.56
614.203	24.46
614.395	23.51
614.588	22.17
614.78	22.24
614.972	22.55
615.164	21.38
615.356	21.27
615.548	22.6
615.74	22.64
615.932	23.66
616.124	22.91
616.315	22.85
616.507	23.04
616.699	22.84
616.891	22.93
617.083	24.03
617.275	24.18
617.467	24.28
617.659	23.03
617.85	22.18
618.042	21.86
618.234	22.71
618.426	22.28
618.618	23.03
618.809	24.49
619.001	24.41
619.193	22.97
619.384	23.92
619.576	24.1
619.768	24.42
619.959	24.97
620.151	25.29
620.343	25.42
620.534	25.19
620.726	25.96
620.917	24.6
621.109	24.6
621.301	24.7
621.492	24.67
621.684	24.33
621.875	23.4
622.067	23.67
622.258	22.67
622.45	23.61
622.641	24.1
622.832	23.18
623.024	24.52
623.215	24.7
623.407	24.5
623.598	23.87
623.789	23.29
623.981	24.49
624.172	25.05
624.363	25.24
624.555	24.44
624.746	24.6
624.937	24.21
625.129	23.54
625.32	23.88
625.511	24.17
625.702	24.42
625.893	24.88
626.085	25.31
626.276	24.11
626.467	24.02
626.658	24.33
626.849	23.83
627.04	24.06
627.231	24.47
627.422	24.25
627.614	24.17
627.805	23.22
627.996	23.76
628.187	23.46
628.378	24.69
628.569	24.86
628.76	23.34
628.951	23.65
629.142	23.56
629.332	22.44
629.523	22.24
629.714	21.99
629.905	22.74
630.096	21.93
630.287	21.21
630.478	19.59
630.669	19.17
630.859	20.93
631.05	21.01
631.241	22.08
631.432	22.94
631.623	23.57
631.813	23.58
632.004	23.82
632.195	24.47
632.385	24.55
632.576	25.07
632.767	24.71
632.957	24.02
633.148	24.37
633.339	23.42
633.529	24.74
633.72	24.16
633.91	24.15
634.101	24.2
634.292	23.9
634.482	25.14
634.673	24.66
634.863	26.1
635.054	26.64
635.244	26.9
635.435	27.29
635.625	26.38
635.815	27.09
636.006	26.93
636.196	27.42
636.387	27.28
636.577	27.12
636.767	28.1
636.958	27.18
637.148	27.92
637.338	28.24
637.529	27.96
637.719	28.52
637.909	27.63
638.099	28.73
638.29	28.98
638.48	28.16
638.67	28.18
638.86	28.33
639.05	28.69
639.241	27.32
639.431	26.15
639.621	25.33
639.811	23.16
640.001	23.02
640.191	22.27
640.381	20.81
640.571	21.18
640.761	20.14
640.951	20.65
641.141	20.16
641.331	20.81
641.521	21.66
641.711	20.89
641.901	22.09
642.091	21.71
642.281	22.58
642.471	22.96
642.661	22.9
642.851	21.21
643.041	20.35
643.231	21.15
643.42	21.19
643.61	20.05
643.8	21.82
643.99	22.44
644.18	23.26
644.369	22.96
644.559	22.91
644.749	22.64
644.939	24.19
645.128	24.45
645.318	24.62
645.508	24.21
645.697	24.65
645.887	24.23
646.076	23.68
646.266	23.82
646.456	23.64
646.645	23.62
646.835	24.89
647.024	25.09
647.214	25.37
647.403	25.11
647.593	24.61
647.782	25.41
647.972	26.48
648.161	25.71
648.351	26.49
648.54	26.46
648.73	26.49
648.919	26.33
649.108	26.22
649.298	26.15
649.487	26.9
649.677	27.5
649.866	25.72
650.055	25.21
650.244	25.65
650.434	25.17
650.623	24.65
650.812	24.13
651.002	25.05
651.191	25.19
651.38	24.88
651.569	25.4
651.758	24.71
651.947	25.33
652.137	26.51
652.326	26.19
652.515	25.61
652.704	25.44
652.893	25.17
653.082	24.85
653.271	24.13
653.46	23.07
653.649	22.01
653.838	24
654.027	25.21
654.216	23.59
654.405	24.03
654.594	24.83
654.783	24.71
654.972	26
655.161	24.67
655.35	25.64
655.539	27.74
655.728	28.47
655.916	27.59
656.105	26.76
656.294	27.48
656.483	27.25
656.672	26.54
656.86	27.79
657.049	26.96
657.238	26.99
657.427	27.73
657.615	27.05
657.804	26.25
657.993	25.4
658.181	25.96
658.37	25.64
658.559	26.66
658.747	27.06
658.936	26.44
659.125	24.67
659.313	25.35
659.502	23.78
659.69	24.24
659.879	25.04
660.067	26.12
660.256	26.81
660.444	26.26
660.633	25.89
660.821	26.51
661.01	26.6
661.198	28.43
661.387	27.36
661.575	29.59
661.763	28.92
661.952	28.47
662.14	27.78
662.328	26.5
662.517	27.53
662.705	26.2
662.893	25.34
663.082	24.39
663.27	24.7
663.458	25
663.646	23.5
663.834	24.54
664.023	24.58
664.211	23.11
664.399	21.14
664.587	20.91
664.775	20.86
664.963	21.25
665.152	22.58
665.34	22.69
665.528	22.99
665.716	22.94
665.904	22.39
666.092	22.19
666.28	23.92
666.468	26.25
666.656	27.55
666.844	27.8
667.032	27.45
667.22	26.78
667.408	26.57
667.596	25.82
667.784	25.42
667.971	24.3
668.159	23.75
668.347	23.14
668.535	22.63
668.723	21.75
668.911	23.62
669.098	23.53
669.286	23.63
669.474	24.7
669.662	25.52
669.849	26.41
670.037	27.86
670.225	27.26
670.413	28.5
670.6	28.41
670.788	27.17
670.976	25.69
671.163	26.32
671.351	25.92
671.538	25.06
671.726	25.47
671.913	25.76
672.101	26.6
672.289	28.1
672.476	27.48
672.664	28.79
672.851	30.1
673.039	29.61
673.226	28.49
673.413	27.85
673.601	26.34
673.788	26.15
673.976	25.61
674.163	24.75
674.35	24.44
674.538	24.49
674.725	23.99
674.912	24.51
675.1	24.64
675.287	24.64
675.474	26.62
675.662	29.11
675.849	29.33
676.036	28.71
676.223	26.79
676.411	27.43
676.598	27.99
676.785	28.5
676.972	27.76
677.159	28.55
677.346	27.67
677.533	25.18
677.721	24.9
677.908	26.08
678.095	26.19
678.282	26.44
678.469	25.53
678.656	25.7
678.843	24.41
679.03	24.14
679.217	24.28
679.404	25.27
679.591	27.46
679.778	26.33
679.964	25.74
680.151	25.26
680.338	26.22
680.525	24.79
680.712	23.3
680.899	23.94
681.086	24.08
681.272	24.97
681.459	25.12
681.646	24.13
681.833	27.08
682.02	25.71
682.206	28.59
682.393	28.91
682.58	30.07
682.766	30.22
682.953	30.37
683.14	30.28
683.326	28.83
683.513	27.7
683.7	28.22
683.886	25.37
684.073	24.93
684.259	23.27
684.446	21.36
684.632	21.57
684.819	21.94
685.005	21.17
685.192	20.53
685.378	21.24
685.565	22.68
685.751	21.77
685.938	22.16
686.124	23.46
686.31	22.55
686.497	24.28
686.683	24.6
686.87	24.54
687.056	25.34
687.242	25.05
687.429	23.95
687.615	24.47
687.801	25.58
687.987	24.63
688.174	24.56
688.36	25.33
688.546	24.43
688.732	24.82
688.918	24.57
689.105	24.3
689.291	25.9
689.477	26.56
689.663	25.7
689.849	26.61
690.035	29.27
690.221	30.25
690.407	29.73
690.593	30.42
690.779	29.54
690.965	28.12
691.151	28.01
691.337	26.16
691.523	25.96
691.709	27.01
691.895	26.75
692.081	25.65
692.267	24.25
692.453	23.86
692.639	22.78
692.825	21.87
693.011	22.6
693.196	22.63
693.382	21.46
693.568	20.32
693.754	18.17
693.94	17.25
694.125	16.81
694.311	15.8
694.497	18.06
694.682	17.27
694.868	18.2
695.054	19.57
695.239	19.27
695.425	22.25
695.611	22.09
695.796	24.49
695.982	24.52
696.168	24.42
696.353	24.02
696.539	22.73
696.724	23.87
696.91	24.63
697.095	24.39
697.281	24.79
697.466	23.97
697.652	25.87
697.837	24.41
698.023	24.06
698.208	24.46
698.393	24.67
698.579	24.28
698.764	24.06
698.949	23.89
699.135	23.91
699.32	22.01
699.505	20.71
699.691	19.95
699.876	20.33
700.061	20.41
700.246	19.81
700.432	22.37
700.617	22.93
700.802	25.25
700.987	24.59
701.172	24.48
701.358	25.12
701.543	27.55
701.728	26.73
701.913	27.58
702.098	29.23
702.283	31.32
702.468	29.58
702.653	28.77
702.838	25.55
703.023	26.48
703.208	26.23
703.393	26.91
703.578	26.87
703.763	27.95
703.948	28.88
704.133	26.02
704.318	22.45
704.503	22.82
704.688	24.91
704.873	24.37
705.057	23.5
705.242	26.81
705.427	27.47
705.612	27.76
705.797	25.7
705.981	23.42
706.166	25.75
706.351	28.72
706.536	28.3
706.72	27.32
706.905	28.43
707.09	29.85
707.274	26.7
707.459	26.95
707.644	25.09
707.828	26.15
708.013	27.62
708.197	27.42
708.382	25.89
708.567	26.97
708.751	27.62
708.936	27.88
709.12	26.56
709.305	27.21
709.489	27.35
709.673	29.77
709.858	29.83
710.042	27.01
710.227	25.74
710.411	25.43
710.596	24.09
710.78	24.26
710.964	24.52
711.149	25.72
711.333	27.09
711.517	27.59
711.702	29.02
711.886	28.86
712.07	31.77
712.254	33.14
712.438	35.11
712.623	35.38
712.807	34.34
712.991	34.14
713.175	34.68
713.359	35.62
713.544	35.16
713.728	33.71
713.912	33.53
714.096	33.81
714.28	33.12
714.464	30.66
714.648	29.85
714.832	30.14
715.016	29.72
715.2	28.05
715.384	24.11
715.568	22.39
715.752	22.32
715.936	22.08
716.12	21.56
716.304	20.02
716.488	20.81
716.671	21.24
716.855	19.17
717.039	18.75
717.223	19.15
717.407	20.56
717.59	22.07
717.774	20.77
717.958	21.44
718.142	19.46
718.325	21.9
718.509	21.18
718.693	21.54
718.877	23.44
719.06	25.15
719.244	25.21
719.428	23.82
719.611	25.33
719.795	23.13
719.978	23.03
720.162	25.45
720.345	25.09
720.529	26.88
720.713	25.68
720.896	23.77
721.08	20.74
721.263	18.57
721.446	20.37
721.63	19.15
721.813	20.74
721.997	18.05
722.18	15.55
722.364	14.62
722.547	15.11
722.73	17.32
722.914	19.03
723.097	21.73
723.28	21.69
723.464	21.73
723.647	20.37
723.83	21.4
724.013	22.89
724.197	20.7
724.38	22.86
724.563	19.29
724.746	20.18
724.929	17.87
725.112	16.41
725.296	20.79
725.479	19.22
725.662	19.19
725.845	18.25
726.028	20.65
726.211	22.69
726.394	21.71
726.577	24.55
726.76	22.35
726.943	25.89
727.126	26.28
727.309	22.74
727.492	23.54
727.675	24.91
727.858	24.77
728.041	21.55
728.224	22.54
728.407	20.9
728.589	19.05
728.772	20.1
728.955	18.39
729.138	19.3
729.321	20.69
729.503	20.63
729.686	22.52
729.869	22.36
730.052	25.1
730.234	24.88
730.417	25.72
730.6	27.5
730.782	28.8
730.965	29.09
731.148	27.59
731.33	25.31
731.513	25.89
731.695	25.81
731.878	27.59
732.061	27
732.243	26.69
732.426	27.4
732.608	28.31
732.791	28.78
732.973	29.66
733.156	30.93
733.338	34.9
733.52	35.11
733.703	32.71
733.885	30.45
734.068	32.42
734.25	35.39
734.432	36.33
734.615	34.56
734.797	32.87
734.979	33.6
735.162	33.03
735.344	31.73
735.526	30.32
735.708	31.45
735.891	36.04
736.073	40.25
736.255	39.25
736.437	37.49
736.619	37.24
736.802	38.64
736.984	38.03
737.166	39.3
737.348	40.03
737.53	44.48
737.712	45.32
737.894	43.72
738.076	39.88
738.258	36.04
738.44	37.39
738.622	35.68
738.804	34.21
738.986	35.13
739.168	36.28
739.35	36.21
739.532	33.83
739.714	32.79
739.896	31.69
740.078	31.51
740.259	33.3
740.441	35.2
740.623	37.13
740.805	38.33
740.987	38.78
741.168	37.99
741.35	38.62
741.532	38.57
741.714	38.81
741.895	38.9
742.077	36.21
742.259	38.49
742.44	36.66
742.622	35.98
742.804	36.17
742.985	36.39
743.167	35.04
743.348	36.45
743.53	37
743.711	34.17
743.893	31.47
744.075	34.46
744.256	33.74
744.438	32.17
744.619	36.05
744.8	37.89
744.982	35.91
745.163	34.7
745.345	32.58
745.526	31.03
745.707	32.94
745.889	36.03
746.07	33.82
746.252	34.07
746.433	31.98
746.614	29.73
746.795	27.17
746.977	25.6
747.158	27.76
747.339	28.66
747.52	26.45
747.702	23.16
747.883	22.57
748.064	24.39
748.245	26.02
748.426	25.67
748.607	26.7
748.788	27.76
748.97	27.85
749.151	28.95
749.332	26.75
749.513	30.25
749.694	33.61
749.875	32.43
750.056	32.54
750.237	31.96
750.418	34.87
750.599	34
750.78	32.45
750.96	37.16
751.141	36.73
751.322	37.7
751.503	33.33
751.684	34.41
751.865	34.74
752.046	34.32
752.226	34.01
752.407	35.69
752.588	38.59
752.769	35.73
752.949	35.5
753.13	34.56
753.311	33.3
753.492	37.32
753.672	36.14
753.853	37.33
754.034	36.43
754.214	34.73
754.395	37.06
754.575	35
754.756	39.97
754.937	35.17
755.117	37.89
755.298	38.95
755.478	38.02
755.659	34.74
755.839	37.14
756.02	37.54
756.2	39.95
756.381	37.57
756.561	35.04
756.741	28.45
756.922	26.33
757.102	21.92
757.283	20.26
757.463	20.93
757.643	22.98
757.823	17.16
758.004	14.19
758.184	11.85
758.364	9.4
758.545	7.22
758.725	9.7
758.905	11.92
759.085	11.06
759.265	12.86
759.446	13.29
759.626	12.44
759.806	12.33
759.986	13.62
760.166	15.69
760.346	15.42
760.526	18.6
760.706	18.82
760.886	19.64
761.066	19.19
761.246	14.55
761.426	14.14
761.606	15.17
761.786	15.23
761.966	13.32
762.146	12.84
762.326	14.46
762.506	16.34
762.686	16.14
762.866	15.2
763.046	16.13
763.225	20.5
763.405	20.53
763.585	21.65
763.765	22.98
763.945	26.5
764.124	27.43
764.304	27.26
764.484	24.83
764.664	27.13
764.843	27.15
765.023	28.58
765.203	27.37
765.382	27.24
765.562	25.63
765.741	27.96
765.921	23.58
766.101	26.67
766.28	28.42
766.46	31.95
766.639	33.79
766.819	36.85
766.998	36.41
767.178	35.84
767.357	36.18
767.537	35.53
767.716	39.77
767.896	44.47
768.075	41.19
768.254	42.9
768.434	39.18
768.613	39.85
768.792	41.35
768.972	42.19
769.151	38.68
769.33	41.84
769.51	47.11
769.689	41.93
769.868	42.75
770.047	43.09
770.226	43.57
770.406	44.84
770.585	41.09
770.764	37.34
770.943	35.5
771.122	44.28
771.301	42.36
771.48	38.32
771.66	38.95
771.839	40.75
772.018	44.65
772.197	41.76
772.376	40.59
772.555	42.34
772.734	39.61
772.913	43.92
773.092	46.05
773.271	42.02
773.449	44.73
773.628	47.32
773.807	45.16
773.986	46.29
774.165	49.06
774.344	49.18
774.523	50.94
774.701	58.34
774.88	59.19
775.059	53.76
775.238	55.83
775.417	54.56
775.595	47.85
775.774	48.78
775.953	44.36
776.131	42.39
776.31	44.12
776.489	46.31
776.667	41.73
776.846	47.2
777.025	47.23
777.203	53.27
777.382	54.59
777.56	56.33
777.739	58.39
777.917	58.88
778.096	61.36
778.274	56.56
778.453	57.95
778.631	63.65
778.81	58.4
778.988	56.73
779.166	48.9
779.345	47.98
779.523	48.28
779.702	45.68
779.88	48.03
780.058	40.04
780.237	46.46
780.415	38.32
780.593	37.68
780.771	36.8
780.95	40.66
781.128	46.46
781.306	42.61
781.484	45.58
781.662	42.72
781.841	42.38
782.019	51.3
782.197	49.98
782.375	54.76
782.553	55.54
782.731	52.52
782.909	48.56
783.087	43.88
783.265	43.98
783.443	42.23
783.621	47.9
783.799	43.1
783.977	35.13
784.155	32
784.333	28.55
784.511	29.97
784.689	26.88
784.867	26.66
785.045	27.17
785.223	29.81
785.4	36.61
785.578	34.48
785.756	41.24
785.934	46.77
786.112	51.37
786.289	53.73
786.467	44.66
786.645	46.57
786.823	46.3
787	42.36
787.178	41.37
787.356	32.07
787.533	27.89
787.711	27.96
787.889	20.49
788.066	19.84
788.244	16.77
788.421	22.87
788.599	21.86
788.776	22.28
788.954	25.82
789.131	24.1
789.309	28.68
789.486	34.71
789.664	30.3
789.841	35.08
790.019	37.62
790.196	37.21
790.373	35.2
790.551	40.75
790.728	41.63
790.906	38.59
791.083	42.27
791.26	46.28
791.437	42.58
791.615	42.64
791.792	41.93
791.969	36.34
792.146	38.44
792.324	41.78
792.501	37.81
792.678	37.34
792.855	45.3
793.032	44.37
793.209	38.8
793.387	35.7
793.564	37.96
793.741	34.01
793.918	36.24
794.095	33.83
794.272	30.87
794.449	32.77
794.626	36.24
794.803	31.85
794.98	30.14
795.157	28.42
795.334	35.97
795.511	34.23
795.688	35.68
795.864	36.28
796.041	37.65
796.218	39.13
796.395	39.42
796.572	37.15
796.749	41.15
796.925	42.05
797.102	46.01
797.279	41.03
797.456	38.61
797.632	40.57
797.809	45.74
797.986	45.67
798.162	46.37
798.339	43.27
798.516	45.26
798.692	38.22
798.869	38.9
799.046	45.56
799.222	39.83
799.399	43.28
799.575	40.96
799.752	31.39
799.928	29.69
800.105	32.16
800.281	37.92
800.458	26.12
800.634	28.19
800.811	25.55
800.987	16.87
801.163	17.62
801.34	15.9
801.516	8.9
801.692	11.86
801.869	15.35
802.045	13.41
802.221	4.36
802.398	17.68
802.574	15.4
802.75	12.52
802.926	14.49
803.103	23.15
803.279	22.35
803.455	25.98
803.631	24.91
803.807	25.88
803.983	24.54
804.16	28.31
804.336	22.71
804.512	32.48
804.688	35.39
804.864	34.38
805.04	32.67
805.216	34.48
805.392	30.93
805.568	35.35
805.744	29.73
805.92	31.71
806.096	41.92
806.272	50.85
806.448	55.15
806.623	49.38
806.799	48.89
806.975	44.83
807.151	51.32
807.327	57.73
807.503	50.75
807.678	52.95
807.854	46.19
808.03	40.12
808.206	35.3
808.381	32.64
808.557	27.22
808.733	25.68
808.908	29.11
809.084	23.03
809.26	23.84
809.435	20.39
809.611	13.02
809.787	20.96
809.962	8.69
810.138	4.84
810.313	-6.89
810.489	-0.16
810.664	-1.87
810.84	2.47
811.015	-3.11
811.191	-9.84
811.366	4.27
811.542	8.1
811.717	2.55
811.892	10.66
812.068	15.76
812.243	24.37
812.419	20.67
812.594	12.06
812.769	10.61
812.944	20.21
813.12	30.3
813.295	20.22
813.47	19.12
813.645	23.91
813.821	26.54
813.996	29.84
814.171	23.48
814.346	33.97
814.521	38.14
814.697	33.48
814.872	24.14
815.047	10.89
815.222	19.76
815.397	28.44
815.572	20.15
815.747	25.19
815.922	20.12
816.097	9.17
816.272	13.14
816.447	24.22
816.622	32.03
816.797	36.57
816.972	40.98
817.147	39.34
817.322	34.62
817.496	35.86
817.671	31.9
817.846	28.36
818.021	29.53
818.196	26.9
818.371	25.73
818.545	28.61
818.72	21.56
818.895	24.6
819.069	23.82
819.244	25.7
819.419	22.97
819.594	20.96
819.768	17.22
819.943	18.66
820.117	16.46
820.292	12.88
820.467	10.4
820.641	11.14
820.816	9.63
820.99	9.38
821.165	7.82
821.339	7.69
821.514	9.12
821.688	11.39
821.863	10.57
822.037	11.4
822.212	15.36
822.386	15.94
822.56	16.6
822.735	15.82
822.909	15.22
823.084	17.32
823.258	19.86
823.432	21.11
823.606	20.92
823.781	21.4
823.955	22.51
824.129	15.29
824.303	16.01
824.478	17.14
824.652	21.09
824.826	24.1
825	22.5
825.174	21.57
825.348	12.61
825.523	10.31
825.697	10.41
825.871	11.27
826.045	13.64
826.219	11.07
826.393	7.53
826.567	7.12
826.741	5.63
826.915	4.43
827.089	4.85
827.263	10.76
827.437	11.74
827.611	13.4
827.784	14.25
827.958	8.64
828.132	12.63
828.306	19.89
828.48	24.12
828.654	26.68
828.827	22.82
829.001	21.95
829.175	16.86
829.349	24.58
829.522	27.54
829.696	16.24
829.87	24.64
830.044	17.14
830.217	16.35
830.391	2.7
830.565	-7.66
830.738	-5.1
830.912	-12.58
831.085	1.91
831.259	-2.08
831.432	10.6
831.606	15.51
831.779	17.16
831.953	18.68
832.126	21.59
832.3	20.33
832.473	26.99
832.647	28.88
832.82	27.03
832.994	24.17
833.167	19.21
833.34	17.64
833.514	16.15
833.687	18.74
833.86	25.02
834.034	22.19
834.207	31.99
834.38	31.36
834.553	28.2
834.727	31.8
834.9	28.17
835.073	38
835.246	35.19
835.419	37.21
835.593	29.66
835.766	23.65
835.939	17.45
836.112	-2.65
836.285	-4.54
836.458	1.08
836.631	-5.07
836.804	4.61
836.977	2.33
837.15	-5.13
837.323	-8.88
837.496	-8.74
837.669	-16.02
837.842	-9.7
838.015	5.45
838.188	13.46
838.361	0.54
838.533	15.65
838.706	16.2
838.879	0.58
839.052	5.93
839.225	10.09
839.398	10.17
839.57	26.43
839.743	17.81
839.916	31.31
840.088	41.67
840.261	48.69
840.434	39.69
840.607	39.93
840.779	47.48
840.952	42.23
841.124	46.66
841.297	51.7
841.47	56.34
841.642	61.27
841.815	39.53
841.987	20.42
842.16	9.24
842.332	13.93
842.505	9.71
842.677	7.24
842.85	10.21
843.022	4.6
843.194	0.83
843.367	-15.88
843.539	-4.74
843.712	0.44
843.884	3.17
844.056	8.38
844.229	9.29
844.401	3.23
844.573	5.63
844.745	8
844.918	15.45
845.09	8.53
845.262	-11.53
845.434	-42.02
845.606	-35.66
845.779	-91.22
845.951	-84.13
846.123	-114.66
846.295	-80.23
846.467	-115.11
846.639	-243.75
846.811	-424.43
846.983	-464.52
847.155	-324.34
847.327	-152.35
847.499	-231.19
847.671	-89.87
847.843	-163.12
848.015	-156.91
848.187	-187.72
848.359	-488.76
848.531	-506.17
848.703	-162.32
848.875	-242.74
849.047	-286.93
849.218	-172.88
849.39	-33.07
849.562	-197.12
849.734	-51.99
849.905	-19.77
850.077	-31.37
850.249	-17.89
850.421	-3.97
850.592	-11.39
850.764	-7.9
850.936	27.63
851.107	25.38
851.279	16.89
851.451	28.88
851.622	32.99
851.794	26.51
851.965	26.4
852.137	27.06
852.308	-6.41
852.48	3.95
852.651	11.88
852.823	-16.78
852.994	-17.65
853.166	12.12
853.337	20.76
853.509	24.22
853.68	25.79
853.851	17.08
854.023	20.53
854.194	42.9
854.365	46.48
854.537	37.97
854.708	29.53
854.879	24.06
855.05	9.69
855.222	6.05
855.393	11.18
855.564	7.67
855.735	20.42
855.906	10.6
856.078	-33.77
856.249	-103.79
856.42	-56.64
856.591	-25.33
856.762	-49.75
856.933	-20.8
857.104	2.45
857.275	-34.88
857.446	-22.94
857.617	-56.28
857.788	0.89
857.959	33.21
858.13	42.58
858.301	9.21
858.472	3.93
858.643	9.63
858.814	22.72
858.985	27.19
859.155	17.46
859.326	6.81
859.497	33.51
859.668	25.41
859.839	15.32
860.009	3.71
860.18	11.49
860.351	32.62
860.522	22.61
860.692	8.79
860.863	-19.12
861.034	-19
861.204	1.06
861.375	-17.52
861.546	-53.41
861.716	-63.55
861.887	-13.95
862.057	1.35
862.228	-18.34
862.398	-45.47
862.569	-74.55
862.739	-50.39
862.91	-19
863.08	4.7
863.251	-0.24
863.421	12.55
863.592	-3.76
863.762	-9.81
863.932	5.02
864.103	7.18
864.273	16.79
864.443	22.03
864.614	27.89
864.784	36.28
864.954	26.14
865.125	31.27
865.295	23.05
865.465	42.74
865.635	35.6
865.805	25.66
865.976	38.22
866.146	49.3
866.316	47.72
866.486	44.67
866.656	36.81
866.826	45.78
866.996	46.17
867.166	47.91
867.336	25.73
867.506	30.71
867.676	42.74
867.846	26.89
868.016	20.76
868.186	13.59
868.356	-60.1
868.526	-385.42
868.696	-12200
868.866	192.94
869.036	-93.58
869.206	-112.9
869.376	-41.46
869.545	-30
869.715	-77.55
869.885	-111.68
870.055	-30.63
870.224	-24.68
870.394	-30
870.564	-68.19
870.734	-86.25
870.903	-125.86
871.073	-50.51
871.243	-104.12
871.412	-128.12
871.582	-74.49
871.751	-123.64
871.921	-76.53
872.091	-59.65
872.26	-40.26
872.43	-52.54
872.599	-41.87
872.769	-22.38
872.938	-20.46
873.108	16.13
873.277	13.53
873.446	24.41
873.616	21.23
873.785	6.17
873.955	14.84
874.124	17.61
874.293	15.94
874.463	20.46
874.632	-0.48
874.801	-13.84
874.971	-35.98
875.14	-50.4
875.309	-68.06
875.478	-64.08
875.647	-77.07
875.817	-51.38
875.986	-82.71
876.155	-69.28
876.324	-31.27
876.493	-37.12
876.662	-61.73
876.831	-48.48
877	-30.77
877.17	-15.21
877.339	2.12
877.508	-5.38
877.677	-12.88
877.846	0.1
878.015	4.36
878.184	4.72
878.352	2.19
878.521	19.59
878.69	16.62
878.859	4.81
879.028	14.38
879.197	0
879.366	6.15
879.534	5.48
879.703	5.69
879.872	0.31
880.041	-1.61
880.21	-2.17
880.378	-3.4
880.547	-5.15
880.716	3.88
880.884	1.37
881.053	8.92
881.222	8.35
881.39	11.56
881.559	12.54
881.727	19.2
881.896	15.39
882.065	18.05
882.233	16.57
882.402	18.34
882.57	15.32
882.739	15.42
882.907	8.09
883.076	12.4
883.244	14.86
883.412	21.81
883.581	7.26
883.749	8.49
883.918	13.46
884.086	14.49
884.254	4.37
884.423	-0.88
884.591	-4.8
884.759	-31.74
884.927	-52.04
885.096	-67.88
885.264	-121.78
885.432	-128.89
885.6	-81.45
885.769	-81.68
885.937	-90.57
886.105	-43.74
886.273	-47.45
886.441	-65.39
886.609	2.73
886.777	8.45
886.945	5.56
887.113	15.76
887.281	38.03
887.449	14.37
887.617	57.59
887.785	64.29
887.953	53.78
888.121	57.38
888.289	54.51
888.457	33.37
888.625	21.12
888.793	22.98
888.961	11.19
889.129	4.7
889.296	1.87
889.464	-46.25
889.632	-68.46
889.8	-126.2
889.967	-205.88
890.135	-157.48
