Data from JASIL_3244_Reflection_1.txt Node
Date: Mon Nov 16 20:33:42 EST 2015
User: Geneva
Spectrometer: USB4E03002
Autoset integration time: false
Trigger mode: 4
Integration Time (sec): 1.000000E-1
Scans to average: 10
Electric dark correction enabled: false
Nonlinearity correction enabled: false
Boxcar width: 5
Stray light correction enabled: false
XAxis mode: Wavelengths
Stop averaging: false
Number of Pixels in Spectrum: 3648
>>>>>Begin Spectral Data<<<<<
177.575	-470.09
177.794	-556.43
178.014	-523.49
178.233	-878.5
178.452	-1338.55
178.672	-909.85
178.891	-1187.74
179.11	4027.03
179.33	1355.36
179.549	-6745.45
179.768	1270.34
179.987	1398.92
180.207	748.39
180.426	413.94
180.645	416.26
180.864	620.78
181.084	277.89
181.303	237.96
181.522	406.36
181.741	1233.8
181.96	282.91
182.179	353.53
182.398	412.44
182.618	419.92
182.837	422.27
183.056	366.27
183.275	264.73
183.494	279.3
183.713	338.02
183.932	248.67
184.151	243.98
184.37	250.58
184.589	203.6
184.808	172.23
185.027	164.79
185.246	217.71
185.465	312.22
185.684	330.99
185.903	1117.24
186.122	422.87
186.341	644.94
186.56	344.21
186.779	647.67
186.998	987.69
187.216	1134.65
187.435	912.57
187.654	838.92
187.873	433.84
188.092	402.27
188.311	375.21
188.53	588.32
188.748	501.24
188.967	1162.4
189.186	560.92
189.405	579.65
189.623	560.19
189.842	545.68
190.061	503.35
190.28	1267.95
190.498	-1167.5
190.717	876.19
190.936	-1903.39
191.154	-911.61
191.373	-19716.67
191.592	-10281.82
191.81	-608.05
192.029	-870.99
192.248	-284.76
192.466	-284.78
192.685	-346.6
192.904	-461.17
193.122	-346.13
193.341	-645.41
193.559	-627.41
193.778	-741.82
193.996	-990.84
194.215	39350
194.433	-3380.95
194.652	659.11
194.87	571
195.089	494.76
195.307	626.32
195.526	1816.95
195.744	992.11
195.963	675.82
196.181	14775
196.399	-1054.7
196.618	5115
196.836	17383.33
197.055	-862.3
197.273	-1934.48
197.491	-1261.11
197.71	-2198.04
197.928	1453.75
198.146	2507.14
198.365	-10260
198.583	461.9
198.801	514.62
199.019	1396.1
199.238	-2747.62
199.456	1207.55
199.674	535.59
199.892	423.05
200.111	530
200.329	544.15
200.547	465.07
200.765	441.62
200.983	503.61
201.202	396.43
201.42	585.04
201.638	358.73
201.856	385.23
202.074	1127.27
202.292	1234.34
202.51	784.35
202.728	1034.02
202.946	-2482.5
203.165	3396.97
203.383	-1215.46
203.601	-1551.16
203.819	3116
204.037	14690
204.255	1595.88
204.473	650.47
204.691	916.67
204.909	631.43
205.127	670.23
205.345	730.11
205.562	600.5
205.78	373.49
205.998	445.31
206.216	349.64
206.434	377.36
206.652	309.39
206.87	249.57
207.088	207.75
207.306	239.21
207.523	235.06
207.741	172.36
207.959	182.76
208.177	219.27
208.395	159.44
208.612	163.76
208.83	139.45
209.048	167.12
209.266	220.09
209.483	254.12
209.701	221.58
209.919	279.54
210.136	333.94
210.354	743
210.572	663.35
210.79	1136.3
211.007	703.93
211.225	1151.16
211.442	-6242.86
211.66	-1677.78
211.878	-674.31
212.095	159.13
212.313	158.91
212.53	170.19
212.748	117.77
212.966	114.08
213.183	97.48
213.401	96.06
213.618	94.99
213.836	116.5
214.053	124.97
214.271	127.67
214.488	1094.96
214.705	631.65
214.923	501.61
215.14	490.04
215.358	404.92
215.575	655.19
215.793	642.92
216.01	908.59
216.227	331.28
216.445	267.75
216.662	314.96
216.879	288.85
217.097	207.48
217.314	220.45
217.531	288.03
217.749	336.72
217.966	380
218.183	328.93
218.4	368.4
218.618	486.61
218.835	532.64
219.052	396.81
219.269	321.73
219.487	520.83
219.704	352.2
219.921	259.77
220.138	203.65
220.355	213.43
220.572	214.71
220.79	234.06
221.007	273.4
221.224	293.31
221.441	203.48
221.658	261.41
221.875	214.53
222.092	216.48
222.309	299.64
222.526	284.68
222.743	250.34
222.96	310.85
223.177	163.91
223.394	134.07
223.611	113.91
223.828	149.43
224.045	183.92
224.262	198.78
224.479	139.53
224.696	112.63
224.913	143.21
225.13	109.92
225.347	99.38
225.564	90.05
225.781	78.32
225.997	82.13
226.214	65.4
226.431	55.52
226.648	42.79
226.865	43.4
227.082	43.12
227.298	35.46
227.515	31.49
227.732	30.91
227.949	27.69
228.165	27.57
228.382	22.69
228.599	19.32
228.816	17.72
229.032	22.21
229.249	19.14
229.466	19.74
229.682	21.08
229.899	22.09
230.116	24.57
230.332	24.74
230.549	25.79
230.765	29.56
230.982	34.31
231.199	36.64
231.415	35.95
231.632	37.64
231.848	43.32
232.065	44.61
232.281	44.07
232.498	51.3
232.714	59.47
232.931	55.89
233.147	53.1
233.364	60.93
233.58	58.44
233.797	66.6
234.013	69.66
234.23	62.29
234.446	63.12
234.662	60.57
234.879	56.69
235.095	58.35
235.312	60.05
235.528	63.1
235.744	56.91
235.961	56.43
236.177	47.95
236.393	54.34
236.61	59.02
236.826	58.86
237.042	64.69
237.258	56.16
237.475	46.28
237.691	49.33
237.907	50.79
238.123	55.11
238.339	53.84
238.556	52.59
238.772	45.67
238.988	38.57
239.204	38.81
239.42	36.13
239.636	34.12
239.853	34.04
240.069	31.12
240.285	30.16
240.501	28.43
240.717	25.24
240.933	22.26
241.149	20.49
241.365	22.78
241.581	19.55
241.797	19.04
242.013	21.61
242.229	21.71
242.445	22.17
242.661	21.45
242.877	19.5
243.093	22.01
243.309	23.09
243.525	22.41
243.741	23.46
243.957	26.04
244.173	27.58
244.388	26.23
244.604	27.3
244.82	26.5
245.036	24.77
245.252	23.85
245.468	20.19
245.683	17.75
245.899	17.96
246.115	15.87
246.331	14.65
246.547	13.68
246.762	12.6
246.978	12.24
247.194	11.58
247.409	12.06
247.625	12.91
247.841	13.57
248.057	16.06
248.272	16.3
248.488	18.13
248.703	19.48
248.919	21.15
249.135	22.91
249.35	22.89
249.566	25.74
249.782	25.37
249.997	25
250.213	23.67
250.428	20.39
250.644	21.16
250.859	19.66
251.075	16.28
251.29	17.39
251.506	18.08
251.721	20.36
251.937	21.23
252.152	21.73
252.368	22.56
252.583	23.43
252.798	25.02
253.014	26.09
253.229	25.94
253.445	29.61
253.66	31.25
253.875	30.98
254.091	33.6
254.306	29.31
254.521	27.86
254.737	27.88
254.952	28.77
255.167	28.07
255.383	27.73
255.598	27.14
255.813	25.65
256.028	23.59
256.244	26.01
256.459	21.98
256.674	23.75
256.889	22.23
257.104	20.51
257.32	22.35
257.535	20.75
257.75	17.6
257.965	16.88
258.18	17.71
258.395	16.39
258.61	14.41
258.826	13.86
259.041	13.54
259.256	14.35
259.471	13.94
259.686	12.93
259.901	12.67
260.116	13.38
260.331	13.86
260.546	13.1
260.761	13.27
260.976	13.64
261.191	13.77
261.406	14.08
261.621	14.13
261.836	15.68
262.05	17.72
262.265	19.24
262.48	19.42
262.695	18.61
262.91	18.63
263.125	18.78
263.34	20.03
263.555	21.41
263.769	22.86
263.984	21.62
264.199	20.72
264.414	19.29
264.629	18.79
264.843	17.2
265.058	16.6
265.273	14.4
265.488	13.9
265.702	13.49
265.917	13.24
266.132	12.15
266.346	14.75
266.561	15
266.776	15.46
266.99	14.94
267.205	16.85
267.42	17.42
267.634	19.31
267.849	18.07
268.063	18.51
268.278	19.04
268.492	19.36
268.707	17.43
268.922	15.76
269.136	14.9
269.351	13.83
269.565	12.73
269.78	12.13
269.994	11.89
270.209	13.02
270.423	12.25
270.637	10.08
270.852	8.85
271.066	10.5
271.281	13.07
271.495	12
271.709	13.29
271.924	13.53
272.138	14.22
272.353	15.03
272.567	14.06
272.781	13.92
272.996	14.64
273.21	14.99
273.424	14.12
273.638	12.79
273.853	13.83
274.067	13.51
274.281	13.98
274.495	13.17
274.71	13.1
274.924	12.82
275.138	12.51
275.352	11.53
275.566	10.97
275.781	9.85
275.995	9.82
276.209	9.5
276.423	10.75
276.637	10.06
276.851	11.2
277.065	10.32
277.279	13.37
277.493	12.77
277.707	13.67
277.921	13.22
278.135	14.86
278.349	15.42
278.563	15.56
278.777	14.29
278.991	14.44
279.205	14.11
279.419	13.9
279.633	13.79
279.847	14.58
280.061	13.77
280.275	14.03
280.489	13.34
280.703	11.19
280.917	12.68
281.131	12.31
281.344	13.23
281.558	12.87
281.772	12.47
281.986	12.3
282.2	13.25
282.414	12.69
282.627	12.91
282.841	12.37
283.055	13.95
283.269	12.54
283.482	13.24
283.696	11.84
283.91	12
284.123	12.64
284.337	11.74
284.551	10.2
284.764	11.19
284.978	10.79
285.192	10.29
285.405	10.09
285.619	8.97
285.833	8.62
286.046	8.02
286.26	7.85
286.473	7.56
286.687	7.17
286.9	8.44
287.114	9.48
287.327	10.16
287.541	11
287.754	10.76
287.968	11.18
288.181	11.97
288.395	12.9
288.608	13.97
288.822	15.16
289.035	15.91
289.248	15.28
289.462	14.67
289.675	14.73
289.889	14.52
290.102	12.92
290.315	14.22
290.529	13.03
290.742	12.67
290.955	12.83
291.169	12.29
291.382	12.26
291.595	13.59
291.808	13.39
292.022	12.98
292.235	13.58
292.448	14.39
292.661	13.41
292.875	15.4
293.088	16.24
293.301	14.76
293.514	12.24
293.727	11.82
293.94	10.06
294.153	11.5
294.367	11.9
294.58	11
294.793	11.85
295.006	12.51
295.219	11.4
295.432	11.45
295.645	10.2
295.858	11.77
296.071	11.92
296.284	11.96
296.497	9.85
296.71	9.98
296.923	10.3
297.136	9.78
297.349	8.64
297.562	8.26
297.775	8.71
297.988	9.95
298.201	9.96
298.414	9.35
298.626	10.44
298.839	10.68
299.052	9.42
299.265	8.64
299.478	10.03
299.691	11.49
299.903	12.49
300.116	11.9
300.329	11.36
300.542	11.19
300.755	12.33
300.967	11.71
301.18	12.26
301.393	14.18
301.605	15.54
301.818	14.72
302.031	15.12
302.243	15.44
302.456	14.7
302.669	15.62
302.881	16.46
303.094	16.16
303.307	16.59
303.519	17.72
303.732	17.26
303.944	16.8
304.157	17.37
304.37	17.35
304.582	16.78
304.795	17.06
305.007	17.1
305.22	16.25
305.432	16.71
305.645	16.01
305.857	15.39
306.069	15.2
306.282	14.98
306.494	13.32
306.707	12.42
306.919	11.63
307.132	12.02
307.344	11.84
307.556	11.02
307.769	10.75
307.981	9.85
308.193	9.78
308.406	9.5
308.618	9.36
308.83	11.1
309.043	10.68
309.255	12.39
309.467	11.99
309.679	11.18
309.892	11.69
310.104	10.94
310.316	11.69
310.528	11.28
310.74	10.45
310.953	11.17
311.165	10.65
311.377	10.27
311.589	9.14
311.801	9.51
312.013	10.92
312.225	11.83
312.437	11.08
312.649	10.63
312.862	11.98
313.074	11.24
313.286	10.35
313.498	11.77
313.71	12.54
313.922	13.42
314.134	14.42
314.346	13.86
314.558	12.35
314.77	13.83
314.982	14.72
315.193	13.94
315.405	16.13
315.617	15.68
315.829	15.06
316.041	15.63
316.253	14.36
316.465	14.36
316.677	12.97
316.888	14.51
317.1	14.83
317.312	14.85
317.524	14.75
317.736	16.32
317.947	17.82
318.159	16.96
318.371	16.31
318.583	16.68
318.794	15.74
319.006	15.62
319.218	12.61
319.43	11.56
319.641	10.3
319.853	11.16
320.064	10.02
320.276	10.38
320.488	11.69
320.699	12.1
320.911	12.86
321.123	14.77
321.334	16.55
321.546	19.25
321.757	20.23
321.969	21.94
322.18	20.62
322.392	20.27
322.603	19.89
322.815	19.88
323.026	19.93
323.238	20.12
323.449	18.12
323.661	17.77
323.872	18.4
324.083	18.67
324.295	17.46
324.506	17.7
324.718	17
324.929	16.57
325.14	15.61
325.352	16.15
325.563	17.63
325.774	18.01
325.986	18.19
326.197	17.22
326.408	17.29
326.62	18.63
326.831	17.93
327.042	19.13
327.253	20.07
327.464	22.23
327.676	21.2
327.887	19.64
328.098	18.84
328.309	18.96
328.52	19.94
328.732	19.61
328.943	19.51
329.154	20.57
329.365	19.99
329.576	19.94
329.787	18.25
329.998	19.72
330.209	19.38
330.42	19.62
330.631	21.07
330.842	19.99
331.053	21.15
331.264	20.85
331.475	20.66
331.686	20.49
331.897	20.57
332.108	20.52
332.319	19.83
332.53	20.14
332.741	20.69
332.952	19.8
333.163	20.37
333.374	18.85
333.585	19.36
333.795	19.15
334.006	19.3
334.217	18.3
334.428	17.25
334.639	16.56
334.849	15.52
335.06	15.88
335.271	16.12
335.482	16.98
335.692	16.78
335.903	16.27
336.114	16.92
336.325	16.13
336.535	16.28
336.746	17.02
336.957	17.56
337.167	19.01
337.378	19.11
337.589	17.54
337.799	16.43
338.01	17.14
338.22	16.42
338.431	16.04
338.642	16.28
338.852	15.22
339.063	15.97
339.273	15.32
339.484	15.42
339.694	15.18
339.905	16.66
340.115	16.74
340.326	16.96
340.536	17.68
340.746	17.46
340.957	18.06
341.167	18.68
341.378	18.04
341.588	17.69
341.799	16.98
342.009	16.36
342.219	15.83
342.43	16.13
342.64	16.44
342.85	16.77
343.061	16.79
343.271	15.59
343.481	15.31
343.691	15.43
343.902	16.35
344.112	14.81
344.322	14.83
344.532	15.06
344.743	15.14
344.953	14.81
345.163	14.91
345.373	14.51
345.583	16.2
345.793	16.99
346.004	15.79
346.214	15.37
346.424	17.55
346.634	16.94
346.844	16.5
347.054	16.8
347.264	16.96
347.474	17.52
347.684	18.3
347.894	17
348.104	16.53
348.314	16.83
348.524	17.28
348.734	15.35
348.944	15.75
349.154	16.21
349.364	15.64
349.574	15.15
349.784	14.75
349.994	14.3
350.204	14.86
350.413	14.52
350.623	14.49
350.833	13.68
351.043	14.16
351.253	14.31
351.463	13.22
351.672	12.44
351.882	12.17
352.092	11.6
352.302	12.03
352.511	11.34
352.721	12.11
352.931	13.1
353.141	12.83
353.35	12.43
353.56	13.01
353.77	14
353.979	15.22
354.189	15.06
354.399	15.11
354.608	15.35
354.818	15.41
355.027	14.95
355.237	14.24
355.447	14.14
355.656	15.12
355.866	14.47
356.075	14.17
356.285	13.58
356.494	13.7
356.704	13.73
356.913	13.05
357.123	13.56
357.332	12.95
357.542	12.42
357.751	12.89
357.96	13.03
358.17	13.04
358.379	13.35
358.589	12.35
358.798	12.7
359.007	12.74
359.217	12.48
359.426	11.64
359.635	12.36
359.845	11.99
360.054	11.48
360.263	11.59
360.472	11.5
360.682	11.39
360.891	12.44
361.1	12.11
361.309	11.67
361.519	11.64
361.728	12.33
361.937	11.8
362.146	12.81
362.355	13.04
362.564	13.21
362.774	13.66
362.983	14.02
363.192	14.02
363.401	14.29
363.61	14.13
363.819	14.86
364.028	14.06
364.237	14.27
364.446	13.64
364.655	13.91
364.864	13.43
365.073	13.98
365.282	13.99
365.491	14.03
365.7	13.64
365.909	14.02
366.118	13.58
366.327	14.06
366.536	15.06
366.745	15.53
366.954	16.61
367.162	16.67
367.371	15.79
367.58	15.11
367.789	14.73
367.998	14.83
368.207	15.2
368.415	15.92
368.624	16.38
368.833	16
369.042	15.86
369.25	14.93
369.459	14.02
369.668	14.46
369.877	14.32
370.085	14.12
370.294	14.19
370.503	13.37
370.711	12.85
370.92	12.8
371.129	13.43
371.337	13.5
371.546	13
371.754	13.35
371.963	12.99
372.171	13.19
372.38	12.9
372.589	13.34
372.797	13.78
373.006	14.18
373.214	14.07
373.423	13.01
373.631	13.27
373.84	12.74
374.048	12.02
374.256	11.99
374.465	12.27
374.673	12.84
374.882	11.64
375.09	11.03
375.298	10.81
375.507	10.15
375.715	9.45
375.923	8.38
376.132	8.87
376.34	10.12
376.548	9.95
376.757	10.3
376.965	10.52
377.173	10.92
377.381	11.65
377.59	11.74
377.798	12.16
378.006	12.68
378.214	13.71
378.423	14.37
378.631	14.03
378.839	13.48
379.047	12.92
379.255	13.18
379.463	13.5
379.671	13.31
379.879	12.97
380.088	13.03
380.296	13.63
380.504	13.92
380.712	12.98
380.92	12.59
381.128	13.34
381.336	13.07
381.544	12.96
381.752	11.95
381.96	11.95
382.168	12.15
382.376	12.03
382.584	11.22
382.791	10.01
382.999	10.53
383.207	10.51
383.415	11.13
383.623	11.29
383.831	10.48
384.039	11.85
384.247	11.52
384.454	12.19
384.662	12
384.87	12.31
385.078	12.79
385.285	12.33
385.493	11.9
385.701	11.1
385.909	11.01
386.116	11.49
386.324	10.99
386.532	11.18
386.739	9.84
386.947	9.67
387.155	9.88
387.362	9.9
387.57	9.76
387.778	10.6
387.985	10.87
388.193	10.78
388.4	10.37
388.608	11.09
388.816	10.79
389.023	11.29
389.231	11.53
389.438	10.93
389.646	11.33
389.853	11.89
390.061	11.67
390.268	10.81
390.475	10.76
390.683	10.28
390.89	10.22
391.098	9.93
391.305	10.17
391.512	9.77
391.72	9.46
391.927	8.88
392.135	8.85
392.342	8.83
392.549	9.49
392.756	9.88
392.964	10.86
393.171	10.52
393.378	11.41
393.586	11.25
393.793	11.23
394	11.83
394.207	11.89
394.414	11.57
394.622	11.78
394.829	11.13
395.036	10.85
395.243	10.47
395.45	10.68
395.657	10.39
395.864	10.82
396.072	11.53
396.279	11.34
396.486	11.5
396.693	11.84
396.9	11.83
397.107	12.81
397.314	13.06
397.521	13.09
397.728	12.8
397.935	12.23
398.142	11.89
398.349	11.53
398.556	11.4
398.763	11.47
398.97	11.62
399.177	11.92
399.383	11.83
399.59	12
399.797	12.46
400.004	12.34
400.211	12.58
400.418	12.39
400.625	12.96
400.831	13.2
401.038	12.81
401.245	12.72
401.452	11.87
401.658	12.16
401.865	11.87
402.072	11.06
402.279	10.53
402.485	10.76
402.692	10.5
402.899	9.62
403.105	9.46
403.312	9.87
403.519	10.04
403.725	10.11
403.932	9.46
404.138	9.05
404.345	9.51
404.552	10.04
404.758	9.67
404.965	9.23
405.171	9.8
405.378	9.9
405.584	9.42
405.791	9.09
405.997	9.35
406.204	9.33
406.41	9.4
406.617	9.19
406.823	9.51
407.029	9.79
407.236	10.16
407.442	10.18
407.649	10.64
407.855	10.91
408.061	10.87
408.268	10.55
408.474	10.68
408.68	10.64
408.887	10.98
409.093	10.63
409.299	10.33
409.505	10.63
409.712	9.84
409.918	9.47
410.124	9.21
410.33	9.12
410.537	8.99
410.743	8.66
410.949	8.93
411.155	8.22
411.361	7.98
411.567	8.33
411.773	8.21
411.98	7.95
412.186	7.76
412.392	7.85
412.598	7.94
412.804	8.19
413.01	8.14
413.216	8.29
413.422	8.4
413.628	8.41
413.834	8.03
414.04	8.21
414.246	8.98
414.452	8.98
414.658	9.19
414.864	9.39
415.07	9.51
415.275	9.98
415.481	9.9
415.687	9.92
415.893	9.38
416.099	9.54
416.305	9.32
416.511	8.94
416.716	8.59
416.922	8.58
417.128	8.31
417.334	8.35
417.539	8.13
417.745	8
417.951	7.58
418.157	7.64
418.362	7.36
418.568	7.3
418.774	7.03
418.979	7.02
419.185	6.5
419.391	6.49
419.596	6.18
419.802	6.12
420.008	5.73
420.213	8.23
420.419	8.28
420.624	8.33
420.83	8.24
421.035	8.62
421.241	8.55
421.446	8.83
421.652	8.59
421.857	8.64
422.063	8.63
422.268	9.1
422.474	6.92
422.679	7.08
422.885	7.1
423.09	6.74
423.295	6.49
423.501	6.72
423.706	6.79
423.911	6.97
424.117	7.05
424.322	6.99
424.527	6.65
424.733	6.54
424.938	6.5
425.143	6.4
425.349	6.73
425.554	6.89
425.759	6.79
425.964	6.67
426.169	6.63
426.375	6.42
426.58	6.6
426.785	6.43
426.99	6.66
427.195	6.92
427.4	6.68
427.605	6.92
427.811	6.78
428.016	7.01
428.221	7.43
428.426	7.58
428.631	7.9
428.836	7.68
429.041	8.32
429.246	8.51
429.451	8.31
429.656	8.88
429.861	8.48
430.066	8.56
430.271	8.63
430.476	7.88
430.681	8.08
430.886	7.98
431.09	7.95
431.295	7.64
431.5	7.1
431.705	7.07
431.91	6.6
432.115	6.69
432.32	6.7
432.524	6.46
432.729	6.43
432.934	6.25
433.139	6.21
433.343	6.06
433.548	5.78
433.753	6.12
433.958	6.33
434.162	6.57
434.367	6.57
434.572	6.81
434.776	6.85
434.981	7.37
435.186	7.47
435.39	7.59
435.595	7.98
435.799	8.1
436.004	7.75
436.209	7.56
436.413	7.57
436.618	7.9
436.822	7.65
437.027	7.38
437.231	6.97
437.436	7.02
437.64	6.54
437.845	6.32
438.049	6.37
438.253	6.33
438.458	6.36
438.662	6.19
438.867	5.7
439.071	5.65
439.275	5.78
439.48	5.94
439.684	5.56
439.888	5.65
440.093	5.96
440.297	6.02
440.501	6.09
440.706	6.01
440.91	6.06
441.114	6.2
441.318	6.42
441.523	6.61
441.727	6.57
441.931	6.64
442.135	6.83
442.339	6.6
442.543	6.47
442.748	6.93
442.952	6.77
443.156	6.84
443.36	6.85
443.564	6.97
443.768	6.37
443.972	6.93
444.176	7.04
444.38	6.97
444.584	7.02
444.788	6.98
444.992	6.66
445.196	6.61
445.4	6.53
445.604	6.52
445.808	6.09
446.012	6.42
446.216	5.97
446.42	5.94
446.624	6.28
446.828	5.81
447.032	5.86
447.235	6.12
447.439	6.16
447.643	6.18
447.847	6.33
448.051	6.6
448.254	6.49
448.458	6.39
448.662	6.36
448.866	6.04
449.069	6.46
449.273	6.62
449.477	6.1
449.681	6.27
449.884	6.23
450.088	6.2
450.292	6.01
450.495	6.26
450.699	6.23
450.902	6.24
451.106	6.32
451.31	6.75
451.513	7.06
451.717	7.26
451.92	7.27
452.124	7.41
452.327	7.36
452.531	7.61
452.734	7.19
452.938	7.46
453.141	7.6
453.345	7.65
453.548	7.34
453.752	7.26
453.955	7.42
454.158	7.11
454.362	7.25
454.565	7.18
454.769	6.99
454.972	7.58
455.175	7.43
455.379	7.47
455.582	7.08
455.785	6.97
455.988	6.76
456.192	6.77
456.395	7.05
456.598	6.93
456.801	6.92
457.005	6.72
457.208	6.42
457.411	6.59
457.614	6.54
457.817	6.83
458.021	6.86
458.224	6.64
458.427	6.25
458.63	6.17
458.833	5.86
459.036	5.66
459.239	5.86
459.442	5.84
459.645	5.91
459.848	5.96
460.051	5.96
460.254	6.04
460.457	6.09
460.66	6.23
460.863	6.16
461.066	6.46
461.269	6.91
461.472	6.86
461.675	7.09
461.878	7.05
462.081	7.37
462.284	7.34
462.486	7.12
462.689	7.26
462.892	7.4
463.095	7.5
463.298	7.39
463.5	7.21
463.703	7.63
463.906	7.36
464.109	7.35
464.311	6.91
464.514	7.13
464.717	7.29
464.92	7.18
465.122	7.17
465.325	7.09
465.528	6.89
465.73	6.65
465.933	6.4
466.135	6.6
466.338	6.49
466.541	6.32
466.743	5.78
466.946	5.9
467.148	6.2
467.351	6.17
467.553	6.13
467.756	6.73
467.958	6.84
468.161	6.9
468.363	6.99
468.566	6.86
468.768	7.2
468.971	7.75
469.173	7.68
469.375	7.57
469.578	7.46
469.78	7.48
469.983	7.19
470.185	7.57
470.387	7.55
470.59	7.43
470.792	7.52
470.994	7.15
471.196	6.97
471.399	6.93
471.601	7.04
471.803	6.98
472.005	6.99
472.208	6.93
472.41	6.2
472.612	6.22
472.814	5.91
473.016	6.17
473.218	6.24
473.421	6.13
473.623	6.09
473.825	5.62
474.027	5.84
474.229	6.13
474.431	6.11
474.633	6.67
474.835	6.65
475.037	7.02
475.239	6.66
475.441	6.85
475.643	7.13
475.845	7.03
476.047	7.28
476.249	7.19
476.451	6.98
476.653	6.69
476.855	6.53
477.057	6.28
477.258	6.26
477.46	6.62
477.662	6.57
477.864	6.14
478.066	6.31
478.268	6.22
478.469	5.92
478.671	5.8
478.873	6.15
479.075	6.14
479.276	6.15
479.478	5.82
479.68	5.46
479.882	5.38
480.083	5.52
480.285	5.4
480.487	5.6
480.688	5.87
480.89	5.85
481.091	5.81
481.293	5.89
481.495	5.83
481.696	5.9
481.898	5.89
482.099	5.8
482.301	5.73
482.502	5.59
482.704	5.35
482.905	5.24
483.107	5.16
483.308	5.03
483.51	4.86
483.711	4.88
483.913	4.78
484.114	4.73
484.315	4.73
484.517	4.63
484.718	4.56
484.92	4.61
485.121	4.58
485.322	4.6
485.524	4.56
485.725	4.69
485.926	4.65
486.127	4.71
486.329	4.74
486.53	4.67
486.731	4.86
486.932	4.98
487.134	4.95
487.335	4.99
487.536	5
487.737	5.02
487.938	4.96
488.139	4.9
488.341	4.86
488.542	4.88
488.743	4.92
488.944	4.93
489.145	4.94
489.346	4.93
489.547	4.91
489.748	4.97
489.949	4.93
490.15	4.99
490.351	4.94
490.552	5.08
490.753	5.13
490.954	5.21
491.155	5.05
491.356	5.17
491.557	5.18
491.758	5.29
491.959	5.2
492.159	5.41
492.36	5.37
492.561	5.58
492.762	5.61
492.963	5.46
493.164	5.5
493.364	5.47
493.565	5.42
493.766	5.53
493.967	5.22
494.167	5.31
494.368	5.15
494.569	5.33
494.769	5.26
494.97	5.33
495.171	5.63
495.371	5.74
495.572	6.01
495.773	5.86
495.973	5.85
496.174	6.06
496.375	6.27
496.575	6.22
496.776	5.76
496.976	5.62
497.177	5.62
497.377	5.83
497.578	5.7
497.778	5.8
497.979	6.07
498.179	5.97
498.38	6.11
498.58	6.14
498.78	6.04
498.981	6.39
499.181	6.73
499.382	6.61
499.582	6.12
499.782	6.22
499.983	6.38
500.183	6.15
500.383	6.11
500.584	5.97
500.784	5.79
500.984	6.02
501.184	6
501.385	6.01
501.585	6.02
501.785	6.49
501.985	6.58
502.185	6.42
502.386	6.52
502.586	6.59
502.786	6.54
502.986	6.65
503.186	6.79
503.386	6.81
503.586	6.65
503.786	6.85
503.987	6.63
504.187	6.58
504.387	6.79
504.587	6.56
504.787	6.77
504.987	7.09
505.187	7.17
505.387	6.99
505.587	6.86
505.786	6.89
505.986	6.85
506.186	6.82
506.386	6.81
506.586	6.64
506.786	6.71
506.986	6.71
507.186	6.57
507.386	6.65
507.585	6.66
507.785	7
507.985	6.88
508.185	6.72
508.384	6.65
508.584	6.48
508.784	6.31
508.984	6.45
509.183	6.41
509.383	6.5
509.583	6.22
509.782	6.37
509.982	6.37
510.182	6.44
510.381	6.59
510.581	6.88
510.781	6.95
510.98	7.09
511.18	7.09
511.379	6.95
511.579	6.86
511.778	7.07
511.978	7.24
512.177	7.04
512.377	7.3
512.576	7.29
512.776	7.19
512.975	7.26
513.175	7.44
513.374	7.58
513.573	7.73
513.773	7.6
513.972	7.54
514.172	7.25
514.371	7.54
514.57	7.32
514.77	7.55
514.969	7.39
515.168	7.39
515.367	7.43
515.567	7.36
515.766	7.26
515.965	7.57
516.164	7.52
516.364	7.79
516.563	7.46
516.762	7.3
516.961	7.27
517.16	7.43
517.359	7.4
517.559	7.47
517.758	7.43
517.957	7.62
518.156	7.55
518.355	7.71
518.554	7.63
518.753	7.76
518.952	7.99
519.151	8.04
519.35	8.04
519.549	8.08
519.748	7.98
519.947	8.06
520.146	8.11
520.345	8.17
520.544	8.12
520.743	8.19
520.942	8.55
521.141	8.7
521.339	8.67
521.538	8.87
521.737	8.9
521.936	8.64
522.135	8.6
522.333	8.66
522.532	8.54
522.731	8.47
522.93	8.08
523.129	7.65
523.327	7.65
523.526	7.37
523.725	7.38
523.923	7.49
524.122	7.6
524.321	7.71
524.519	7.65
524.718	7.68
524.917	7.79
525.115	8
525.314	8.18
525.512	8.17
525.711	8.32
525.909	8.27
526.108	8.1
526.306	8.09
526.505	7.99
526.703	7.99
526.902	7.98
527.1	7.83
527.299	7.86
527.497	7.84
527.696	7.71
527.894	7.76
528.092	7.64
528.291	7.75
528.489	7.73
528.688	7.77
528.886	7.73
529.084	7.7
529.283	7.81
529.481	7.73
529.679	7.68
529.877	7.75
530.076	7.8
530.274	8
530.472	8.11
530.67	8.28
530.869	8.38
531.067	8.43
531.265	8.65
531.463	8.74
531.661	8.94
531.859	9.03
532.057	9.1
532.255	9.04
532.454	8.96
532.652	8.88
532.85	8.84
533.048	8.81
533.246	8.85
533.444	8.85
533.642	8.83
533.84	8.88
534.038	8.82
534.236	9.03
534.434	8.96
534.632	9.09
534.83	9.25
535.027	9.2
535.225	9.32
535.423	9.4
535.621	9.46
535.819	9.42
536.017	9.27
536.215	9.45
536.412	9.05
536.61	9.17
536.808	9.16
537.006	9.19
537.203	9.5
537.401	9.5
537.599	9.59
537.797	9.57
537.994	9.62
538.192	9.76
538.39	9.91
538.587	10.11
538.785	10.29
538.983	10.29
539.18	10.22
539.378	10.11
539.575	10.05
539.773	9.92
539.97	10.07
540.168	10.2
540.366	10.25
540.563	10.24
540.761	10.3
540.958	10.26
541.155	10.29
541.353	10.27
541.55	10.16
541.748	10.28
541.945	10.44
542.143	10.47
542.34	10.54
542.537	10.48
542.735	10.36
542.932	10.42
543.129	10.48
543.327	10.74
543.524	10.87
543.721	10.94
543.919	11.13
544.116	11.45
544.313	11.54
544.51	11.43
544.708	11.83
544.905	11.97
545.102	12.2
545.299	12.32
545.496	12.19
545.693	12.29
545.891	12.68
546.088	12.72
546.285	12.35
546.482	12.32
546.679	12.46
546.876	12.44
547.073	12.69
547.27	12.43
547.467	12.46
547.664	12.38
547.861	12.5
548.058	12.2
548.255	12.17
548.452	12.48
548.649	12.77
548.846	12.81
549.043	12.73
549.24	12.81
549.437	12.93
549.633	12.74
549.83	12.88
550.027	12.71
550.224	13.03
550.421	13.08
550.618	12.84
550.814	12.62
551.011	13.09
551.208	12.89
551.405	12.84
551.601	12.95
551.798	12.93
551.995	13.07
552.191	13.21
552.388	13.24
552.585	13.02
552.781	13.34
552.978	13.43
553.175	12.86
553.371	13.19
553.568	13.38
553.764	13.65
553.961	14.04
554.157	14.05
554.354	14.08
554.55	14.35
554.747	14.8
554.943	14.48
555.14	14.56
555.336	14.94
555.533	15.3
555.729	15.33
555.926	15.56
556.122	15.42
556.318	15.7
556.515	16.07
556.711	15.75
556.907	15.42
557.104	15.97
557.3	15.84
557.496	15.95
557.693	15.97
557.889	16.31
558.085	16.32
558.281	16.73
558.478	16.37
558.674	16.43
558.87	16.34
559.066	16.86
559.262	16.72
559.459	16.86
559.655	16.91
559.851	16.99
560.047	16.67
560.243	16.45
560.439	16.69
560.635	16.68
560.831	16.44
561.027	16.95
561.223	16.82
561.419	17.12
561.615	17.24
561.811	17.24
562.007	17.1
562.203	17.3
562.399	17.37
562.595	17.34
562.791	17.6
562.987	17.98
563.183	17.97
563.379	18.14
563.575	18.35
563.771	18.37
563.966	18.52
564.162	18.7
564.358	18.82
564.554	19.11
564.75	18.99
564.945	18.93
565.141	18.82
565.337	18.94
565.533	19.06
565.728	18.84
565.924	18.86
566.12	19.11
566.315	19
566.511	18.73
566.707	18.62
566.902	18.57
567.098	18.75
567.293	18.98
567.489	18.72
567.684	18.6
567.88	18.61
568.076	18.51
568.271	18.53
568.467	18.46
568.662	18.56
568.858	18.83
569.053	19.06
569.248	18.85
569.444	18.77
569.639	18.93
569.835	19.01
570.03	19.11
570.225	19.32
570.421	19.04
570.616	19.41
570.812	19.59
571.007	19.4
571.202	19.16
571.397	19.37
571.593	19.57
571.788	19.81
571.983	19.8
572.178	19.83
572.374	20.11
572.569	20.18
572.764	20.07
572.959	20.25
573.154	20.5
573.35	21.04
573.545	21.59
573.74	21.32
573.935	21.41
574.13	21.55
574.325	21.78
574.52	21.86
574.715	22.18
574.91	22.06
575.105	21.98
575.3	21.93
575.495	21.71
575.69	21.34
575.885	21.55
576.08	21.78
576.275	22.04
576.47	21.98
576.665	21.82
576.86	22.03
577.055	22
577.25	21.92
577.444	21.63
577.639	21.44
577.834	21.63
578.029	21.86
578.224	21.64
578.418	21.78
578.613	21.82
578.808	21.94
579.003	21.79
579.197	22.28
579.392	22.67
579.587	23.01
579.781	23.7
579.976	23.5
580.171	23.49
580.365	23.48
580.56	23.19
580.755	23.55
580.949	23.33
581.144	23.7
581.338	23.61
581.533	23.51
581.727	23.63
581.922	23.49
582.116	24.19
582.311	23.86
582.505	24.11
582.7	24.09
582.894	23.91
583.089	24.33
583.283	24.08
583.478	24.48
583.672	24.69
583.866	24.9
584.061	24.87
584.255	24.3
584.449	24.57
584.644	24.47
584.838	24.63
585.032	24.84
585.226	24.73
585.421	24.8
585.615	24.62
585.809	24.53
586.003	24.43
586.198	24.59
586.392	24.92
586.586	24.92
586.78	24.99
586.974	25.23
587.168	24.73
587.363	24.89
587.557	24.98
587.751	25.14
587.945	24.87
588.139	25.15
588.333	25.16
588.527	25.06
588.721	25.46
588.915	25.36
589.109	25.1
589.303	25.41
589.497	25.01
589.691	24.92
589.885	24.87
590.079	24.93
590.273	24.55
590.466	24.58
590.66	24.7
590.854	24.44
591.048	24.6
591.242	24.71
591.436	24.56
591.629	24.96
591.823	24.84
592.017	24.53
592.211	25.12
592.404	25.29
592.598	25.01
592.792	24.33
592.986	24.7
593.179	24.51
593.373	24.41
593.567	24.51
593.76	24.63
593.954	24.56
594.147	24.8
594.341	24.38
594.535	24.62
594.728	24.55
594.922	24.82
595.115	24.12
595.309	24.17
595.502	24.66
595.696	25.13
595.889	24.94
596.083	25.08
596.276	25.01
596.47	25.34
596.663	24.98
596.856	25.03
597.05	25.2
597.243	25.54
597.437	25.82
597.63	25.58
597.823	25.21
598.017	25.37
598.21	25.23
598.403	25.48
598.596	25.76
598.79	26.09
598.983	26.02
599.176	25.97
599.369	25.74
599.563	25.74
599.756	25.83
599.949	26.23
600.142	26.24
600.335	26.06
600.528	26.19
600.722	25.68
600.915	25.69
601.108	26.2
601.301	26.33
601.494	26.95
601.687	26.88
601.88	26.51
602.073	26.4
602.266	26.27
602.459	26.74
602.652	26.63
602.845	26.5
603.038	26.37
603.231	26.53
603.424	26.37
603.617	26.28
603.809	26.07
604.002	26.34
604.195	26
604.388	26.23
604.581	26.16
604.774	26.02
604.966	25.89
605.159	26.01
605.352	25.48
605.545	25.85
605.737	25.74
605.93	26.26
606.123	26.58
606.316	26.58
606.508	26.38
606.701	26.5
606.894	26.86
607.086	26.93
607.279	27.16
607.471	27.68
607.664	27.69
607.857	27.83
608.049	27.35
608.242	27.08
608.434	27.49
608.627	27.37
608.819	27.3
609.012	27.22
609.204	27.35
609.397	27.26
609.589	27.26
609.782	27.08
609.974	27.31
610.166	27.47
610.359	27.17
610.551	27.08
610.743	27.56
610.936	27.55
611.128	27.43
611.32	27.11
611.513	27.05
611.705	26.93
611.897	27.4
612.09	27.18
612.282	27.11
612.474	27.37
612.666	27.64
612.858	27.54
613.051	27.36
613.243	27.51
613.435	28.36
613.627	28.42
613.819	29.08
614.011	29.19
614.203	29.15
614.395	29.46
614.588	29.45
614.78	29.29
614.972	29.5
615.164	30.35
615.356	30.46
615.548	30.11
615.74	30.73
615.932	30.6
616.124	30.33
616.315	30.31
616.507	30.47
616.699	30.74
616.891	30.65
617.083	30.21
617.275	29.87
617.467	29.83
617.659	30.2
617.85	30.3
618.042	29.95
618.234	29.84
618.426	29.77
618.618	29.23
618.809	28.72
619.001	28.95
619.193	29.09
619.384	29.46
619.576	29.54
619.768	29.64
619.959	28.93
620.151	29.28
620.343	28.99
620.534	29.26
620.726	28.99
620.917	29.23
621.109	29.06
621.301	29.5
621.492	29.06
621.684	29.42
621.875	29.42
622.067	29.57
622.258	28.86
622.45	29.16
622.641	28.93
622.832	28.95
623.024	29.01
623.215	28.69
623.407	27.92
623.598	28.42
623.789	27.67
623.981	27.92
624.172	27.49
624.363	27.5
624.555	27.24
624.746	27.21
624.937	27.34
625.129	27.5
625.32	27.96
625.511	28.61
625.702	27.89
625.893	28.25
626.085	27.79
626.276	28.04
626.467	27.76
626.658	28.18
626.849	28.09
627.04	28.27
627.231	28.47
627.422	28.59
627.614	28.53
627.805	28.51
627.996	28.31
628.187	28.2
628.378	28.22
628.569	29.08
628.76	29.44
628.951	29.64
629.142	30.08
629.332	29.35
629.523	29.04
629.714	29.06
629.905	29.46
630.096	29.72
630.287	30.16
630.478	30.26
630.669	30.22
630.859	29.44
631.05	29.26
631.241	29.19
631.432	29.82
631.623	30.42
631.813	30.16
632.004	29.91
632.195	29.17
632.385	29.52
632.576	29.63
632.767	29.67
632.957	30.06
633.148	30.54
633.339	29.91
633.529	30.13
633.72	29.69
633.91	29.9
634.101	30.42
634.292	30.84
634.482	30.5
634.673	30.49
634.863	30.95
635.054	31.15
635.244	30.86
635.435	31.77
635.625	31.63
635.815	31.44
636.006	31.89
636.196	31.98
636.387	32.1
636.577	32.2
636.767	32.08
636.958	31.78
637.148	31.65
637.338	32.46
637.529	32.44
637.719	32.71
637.909	33.23
638.099	32.7
638.29	32.17
638.48	32.56
638.67	32.48
638.86	32.98
639.05	32.71
639.241	32.72
639.431	32.42
639.621	32.43
639.811	32.06
640.001	32.11
640.191	31.93
640.381	32.64
640.571	32.77
640.761	32.99
640.951	32.75
641.141	32.33
641.331	32.48
641.521	31.92
641.711	31.93
641.901	31.59
642.091	31.35
642.281	31.75
642.471	31.3
642.661	30.83
642.851	30.62
643.041	30.66
643.231	31.56
643.42	31.36
643.61	32.38
643.8	32.02
643.99	32.18
644.18	32.43
644.369	32.36
644.559	32.93
644.749	33.44
644.939	33.56
645.128	33.62
645.318	33.15
645.508	33.08
645.697	32.91
645.887	32.73
646.076	32.35
646.266	31.9
646.456	30.98
646.645	30.18
646.835	29.52
647.024	29.5
647.214	29.62
647.403	29.31
647.593	29.34
647.782	28.62
647.972	28.93
648.161	29.72
648.351	29.61
648.54	30.84
648.73	31.4
648.919	31.08
649.108	30.9
649.298	30.89
649.487	31.33
649.677	32.03
649.866	31.99
650.055	32.51
650.244	32.23
650.434	31.88
650.623	31.26
650.812	30.94
651.002	31.72
651.191	32.25
651.38	32.08
651.569	31.77
651.758	31.04
651.947	31.27
652.137	31.02
652.326	31.3
652.515	31.24
652.704	31.88
652.893	31.66
653.082	31.45
653.271	31.07
653.46	31.05
653.649	31.36
653.838	31.21
654.027	31.11
654.216	31.05
654.405	30.96
654.594	31.9
654.783	31.98
654.972	32.78
655.161	33.5
655.35	33.25
655.539	33.5
655.728	33.83
655.916	33.94
656.105	34.18
656.294	33.68
656.483	33.64
656.672	32.85
656.86	31.81
657.049	31.46
657.238	30.71
657.427	31.06
657.615	30.9
657.804	30.07
657.993	30.14
658.181	29.43
658.37	29.98
658.559	30.23
658.747	30.62
658.936	31.79
659.125	31.6
659.313	31.41
659.502	31.3
659.69	31.01
659.879	31.23
660.067	31.82
660.256	32.45
660.444	32.17
660.633	31.94
660.821	31.64
661.01	30.67
661.198	30.37
661.387	31
661.575	30.72
661.763	31.39
661.952	31.77
662.14	31.26
662.328	31.26
662.517	31.05
662.705	30.77
662.893	31.74
663.082	32.11
663.27	32.42
663.458	32.39
663.646	33.16
663.834	32.25
664.023	32.35
664.211	31.95
664.399	31.84
664.587	32.05
664.775	32
664.963	32.56
665.152	32.33
665.34	32.21
665.528	31.72
665.716	31.66
665.904	32.58
666.092	31.98
666.28	32.94
666.468	33.07
666.656	32.88
666.844	33.59
667.032	32.63
667.22	33.22
667.408	33.48
667.596	33.93
667.784	33.9
667.971	33.82
668.159	34.19
668.347	33.07
668.535	33.44
668.723	33.88
668.911	34.1
669.098	33.94
669.286	33.83
669.474	34.41
669.662	34.21
669.849	34.52
670.037	34.81
670.225	35.01
670.413	35.36
670.6	35.39
670.788	35.3
670.976	34.74
671.163	35.18
671.351	35.12
671.538	34.57
671.726	35.13
671.913	35.15
672.101	34.54
672.289	34.96
672.476	34.98
672.664	34.55
672.851	34.48
673.039	34.54
673.226	34.55
673.413	34.97
673.601	35.2
673.788	34.95
673.976	34.27
674.163	34.46
674.35	33.86
674.538	34.19
674.725	35.19
674.912	35.63
675.1	35.43
675.287	34.91
675.474	34.23
675.662	34.33
675.849	34.4
676.036	34.56
676.223	35.14
676.411	35.23
676.598	35.39
676.785	36.12
676.972	36.25
677.159	36.62
677.346	37.77
677.533	37.23
677.721	36.75
677.908	36.44
678.095	36.13
678.282	35.46
678.469	35.48
678.656	34.66
678.843	33.36
679.03	32.12
679.217	32.01
679.404	31.5
679.591	31.55
679.778	31.7
679.964	31.87
680.151	32.78
680.338	32.77
680.525	32.91
680.712	33.93
680.899	33.56
681.086	34.79
681.272	35.15
681.459	35.43
681.646	36.02
681.833	36.06
682.02	36.42
682.206	36.01
682.393	36.92
682.58	36.37
682.766	35.44
682.953	36.19
683.14	35.48
683.326	35.65
683.513	35.02
683.7	34.55
683.886	34.86
684.073	34.1
684.259	33.67
684.446	32.62
684.632	34.01
684.819	34.01
685.005	34.46
685.192	34.44
685.378	34.5
685.565	34.91
685.751	34.56
685.938	34.54
686.124	34.08
686.31	34.76
686.497	35.27
686.683	34.47
686.87	34.99
687.056	34
687.242	34.03
687.429	32.82
687.615	31.8
687.801	32.69
687.987	32.84
688.174	34.11
688.36	33.56
688.546	33.28
688.732	33.93
688.918	34.2
689.105	34.34
689.291	34.65
689.477	35.88
689.663	37.82
689.849	38.62
690.035	38.09
690.221	38.09
690.407	38.47
690.593	39.13
690.779	38.68
690.965	38.65
691.151	38.12
691.337	37.67
691.523	36.6
691.709	35.1
691.895	34.48
692.081	34.82
692.267	34.95
692.453	34.97
692.639	35.18
692.825	34.59
693.011	33.87
693.196	35.4
693.382	35.37
693.568	36.54
693.754	37.55
693.94	37.34
694.125	38.07
694.311	37.99
694.497	37.3
694.682	37.23
694.868	38.66
695.054	39.52
695.239	39.31
695.425	40.03
695.611	38.43
695.796	38.1
695.982	37.55
696.168	37.31
696.353	37.25
696.539	37.42
696.724	37.21
696.91	36.54
697.095	35.51
697.281	34.89
697.466	34.85
697.652	35.06
697.837	34.57
698.023	35
698.208	34.14
698.393	33.27
698.579	33.42
698.764	33.14
698.949	32.34
699.135	32.86
699.32	32.67
699.505	32.47
699.691	32.8
699.876	32.47
700.061	32.56
700.246	32.62
700.432	33.04
700.617	33.51
700.802	33.28
700.987	34.89
701.172	33.85
701.358	35.4
701.543	35.48
701.728	35.59
701.913	37.32
702.098	36.11
702.283	37.04
702.468	37.35
702.653	37.08
702.838	37.76
703.023	36.92
703.208	38.43
703.393	38.76
703.578	39.61
703.763	40.04
703.948	39.36
704.133	40.9
704.318	41.02
704.503	41.34
704.688	40.47
704.873	39.73
705.057	40.42
705.242	40.42
705.427	39.05
705.612	38.4
705.797	39.47
705.981	39.68
706.166	39.17
706.351	39.17
706.536	39.74
706.72	39.22
706.905	40.87
707.09	40.05
707.274	40.23
707.459	39.85
707.644	39.12
707.828	38.44
708.013	37.42
708.197	36.86
708.382	37.13
708.567	36.65
708.751	37.56
708.936	36.61
709.12	36.73
709.305	36
709.489	36.9
709.673	37.82
709.858	37.66
710.042	38.69
710.227	39.17
710.411	38.72
710.596	38.31
710.78	38.04
710.964	37.08
711.149	36.93
711.333	37.36
711.517	36.77
711.702	37.18
711.886	37.41
712.07	37.38
712.254	37.63
712.438	37
712.623	37.35
712.807	37.04
712.991	37.21
713.175	36.85
713.359	37.17
713.544	36.58
713.728	35.13
713.912	35.15
714.096	36.23
714.28	35.27
714.464	36.23
714.648	36.55
714.832	36.76
715.016	36.7
715.2	37.89
715.384	37.8
715.568	38.92
715.752	39.55
715.936	38.71
716.12	37.65
716.304	39.14
716.488	38.48
716.671	38
716.855	37.31
717.039	37.92
717.223	37.67
717.407	37.63
717.59	37.91
717.774	39.15
717.958	39.38
718.142	39.84
718.325	39.25
718.509	40.84
718.693	40.21
718.877	42.34
719.06	42.51
719.244	42.39
719.428	43.79
719.611	44.16
719.795	44
719.978	45.66
720.162	44.25
720.345	45.09
720.529	43.51
720.713	45.55
720.896	44.27
721.08	44.17
721.263	44.39
721.446	43.83
721.63	44.27
721.813	43.53
721.997	43.71
722.18	44.09
722.364	43.64
722.547	44.41
722.73	43.21
722.914	44.56
723.097	46.17
723.28	47.16
723.464	46.98
723.647	44.98
723.83	45.16
724.013	45.37
724.197	46.47
724.38	45.29
724.563	44.95
724.746	45.58
724.929	45.49
725.112	45.6
725.296	44.88
725.479	44.29
725.662	43.65
725.845	44.27
726.028	43.11
726.211	43.07
726.394	44.56
726.577	44.8
726.76	43.48
726.943	43.36
727.126	41.43
727.309	40.55
727.492	41.12
727.675	41.53
727.858	40.37
728.041	40.12
728.224	39.99
728.407	38.29
728.589	38.69
728.772	37.46
728.955	36.1
729.138	36.77
729.321	37.14
729.503	36.24
729.686	37.87
729.869	38.52
730.052	37.44
730.234	36.9
730.417	37.1
730.6	37.35
730.782	39.3
730.965	39.75
731.148	39.98
731.33	39.75
731.513	40.62
731.695	39.16
731.878	39.15
732.061	38.87
732.243	39.06
732.426	39.08
732.608	38.86
732.791	39.22
732.973	39.3
733.156	39.92
733.338	40.32
733.52	40.84
733.703	42.57
733.885	41.34
734.068	43.38
734.25	42.18
734.432	42.73
734.615	42.29
734.797	41.29
734.979	40.95
735.162	41.85
735.344	41.63
735.526	41.45
735.708	39.86
735.891	40.47
736.073	41.26
736.255	42.46
736.437	41.94
736.619	43.13
736.802	43.98
736.984	44.83
737.166	44.43
737.348	45.2
737.53	44.49
737.712	44.11
737.894	44.79
738.076	43.82
738.258	45.4
738.44	46.2
738.622	44.59
738.804	44.58
738.986	43.67
739.168	43.5
739.35	41.83
739.532	42.3
739.714	43.23
739.896	41.61
740.078	43.19
740.259	42.88
740.441	44.66
740.623	45.57
740.805	45.95
740.987	46.59
741.168	45.17
741.35	46.99
741.532	46.65
741.714	45.89
741.895	47.36
742.077	44.92
742.259	42.58
742.44	39.17
742.622	38.72
742.804	39.22
742.985	38.9
743.167	39.76
743.348	40.66
743.53	40.34
743.711	42.01
743.893	43.7
744.075	45.25
744.256	47.23
744.438	49.7
744.619	52.32
744.8	52.98
744.982	54.53
745.163	57.47
745.345	53.2
745.526	54.09
745.707	53.26
745.889	51.85
746.07	52.3
746.252	51.51
746.433	50.53
746.614	48.39
746.795	45.51
746.977	45.38
747.158	43.83
747.339	46.12
747.52	45.29
747.702	44.38
747.883	43.39
748.064	42.91
748.245	45.27
748.426	44.52
748.607	44.17
748.788	48.61
748.97	48.35
749.151	48.32
749.332	49.46
749.513	50.9
749.694	52.1
749.875	55.66
750.056	54.3
750.237	53.12
750.418	54.66
750.599	59.72
750.78	55.3
750.96	55.35
751.141	54.03
751.322	54.14
751.503	51.2
751.684	51.7
751.865	49.17
752.046	49.21
752.226	48.02
752.407	47.16
752.588	42.14
752.769	42.01
752.949	41.61
753.13	42.99
753.311	41.15
753.492	43.21
753.672	41.12
753.853	41.59
754.034	42.63
754.214	41.79
754.395	44.2
754.575	46.01
754.756	46.91
754.937	48.53
755.117	48.32
755.298	47.97
755.478	48.29
755.659	49.16
755.839	49.11
756.02	48.13
756.2	51.48
756.381	51.04
756.561	50.56
756.741	49.94
756.922	48.99
757.102	49.97
757.283	52.46
757.463	51.55
757.643	53.74
757.823	53.95
758.004	55.58
758.184	53.93
758.364	53.74
758.545	54.66
758.725	55.88
758.905	55.98
759.085	54.8
759.265	52.49
759.446	52.65
759.626	50.94
759.806	48.75
759.986	47.36
760.166	48.63
760.346	48.63
760.526	46.1
760.706	45.68
760.886	42.96
761.066	43.55
761.246	43.19
761.426	42.89
761.606	42.94
761.786	42.08
761.966	42.07
762.146	40.31
762.326	40.12
762.506	42.05
762.686	41.39
762.866	43.24
763.046	40.7
763.225	40.23
763.405	38.73
763.585	38.28
763.765	38.93
763.945	39.46
764.124	39.07
764.304	40.39
764.484	40.19
764.664	42.2
764.843	41.9
765.023	44.67
765.203	44.74
765.382	46.29
765.562	47.34
765.741	48.56
765.921	50.62
766.101	53.43
766.28	51.31
766.46	49.18
766.639	47.48
766.819	46.92
766.998	47.22
767.178	48.44
767.357	48.69
767.537	50.15
767.716	50.3
767.896	47.34
768.075	42.05
768.254	40.68
768.434	40.97
768.613	40.09
768.792	42.15
768.972	40
769.151	40.51
769.33	41.06
769.51	37.88
769.689	40.64
769.868	40.28
770.047	42.94
770.226	42.28
770.406	42.72
770.585	44.1
770.764	43.53
770.943	46.54
771.122	47.45
771.301	49.72
771.48	52.23
771.66	52.32
771.839	54.99
772.018	57.41
772.197	61.32
772.376	60.27
772.555	61.41
772.734	58.36
772.913	58.63
773.092	58.63
773.271	56.82
773.449	56.84
773.628	56.32
773.807	53.57
773.986	54.76
774.165	53.32
774.344	57.01
774.523	56.8
774.701	58.55
774.88	59.61
775.059	57.2
775.238	56.76
775.417	57.68
775.595	58.72
775.774	61.3
775.953	61.17
776.131	62.34
776.31	58.37
776.489	57.26
776.667	59.24
776.846	54.65
777.025	55.63
777.203	55.56
777.382	54.36
777.56	51.26
777.739	50.36
777.917	50.63
778.096	51.3
778.274	54.37
778.453	53.97
778.631	53.68
778.81	55.92
778.988	58.17
779.166	58.32
779.345	59.96
779.523	60.26
779.702	62.07
779.88	59.75
780.058	56.89
780.237	55.19
780.415	57
780.593	55.09
780.771	57.37
780.95	58.01
781.128	57.09
781.306	48.85
781.484	49.83
781.662	49.91
781.841	50.84
782.019	52.33
782.197	51.56
782.375	48.41
782.553	50.58
782.731	47.72
782.909	47.1
783.087	49.01
783.265	57.26
783.443	59.53
783.621	58.26
783.799	60.18
783.977	61.75
784.155	66.05
784.333	67.01
784.511	63.45
784.689	65.69
784.867	66.02
785.045	69.15
785.223	63.65
785.4	66.18
785.578	61.81
785.756	59.77
785.934	58.87
786.112	57.87
786.289	62.07
786.467	65.57
786.645	65.9
786.823	61.38
787	57.26
787.178	59.76
787.356	58.58
787.533	63.26
787.711	63.05
787.889	62.03
788.066	57.58
788.244	57.54
788.421	59.05
788.599	56.18
788.776	62.65
788.954	64.49
789.131	61.96
789.309	59.49
789.486	57.89
789.664	58.14
789.841	58.16
790.019	63.56
790.196	61.08
790.373	56.18
790.551	57.24
790.728	56.85
790.906	55.81
791.083	60.97
791.26	62.07
791.437	60.18
791.615	63.57
791.792	62.76
791.969	61.39
792.146	62.69
792.324	64.06
792.501	65.42
792.678	63.63
792.855	60.63
793.032	62.71
793.209	62.18
793.387	64.41
793.564	62.46
793.741	65.07
793.918	68.38
794.095	66.24
794.272	71.75
794.449	68.95
794.626	70.73
794.803	72.92
794.98	66.06
795.157	63.53
795.334	61.42
795.511	57.91
795.688	55.34
795.864	55.45
796.041	56.17
796.218	55.56
796.395	54.23
796.572	51.95
796.749	55.66
796.925	59.73
797.102	60.1
797.279	62.88
797.456	66.76
797.632	70.66
797.809	71.24
797.986	71.28
798.162	69.69
798.339	78.81
798.516	82.04
798.692	75.8
798.869	76.59
799.046	82.87
799.222	79.65
799.399	73.12
799.575	73.32
799.752	70.12
799.928	67.46
800.105	65.13
800.281	64.78
800.458	59.64
800.634	57.37
800.811	56.02
800.987	60.92
801.163	61.18
801.34	66.51
801.516	64.9
801.692	67.19
801.869	70.93
802.045	70.13
802.221	63.23
802.398	68.55
802.574	71.89
802.75	72.92
802.926	67.04
803.103	69.57
803.279	63.24
803.455	64.81
803.631	63
803.807	61.82
803.983	67
804.16	73.16
804.336	74.11
804.512	73.83
804.688	78.01
804.864	78.11
805.04	78.83
805.216	81.22
805.392	76.42
805.568	77.53
805.744	74.31
805.92	66.88
806.096	65.95
806.272	67.23
806.448	64.17
806.623	60.93
806.799	63.81
806.975	58.11
807.151	62.95
807.327	65.5
807.503	66.28
807.678	67.83
807.854	73.77
808.03	74.33
808.206	75.11
808.381	77.93
808.557	75.2
808.733	72.38
808.908	71.11
809.084	70.31
809.26	71.33
809.435	73.59
809.611	73.82
809.787	70.43
809.962	71.53
810.138	71.23
810.313	75.2
810.489	76.1
810.664	76.5
810.84	78.97
811.015	76.64
811.191	79.11
811.366	76.53
811.542	81.6
811.717	82.1
811.892	82.33
812.068	79.82
812.243	80.52
812.419	81.49
812.594	77.31
812.769	82.8
812.944	87.64
813.12	81.05
813.295	84.32
813.47	77.13
813.645	80.92
813.821	82.44
813.996	88.45
814.171	90.57
814.346	96.05
814.521	98.73
814.697	95.75
814.872	93.16
815.047	94.03
815.222	84.39
815.397	85.99
815.572	86.63
815.747	83.56
815.922	72.97
816.097	67.61
816.272	60.53
816.447	61.55
816.622	60.43
816.797	60.67
816.972	61.82
817.147	65.52
817.322	68.03
817.496	67.42
817.671	66.3
817.846	72.94
818.021	73.66
818.196	75.28
818.371	73.88
818.545	75.7
818.72	72.82
818.895	71.23
819.069	71.93
819.244	71.68
819.419	69.97
819.594	64.37
819.768	59.95
819.943	55.53
820.117	51.37
820.292	50.94
820.467	48.28
820.641	46.27
820.816	46.44
820.99	44.24
821.165	40.91
821.339	41
821.514	39.75
821.688	38.46
821.863	38
822.037	38.17
822.212	37.23
822.386	37.11
822.56	36.57
822.735	35.59
822.909	35.81
823.084	35.93
823.258	35.26
823.432	36.11
823.606	35.9
823.781	36.67
823.955	37.2
824.129	37.93
824.303	38.19
824.478	37.87
824.652	38.3
824.826	38.64
825	40.23
825.174	39.97
825.348	40.9
825.523	41.51
825.697	40.1
825.871	40.21
826.045	39.7
826.219	38.76
826.393	39.66
826.567	38.86
826.741	39.27
826.915	38.99
827.089	39.84
827.263	39.94
827.437	41.33
827.611	44.04
827.784	46.2
827.958	49.14
828.132	50.21
828.306	51.9
828.48	54.12
828.654	54.5
828.827	56.02
829.001	57.54
829.175	58.6
829.349	59.37
829.522	61.34
829.696	59.04
829.87	57.27
830.044	59.77
830.217	63.04
830.391	68.1
830.565	67.13
830.738	67.67
830.912	67.39
831.085	67.86
831.259	67.18
831.432	66.39
831.606	72.78
831.779	72.38
831.953	70.94
832.126	68.23
832.3	65.8
832.473	66.99
832.647	66.5
832.82	64.86
832.994	64.51
833.167	63.13
833.34	62.19
833.514	59.72
833.687	59.77
833.86	59.67
834.034	61.02
834.207	58.03
834.38	56.79
834.553	55.57
834.727	57.07
834.9	56.8
835.073	60.99
835.246	62.68
835.419	63.3
835.593	66.84
835.766	66.23
835.939	64.53
836.112	70.61
836.285	65.67
836.458	70.24
836.631	66.79
836.804	67.33
836.977	64.21
837.15	62.52
837.323	62.43
837.496	58.83
837.669	61.91
837.842	63.51
838.015	57.82
838.188	70.09
838.361	63.29
838.533	64.14
838.706	62.57
838.879	65.79
839.052	77.57
839.225	83.71
839.398	84.43
839.57	83.59
839.743	85.52
839.916	93.44
840.088	85.39
840.261	97.37
840.434	104.74
840.607	104.05
840.779	105.96
840.952	91.65
841.124	82.03
841.297	92.09
841.47	95.91
841.642	95.64
841.815	91.74
841.987	106.64
842.16	101.33
842.332	112.05
842.505	123.26
842.677	110.28
842.85	138.78
843.022	150.69
843.194	153.66
843.367	146.88
843.539	139.44
843.712	131.83
843.884	132.46
844.056	136.11
844.229	119.18
844.401	125.45
844.573	135.59
844.745	119.99
844.918	117.52
845.09	105
845.262	114.73
845.434	119.04
845.606	126.32
845.779	118.95
845.951	136.35
846.123	137.73
846.295	126.28
846.467	120.52
846.639	121.59
846.811	135.49
846.983	136.19
847.155	141.88
847.327	133.78
847.499	138.57
847.671	163.95
847.843	143.73
848.015	203.17
848.187	204.17
848.359	239.76
848.531	267.36
848.703	244.72
848.875	305.72
849.047	258.31
849.218	339.71
849.39	299.81
849.562	263.94
849.734	254.73
849.905	208.73
850.077	241.86
850.249	286.75
850.421	296.26
850.592	260.19
850.764	216.57
850.936	267.04
851.107	292.42
851.279	363.45
851.451	266.72
851.622	233.23
851.794	203.76
851.965	182.09
852.137	176.88
852.308	176.65
852.48	202.28
852.651	196.16
852.823	179.82
852.994	170.79
853.166	161.46
853.337	165.6
853.509	190.06
853.68	236.9
853.851	227.24
854.023	272.38
854.194	239.05
854.365	237.41
854.537	232.13
854.708	343.47
854.879	495.9
855.05	433.64
855.222	389.72
855.393	236.66
855.564	293.42
855.735	293.53
855.906	196.27
856.078	213.21
856.249	228
856.42	221.06
856.591	172.92
856.762	177.13
856.933	198.51
857.104	233.97
857.275	266.58
857.446	157.06
857.617	152.55
857.788	162.78
857.959	156.68
858.13	136.52
858.301	156.44
858.472	200.44
858.643	218.79
858.814	241.13
858.985	235.97
859.155	216.81
859.326	291.42
859.497	277.21
859.668	263.16
859.839	432.59
860.009	321.51
860.18	239.31
860.351	183.78
860.522	170.49
860.692	143.73
860.863	137.54
861.034	135.1
861.204	123.06
861.375	122.44
861.546	119.2
861.716	117.62
861.887	124.49
862.057	149.65
862.228	120.17
862.398	124.29
862.569	122.12
862.739	118.2
862.91	126.95
863.08	157.48
863.251	148.5
863.421	122.35
863.592	103.76
863.762	91.99
863.932	95.7
864.103	114.73
864.273	106.06
864.443	141.67
864.614	118.51
864.784	108.09
864.954	94.96
865.125	117.93
865.295	135.57
865.465	145.47
865.635	158.96
865.805	143.41
865.976	166.2
866.146	158.99
866.316	150.59
866.486	260.5
866.656	234.32
866.826	270.9
866.996	253.27
867.166	269.81
867.336	266.41
867.506	224.91
867.676	224.2
867.846	201.54
868.016	232.41
868.186	225.65
868.356	199.71
868.526	215.85
868.696	205.82
868.866	216.23
869.036	203.3
869.206	185.61
869.376	196.24
869.545	191.25
869.715	225.85
869.885	222.9
870.055	221.84
870.224	244.28
870.394	370.59
870.564	289.26
870.734	300.45
870.903	264.62
871.073	318.86
871.243	251.21
871.412	257.84
871.582	211.29
871.751	221.43
871.921	233.7
872.091	197.96
872.26	173.16
872.43	136.64
872.599	137.78
872.769	150.78
872.938	142.31
873.108	193.43
873.277	206.73
873.446	247.92
873.616	201.36
873.785	209.6
873.955	299.25
874.124	226.16
874.293	532.31
874.463	600.6
874.632	809.09
874.801	912.61
874.971	281.63
875.14	288.08
875.309	195.77
875.478	187.05
875.647	181.66
875.817	142.54
875.986	140.53
876.155	156.61
876.324	157.03
876.493	128.83
876.662	121.54
876.831	151.61
877	155.75
877.17	178.49
877.339	224.73
877.508	166.54
877.677	195.44
877.846	221.33
878.015	191.98
878.184	171.15
878.352	178.2
878.521	158.08
878.69	147.36
878.859	129.81
879.028	137.23
879.197	124.33
879.366	146.66
879.534	131.37
879.703	130.4
879.872	121.55
880.041	119.48
880.21	106.03
880.378	116.27
880.547	106.27
880.716	106.4
880.884	89.91
881.053	86.18
881.222	74.46
881.39	72.3
881.559	60.54
881.727	54.29
881.896	52.24
882.065	51.74
882.233	49.56
882.402	48.91
882.57	43.28
882.739	44.52
882.907	43.86
883.076	47.92
883.244	48.85
883.412	52.88
883.581	54.24
883.749	57.31
883.918	57.42
884.086	58.92
884.254	60.67
884.423	65.39
884.591	75.56
884.759	80.63
884.927	72.89
885.096	66.92
885.264	72.53
885.432	80.86
885.6	79.89
885.769	89.77
885.937	95.22
886.105	103.75
886.273	107.93
886.441	98.85
886.609	93.14
886.777	111.46
886.945	139.37
887.113	135
887.281	141.65
887.449	146.08
887.617	129.88
887.785	142.83
887.953	142.15
888.121	133.68
888.289	146.41
888.457	185.43
888.625	222.5
888.793	154.74
888.961	188.25
889.129	141.52
889.296	146.98
889.464	167.15
889.632	144.22
889.8	152.24
889.967	161.32
890.135	168.87
