Data from JASIL_3020_Reflection_01.txt Node
Date: Mon Nov 09 10:44:03 EST 2015
User: Geneva
Spectrometer: USB4E03002
Autoset integration time: false
Trigger mode: 4
Integration Time (sec): 1.000000E-1
Scans to average: 10
Electric dark correction enabled: false
Nonlinearity correction enabled: false
Boxcar width: 5
Stray light correction enabled: false
XAxis mode: Wavelengths
Stop averaging: false
Number of Pixels in Spectrum: 3648
>>>>>Begin Spectral Data<<<<<
177.575	66.2
177.794	41.32
178.014	45.41
178.233	62.36
178.452	50.24
178.672	-29.82
178.891	-52.17
179.11	390.24
179.33	2090.91
179.549	139.1
179.768	69.48
179.987	190.28
180.207	-78.33
180.426	-94.03
180.645	-10.73
180.864	11.27
181.084	38.28
181.303	40.97
181.522	59.39
181.741	45.95
181.96	-16.17
182.179	9.85
182.398	31.48
182.618	45.63
182.837	-23.79
183.056	-113.68
183.275	146.67
183.494	-287.78
183.713	-1072.5
183.932	-488.3
184.151	-1160.61
184.37	-187.96
184.589	-3066.67
184.808	401.01
185.027	330.45
185.246	212.72
185.465	162.99
185.684	389.02
185.903	140.34
186.122	146.26
186.341	130.17
186.56	182.2
186.779	565.31
186.998	-294.51
187.216	-36
187.435	-127.08
187.654	-109
187.873	-38.28
188.092	-34.31
188.311	-48.87
188.53	-73.85
188.748	-80.17
188.967	-253.74
189.186	476.34
189.405	151.69
189.623	162.62
189.842	239.68
190.061	-2160
190.28	-167.02
190.498	-107.62
190.717	-83.33
190.936	-56.9
191.154	-9.69
191.373	12.56
191.592	13.99
191.81	-13.97
192.029	-29.1
192.248	-1.3
192.466	113.27
192.685	150.74
192.904	1026.09
193.122	-373.91
193.341	5100
193.559	-1350
193.778	-187.5
193.996	-580.36
194.215	-378.72
194.433	-146.79
194.652	-91.77
194.87	55.76
195.089	106.73
195.307	218
195.526	159.88
195.744	160.49
195.963	308.82
196.181	-1025.53
196.399	-319.88
196.618	-486.86
196.836	-289.04
197.055	-258.88
197.273	-182.52
197.491	-130.5
197.71	-98.11
197.928	-70.43
198.146	-86.12
198.365	-84.04
198.583	-3288.89
198.801	189.82
199.019	155.98
199.238	106.41
199.456	191.02
199.674	288.51
199.892	517.59
200.111	555
200.329	808.93
200.547	-3883.33
200.765	657.14
200.983	-274.83
201.202	-318.45
201.42	-176.79
201.638	-57.73
201.856	-188.15
202.074	-308.08
202.292	-382.54
202.51	-276.39
202.728	-5900
202.946	203.79
203.165	-763.16
203.383	288.46
203.601	486.36
203.819	-122.09
204.037	-103.75
204.255	-81.5
204.473	-141.35
204.691	-154.9
204.909	647.62
205.127	-654.55
205.345	-413.73
205.562	577.78
205.78	-438
205.998	-144.93
206.216	-73.58
206.434	-104.49
206.652	-1542.86
206.87	454.24
207.088	224.24
207.306	285.99
207.523	212.12
207.741	376.92
207.959	157.66
208.177	120.2
208.395	193.69
208.612	165.86
208.83	188.69
209.048	190.27
209.266	301.47
209.483	578.69
209.701	-1082.76
209.919	18950
210.136	347.27
210.354	2025
210.572	-578.72
210.79	-805.56
211.007	251.09
211.225	142.69
211.442	310.53
211.66	-63.11
211.878	-114.47
212.095	-273.58
212.313	-5900
212.53	-227.87
212.748	-80.57
212.966	-714.63
213.183	-12850
213.401	7.08
213.618	46.93
213.836	23.51
214.053	98.59
214.271	133.56
214.488	106.69
214.705	93.12
214.923	164.1
215.14	188.19
215.358	269.27
215.575	198.94
215.793	490.91
216.01	312.5
216.227	257.41
216.445	68.72
216.662	203.06
216.879	121.89
217.097	174.18
217.314	291.13
217.531	701.72
217.749	-223.72
217.966	-413.08
218.183	-88.17
218.4	-53.56
218.618	-94.2
218.835	-30.55
219.052	-21.45
219.269	-39.69
219.487	-8.39
219.704	-26.8
219.921	-20.34
220.138	-45.68
220.355	34.52
220.572	-5700
220.79	224.07
221.007	138.24
221.224	385.42
221.441	251.68
221.658	-84.36
221.875	-105.97
222.092	-40.44
222.309	-1.07
222.526	-8.67
222.743	-26.77
222.96	-22.98
223.177	-1.33
223.394	-2.54
223.611	26.61
223.828	38.09
224.045	36.22
224.262	35.03
224.479	26.59
224.696	11.02
224.913	15.62
225.13	19.38
225.347	15.76
225.564	9.16
225.781	13.45
225.997	2.37
226.214	-3.42
226.431	-1.02
226.648	4.99
226.865	9.62
227.082	8.93
227.298	9.6
227.515	4.25
227.732	8.13
227.949	3.89
228.165	2.45
228.382	2.23
228.599	7.91
228.816	7.02
229.032	-0.15
229.249	-9.73
229.466	-4.63
229.682	-8.23
229.899	-7.36
230.116	-21.61
230.332	-18.2
230.549	-25.07
230.765	-27.91
230.982	-41.85
231.199	-42.43
231.415	-25.74
231.632	-28.02
231.848	-34.7
232.065	-25.83
232.281	-35.9
232.498	-24.66
232.714	-20.58
232.931	-7.08
233.147	-7.72
233.364	-10.58
233.58	-21.68
233.797	-27.54
234.013	-14.96
234.23	-15.08
234.446	-20.25
234.662	-7.87
234.879	-8.26
235.095	0.74
235.312	-2.72
235.528	-11.79
235.744	-7.85
235.961	0.24
236.177	-9.71
236.393	-21.75
236.61	-29.42
236.826	-30.93
237.042	-29.93
237.258	-23.44
237.475	-30.86
237.691	-29.98
237.907	-19.11
238.123	-26.54
238.339	-19.2
238.556	-8.55
238.772	-7.58
238.988	-5.25
239.204	-2.68
239.42	-1.24
239.636	-1.44
239.853	1.44
240.069	-3.34
240.285	-5.35
240.501	1.02
240.717	2.85
240.933	4.19
241.149	8.15
241.365	5.47
241.581	5.52
241.797	9.08
242.013	9.67
242.229	5.56
242.445	8.83
242.661	9.17
242.877	5.25
243.093	-0.63
243.309	-6.29
243.525	-13.67
243.741	-2.93
243.957	-0.94
244.173	-7.43
244.388	-5.84
244.604	-1.68
244.82	-1.25
245.036	1.39
245.252	2.91
245.468	4
245.683	4.97
245.899	5.23
246.115	3.46
246.331	4.51
246.547	5.63
246.762	3.51
246.978	1.73
247.194	3.01
247.409	2.99
247.625	0.82
247.841	-0.85
248.057	1.04
248.272	-1.46
248.488	-0.53
248.703	-5.59
248.919	-7.65
249.135	-6.22
249.35	-0.77
249.566	-1.21
249.782	-5.16
249.997	-2.44
250.213	3.64
250.428	2.1
250.644	8.04
250.859	6.92
251.075	10.16
251.29	6.81
251.506	11.81
251.721	7.98
251.937	4.67
252.152	6.76
252.368	6.27
252.583	4.7
252.798	7.58
253.014	6.66
253.229	9.47
253.445	1.19
253.66	-1.38
253.875	-15.41
254.091	-12.86
254.306	-7.32
254.521	-2.7
254.737	-6.09
254.952	-5.27
255.167	-12.73
255.383	-13.61
255.598	-15.83
255.813	-11.28
256.028	-10.34
256.244	-3.14
256.459	-2.42
256.674	-5.64
256.889	-10.07
257.104	-4.93
257.32	-4.06
257.535	-5.7
257.75	-3.14
257.965	-0.49
258.18	2.17
258.395	5.02
258.61	4.35
258.826	5.16
259.041	5.36
259.256	6.34
259.471	5.66
259.686	5.09
259.901	8.55
260.116	6.21
260.331	5.93
260.546	5.47
260.761	3.34
260.976	3.93
261.191	-0.79
261.406	0.1
261.621	1.6
261.836	2.27
262.05	2.63
262.265	0.92
262.48	2.25
262.695	0.26
262.91	2.61
263.125	2.54
263.34	-4.65
263.555	-3.16
263.769	-3.46
263.984	-4.28
264.199	-4.32
264.414	-6.2
264.629	-7.11
264.843	-7.65
265.058	-8.18
265.273	-10.77
265.488	-9.05
265.702	-7.8
265.917	-4.97
266.132	-0.27
266.346	-0.9
266.561	0.83
266.776	0.02
266.99	-1.72
267.205	1.78
267.42	2.03
267.634	2.98
267.849	4.67
268.063	6.76
268.278	6.01
268.492	4.46
268.707	3.83
268.922	4.02
269.136	6.53
269.351	6.4
269.565	3.43
269.78	3.52
269.994	3.35
270.209	0.99
270.423	-0.24
270.637	0.98
270.852	0.33
271.066	0.72
271.281	-1.38
271.495	-0.03
271.709	0.18
271.924	0.36
272.138	0.57
272.353	-2.1
272.567	-3.88
272.781	-1.77
272.996	-1.95
273.21	-4.01
273.424	-2.35
273.638	-2.96
273.853	-5.56
274.067	-4.16
274.281	-5.23
274.495	-2.88
274.71	-0.33
274.924	0.72
275.138	2.88
275.352	2.5
275.566	4.09
275.781	1.29
275.995	3.48
276.209	2.82
276.423	1.23
276.637	1.58
276.851	0.34
277.065	-1.55
277.279	1.44
277.493	-1.47
277.707	-5.38
277.921	-6.75
278.135	-8.83
278.349	-9.49
278.563	-11.25
278.777	-10.43
278.991	-8.2
279.205	-9.91
279.419	-9.94
279.633	-10.88
279.847	-8.77
280.061	-6.71
280.275	-7.18
280.489	-2.52
280.703	-3.1
280.917	0.32
281.131	1.65
281.344	0.89
281.558	1.74
281.772	2.44
281.986	3.3
282.2	1.53
282.414	3.27
282.627	4.11
282.841	3.35
283.055	4.77
283.269	2.42
283.482	1.23
283.696	1.85
283.91	2.74
284.123	3.04
284.337	2.53
284.551	2.52
284.764	-0.19
284.978	0.34
285.192	0.44
285.405	-1.62
285.619	-0.12
285.833	1.06
286.046	-0.15
286.26	-0.87
286.473	-2.28
286.687	-2.52
286.9	-1.41
287.114	-0.32
287.327	-1.88
287.541	-1.92
287.754	-0.64
287.968	0.91
288.181	0.51
288.395	0.57
288.608	-1.44
288.822	-1.94
289.035	-1.19
289.248	-1.83
289.462	-0.34
289.675	-0.38
289.889	-2.06
290.102	-3.34
290.315	-4.79
290.529	-5.32
290.742	-4.38
290.955	-2.66
291.169	-1.71
291.382	-1.44
291.595	0.27
291.808	-1.07
292.022	-0.5
292.235	0.84
292.448	2.3
292.661	3.53
292.875	3.61
293.088	1.91
293.301	3.79
293.514	3.78
293.727	2.94
293.94	1.31
294.153	2.24
294.367	2.42
294.58	0.36
294.793	2.46
295.006	1.29
295.219	0.7
295.432	1.56
295.645	0.73
295.858	1.62
296.071	1.83
296.284	0.82
296.497	1.75
296.71	0.48
296.923	0.97
297.136	-0.93
297.349	-1.74
297.562	-3.48
297.775	-3.58
297.988	-4.01
298.201	-4.28
298.414	-5.84
298.626	-2.2
298.839	-4.39
299.052	-3.56
299.265	-2.51
299.478	-2.3
299.691	-1.68
299.903	1.32
300.116	1.15
300.329	0.18
300.542	1.83
300.755	2.53
300.967	0.92
301.18	-0.11
301.393	0.52
301.605	0.98
301.818	-0.7
302.031	-0.72
302.243	-2.22
302.456	-2.01
302.669	-2.37
302.881	-5.4
303.094	-6.24
303.307	-8.22
303.519	-8.39
303.732	-9.47
303.944	-10.61
304.157	-7.44
304.37	-7.7
304.582	-8.86
304.795	-9.35
305.007	-8.17
305.22	-6.64
305.432	-6.29
305.645	-5.29
305.857	-5.13
306.069	-3.17
306.282	-0.64
306.494	-1.28
306.707	-0.24
306.919	2.79
307.132	1.85
307.344	2.86
307.556	2.54
307.769	3.29
307.981	5
308.193	8.69
308.406	7.47
308.618	4.64
308.83	3.65
309.043	3.17
309.255	3.7
309.467	4.91
309.679	3.38
309.892	3.42
310.104	3.61
310.316	3.14
310.528	-0.27
310.74	0.4
310.953	3.78
311.165	2.59
311.377	3.73
311.589	1.31
311.801	2.08
312.013	3.07
312.225	2.08
312.437	2.95
312.649	0.18
312.862	0.68
313.074	-0.59
313.286	-1.64
313.498	1.52
313.71	0.36
313.922	3
314.134	0.32
314.346	0.05
314.558	1.03
314.77	-2.48
314.982	-1.86
315.193	-0.87
315.405	2.09
315.617	1.5
315.829	3.3
316.041	3.36
316.253	2.58
316.465	5.32
316.677	6.16
316.888	5.22
317.1	7.99
317.312	6.78
317.524	6.01
317.736	4.9
317.947	6.65
318.159	5.62
318.371	5.89
318.583	7.92
318.794	7.74
319.006	6.79
319.218	5.45
319.43	3.27
319.641	6.44
319.853	8
320.064	5.26
320.276	4.53
320.488	3.38
320.699	5.45
320.911	4.13
321.123	4.09
321.334	1.34
321.546	5.54
321.757	5.88
321.969	8.67
322.18	7.7
322.392	10.76
322.603	7.71
322.815	6.18
323.026	4.85
323.238	5.35
323.449	4.77
323.661	5.93
323.872	4.09
324.083	5.45
324.295	2.9
324.506	1.56
324.718	1.15
324.929	0.46
325.14	0.9
325.352	-0.73
325.563	-1.83
325.774	-2.76
325.986	-1.3
326.197	-0.68
326.408	-1.77
326.62	-1.34
326.831	-0.8
327.042	-0.02
327.253	3.53
327.464	0.89
327.676	0.58
327.887	0.67
328.098	1.85
328.309	0.37
328.52	2.86
328.732	2.68
328.943	2.67
329.154	3.47
329.365	1.46
329.576	0.41
329.787	2.19
329.998	2.7
330.209	2.64
330.42	1.56
330.631	4.43
330.842	2.41
331.053	4.56
331.264	6.67
331.475	6.33
331.686	7.2
331.897	8.29
332.108	7.23
332.319	10.31
332.53	9.84
332.741	11.77
332.952	9.14
333.163	6.9
333.374	7.31
333.585	8.05
333.795	10.05
334.006	9.98
334.217	8.54
334.428	10.81
334.639	7.6
334.849	8.96
335.06	6.36
335.271	8.89
335.482	10.64
335.692	9.57
335.903	6.44
336.114	4.49
336.325	3.56
336.535	5.02
336.746	4.3
336.957	5.83
337.167	5.49
337.378	6.01
337.589	1.47
337.799	1.84
338.01	0.12
338.22	1.95
338.431	1.95
338.642	1.27
338.852	-1.2
339.063	-0.59
339.273	-0.82
339.484	-2.14
339.694	-2.57
339.905	-0.22
340.115	-1.14
340.326	-0.61
340.536	-1.16
340.746	-1.13
340.957	-0.48
341.167	1.03
341.378	2.21
341.588	1.88
341.799	3.6
342.009	5.24
342.219	5.04
342.43	6.94
342.64	8.68
342.85	10.89
343.061	9.44
343.271	10.19
343.481	9.79
343.691	7.47
343.902	6.1
344.112	6.1
344.322	4.66
344.532	7.29
344.743	5.02
344.953	3.34
345.163	1.31
345.373	4.44
345.583	3.93
345.793	4.01
346.004	4.45
346.214	7.02
346.424	4.44
346.634	5.34
346.844	4.87
347.054	5.63
347.264	4.92
347.474	5.62
347.684	4.47
347.894	3.44
348.104	4.63
348.314	5.65
348.524	4.33
348.734	6.71
348.944	6.34
349.154	6.1
349.364	7.05
349.574	8.73
349.784	7.5
349.994	7.32
350.204	8.98
350.413	6.56
350.623	6.11
350.833	4.41
351.043	2.83
351.253	1.87
351.463	0.41
351.672	-0.96
351.882	-0.77
352.092	0.68
352.302	0.23
352.511	-0.28
352.721	1.19
352.931	2.19
353.141	4.6
353.35	5.97
353.56	8.81
353.77	8.94
353.979	8.13
354.189	9.71
354.399	8.34
354.608	9.25
354.818	7.9
355.027	6.64
355.237	4.94
355.447	4.56
355.656	3.03
355.866	0.56
356.075	0.13
356.285	1.85
356.494	-0.18
356.704	-0.19
356.913	-1.32
357.123	2.4
357.332	2.02
357.542	3.95
357.751	3.44
357.96	4.69
358.17	4.08
358.379	3.65
358.589	3.6
358.798	4.04
359.007	6.06
359.217	7.43
359.426	5.93
359.635	7.66
359.845	8.44
360.054	8.5
360.263	8.62
360.472	10.3
360.682	11.6
360.891	11.59
361.1	11.29
361.309	9.87
361.519	8.62
361.728	8.37
361.937	8.53
362.146	7.09
362.355	7.94
362.564	7.63
362.774	8.26
362.983	6.69
363.192	7.12
363.401	6.22
363.61	6.66
363.819	7.18
364.028	6.71
364.237	6.15
364.446	6.55
364.655	5.72
364.864	7.65
365.073	6.51
365.282	6.25
365.491	7.27
365.7	9.81
365.909	8.63
366.118	9.44
366.327	10.39
366.536	10.71
366.745	9.86
366.954	10.33
367.162	8.55
367.371	8.1
367.58	9.59
367.789	7.76
367.998	6.57
368.207	9.19
368.415	8.52
368.624	8.41
368.833	7.89
369.042	9.67
369.25	9.46
369.459	8.91
369.668	9.66
369.877	9.98
370.085	9.91
370.294	8.71
370.503	6.85
370.711	5.3
370.92	5.19
371.129	5.03
371.337	2.81
371.546	3.87
371.754	4.73
371.963	5.28
372.171	5.55
372.38	5.75
372.589	6.71
372.797	7.53
373.006	8.41
373.214	7.89
373.423	8.38
373.631	10.31
373.84	9.16
374.048	8.47
374.256	7.79
374.465	7.49
374.673	7.34
374.882	7.76
375.09	9.51
375.298	7.95
375.507	9.55
375.715	9.27
375.923	8.14
376.132	8.83
376.34	8.98
376.548	8.08
376.757	7.92
376.965	8.66
377.173	7.91
377.381	6.34
377.59	7.4
377.798	5.72
378.006	5.38
378.214	6
378.423	7.04
378.631	6.74
378.839	7.54
379.047	7.44
379.255	7.18
379.463	5.82
379.671	6.3
379.879	6.93
380.088	7.43
380.296	6.75
380.504	6.78
380.712	5.72
380.92	5.8
381.128	5.69
381.336	5
381.544	4.64
381.752	6.98
381.96	4.97
382.168	5.56
382.376	6.59
382.584	6.36
382.791	6.66
382.999	6.79
383.207	7.04
383.415	6.36
383.623	5.84
383.831	5.35
384.039	6.13
384.247	8.46
384.454	7.64
384.662	6.19
384.87	7.28
385.078	6.08
385.285	5.28
385.493	4.44
385.701	5.66
385.909	7.7
386.116	7.14
386.324	5.84
386.532	4.61
386.739	5.49
386.947	6.67
387.155	6.92
387.362	6.59
387.57	7.21
387.778	8.46
387.985	7.15
388.193	5.1
388.4	6.08
388.608	6.01
388.816	5.38
389.023	5.43
389.231	5.71
389.438	5.01
389.646	3.51
389.853	2.37
390.061	2.77
390.268	3.9
390.475	4.41
390.683	3.98
390.89	3.07
391.098	3.95
391.305	3.83
391.512	2.75
391.72	2.42
391.927	4.2
392.135	4.36
392.342	3.33
392.549	1.64
392.756	2.41
392.964	3.13
393.171	4.51
393.378	5.26
393.586	5.13
393.793	5.46
394	6.79
394.207	6.8
394.414	7.59
394.622	8.37
394.829	8.8
395.036	8.86
395.243	9.5
395.45	8.86
395.657	7.77
395.864	7.97
396.072	6.53
396.279	5.32
396.486	5.29
396.693	5.78
396.9	5.6
397.107	6.05
397.314	5.09
397.521	3.93
397.728	3.54
397.935	3.13
398.142	2.73
398.349	3.67
398.556	2.61
398.763	2.76
398.97	1.72
399.177	1.04
399.383	1.83
399.59	2.19
399.797	2.34
400.004	2.69
400.211	3.33
400.418	2.45
400.625	1.58
400.831	3.89
401.038	3.38
401.245	4.49
401.452	5.16
401.658	4.24
401.865	5.29
402.072	5.49
402.279	6.42
402.485	5.92
402.692	7.48
402.899	8.03
403.105	7.98
403.312	8.99
403.519	8.65
403.725	8.53
403.932	8.64
404.138	8.5
404.345	7.88
404.552	7.07
404.758	7.64
404.965	6.88
405.171	7.6
405.378	6.23
405.584	5.31
405.791	4.64
405.997	4.23
406.204	4.89
406.41	3.57
406.617	4.47
406.823	4.36
407.029	4.54
407.236	4.87
407.442	3.7
407.649	4.32
407.855	5.58
408.061	5.32
408.268	6.03
408.474	5.15
408.68	5.57
408.887	5.08
409.093	5.05
409.299	3.37
409.505	2.88
409.712	2.81
409.918	3.77
410.124	3.34
410.33	2.35
410.537	2.29
410.743	2.82
410.949	2.64
411.155	3.09
411.361	2.7
411.567	4
411.773	4.96
411.98	4.92
412.186	4.42
412.392	4.53
412.598	6.67
412.804	6.1
413.01	6.24
413.216	6.09
413.422	6.04
413.628	6.72
413.834	6.48
414.04	6.28
414.246	7.04
414.452	5.85
414.658	5.29
414.864	4.79
415.07	4.63
415.275	4.1
415.481	3.84
415.687	3.86
415.893	3.95
416.099	4.19
416.305	3.92
416.511	4.3
416.716	4.99
416.922	4.95
417.128	4.77
417.334	5.3
417.539	5.07
417.745	5.6
417.951	5.45
418.157	5.58
418.362	5.05
418.568	4.95
418.774	4.33
418.979	3.95
419.185	4.66
419.391	4.4
419.596	4.35
419.802	4.66
420.008	4.38
420.213	0.53
420.419	0.22
420.624	0.35
420.83	0.13
421.035	0.14
421.241	1.22
421.446	0.53
421.652	1
421.857	0.88
422.063	0.7
422.268	0.95
422.474	4.43
422.679	4.09
422.885	4.42
423.09	4.35
423.295	4.75
423.501	3.9
423.706	4.17
423.911	4.08
424.117	3.43
424.322	3.47
424.527	3.44
424.733	4.17
424.938	4.45
425.143	4.28
425.349	4.83
425.554	4.01
425.759	4.59
425.964	4.99
426.169	4.88
426.375	4.82
426.58	5.67
426.785	5.2
426.99	4.52
427.195	4.86
427.4	5.08
427.605	4.56
427.811	5.27
428.016	4.54
428.221	3.73
428.426	3.58
428.631	4.26
428.836	3.36
429.041	3.51
429.246	4.05
429.451	4.1
429.656	3.33
429.861	3.77
430.066	3.7
430.271	3.6
430.476	4.11
430.681	4.74
430.886	4.38
431.09	4.92
431.295	5.15
431.5	4.78
431.705	4.45
431.91	5.04
432.115	5.01
432.32	4.36
432.524	4.74
432.729	4.46
432.934	4.06
433.139	4.78
433.343	3.69
433.548	3.5
433.753	3.31
433.958	3.43
434.162	2.73
434.367	2.16
434.572	2.83
434.776	3.37
434.981	2.96
435.186	2.19
435.39	2.35
435.595	3.6
435.799	3.26
436.004	3.71
436.209	3.57
436.413	4.17
436.618	4.45
436.822	4.64
437.027	3.81
437.231	4.64
437.436	4.68
437.64	4.14
437.845	4.3
438.049	4.92
438.253	4.79
438.458	5.05
438.662	4.64
438.867	4.05
439.071	3.51
439.275	3.31
439.48	2.7
439.684	2.53
439.888	2.77
440.093	2.6
440.297	2.1
440.501	2.17
440.706	2.04
440.91	2.21
441.114	2.36
441.318	2.74
441.523	3.07
441.727	3.37
441.931	4.2
442.135	4.02
442.339	3.83
442.543	4.11
442.748	3.67
442.952	3.85
443.156	3.74
443.36	4.36
443.564	4.22
443.768	4.18
443.972	3.88
444.176	3.35
444.38	3.5
444.584	3.92
444.788	4.14
444.992	4.57
445.196	4.2
445.4	4.01
445.604	3.51
445.808	3.46
446.012	3.35
446.216	3.28
446.42	3.31
446.624	3.41
446.828	3.12
447.032	2.98
447.235	2.66
447.439	2.61
447.643	3.56
447.847	3.9
448.051	4.24
448.254	3.81
448.458	4.01
448.662	4.7
448.866	4.21
449.069	3.7
449.273	3.69
449.477	3.37
449.681	4.51
449.884	4.26
450.088	4.07
450.292	4.7
450.495	6
450.699	5.67
450.902	6.02
451.106	6.41
451.31	7.03
451.513	7.19
451.717	8.03
451.92	6.87
452.124	6.63
452.327	6.71
452.531	5.8
452.734	5.09
452.938	5.28
453.141	4.09
453.345	4.1
453.548	3.99
453.752	3.52
453.955	3.17
454.158	3.93
454.362	3.75
454.565	3.57
454.769	3.77
454.972	3.97
455.175	3.55
455.379	4.38
455.582	4.15
455.785	3.71
455.988	4.23
456.192	4.48
456.395	4.07
456.598	4.33
456.801	4.1
457.005	4.41
457.208	3.82
457.411	4.18
457.614	3.62
457.817	3.78
458.021	4.17
458.224	3.97
458.427	4
458.63	4.14
458.833	3.84
459.036	3.97
459.239	3.81
459.442	3.94
459.645	3.77
459.848	4.04
460.051	4.17
460.254	3.88
460.457	3.78
460.66	3.71
460.863	3.86
461.066	4
461.269	4.47
461.472	3.54
461.675	3.96
461.878	4.14
462.081	4.5
462.284	3.72
462.486	3.73
462.689	3.82
462.892	3.55
463.095	3.54
463.298	3.49
463.5	3.34
463.703	4.18
463.906	3.76
464.109	3.72
464.311	2.9
464.514	3.37
464.717	3.61
464.92	3.63
465.122	3.46
465.325	3.22
465.528	4.38
465.73	4.09
465.933	4.46
466.135	5.05
466.338	4.93
466.541	5.44
466.743	4.97
466.946	4.33
467.148	3.9
467.351	4.29
467.553	4.95
467.756	3.82
467.958	4.13
468.161	4.01
468.363	3.87
468.566	4.22
468.768	4.29
468.971	4.63
469.173	4.95
469.375	5.6
469.578	5.28
469.78	4.05
469.983	3.89
470.185	3.82
470.387	3.37
470.59	3.17
470.792	2.68
470.994	2.96
471.196	3.27
471.399	4.09
471.601	4.08
471.803	4.01
472.005	4.74
472.208	4.56
472.41	4.85
472.612	4.83
472.814	5.28
473.016	6.06
473.218	5.32
473.421	4.39
473.623	3.58
473.825	3.16
474.027	3.42
474.229	3.32
474.431	3.68
474.633	3.84
474.835	4.2
475.037	4.07
475.239	3.79
475.441	3.77
475.643	3.89
475.845	3.82
476.047	3.96
476.249	3.76
476.451	3.68
476.653	4.28
476.855	3.75
477.057	3.73
477.258	3.02
477.46	3.46
477.662	3.34
477.864	3.62
478.066	4.07
478.268	3.68
478.469	3.85
478.671	4.34
478.873	3.81
479.075	3.46
479.276	3.89
479.478	3.97
479.68	3.9
479.882	4.26
480.083	4.02
480.285	3.87
480.487	4.43
480.688	4.36
480.89	3.9
481.091	3.76
481.293	4.06
481.495	3.86
481.696	4.07
481.898	3.81
482.099	3.89
482.301	4.04
482.502	3.98
482.704	3.78
482.905	3.97
483.107	3.98
483.308	4.07
483.51	3.96
483.711	3.95
483.913	4
484.114	3.89
484.315	3.93
484.517	3.95
484.718	4.05
484.92	4.28
485.121	4.2
485.322	4.26
485.524	4.4
485.725	4.64
485.926	4.69
486.127	4.58
486.329	4.78
486.53	4.73
486.731	4.95
486.932	4.88
487.134	4.85
487.335	4.71
487.536	4.84
487.737	4.71
487.938	4.65
488.139	4.52
488.341	4.47
488.542	4.47
488.743	4.35
488.944	4.22
489.145	4.07
489.346	4.17
489.547	4.01
489.748	3.77
489.949	3.84
490.15	3.85
490.351	4
490.552	4.24
490.753	4.04
490.954	4.1
491.155	3.91
491.356	4.06
491.557	3.85
491.758	4.16
491.959	4.22
492.159	4.02
492.36	4.02
492.561	4
492.762	3.87
492.963	4.32
493.164	4.34
493.364	4.51
493.565	4.4
493.766	4.64
493.967	4.42
494.167	4.27
494.368	4.45
494.569	4.14
494.769	3.89
494.97	3.76
495.171	4.05
495.371	4.41
495.572	4.18
495.773	4.33
495.973	4.23
496.174	4.2
496.375	4.25
496.575	4.26
496.776	4.64
496.976	4.52
497.177	4.48
497.377	4.01
497.578	3.32
497.778	3.95
497.979	3.55
498.179	3.63
498.38	3.63
498.58	3.43
498.78	3.55
498.981	3.1
499.181	3.23
499.382	3.09
499.582	2.88
499.782	3.45
499.983	2.74
500.183	3.25
500.383	3.62
500.584	3.92
500.784	4.41
500.984	4.13
501.184	4.35
501.385	4.52
501.585	5.18
501.785	5.46
501.985	5.07
502.185	5.3
502.386	5.66
502.586	5.55
502.786	5.34
502.986	5.51
503.186	5.53
503.386	5.45
503.586	5.34
503.786	4.84
503.987	4.96
504.187	4.79
504.387	4.99
504.587	4.69
504.787	4.31
504.987	4.18
505.187	4.26
505.387	4.07
505.587	4.25
505.786	4.5
505.986	4.76
506.186	4.72
506.386	4.85
506.586	4.41
506.786	4.55
506.986	4.34
507.186	4.67
507.386	4.87
507.585	5.46
507.785	5.85
507.985	5.7
508.185	5.71
508.384	5.62
508.584	6.01
508.784	6.22
508.984	6.33
509.183	6.42
509.383	6.12
509.583	5.76
509.782	5.65
509.982	5.64
510.182	5.5
510.381	5.43
510.581	5.65
510.781	5.28
510.98	5.69
511.18	5.4
511.379	5.47
511.579	5.44
511.778	5.59
511.978	5.81
512.177	5.46
512.377	5.84
512.576	6.19
512.776	6.12
512.975	6.36
513.175	5.7
513.374	5.83
513.573	5.75
513.773	5.58
513.972	5.35
514.172	5.12
514.371	5.28
514.57	5.21
514.77	5.11
514.969	4.76
515.168	4.73
515.367	5.1
515.567	5
515.766	5.04
515.965	5.75
516.164	6
516.364	6.41
516.563	6.2
516.762	6.32
516.961	6.09
517.16	6.12
517.359	6.04
517.559	6.1
517.758	6.29
517.957	6.63
518.156	6.92
518.355	7.1
518.554	6.95
518.753	7.05
518.952	6.75
519.151	6.99
519.35	7.21
519.549	7.6
519.748	7.75
519.947	8
520.146	8.34
520.345	8.37
520.544	8.07
520.743	8.42
520.942	8.57
521.141	9.36
521.339	9.52
521.538	9.91
521.737	10.28
521.936	10.26
522.135	10.06
522.333	9.74
522.532	9.34
522.731	9.55
522.93	8.76
523.129	9.33
523.327	9.36
523.526	9.31
523.725	8.98
523.923	8.71
524.122	9.01
524.321	9.16
524.519	9.42
524.718	9.34
524.917	9.45
525.115	9.9
525.314	9.45
525.512	9.18
525.711	9.1
525.909	9.3
526.108	9.27
526.306	9.47
526.505	9.49
526.703	9.5
526.902	9.59
527.1	9.67
527.299	9.87
527.497	9.96
527.696	10.1
527.894	10.37
528.092	10.58
528.291	10.71
528.489	10.7
528.688	10.59
528.886	10.69
529.084	10.83
529.283	10.94
529.481	10.84
529.679	11.04
529.877	11.18
530.076	11.14
530.274	11.18
530.472	11.2
530.67	11.26
530.869	11.5
531.067	11.63
531.265	11.86
531.463	11.75
531.661	11.95
531.859	12.14
532.057	12.18
532.255	12.22
532.454	12.26
532.652	12.3
532.85	12
533.048	12.05
533.246	12.1
533.444	12.08
533.642	12.2
533.84	12.23
534.038	12.12
534.236	12.1
534.434	12.39
534.632	12.46
534.83	12.68
535.027	13.3
535.225	13.12
535.423	13.27
535.621	13.41
535.819	13.5
536.017	13.45
536.215	13.6
536.412	14.05
536.61	13.77
536.808	13.95
537.006	13.81
537.203	13.68
537.401	14.03
537.599	13.9
537.797	13.9
537.994	14.19
538.192	14.45
538.39	14.52
538.587	14.13
538.785	14.34
538.983	13.78
539.18	14.03
539.378	13.75
539.575	13.82
539.773	13.63
539.97	13.51
540.168	13.4
540.366	13.03
540.563	12.91
540.761	12.92
540.958	12.81
541.155	13.02
541.353	12.99
541.55	13.19
541.748	13.1
541.945	13.21
542.143	13.28
542.34	13.36
542.537	13.48
542.735	13.6
542.932	13.53
543.129	13.88
543.327	14.18
543.524	14.2
543.721	14.1
543.919	14.34
544.116	14.45
544.313	14.4
544.51	14.54
544.708	15.18
544.905	15.13
545.102	15.17
545.299	14.67
545.496	14.16
545.693	14.28
545.891	14.07
546.088	14.13
546.285	13.93
546.482	14.31
546.679	14.05
546.876	13.76
547.073	14.49
547.27	14.59
547.467	14.62
547.664	14.68
547.861	14.55
548.058	14.61
548.255	14.72
548.452	14.38
548.649	14.2
548.846	14.18
549.043	14.21
549.24	13.16
549.437	13.3
549.633	13.27
549.83	13.39
550.027	13.32
550.224	13.66
550.421	13.9
550.618	14.81
550.814	14.72
551.011	14.8
551.208	14.71
551.405	15.64
551.601	14.95
551.798	15.64
551.995	16.16
552.191	16.45
552.388	16.17
552.585	15.61
552.781	15.92
552.978	15.71
553.175	15.49
553.371	15.88
553.568	15.12
553.764	15.33
553.961	15.08
554.157	14.87
554.354	14.7
554.55	15.69
554.747	16.47
554.943	15.46
555.14	15.57
555.336	16.93
555.533	16.37
555.729	16.87
555.926	17.09
556.122	17.03
556.318	16.96
556.515	17.01
556.711	17.06
556.907	17.06
557.104	17.78
557.3	18.26
557.496	16.62
557.693	17.25
557.889	17.43
558.085	17.95
558.281	17.91
558.478	18.31
558.674	18.3
558.87	18.3
559.066	17.75
559.262	17.17
559.459	17.12
559.655	17.56
559.851	16.86
560.047	16.94
560.243	16.67
560.439	17.31
560.635	17.3
560.831	18.35
561.027	17.63
561.223	17.78
561.419	18.68
561.615	18.57
561.811	18.84
562.007	18.92
562.203	18.18
562.399	18.81
562.595	18.78
562.791	18.73
562.987	17.34
563.183	17.85
563.379	18.16
563.575	17.73
563.771	17.89
563.966	17.47
564.162	17.62
564.358	17.56
564.554	17.46
564.75	17.06
564.945	16.95
565.141	17.58
565.337	17.53
565.533	17.53
565.728	17.69
565.924	16.84
566.12	17.44
566.315	17.23
566.511	17.54
566.707	17.44
566.902	17.93
567.098	17.45
567.293	16.9
567.489	16.72
567.684	16.34
567.88	16.04
568.076	16.26
568.271	16.27
568.467	17.19
568.662	16.7
568.858	16.43
569.053	16.23
569.248	17.16
569.444	17.69
569.639	17.93
569.835	17.61
570.03	17.69
570.225	17.78
570.421	17.89
570.616	17.25
570.812	17.56
571.007	17.68
571.202	17.72
571.397	17.42
571.593	17.5
571.788	17.94
571.983	18.42
572.178	18.59
572.374	18.87
572.569	18.87
572.764	18.81
572.959	18.43
573.154	18.51
573.35	18.68
573.545	18.64
573.74	18.15
573.935	17.71
574.13	17.79
574.325	17.93
574.52	18.56
574.715	18.64
574.91	18.96
575.105	19.76
575.3	19.81
575.495	19.39
575.69	19.72
575.885	19.92
576.08	19.86
576.275	19.65
576.47	19.86
576.665	19.51
576.86	19.51
577.055	19.67
577.25	19.05
577.444	19.05
577.639	19.76
577.834	19.31
578.029	19.02
578.224	18.82
578.418	19.45
578.613	18.58
578.808	18.67
579.003	18.17
579.197	18.3
579.392	18.88
579.587	19
579.781	18.21
579.976	18.57
580.171	18.48
580.365	18.7
580.56	18.24
580.755	18.56
580.949	18.65
581.144	18.73
581.338	18.54
581.533	19.04
581.727	19.55
581.922	19.97
582.116	20.07
582.311	20.51
582.505	20.99
582.7	21.08
582.894	21.68
583.089	21.29
583.283	21.03
583.478	20.48
583.672	20.34
583.866	19.59
584.061	19.79
584.255	20.15
584.449	20.79
584.644	20.34
584.838	19.9
585.032	19.28
585.226	19.67
585.421	20.01
585.615	20.42
585.809	20.24
586.003	20.62
586.198	20.52
586.392	19.78
586.586	18.48
586.78	19.1
586.974	19.5
587.168	20.24
587.363	19.66
587.557	19.59
587.751	19.73
587.945	19.13
588.139	18.92
588.333	18.43
588.527	18.87
588.721	19.42
588.915	19.32
589.109	20.08
589.303	20.23
589.497	20.18
589.691	21.24
589.885	20.86
590.079	21.39
590.273	21.61
590.466	22.25
590.66	21.36
590.854	21.96
591.048	21.34
591.242	20.92
591.436	20.21
591.629	20.5
591.823	19.16
592.017	20.34
592.211	20.33
592.404	20.11
592.598	19.34
592.792	20.01
592.986	20.05
593.179	20.88
593.373	20.88
593.567	21.11
593.76	21.39
593.954	21.5
594.147	20.54
594.341	21.06
594.535	21.76
594.728	22.07
594.922	22.12
595.115	21.79
595.309	20.53
595.502	20.04
595.696	20.22
595.889	20.38
596.083	20.72
596.276	20.77
596.47	20.87
596.663	20.54
596.856	20.62
597.05	21.04
597.243	20.66
597.437	22.08
597.63	22.56
597.823	22.69
598.017	23.02
598.21	23.61
598.403	24.29
598.596	23.12
598.79	22.94
598.983	23.36
599.176	21.76
599.369	22.47
599.563	21.44
599.756	21.22
599.949	20.73
600.142	19.96
600.335	18.98
600.528	18.32
600.722	19.04
600.915	18.62
601.108	17.74
601.301	18.84
601.494	19.09
601.687	19.53
601.88	19.55
602.073	19.54
602.266	19.66
602.459	19.4
602.652	19.71
602.845	19.56
603.038	20.42
603.231	20.89
603.424	21.09
603.617	20.78
603.809	20.74
604.002	20.55
604.195	20.48
604.388	20.92
604.581	21.82
604.774	22.29
604.966	22.5
605.159	22.06
605.352	21.92
605.545	21.76
605.737	22.01
605.93	21.48
606.123	22.35
606.316	22.88
606.508	22.41
606.701	22.11
606.894	22.2
607.086	22.15
607.279	21.77
607.471	22.43
607.664	22.41
607.857	22.87
608.049	23.7
608.242	23.32
608.434	23.59
608.627	23.65
608.819	23.87
609.012	23.83
609.204	23.37
609.397	23.72
609.589	23.7
609.782	23.15
609.974	22.73
610.166	22.06
610.359	22.51
610.551	22.4
610.743	22.16
610.936	22.4
611.128	21.98
611.32	22.53
611.513	22.01
611.705	21.32
611.897	21.87
612.09	21.56
612.282	22.69
612.474	22.88
612.666	22.67
612.858	23.45
613.051	23.06
613.243	22.78
613.435	22.73
613.627	23.16
613.819	23.48
614.011	23.77
614.203	24.15
614.395	23.84
614.588	22.48
614.78	22.68
614.972	21.26
615.164	21.63
615.356	21.57
615.548	21.4
615.74	21.45
615.932	22.17
616.124	22.09
616.315	20.93
616.507	21.45
616.699	21
616.891	21.27
617.083	22.97
617.275	22.41
617.467	22.68
617.659	22.86
617.85	23.41
618.042	23.12
618.234	23.39
618.426	25.01
618.618	24.38
618.809	24.49
619.001	24.41
619.193	24.02
619.384	23.63
619.576	23.5
619.768	23.44
619.959	22.7
620.151	22.14
620.343	21.96
620.534	21.28
620.726	20.91
620.917	21.77
621.109	21.45
621.301	21.81
621.492	23.29
621.684	24.18
621.875	24.6
622.067	25.03
622.258	24.8
622.45	25.04
622.641	25.22
622.832	25.36
623.024	25.67
623.215	24.64
623.407	24.19
623.598	23.31
623.789	22.69
623.981	22.3
624.172	22.04
624.363	22.71
624.555	22.82
624.746	22.17
624.937	22.28
625.129	21.87
625.32	22.57
625.511	21.87
625.702	21.68
625.893	21.49
626.085	21.68
626.276	21.23
626.467	21.21
626.658	20.76
626.849	21.04
627.04	20.84
627.231	21.43
627.422	22.33
627.614	23.09
627.805	22.97
627.996	22.92
628.187	22.3
628.378	23.03
628.569	23.31
628.76	23.84
628.951	23.87
629.142	24.09
629.332	23.76
629.523	23.05
629.714	23.08
629.905	23.85
630.096	24.15
630.287	24.63
630.478	24.85
630.669	24.28
630.859	24.12
631.05	24.21
631.241	23.7
631.432	24.07
631.623	24.59
631.813	24.45
632.004	24.78
632.195	24.38
632.385	23.91
632.576	23.67
632.767	24.33
632.957	23.39
633.148	23.79
633.339	24.4
633.529	23.62
633.72	22.59
633.91	22.91
634.101	22.37
634.292	22.31
634.482	23.16
634.673	23.38
634.863	22.97
635.054	24.57
635.244	24.27
635.435	24.28
635.625	24.55
635.815	24.82
636.006	24.43
636.196	23.99
636.387	24.13
636.577	24.43
636.767	25.28
636.958	25.31
637.148	23.58
637.338	23.45
637.529	22.98
637.719	23.21
637.909	24.16
638.099	23.35
638.29	22.84
638.48	23.01
638.67	21.64
638.86	20.7
639.05	20.2
639.241	21.02
639.431	21.24
639.621	21.03
639.811	21.31
640.001	20.49
640.191	22.64
640.381	24.67
640.571	23.72
640.761	25.65
640.951	26.06
641.141	27.09
641.331	28.36
641.521	27.98
641.711	28.06
641.901	27.1
642.091	27.23
642.281	26.13
642.471	24.55
642.661	25.5
642.851	26.02
643.041	24.96
643.231	25.33
643.42	23.96
643.61	25.11
643.8	25.03
643.99	25.34
644.18	24.64
644.369	23.62
644.559	24.47
644.749	23.42
644.939	21.75
645.128	22.55
645.318	21.86
645.508	21.62
645.697	21.17
645.887	20.82
646.076	21.27
646.266	21.96
646.456	23.08
646.645	23.73
646.835	25.75
647.024	25.71
647.214	26.03
647.403	25.96
647.593	26.74
647.782	26.45
647.972	28.37
648.161	28.15
648.351	27.97
648.54	27.97
648.73	27.19
648.919	24.92
649.108	24.83
649.298	24.8
649.487	23.99
649.677	23.97
649.866	24.33
650.055	22.93
650.244	23.16
650.434	23.51
650.623	23.07
650.812	23.5
651.002	25.78
651.191	25.77
651.38	24.97
651.569	25.66
651.758	26.63
651.947	25.93
652.137	25.9
652.326	26.25
652.515	27.3
652.704	28.35
652.893	28.09
653.082	26.66
653.271	27.27
653.46	28.28
653.649	27.79
653.838	27.34
654.027	27.47
654.216	26.84
654.405	26.68
654.594	25.85
654.783	24.83
654.972	24.49
655.161	25.73
655.35	24.83
655.539	24.11
655.728	24.28
655.916	21.98
656.105	22.07
656.294	22.98
656.483	22.01
656.672	21.68
656.86	21.6
657.049	22.36
657.238	22.22
657.427	22.81
657.615	23.22
657.804	23.52
657.993	25.14
658.181	25.34
658.37	25.01
658.559	25.94
658.747	25.36
658.936	25.69
659.125	24.87
659.313	25.15
659.502	25.14
659.69	24.5
659.879	24.55
660.067	23.93
660.256	23.61
660.444	24.62
660.633	24.48
660.821	25.34
661.01	25.93
661.198	26.76
661.387	26.66
661.575	26.77
661.763	26.84
661.952	25.23
662.14	25.93
662.328	27.69
662.517	28.01
662.705	27.88
662.893	27.78
663.082	27.58
663.27	27.78
663.458	27.43
663.646	26.61
663.834	27.84
664.023	29.5
664.211	30.36
664.399	29.22
664.587	27.57
664.775	28.36
664.963	28.97
665.152	28.07
665.34	28.05
665.528	27.26
665.716	28.04
665.904	27.12
666.092	27.07
666.28	25.85
666.468	25.61
666.656	25.83
666.844	25.72
667.032	24.42
667.22	24.77
667.408	24.5
667.596	25.47
667.784	25.07
667.971	25.2
668.159	24.32
668.347	25.35
668.535	26.1
668.723	26.71
668.911	26.67
669.098	26.71
669.286	26.42
669.474	27.01
669.662	27.13
669.849	26.8
670.037	25.97
670.225	26.26
670.413	26.27
670.6	26.05
670.788	25.1
670.976	22.82
671.163	24.84
671.351	23.93
671.538	22.8
671.726	21.49
671.913	21.55
672.101	22.32
672.289	23.42
672.476	20.79
672.664	20.66
672.851	21.73
673.039	22.51
673.226	22.34
673.413	24.01
673.601	24.89
673.788	24.94
673.976	25.6
674.163	25.87
674.35	26.67
674.538	28.03
674.725	28.52
674.912	27.89
675.1	29.12
675.287	27.48
675.474	26.75
675.662	26.69
675.849	27.44
676.036	27.74
676.223	27.71
676.411	26.23
676.598	26.27
676.785	25.2
676.972	24.58
677.159	23.49
677.346	23.13
677.533	23.68
677.721	23.12
677.908	21.97
678.095	21.8
678.282	21.17
678.469	21.79
678.656	21.11
678.843	21.75
679.03	22.08
679.217	22.55
679.404	22.83
679.591	23.03
679.778	24.31
679.964	24.8
680.151	24.86
680.338	25.76
680.525	25.98
680.712	28
680.899	27.31
681.086	28.7
681.272	28.79
681.459	28.02
681.646	28.16
681.833	27.65
682.02	28.65
682.206	30.4
682.393	30.22
682.58	31.04
682.766	29.6
682.953	30.19
683.14	28.81
683.326	28.98
683.513	30.07
683.7	29.41
683.886	28.23
684.073	25.71
684.259	23.14
684.446	21.75
684.632	21.84
684.819	22.95
685.005	22.17
685.192	22.54
685.378	22.06
685.565	21.86
685.751	22.37
685.938	22.93
686.124	25.27
686.31	25.53
686.497	26.89
686.683	26.24
686.87	25.09
687.056	24.88
687.242	25.45
687.429	24.23
687.615	24.84
687.801	25.08
687.987	25.02
688.174	24.73
688.36	27.12
688.546	27
688.732	26.96
688.918	26.22
689.105	26.07
689.291	24.42
689.477	25
689.663	26.4
689.849	27.13
690.035	25.34
690.221	25.97
690.407	24.52
690.593	25.05
690.779	23.41
690.965	24.97
691.151	26.36
691.337	27.41
691.523	27.98
691.709	25.61
691.895	25.78
692.081	28.38
692.267	27.17
692.453	29.39
692.639	29.64
692.825	29.37
693.011	28.79
693.196	27.36
693.382	28.28
693.568	28.88
693.754	30.9
693.94	29.61
694.125	28.63
694.311	29.24
694.497	26.4
694.682	25.35
694.868	26.61
695.054	26.7
695.239	25.55
695.425	25
695.611	24.08
695.796	22.69
695.982	22.68
696.168	21.3
696.353	21.28
696.539	23.08
696.724	23.33
696.91	22.11
697.095	22.4
697.281	23.83
697.466	23.4
697.652	24.26
697.837	24.59
698.023	24.74
698.208	25.64
698.393	26.33
698.579	24.82
698.764	24.84
698.949	26.31
699.135	26.39
699.32	26.96
699.505	26.49
699.691	26.46
699.876	27.68
700.061	27.15
700.246	28.77
700.432	28.68
700.617	28.02
700.802	28.1
700.987	28.14
701.172	27.96
701.358	26.87
701.543	27.56
701.728	27.03
701.913	27.79
702.098	29.14
702.283	28.67
702.468	27.46
702.653	31.32
702.838	28.86
703.023	28.26
703.208	28.77
703.393	29.09
703.578	28.65
703.763	27.12
703.948	26.13
704.133	26.76
704.318	28.78
704.503	28.2
704.688	27.33
704.873	30.12
705.057	29.92
705.242	27.98
705.427	30.44
705.612	31.13
705.797	32.73
705.981	30.51
706.166	29.9
706.351	28.45
706.536	30.13
706.72	28.39
706.905	28.98
707.09	29.12
707.274	30.31
707.459	29.18
707.644	29.51
707.828	29.9
708.013	33.12
708.197	34.79
708.382	34.17
708.567	33.46
708.751	34.14
708.936	34.34
709.12	33.19
709.305	33.85
709.489	33.73
709.673	34.27
709.858	34.11
710.042	34.56
710.227	33.17
710.411	31.43
710.596	30.98
710.78	31.33
710.964	29.67
711.149	30.17
711.333	29.74
711.517	29.61
711.702	29.06
711.886	30.75
712.07	29.03
712.254	29.62
712.438	32.43
712.623	30.61
712.807	28.81
712.991	29.25
713.175	29.87
713.359	30.62
713.544	30.18
713.728	30.4
713.912	28.71
714.096	28.1
714.28	26.69
714.464	25.59
714.648	28.47
714.832	30.92
715.016	31.35
715.2	31.52
715.384	29.52
715.568	30.99
715.752	32.13
715.936	30.96
716.12	31.25
716.304	32.52
716.488	33.34
716.671	31.8
716.855	31.76
717.039	31.04
717.223	30.25
717.407	31.97
717.59	30.91
717.774	28.93
717.958	32.5
718.142	32.22
718.325	30.03
718.509	27.51
718.693	29.34
718.877	27.92
719.06	28.35
719.244	27.18
719.428	26.18
719.611	25.18
719.795	27.14
719.978	25.61
720.162	25.37
720.345	26.12
720.529	28.87
720.713	27.03
720.896	25.63
721.08	26.93
721.263	25.92
721.446	26.08
721.63	22.69
721.813	20.69
721.997	18.98
722.18	20.43
722.364	20.91
722.547	20.3
722.73	20.65
722.914	23.33
723.097	23.37
723.28	25.93
723.464	26.55
723.647	27.79
723.83	28
724.013	29.07
724.197	28.12
724.38	27.22
724.563	24.56
724.746	26.31
724.929	25.11
725.112	23.22
725.296	23.39
725.479	23.04
725.662	23.34
725.845	27.31
726.028	24.7
726.211	23.25
726.394	24.35
726.577	26.77
726.76	26.7
726.943	25.27
727.126	23.24
727.309	22.96
727.492	23.18
727.675	25.71
727.858	22.55
728.041	26.34
728.224	24.88
728.407	22.97
728.589	21.56
728.772	20.82
728.955	21.79
729.138	23.63
729.321	21.88
729.503	21.05
729.686	21.73
729.869	20.39
730.052	19.43
730.234	22.61
730.417	23.58
730.6	21.41
730.782	20.07
730.965	19.61
731.148	19.89
731.33	21.78
731.513	22.28
731.695	22.4
731.878	23.73
732.061	23.52
732.243	23.93
732.426	24.62
732.608	28.29
732.791	30.14
732.973	30.66
733.156	29.62
733.338	28.57
733.52	29.78
733.703	28.84
733.885	30.08
734.068	29.48
734.25	28.68
734.432	29.34
734.615	28.12
734.797	30.13
734.979	30.97
735.162	35.4
735.344	37.81
735.526	39.11
735.708	40.65
735.891	41.18
736.073	41.26
736.255	40.87
736.437	39.17
736.619	40.06
736.802	37.33
736.984	36.79
737.166	35.26
737.348	34.36
737.53	32.19
737.712	29.17
737.894	25.43
738.076	25.72
738.258	25.52
738.44	27.4
738.622	25.07
738.804	26.01
738.986	26.12
739.168	25.7
739.35	26.79
739.532	26.78
739.714	27.36
739.896	29.88
740.078	31.41
740.259	31.8
740.441	32.21
740.623	33.57
740.805	35.19
740.987	36.39
741.168	35.41
741.35	37.73
741.532	38.87
741.714	39.96
741.895	37.3
742.077	35.92
742.259	35.5
742.44	40.25
742.622	42.24
742.804	38.95
742.985	39.47
743.167	43.13
743.348	42.52
743.53	41.45
743.711	43.62
743.893	48.43
744.075	46.43
744.256	49.21
744.438	43.92
744.619	44.31
744.8	43.76
744.982	45.2
745.163	44.85
745.345	41.69
745.526	45.86
745.707	45.67
745.889	41.69
746.07	45.67
746.252	42.9
746.433	41.05
746.614	40.76
746.795	44.75
746.977	43.29
747.158	40.3
747.339	42.26
747.52	38.78
747.702	41.38
747.883	41.86
748.064	39.29
748.245	41.28
748.426	46.83
748.607	43.69
748.788	42.06
748.97	41.09
749.151	40.57
749.332	39.21
749.513	41.7
749.694	39.98
749.875	37.3
750.056	37.56
750.237	33.84
750.418	29.56
750.599	32.83
750.78	33.09
750.96	33.48
751.141	32.52
751.322	29.78
751.503	29.44
751.684	24.51
751.865	27.52
752.046	29.15
752.226	31.18
752.407	33.67
752.588	34.43
752.769	35.01
752.949	36.12
753.13	37.34
753.311	38.94
753.492	35.87
753.672	39.62
753.853	39.96
754.034	39.16
754.214	39.94
754.395	38.33
754.575	37.5
754.756	40.75
754.937	44.2
755.117	46.35
755.298	47.07
755.478	44.92
755.659	43.94
755.839	42.04
756.02	41.66
756.2	41.21
756.381	42.05
756.561	44.7
756.741	42.84
756.922	41.22
757.102	38.25
757.283	38.08
757.463	41.94
757.643	39.36
757.823	43.03
758.004	42.78
758.184	43.94
758.364	41.94
758.545	39.77
758.725	40.57
758.905	36.04
759.085	34
759.265	34.81
759.446	31.62
759.626	31.82
759.806	25.44
759.986	23.96
760.166	21.76
760.346	23.94
760.526	19.2
760.706	17.12
760.886	22.11
761.066	25.71
761.246	24.11
761.426	26.04
761.606	28.45
761.786	30.93
761.966	31.28
762.146	31.25
762.326	29.7
762.506	29.95
762.686	28.04
762.866	25.89
763.046	25.12
763.225	25.62
763.405	25.4
763.585	25.08
763.765	23.66
763.945	23.8
764.124	25.01
764.304	26.51
764.484	27.84
764.664	32.76
764.843	31.83
765.023	37.33
765.203	41.28
765.382	42.58
765.562	42.23
765.741	48.35
765.921	51.01
766.101	51.67
766.28	54.14
766.46	52.47
766.639	52.13
766.819	50.55
766.998	46.97
767.178	43.8
767.357	39.15
767.537	38.13
767.716	35.11
767.896	33
768.075	30.22
768.254	30.58
768.434	33.18
768.613	30.55
768.792	37.4
768.972	38.48
769.151	41.03
769.33	50.38
769.51	51.73
769.689	56.02
769.868	56.09
770.047	56.07
770.226	59.75
770.406	62.64
770.585	66.48
770.764	65.46
770.943	63.62
771.122	62.73
771.301	61.6
771.48	65.61
771.66	57.99
771.839	60.8
772.018	59.99
772.197	52.68
772.376	48.73
772.555	46.68
772.734	42.16
772.913	40.47
773.092	37.53
773.271	38.16
773.449	33.36
773.628	37.83
773.807	34.57
773.986	40.45
774.165	41.91
774.344	44.27
774.523	41.93
774.701	41.87
774.88	37.13
775.059	40.84
775.238	37.08
775.417	40.03
775.595	42.05
775.774	44.4
775.953	40.58
776.131	46.66
776.31	48.23
776.489	53.58
776.667	55.52
776.846	57.7
777.025	59.53
777.203	57.1
777.382	55.2
777.56	55.19
777.739	55.68
777.917	55.71
778.096	50.26
778.274	48.6
778.453	42.79
778.631	40.63
778.81	39.36
778.988	35.19
779.166	36.45
779.345	33.15
779.523	33.58
779.702	31.13
779.88	33.53
780.058	32.46
780.237	32.51
780.415	38.65
780.593	41.46
780.771	45.15
780.95	42.56
781.128	43.18
781.306	49.27
781.484	52.12
781.662	58.81
781.841	58.33
782.019	59.32
782.197	61.61
782.375	60.06
782.553	60.06
782.731	56.66
782.909	62.71
783.087	51.93
783.265	50.31
783.443	46.34
783.621	39.59
783.799	33.93
783.977	33.27
784.155	39.92
784.333	45.44
784.511	46.25
784.689	44.86
784.867	48.33
785.045	54.66
785.223	46.04
785.4	45.91
785.578	52.2
785.756	64.13
785.934	65.95
786.112	60.41
786.289	53.63
786.467	53.95
786.645	57.87
786.823	56.13
787	53.42
787.178	58.61
787.356	58.49
787.533	51.41
787.711	44.31
787.889	37.88
788.066	38.98
788.244	41.18
788.421	42.46
788.599	37.75
788.776	31.08
788.954	39.99
789.131	36.97
789.309	41.17
789.486	47.6
789.664	49.04
789.841	51.13
790.019	50.27
790.196	53.49
790.373	50.98
790.551	59.96
790.728	64.71
790.906	48.38
791.083	70.89
791.26	50.77
791.437	47.38
791.615	45.8
791.792	52.12
791.969	55.65
792.146	46.55
792.324	41.6
792.501	36.65
792.678	45.4
792.855	45.05
793.032	30.46
793.209	39.81
793.387	35.76
793.564	36.49
793.741	37.29
793.918	38.69
794.095	46.46
794.272	46.61
794.449	45.89
794.626	46.34
794.803	54.06
794.98	56.78
795.157	58.21
795.334	61.57
795.511	58.59
795.688	62.81
795.864	59.32
796.041	54.5
796.218	53.9
796.395	52.02
796.572	46.63
796.749	29.41
796.925	34.07
797.102	28.6
797.279	25.41
797.456	24.6
797.632	16.21
797.809	6.52
797.986	10.59
798.162	11.99
798.339	13.5
798.516	11.33
798.692	25.07
798.869	15.54
799.046	24.99
799.222	30.58
799.399	37.46
799.575	41.36
799.752	51.92
799.928	56.37
800.105	53.21
800.281	52.73
800.458	52.33
800.634	53.79
800.811	51.59
800.987	39.16
801.163	39.8
801.34	35.81
801.516	33.38
801.692	24.42
801.869	22.29
802.045	29.07
802.221	27.04
802.398	25.53
802.574	33.28
802.75	38.64
802.926	37.19
803.103	32.79
803.279	29.26
803.455	29.24
803.631	28.79
803.807	22.88
803.983	20.48
804.16	22.03
804.336	18.5
804.512	10.61
804.688	3.29
804.864	15.1
805.04	19.75
805.216	27.65
805.392	22.21
805.568	31.4
805.744	37.86
805.92	33.86
806.096	27.87
806.272	39.64
806.448	33.7
806.623	28.15
806.799	25.03
806.975	24.24
807.151	16.59
807.327	28.63
807.503	29.21
807.678	37.04
807.854	25.16
808.03	31.74
808.206	26.94
808.381	29.05
808.557	44.53
808.733	39.73
808.908	43.89
809.084	48.87
809.26	36.22
809.435	33.72
809.611	8.53
809.787	29.36
809.962	34.83
810.138	14.39
810.313	0.66
810.489	-17.03
810.664	2.07
810.84	-7.23
811.015	9.85
811.191	8.92
811.366	-10.38
811.542	14.74
811.717	19.45
811.892	-4.47
812.068	18.22
812.243	23.09
812.419	46.83
812.594	26.4
812.769	7.57
812.944	8.16
813.12	17.65
813.295	33.59
813.47	12.79
813.645	-8.97
813.821	10.23
813.996	9.42
814.171	20.94
814.346	26.68
814.521	24.31
814.697	27.51
814.872	9.4
815.047	10.89
815.222	-12.14
815.397	-5.11
815.572	0
815.747	-20.84
815.922	-16.64
816.097	-15.84
816.272	-17.94
816.447	-13.8
816.622	3.43
816.797	8.41
816.972	2.51
817.147	17.94
817.322	21.08
817.496	21.82
817.671	30.08
817.846	28.36
818.021	31.55
818.196	32.33
818.371	43.84
818.545	29.31
818.72	25.66
818.895	27.16
819.069	21.68
819.244	15.32
819.419	17.3
819.594	14.06
819.768	16.67
819.943	10.91
820.117	12.88
820.292	10.31
820.467	12.99
820.641	14.15
820.816	14.13
820.99	13.31
821.165	15.81
821.339	16.52
821.514	18.28
821.688	16.29
821.863	18.64
822.037	17.66
822.212	17.98
822.386	19.95
822.56	20.25
822.735	20.84
822.909	21.95
823.084	20.28
823.258	20.55
823.432	20.03
823.606	24.96
823.781	22.13
823.955	23.02
824.129	22.17
824.303	20.95
824.478	22.55
824.652	22.41
824.826	24.77
825	27.43
825.174	24.88
825.348	22.27
825.523	22.95
825.697	25.87
825.871	22.98
826.045	23.7
826.219	22.35
826.393	21.55
826.567	23.92
826.741	23.62
826.915	19.98
827.089	19.54
827.263	19.43
827.437	17.6
827.611	17.02
827.784	23.57
827.958	24.91
828.132	30.61
828.306	25.34
828.48	21.82
828.654	24.28
828.827	22.53
829.001	30.05
829.175	35.02
829.349	27.77
829.522	35.1
829.696	32.74
829.87	38.83
830.044	11
830.217	24.22
830.391	29.63
830.565	22.97
830.738	32.6
830.912	24.14
831.085	23.57
831.259	22.75
831.432	13.13
831.606	16.24
831.779	5.14
831.953	21.42
832.126	29
832.3	26.51
832.473	28.39
832.647	24.83
832.82	24.73
832.994	26.01
833.167	28.32
833.34	26.19
833.514	23.54
833.687	31.38
833.86	32.38
834.034	27.59
834.207	33.41
834.38	35.82
834.553	44.24
834.727	51.68
834.9	56.07
835.073	66.55
835.246	66.99
835.419	72.58
835.593	65.94
835.766	85.27
835.939	79.93
836.112	69.53
836.285	47.94
836.458	32.84
836.631	10.88
836.804	15.5
836.977	-14.2
837.15	2.84
837.323	-18.55
837.496	-11.18
837.669	-33.4
837.842	5.27
838.015	10.89
838.188	16.86
838.361	12.37
838.533	4.57
838.706	7.74
838.879	13.37
839.052	8.22
839.225	24.33
839.398	21.1
839.57	15.92
839.743	23.65
839.916	14.56
840.088	19.65
840.261	27.87
840.434	29.7
840.607	23.52
840.779	22.23
840.952	29.91
841.124	23.04
841.297	58.85
841.47	58.56
841.642	71.52
841.815	119.05
841.987	86
842.16	93.25
842.332	80.45
842.505	73.42
842.677	65.04
842.85	27.33
843.022	37.82
843.194	-44.24
843.367	-11.63
843.539	-37.52
843.712	-35.75
843.884	-10.3
844.056	-5.78
844.229	-0.2
844.401	8.59
844.573	9.84
844.745	17.19
844.918	-25.1
845.09	70.45
845.262	64.56
845.434	90.21
845.606	74.11
845.779	-147.73
845.951	650
846.123	579.41
846.295	-342.86
846.467	215.79
846.639	-152.17
846.811	201.14
846.983	16.92
847.155	11.25
847.327	56.6
847.499	77.57
847.671	111.73
847.843	155
848.015	267.15
848.187	211.84
848.359	131.96
848.531	175.43
848.703	194.5
848.875	349.04
849.047	1070
849.218	2725
849.39	-269.14
849.562	2780
849.734	-550
849.905	2028.57
850.077	-90.54
850.249	40
850.421	58.73
850.592	26.83
850.764	-18.47
850.936	5.05
851.107	-32.47
851.279	51.2
851.451	25.09
851.622	6.15
851.794	13.71
851.965	50.31
852.137	80.12
852.308	477.78
852.48	39.81
852.651	34.55
852.823	33.33
852.994	603.7
853.166	-4125
853.337	788.89
853.509	-102.51
853.68	-7900
853.851	-421.11
854.023	-305.59
854.194	-324.58
854.365	-79.25
854.537	-34.78
854.708	-39.46
854.879	-18.57
855.05	66.39
855.222	51.22
855.393	84.62
855.564	104.11
855.735	132.13
855.906	180.47
856.078	167.11
856.249	71.83
856.42	53.42
856.591	80.47
856.762	-1152.63
856.933	-92.31
857.104	97.33
857.275	2000
857.446	84.62
857.617	-1316.67
857.788	9800
857.959	77.14
858.13	285.71
858.301	166.28
858.472	125.56
858.643	64.49
858.814	43.65
858.985	88.38
859.155	4.17
859.326	-164.36
859.497	-72.1
859.668	-126.46
859.839	-159.82
860.009	-131.55
860.18	-113.45
860.351	-35.57
860.522	-5.22
860.692	-7.25
860.863	-36.89
861.034	-23.98
861.204	25.82
861.375	-137.98
861.546	-41.34
861.716	4.42
861.887	48.33
862.057	244.12
862.228	54.76
862.398	19.79
862.569	-147.06
862.739	-45.45
862.91	126.09
863.08	-1585.71
863.251	33.33
863.421	116
863.592	2175
863.762	168.83
863.932	34.15
864.103	-82.22
864.273	38.95
864.443	92.86
864.614	138.51
864.784	172.04
864.954	138.44
865.125	107.04
865.295	111.55
865.465	141
865.635	77.96
865.805	16.48
865.976	24.27
866.146	34.2
866.316	20.6
866.486	25.33
866.656	16.17
866.826	23.21
866.996	37.72
867.166	21.99
867.336	7.63
867.506	24.7
867.676	51.81
867.846	43.48
868.016	37.03
868.186	78.78
868.356	193.98
868.526	101.01
868.696	-94.12
868.866	46.27
869.036	-603.7
869.206	302.7
869.376	-500
869.545	432
869.715	1366.67
869.885	-457.35
870.055	-176.07
870.224	127.16
870.394	123.27
870.564	131.01
870.734	200
870.903	104.63
871.073	252.11
871.243	197.31
871.412	185.78
871.582	335.87
871.751	-1140.91
871.921	-118.99
872.091	-6.72
872.26	-40.04
872.43	-44.73
872.599	-45.82
872.769	-37.96
872.938	-7.52
873.108	11.48
873.277	-47.58
873.446	484.62
873.616	33.33
873.785	83.66
873.955	74.36
874.124	54.96
874.293	123.2
874.463	732.43
874.632	-86.96
874.801	-81.82
874.971	18.79
875.14	20
875.309	56.97
875.478	108.79
875.647	100.74
875.817	130.08
875.986	172.22
876.155	-43400
876.324	-385.61
876.493	-191.51
876.662	-180.27
876.831	-24.35
877	-34.91
877.17	15.77
877.339	61.88
877.508	19.46
877.677	0
877.846	266.67
878.015	20
878.184	121.19
878.352	716.67
878.521	-319.12
878.69	-84.94
878.859	-60.97
879.028	-38.93
879.197	-22.98
879.366	-4.43
879.534	7.05
879.703	10.42
879.872	0.72
880.041	15.89
880.21	18.05
880.378	21.2
880.547	16.36
880.716	16.28
880.884	14.5
881.053	8.52
881.222	7.73
881.39	4.18
881.559	11.96
881.727	9.06
881.896	2.61
882.065	-1.58
882.233	-1.86
882.402	-4.71
882.57	-11.37
882.739	-8.15
882.907	-14.21
883.076	-21.95
883.244	-22.4
883.412	-50.78
883.581	-29.55
883.749	-31.47
883.918	-40.88
884.086	-29.4
884.254	-22.07
884.423	-1.29
884.591	13.43
884.759	29.33
884.927	61.42
885.096	65.01
885.264	90.08
885.432	98.01
885.6	98.46
885.769	76.78
885.937	70.45
886.105	58.54
886.273	41.3
886.441	27.17
886.609	24.55
886.777	-7.8
886.945	-0.14
887.113	2.08
887.281	6.38
887.449	25.48
887.617	14.39
887.785	9.77
887.953	-18.15
888.121	-47.09
888.289	-113.33
888.457	-455.77
888.625	-201.19
888.793	489.47
888.961	-140.63
889.129	-600
889.296	-115.63
889.464	71.15
889.632	29.23
889.8	108.33
889.967	80.19
890.135	97.03
