Data from JASIL_3238_Reflection_1.txt Node
Date: Mon Nov 16 20:22:20 EST 2015
User: Geneva
Spectrometer: USB4E03002
Autoset integration time: false
Trigger mode: 4
Integration Time (sec): 1.000000E-1
Scans to average: 10
Electric dark correction enabled: false
Nonlinearity correction enabled: false
Boxcar width: 5
Stray light correction enabled: false
XAxis mode: Wavelengths
Stop averaging: false
Number of Pixels in Spectrum: 3648
>>>>>Begin Spectral Data<<<<<
177.575	2320.59
177.794	4168.18
178.014	2485.61
178.233	2154.39
178.452	1482.14
178.672	2781.25
178.891	3457.69
179.11	2859.24
179.33	3175.71
179.549	1961.16
179.768	1998.27
179.987	1297.73
180.207	1004.5
180.426	1377.08
180.645	1585.86
180.864	1814.29
181.084	1164.02
181.303	1430.86
181.522	1674.1
181.741	1271.28
181.96	1067.61
182.179	1358.29
182.398	1837.73
182.618	7255.88
182.837	6040.74
183.056	5470.79
183.275	3128.12
183.494	6692
183.713	2719.35
183.932	1573.31
184.151	2356.13
184.37	2597.94
184.589	2256.62
184.808	2350.48
185.027	1445.85
185.246	1211.35
185.465	1242.26
185.684	2373.27
185.903	1599.07
186.122	1814.03
186.341	7482.81
186.56	3252.67
186.779	-6090.91
186.998	-4813.13
187.216	-2749.42
187.435	-11592.68
187.654	-6184
187.873	-8514.29
188.092	-12841.67
188.311	-45730
188.53	-4535.71
188.748	6437.84
188.967	-7532.79
189.186	6117.11
189.405	2741.76
189.623	2222.49
189.842	4348.57
190.061	6628.99
190.28	2737.35
190.498	3451.56
190.717	6364.71
190.936	4539.6
191.154	10211.63
191.373	5777.22
191.592	5092.22
191.81	6118.92
192.029	4936.96
192.248	-10910.26
192.466	-12579.41
192.685	-1791.7
192.904	-2674.51
193.122	-1952.09
193.341	-4545.56
193.559	-2696.1
193.778	-3665.79
193.996	8079.25
194.215	-8997.83
194.433	-2192.19
194.652	-2129.47
194.87	-2170.79
195.089	-3976.58
195.307	-2366.32
195.526	-3080.95
195.744	-2107.76
195.963	-1680.29
196.181	-1287.08
196.399	-818.25
196.618	-696.93
196.836	-1506.84
197.055	-1491
197.273	-78216.67
197.491	-14475.76
197.71	3507.97
197.928	11437.5
198.146	7273.02
198.365	2987.01
198.583	1615.64
198.801	1200.27
199.019	785.34
199.238	1076.14
199.456	1023.08
199.674	1517.88
199.892	1321.43
200.111	1445.14
200.329	1118.6
200.547	1463.47
200.765	2346
200.983	16000
201.202	-4367.31
201.42	-3628.57
201.638	-7524.59
201.856	17796.15
202.074	4313.08
202.292	10069.57
202.51	-8155.17
202.728	8572.73
202.946	4400
203.165	2411.62
203.383	2350.96
203.601	1866.91
203.819	3376.35
204.037	6772.6
204.255	14364.71
204.473	-7801.61
204.691	-21504.55
204.909	-26611.76
205.127	-3818.33
205.345	11225.58
205.562	3339.86
205.78	1999.61
205.998	1528.84
206.216	1160.63
206.434	1376.84
206.652	1286.54
206.87	1527.81
207.088	1206.19
207.306	1779.59
207.523	2875.41
207.741	9001.75
207.959	31493.75
208.177	-13900
208.395	-2901.21
208.612	-4080.33
208.83	4265.22
209.048	4400
209.266	497100
209.483	-4593.2
209.701	23330
209.919	3615.08
210.136	1551.97
210.354	1078.77
210.572	824.43
210.79	678.88
211.007	655.97
211.225	814.97
211.442	823.05
211.66	630.8
211.878	683.97
212.095	658.91
212.313	665.69
212.53	885.71
212.748	1016.24
212.966	1316.55
213.183	1712.84
213.401	1535.61
213.618	1678.53
213.836	1441.13
214.053	1621.3
214.271	994.18
214.488	1002.52
214.705	1109.84
214.923	885.85
215.14	1661.99
215.358	1178.7
215.575	1574.48
215.793	1484.91
216.01	909.19
216.227	1038.68
216.445	1046.72
216.662	1405.23
216.879	1521.29
217.097	931.08
217.314	891.57
217.531	731.06
217.749	809.85
217.966	726.63
218.183	818.46
218.4	1801.52
218.618	1346.42
218.835	1195.69
219.052	1079.21
219.269	1194.22
219.487	3233.11
219.704	4700
219.921	2476
220.138	2272.4
220.355	1323.51
220.572	2397.22
220.79	1510.63
221.007	1709.09
221.224	1735
221.441	2864.32
221.658	2431.53
221.875	2164.61
222.092	3269.68
222.309	81233.33
222.526	5029.29
222.743	11500
222.96	2514.67
223.177	910.5
223.394	910.75
223.611	844.41
223.828	845.52
224.045	684.23
224.262	570.13
224.479	566.78
224.696	492.54
224.913	472.12
225.13	471.98
225.347	387.49
225.564	444.15
225.781	366.03
225.997	351.75
226.214	269.82
226.431	247.3
226.648	218.45
226.865	201.94
227.082	193.93
227.298	171.32
227.515	151.98
227.732	144.73
227.949	137.71
228.165	125.17
228.382	118.86
228.599	117.34
228.816	113.93
229.032	118.43
229.249	114.25
229.466	113.11
229.682	119.7
229.899	133.14
230.116	136.15
230.332	137.64
230.549	148.05
230.765	159.76
230.982	167.84
231.199	185.54
231.415	191.54
231.632	199.25
231.848	194.46
232.065	206.61
232.281	199.66
232.498	205.72
232.714	234.19
232.931	239.41
233.147	226.74
233.364	234.27
233.58	224.74
233.797	210.56
234.013	193.33
234.23	196.71
234.446	187.05
234.662	192.2
234.879	191.32
235.095	168.56
235.312	169.86
235.528	177.16
235.744	176.32
235.961	180.14
236.177	189.82
236.393	195.57
236.61	197.19
236.826	197.12
237.042	209.59
237.258	201.27
237.475	220.26
237.691	216.25
237.907	214.08
238.123	202.9
238.339	194.83
238.556	193.77
238.772	193.77
238.988	187.42
239.204	173.53
239.42	148.65
239.636	147.1
239.853	135.32
240.069	128.47
240.285	116
240.501	113.66
240.717	106.38
240.933	95.33
241.149	89.84
241.365	85.4
241.581	82.13
241.797	80.62
242.013	76.78
242.229	77.77
242.445	76.71
242.661	76.15
242.877	77.8
243.093	77.87
243.309	80.63
243.525	83.5
243.741	84.25
243.957	88.17
244.173	87.41
244.388	86.85
244.604	80.56
244.82	76.24
245.036	72.81
245.252	64.23
245.468	62.17
245.683	58.84
245.899	53.62
246.115	51.22
246.331	48.2
246.547	44.7
246.762	44.11
246.978	43.07
247.194	43.79
247.409	44.65
247.625	46.7
247.841	46.99
248.057	48.34
248.272	51.73
248.488	55.15
248.703	57.59
248.919	64.78
249.135	69.54
249.35	77.04
249.566	79.94
249.782	84.37
249.997	87.13
250.213	88.23
250.428	87.32
250.644	88.17
250.859	88.03
251.075	87.73
251.29	85.8
251.506	84.87
251.721	85.18
251.937	85.44
252.152	81.97
252.368	80.78
252.583	84.81
252.798	90.22
253.014	92.44
253.229	95.94
253.445	102.14
253.66	109.37
253.875	113.7
254.091	113.29
254.306	118.67
254.521	131.22
254.737	142.62
254.952	141.7
255.167	144.73
255.383	143.91
255.598	145.24
255.813	137.25
256.028	132.27
256.244	129.09
256.459	124.98
256.674	113.33
256.889	101.35
257.104	89.13
257.32	82.31
257.535	71.78
257.75	65.85
257.965	60.5
258.18	56.22
258.395	50.36
258.61	45.09
258.826	42.5
259.041	40.07
259.256	38
259.471	36.45
259.686	35.48
259.901	36.96
260.116	37.53
260.331	37.22
260.546	37.36
260.761	39.37
260.976	43.14
261.191	45.77
261.406	48.8
261.621	52.81
261.836	56.75
262.05	61.38
262.265	62.54
262.48	63.69
262.695	67.82
262.91	70.7
263.125	72
263.34	72.56
263.555	72.73
263.769	75.01
263.984	75.05
264.199	77.84
264.414	73.38
264.629	71.02
264.843	71.5
265.058	69.15
265.273	65.67
265.488	64.86
265.702	62.88
265.917	60.8
266.132	59.77
266.346	58.54
266.561	57.56
266.776	59.22
266.99	60.43
267.205	59.25
267.42	58.95
267.634	59.12
267.849	58.01
268.063	56.23
268.278	59.58
268.492	59.97
268.707	59.27
268.922	57.58
269.136	55.71
269.351	55.03
269.565	55.35
269.78	54.95
269.994	55.49
270.209	55.09
270.423	54.78
270.637	51.88
270.852	50.21
271.066	49.07
271.281	50.17
271.495	50.94
271.709	49.42
271.924	48.36
272.138	47.27
272.353	48.01
272.567	48.02
272.781	48.26
272.996	48.7
273.21	50.36
273.424	52.09
273.638	52.83
273.853	53.15
274.067	54.99
274.281	56.87
274.495	59.25
274.71	59
274.924	59.58
275.138	60.13
275.352	63.87
275.566	63.4
275.781	66.81
275.995	65.05
276.209	66.39
276.423	65.6
276.637	64.41
276.851	64.15
277.065	64.2
277.279	65.28
277.493	67.11
277.707	64.16
277.921	63.18
278.135	60.41
278.349	60.92
278.563	59.54
278.777	60.82
278.991	61.03
279.205	59.29
279.419	58.88
279.633	58.84
279.847	56.04
280.061	54.98
280.275	53.49
280.489	51.73
280.703	50.11
280.917	50.04
281.131	47.47
281.344	47.49
281.558	47.56
281.772	48.59
281.986	48.11
282.2	47.98
282.414	47.75
282.627	47.38
282.841	48.34
283.055	47.32
283.269	46.8
283.482	47.77
283.696	45.77
283.91	44.37
284.123	42.23
284.337	40.5
284.551	39.54
284.764	39.51
284.978	40.41
285.192	38.59
285.405	39.57
285.619	40.33
285.833	39.43
286.046	40.56
286.26	42.16
286.473	42.4
286.687	43.67
286.9	43.19
287.114	43.26
287.327	42.28
287.541	42.83
287.754	43.51
287.968	42.67
288.181	41.95
288.395	41.24
288.608	41.8
288.822	41.76
289.035	41.16
289.248	42.01
289.462	42.25
289.675	42.39
289.889	42.8
290.102	42.95
290.315	43.38
290.529	44.4
290.742	45.38
290.955	44.76
291.169	45.08
291.382	46.15
291.595	49.03
291.808	48.76
292.022	48.32
292.235	49.19
292.448	49.01
292.661	48.15
292.875	47.99
293.088	48.78
293.301	48.15
293.514	46.91
293.727	46.33
293.94	44.64
294.153	45.44
294.367	45.49
294.58	44.57
294.793	42.72
295.006	42.42
295.219	41.65
295.432	39.81
295.645	38.94
295.858	39.09
296.071	37.93
296.284	36.96
296.497	36.06
296.71	35.43
296.923	35.17
297.136	35.35
297.349	35.32
297.562	34.74
297.775	35.48
297.988	36.17
298.201	37.6
298.414	38.4
298.626	39
298.839	39.03
299.052	41.06
299.265	42.16
299.478	43.09
299.691	43.82
299.903	43.56
300.116	43.53
300.329	43.75
300.542	43.53
300.755	43.05
300.967	44.4
301.18	43.71
301.393	42.9
301.605	41.27
301.818	42
302.031	41.88
302.243	42.88
302.456	43.31
302.669	42.87
302.881	43.29
303.094	43.73
303.307	41.96
303.519	41.86
303.732	42.54
303.944	43.8
304.157	45.13
304.37	45.31
304.582	46.44
304.795	45.7
305.007	46.71
305.22	44.09
305.432	45.64
305.645	46.2
305.857	47.77
306.069	47.79
306.282	47.63
306.494	44.51
306.707	44.65
306.919	42.98
307.132	43.14
307.344	42.78
307.556	44.51
307.769	42.7
307.981	43.25
308.193	42.26
308.406	40.22
308.618	39.83
308.83	40.15
309.043	39.64
309.255	40.84
309.467	40.31
309.679	39.56
309.892	37.68
310.104	37.9
310.316	36.48
310.528	37.14
310.74	38.44
310.953	39.16
311.165	39.91
311.377	40.07
311.589	39.81
311.801	40.18
312.013	41.04
312.225	42.9
312.437	43.97
312.649	45.95
312.862	44.92
313.074	46.09
313.286	46.3
313.498	46.52
313.71	47.56
313.922	49.05
314.134	49.43
314.346	48.66
314.558	49.27
314.77	48.95
314.982	48.26
315.193	50.68
315.405	51.03
315.617	50.5
315.829	51.11
316.041	50.43
316.253	51.64
316.465	52.67
316.677	52.53
316.888	51.88
317.1	52.28
317.312	51.98
317.524	52.19
317.736	52.03
317.947	54.3
318.159	55.78
318.371	56.29
318.583	54.08
318.794	53.3
319.006	55.39
319.218	56.72
319.43	56.69
319.641	58.13
319.853	56.49
320.064	57.7
320.276	56.97
320.488	55.28
320.699	56.99
320.911	58.9
321.123	60.88
321.334	62.47
321.546	63.52
321.757	62.3
321.969	63.22
322.18	64.08
322.392	61.13
322.603	59.98
322.815	59.32
323.026	57.12
323.238	54.1
323.449	52.45
323.661	51.71
323.872	48.9
324.083	49.04
324.295	48.09
324.506	46.81
324.718	46.25
324.929	46.14
325.14	46.35
325.352	47.3
325.563	48.1
325.774	47.87
325.986	47.49
326.197	47.59
326.408	49.52
326.62	49.1
326.831	49.61
327.042	50.98
327.253	50.75
327.464	51.93
327.676	52.35
327.887	53.23
328.098	54.43
328.309	54.71
328.52	55.31
328.732	53.23
328.943	52.73
329.154	53.25
329.365	54.23
329.576	55.06
329.787	54.1
329.998	53.42
330.209	54.23
330.42	53.85
330.631	53.54
330.842	53.63
331.053	53.79
331.264	55.25
331.475	55.95
331.686	54.81
331.897	53.56
332.108	54.45
332.319	54.45
332.53	54
332.741	52.75
332.952	51.39
333.163	52.24
333.374	52.61
333.585	52.49
333.795	52
334.006	52.75
334.217	53.88
334.428	53.81
334.639	54.92
334.849	54.31
335.06	54.64
335.271	56.12
335.482	56
335.692	55.91
335.903	55.56
336.114	55.72
336.325	55.36
336.535	54.99
336.746	55.3
336.957	54.27
337.167	55.11
337.378	55.13
337.589	54.8
337.799	55.38
338.01	55.78
338.22	55.77
338.431	55.46
338.642	56.97
338.852	56.83
339.063	56.34
339.273	55.11
339.484	55.29
339.694	54.98
339.905	54.47
340.115	55.29
340.326	55.69
340.536	55.29
340.746	54.43
340.957	52.16
341.167	52.41
341.378	51.46
341.588	52.01
341.799	50.89
342.009	50.83
342.219	49.98
342.43	48.75
342.64	48.22
342.85	47.29
343.061	47.77
343.271	48.84
343.481	48.65
343.691	48.84
343.902	49.24
344.112	48.5
344.322	48.06
344.532	48.49
344.743	47.42
344.953	46.74
345.163	47.56
345.373	48.05
345.583	46.82
345.793	46.15
346.004	46.32
346.214	45.79
346.424	45.73
346.634	47.26
346.844	48.17
347.054	48.33
347.264	48.16
347.474	48.77
347.684	48.7
347.894	50.22
348.104	49.72
348.314	49.83
348.524	49.76
348.734	49.97
348.944	48.54
349.154	48.12
349.364	47.89
349.574	47.46
349.784	47.85
349.994	47.21
350.204	45.68
350.413	46.55
350.623	46.62
350.833	46.1
351.043	46.41
351.253	46.74
351.463	45.66
351.672	46.46
351.882	46.06
352.092	45.11
352.302	46.02
352.511	46.03
352.721	44.57
352.931	43.61
353.141	44.02
353.35	44.41
353.56	43.54
353.77	42.84
353.979	42.99
354.189	44.23
354.399	43.63
354.608	42.07
354.818	42.12
355.027	43.71
355.237	43.54
355.447	43.44
355.656	43.18
355.866	42.88
356.075	43.69
356.285	42.36
356.494	41.54
356.704	41.55
356.913	41.68
357.123	41.41
357.332	40.8
357.542	40.4
357.751	39.9
357.96	39.21
358.17	39.34
358.379	39.55
358.589	39.21
358.798	38.64
359.007	37.92
359.217	37.38
359.426	36.6
359.635	36.41
359.845	35.83
360.054	34.87
360.263	34.42
360.472	34.12
360.682	33.72
360.891	33.54
361.1	33.19
361.309	33.6
361.519	32.92
361.728	32.83
361.937	32.9
362.146	33.39
362.355	33.93
362.564	34.43
362.774	34.26
362.983	34.31
363.192	34.71
363.401	35.05
363.61	34.76
363.819	35.62
364.028	35.7
364.237	35.56
364.446	36.23
364.655	37.05
364.864	36.63
365.073	37.3
365.282	37.5
365.491	37.41
365.7	37.95
365.909	38.48
366.118	39.02
366.327	39.81
366.536	39.47
366.745	39.16
366.954	38.06
367.162	38.37
367.371	38.47
367.58	38.51
367.789	39.22
367.998	39.77
368.207	39.97
368.415	40.44
368.624	40.42
368.833	40.06
369.042	40.4
369.25	41.24
369.459	41.23
369.668	40.76
369.877	39.78
370.085	38.61
370.294	37.51
370.503	36.58
370.711	35.9
370.92	35.23
371.129	36.05
371.337	35.44
371.546	34.03
371.754	34.05
371.963	34.51
372.171	34.53
372.38	35.02
372.589	35.17
372.797	35.69
373.006	36.13
373.214	37.11
373.423	36.93
373.631	36.83
373.84	38.22
374.048	37.47
374.256	36.95
374.465	36.97
374.673	37.02
374.882	36.58
375.09	36.08
375.298	34.64
375.507	33.71
375.715	33.09
375.923	32.42
376.132	31.62
376.34	32.4
376.548	30.96
376.757	31.24
376.965	30.68
377.173	30.51
377.381	30.66
377.59	31.95
377.798	32.22
378.006	32.25
378.214	33.15
378.423	33.95
378.631	33.33
378.839	33.95
379.047	33.56
379.255	33.56
379.463	34.52
379.671	34.98
379.879	33.77
380.088	33.37
380.296	33.36
380.504	33.32
380.712	32.88
380.92	33.56
381.128	34.39
381.336	34.59
381.544	34.28
381.752	33.75
381.96	33.27
382.168	33.31
382.376	33.76
382.584	34.38
382.791	33.75
382.999	33.21
383.207	32.56
383.415	32.39
383.623	33.02
383.831	33.46
384.039	33.6
384.247	33.16
384.454	33.6
384.662	33.12
384.87	32.62
385.078	32.61
385.285	32.9
385.493	32.24
385.701	30.86
385.909	29.86
386.116	29.82
386.324	29.74
386.532	29.8
386.739	29.34
386.947	28.84
387.155	29.09
387.362	29.21
387.57	29.74
387.778	30.59
387.985	31.36
388.193	32.31
388.4	31.95
388.608	31.94
388.816	31.48
389.023	31.54
389.231	31.32
389.438	30.26
389.646	29.51
389.853	28.17
390.061	27.69
390.268	27.27
390.475	26.03
390.683	26.04
390.89	25.42
391.098	25.75
391.305	25.83
391.512	25.99
391.72	26.28
391.927	25.97
392.135	26.59
392.342	26.12
392.549	26.67
392.756	26.31
392.964	26.58
393.171	26.69
393.378	25.88
393.586	25.05
393.793	24.98
394	24.67
394.207	24.65
394.414	24.36
394.622	25.05
394.829	24.34
395.036	24.73
395.243	24.58
395.45	24.38
395.657	25.23
395.864	25.98
396.072	26.11
396.279	26.23
396.486	26.08
396.693	26.72
396.9	26.38
397.107	26.84
397.314	27.45
397.521	27.51
397.728	27.76
397.935	27.72
398.142	27.56
398.349	27.47
398.556	27.76
398.763	28.44
398.97	27.61
399.177	27.75
399.383	27.83
399.59	27.3
399.797	26.89
400.004	26.61
400.211	26.45
400.418	26.08
400.625	26.47
400.831	26.13
401.038	26.17
401.245	25.85
401.452	25.7
401.658	25.44
401.865	25.29
402.072	25.41
402.279	25.82
402.485	25.18
402.692	25.26
402.899	24.45
403.105	23.97
403.312	23.95
403.519	24.01
403.725	23.36
403.932	23.38
404.138	23.32
404.345	23.09
404.552	22.69
404.758	22.94
404.965	23.2
405.171	23.45
405.378	23.79
405.584	23.87
405.791	23.89
405.997	24.49
406.204	25.27
406.41	25.59
406.617	25.8
406.823	25.9
407.029	26.43
407.236	26.65
407.442	27.06
407.649	27.57
407.855	27.08
408.061	27.42
408.268	26.87
408.474	25.65
408.68	25.21
408.887	25.36
409.093	25.2
409.299	25.02
409.505	23.9
409.712	23.25
409.918	22.55
410.124	22.48
410.33	22.02
410.537	22.24
410.743	23.32
410.949	23.65
411.155	23.48
411.361	22.86
411.567	22.71
411.773	23.62
411.98	24.03
412.186	24.35
412.392	24.55
412.598	24.63
412.804	24.18
413.01	23.63
413.216	23.29
413.422	23.43
413.628	23.8
413.834	24.01
414.04	23.41
414.246	23.12
414.452	22.71
414.658	22.87
414.864	22.9
415.07	23.34
415.275	23.03
415.481	22.44
415.687	22.23
415.893	22.26
416.099	21.61
416.305	21.45
416.511	20.73
416.716	20.77
416.922	19.94
417.128	19.55
417.334	19.3
417.539	18.66
417.745	18.65
417.951	17.85
418.157	17.56
418.362	17.46
418.568	17.33
418.774	17.31
418.979	16.97
419.185	16.97
419.391	16.97
419.596	16.88
419.802	16.98
420.008	16.68
420.213	18.71
420.419	18.7
420.624	18.33
420.83	18.1
421.035	18.02
421.241	17.92
421.446	17.59
421.652	17.28
421.857	16.85
422.063	16.69
422.268	16.53
422.474	14.68
422.679	14.59
422.885	14.81
423.09	14.74
423.295	14.48
423.501	14.2
423.706	14.61
423.911	14.83
424.117	15.1
424.322	15.17
424.527	15.49
424.733	15.37
424.938	15.19
425.143	14.87
425.349	15
425.554	15.26
425.759	15.61
425.964	15.48
426.169	15.53
426.375	15.84
426.58	16.06
426.785	16.34
426.99	16.72
427.195	17.08
427.4	17.85
427.605	18.22
427.811	18.66
428.016	18.64
428.221	19.33
428.426	19.43
428.631	19.48
428.836	19.41
429.041	19.65
429.246	19.42
429.451	19.45
429.656	19.34
429.861	19.24
430.066	19.27
430.271	19.96
430.476	19.53
430.681	19.26
430.886	18.93
431.09	19.13
431.295	18.42
431.5	18.9
431.705	18.79
431.91	18.55
432.115	18.44
432.32	18.64
432.524	17.71
432.729	17.49
432.934	17.36
433.139	17.34
433.343	16.76
433.548	16.94
433.753	16.59
433.958	16.68
434.162	16.96
434.367	17.07
434.572	16.61
434.776	16.94
434.981	17.04
435.186	17.25
435.39	17.53
435.595	18.17
435.799	18.08
436.004	17.89
436.209	17.78
436.413	17.44
436.618	17.28
436.822	17.23
437.027	17.27
437.231	17.18
437.436	16.76
437.64	16.19
437.845	16
438.049	15.91
438.253	15.67
438.458	15.67
438.662	15.64
438.867	15.31
439.071	15.43
439.275	15.33
439.48	15.23
439.684	15.23
439.888	15.1
440.093	14.88
440.297	14.91
440.501	15.22
440.706	15.36
440.91	15.17
441.114	15.38
441.318	15.27
441.523	15.44
441.727	15.54
441.931	15.82
442.135	16.06
442.339	16.29
442.543	16.37
442.748	16.38
442.952	16.13
443.156	16.29
443.36	16.03
443.564	16
443.768	15.77
443.972	15.7
444.176	15.39
444.38	15.38
444.584	15.11
444.788	14.94
444.992	14.58
445.196	14.43
445.4	13.9
445.604	13.78
445.808	14
446.012	13.9
446.216	13.6
446.42	13.95
446.624	13.79
446.828	13.72
447.032	13.59
447.235	13.8
447.439	13.76
447.643	14.26
447.847	14.89
448.051	14.89
448.254	15.24
448.458	15.75
448.662	15.73
448.866	16.04
449.069	16.31
449.273	16.71
449.477	17.04
449.681	17.42
449.884	17.79
450.088	17.61
450.292	17.65
450.495	17.61
450.699	17.52
450.902	17.58
451.106	17.48
451.31	17.66
451.513	17.6
451.717	17.5
451.92	17.91
452.124	17.78
452.327	17.62
452.531	17.41
452.734	17.34
452.938	17.7
453.141	17.59
453.345	17.74
453.548	17.59
453.752	17.93
453.955	17.98
454.158	17.67
454.362	17.47
454.565	17.61
454.769	17.69
454.972	17.84
455.175	17.72
455.379	18.02
455.582	17.98
455.785	18.01
455.988	18
456.192	17.67
456.395	17.74
456.598	17.59
456.801	17.58
457.005	17.49
457.208	16.81
457.411	16.61
457.614	16.4
457.817	15.94
458.021	15.5
458.224	14.83
458.427	15.05
458.63	14.67
458.833	14.88
459.036	14.54
459.239	14.22
459.442	14.34
459.645	14.23
459.848	13.83
460.051	13.8
460.254	13.86
460.457	14.3
460.66	13.93
460.863	14.07
461.066	13.92
461.269	14.25
461.472	14.62
461.675	14.96
461.878	15.18
462.081	15.61
462.284	16.01
462.486	16.56
462.689	16.47
462.892	17.31
463.095	17.58
463.298	17.88
463.5	18.39
463.703	18.49
463.906	18.25
464.109	18.34
464.311	18.76
464.514	19.24
464.717	18.98
464.92	18.71
465.122	18.35
465.325	18.26
465.528	18.36
465.73	18.19
465.933	17.89
466.135	18.09
466.338	17.84
466.541	17.72
466.743	17.3
466.946	17.15
467.148	17.61
467.351	17.18
467.553	17.37
467.756	17.21
467.958	16.79
468.161	17.01
468.363	16.9
468.566	16.94
468.768	16.98
468.971	17.39
469.173	17.71
469.375	17.53
469.578	18.09
469.78	17.87
469.983	17.93
470.185	18.11
470.387	18.25
470.59	18.14
470.792	18.52
470.994	18.4
471.196	18.05
471.399	17.92
471.601	17.93
471.803	17.49
472.005	17.32
472.208	17.53
472.41	17.44
472.612	17.16
472.814	17.24
473.016	17.11
473.218	16.99
473.421	16.79
473.623	16.5
473.825	16.6
474.027	16.79
474.229	16.89
474.431	16.67
474.633	16.66
474.835	16.43
475.037	16.4
475.239	16.26
475.441	15.91
475.643	15.88
475.845	15.93
476.047	15.57
476.249	15.5
476.451	15.67
476.653	15.23
476.855	15.03
477.057	15.57
477.258	15.14
477.46	14.99
477.662	15.23
477.864	15.08
478.066	15.15
478.268	15.39
478.469	15.57
478.671	15.27
478.873	15.37
479.075	15.51
479.276	14.87
479.478	15.3
479.68	15.04
479.882	15.08
480.083	15.16
480.285	15.16
480.487	14.73
480.688	14.48
480.89	14.38
481.091	13.96
481.293	13.54
481.495	13.37
481.696	12.86
481.898	12.47
482.099	12.03
482.301	11.59
482.502	11.02
482.704	10.63
482.905	10.3
483.107	9.88
483.308	9.74
483.51	9.56
483.711	9.53
483.913	9.51
484.114	9.39
484.315	9.31
484.517	9.3
484.718	9.4
484.92	9.58
485.121	9.62
485.322	9.8
485.524	9.91
485.725	10.07
485.926	10.05
486.127	10.01
486.329	10.03
486.53	10.09
486.731	10.16
486.932	10.16
487.134	10.19
487.335	10.23
487.536	10.11
487.737	10.06
487.938	10.03
488.139	10.01
488.341	10.02
488.542	10.35
488.743	10.39
488.944	10.39
489.145	10.48
489.346	10.46
489.547	10.51
489.748	10.87
489.949	11.09
490.15	11.08
490.351	11.14
490.552	11.15
490.753	10.89
490.954	10.82
491.155	10.8
491.356	10.82
491.557	10.89
491.758	11.02
491.959	11.02
492.159	11
492.36	11.12
492.561	11.23
492.762	11.39
492.963	11.69
493.164	12.13
493.364	12.55
493.565	12.82
493.766	12.89
493.967	13
494.167	13.12
494.368	13.34
494.569	13.52
494.769	13.61
494.97	13.93
495.171	14.03
495.371	13.87
495.572	13.85
495.773	13.8
495.973	14.06
496.174	14.07
496.375	14.16
496.575	14.1
496.776	14.14
496.976	14.3
497.177	13.93
497.377	13.96
497.578	13.95
497.778	13.89
497.979	13.67
498.179	13.46
498.38	13.78
498.58	13.85
498.78	13.92
498.981	13.78
499.181	13.87
499.382	14.44
499.582	14.23
499.782	14.43
499.983	14.5
500.183	15.23
500.383	15.81
500.584	15.45
500.784	15.4
500.984	15.49
501.184	15.77
501.385	15.75
501.585	15.77
501.785	15.85
501.985	15.73
502.185	15.9
502.386	15.57
502.586	15.24
502.786	15.61
502.986	15.73
503.186	15.68
503.386	15.44
503.586	15.53
503.786	15.21
503.987	15.4
504.187	15.4
504.387	15.35
504.587	15.18
504.787	15.31
504.987	15.08
505.187	15.05
505.387	15.01
505.587	15.04
505.786	15.08
505.986	15.44
506.186	15.23
506.386	15.57
506.586	15.65
506.786	15.71
506.986	15.62
507.186	15.68
507.386	15.72
507.585	15.66
507.785	15.74
507.985	15.71
508.185	15.55
508.384	15.47
508.584	15.33
508.784	14.86
508.984	15.21
509.183	15.28
509.383	15.17
509.583	15.24
509.782	15.68
509.982	15.96
510.182	15.83
510.381	15.56
510.581	15.85
510.781	15.98
510.98	16.27
511.18	16.37
511.379	16.57
511.579	16.86
511.778	16.64
511.978	16.47
512.177	16.46
512.377	16.77
512.576	17.08
512.776	17.22
512.975	17.08
513.175	17.07
513.374	16.85
513.573	16.66
513.773	16.59
513.972	16.81
514.172	17.06
514.371	17.29
514.57	17.08
514.77	17.2
514.969	17.24
515.168	17.3
515.367	17.61
515.567	17.89
515.766	17.7
515.965	17.89
516.164	17.62
516.364	17.32
516.563	17.07
516.762	17.13
516.961	16.77
517.16	16.67
517.359	16.61
517.559	16.34
517.758	16.03
517.957	16.13
518.156	15.93
518.355	16.05
518.554	16.25
518.753	16.15
518.952	16.13
519.151	16.59
519.35	16.84
519.549	16.71
519.748	17.01
519.947	17.18
520.146	17.13
520.345	17.28
520.544	17.57
520.743	17.51
520.942	17.75
521.141	17.82
521.339	17.54
521.538	17.4
521.737	17.62
521.936	17.5
522.135	17.64
522.333	18.18
522.532	18.45
522.731	18.33
522.93	18.47
523.129	18.54
523.327	18.73
523.526	18.92
523.725	18.82
523.923	19.06
524.122	19.13
524.321	19.11
524.519	18.91
524.718	18.54
524.917	18.73
525.115	18.63
525.314	18.44
525.512	18.36
525.711	18.24
525.909	18.56
526.108	18.33
526.306	18.3
526.505	18.25
526.703	18.15
526.902	18.03
527.1	17.85
527.299	17.81
527.497	17.72
527.696	17.62
527.894	17.59
528.092	17.32
528.291	17.36
528.489	17.39
528.688	17.34
528.886	17.31
529.084	17.38
529.283	17.44
529.481	17.55
529.679	17.81
529.877	18.05
530.076	18.14
530.274	18.4
530.472	18.5
530.67	18.71
530.869	19
531.067	19.31
531.265	19.66
531.463	19.85
531.661	19.81
531.859	19.91
532.057	20.05
532.255	20.21
532.454	20.15
532.652	20.17
532.85	20.18
533.048	20.23
533.246	20.29
533.444	20.18
533.642	20.33
533.84	20.49
534.038	20.59
534.236	20.57
534.434	20.76
534.632	21
534.83	21.23
535.027	21.4
535.225	21.51
535.423	21.65
535.621	21.86
535.819	21.86
536.017	22.07
536.215	21.97
536.412	22.15
536.61	22.41
536.808	22.39
537.006	22.54
537.203	22.78
537.401	22.94
537.599	23.16
537.797	23.56
537.994	23.82
538.192	24.04
538.39	24.35
538.587	24.37
538.785	24.22
538.983	24.35
539.18	24.57
539.378	24.36
539.575	24.46
539.773	24.26
539.97	24.09
540.168	23.91
540.366	23.63
540.563	23.38
540.761	23.36
540.958	23.17
541.155	23.07
541.353	22.87
541.55	22.91
541.748	22.65
541.945	22.63
542.143	22.51
542.34	22.64
542.537	22.77
542.735	22.78
542.932	22.73
543.129	22.95
543.327	23.28
543.524	23.48
543.721	23.42
543.919	23.86
544.116	24.12
544.313	24.51
544.51	24.55
544.708	24.91
544.905	25.38
545.102	25.79
545.299	25.96
545.496	26.15
545.693	26.27
545.891	26.46
546.088	26.45
546.285	26.53
546.482	26.37
546.679	26.52
546.876	26.47
547.073	26.57
547.27	26.76
547.467	27.07
547.664	27.1
547.861	27.45
548.058	28.1
548.255	28.42
548.452	28.72
548.649	29.34
548.846	29.73
549.043	29.95
549.24	30.14
549.437	30.24
549.633	30.31
549.83	30.88
550.027	31.25
550.224	31.18
550.421	31.28
550.618	31.41
550.814	31.55
551.011	31.34
551.208	31.54
551.405	31.61
551.601	31.73
551.798	31.62
551.995	31.44
552.191	31.35
552.388	31.28
552.585	31.32
552.781	31.23
552.978	31.26
553.175	31.92
553.371	32.12
553.568	32.06
553.764	32.13
553.961	32.57
554.157	32.61
554.354	32.8
554.55	33.09
554.747	33.79
554.943	33.76
555.14	33.97
555.336	33.5
555.533	33.77
555.729	34.15
555.926	34.29
556.122	34.27
556.318	34.24
556.515	34.25
556.711	34.22
556.907	34.12
557.104	34.71
557.3	34.87
557.496	34.61
557.693	34.56
557.889	34.74
558.085	34.82
558.281	35.11
558.478	35.61
558.674	35.69
558.87	35.62
559.066	35.83
559.262	35.35
559.459	34.75
559.655	35.16
559.851	35.03
560.047	35.16
560.243	34.98
560.439	34.97
560.635	34.58
560.831	34.26
561.027	34.3
561.223	34.16
561.419	34.22
561.615	34.46
561.811	34.88
562.007	35.15
562.203	34.83
562.399	35.2
562.595	35.48
562.791	35.66
562.987	36.1
563.183	35.82
563.379	35.49
563.575	35.69
563.771	36.17
563.966	35.55
564.162	35.66
564.358	35.91
564.554	35.76
564.75	35.2
564.945	34.95
565.141	34.43
565.337	34.78
565.533	34.75
565.728	34.57
565.924	34.27
566.12	34.76
566.315	34.36
566.511	34.01
566.707	33.73
566.902	33.72
567.098	33.85
567.293	34
567.489	33.96
567.684	33.99
567.88	34.44
568.076	34.51
568.271	34.35
568.467	34.37
568.662	34.72
568.858	34.97
569.053	35.13
569.248	35.16
569.444	35.56
569.639	35.64
569.835	35.6
570.03	35.07
570.225	35.1
570.421	34.94
570.616	34.99
570.812	34.96
571.007	34.83
571.202	34.99
571.397	34.91
571.593	34.43
571.788	34.26
571.983	34.36
572.178	34.9
572.374	34.99
572.569	35.02
572.764	35.03
572.959	34.68
573.154	34.83
573.35	34.37
573.545	34.81
573.74	35.16
573.935	34.97
574.13	34.66
574.325	34.34
574.52	34.25
574.715	34.82
574.91	34.84
575.105	35.15
575.3	35.27
575.495	35.89
575.69	35.8
575.885	35.92
576.08	36.61
576.275	36.98
576.47	37.49
576.665	37.96
576.86	37.76
577.055	38.02
577.25	38.41
577.444	38.34
577.639	38.58
577.834	38.46
578.029	38.63
578.224	38.78
578.418	39.14
578.613	39.68
578.808	39.62
579.003	39.98
579.197	40.46
579.392	40.15
579.587	40.8
579.781	40.93
579.976	41.11
580.171	41.22
580.365	40.87
580.56	40.83
580.755	40.22
580.949	40.11
581.144	40.05
581.338	39.68
581.533	40.27
581.727	40.23
581.922	40.08
582.116	40.3
582.311	40.07
582.505	40.4
582.7	40.32
582.894	40.72
583.089	41.03
583.283	41.14
583.478	40.88
583.672	40.58
583.866	40.5
584.061	40.4
584.255	40.69
584.449	40.87
584.644	40.62
584.838	40.95
585.032	40.71
585.226	40.75
585.421	40.41
585.615	40.95
585.809	41.07
586.003	41.27
586.198	41.65
586.392	41.57
586.586	41.77
586.78	41.79
586.974	41.65
587.168	41.43
587.363	41.17
587.557	40.68
587.751	40.72
587.945	40.91
588.139	40.75
588.333	40.04
588.527	39.83
588.721	39.88
588.915	40.26
589.109	40.42
589.303	40.53
589.497	40.13
589.691	40.94
589.885	41
590.079	40.98
590.273	40.63
590.466	41.3
590.66	41.5
590.854	41.7
591.048	41.64
591.242	40.98
591.436	41.08
591.629	41.25
591.823	41.38
592.017	41.05
592.211	40.64
592.404	41.19
592.598	40.33
592.792	40.39
592.986	40.12
593.179	40.03
593.373	40.4
593.567	40.43
593.76	40.78
593.954	40.29
594.147	40.54
594.341	40.73
594.535	40.26
594.728	40.7
594.922	40.15
595.115	40.03
595.309	39.79
595.502	40.11
595.696	39.92
595.889	39.92
596.083	40.02
596.276	39.9
596.47	39.85
596.663	40.1
596.856	40.18
597.05	40.24
597.243	40.12
597.437	40.54
597.63	40.41
597.823	40.39
598.017	40.32
598.21	40.27
598.403	40.51
598.596	41.16
598.79	41.11
598.983	41.52
599.176	41.67
599.369	42.28
599.563	42.28
599.756	42.93
599.949	43.19
600.142	43.5
600.335	43.81
600.528	43.72
600.722	43.63
600.915	44.08
601.108	43.54
601.301	43.51
601.494	42.67
601.687	42.56
601.88	41.98
602.073	42.21
602.266	41.61
602.459	41.11
602.652	40.68
602.845	40.38
603.038	40.26
603.231	40.09
603.424	39.96
603.617	40.13
603.809	39.95
604.002	39.43
604.195	39.52
604.388	39.9
604.581	39.92
604.774	40.33
604.966	40.47
605.159	40.23
605.352	40.4
605.545	40.9
605.737	41.22
605.93	41.44
606.123	42.61
606.316	42.07
606.508	42.25
606.701	43.21
606.894	43.05
607.086	43.36
607.279	43.39
607.471	43.65
607.664	43.32
607.857	43.2
608.049	42.91
608.242	42.47
608.434	42.48
608.627	42.19
608.819	41.41
609.012	40.96
609.204	40.61
609.397	40.76
609.589	40.92
609.782	41.18
609.974	41.29
610.166	41.77
610.359	41.86
610.551	42.37
610.743	42.45
610.936	43.06
611.128	43.98
611.32	44.79
611.513	44.96
611.705	44.69
611.897	44.55
612.09	45.45
612.282	45.58
612.474	45.9
612.666	46.48
612.858	46.73
613.051	47.49
613.243	47.55
613.435	47.26
613.627	47.49
613.819	48.11
614.011	49.46
614.203	49.04
614.395	48.75
614.588	48.94
614.78	48.33
614.972	48.93
615.164	48.52
615.356	48.6
615.548	48.51
615.74	48.95
615.932	49.25
616.124	47.72
616.315	48.08
616.507	48.68
616.699	48.42
616.891	48.14
617.083	48.01
617.275	47.89
617.467	47.82
617.659	47.83
617.85	47.59
618.042	47.64
618.234	48.68
618.426	48.27
618.618	47.97
618.809	48.03
619.001	48.16
619.193	48.79
619.384	48.7
619.576	48.78
619.768	48.55
619.959	48.2
620.151	47.61
620.343	47.5
620.534	48.11
620.726	47.93
620.917	48.14
621.109	48.64
621.301	48
621.492	48.7
621.684	48.57
621.875	48.99
622.067	48.48
622.258	48.61
622.45	48.98
622.641	47.79
622.832	47.72
623.024	47.76
623.215	48.21
623.407	47.98
623.598	47.2
623.789	47.55
623.981	47.22
624.172	48.26
624.363	48.04
624.555	46.78
624.746	47.36
624.937	47.4
625.129	47.44
625.32	46.48
625.511	46.52
625.702	46.01
625.893	45.37
626.085	45.26
626.276	44.49
626.467	44.54
626.658	44.52
626.849	43.81
627.04	43.74
627.231	43.39
627.422	43.84
627.614	43.32
627.805	43.66
627.996	43.94
628.187	44.3
628.378	45.25
628.569	45.49
628.76	45.86
628.951	46.35
629.142	46.64
629.332	46.31
629.523	46.25
629.714	46.84
629.905	46.9
630.096	46.97
630.287	47.05
630.478	46.2
630.669	45.77
630.859	45.69
631.05	45.95
631.241	45.6
631.432	46.11
631.623	45.83
631.813	45.72
632.004	45.42
632.195	45.24
632.385	44.86
632.576	44.64
632.767	45.11
632.957	45.55
633.148	45.91
633.339	46.1
633.529	45.64
633.72	45.41
633.91	45.86
634.101	46.29
634.292	46.27
634.482	46.37
634.673	47.05
634.863	46.85
635.054	47.2
635.244	46.74
635.435	46.81
635.625	46.97
635.815	47.27
636.006	46.96
636.196	47.19
636.387	47.43
636.577	47.86
636.767	47.54
636.958	47.13
637.148	47.44
637.338	47.79
637.529	48.3
637.719	48.77
637.909	48.95
638.099	49.18
638.29	49.12
638.48	49.17
638.67	49.72
638.86	50.37
639.05	51.32
639.241	51.16
639.431	51.35
639.621	51.5
639.811	51.54
640.001	51.91
640.191	51.23
640.381	51.56
640.571	52.11
640.761	51.95
640.951	52.52
641.141	52.81
641.331	52.29
641.521	52.09
641.711	52.31
641.901	52.63
642.091	52.99
642.281	53.62
642.471	53.37
642.661	53.55
642.851	53.31
643.041	52.62
643.231	52.72
643.42	53.45
643.61	53.45
643.8	53.27
643.99	52.96
644.18	53.08
644.369	53.77
644.559	53.66
644.749	54.17
644.939	54.18
645.128	53.52
645.318	53.09
645.508	52.4
645.697	53.05
645.887	52.73
646.076	52.68
646.266	52.61
646.456	52.35
646.645	52.85
646.835	52.57
647.024	52.32
647.214	52.85
647.403	53.1
647.593	53.16
647.782	52
647.972	52.17
648.161	52.49
648.351	52.44
648.54	52.17
648.73	52.26
648.919	51.54
649.108	51.66
649.298	51.48
649.487	51.15
649.677	51.16
649.866	51.92
650.055	52.09
650.244	52.17
650.434	52.01
650.623	51.83
650.812	51.14
651.002	51.47
651.191	51.51
651.38	51.68
651.569	52.05
651.758	52.01
651.947	51.25
652.137	51.1
652.326	51.26
652.515	51.43
652.704	52.05
652.893	52.39
653.082	51.96
653.271	52.19
653.46	52
653.649	52.19
653.838	52.67
654.027	53.91
654.216	53.86
654.405	53.09
654.594	52.68
654.783	53.68
654.972	54.05
655.161	54.52
655.35	53.85
655.539	54.44
655.728	54.08
655.916	53.14
656.105	52.87
656.294	53.2
656.483	53.5
656.672	53.68
656.86	52.43
657.049	51.51
657.238	51.1
657.427	51.02
657.615	50.38
657.804	50.29
657.993	49.96
658.181	49.67
658.37	48.82
658.559	48.07
658.747	48.09
658.936	48.16
659.125	47.77
659.313	48.43
659.502	48.54
659.69	48.65
659.879	48.26
660.067	49.57
660.256	49.41
660.444	49.94
660.633	50.88
660.821	50.93
661.01	50.71
661.198	51.18
661.387	50.84
661.575	51.2
661.763	51.74
661.952	52.19
662.14	52.28
662.328	53.39
662.517	53.78
662.705	53.78
662.893	54.04
663.082	54.46
663.27	55.94
663.458	56.96
663.646	57.27
663.834	57.17
664.023	57.23
664.211	57.53
664.399	57.59
664.587	57.81
664.775	57.53
664.963	57.63
665.152	57.69
665.34	57.37
665.528	56.15
665.716	55.45
665.904	55.85
666.092	56.42
666.28	56.73
666.468	55.8
666.656	55.63
666.844	56.78
667.032	56.53
667.22	56.46
667.408	57.09
667.596	58.15
667.784	59.21
667.971	59.01
668.159	58.72
668.347	57
668.535	57.35
668.723	57.16
668.911	56.67
669.098	57.08
669.286	57.39
669.474	56.64
669.662	56.28
669.849	56.39
670.037	57.13
670.225	57
670.413	58.1
670.6	58.57
670.788	58.68
670.976	58.52
671.163	58.61
671.351	58.15
671.538	58.27
671.726	58.02
671.913	57.62
672.101	56.55
672.289	56.65
672.476	56.18
672.664	55.91
672.851	56.28
673.039	56.64
673.226	56.86
673.413	57.36
673.601	57.55
673.788	58.44
673.976	57.86
674.163	58.01
674.35	57.79
674.538	57.75
674.725	57.68
674.912	57.08
675.1	57.66
675.287	57.64
675.474	57.92
675.662	57.42
675.849	56.72
676.036	57.9
676.223	58.33
676.411	58.35
676.598	57.7
676.785	57.77
676.972	57.75
677.159	57.57
677.346	56.92
677.533	56.15
677.721	56.35
677.908	56.75
678.095	56.39
678.282	56.28
678.469	55.88
678.656	56.65
678.843	56.67
679.03	56.93
679.217	56.26
679.404	56.64
679.591	56.77
679.778	56.92
679.964	56.55
680.151	55.57
680.338	55.58
680.525	56.06
680.712	55.54
680.899	55.29
681.086	55.77
681.272	55.52
681.459	55.61
681.646	56.29
681.833	55.95
682.02	56.06
682.206	57.59
682.393	57.6
682.58	57.87
682.766	58.46
682.953	59.35
683.14	59.63
683.326	61.75
683.513	61.83
683.7	61.88
683.886	62.32
684.073	62.08
684.259	61.55
684.446	61.77
684.632	61.56
684.819	62.29
685.005	61.84
685.192	61.87
685.378	61.04
685.565	60.47
685.751	59.36
685.938	59.15
686.124	59.75
686.31	58.77
686.497	58.42
686.683	58.4
686.87	57.73
687.056	58.09
687.242	57.17
687.429	56.94
687.615	56.54
687.801	57.8
687.987	57.51
688.174	57.76
688.36	58.61
688.546	58.29
688.732	59.11
688.918	59.22
689.105	58.42
689.291	59.59
689.477	59.6
689.663	61.34
689.849	61.15
690.035	61.99
690.221	62.56
690.407	63.74
690.593	65.41
690.779	65.72
690.965	66.72
691.151	67.62
691.337	67.1
691.523	67.69
691.709	67.89
691.895	68.35
692.081	68.07
692.267	67.81
692.453	67.35
692.639	66.82
692.825	67.48
693.011	66.66
693.196	66.7
693.382	67.43
693.568	67.05
693.754	65.97
693.94	66.08
694.125	67.1
694.311	67.79
694.497	67.28
694.682	67.42
694.868	65.75
695.054	66.21
695.239	66.15
695.425	64.2
695.611	63.5
695.796	63.76
695.982	62.67
696.168	61.21
696.353	59.59
696.539	60.02
696.724	59.77
696.91	59.39
697.095	58.87
697.281	58.17
697.466	58.37
697.652	57.7
697.837	56.62
698.023	56.33
698.208	55.34
698.393	55.64
698.579	54.52
698.764	53.63
698.949	53.3
699.135	53.48
699.32	53.75
699.505	53.67
699.691	54.24
699.876	54.68
700.061	55.23
700.246	57.06
700.432	57.54
700.617	58.8
700.802	60.1
700.987	62.14
701.172	62.02
701.358	62.4
701.543	64.02
701.728	64.36
701.913	67.03
702.098	68.5
702.283	70.22
702.468	70.4
702.653	71.46
702.838	72.91
703.023	72.26
703.208	72.04
703.393	72.44
703.578	73.87
703.763	75.23
703.948	73.24
704.133	72.22
704.318	71.96
704.503	70.93
704.688	70.74
704.873	69.63
705.057	70.62
705.242	70.95
705.427	71.29
705.612	70.91
705.797	69.59
705.981	71.99
706.166	71.3
706.351	70.51
706.536	70.97
706.72	70.72
706.905	70.95
707.09	70.41
707.274	71.82
707.459	71.93
707.644	71.09
707.828	71.74
708.013	68.87
708.197	69
708.382	69.57
708.567	68.79
708.751	68.28
708.936	67.08
709.12	67.63
709.305	67.35
709.489	66.41
709.673	66.54
709.858	67.22
710.042	68.18
710.227	68.75
710.411	68.1
710.596	68.4
710.78	69.59
710.964	70.59
711.149	69.95
711.333	69.14
711.517	69.53
711.702	69.96
711.886	68.8
712.07	69.26
712.254	69.93
712.438	70
712.623	71.13
712.807	69.45
712.991	69.67
713.175	70.17
713.359	71.01
713.544	71.16
713.728	71.11
713.912	69.82
714.096	69.44
714.28	68.31
714.464	68.07
714.648	67.59
714.832	68.29
715.016	67.73
715.2	68.39
715.384	67.62
715.568	67.46
715.752	66.75
715.936	68.83
716.12	69.57
716.304	70.66
716.488	70.93
716.671	72.83
716.855	74.09
717.039	75.34
717.223	75.22
717.407	76.85
717.59	76.87
717.774	77.23
717.958	77.91
718.142	78.83
718.325	80.01
718.509	79.33
718.693	78.66
718.877	77.29
719.06	78.31
719.244	78.25
719.428	78.13
719.611	80.25
719.795	79.36
719.978	79.32
720.162	79.32
720.345	79.45
720.529	81.24
720.713	80.82
720.896	82.74
721.08	80.19
721.263	81.28
721.446	81.14
721.63	80.91
721.813	83.26
721.997	82.67
722.18	81.97
722.364	81.93
722.547	82.45
722.73	83.3
722.914	83.66
723.097	85.99
723.28	85.91
723.464	85.56
723.647	86.12
723.83	85.78
724.013	86.25
724.197	87.63
724.38	86.17
724.563	85.66
724.746	87.1
724.929	86.17
725.112	85.47
725.296	86.06
725.479	85.38
725.662	83.53
725.845	83.44
726.028	83.12
726.211	82.33
726.394	81.83
726.577	81.05
726.76	78.58
726.943	78.15
727.126	77.55
727.309	77.19
727.492	77.13
727.675	76.62
727.858	75.88
728.041	76.1
728.224	76.14
728.407	75.91
728.589	75.43
728.772	75.88
728.955	76.07
729.138	74.87
729.321	73.46
729.503	75.49
729.686	77.48
729.869	77.91
730.052	77.89
730.234	78.11
730.417	80.87
730.6	81.3
730.782	82.47
730.965	82.23
731.148	84.88
731.33	84.98
731.513	84.8
731.695	81.82
731.878	81.03
732.061	80.49
732.243	79.43
732.426	78.1
732.608	77.68
732.791	77.43
732.973	78.02
733.156	76.85
733.338	77.35
733.52	76.11
733.703	78.74
733.885	79.15
734.068	79.37
734.25	80.31
734.432	79.75
734.615	82.41
734.797	83.35
734.979	83.12
735.162	82.44
735.344	82.46
735.526	84.22
735.708	83.03
735.891	83.88
736.073	85.01
736.255	86.24
736.437	86.9
736.619	85.09
736.802	83.92
736.984	86.43
737.166	89.62
737.348	89.65
737.53	89.34
737.712	90.06
737.894	91.03
738.076	92.29
738.258	89.15
738.44	88.12
738.622	89.39
738.804	89.47
738.986	87.61
739.168	85.59
739.35	86.82
739.532	87.45
739.714	89.06
739.896	88.11
740.078	87.27
740.259	90.85
740.441	93.8
740.623	93.9
740.805	96.59
740.987	95.52
741.168	97.36
741.35	97.56
741.532	97.55
741.714	97.52
741.895	99.47
742.077	99.32
742.259	99.91
742.44	100.15
742.622	99.79
742.804	98.95
742.985	99.34
743.167	98.21
743.348	98.16
743.53	96.92
743.711	97.01
743.893	98.54
744.075	98.36
744.256	97.31
744.438	97.21
744.619	99.76
744.8	98.41
744.982	101.4
745.163	103.78
745.345	102.97
745.526	105.06
745.707	103.65
745.889	101.4
746.07	104.28
746.252	104.91
746.433	102.58
746.614	101.26
746.795	101.69
746.977	102.02
747.158	99.5
747.339	100.3
747.52	100.25
747.702	101.38
747.883	103.09
748.064	102.63
748.245	102.8
748.426	104.78
748.607	102.59
748.788	102.24
748.97	102.54
749.151	103.51
749.332	104.32
749.513	105.13
749.694	103.42
749.875	102.22
750.056	101.66
750.237	102.73
750.418	104.45
750.599	107.37
750.78	109.15
750.96	108.23
751.141	110.73
751.322	112.65
751.503	113.67
751.684	114.51
751.865	113.2
752.046	114.26
752.226	111.61
752.407	107.51
752.588	107.52
752.769	107.22
752.949	104.54
753.13	104.89
753.311	102.27
753.492	102.99
753.672	103.87
753.853	106.05
754.034	105.27
754.214	106.66
754.395	107.65
754.575	110.89
754.756	112.42
754.937	116.16
755.117	111.51
755.298	112.45
755.478	112.88
755.659	110.62
755.839	112.01
756.02	111.08
756.2	110.89
756.381	109.62
756.561	105.72
756.741	102.5
756.922	100.73
757.102	103.72
757.283	105.83
757.463	104.82
757.643	107.33
757.823	104.16
758.004	104.68
758.184	105.76
758.364	110.18
758.545	111.01
758.725	112.22
758.905	113.37
759.085	113.2
759.265	111.82
759.446	110.29
759.626	107.79
759.806	108.49
759.986	108.21
760.166	107.85
760.346	104.68
760.526	103.5
760.706	102.86
760.886	99.41
761.066	98.29
761.246	97.41
761.426	94.31
761.606	93.27
761.786	91.52
761.966	91.29
762.146	88.95
762.326	88.05
762.506	86.02
762.686	82.23
762.866	80.85
763.046	79.06
763.225	78.14
763.405	77.34
763.585	78.11
763.765	77.19
763.945	76.97
764.124	76.54
764.304	77.32
764.484	78.82
764.664	82.14
764.843	85.29
765.023	88.09
765.203	89.58
765.382	93.81
765.562	95.3
765.741	98.09
765.921	100.07
766.101	101.94
766.28	100.53
766.46	102
766.639	102.63
766.819	103.15
766.998	104.59
767.178	103.98
767.357	104.32
767.537	105.43
767.716	107.71
767.896	110.52
768.075	111.7
768.254	115.15
768.434	115.33
768.613	118.43
768.792	118.46
768.972	117.86
769.151	121.59
769.33	122.84
769.51	125.4
769.689	123.9
769.868	125.32
770.047	126.12
770.226	126.69
770.406	128.5
770.585	131.34
770.764	132.26
770.943	132.21
771.122	131.39
771.301	128.69
771.48	128.48
771.66	129.73
771.839	127.25
772.018	129.26
772.197	129.07
772.376	126.81
772.555	125.56
772.734	129.95
772.913	129.15
773.092	126.96
773.271	126.32
773.449	127.98
773.628	125.58
773.807	123.27
773.986	123.8
774.165	124.94
774.344	127.82
774.523	124.3
774.701	123.08
774.88	128.92
775.059	131.05
775.238	135.39
775.417	132.04
775.595	137.85
775.774	143.12
775.953	143.98
776.131	143.49
776.31	138.54
776.489	146.21
776.667	141
776.846	137.29
777.025	139.22
777.203	138.91
777.382	133.03
777.56	131.36
777.739	125.68
777.917	126.26
778.096	124.54
778.274	127.52
778.453	122.45
778.631	124.59
778.81	122.65
778.988	123.41
779.166	124.84
779.345	129.44
779.523	129.85
779.702	131.21
779.88	129.17
780.058	132.11
780.237	133.38
780.415	136.27
780.593	137.74
780.771	142.59
780.95	143.61
781.128	147.6
781.306	150.36
781.484	154.3
781.662	168.64
781.841	166.38
782.019	163.88
782.197	161.48
782.375	157.33
782.553	156.34
782.731	158.36
782.909	152.42
783.087	153.6
783.265	157.8
783.443	157.81
783.621	147.71
783.799	155.58
783.977	160.18
784.155	169
784.333	170.61
784.511	170.58
784.689	171.21
784.867	175.07
785.045	168.91
785.223	166.72
785.4	161.52
785.578	161.16
785.756	157.86
785.934	150.05
786.112	146.53
786.289	149.61
786.467	144.3
786.645	138.9
786.823	136.04
787	133.04
787.178	130.92
787.356	127.11
787.533	127.8
787.711	127.06
787.889	130.63
788.066	126.91
788.244	124.13
788.421	128.59
788.599	125.56
788.776	127.98
788.954	129.83
789.131	126.68
789.309	133
789.486	133.26
789.664	132.74
789.841	131.16
790.019	133.52
790.196	141.73
790.373	147.06
790.551	157.61
790.728	156.37
790.906	157.5
791.083	160.52
791.26	158.63
791.437	159.17
791.615	163.78
791.792	172.59
791.969	174.55
792.146	161.67
792.324	156.84
792.501	153.46
792.678	158.44
792.855	153.25
793.032	158.55
793.209	158.57
793.387	156.68
793.564	153.83
793.741	148.59
793.918	144.94
794.095	151.78
794.272	154.41
794.449	149.98
794.626	148.77
794.803	151.4
794.98	148.82
795.157	145.72
795.334	148.4
795.511	146.76
795.688	149.37
795.864	148.28
796.041	145.47
796.218	146.72
796.395	148.36
796.572	147.59
796.749	152.91
796.925	154.33
797.102	157.26
797.279	157.24
797.456	157.16
797.632	154.84
797.809	162.09
797.986	166.62
798.162	165.98
798.339	167.9
798.516	173.65
798.692	172.83
798.869	168.56
799.046	170.73
799.222	169.98
799.399	172.4
799.575	179.45
799.752	175.36
799.928	172.54
800.105	169.18
800.281	179.48
800.458	173.13
800.634	172.46
800.811	187.65
800.987	203.64
801.163	211.75
801.34	218.96
801.516	214.05
801.692	234.41
801.869	233.48
802.045	258.85
802.221	242.35
802.398	244.22
802.574	243.95
802.75	227.76
802.926	215.84
803.103	205.65
803.279	201.95
803.455	204.17
803.631	195.79
803.807	196.84
803.983	183.37
804.16	192.7
804.336	191.45
804.512	193.97
804.688	194.01
804.864	193.82
805.04	199.79
805.216	205.74
805.392	204.79
805.568	212.49
805.744	207.23
805.92	219
806.096	212.26
806.272	222.31
806.448	228.04
806.623	236.48
806.799	231.55
806.975	232.8
807.151	229.52
807.327	240.68
807.503	232.13
807.678	251.24
807.854	237.07
808.03	243.13
808.206	229.31
808.381	218
808.557	207.66
808.733	199.56
808.908	206.35
809.084	207.02
809.26	200.41
809.435	196.44
809.611	189.93
809.787	191.6
809.962	189.86
810.138	194.04
810.313	191.77
810.489	193.33
810.664	200.18
810.84	198.8
811.015	202.39
811.191	208.53
811.366	215.07
811.542	208.15
811.717	204.52
811.892	197.75
812.068	204.35
812.243	210.59
812.419	211.57
812.594	218.92
812.769	211.93
812.944	206.23
813.12	199.93
813.295	203.26
813.47	205.04
813.645	223.97
813.821	233.19
813.996	233.27
814.171	242.36
814.346	238.98
814.521	236.17
814.697	245.99
814.872	233.13
815.047	242.07
815.222	235.2
815.397	233.45
815.572	217.93
815.747	209.1
815.922	206.3
816.097	198.66
816.272	200.94
816.447	189.61
816.622	185.72
816.797	196.68
816.972	189.14
817.147	188.08
817.322	191.61
817.496	201.98
817.671	198.26
817.846	199.89
818.021	199.29
818.196	189.4
818.371	179.6
818.545	172.59
818.72	171.44
818.895	165.89
819.069	161.66
819.244	155.08
819.419	139.83
819.594	140.04
819.768	131.59
819.943	122.01
820.117	114.81
820.292	110.61
820.467	100.35
820.641	92.51
820.816	88.38
820.99	83.46
821.165	76.8
821.339	73.89
821.514	70.93
821.688	67.76
821.863	65.98
822.037	63.87
822.212	61.88
822.386	61.8
822.56	59.98
822.735	59.5
822.909	58.37
823.084	58.97
823.258	58.7
823.432	60.18
823.606	60.97
823.781	62.25
823.955	64.27
824.129	68.9
824.303	71.88
824.478	76.35
824.652	77.54
824.826	80.47
825	82.93
825.174	87.66
825.348	85.18
825.523	88.81
825.697	89.08
825.871	92.42
826.045	89.37
826.219	89.88
826.393	89.43
826.567	89.56
826.741	94.02
826.915	92.06
827.089	92.39
827.263	93.19
827.437	91.67
827.611	91.85
827.784	93.04
827.958	95.78
828.132	94.7
828.306	100.12
828.48	106.03
828.654	106.6
828.827	112.02
829.001	113.49
829.175	120.68
829.349	126.81
829.522	136.44
829.696	142.27
829.87	149.58
830.044	160.95
830.217	164.02
830.391	168.77
830.565	171.61
830.738	174.03
830.912	178.21
831.085	187.56
831.259	200.81
831.432	194.07
831.606	186.89
831.779	182.67
831.953	178.76
832.126	166.97
832.3	157.19
832.473	149.21
832.647	147.63
832.82	145.18
832.994	135.19
833.167	131.26
833.34	127.4
833.514	119.82
833.687	118.84
833.86	120.89
834.034	121.44
834.207	125.35
834.38	128.87
834.553	128.76
834.727	127.97
834.9	134.58
835.073	136.63
835.246	144.25
835.419	158.2
835.593	159.02
835.766	157.02
835.939	166.78
836.112	167.12
836.285	175.41
836.458	193.92
836.631	206.25
836.804	205.41
836.977	204.69
837.15	212.73
837.323	217.79
837.496	227.99
837.669	223.86
837.842	223.76
838.015	236.01
838.188	235.53
838.361	235.42
838.533	232
838.706	238.5
838.879	248.41
839.052	244.88
839.225	248.64
839.398	248.96
839.57	261.87
839.743	257.08
839.916	251.15
840.088	258.4
840.261	264.14
840.434	246.84
840.607	257.31
840.779	252.21
840.952	243.9
841.124	267.59
841.297	305.69
841.47	320.51
841.642	339.16
841.815	353.45
841.987	352.44
842.16	321.69
842.332	404.08
842.505	408.81
842.677	384.31
842.85	355.71
843.022	340.14
843.194	325.4
843.367	387.65
843.539	370.43
843.712	365.38
843.884	362.33
844.056	403.56
844.229	385.23
844.401	371.21
844.573	427.49
844.745	560.13
844.918	576.63
845.09	512.48
845.262	469.06
845.434	511.46
845.606	532.53
845.779	687.68
845.951	692.77
846.123	924.05
846.295	883.23
846.467	712.27
846.639	724.96
846.811	711.5
846.983	726.7
847.155	631.88
847.327	660.09
847.499	709.12
847.671	698.23
847.843	655.54
848.015	519.11
848.187	639.14
848.359	640.85
848.531	547.62
848.703	461.42
848.875	553.54
849.047	496.49
849.218	500.42
849.39	491.14
849.562	399.22
849.734	416.36
849.905	499.09
850.077	457.3
850.249	484.94
850.421	517.73
850.592	532.83
850.764	524.81
850.936	560.64
851.107	564.81
851.279	532.54
851.451	683.63
851.622	605.26
851.794	555.37
851.965	576.51
852.137	552.01
852.308	523.58
852.48	600.24
852.651	480.67
852.823	515.35
852.994	520.18
853.166	534.79
853.337	538.12
853.509	599.88
853.68	682.88
853.851	585.96
854.023	536.08
854.194	471.77
854.365	442.76
854.537	494.46
854.708	476.62
854.879	504.55
855.05	508.07
855.222	421.25
855.393	386.15
855.564	340.62
855.735	355.8
855.906	418.26
856.078	598.06
856.249	592.68
856.42	595.32
856.591	598.76
856.762	600.25
856.933	528.37
857.104	644.99
857.275	650.99
857.446	719.27
857.617	662.23
857.788	616.28
857.959	468.35
858.13	484.6
858.301	474.02
858.472	464.16
858.643	426.32
858.814	465.79
858.985	501.87
859.155	609.91
859.326	666.89
859.497	1113.33
859.668	2073.06
859.839	2312.31
860.009	2476.76
860.18	12494.44
860.351	-13487.5
860.522	12571.43
860.692	-22936.84
860.863	6817.74
861.034	2699.41
861.204	1802.8
861.375	872.49
861.546	633.42
861.716	635.93
861.887	582.93
862.057	561.6
862.228	563.44
862.398	662.33
862.569	570.17
862.739	578.3
862.91	553.99
863.08	549.65
863.251	628.59
863.421	744.54
863.592	1020.74
863.762	2106.37
863.932	1399.68
864.103	1179.43
864.273	1068.91
864.443	1287.67
864.614	1662.59
864.784	907.9
864.954	760.18
865.125	638.49
865.295	632.86
865.465	494.74
865.635	450.18
865.805	443.72
865.976	470.36
866.146	475.73
866.316	489.37
866.486	420.77
866.656	512.98
866.826	539.35
866.996	544.07
867.166	459.39
867.336	526.04
867.506	442.88
867.676	441.13
867.846	468.37
868.016	461.47
868.186	423.09
868.356	439.53
868.526	408.25
868.696	465.23
868.866	479.6
869.036	576.63
869.206	540.9
869.376	620.23
869.545	551.57
869.715	548.19
869.885	508.27
870.055	490.86
870.224	490.38
870.394	533.83
870.564	474.88
870.734	525.96
870.903	525.94
871.073	524.58
871.243	464.85
871.412	558.56
871.582	533.58
871.751	600.58
871.921	748.1
872.091	793.61
872.26	767.63
872.43	818.44
872.599	707.01
872.769	625.36
872.938	750.43
873.108	907.8
873.277	876.1
873.446	799.26
873.616	732.62
873.785	662.12
873.955	702.66
874.124	521.46
874.293	502.46
874.463	523
874.632	441.3
874.801	424.07
874.971	497.5
875.14	495.71
875.309	470.21
875.478	492.86
875.647	486.8
875.817	416.48
875.986	526.8
876.155	505.49
876.324	546.8
876.493	735.47
876.662	548.98
876.831	437.59
877	448.85
877.17	520
877.339	550.29
877.508	581.67
877.677	609.2
877.846	497.73
878.015	583.07
878.184	599.62
878.352	515.97
878.521	546.87
878.69	577.12
878.859	551.59
879.028	480.06
879.197	470.83
879.366	528.22
879.534	490.41
879.703	472.85
879.872	413.4
880.041	334.84
880.21	317.48
880.378	307.94
880.547	282.06
880.716	232.72
880.884	223.49
881.053	205.65
881.222	179.34
881.39	171.12
881.559	162.47
881.727	153.57
881.896	147.53
882.065	138.43
882.233	133.73
882.402	129.51
882.57	129.22
882.739	124.9
882.907	124.36
883.076	125.32
883.244	126.78
883.412	135.63
883.581	136.34
883.749	140.26
883.918	150.4
884.086	160.75
884.254	168.69
884.423	176.25
884.591	188.42
884.759	197.11
884.927	206.55
885.096	214.73
885.264	227.15
885.432	244.05
885.6	270.29
885.769	307.64
885.937	313.96
886.105	337.48
886.273	344.35
886.441	374.41
886.609	407.91
886.777	435.8
886.945	477.2
887.113	545.44
887.281	634.89
887.449	601
887.617	534.07
887.785	553.6
887.953	606.18
888.121	808.11
888.289	755.12
888.457	674.56
888.625	686.36
888.793	841.01
888.961	713.5
889.129	703.75
889.296	652.16
889.464	648.49
889.632	693.67
889.8	632.41
889.967	547.68
890.135	526.22
