Data from JASIL_3268_Reflection_1.txt Node
Date: Tue Nov 17 18:49:37 EST 2015
User: Geneva
Spectrometer: USB4E03002
Autoset integration time: false
Trigger mode: 4
Integration Time (sec): 1.000000E-1
Scans to average: 10
Electric dark correction enabled: false
Nonlinearity correction enabled: false
Boxcar width: 5
Stray light correction enabled: false
XAxis mode: Wavelengths
Stop averaging: false
Number of Pixels in Spectrum: 3648
>>>>>Begin Spectral Data<<<<<
177.575	179.91
177.794	168.18
178.014	254.98
178.233	178.41
178.452	184.77
178.672	205.47
178.891	201.87
179.11	211.97
179.33	262.08
179.549	240.6
179.768	175.56
179.987	176.97
180.207	197.12
180.426	122.61
180.645	160.33
180.864	193.53
181.084	254.73
181.303	-19950
181.522	-422.67
181.741	-250.49
181.96	-32.93
182.179	-75.26
182.398	-135.07
182.618	-420.56
182.837	-1541.18
183.056	-939.13
183.275	778.57
183.494	344.74
183.713	368.12
183.932	256.77
184.151	245.92
184.37	219.35
184.589	242.25
184.808	317.4
185.027	337.11
185.246	584.88
185.465	519.6
185.684	626.53
185.903	1489.71
186.122	616.31
186.341	-1518.37
186.56	-287.1
186.779	-286.96
186.998	-234.53
187.216	-271.84
187.435	-125.56
187.654	-127.56
187.873	-163.81
188.092	-136.69
188.311	-231.44
188.53	-1051.39
188.748	-1376.19
188.967	442.19
189.186	-1146.58
189.405	3242.31
189.623	-87400
189.842	592.55
190.061	346.8
190.28	495.7
190.498	585.27
190.717	4551.85
190.936	124000
191.154	1326.74
191.373	1203.16
191.592	479.74
191.81	517.6
192.029	470.08
192.248	-632.43
192.466	-411.17
192.685	-142.73
192.904	-150.23
193.122	-253.49
193.341	-258.24
193.559	-177.73
193.778	-173.86
193.996	-489.91
194.215	-658.46
194.433	-436.11
194.652	287.05
194.87	382.29
195.089	400.38
195.307	1107.41
195.526	-34300
195.744	101800
195.963	-1187.21
196.181	-529.08
196.399	-297.09
196.618	-242.25
196.836	-484.62
197.055	-418.33
197.273	-1281.33
197.491	-464.74
197.71	-695.45
197.928	1657.14
198.146	-855.71
198.365	-407.96
198.583	2329.17
198.801	3881.25
199.019	-1064.71
199.238	-540
199.456	2143.33
199.674	-375.34
199.892	856.76
200.111	-619.81
200.329	-358.54
200.547	-1934.21
200.765	521.2
200.983	-8900
201.202	-1406.06
201.42	20700
201.638	-343.27
201.856	-57.57
202.074	-61.4
202.292	-23.55
202.51	-41.23
202.728	-54.73
202.946	-104.9
203.165	-94.58
203.383	-195.43
203.601	-234.57
203.819	-225
204.037	-237.76
204.255	-3475
204.473	727.27
204.691	519.34
204.909	504.88
205.127	404.2
205.345	930.36
205.562	-1627.87
205.78	-5768.75
205.998	747.46
206.216	751.16
206.434	726.83
206.652	3578.26
206.87	1402
207.088	-689.66
207.306	2778.26
207.523	-3688.24
207.741	2382.35
207.959	323.33
208.177	461.21
208.395	424.81
208.612	-922.45
208.83	914.52
209.048	408.55
209.266	564.96
209.483	414.83
209.701	325.19
209.919	392.02
210.136	259.14
210.354	396.3
210.572	434.15
210.79	-16340
211.007	436.36
211.225	853.76
211.442	568.38
211.66	429.47
211.878	839.25
212.095	1715.79
212.313	1000
212.53	-260.4
212.748	1124.24
212.966	-219.69
213.183	-735
213.401	-307.27
213.618	6320
213.836	-167.91
214.053	-50.5
214.271	-36.51
214.488	-62.1
214.705	-224.63
214.923	-463.06
215.14	-756.96
215.358	-983.02
215.575	6090
215.793	-487.18
216.01	-284.71
216.227	-240.93
216.445	-218.3
216.662	-857.3
216.879	-612.5
217.097	-395.79
217.314	-318.01
217.531	-362.26
217.749	1642.59
217.966	2392.31
218.183	269.41
218.4	322.22
218.618	218.49
218.835	206.75
219.052	194.84
219.269	151.34
219.487	140.35
219.704	149.61
219.921	119.56
220.138	198.95
220.355	176.79
220.572	243.41
220.79	164.99
221.007	216.79
221.224	150.85
221.441	141.98
221.658	174.41
221.875	207.52
222.092	208.12
222.309	205.01
222.526	127.6
222.743	123.16
222.96	145.61
223.177	167.94
223.394	113.05
223.611	147.67
223.828	152.51
224.045	106.15
224.262	112.85
224.479	95.16
224.696	107.75
224.913	109.57
225.13	125.97
225.347	111.74
225.564	91.51
225.781	105.65
225.997	80.47
226.214	76.66
226.431	73.96
226.648	69.68
226.865	67.37
227.082	58.44
227.298	56.82
227.515	47.17
227.732	48.3
227.949	43.89
228.165	40.78
228.382	42.09
228.599	40.8
228.816	40.93
229.032	35.93
229.249	34.12
229.466	37.86
229.682	38.44
229.899	41.71
230.116	45.46
230.332	42.69
230.549	52.5
230.765	58.57
230.982	61.9
231.199	66.24
231.415	70.82
231.632	80.88
231.848	77.74
232.065	77.81
232.281	81.96
232.498	70.57
232.714	74.3
232.931	68
233.147	58.67
233.364	48.72
233.58	47.96
233.797	56.62
234.013	59.71
234.23	62.07
234.446	65.37
234.662	64.03
234.879	66.38
235.095	72.83
235.312	77.28
235.528	77.87
235.744	81.63
235.961	75.95
236.177	66.76
236.393	71.17
236.61	65.55
236.826	60.08
237.042	71
237.258	59
237.475	48.38
237.691	43.06
237.907	50.51
238.123	51.29
238.339	58.68
238.556	57.1
238.772	50.59
238.988	43.8
239.204	45.24
239.42	32.93
239.636	38.46
239.853	38.93
240.069	30.35
240.285	24.3
240.501	23.44
240.717	23.69
240.933	25.74
241.149	25.77
241.365	26.61
241.581	21.91
241.797	25.33
242.013	24.82
242.229	23.87
242.445	27.38
242.661	30.28
242.877	29.3
243.093	26.28
243.309	22.31
243.525	20.86
243.741	21.46
243.957	26.22
244.173	21.71
244.388	19.43
244.604	18.85
244.82	18.99
245.036	15.24
245.252	17.2
245.468	16.58
245.683	16.18
245.899	16.09
246.115	15.5
246.331	15.32
246.547	15.95
246.762	15.52
246.978	14.94
247.194	13.89
247.409	15.27
247.625	14.59
247.841	16.34
248.057	17.63
248.272	19.59
248.488	20.57
248.703	19.86
248.919	19.66
249.135	21.13
249.35	19.79
249.566	23.44
249.782	23.83
249.997	24.18
250.213	22.55
250.428	19.22
250.644	17.03
250.859	18.65
251.075	17.97
251.29	17.46
251.506	20.85
251.721	23.21
251.937	21.39
252.152	21.4
252.368	22.3
252.583	24.56
252.798	27.16
253.014	28.06
253.229	22.64
253.445	25.69
253.66	28.8
253.875	26.22
254.091	26.15
254.306	26.61
254.521	22.9
254.737	24.33
254.952	23.66
255.167	22.23
255.383	18.59
255.598	24.57
255.813	23.47
256.028	23.42
256.244	23.8
256.459	24.6
256.674	21.7
256.889	23.28
257.104	18.2
257.32	15.78
257.535	15.34
257.75	17.01
257.965	16.46
258.18	15.26
258.395	12.31
258.61	10.95
258.826	9.66
259.041	9.83
259.256	9.29
259.471	10.15
259.686	10.09
259.901	9.59
260.116	8.42
260.331	7.84
260.546	8.95
260.761	11.55
260.976	12.18
261.191	11.45
261.406	10.81
261.621	13.48
261.836	12.73
262.05	12.03
262.265	13.05
262.48	13.91
262.695	15.79
262.91	11.39
263.125	9.03
263.34	9.9
263.555	13.06
263.769	15.06
263.984	10.07
264.199	12.56
264.414	15.2
264.629	17.76
264.843	17.11
265.058	13.99
265.273	14.23
265.488	13.3
265.702	12.28
265.917	10.48
266.132	10.77
266.346	11.2
266.561	10.4
266.776	10.01
266.99	7.38
267.205	7.71
267.42	9.88
267.634	13.67
267.849	16.36
268.063	17.32
268.278	17.26
268.492	15.66
268.707	16.61
268.922	17.49
269.136	17.66
269.351	18.72
269.565	18.28
269.78	18.55
269.994	15.8
270.209	14.53
270.423	14.6
270.637	16.53
270.852	17.58
271.066	18.24
271.281	18.14
271.495	16.5
271.709	16.51
271.924	15.86
272.138	12.76
272.353	12.85
272.567	14.52
272.781	14.04
272.996	14.71
273.21	15.27
273.424	15.29
273.638	16.47
273.853	18.52
274.067	19.48
274.281	19.76
274.495	23.08
274.71	22.73
274.924	21.69
275.138	20.03
275.352	18.39
275.566	16.3
275.781	13.88
275.995	13.09
276.209	13.29
276.423	11.53
276.637	11.19
276.851	9.25
277.065	9.14
277.279	7.26
277.493	10.24
277.707	10.47
277.921	10.02
278.135	12.57
278.349	10.71
278.563	10.31
278.777	9.53
278.991	11.58
279.205	10.93
279.419	11.89
279.633	14.84
279.847	13.71
280.061	15.44
280.275	15.46
280.489	14.17
280.703	13.06
280.917	12.41
281.131	13.02
281.344	12.2
281.558	12.88
281.772	13.37
281.986	11.08
282.2	11.09
282.414	10.73
282.627	11.44
282.841	13.01
283.055	14
283.269	15.21
283.482	15.8
283.696	17.2
283.91	16.76
284.123	16.7
284.337	18.26
284.551	18.03
284.764	16.24
284.978	17.35
285.192	15.49
285.405	15.44
285.619	14.8
285.833	15.21
286.046	13.89
286.26	13.4
286.473	12.45
286.687	11.96
286.9	13.83
287.114	15.43
287.327	14.04
287.541	15.17
287.754	15.67
287.968	14.63
288.181	13.73
288.395	13.9
288.608	14.71
288.822	14.02
289.035	12.91
289.248	11.08
289.462	9.24
289.675	9.21
289.889	8.6
290.102	8.82
290.315	10.3
290.529	10.19
290.742	11.53
290.955	11.22
291.169	11.61
291.382	12.23
291.595	12.35
291.808	13.22
292.022	13.3
292.235	14.81
292.448	15.11
292.661	13.95
292.875	14.51
293.088	11.58
293.301	11.78
293.514	10.22
293.727	10.35
293.94	9.6
294.153	11.21
294.367	11.45
294.58	11.02
294.793	9.99
295.006	9.26
295.219	8.87
295.432	9.08
295.645	9.19
295.858	10.48
296.071	9.91
296.284	10.35
296.497	8.68
296.71	8.65
296.923	8.29
297.136	7.72
297.349	9.02
297.562	9.51
297.775	11
297.988	11.39
298.201	13.09
298.414	13.81
298.626	14.59
298.839	15.2
299.052	15.64
299.265	15.46
299.478	16
299.691	15.89
299.903	15.37
300.116	14.26
300.329	14.61
300.542	13.08
300.755	11.9
300.967	11.48
301.18	11.98
301.393	11.07
301.605	12.24
301.818	12.24
302.031	11.72
302.243	11.98
302.456	11.23
302.669	10.56
302.881	11.34
303.094	12.2
303.307	12.41
303.519	12.43
303.732	13.61
303.944	13.77
304.157	15.22
304.37	15.67
304.582	15.67
304.795	16.77
305.007	17.23
305.22	14.98
305.432	15.28
305.645	15.26
305.857	13.91
306.069	13.04
306.282	13.25
306.494	12.95
306.707	10.71
306.919	9.08
307.132	9.39
307.344	8.58
307.556	9.62
307.769	10.6
307.981	10.85
308.193	11.28
308.406	11.55
308.618	10.58
308.83	10.59
309.043	12.4
309.255	12.67
309.467	13.19
309.679	12.84
309.892	12.87
310.104	11.93
310.316	11.27
310.528	10.56
310.74	10.16
310.953	11.2
311.165	10.85
311.377	11.13
311.589	12.91
311.801	11.56
312.013	11.99
312.225	11.9
312.437	12.16
312.649	12.11
312.862	13.32
313.074	14.47
313.286	14.74
313.498	14.37
313.71	12.59
313.922	10.69
314.134	11.38
314.346	11.98
314.558	12.59
314.77	12.62
314.982	14.23
315.193	12.97
315.405	12.3
315.617	9.25
315.829	8.34
316.041	10.08
316.253	8.98
316.465	9.42
316.677	8.29
316.888	7.41
317.1	8.5
317.312	7.94
317.524	8.98
317.736	10.83
317.947	14.42
318.159	16.86
318.371	16.08
318.583	17.05
318.794	17.46
319.006	19.44
319.218	20.54
319.43	19.87
319.641	19.26
319.853	20.95
320.064	18.31
320.276	17.18
320.488	15.84
320.699	15.51
320.911	14.81
321.123	14.98
321.334	14.75
321.546	13.8
321.757	13.56
321.969	13.41
322.18	12.22
322.392	13.3
322.603	12.75
322.815	13.04
323.026	14.36
323.238	15.57
323.449	15.53
323.661	14.22
323.872	14.85
324.083	14
324.295	15.07
324.506	13.88
324.718	13.88
324.929	15.06
325.14	13.55
325.352	11.73
325.563	11.87
325.774	10.67
325.986	10.23
326.197	10.48
326.408	10.99
326.62	10.33
326.831	11.34
327.042	11.12
327.253	11.54
327.464	12.58
327.676	13.61
327.887	13.34
328.098	14.94
328.309	14.69
328.52	14.12
328.732	13.96
328.943	14.36
329.154	14.92
329.365	14.22
329.576	12.22
329.787	12.44
329.998	12.05
330.209	13.33
330.42	11.89
330.631	13.59
330.842	14.69
331.053	16.34
331.264	16.4
331.475	16.15
331.686	18.35
331.897	18.64
332.108	18.61
332.319	20.21
332.53	19.54
332.741	19.3
332.952	18.6
333.163	17.91
333.374	17
333.585	16.43
333.795	15.73
334.006	14.63
334.217	15.23
334.428	16.2
334.639	14.37
334.849	15.33
335.06	16.23
335.271	16.99
335.482	17.31
335.692	16.83
335.903	16.87
336.114	17.69
336.325	16.16
336.535	15.82
336.746	14.7
336.957	15.93
337.167	16.23
337.378	15.7
337.589	15.55
337.799	14.36
338.01	15.68
338.22	15.52
338.431	17.44
338.642	19.39
338.852	18.97
339.063	19.55
339.273	20.04
339.484	18.37
339.694	19.01
339.905	19.58
340.115	19.79
340.326	18.03
340.536	19.51
340.746	18.1
340.957	18.23
341.167	19.68
341.378	20.22
341.588	20.84
341.799	20.73
342.009	21.01
342.219	20.67
342.43	21.27
342.64	22.57
342.85	22.01
343.061	21.94
343.271	21.39
343.481	20.58
343.691	20.23
343.902	18.81
344.112	17.96
344.322	17.69
344.532	17.03
344.743	17.94
344.953	18.98
345.163	18.77
345.373	19.32
345.583	19.9
345.793	19.55
346.004	19.81
346.214	20.08
346.424	20.87
346.634	21.05
346.844	20.32
347.054	18.87
347.264	16.96
347.474	17.18
347.684	16.81
347.894	14.5
348.104	14.74
348.314	13.86
348.524	13.37
348.734	14.5
348.944	14.21
349.154	15.18
349.364	15.88
349.574	17.21
349.784	17.14
349.994	18.03
350.204	19.44
350.413	19.54
350.623	19.34
350.833	19.05
351.043	19.64
351.253	20.31
351.463	20.86
351.672	21.34
351.882	20.64
352.092	19.3
352.302	18.51
352.511	19.09
352.721	18.17
352.931	18.49
353.141	19.03
353.35	18.44
353.56	16.46
353.77	15.56
353.979	14.42
354.189	14.23
354.399	15.41
354.608	14.28
354.818	13.67
355.027	14.97
355.237	14.06
355.447	13.87
355.656	12.55
355.866	14.2
356.075	13.83
356.285	14.35
356.494	15.18
356.704	14.81
356.913	15.25
357.123	15.32
357.332	13.83
357.542	15.06
357.751	14.87
357.96	15.37
358.17	14.22
358.379	14.35
358.589	14.12
358.798	12.9
359.007	12.85
359.217	13.19
359.426	13.51
359.635	14.35
359.845	14.17
360.054	14.42
360.263	14.97
360.472	15.74
360.682	15.98
360.891	15.56
361.1	16.05
361.309	16.23
361.519	15.77
361.728	15.21
361.937	14.91
362.146	14.53
362.355	15.15
362.564	14.72
362.774	14.89
362.983	14.67
363.192	15.14
363.401	15.55
363.61	15.53
363.819	15.54
364.028	15.66
364.237	16.69
364.446	17.04
364.655	15.73
364.864	16.1
365.073	14.35
365.282	14.61
365.491	14.75
365.7	14.52
365.909	14.07
366.118	14.19
366.327	14.65
366.536	14.52
366.745	12.81
366.954	13.99
367.162	13.11
367.371	14.57
367.58	14.41
367.789	15.24
367.998	14.63
368.207	14.83
368.415	14.83
368.624	15.28
368.833	15.31
369.042	17.33
369.25	16.86
369.459	17.89
369.668	17.46
369.877	17.6
370.085	16.58
370.294	16.53
370.503	16.76
370.711	16.67
370.92	15.47
371.129	15.47
371.337	14.88
371.546	14.29
371.754	13.95
371.963	14.14
372.171	14.78
372.38	15.37
372.589	15.89
372.797	15.07
373.006	15.52
373.214	15.83
373.423	15.44
373.631	16.08
373.84	16.68
374.048	16.78
374.256	17.09
374.465	16.27
374.673	15.59
374.882	15.36
375.09	16.73
375.298	15.77
375.507	16.35
375.715	16.16
375.923	15.72
376.132	15.14
376.34	14.84
376.548	13.41
376.757	13.76
376.965	14.04
377.173	13.73
377.381	12.77
377.59	13.68
377.798	13.17
378.006	13.24
378.214	13.41
378.423	14.05
378.631	13.52
378.839	15.15
379.047	15.84
379.255	16.15
379.463	16.1
379.671	16.29
379.879	16.61
380.088	17.37
380.296	16.94
380.504	16.62
380.712	16.39
380.92	16.82
381.128	15.47
381.336	14.5
381.544	13.85
381.752	14.49
381.96	14.81
382.168	13.93
382.376	12.95
382.584	12.5
382.791	12.21
382.999	11.95
383.207	12.27
383.415	13.11
383.623	13.26
383.831	13.47
384.039	12.68
384.247	12.61
384.454	13
384.662	13.31
384.87	13.95
385.078	13.73
385.285	14.51
385.493	14.73
385.701	13.83
385.909	13.69
386.116	13.55
386.324	13.06
386.532	13.27
386.739	13.25
386.947	12.88
387.155	13.05
387.362	14.37
387.57	14.11
387.778	13.95
387.985	15.31
388.193	15.78
388.4	16.08
388.608	16.89
388.816	16.8
389.023	16.68
389.231	17.09
389.438	16.51
389.646	15.56
389.853	15.1
390.061	14.46
390.268	13.89
390.475	14.15
390.683	14.1
390.89	14.07
391.098	13.64
391.305	13.91
391.512	14.07
391.72	14.18
391.927	14.07
392.135	14.25
392.342	14.81
392.549	14.64
392.756	13.97
392.964	13.47
393.171	13.35
393.378	13.63
393.586	13.01
393.793	13.38
394	13.51
394.207	13.58
394.414	13.22
394.622	12.7
394.829	13.22
395.036	13.39
395.243	13.45
395.45	13.76
395.657	13.52
395.864	13.49
396.072	12.17
396.279	12.73
396.486	13.01
396.693	13.25
396.9	13.63
397.107	13.12
397.314	12.89
397.521	12.52
397.728	12.39
397.935	12.66
398.142	13.64
398.349	14.17
398.556	13.6
398.763	13.42
398.97	13.63
399.177	13.88
399.383	13.89
399.59	13.94
399.797	14.32
400.004	14.45
400.211	13.85
400.418	13.7
400.625	13.7
400.831	14.28
401.038	14.41
401.245	13.84
401.452	13.62
401.658	13.9
401.865	14.08
402.072	14.44
402.279	14.07
402.485	14.64
402.692	13.76
402.899	14.12
403.105	13.65
403.312	14.05
403.519	14.95
403.725	15.09
403.932	14.82
404.138	14.78
404.345	14.85
404.552	14.86
404.758	14.92
404.965	15.04
405.171	14.94
405.378	15.36
405.584	14.95
405.791	14.02
405.997	13.88
406.204	14.17
406.41	14.22
406.617	14.36
406.823	14.85
407.029	14.76
407.236	14.99
407.442	14.91
407.649	14.57
407.855	14.26
408.061	15.03
408.268	15.24
408.474	15.19
408.68	15.56
408.887	15.06
409.093	14.58
409.299	14.56
409.505	14.71
409.712	14.58
409.918	14.66
410.124	14.97
410.33	14.87
410.537	14.6
410.743	14.73
410.949	14.98
411.155	14.91
411.361	14.92
411.567	15.14
411.773	15.14
411.98	15.45
412.186	14.99
412.392	15.37
412.598	15.34
412.804	15.58
413.01	15.24
413.216	14.83
413.422	15.86
413.628	15.43
413.834	14.91
414.04	14.87
414.246	14.67
414.452	14.93
414.658	14.52
414.864	14.01
415.07	14.16
415.275	14.34
415.481	14.14
415.687	14.01
415.893	14.52
416.099	15
416.305	15.2
416.511	15.28
416.716	15.03
416.922	15.45
417.128	16.04
417.334	15.97
417.539	16.11
417.745	15.97
417.951	15.72
418.157	15.42
418.362	15.16
418.568	14.8
418.774	14.74
418.979	14.84
419.185	14.37
419.391	14.1
419.596	13.86
419.802	13.79
420.008	13.63
420.213	11.14
420.419	11.48
420.624	11.74
420.83	11.75
421.035	11.66
421.241	11.6
421.446	11.91
421.652	11.96
421.857	12.19
422.063	12.45
422.268	12.68
422.474	15.19
422.679	14.95
422.885	14.54
423.09	14.86
423.295	15.16
423.501	15.34
423.706	15.24
423.911	15.25
424.117	15.24
424.322	14.89
424.527	15
424.733	15
424.938	15.3
425.143	15.55
425.349	15.44
425.554	15.38
425.759	15.69
425.964	15.62
426.169	15.65
426.375	15.82
426.58	16.05
426.785	15.74
426.99	15.68
427.195	15.86
427.4	15.7
427.605	15.93
427.811	15.53
428.016	15.23
428.221	15.56
428.426	15.28
428.631	14.72
428.836	14.82
429.041	15.28
429.246	14.92
429.451	14.63
429.656	14.77
429.861	14.43
430.066	15.09
430.271	14.91
430.476	14.6
430.681	14.95
430.886	15.26
431.09	15.29
431.295	14.92
431.5	15.62
431.705	15.9
431.91	16.04
432.115	16.02
432.32	15.75
432.524	16.21
432.729	16.52
432.934	16.47
433.139	16.35
433.343	15.97
433.548	15.94
433.753	15.72
433.958	15.58
434.162	15.5
434.367	15.69
434.572	15.32
434.776	15
434.981	14.84
435.186	15.18
435.39	15.19
435.595	15.15
435.799	15.37
436.004	15.21
436.209	15.16
436.413	14.97
436.618	15.12
436.822	15.7
437.027	15.89
437.231	16.27
437.436	15.62
437.64	15.9
437.845	16.06
438.049	16.6
438.253	16.68
438.458	16.59
438.662	16.84
438.867	16.43
439.071	16.24
439.275	16.22
439.48	15.99
439.684	16.16
439.888	15.86
440.093	15.85
440.297	15.44
440.501	15.43
440.706	15.22
440.91	15.03
441.114	15.2
441.318	15.04
441.523	14.88
441.727	14.83
441.931	15.14
442.135	15.24
442.339	15.16
442.543	15.49
442.748	15.24
442.952	15.24
443.156	15.14
443.36	15.34
443.564	15.39
443.768	15.09
443.972	15.1
444.176	14.73
444.38	14.88
444.584	14.97
444.788	14.56
444.992	14.66
445.196	14.68
445.4	14.84
445.604	14.89
445.808	15.12
446.012	15.26
446.216	15.26
446.42	15.29
446.624	15.02
446.828	15.24
447.032	15.51
447.235	15.68
447.439	15.67
447.643	15.76
447.847	15.55
448.051	15.25
448.254	15.07
448.458	14.81
448.662	15.01
448.866	15.22
449.069	15.04
449.273	14.69
449.477	14.43
449.681	14.64
449.884	14.36
450.088	14.39
450.292	14.74
450.495	14.89
450.699	14.99
450.902	14.97
451.106	15.23
451.31	14.96
451.513	15.4
451.717	15.48
451.92	15.62
452.124	15.58
452.327	15.71
452.531	15.83
452.734	16.23
452.938	16.6
453.141	16.69
453.345	16.59
453.548	16.92
453.752	16.46
453.955	16.59
454.158	16.37
454.362	16.35
454.565	16.16
454.769	15.73
454.972	15.23
455.175	15.18
455.379	14.86
455.582	14.76
455.785	14.84
455.988	15.33
456.192	14.92
456.395	15.12
456.598	15.28
456.801	15.37
457.005	15.38
457.208	15.5
457.411	15.23
457.614	15.12
457.817	14.8
458.021	14.11
458.224	14.1
458.427	14.25
458.63	14.23
458.833	14.28
459.036	14.16
459.239	14.19
459.442	14.25
459.645	14.15
459.848	14.54
460.051	14.67
460.254	15.44
460.457	15.34
460.66	15.32
460.863	14.9
461.066	14.83
461.269	14.93
461.472	15.09
461.675	14.81
461.878	14.6
462.081	14.53
462.284	14.25
462.486	13.89
462.689	13.88
462.892	14.16
463.095	15.02
463.298	15.02
463.5	15.21
463.703	15.18
463.906	16.03
464.109	16.82
464.311	16.67
464.514	16.75
464.717	17.04
464.92	17.2
465.122	16.71
465.325	16.14
465.528	16.16
465.73	16.23
465.933	16.1
466.135	15.6
466.338	15.32
466.541	15.06
466.743	15.41
466.946	15.01
467.148	14.48
467.351	14.8
467.553	15.43
467.756	15.44
467.958	14.82
468.161	14.68
468.363	14.7
468.566	14.68
468.768	14.78
468.971	14.64
469.173	14.76
469.375	15.17
469.578	15.31
469.78	14.99
469.983	14.76
470.185	15.38
470.387	15.3
470.59	15.34
470.792	15.48
470.994	16.03
471.196	16.16
471.399	16.34
471.601	15.92
471.803	15.44
472.005	15.38
472.208	15.75
472.41	15.45
472.612	15.71
472.814	15.53
473.016	15.66
473.218	15.3
473.421	15.25
473.623	15.34
473.825	15.53
474.027	15.34
474.229	15.3
474.431	14.91
474.633	15.3
474.835	15.09
475.037	15.31
475.239	14.88
475.441	14.73
475.643	14.82
475.845	14.87
476.047	15.2
476.249	15.78
476.451	15.8
476.653	16.24
476.855	15.94
477.057	15.96
477.258	15.88
477.46	15.85
477.662	15.99
477.864	16.07
478.066	15.59
478.268	15.23
478.469	15.27
478.671	15.06
478.873	14.97
479.075	14.68
479.276	14.72
479.478	14.65
479.68	14.56
479.882	14.4
480.083	14.17
480.285	14.03
480.487	14.08
480.688	13.99
480.89	13.96
481.091	13.95
481.293	13.98
481.495	14.02
481.696	14.09
481.898	14.17
482.099	14.2
482.301	14.24
482.502	14.26
482.704	14.26
482.905	14.2
483.107	14.23
483.308	14.08
483.51	14.18
483.711	14.15
483.913	14.1
484.114	13.99
484.315	13.88
484.517	13.86
484.718	13.87
484.92	13.78
485.121	13.68
485.322	13.61
485.524	13.78
485.725	13.79
485.926	13.79
486.127	13.85
486.329	14.07
486.53	14.13
486.731	14.04
486.932	13.97
487.134	14.08
487.335	14.17
487.536	14.3
487.737	14.45
487.938	14.4
488.139	14.43
488.341	14.32
488.542	14.2
488.743	14.46
488.944	14.54
489.145	14.67
489.346	14.6
489.547	14.72
489.748	14.69
489.949	14.3
490.15	14.34
490.351	14.3
490.552	14.44
490.753	14.44
490.954	14.13
491.155	14.13
491.356	14.07
491.557	14.26
491.758	14.14
491.959	14.18
492.159	14.34
492.36	14.44
492.561	14.46
492.762	14.61
492.963	14.79
493.164	14.91
493.364	15.25
493.565	15.54
493.766	15.23
493.967	15.33
494.167	15.11
494.368	15.09
494.569	14.89
494.769	15.06
494.97	14.69
495.171	14.72
495.371	14.71
495.572	14.39
495.773	14.45
495.973	14.64
496.174	14.66
496.375	14.77
496.575	15.02
496.776	15.03
496.976	15.02
497.177	15.21
497.377	15.14
497.578	15.08
497.778	15.39
497.979	15.36
498.179	15.22
498.38	15.4
498.58	15.35
498.78	15.31
498.981	15.43
499.181	15.75
499.382	15.79
499.582	15.83
499.782	16.02
499.983	15.83
500.183	15.83
500.383	16.01
500.584	15.93
500.784	16.21
500.984	16.03
501.184	15.84
501.385	15.38
501.585	15.56
501.785	15.53
501.985	15.63
502.185	15.34
502.386	15.3
502.586	15.36
502.786	15.35
502.986	15.13
503.186	15.38
503.386	15.53
503.586	15.83
503.786	15.54
503.987	15.95
504.187	16.12
504.387	16.62
504.587	16.63
504.787	16.76
504.987	16.67
505.187	16.93
505.387	16.71
505.587	16.93
505.786	17.04
505.986	16.87
506.186	16.44
506.386	16.36
506.586	16.1
506.786	16.48
506.986	16.47
507.186	16.55
507.386	16.29
507.585	16.38
507.785	16.07
507.985	15.88
508.185	15.95
508.384	15.84
508.584	16.04
508.784	16.31
508.984	15.98
509.183	16.08
509.383	16.06
509.583	16.09
509.782	15.95
509.982	15.94
510.182	15.97
510.381	16.12
510.581	16.29
510.781	16.18
510.98	15.83
511.18	16.07
511.379	15.89
511.579	15.7
511.778	15.75
511.978	15.98
512.177	16.12
512.377	16.29
512.576	16.23
512.776	16.12
512.975	15.66
513.175	15.66
513.374	15.54
513.573	15.47
513.773	15.83
513.972	16.05
514.172	16.04
514.371	16.58
514.57	16.24
514.77	16.58
514.969	17.05
515.168	17.5
515.367	17.86
515.567	18.06
515.766	18.43
515.965	18.27
516.164	18.32
516.364	18.43
516.563	18.09
516.762	18.29
516.961	18.29
517.16	18.16
517.359	18.26
517.559	18.17
517.758	17.93
517.957	17.91
518.156	18.29
518.355	18.3
518.554	18.59
518.753	18.72
518.952	18.89
519.151	18.84
519.35	18.81
519.549	18.81
519.748	18.99
519.947	19.24
520.146	19.3
520.345	18.93
520.544	19.21
520.743	18.95
520.942	18.99
521.141	18.99
521.339	19.14
521.538	19.36
521.737	19.59
521.936	19.44
522.135	19.61
522.333	19.54
522.532	19.54
522.731	19.21
522.93	19.06
523.129	19.03
523.327	18.86
523.526	18.97
523.725	18.9
523.923	18.62
524.122	18.78
524.321	18.73
524.519	18.66
524.718	18.89
524.917	19.06
525.115	19.11
525.314	19.33
525.512	19.35
525.711	19.25
525.909	19.12
526.108	19.04
526.306	18.93
526.505	18.88
526.703	18.69
526.902	18.46
527.1	18.36
527.299	18.37
527.497	18.31
527.696	18.3
527.894	18.18
528.092	18.17
528.291	18.27
528.489	18.34
528.688	18.38
528.886	18.51
529.084	18.72
529.283	18.9
529.481	19.05
529.679	18.91
529.877	18.85
530.076	18.99
530.274	19.2
530.472	19.3
530.67	19.44
530.869	19.6
531.067	19.73
531.265	19.68
531.463	19.55
531.661	19.43
531.859	19.6
532.057	19.75
532.255	19.9
532.454	19.95
532.652	19.91
532.85	19.89
533.048	19.73
533.246	19.77
533.444	19.99
533.642	20.15
533.84	20.51
534.038	20.57
534.236	20.71
534.434	20.87
534.632	21.1
534.83	21.25
535.027	21.11
535.225	21.16
535.423	21.19
535.621	20.96
535.819	20.86
536.017	20.76
536.215	20.81
536.412	20.85
536.61	20.76
536.808	20.65
537.006	20.64
537.203	21.13
537.401	21.22
537.599	21.31
537.797	21.49
537.994	21.53
538.192	21.45
538.39	21.55
538.587	21.58
538.785	21.48
538.983	21.67
539.18	21.61
539.378	21.11
539.575	20.97
539.773	20.93
539.97	20.97
540.168	21.05
540.366	21.05
540.563	21.04
540.761	21.08
540.958	21.01
541.155	20.95
541.353	20.94
541.55	21.2
541.748	21.47
541.945	21.77
542.143	21.66
542.34	21.84
542.537	21.96
542.735	21.93
542.932	22.15
543.129	22.49
543.327	22.58
543.524	22.58
543.721	22.5
543.919	22.25
544.116	22.17
544.313	22.4
544.51	22.31
544.708	22.31
544.905	22.72
545.102	22.72
545.299	22.76
545.496	22.84
545.693	23.22
545.891	23.39
546.088	23.8
546.285	23.7
546.482	23.75
546.679	23.87
546.876	24.02
547.073	24.06
547.27	23.77
547.467	23.75
547.664	23.71
547.861	23.64
548.058	23.72
548.255	23.57
548.452	23.84
548.649	24.31
548.846	24.3
549.043	24.55
549.24	24.82
549.437	25.19
549.633	25.22
549.83	25.29
550.027	25.21
550.224	25.25
550.421	25.2
550.618	25.34
550.814	24.97
551.011	25.1
551.208	25.03
551.405	24.91
551.601	25.04
551.798	25
551.995	25.21
552.191	25.55
552.388	26.05
552.585	26.15
552.781	26.07
552.978	26.21
553.175	26.2
553.371	26.11
553.568	26.04
553.764	26.2
553.961	26.52
554.157	26.38
554.354	26.38
554.55	26
554.747	26.43
554.943	26.56
555.14	27.01
555.336	26.66
555.533	26.56
555.729	26.49
555.926	26.11
556.122	26.27
556.318	26.46
556.515	26.38
556.711	26.67
556.907	26.91
557.104	26.82
557.3	26.34
557.496	27.01
557.693	27.31
557.889	27.75
558.085	28.47
558.281	28.83
558.478	29.21
558.674	29.31
558.87	29.03
559.066	28.7
559.262	29.03
559.459	29.07
559.655	29.23
559.851	29.42
560.047	29.07
560.243	28.73
560.439	28.45
560.635	28.22
560.831	28.23
561.027	28.66
561.223	28.63
561.419	28.38
561.615	28.77
561.811	28.58
562.007	28.57
562.203	28.77
562.399	28.64
562.595	28.76
562.791	28.28
562.987	28.24
563.183	27.92
563.379	28.1
563.575	28.05
563.771	27.66
563.966	27.95
564.162	28.16
564.358	28.42
564.554	28.56
564.75	28.65
564.945	28.82
565.141	28.88
565.337	29.15
565.533	29.3
565.728	29.16
565.924	29.37
566.12	29.2
566.315	29.31
566.511	29.17
566.707	29.11
566.902	28.78
567.098	29.22
567.293	29.58
567.489	29.44
567.684	29.62
567.88	29.83
568.076	30.05
568.271	30.09
568.467	29.97
568.662	29.87
568.858	30.37
569.053	30.83
569.248	30.7
569.444	30.6
569.639	30.67
569.835	30.58
570.03	30.66
570.225	30.77
570.421	30.69
570.616	30.44
570.812	30.7
571.007	30.47
571.202	30.26
571.397	30.48
571.593	30.32
571.788	30.38
571.983	30.31
572.178	30.64
572.374	30.47
572.569	30.89
572.764	31.41
572.959	31.35
573.154	31.49
573.35	31.49
573.545	31.51
573.74	32.13
573.935	32.11
574.13	32.08
574.325	31.99
574.52	32.09
574.715	31.68
574.91	31.49
575.105	31.61
575.3	31.53
575.495	31.89
575.69	31.78
575.885	31.72
576.08	31.8
576.275	32.02
576.47	32.03
576.665	32.39
576.86	32.63
577.055	32.94
577.25	33.12
577.444	33.59
577.639	33.45
577.834	33.3
578.029	33.09
578.224	33.34
578.418	32.93
578.613	32.78
578.808	32.91
579.003	32.89
579.197	32.36
579.392	32.05
579.587	31.67
579.781	31.8
579.976	32.1
580.171	32.25
580.365	32.06
580.56	32.11
580.755	32.65
580.949	32.35
581.144	32.81
581.338	33.26
581.533	33.7
581.727	33.94
581.922	34.35
582.116	34.61
582.311	34.38
582.505	34.22
582.7	34.6
582.894	34.23
583.089	34.07
583.283	34.02
583.478	34.07
583.672	33.87
583.866	33.45
584.061	33.08
584.255	33.01
584.449	33.02
584.644	33.08
584.838	32.88
585.032	32.98
585.226	33.1
585.421	33.19
585.615	33.17
585.809	33.56
586.003	33.85
586.198	34.04
586.392	33.66
586.586	33.82
586.78	33.93
586.974	34.04
587.168	34.43
587.363	34.64
587.557	34.82
587.751	34.72
587.945	34.72
588.139	34.87
588.333	34.36
588.527	34.6
588.721	34.4
588.915	34.75
589.109	34.81
589.303	34.3
589.497	34.19
589.691	33.76
589.885	33.76
590.079	33.4
590.273	33.24
590.466	33.84
590.66	34.03
590.854	34.1
591.048	34.2
591.242	34.57
591.436	34.84
591.629	35.14
591.823	35.66
592.017	36.15
592.211	36.3
592.404	36.71
592.598	36.94
592.792	36.7
592.986	37.23
593.179	37.14
593.373	36.96
593.567	37.18
593.76	36.71
593.954	36.45
594.147	36.11
594.341	35.74
594.535	35.83
594.728	35.14
594.922	35.26
595.115	34.73
595.309	34.8
595.502	34.71
595.696	34.32
595.889	34.42
596.083	34.4
596.276	34.43
596.47	34.51
596.663	34.43
596.856	34.91
597.05	35.1
597.243	35.46
597.437	35.62
597.63	35.69
597.823	35.91
598.017	36.06
598.21	36.09
598.403	35.81
598.596	36.3
598.79	36.09
598.983	35.82
599.176	36.28
599.369	35.87
599.563	35.77
599.756	35.94
599.949	35.78
600.142	35.42
600.335	35.35
600.528	35.75
600.722	35.19
600.915	35.37
601.108	35.54
601.301	35.08
601.494	35.36
601.687	35.61
601.88	35.7
602.073	36.07
602.266	36.28
602.459	36.13
602.652	36.13
602.845	36.57
603.038	36.43
603.231	36.15
603.424	36.01
603.617	35.59
603.809	35.41
604.002	35.08
604.195	34.95
604.388	34.69
604.581	35.01
604.774	35.23
604.966	35.17
605.159	35.46
605.352	35.98
605.545	35.76
605.737	36.89
605.93	36.81
606.123	37.62
606.316	37.66
606.508	38.74
606.701	39.15
606.894	39.11
607.086	39.71
607.279	39.48
607.471	39.62
607.664	40.21
607.857	39.7
608.049	39.78
608.242	39.38
608.434	39.55
608.627	39.17
608.819	38.54
609.012	38.56
609.204	37.88
609.397	38.2
609.589	37.54
609.782	37.5
609.974	37.84
610.166	38.09
610.359	38.07
610.551	38.02
610.743	38.16
610.936	38.18
611.128	38.23
611.32	38.04
611.513	37.62
611.705	38.17
611.897	38.35
612.09	38.45
612.282	38.28
612.474	38.3
612.666	38.29
612.858	38.09
613.051	38.57
613.243	38.91
613.435	39.28
613.627	39.32
613.819	39.36
614.011	39.63
614.203	39.84
614.395	40.21
614.588	40.41
614.78	40.45
614.972	40.37
615.164	40.56
615.356	40.39
615.548	40.43
615.74	40.67
615.932	40.24
616.124	39.97
616.315	40.27
616.507	39.9
616.699	40.13
616.891	40.3
617.083	40.68
617.275	40.77
617.467	41.12
617.659	41.31
617.85	41.59
618.042	41.89
618.234	41.91
618.426	41.45
618.618	41.74
618.809	41.96
619.001	41.66
619.193	42.07
619.384	41.92
619.576	41.77
619.768	41.41
619.959	41.09
620.151	41
620.343	41.03
620.534	41.44
620.726	40.99
620.917	40.93
621.109	41.09
621.301	40.97
621.492	41.1
621.684	40.91
621.875	41.75
622.067	42.11
622.258	42.62
622.45	42.85
622.641	41.84
622.832	42.03
623.024	41.74
623.215	41.75
623.407	41.36
623.598	41.62
623.789	41.67
623.981	41.52
624.172	40.94
624.363	41.31
624.555	41.41
624.746	41.68
624.937	41.59
625.129	41.71
625.32	41.49
625.511	41.15
625.702	41.14
625.893	41.49
626.085	41.1
626.276	41.71
626.467	41.64
626.658	41.3
626.849	41.25
627.04	41.27
627.231	41.19
627.422	41.69
627.614	42.09
627.805	42.06
627.996	41.42
628.187	41.23
628.378	41.06
628.569	40.59
628.76	41.05
628.951	41.2
629.142	41.66
629.332	41.57
629.523	41.83
629.714	41.83
629.905	41.27
630.096	41.58
630.287	42.28
630.478	42.03
630.669	42.2
630.859	41.53
631.05	41.39
631.241	41.09
631.432	41.86
631.623	40.97
631.813	41.14
632.004	41.38
632.195	40.96
632.385	40.6
632.576	41.14
632.767	41.54
632.957	41.98
633.148	42
633.339	42.04
633.529	41.46
633.72	42.11
633.91	41.74
634.101	41.6
634.292	41.64
634.482	42.24
634.673	42.11
634.863	41.32
635.054	41.37
635.244	41.3
635.435	41.7
635.625	41.72
635.815	41.69
636.006	41.88
636.196	41.88
636.387	41.9
636.577	41.33
636.767	41.5
636.958	41.67
637.148	41.14
637.338	41.43
637.529	41.44
637.719	41.91
637.909	41.93
638.099	42.56
638.29	42.67
638.48	42.99
638.67	42.78
638.86	42.07
639.05	41.67
639.241	42.65
639.431	42.26
639.621	42.35
639.811	42.23
640.001	42.46
640.191	42.51
640.381	43.17
640.571	43.22
640.761	44.15
640.951	45.39
641.141	46.27
641.331	45.78
641.521	46.62
641.711	47.35
641.901	46.81
642.091	47.46
642.281	47.59
642.471	46.99
642.661	47.55
642.851	47.46
643.041	46.92
643.231	46.57
643.42	46.75
643.61	46.12
643.8	45.2
643.99	46.04
644.18	45.35
644.369	44.55
644.559	44.58
644.749	44.33
644.939	44.05
645.128	44.6
645.318	45
645.508	44.75
645.697	45.01
645.887	44.82
646.076	44.66
646.266	44.72
646.456	45.2
646.645	44.93
646.835	44.86
647.024	45.52
647.214	45.09
647.403	45.15
647.593	45.11
647.782	44.72
647.972	44.96
648.161	44.71
648.351	44.39
648.54	44.29
648.73	44.82
648.919	44.71
649.108	43.53
649.298	43.79
649.487	43.97
649.677	44.17
649.866	45.09
650.055	44.88
650.244	44.72
650.434	45.11
650.623	44.35
650.812	43.98
651.002	43.6
651.191	44.37
651.38	43.63
651.569	43.82
651.758	43.49
651.947	43.45
652.137	43.35
652.326	43.4
652.515	43.08
652.704	44.25
652.893	44.77
653.082	45.11
653.271	45.27
653.46	46.44
653.649	46.51
653.838	46.9
654.027	46.9
654.216	46.86
654.405	46.67
654.594	46.95
654.783	47.36
654.972	47.91
655.161	48.26
655.35	47.8
655.539	46.64
655.728	46.22
655.916	46.14
656.105	45.67
656.294	46.19
656.483	46.26
656.672	45.94
656.86	44.69
657.049	43.37
657.238	43.57
657.427	43.84
657.615	44.56
657.804	44.63
657.993	44.26
658.181	44.26
658.37	44.5
658.559	44.49
658.747	44.28
658.936	44.81
659.125	46.75
659.313	46.56
659.502	46.63
659.69	46.4
659.879	46.43
660.067	46.93
660.256	46.83
660.444	46.48
660.633	47.1
660.821	48.49
661.01	48.18
661.198	47.92
661.387	48.45
661.575	48.35
661.763	48.44
661.952	49.12
662.14	49
662.328	49.68
662.517	49.42
662.705	49.01
662.893	48.2
663.082	49.01
663.27	47.43
663.458	46.87
663.646	46.63
663.834	46.27
664.023	45.71
664.211	45.86
664.399	45.7
664.587	46.03
664.775	46.36
664.963	46.89
665.152	46.5
665.34	46.91
665.528	47.14
665.716	47.15
665.904	47.81
666.092	47.66
666.28	47.49
666.468	47.46
666.656	47.65
666.844	47.82
667.032	47.58
667.22	47.31
667.408	46.53
667.596	46.4
667.784	46.67
667.971	46.08
668.159	46.02
668.347	46.35
668.535	45.3
668.723	45.57
668.911	44.69
669.098	44.29
669.286	45.58
669.474	46.4
669.662	46.29
669.849	46.99
670.037	47.72
670.225	48.54
670.413	49.35
670.6	50.52
670.788	50.23
670.976	50.57
671.163	49.98
671.351	48.36
671.538	48.6
671.726	48.21
671.913	47.51
672.101	46.45
672.289	45.01
672.476	44.55
672.664	44.15
672.851	44.52
673.039	44.92
673.226	44.96
673.413	45.9
673.601	46.15
673.788	46.79
673.976	47.23
674.163	48.34
674.35	47.89
674.538	48.16
674.725	48.42
674.912	47.92
675.1	48.38
675.287	48.96
675.474	49.22
675.662	47.83
675.849	47.05
676.036	46.86
676.223	46.15
676.411	46.52
676.598	45.98
676.785	45.94
676.972	44.83
677.159	44.19
677.346	43.66
677.533	43.32
677.721	43.86
677.908	44.63
678.095	45.07
678.282	45.46
678.469	45.66
678.656	45.19
678.843	45.02
679.03	45.88
679.217	46.56
679.404	47.24
679.591	47.06
679.778	46.76
679.964	46.77
680.151	45.63
680.338	46.39
680.525	46.76
680.712	47.55
680.899	47.51
681.086	48.39
681.272	48.26
681.459	48.63
681.646	48.81
681.833	49.54
682.02	49.35
682.206	50.23
682.393	49.78
682.58	49.24
682.766	49.63
682.953	50.3
683.14	50.13
683.326	49.54
683.513	48.87
683.7	48.87
683.886	49.53
684.073	49.12
684.259	48.63
684.446	47.83
684.632	49.79
684.819	48.34
685.005	47.9
685.192	46.94
685.378	47.59
685.565	47.72
685.751	47.49
685.938	47.45
686.124	48.28
686.31	48.82
686.497	49.41
686.683	48.17
686.87	48.8
687.056	48.93
687.242	49.19
687.429	49.29
687.615	49.69
687.801	49.8
687.987	50.34
688.174	50.19
688.36	49.66
688.546	49.97
688.732	50.34
688.918	50.93
689.105	51.77
689.291	52.69
689.477	52.94
689.663	52.67
689.849	52.66
690.035	52.19
690.221	52.76
690.407	53.91
690.593	53.36
690.779	53.67
690.965	52.99
691.151	51.88
691.337	52.19
691.523	51.11
691.709	51.68
691.895	51.64
692.081	51.23
692.267	50.27
692.453	49.63
692.639	50.69
692.825	50.33
693.011	50.59
693.196	51.65
693.382	50.59
693.568	51.26
693.754	50.83
693.94	50.79
694.125	50.86
694.311	51.43
694.497	51.69
694.682	51.07
694.868	50.82
695.054	51
695.239	50.16
695.425	51.11
695.611	51.03
695.796	50.93
695.982	51.74
696.168	51.19
696.353	50.85
696.539	50.46
696.724	50.01
696.91	49.67
697.095	49.81
697.281	50.04
697.466	48.61
697.652	48.8
697.837	48.67
698.023	48.7
698.208	49.27
698.393	49.32
698.579	49.69
698.764	49.32
698.949	49.91
699.135	49.55
699.32	49.61
699.505	50.62
699.691	49.71
699.876	49.54
700.061	48.69
700.246	48.47
700.432	48.83
700.617	49.12
700.802	49.77
700.987	49.57
701.172	51.35
701.358	51.23
701.543	51.32
701.728	52.59
701.913	53.16
702.098	54.61
702.283	55.11
702.468	56.16
702.653	54.92
702.838	55.4
703.023	55.79
703.208	53.59
703.393	54.08
703.578	54.02
703.763	54.9
703.948	55.33
704.133	54.65
704.318	53.76
704.503	52.9
704.688	53.24
704.873	53.39
705.057	53.71
705.242	54.12
705.427	53.83
705.612	54.03
705.797	53.25
705.981	53.49
706.166	54.37
706.351	55.07
706.536	55.58
706.72	55.19
706.905	55.62
707.09	56.21
707.274	56.35
707.459	57.01
707.644	57.86
707.828	57.37
708.013	56.53
708.197	54.69
708.382	53.5
708.567	52.81
708.751	53.8
708.936	53.16
709.12	51.83
709.305	52.52
709.489	51.35
709.673	51.03
709.858	51.47
710.042	52.21
710.227	53.47
710.411	53.95
710.596	53.75
710.78	52.79
710.964	52.63
711.149	53.02
711.333	52.49
711.517	52.87
711.702	51.52
711.886	51.72
712.07	52.35
712.254	51.14
712.438	51.22
712.623	51.29
712.807	51.92
712.991	51.82
713.175	52.62
713.359	52.89
713.544	53.14
713.728	54.89
713.912	55.47
714.096	55.29
714.28	55.22
714.464	55.87
714.648	56.77
714.832	55.69
715.016	55.91
715.2	55.71
715.384	56.75
715.568	55.64
715.752	54.65
715.936	53.9
716.12	53.15
716.304	54.39
716.488	54.28
716.671	52.7
716.855	54.62
717.039	54.91
717.223	54.95
717.407	54.18
717.59	56.09
717.774	56.47
717.958	56.51
718.142	57.13
718.325	58.31
718.509	59.35
718.693	62.14
718.877	62.62
719.06	63.29
719.244	62.94
719.428	62.13
719.611	62.05
719.795	60.75
719.978	60.99
720.162	60.59
720.345	59.82
720.529	60.81
720.713	60.56
720.896	59.67
721.08	58.48
721.263	58.64
721.446	57.59
721.63	58.95
721.813	60.47
721.997	61.14
722.18	60.65
722.364	59.19
722.547	57.33
722.73	57.93
722.914	56.73
723.097	57.85
723.28	58.42
723.464	60.47
723.647	58.13
723.83	57.97
724.013	57.69
724.197	58.57
724.38	59.95
724.563	59.19
724.746	57.6
724.929	59.82
725.112	57.8
725.296	57.07
725.479	57.79
725.662	57.42
725.845	58.97
726.028	58.36
726.211	56.83
726.394	56.91
726.577	57.49
726.76	57.64
726.943	56.11
727.126	58.08
727.309	58.78
727.492	59.11
727.675	60.88
727.858	59.12
728.041	57.97
728.224	57.7
728.407	56.17
728.589	56.01
728.772	55.39
728.955	55.63
729.138	54.35
729.321	53.76
729.503	51.32
729.686	50.76
729.869	50.77
730.052	53.65
730.234	55.38
730.417	55.99
730.6	56.64
730.782	56.55
730.965	56.43
731.148	57.62
731.33	58.07
731.513	58.11
731.695	57.82
731.878	58.77
732.061	57.35
732.243	58.79
732.426	58.87
732.608	58.95
732.791	59.17
732.973	59.32
733.156	59.18
733.338	58.53
733.52	58.95
733.703	58.5
733.885	59.27
734.068	59.01
734.25	57.23
734.432	58.96
734.615	58.89
734.797	60.78
734.979	60.35
735.162	59.41
735.344	60.6
735.526	60.32
735.708	60.59
735.891	59.02
736.073	60.14
736.255	62.95
736.437	61.64
736.619	61.45
736.802	59.02
736.984	58.94
737.166	59.93
737.348	60.36
737.53	60.62
737.712	59.98
737.894	59.92
738.076	59.51
738.258	56.8
738.44	56.8
738.622	54.63
738.804	55.98
738.986	55.05
739.168	54.73
739.35	52.93
739.532	55.11
739.714	56.08
739.896	57.27
740.078	57.63
740.259	58.32
740.441	58.46
740.623	61.09
740.805	59.47
740.987	62.05
741.168	61.55
741.35	63.03
741.532	62.38
741.714	63.69
741.895	63.24
742.077	63.25
742.259	63.43
742.44	62.84
742.622	61.83
742.804	63.05
742.985	61.16
743.167	62.4
743.348	60.55
743.53	61.24
743.711	60.64
743.893	60.37
744.075	60.47
744.256	58.33
744.438	60.69
744.619	60.18
744.8	60.83
744.982	62.21
745.163	63.08
745.345	65.4
745.526	63.86
745.707	63.27
745.889	61.15
746.07	60.38
746.252	62.01
746.433	60.86
746.614	62.83
746.795	62.72
746.977	63.58
747.158	61.93
747.339	61.5
747.52	60.88
747.702	61.2
747.883	65.64
748.064	65.42
748.245	65.32
748.426	65.62
748.607	62.72
748.788	65.26
748.97	64.85
749.151	66.41
749.332	66.45
749.513	67.24
749.694	66.78
749.875	64.59
750.056	63.77
750.237	62.76
750.418	62.69
750.599	64.55
750.78	61.18
750.96	60.31
751.141	58.05
751.322	57.04
751.503	58.56
751.684	60.99
751.865	60.54
752.046	62.42
752.226	64.09
752.407	61.95
752.588	60.91
752.769	60.81
752.949	60.25
753.13	60.13
753.311	64.11
753.492	64.45
753.672	63.38
753.853	63.15
754.034	62.98
754.214	64.71
754.395	65.7
754.575	67.04
754.756	66.88
754.937	67.36
755.117	68.03
755.298	65.2
755.478	61.53
755.659	58.88
755.839	59.04
756.02	60.1
756.2	57.45
756.381	58.07
756.561	59.14
756.741	58.97
756.922	59.32
757.102	59.81
757.283	58.11
757.463	61.15
757.643	61.54
757.823	63.08
758.004	59.36
758.184	60.24
758.364	61.04
758.545	60.06
758.725	61.73
758.905	62.85
759.085	64.65
759.265	66.2
759.446	64.88
759.626	68.18
759.806	66.94
759.986	67.78
760.166	65.02
760.346	64.59
760.526	65.94
760.706	64.72
760.886	61.03
761.066	58.95
761.246	56.99
761.426	55.85
761.606	53.66
761.786	53.34
761.966	53.77
762.146	55.61
762.326	55.68
762.506	54.51
762.686	54.99
762.866	56.87
763.046	56.51
763.225	58.45
763.405	60.04
763.585	59.47
763.765	57.44
763.945	58.23
764.124	56.42
764.304	56.06
764.484	55.42
764.664	55.17
764.843	54.28
765.023	55.32
765.203	53.5
765.382	53.72
765.562	55.22
765.741	58.2
765.921	58.49
766.101	60.4
766.28	59.55
766.46	61.38
766.639	61.18
766.819	63.28
766.998	63.68
767.178	66.05
767.357	63.5
767.537	61.11
767.716	59.87
767.896	61.89
768.075	62.76
768.254	63.07
768.434	60.96
768.613	62
768.792	59.56
768.972	55.12
769.151	54.82
769.33	55.85
769.51	58.64
769.689	61.81
769.868	59.28
770.047	60.85
770.226	62.03
770.406	64.32
770.585	65.31
770.764	64.82
770.943	68.53
771.122	68.58
771.301	72.6
771.48	75.57
771.66	75.96
771.839	76.44
772.018	73.76
772.197	75.28
772.376	76.12
772.555	72.95
772.734	77.48
772.913	79.62
773.092	74.69
773.271	73.86
773.449	69.73
773.628	68.34
773.807	67.85
773.986	71.58
774.165	70.57
774.344	71.05
774.523	71.54
774.701	72.12
774.88	70.42
775.059	73.04
775.238	71
775.417	71.88
775.595	68.21
775.774	70.5
775.953	66.35
776.131	68.25
776.31	63.99
776.489	66.31
776.667	65.47
776.846	66.19
777.025	66.02
777.203	66.15
777.382	67.84
777.56	71.08
777.739	71.32
777.917	72.93
778.096	71.17
778.274	74.59
778.453	72
778.631	72.85
778.81	75.34
778.988	79.45
779.166	77.78
779.345	76.53
779.523	76.7
779.702	75.78
779.88	75.65
780.058	75.78
780.237	75.62
780.415	77.38
780.593	77.01
780.771	75.37
780.95	72.51
781.128	72.56
781.306	72.98
781.484	73.3
781.662	73.75
781.841	75.11
782.019	71.81
782.197	74.42
782.375	74.75
782.553	72.1
782.731	70.74
782.909	71.25
783.087	74.14
783.265	76.87
783.443	77.94
783.621	77.46
783.799	77.52
783.977	82.8
784.155	78.81
784.333	80.19
784.511	81.51
784.689	87.86
784.867	87.92
785.045	88.99
785.223	90.1
785.4	86.5
785.578	85.13
785.756	84.06
785.934	83.52
786.112	86.94
786.289	84.71
786.467	81.57
786.645	79.96
786.823	80.65
787	80.75
787.178	78.84
787.356	80.47
787.533	78.56
787.711	78.83
787.889	77.86
788.066	76.7
788.244	74.91
788.421	73.23
788.599	72.86
788.776	69.48
788.954	69.32
789.131	65.49
789.309	60.44
789.486	62.52
789.664	60.82
789.841	60.66
790.019	62.95
790.196	68.36
790.373	73.39
790.551	69.75
790.728	69.53
790.906	66.28
791.083	69.54
791.26	74.77
791.437	77.25
791.615	77.8
791.792	76.06
791.969	77.44
792.146	75.1
792.324	73.3
792.501	75.14
792.678	80.55
792.855	84.13
793.032	85.44
793.209	86.19
793.387	85.3
793.564	87.29
793.741	88.25
793.918	87.69
794.095	89.25
794.272	93.46
794.449	93.66
794.626	89
794.803	86.42
794.98	85
795.157	84.66
795.334	85.5
795.511	83.64
795.688	81.98
795.864	82
796.041	78.04
796.218	77.84
796.395	74.19
796.572	75.71
796.749	77.58
796.925	77.42
797.102	76.04
797.279	77.01
797.456	73.66
797.632	75.1
797.809	71.75
797.986	73.84
798.162	73.3
798.339	77.77
798.516	75.51
798.692	73.27
798.869	71.9
799.046	71.52
799.222	70.53
799.399	71.8
799.575	71.38
799.752	72.07
799.928	76.57
800.105	76.55
800.281	70.61
800.458	75.31
800.634	79.66
800.811	84.69
800.987	83.92
801.163	81.89
801.34	80.63
801.516	85.99
801.692	84.62
801.869	77.93
802.045	77.14
802.221	80.1
802.398	80.02
802.574	81.57
802.75	80.34
802.926	78.92
803.103	83.24
803.279	86.38
803.455	80.37
803.631	81.42
803.807	83.54
803.983	77.83
804.16	80.06
804.336	81.62
804.512	76.79
804.688	77.06
804.864	81.58
805.04	78.25
805.216	77.11
805.392	73.88
805.568	75.13
805.744	78.99
805.92	84.28
806.096	80.47
806.272	78.99
806.448	79.74
806.623	76.73
806.799	75.95
806.975	76.62
807.151	73.78
807.327	80.86
807.503	76.74
807.678	77.23
807.854	78.4
808.03	85.02
808.206	82.75
808.381	79.91
808.557	84.99
808.733	79.81
808.908	80.91
809.084	87.49
809.26	85.61
809.435	90.02
809.611	86.16
809.787	82.53
809.962	77.05
810.138	78.42
810.313	82.21
810.489	75.96
810.664	86
810.84	83.41
811.015	85.44
811.191	82.35
811.366	85.66
811.542	80.55
811.717	78.23
811.892	82.38
812.068	79.43
812.243	76.02
812.419	74.68
812.594	72.03
812.769	72.66
812.944	70.55
813.12	74.27
813.295	69.11
813.47	73.72
813.645	77.68
813.821	74.59
813.996	82.49
814.171	89.85
814.346	99.15
814.521	95.61
814.697	93.85
814.872	93.84
815.047	86.16
815.222	85.25
815.397	81.12
815.572	81.15
815.747	82.78
815.922	78.01
816.097	67.75
816.272	64.38
816.447	66.16
816.622	67.95
816.797	67.6
816.972	69.83
817.147	74.44
817.322	77.98
817.496	74.98
817.671	70.51
817.846	70.06
818.021	74.76
818.196	71.36
818.371	70.55
818.545	70.67
818.72	70.35
818.895	69.88
819.069	66.18
819.244	64.29
819.419	63.06
819.594	63.62
819.768	61.48
819.943	59.85
820.117	58.31
820.292	55.77
820.467	51.64
820.641	49.99
820.816	48.96
820.99	47.69
821.165	46.77
821.339	47.06
821.514	45.89
821.688	45.72
821.863	45.2
822.037	44.61
822.212	44.54
822.386	45.58
822.56	45.49
822.735	45.49
822.909	46.36
823.084	46.65
823.258	46.08
823.432	46.36
823.606	47.14
823.781	46.77
823.955	48.18
824.129	47.76
824.303	48.27
824.478	48.58
824.652	49.03
824.826	49.51
825	48.91
825.174	47.58
825.348	48.87
825.523	48
825.697	49.48
825.871	49.61
826.045	50.03
826.219	48.99
826.393	49.67
826.567	49.5
826.741	49.37
826.915	50.98
827.089	53.85
827.263	54.9
827.437	55.04
827.611	55.63
827.784	56.41
827.958	57.66
828.132	57.54
828.306	60.09
828.48	60.88
828.654	61.38
828.827	61.25
829.001	61.36
829.175	59.34
829.349	62.44
829.522	62.98
829.696	63.05
829.87	65.74
830.044	68.06
830.217	66.84
830.391	69.04
830.565	68.38
830.738	70.26
830.912	71.83
831.085	73.25
831.259	68.77
831.432	68.68
831.606	67.14
831.779	68.06
831.953	70.97
832.126	67.88
832.3	65.93
832.473	66.5
832.647	65.32
832.82	64.88
832.994	63.95
833.167	66.36
833.34	68.31
833.514	65.25
833.687	66.01
833.86	65.43
834.034	68.02
834.207	67.16
834.38	66.81
834.553	66.99
834.727	64.17
834.9	64.1
835.073	61.26
835.246	59.9
835.419	60.72
835.593	57.81
835.766	57.36
835.939	56.5
836.112	59.46
836.285	62.56
836.458	62.1
836.631	63.16
836.804	66.3
836.977	71.12
837.15	69.72
837.323	73.53
837.496	75.23
837.669	73.25
837.842	73.13
838.015	72.96
838.188	67.4
838.361	66.32
838.533	67.47
838.706	65.78
838.879	62.66
839.052	62.32
839.225	63.23
839.398	62.71
839.57	60.94
839.743	59.95
839.916	58.04
840.088	62.67
840.261	65.22
840.434	65.7
840.607	66.62
840.779	67.31
840.952	69.29
841.124	74.39
841.297	73.28
841.47	76.2
841.642	78.13
841.815	82.36
841.987	88.77
842.16	93.42
842.332	100.52
842.505	107.23
842.677	116.11
842.85	113.62
843.022	111.77
843.194	120.86
843.367	138.55
843.539	139.49
843.712	135.62
843.884	108.97
844.056	113.5
844.229	111.31
844.401	112.65
844.573	105.19
844.745	100.63
844.918	99.07
845.09	113.93
845.262	116.3
845.434	110.54
845.606	116.53
845.779	122.72
845.951	113.79
846.123	126.28
846.295	116.93
846.467	122.96
846.639	140.97
846.811	128.67
846.983	104.57
847.155	96.14
847.327	97.25
847.499	102.58
847.671	115.03
847.843	119.04
848.015	106.73
848.187	103.31
848.359	105.01
848.531	108.58
848.703	113.38
848.875	125.71
849.047	127.91
849.218	139.32
849.39	133.57
849.562	123.74
849.734	120.9
849.905	117.65
850.077	131.14
850.249	117.55
850.421	105.09
850.592	104.8
850.764	103.73
850.936	104.56
851.107	104.04
851.279	102.15
851.451	108.44
851.622	101.35
851.794	121.09
851.965	115.27
852.137	129.91
852.308	146.04
852.48	162.15
852.651	152.58
852.823	150.16
852.994	128.71
853.166	130.67
853.337	126.35
853.509	132.9
853.68	116.9
853.851	111.73
854.023	104.19
854.194	102.23
854.365	100.81
854.537	114.07
854.708	113.25
854.879	126.21
855.05	127.55
855.222	132.14
855.393	123.44
855.564	121.96
855.735	128.67
855.906	134.99
856.078	116.05
856.249	115.13
856.42	108.73
856.591	106.46
856.762	104.99
856.933	100.51
857.104	90.57
857.275	96.61
857.446	112.8
857.617	101.88
857.788	117.96
857.959	167.15
858.13	159.08
858.301	135.76
858.472	133.49
858.643	119.68
858.814	126.18
858.985	130.92
859.155	141.57
859.326	123.29
859.497	140.99
859.668	132.68
859.839	108.34
860.009	91.71
860.18	97.61
860.351	98.71
860.522	102.27
860.692	90.41
860.863	93.9
861.034	104.3
861.204	114.39
861.375	105.51
861.546	94.76
861.716	98.91
861.887	131.33
862.057	128.54
862.228	110.14
862.398	109.43
862.569	118.34
862.739	114.07
862.91	108.01
863.08	94.72
863.251	99.62
863.421	98.48
863.592	98.55
863.762	98.21
863.932	102.56
864.103	99.55
864.273	101.19
864.443	101.33
864.614	109.46
864.784	109.18
864.954	110.14
865.125	108.89
865.295	112.08
865.465	117.59
865.635	112.34
865.805	113.84
865.976	132.1
866.146	128.41
866.316	132.08
866.486	115.21
866.656	106.86
866.826	112.94
866.996	108.56
867.166	105.76
867.336	114.87
867.506	134.88
867.676	126.91
867.846	133.12
868.016	129.36
868.186	130.57
868.356	132.84
868.526	151.53
868.696	164.14
868.866	186.04
869.036	234.94
869.206	223.04
869.376	184.29
869.545	198.85
869.715	189.36
869.885	175.3
870.055	157.82
870.224	144.73
870.394	126.71
870.564	124.9
870.734	114.96
870.903	109.22
871.073	109.99
871.243	100.62
871.412	89.57
871.582	94.71
871.751	99.18
871.921	95.77
872.091	96.37
872.26	97.69
872.43	89.36
872.599	86.98
872.769	86.2
872.938	90.19
873.108	98.01
873.277	111.17
873.446	105.76
873.616	108.59
873.785	107.81
873.955	111.27
874.124	117.22
874.293	130.91
874.463	130.72
874.632	125.07
874.801	101.6
874.971	95.82
875.14	82.17
875.309	84.77
875.478	81.82
875.647	97.25
875.817	91.23
875.986	83.32
876.155	75.47
876.324	74.11
876.493	73.44
876.662	80.42
876.831	91.49
877	90.35
877.17	85.92
877.339	99.83
877.508	78.18
877.677	87.83
877.846	79.91
878.015	83.53
878.184	80.51
878.352	79.16
878.521	86.1
878.69	80.72
878.859	88.75
879.028	86.99
879.197	74.71
879.366	80.06
879.534	74.84
879.703	78.3
879.872	79.98
880.041	79.39
880.21	76.78
880.378	64.76
880.547	60.82
880.716	55.18
880.884	53.56
881.053	53.11
881.222	50.92
881.39	49.45
881.559	49.33
881.727	47.56
881.896	45.72
882.065	48.42
882.233	48.84
882.402	48.86
882.57	50.09
882.739	49.94
882.907	49.51
883.076	48.93
883.244	51.47
883.412	51.11
883.581	52.36
883.749	52.67
883.918	50.71
884.086	51.1
884.254	53.74
884.423	53.8
884.591	55.59
884.759	59.18
884.927	61.05
885.096	59.9
885.264	61.94
885.432	60.99
885.6	64.03
885.769	64.65
885.937	70.47
886.105	68.39
886.273	71.25
886.441	67.75
886.609	65.95
886.777	69.9
886.945	65.46
887.113	68.09
887.281	69.7
887.449	75.93
887.617	75.12
887.785	78.13
887.953	78.45
888.121	83.89
888.289	100
888.457	112.74
888.625	121.9
888.793	124.43
888.961	129.14
889.129	135.34
889.296	138.41
889.464	143.95
889.632	139.3
889.8	140.63
889.967	140.28
890.135	143.53
