Data from JASIL_3055_Reflection_02.txt Node
Date: Mon Nov 09 11:25:01 EST 2015
User: Geneva
Spectrometer: USB4E03002
Autoset integration time: false
Trigger mode: 4
Integration Time (sec): 1.000000E-1
Scans to average: 10
Electric dark correction enabled: false
Nonlinearity correction enabled: false
Boxcar width: 5
Stray light correction enabled: false
XAxis mode: Wavelengths
Stop averaging: false
Number of Pixels in Spectrum: 3648
>>>>>Begin Spectral Data<<<<<
177.575	-300
177.794	-127.64
178.014	11.81
178.233	18.06
178.452	34.29
178.672	0
178.891	37.5
179.11	65.57
179.33	57.25
179.549	72.77
179.768	75.32
179.987	82.44
180.207	69.76
180.426	21.77
180.645	-33.78
180.864	205.17
181.084	136.23
181.303	52.73
181.522	-350
181.741	80.88
181.96	-174.32
182.179	665.62
182.398	191.36
182.618	336.94
182.837	1215
183.056	260
183.275	184.31
183.494	129.29
183.713	133.99
183.932	137.22
184.151	125
184.37	102.8
184.589	93.55
184.808	109.35
185.027	-37.04
185.246	217.65
185.465	-65.71
185.684	-67.05
185.903	-27.14
186.122	-25.47
186.341	-80
186.56	-284.75
186.779	-156.67
186.998	-1411.11
187.216	-528.05
187.435	-307.44
187.654	-208.92
187.873	-1048.65
188.092	-365.04
188.311	-390.32
188.53	-246.96
188.748	-164.25
188.967	-81.53
189.186	-225.27
189.405	8200
189.623	-2026.32
189.842	-157.63
190.061	-542.37
190.28	-288.59
190.498	-515.38
190.717	-886.49
190.936	280.58
191.154	108.17
191.373	91.18
191.592	186.98
191.81	212.43
192.029	176.86
192.248	232.23
192.466	361.17
192.685	119.67
192.904	94.36
193.122	136.56
193.341	139.33
193.559	995.56
193.778	-2188.89
193.996	324.82
194.215	201.85
194.433	161.01
194.652	278.31
194.87	187.45
195.089	354.4
195.307	-120.86
195.526	586.36
195.744	-1361.54
195.963	-233.68
196.181	-133.33
196.399	-133.15
196.618	-307.83
196.836	-1188.1
197.055	243.98
197.273	191.77
197.491	160
197.71	124.3
197.928	152
198.146	159.62
198.365	105
198.583	60.07
198.801	30.35
199.019	-104.19
199.238	-125.68
199.456	-123.94
199.674	-21.7
199.892	-12.03
200.111	-20.77
200.329	-3.6
200.547	33.43
200.765	36.28
200.983	48.81
201.202	95.49
201.42	140.47
201.638	208.53
201.856	-321.43
202.074	-83.78
202.292	-49.59
202.51	2900
202.728	320.45
202.946	27.27
203.165	-866.67
203.383	30
203.601	9.77
203.819	47.37
204.037	-276.47
204.255	115.56
204.473	287.3
204.691	151.56
204.909	148.66
205.127	1500
205.345	267.52
205.562	-160
205.78	-3541.67
205.998	295.45
206.216	1436.36
206.434	-612.9
206.652	946.81
206.87	-490.8
207.088	-41.54
207.306	-57.55
207.523	-33.75
207.741	-18.13
207.959	-1271.43
208.177	-84.31
208.395	-37.14
208.612	-45.27
208.83	-3.4
209.048	17.44
209.266	34.69
209.483	13.19
209.701	75.54
209.919	77.54
210.136	91.59
210.354	127.08
210.572	221.08
210.79	-816.07
211.007	16100
211.225	1568.97
211.442	-19800
211.66	-150.78
211.878	-14.23
212.095	209.9
212.313	256.36
212.53	347.43
212.748	283.84
212.966	339.94
213.183	5218.18
213.401	-4262.96
213.618	658.43
213.836	668.24
214.053	805.88
214.271	34066.67
214.488	-66.67
214.705	74.77
214.923	143.78
215.14	112.08
215.358	70.72
215.575	29.34
215.793	38.2
216.01	61.95
216.227	83.85
216.445	56.03
216.662	8.35
216.879	-46.43
217.097	-155.56
217.314	-438.64
217.531	501.96
217.749	245.16
217.966	106.48
218.183	113.54
218.4	88.19
218.618	146.89
218.835	48.28
219.052	-0.6
219.269	-128.48
219.487	-845.83
219.704	-290.74
219.921	-77.92
220.138	-67.89
220.355	-70.98
220.572	-97.85
220.79	-10.68
221.007	-24.42
221.224	203.12
221.441	527.27
221.658	-73.2
221.875	-19.65
222.092	-35.69
222.309	-215.71
222.526	2300
222.743	-49.21
222.96	-44.84
223.177	-73.08
223.394	-85.87
223.611	-41.96
223.828	-43.22
224.045	-5.38
224.262	2.96
224.479	-6.08
224.696	2.54
224.913	-7.71
225.13	3.69
225.347	12.76
225.564	11.01
225.781	11.41
225.997	25.8
226.214	28.27
226.431	16.76
226.648	9.66
226.865	16.76
227.082	16.93
227.298	18.6
227.515	6.57
227.732	3.02
227.949	14.88
228.165	6.34
228.382	-0.87
228.599	-4.74
228.816	-0.68
229.032	3.94
229.249	8.49
229.466	6.73
229.682	6.21
229.899	17.5
230.116	22.15
230.332	17.73
230.549	37.71
230.765	46.92
230.982	53.8
231.199	59.72
231.415	61.18
231.632	65
231.848	71.2
232.065	72.23
232.281	67.03
232.498	61.23
232.714	43.12
232.931	36.67
233.147	27.3
233.364	12.79
233.58	15.24
233.797	13.78
234.013	-23.83
234.23	-43.61
234.446	-34.64
234.662	-68.4
234.879	-29.34
235.095	-4.35
235.312	-4.71
235.528	-6.19
235.744	-5.14
235.961	-9.98
236.177	-19.15
236.393	-13.84
236.61	7.09
236.826	-1.99
237.042	2.17
237.258	-6.96
237.475	-18.64
237.691	-13.72
237.907	-12.09
238.123	-13.46
238.339	-26.05
238.556	-28.9
238.772	-23.07
238.988	-39.33
239.204	-26.2
239.42	-21.28
239.636	-14.21
239.853	-12.82
240.069	-14.69
240.285	-7.27
240.501	-4.19
240.717	-1.77
240.933	2.46
241.149	5.55
241.365	8.52
241.581	11.8
241.797	11.8
242.013	7.26
242.229	11.17
242.445	10.13
242.661	6.74
242.877	1.8
243.093	3.7
243.309	3.95
243.525	0.1
243.741	-1.84
243.957	1.53
244.173	4.44
244.388	5.17
244.604	4.45
244.82	6.74
245.036	6.97
245.252	10
245.468	10.39
245.683	9.32
245.899	11.58
246.115	10.12
246.331	6.62
246.547	3.78
246.762	4.22
246.978	3.73
247.194	-1.41
247.409	-3.43
247.625	-3.76
247.841	-3.77
248.057	-2.09
248.272	-1.86
248.488	1.44
248.703	3.5
248.919	1.93
249.135	3.09
249.35	6.65
249.566	17.74
249.782	13.35
249.997	14.66
250.213	10.87
250.428	10.63
250.644	7.25
250.859	10.1
251.075	13.46
251.29	14.7
251.506	16.42
251.721	15.12
251.937	12.27
252.152	16.56
252.368	13.55
252.583	15.37
252.798	13.69
253.014	14.1
253.229	4.8
253.445	3.42
253.66	7.73
253.875	3.49
254.091	8.94
254.306	11.32
254.521	5.79
254.737	9.75
254.952	8.68
255.167	14.43
255.383	9.18
255.598	9.32
255.813	10.77
256.028	9.72
256.244	6.76
256.459	-4.58
256.674	-9.59
256.889	-2.95
257.104	-2.97
257.32	-2.99
257.535	-7.26
257.75	-4.21
257.965	-4.17
258.18	-8.66
258.395	-7.85
258.61	-6.21
258.826	-3.03
259.041	-0.52
259.256	-2.36
259.471	-3.25
259.686	-5.03
259.901	-4.92
260.116	-4.08
260.331	-3.93
260.546	-1.31
260.761	-0.33
260.976	-0.88
261.191	-4.63
261.406	-2.48
261.621	2.77
261.836	6.26
262.05	10.73
262.265	11.5
262.48	12.23
262.695	11.53
262.91	7.03
263.125	4.75
263.34	5.94
263.555	7.03
263.769	-6.92
263.984	-8.05
264.199	-11.52
264.414	-10.14
264.629	-9.29
264.843	-10.66
265.058	-4.38
265.273	-0.67
265.488	-0.79
265.702	-1.74
265.917	0.85
266.132	8.42
266.346	9.96
266.561	9.65
266.776	11.49
266.99	13.34
267.205	9.79
267.42	5.66
267.634	6.81
267.849	5.23
268.063	4.99
268.278	0.89
268.492	-0.18
268.707	1.12
268.922	4.33
269.136	0.87
269.351	1.6
269.565	2.64
269.78	1.81
269.994	0.3
270.209	1.21
270.423	0.98
270.637	3.07
270.852	-0.22
271.066	-3.05
271.281	-3.04
271.495	-1.87
271.709	-2.56
271.924	-1.93
272.138	-1.95
272.353	-0.72
272.567	2.11
272.781	5.42
272.996	6.22
273.21	8.56
273.424	9.49
273.638	4.32
273.853	3.8
274.067	3.5
274.281	5.32
274.495	5.75
274.71	7.24
274.924	5.28
275.138	1.58
275.352	0.51
275.566	3.22
275.781	3.6
275.995	7.1
276.209	7.04
276.423	3.59
276.637	2.16
276.851	3
277.065	2.62
277.279	4.51
277.493	5.07
277.707	5.52
277.921	2.43
278.135	5.46
278.349	3.54
278.563	3.81
278.777	6.86
278.991	9.23
279.205	10.24
279.419	8.64
279.633	6.26
279.847	6.79
280.061	7.73
280.275	9.54
280.489	5.39
280.703	6.44
280.917	5.34
281.131	5.5
281.344	4.23
281.558	4.24
281.772	5.06
281.986	8.16
282.2	5.89
282.414	3.63
282.627	0.55
282.841	2.5
283.055	2.58
283.269	4.35
283.482	4.53
283.696	3.96
283.91	3.76
284.123	2.58
284.337	0.55
284.551	2.59
284.764	4.5
284.978	3.25
285.192	0.29
285.405	-0.37
285.619	-0.47
285.833	-2.11
286.046	-1.94
286.26	-4.07
286.473	-2.71
286.687	-5.74
286.9	-4.56
287.114	-6.67
287.327	-4.39
287.541	-1.32
287.754	0.2
287.968	0.93
288.181	3.98
288.395	2.67
288.608	3.5
288.822	3.68
289.035	6.6
289.248	5.47
289.462	6.75
289.675	8.8
289.889	9.34
290.102	7.83
290.315	5.88
290.529	3.43
290.742	1.64
290.955	-0.47
291.169	-0.29
291.382	-0.37
291.595	-0.14
291.808	2.71
292.022	3.47
292.235	6.15
292.448	7.08
292.661	8.87
292.875	12.82
293.088	16.04
293.301	17.33
293.514	15.91
293.727	13.62
293.94	14.13
294.153	9.98
294.367	7.24
294.58	3.44
294.793	2.58
295.006	0.77
295.219	-0.21
295.432	0.24
295.645	-0.5
295.858	-1.52
296.071	1.09
296.284	1.48
296.497	3.18
296.71	3.38
296.923	3.47
297.136	4.1
297.349	6.06
297.562	4.41
297.775	3.88
297.988	5.18
298.201	6.88
298.414	3.8
298.626	4.36
298.839	-0.24
299.052	2.5
299.265	2.49
299.478	3.23
299.691	-0.31
299.903	-1.29
300.116	-1.89
300.329	-2.02
300.542	-1.09
300.755	-0.57
300.967	-0.04
301.18	4.35
301.393	3.35
301.605	4.96
301.818	4.6
302.031	5.74
302.243	8.47
302.456	7.5
302.669	7.56
302.881	6.61
303.094	9.29
303.307	7.16
303.519	5.44
303.732	4.04
303.944	2
304.157	4.04
304.37	5.03
304.582	5.66
304.795	6.98
305.007	6.13
305.22	6.08
305.432	3.74
305.645	6.83
305.857	8.18
306.069	10.93
306.282	9.71
306.494	8.45
306.707	7.48
306.919	7.32
307.132	6.79
307.344	6.76
307.556	7.03
307.769	9.78
307.981	8.16
308.193	8.39
308.406	7.02
308.618	9.01
308.83	6.9
309.043	7.4
309.255	9.16
309.467	8.37
309.679	11.34
309.892	11.96
310.104	10.5
310.316	9.59
310.528	8.85
310.74	8.01
310.953	7.16
311.165	7.25
311.377	7.04
311.589	2.48
311.801	5.7
312.013	1.89
312.225	1.7
312.437	3.04
312.649	4.87
312.862	3.75
313.074	6.37
313.286	8.07
313.498	9.21
313.71	12.07
313.922	11.45
314.134	9.05
314.346	10.21
314.558	10.89
314.77	8.68
314.982	7.63
315.193	8.17
315.405	8.41
315.617	4.58
315.829	5.52
316.041	2.59
316.253	5.72
316.465	7.82
316.677	9.99
316.888	9.08
317.1	11.18
317.312	11.13
317.524	13.39
317.736	10.45
317.947	13.33
318.159	14.6
318.371	13.6
318.583	11.8
318.794	12.68
319.006	10.62
319.218	7.1
319.43	7.62
319.641	9.07
319.853	9.64
320.064	8.12
320.276	8.61
320.488	7.7
320.699	9.5
320.911	10.56
321.123	9.29
321.334	7.37
321.546	11.29
321.757	8.96
321.969	8.07
322.18	9.38
322.392	11.49
322.603	8.81
322.815	9.23
323.026	7.71
323.238	9.48
323.449	8.01
323.661	11.9
323.872	10.84
324.083	8.59
324.295	8.34
324.506	5.65
324.718	6.01
324.929	10.63
325.14	7.32
325.352	7.84
325.563	5.69
325.774	9.69
325.986	7.82
326.197	8.78
326.408	10.79
326.62	11.49
326.831	14.02
327.042	13.66
327.253	9.34
327.464	11.59
327.676	13.64
327.887	15.91
328.098	10.6
328.309	11.76
328.52	12.14
328.732	12.1
328.943	10.88
329.154	12.63
329.365	14.47
329.576	19.11
329.787	18.75
329.998	18.76
330.209	16
330.42	19.14
330.631	18.22
330.842	18.24
331.053	20.86
331.264	20.19
331.475	19.84
331.686	19.18
331.897	18.25
332.108	18.36
332.319	19.92
332.53	23.66
332.741	25.65
332.952	22.38
333.163	23.09
333.374	21.4
333.585	23.61
333.795	19.97
334.006	18.7
334.217	16.53
334.428	18.54
334.639	14.98
334.849	11.57
335.06	8.88
335.271	10.93
335.482	12.42
335.692	11.92
335.903	11.74
336.114	11.6
336.325	12.49
336.535	15.07
336.746	11.75
336.957	13.64
337.167	17.3
337.378	19.4
337.589	22.03
337.799	20.86
338.01	21
338.22	18.66
338.431	18.88
338.642	19.01
338.852	19.93
339.063	23.45
339.273	22.77
339.484	19.48
339.694	16.54
339.905	13.37
340.115	12.85
340.326	13.43
340.536	15.34
340.746	16.71
340.957	15.31
341.167	17.19
341.378	16.02
341.588	14.17
341.799	12.64
342.009	15.08
342.219	16.68
342.43	16.26
342.64	14.9
342.85	14.06
343.061	15.17
343.271	16.58
343.481	14.05
343.691	14.45
343.902	15.48
344.112	17.36
344.322	17.34
344.532	16.48
344.743	15.14
344.953	15.99
345.163	16.45
345.373	14.8
345.583	13.84
345.793	13.85
346.004	13.79
346.214	14.61
346.424	15.36
346.634	14.26
346.844	14.91
347.054	17.24
347.264	16.02
347.474	18.04
347.684	18.17
347.894	17.99
348.104	14.42
348.314	14.03
348.524	12.15
348.734	9.32
348.944	9.71
349.154	11.09
349.364	10.58
349.574	11.22
349.784	11.18
349.994	11.21
350.204	12.43
350.413	15.44
350.623	16.34
350.833	16.49
351.043	17.61
351.253	15.95
351.463	16.82
351.672	14.49
351.882	16.24
352.092	15
352.302	12.81
352.511	12.78
352.721	11.95
352.931	10.59
353.141	11.02
353.35	10.25
353.56	13.1
353.77	11.38
353.979	13.22
354.189	13.15
354.399	11.5
354.608	14.32
354.818	13.93
355.027	14.15
355.237	14.49
355.447	16.11
355.656	18.63
355.866	17.93
356.075	17.9
356.285	18.29
356.494	17.37
356.704	17.74
356.913	17.55
357.123	17.35
357.332	18.11
357.542	17.02
357.751	16.63
357.96	14.48
358.17	12.86
358.379	12.38
358.589	11.85
358.798	12.13
359.007	13.63
359.217	12.72
359.426	13.2
359.635	12.78
359.845	12.94
360.054	13.48
360.263	12.89
360.472	13.43
360.682	13.75
360.891	13.03
361.1	14.97
361.309	12.57
361.519	13.27
361.728	12.04
361.937	12.47
362.146	12.51
362.355	11.66
362.564	12.31
362.774	12.58
362.983	11.42
363.192	13.58
363.401	13.7
363.61	15.09
363.819	14.51
364.028	17.08
364.237	17.88
364.446	18.58
364.655	19.21
364.864	19.48
365.073	19.41
365.282	20.71
365.491	18.44
365.7	16.75
365.909	15.56
366.118	15.63
366.327	12.79
366.536	10.38
366.745	9.7
366.954	8.29
367.162	8.35
367.371	10.01
367.58	9.92
367.789	11.19
367.998	10.9
368.207	12.35
368.415	13.83
368.624	14.87
368.833	15.25
369.042	14.6
369.25	15.01
369.459	15.94
369.668	14.9
369.877	12.77
370.085	12.59
370.294	13.59
370.503	14.31
370.711	12.19
370.92	13.3
371.129	14.08
371.337	15.66
371.546	16.2
371.754	14.9
371.963	14.93
372.171	16.21
372.38	16.67
372.589	16.08
372.797	14.68
373.006	15.88
373.214	15.27
373.423	15.63
373.631	16.21
373.84	15.39
374.048	15.27
374.256	15.58
374.465	16.67
374.673	14.77
374.882	13.99
375.09	14.41
375.298	14.92
375.507	14.94
375.715	15.88
375.923	12.91
376.132	14.47
376.34	15.06
376.548	13.6
376.757	13
376.965	14.92
377.173	15.43
377.381	16.24
377.59	15.94
377.798	16.74
378.006	14.84
378.214	15.71
378.423	15.12
378.631	15.06
378.839	15.59
379.047	15.44
379.255	14.85
379.463	13.67
379.671	13.4
379.879	12.85
380.088	12.59
380.296	12.91
380.504	13.48
380.712	11
380.92	10.93
381.128	13.09
381.336	12.96
381.544	13.12
381.752	14.27
381.96	13.6
382.168	13.72
382.376	12.32
382.584	11.66
382.791	11.5
382.999	12.93
383.207	14.06
383.415	10.94
383.623	11
383.831	10.24
384.039	9.71
384.247	9.75
384.454	8.43
384.662	7.7
384.87	8.36
385.078	8.63
385.285	9.87
385.493	9.89
385.701	10.82
385.909	9.76
386.116	10.36
386.324	9.97
386.532	11.54
386.739	12.5
386.947	14.63
387.155	14.37
387.362	13.87
387.57	13.77
387.778	13.12
387.985	13.2
388.193	14.15
388.4	14.08
388.608	16.16
388.816	15.54
389.023	15.9
389.231	16.28
389.438	16.94
389.646	18.11
389.853	17.37
390.061	16.87
390.268	15.64
390.475	15.28
390.683	15.41
390.89	13.9
391.098	13.2
391.305	12.35
391.512	11.15
391.72	9.47
391.927	8.57
392.135	9.26
392.342	9.27
392.549	11.4
392.756	11.42
392.964	10.89
393.171	10.8
393.378	11.53
393.586	11.8
393.793	11.29
394	13.1
394.207	13.52
394.414	12.41
394.622	11.82
394.829	10.23
395.036	9.75
395.243	9.49
395.45	9.15
395.657	7.99
395.864	8.09
396.072	8.51
396.279	9.45
396.486	9.88
396.693	10.45
396.9	10.56
397.107	11.05
397.314	12.07
397.521	12.26
397.728	12.09
397.935	12.9
398.142	13.02
398.349	12.26
398.556	10.63
398.763	9.64
398.97	8.36
399.177	8.75
399.383	8.98
399.59	8.52
399.797	9.19
400.004	9.86
400.211	8.86
400.418	9.73
400.625	10.33
400.831	10.99
401.038	12.06
401.245	13.04
401.452	13.75
401.658	14.24
401.865	13.79
402.072	12.01
402.279	12.76
402.485	13.37
402.692	13.1
402.899	13.22
403.105	12.74
403.312	11.9
403.519	11.73
403.725	11.07
403.932	10.79
404.138	10.68
404.345	12.49
404.552	12.6
404.758	12
404.965	10.93
405.171	11.88
405.378	12.15
405.584	12.9
405.791	13.45
405.997	13.78
406.204	14.18
406.41	14.16
406.617	12.91
406.823	12.88
407.029	13.09
407.236	14.22
407.442	12.52
407.649	12.4
407.855	12.6
408.061	12.35
408.268	12.68
408.474	12.36
408.68	12.94
408.887	13.66
409.093	13.73
409.299	13.77
409.505	14.06
409.712	15.07
409.918	14.3
410.124	14.29
410.33	14.38
410.537	13.7
410.743	14.42
410.949	13.47
411.155	12.87
411.361	12.76
411.567	13.68
411.773	13.39
411.98	13.37
412.186	13.78
412.392	14.2
412.598	13.76
412.804	14.45
413.01	13.8
413.216	15.27
413.422	15.85
413.628	16.49
413.834	16.96
414.04	17.44
414.246	16.43
414.452	16.93
414.658	15.75
414.864	16.08
415.07	15.53
415.275	15.04
415.481	14.34
415.687	14.53
415.893	14.03
416.099	13.34
416.305	13.11
416.511	14.19
416.716	14.22
416.922	14.77
417.128	15.09
417.334	15.29
417.539	15.73
417.745	15.99
417.951	15.75
418.157	15.8
418.362	14.95
418.568	15.42
418.774	15.27
418.979	15.18
419.185	14.96
419.391	14.55
419.596	14.32
419.802	13.92
420.008	13.59
420.213	9.27
420.419	8.15
420.624	8.87
420.83	8.27
421.035	7.78
421.241	7.78
421.446	7.23
421.652	7.37
421.857	7.2
422.063	7.35
422.268	7.35
422.474	11.5
422.679	12.13
422.885	11.91
423.09	11.89
423.295	12.01
423.501	11.6
423.706	12.09
423.911	12.03
424.117	12.23
424.322	11.91
424.527	11.87
424.733	11.9
424.938	12.28
425.143	12.72
425.349	12.15
425.554	11.85
425.759	12.18
425.964	12.04
426.169	12.01
426.375	12.22
426.58	13.1
426.785	13.83
426.99	13.94
427.195	13.64
427.4	13.28
427.605	13.76
427.811	13.9
428.016	14.38
428.221	14.01
428.426	13.92
428.631	13.87
428.836	13.74
429.041	13.31
429.246	13.52
429.451	13.94
429.656	14.57
429.861	14.77
430.066	15.64
430.271	14.98
430.476	15.87
430.681	15.92
430.886	15.19
431.09	15.05
431.295	14.83
431.5	15.25
431.705	14.99
431.91	13.62
432.115	13.01
432.32	12.37
432.524	12.38
432.729	11.81
432.934	12.14
433.139	12.5
433.343	12.94
433.548	13.18
433.753	12.8
433.958	12.15
434.162	13.04
434.367	14.15
434.572	15.07
434.776	15.3
434.981	15.73
435.186	15.52
435.39	16.18
435.595	15.66
435.799	15.48
436.004	15.72
436.209	16.01
436.413	15.77
436.618	14.95
436.822	14.44
437.027	14.26
437.231	14.13
437.436	14
437.64	13.81
437.845	13.24
438.049	13.7
438.253	13.13
438.458	13.04
438.662	13.13
438.867	13.29
439.071	13.15
439.275	13.14
439.48	13.45
439.684	12.87
439.888	12.83
440.093	13.4
440.297	13.34
440.501	13.59
440.706	13.49
440.91	13.72
441.114	13.84
441.318	13.96
441.523	14.64
441.727	14.19
441.931	15.29
442.135	14.82
442.339	15.04
442.543	14.38
442.748	14.42
442.952	14.77
443.156	14.24
443.36	14.43
443.564	14.34
443.768	13.34
443.972	12.79
444.176	12.26
444.38	12.56
444.584	12.07
444.788	12.47
444.992	12.96
445.196	12.67
445.4	12.72
445.604	12.37
445.808	12.81
446.012	13.26
446.216	13.74
446.42	14.13
446.624	14.03
446.828	14.39
447.032	14.51
447.235	14.11
447.439	14.15
447.643	14.07
447.847	14.45
448.051	14.15
448.254	14.17
448.458	14.78
448.662	14.74
448.866	15.4
449.069	15.44
449.273	15.4
449.477	15.39
449.681	16.51
449.884	17.03
450.088	16.89
450.292	15.94
450.495	15.97
450.699	15.51
450.902	15.05
451.106	14.51
451.31	14.03
451.513	13.65
451.717	14.09
451.92	13.68
452.124	13.48
452.327	13.11
452.531	14.18
452.734	14.48
452.938	14.64
453.141	14.49
453.345	14.42
453.548	14.4
453.752	14.97
453.955	14.45
454.158	14.2
454.362	13.52
454.565	13.79
454.769	13.84
454.972	13.17
455.175	13.01
455.379	13.08
455.582	13.59
455.785	14.21
455.988	13.67
456.192	13.63
456.395	14.11
456.598	14.89
456.801	14.77
457.005	14.59
457.208	14.61
457.411	13.7
457.614	13.73
457.817	13.77
458.021	13.95
458.224	13.44
458.427	13.51
458.63	12.9
458.833	12.7
459.036	12.56
459.239	12.37
459.442	12.09
459.645	12.56
459.848	12.93
460.051	12.64
460.254	12.28
460.457	12.93
460.66	12.28
460.863	12.7
461.066	12.71
461.269	13.25
461.472	13.26
461.675	13.97
461.878	14.62
462.081	14.57
462.284	15.14
462.486	14.85
462.689	14.71
462.892	15.64
463.095	15.44
463.298	15.89
463.5	15.99
463.703	16.43
463.906	16.87
464.109	16.77
464.311	16.55
464.514	15.88
464.717	16.44
464.92	16.56
465.122	16.39
465.325	16.58
465.528	17.01
465.73	16.73
465.933	16.01
466.135	15.51
466.338	14.9
466.541	14.43
466.743	14.54
466.946	14.09
467.148	14.22
467.351	13.93
467.553	13.83
467.756	13.39
467.958	13.5
468.161	13.85
468.363	13.98
468.566	14.63
468.768	15.41
468.971	16.19
469.173	17.03
469.375	16.74
469.578	16.96
469.78	16.58
469.983	16.3
470.185	16.76
470.387	16.92
470.59	17.03
470.792	17.05
470.994	17.32
471.196	16.99
471.399	15.92
471.601	16.19
471.803	16.03
472.005	16.13
472.208	16.54
472.41	16.1
472.612	16.36
472.814	15.69
473.016	16
473.218	15.38
473.421	14.69
473.623	15.63
473.825	15.07
474.027	15.57
474.229	15.9
474.431	15.51
474.633	14.96
474.835	14.98
475.037	15.31
475.239	15.3
475.441	15.82
475.643	15.78
475.845	15.14
476.047	15.79
476.249	15.53
476.451	15.67
476.653	15.58
476.855	15.86
477.057	15.85
477.258	15.84
477.46	15.71
477.662	15.22
477.864	15.78
478.066	16.86
478.268	17.13
478.469	17.78
478.671	17.32
478.873	17.16
479.075	16.9
479.276	17.05
479.478	16.98
479.68	16.91
479.882	17.41
480.083	17.28
480.285	16.53
480.487	16.45
480.688	15.56
480.89	15.45
481.091	15.64
481.293	15.59
481.495	15.06
481.696	14.84
481.898	14.26
482.099	13.61
482.301	13.24
482.502	13.16
482.704	12.68
482.905	12.66
483.107	12.63
483.308	12.39
483.51	12.15
483.711	12.09
483.913	12.03
484.114	12.31
484.315	12.44
484.517	12.71
484.718	12.46
484.92	12.67
485.121	12.73
485.322	12.59
485.524	12.54
485.725	12.92
485.926	12.75
486.127	12.69
486.329	12.33
486.53	12.43
486.731	12.24
486.932	12.56
487.134	12.62
487.335	12.84
487.536	13.03
487.737	13.43
487.938	13.24
488.139	13.57
488.341	13.75
488.542	14.16
488.743	13.98
488.944	14.08
489.145	14.04
489.346	13.99
489.547	13.58
489.748	13.5
489.949	13.09
490.15	13.25
490.351	13.23
490.552	13.15
490.753	13.01
490.954	13.32
491.155	13.29
491.356	13.45
491.557	13.47
491.758	13.65
491.959	13.98
492.159	14.42
492.36	14.53
492.561	14.79
492.762	15.21
492.963	15.52
493.164	15.68
493.364	16.04
493.565	16.1
493.766	16.48
493.967	16.97
494.167	16.95
494.368	16.75
494.569	17.15
494.769	17.34
494.97	17.14
495.171	17.05
495.371	17.01
495.572	16.85
495.773	16.43
495.973	16.26
496.174	16.6
496.375	16.61
496.575	16.91
496.776	16.64
496.976	16.46
497.177	16.53
497.377	16.64
497.578	16.46
497.778	16.72
497.979	17
498.179	17.3
498.38	16.39
498.58	16.42
498.78	16.53
498.981	16.74
499.181	16.64
499.382	17.19
499.582	17.07
499.782	17.7
499.983	17.78
500.183	18.15
500.383	18.2
500.584	18.93
500.784	19.21
500.984	18.87
501.184	18.82
501.385	18.89
501.585	18.85
501.785	19.22
501.985	18.87
502.185	18.91
502.386	18.84
502.586	18.93
502.786	18.56
502.986	18.19
503.186	18.24
503.386	18.39
503.586	18.41
503.786	18.17
503.987	18.15
504.187	17.94
504.387	18.01
504.587	18.28
504.787	18.23
504.987	18.47
505.187	18.29
505.387	18.78
505.587	18.41
505.786	18.29
505.986	18.52
506.186	18.4
506.386	18.46
506.586	18.43
506.786	18.28
506.986	18.61
507.186	18.19
507.386	18.03
507.585	18.25
507.785	18.23
507.985	18.64
508.185	18.56
508.384	18.39
508.584	18.46
508.784	18.85
508.984	18.32
509.183	18.22
509.383	18.45
509.583	18.6
509.782	18.29
509.982	18.85
510.182	18.62
510.381	18.24
510.581	18.38
510.781	18.35
510.98	18
511.18	18.36
511.379	18.04
511.579	18.44
511.778	18.41
511.978	17.95
512.177	18.27
512.377	18.73
512.576	19.28
512.776	19.5
512.975	19.95
513.175	20.51
513.374	21.03
513.573	21.99
513.773	22.13
513.972	22.81
514.172	23.29
514.371	23.15
514.57	23.08
514.77	22.91
514.969	23.01
515.168	23.37
515.367	23.11
515.567	22.91
515.766	22.1
515.965	21.62
516.164	21.77
516.364	21.85
516.563	21.29
516.762	21.07
516.961	21.35
517.16	21.38
517.359	21.18
517.559	20.95
517.758	20.96
517.957	21.06
518.156	21.2
518.355	20.87
518.554	20.97
518.753	21.16
518.952	21.34
519.151	21.26
519.35	21.2
519.549	21.12
519.748	21.27
519.947	21.52
520.146	22.25
520.345	22.36
520.544	22.65
520.743	22.77
520.942	22.74
521.141	23.11
521.339	23.49
521.538	23.65
521.737	24.16
521.936	24.52
522.135	24.57
522.333	24.17
522.532	24.67
522.731	24.83
522.93	24.7
523.129	24.99
523.327	24.62
523.526	24.46
523.725	24.05
523.923	23.79
524.122	23.72
524.321	23.55
524.519	23.25
524.718	22.62
524.917	22.69
525.115	22.73
525.314	22.43
525.512	22.24
525.711	22.37
525.909	22.2
526.108	21.65
526.306	21.6
526.505	21.69
526.703	21.7
526.902	21.81
527.1	21.53
527.299	21.41
527.497	21.46
527.696	21.47
527.894	21.24
528.092	21.55
528.291	21.77
528.489	21.8
528.688	21.74
528.886	21.8
529.084	22.02
529.283	22.47
529.481	22.75
529.679	23.18
529.877	23.33
530.076	23.54
530.274	23.7
530.472	23.83
530.67	24.06
530.869	24.09
531.067	24.39
531.265	24.34
531.463	24.17
531.661	24.08
531.859	24.01
532.057	24.34
532.255	24.11
532.454	23.91
532.652	24.1
532.85	24.15
533.048	24.43
533.246	24.35
533.444	24.74
533.642	24.86
533.84	24.95
534.038	24.89
534.236	24.8
534.434	25.24
534.632	25.51
534.83	25.66
535.027	25.57
535.225	25.39
535.423	25.44
535.621	25.33
535.819	25.1
536.017	25.37
536.215	25.65
536.412	25.66
536.61	25.99
536.808	26.41
537.006	26.4
537.203	26.42
537.401	26.65
537.599	26.87
537.797	26.45
537.994	26.71
538.192	26.84
538.39	26.67
538.587	27.03
538.785	26.66
538.983	26.33
539.18	26
539.378	26.08
539.575	25.93
539.773	25.76
539.97	25.88
540.168	25.81
540.366	25.7
540.563	25.64
540.761	25.26
540.958	25.41
541.155	25.43
541.353	25.59
541.55	25.67
541.748	25.73
541.945	25.92
542.143	26.01
542.34	26.09
542.537	26.25
542.735	26.31
542.932	26.72
543.129	26.73
543.327	26.69
543.524	27.18
543.721	27.43
543.919	27.88
544.116	27.99
544.313	28.6
544.51	28.96
544.708	28.84
544.905	29.15
545.102	29.12
545.299	28.93
545.496	29.01
545.693	28.74
545.891	28.91
546.088	28.69
546.285	28.83
546.482	28.62
546.679	28.33
546.876	28.98
547.073	29.05
547.27	29.01
547.467	29.82
547.664	30.43
547.861	30.74
548.058	30.59
548.255	31.21
548.452	32.12
548.649	32.49
548.846	33.05
549.043	32.73
549.24	33.08
549.437	33.49
549.633	32.93
549.83	33.34
550.027	34.21
550.224	34
550.421	34
550.618	33.42
550.814	33.69
551.011	33.91
551.208	33.74
551.405	33.7
551.601	33.94
551.798	34.02
551.995	33.9
552.191	33.25
552.388	33.49
552.585	33.53
552.781	34.03
552.978	33.86
553.175	33.92
553.371	34.46
553.568	34.87
553.764	35.49
553.961	36.5
554.157	36.39
554.354	37.45
554.55	37.95
554.747	37.67
554.943	37.27
555.14	37.97
555.336	37.63
555.533	37.43
555.729	37.68
555.926	36.98
556.122	36.73
556.318	36.44
556.515	36.14
556.711	35.93
556.907	36.02
557.104	35.96
557.3	35.67
557.496	36.36
557.693	36.29
557.889	36.31
558.085	36.82
558.281	36.9
558.478	37.33
558.674	36.48
558.87	36.68
559.066	36.45
559.262	36.81
559.459	36.62
559.655	36.85
559.851	36.99
560.047	36.74
560.243	36.57
560.439	36.9
560.635	37.38
560.831	38.14
561.027	37.99
561.223	38.33
561.419	38.05
561.615	38.13
561.811	37.89
562.007	37.94
562.203	37.74
562.399	37.92
562.595	37.76
562.791	37.54
562.987	37.04
563.183	37.17
563.379	36.69
563.575	36.75
563.771	36.3
563.966	35.47
564.162	35.21
564.358	35.81
564.554	35.52
564.75	35.42
564.945	35.23
565.141	35.61
565.337	35.32
565.533	35.82
565.728	35.99
565.924	35.94
566.12	36.62
566.315	36.61
566.511	36.41
566.707	36.31
566.902	36.28
567.098	36.4
567.293	35.87
567.489	36.07
567.684	36.1
567.88	35.89
568.076	36.4
568.271	36.35
568.467	36.68
568.662	36.72
568.858	37.01
569.053	36.53
569.248	36.01
569.444	35.69
569.639	36.1
569.835	35.78
570.03	36.56
570.225	36.81
570.421	37
570.616	36.85
570.812	36.25
571.007	36.19
571.202	36.31
571.397	36.14
571.593	37.22
571.788	36.76
571.983	37.05
572.178	36.07
572.374	35.37
572.569	35.13
572.764	35.13
572.959	35.33
573.154	35.89
573.35	36.27
573.545	36.78
573.74	36.66
573.935	36.57
574.13	36.98
574.325	37.57
574.52	37.86
574.715	38.01
574.91	38.66
575.105	39.26
575.3	39.23
575.495	39.26
575.69	39.52
575.885	39.07
576.08	39.52
576.275	38.78
576.47	38.81
576.665	39.36
576.86	39.22
577.055	39.37
577.25	39.58
577.444	39.23
577.639	39.47
577.834	39.65
578.029	39.83
578.224	39.88
578.418	40.5
578.613	41.2
578.808	41.25
579.003	41.37
579.197	41.03
579.392	40.39
579.587	40.43
579.781	40.31
579.976	40.17
580.171	40.32
580.365	40.49
580.56	41.06
580.755	40.23
580.949	40.3
581.144	40.13
581.338	39.74
581.533	39.73
581.727	40.41
581.922	40.16
582.116	40.24
582.311	40.44
582.505	40.01
582.7	40.12
582.894	39.8
583.089	39.67
583.283	40.09
583.478	40.58
583.672	40.7
583.866	39.86
584.061	39.81
584.255	40
584.449	39.63
584.644	39.45
584.838	39.41
585.032	40.4
585.226	39.79
585.421	39.85
585.615	39.95
585.809	39.22
586.003	39.25
586.198	39.23
586.392	38.46
586.586	38.37
586.78	38.3
586.974	37.57
587.168	36.77
587.363	36.89
587.557	36.32
587.751	35.97
587.945	37.09
588.139	37.02
588.333	36.62
588.527	36.88
588.721	36.86
588.915	37.17
589.109	37.13
589.303	37.46
589.497	37.64
589.691	38.48
589.885	37.97
590.079	36.99
590.273	37.59
590.466	37.87
590.66	38.25
590.854	38.77
591.048	38.82
591.242	39.08
591.436	39.14
591.629	39.2
591.823	38.87
592.017	39.92
592.211	40.76
592.404	40.1
592.598	40.11
592.792	39.72
592.986	38.94
593.179	38.88
593.373	38.85
593.567	38.62
593.76	38.57
593.954	37.74
594.147	36.03
594.341	34.99
594.535	34.43
594.728	34.34
594.922	34.28
595.115	34.27
595.309	34.18
595.502	33.95
595.696	33.39
595.889	34.03
596.083	35.06
596.276	36.17
596.47	36.69
596.663	37.84
596.856	38.22
597.05	38.11
597.243	38.92
597.437	39.05
597.63	39.67
597.823	40.32
598.017	39.99
598.21	40.17
598.403	40.41
598.596	40.78
598.79	40.34
598.983	40.5
599.176	40.85
599.369	40.91
599.563	41.66
599.756	41.51
599.949	41.76
600.142	41.65
600.335	41.11
600.528	41.26
600.722	42.03
600.915	42.16
601.108	41.9
601.301	42.37
601.494	41.85
601.687	41.06
601.88	40.53
602.073	40.41
602.266	39.34
602.459	39.22
602.652	38.72
602.845	38.08
603.038	37.81
603.231	37.92
603.424	37.65
603.617	37.52
603.809	37.53
604.002	38.17
604.195	38.29
604.388	39.01
604.581	39.54
604.774	39.98
604.966	40.11
605.159	39.91
605.352	39.7
605.545	40.04
605.737	40.87
605.93	41.24
606.123	40.79
606.316	40.78
606.508	40.96
606.701	40.52
606.894	40.54
607.086	39.63
607.279	40.59
607.471	40.37
607.664	40.14
607.857	39.91
608.049	39.38
608.242	39.64
608.434	39.19
608.627	38.87
608.819	39.06
609.012	38.91
609.204	39.56
609.397	38.9
609.589	39.35
609.782	39.08
609.974	38.15
610.166	38.96
610.359	39.1
610.551	39.85
610.743	39.9
610.936	39.78
611.128	40.14
611.32	41.04
611.513	42.06
611.705	42.72
611.897	44.13
612.09	45.19
612.282	45.65
612.474	46.11
612.666	46.31
612.858	46.53
613.051	46.39
613.243	46.45
613.435	46.1
613.627	45.69
613.819	45.26
614.011	43.88
614.203	44.63
614.395	44.25
614.588	43.5
614.78	44.01
614.972	44.82
615.164	44.53
615.356	44.33
615.548	43.94
615.74	44.67
615.932	45.45
616.124	46.08
616.315	46.14
616.507	46.46
616.699	46.6
616.891	47.07
617.083	47.04
617.275	47.86
617.467	47.97
617.659	48.41
617.85	48.62
618.042	48.65
618.234	48.93
618.426	49.1
618.618	48.97
618.809	50.31
619.001	49.64
619.193	48.48
619.384	48.48
619.576	47.48
619.768	47.6
619.959	46.05
620.151	45.29
620.343	44.94
620.534	45
620.726	45.52
620.917	43.73
621.109	43.29
621.301	44.07
621.492	44.18
621.684	45.03
621.875	44.48
622.067	45.82
622.258	46.01
622.45	46.11
622.641	45.24
622.832	45.12
623.024	45.18
623.215	44.85
623.407	44.32
623.598	44.34
623.789	43.79
623.981	43.96
624.172	43.98
624.363	42.77
624.555	43.23
624.746	42.33
624.937	41.61
625.129	41.38
625.32	41.52
625.511	41.72
625.702	40.59
625.893	40.88
626.085	40.37
626.276	39.2
626.467	40.25
626.658	39.72
626.849	40.12
627.04	39.73
627.231	39.74
627.422	39.82
627.614	40.23
627.805	41.2
627.996	42.08
628.187	43.35
628.378	44.11
628.569	44.55
628.76	44.91
628.951	44.33
629.142	45.05
629.332	45.75
629.523	45.99
629.714	46.4
629.905	46.02
630.096	45.97
630.287	45.68
630.478	45.45
630.669	44.99
630.859	45.28
631.05	46.63
631.241	46.17
631.432	46.53
631.623	46.39
631.813	46.31
632.004	45.95
632.195	45.61
632.385	44.95
632.576	44.59
632.767	44.65
632.957	43.63
633.148	44.06
633.339	44.54
633.529	43.86
633.72	44.84
633.91	44.64
634.101	45.32
634.292	44.77
634.482	45.52
634.673	47.2
634.863	46.92
635.054	46.79
635.244	47.02
635.435	48.03
635.625	48.31
635.815	47
636.006	47.1
636.196	46.95
636.387	46.38
636.577	45.28
636.767	44.27
636.958	44.84
637.148	45.9
637.338	45.93
637.529	45.25
637.719	46.03
637.909	47.33
638.099	47.75
638.29	47.54
638.48	49.86
638.67	50.43
638.86	49.74
639.05	49.55
639.241	50.3
639.431	50.19
639.621	50.99
639.811	51.08
640.001	51.38
640.191	51.42
640.381	53.04
640.571	52.68
640.761	53.74
640.951	54.3
641.141	55.08
641.331	54.44
641.521	55.35
641.711	55.17
641.901	54.36
642.091	53.01
642.281	52.51
642.471	51.52
642.661	50.91
642.851	50.94
643.041	51.32
643.231	50.58
643.42	51.14
643.61	49.24
643.8	49.54
643.99	49.61
644.18	50.19
644.369	49.77
644.559	50.04
644.749	49.21
644.939	48.74
645.128	48.34
645.318	47.91
645.508	47.32
645.697	48.68
645.887	47.72
646.076	47.36
646.266	46.75
646.456	47.23
646.645	46.82
646.835	47.43
647.024	47.59
647.214	48.69
647.403	49.78
647.593	49.33
647.782	48.36
647.972	48.05
648.161	48.01
648.351	48.57
648.54	48.51
648.73	48.25
648.919	47.8
649.108	47.24
649.298	46.72
649.487	46.71
649.677	47.57
649.866	46.76
650.055	47.01
650.244	47.71
650.434	48.61
650.623	48.54
650.812	48.76
651.002	49.07
651.191	49.23
651.38	48.51
651.569	48.09
651.758	48.64
651.947	49.29
652.137	49.18
652.326	48.39
652.515	46.38
652.704	45.92
652.893	46.19
653.082	46.8
653.271	46.64
653.46	46.94
653.649	46.5
653.838	45.3
654.027	45.99
654.216	45.7
654.405	47.54
654.594	49.55
654.783	49.82
654.972	49.85
655.161	49.4
655.35	49.43
655.539	49.57
655.728	48.34
655.916	47.6
656.105	47.53
656.294	47.81
656.483	47.16
656.672	45.3
656.86	44.72
657.049	45.06
657.238	45.01
657.427	45.37
657.615	45.05
657.804	46.69
657.993	47.13
658.181	46.27
658.37	45.82
658.559	45.46
658.747	46.04
658.936	46.98
659.125	47.5
659.313	47.96
659.502	47.19
659.69	47.06
659.879	46.94
660.067	47.46
660.256	48.94
660.444	50.11
660.633	50.06
660.821	49.65
661.01	48.94
661.198	48.17
661.387	48.34
661.575	50.21
661.763	50.87
661.952	51.16
662.14	52.3
662.328	50.99
662.517	50.33
662.705	51.14
662.893	52.18
663.082	53.04
663.27	52.88
663.458	52.39
663.646	51.04
663.834	52.23
664.023	52.55
664.211	51.7
664.399	53.47
664.587	54.82
664.775	55.09
664.963	56
665.152	55.92
665.34	56.69
665.528	55.66
665.716	56.3
665.904	55.63
666.092	55.3
666.28	55.51
666.468	55.1
666.656	55.35
666.844	55.02
667.032	54.16
667.22	54.02
667.408	54.32
667.596	54.88
667.784	54.31
667.971	53.65
668.159	54.24
668.347	53.59
668.535	52.61
668.723	51.19
668.911	50.78
669.098	51.13
669.286	51.55
669.474	52.01
669.662	52.67
669.849	52.78
670.037	53.04
670.225	51.42
670.413	50.7
670.6	50.21
670.788	50.46
670.976	49.07
671.163	48.94
671.351	48.35
671.538	46.63
671.726	47.19
671.913	48.04
672.101	49.25
672.289	51.74
672.476	53.83
672.664	55.98
672.851	56.22
673.039	56.47
673.226	56.82
673.413	58.88
673.601	60.94
673.788	61.52
673.976	59.94
674.163	58.09
674.35	56.27
674.538	55.03
674.725	53.77
674.912	54.13
675.1	55.1
675.287	54.49
675.474	53.77
675.662	52.23
675.849	50.14
676.036	51.09
676.223	53.26
676.411	53.3
676.598	52.46
676.785	51.65
676.972	51.38
677.159	50.87
677.346	51.06
677.533	49.77
677.721	50.42
677.908	50.79
678.095	50.9
678.282	49.68
678.469	49.34
678.656	49.74
678.843	49.95
679.03	50.49
679.217	50.39
679.404	50.86
679.591	51.22
679.778	51.46
679.964	52.52
680.151	51.79
680.338	51.45
680.525	51.72
680.712	51.69
680.899	52
681.086	51.53
681.272	52.21
681.459	51.43
681.646	52
681.833	51.28
682.02	49.28
682.206	49.49
682.393	49.81
682.58	49.97
682.766	50.83
682.953	50.95
683.14	51.54
683.326	50.37
683.513	51.19
683.7	49.37
683.886	50.3
684.073	50.39
684.259	49
684.446	47.63
684.632	45.38
684.819	44.32
685.005	44.05
685.192	43.26
685.378	44.82
685.565	44.95
685.751	46.12
685.938	45.25
686.124	46.92
686.31	49.26
686.497	50.53
686.683	53.24
686.87	53.3
687.056	52.43
687.242	51.69
687.429	51.66
687.615	49.82
687.801	50.61
687.987	49.9
688.174	48.74
688.36	47.13
688.546	46.81
688.732	46.11
688.918	46.02
689.105	47.08
689.291	48.57
689.477	48.06
689.663	48.22
689.849	48.57
690.035	49.26
690.221	49.12
690.407	51.21
690.593	51.5
690.779	51.3
690.965	52.32
691.151	51.04
691.337	48.54
691.523	47.13
691.709	47.79
691.895	47.78
692.081	47.07
692.267	45.85
692.453	46.2
692.639	45.74
692.825	44.35
693.011	43.63
693.196	45.72
693.382	47.21
693.568	48.4
693.754	49.17
693.94	49.09
694.125	50.11
694.311	53.47
694.497	53.25
694.682	54.14
694.868	55.47
695.054	55.89
695.239	55.01
695.425	54.64
695.611	54.59
695.796	53.4
695.982	52.53
696.168	52.76
696.353	50.24
696.539	48.58
696.724	47.93
696.91	46.38
697.095	44.89
697.281	45.62
697.466	46.08
697.652	46.72
697.837	47.06
698.023	46.53
698.208	45
698.393	45.56
698.579	44.94
698.764	44.97
698.949	46.44
699.135	46.82
699.32	45.43
699.505	45.65
699.691	45.75
699.876	46.34
700.061	47.66
700.246	50.25
700.432	52.86
700.617	54.19
700.802	56.2
700.987	56.85
701.172	60.1
701.358	62.34
701.543	61.87
701.728	61.66
701.913	62.65
702.098	62.97
702.283	60.73
702.468	58.91
702.653	59.64
702.838	57.26
703.023	56.76
703.208	52.98
703.393	50.2
703.578	49.93
703.763	51.05
703.948	50.06
704.133	48.6
704.318	49.92
704.503	53.32
704.688	53.97
704.873	55.37
705.057	54.36
705.242	56.69
705.427	60.04
705.612	60.9
705.797	61.07
705.981	59.48
706.166	60.84
706.351	61.32
706.536	59.36
706.72	58.17
706.905	56.78
707.09	59.57
707.274	60.02
707.459	57.71
707.644	58.88
707.828	58.79
708.013	60.89
708.197	61.65
708.382	62.89
708.567	61.92
708.751	62.55
708.936	63.57
709.12	62.95
709.305	61.55
709.489	64.64
709.673	62.68
709.858	60.15
710.042	58.88
710.227	57.31
710.411	55.12
710.596	57.36
710.78	56.39
710.964	56.9
711.149	55.17
711.333	57.26
711.517	54.84
711.702	55.36
711.886	57.51
712.07	57
712.254	56.86
712.438	56.5
712.623	53.34
712.807	53.58
712.991	52.72
713.175	52.88
713.359	50.56
713.544	50.63
713.728	49.46
713.912	47.05
714.096	46.96
714.28	48.03
714.464	46.74
714.648	44.27
714.832	44.58
715.016	40.18
715.2	40.48
715.384	40.44
715.568	37.79
715.752	36.69
715.936	36.06
716.12	36.4
716.304	33.49
716.488	33.36
716.671	36.16
716.855	35.14
717.039	37.93
717.223	35.88
717.407	34.61
717.59	36.43
717.774	37.88
717.958	38.74
718.142	36.98
718.325	37.82
718.509	39.93
718.693	38.89
718.877	37.89
719.06	36.52
719.244	37.81
719.428	40.97
719.611	42.49
719.795	43.11
719.978	44.89
720.162	47.52
720.345	46.35
720.529	45.57
720.713	50.07
720.896	52.21
721.08	56.58
721.263	56.48
721.446	54.87
721.63	53.32
721.813	50.54
721.997	48.55
722.18	46.88
722.364	46.91
722.547	46.19
722.73	42.5
722.914	41.7
723.097	39.7
723.28	38.91
723.464	38.09
723.647	37.86
723.83	39.16
724.013	39.48
724.197	38.83
724.38	40.48
724.563	41.87
724.746	41.09
724.929	41.58
725.112	39.83
725.296	39.47
725.479	38.39
725.662	39.01
725.845	40.52
726.028	40.95
726.211	41.49
726.394	45.67
726.577	45.08
726.76	47.65
726.943	48.99
727.126	51.47
727.309	51.75
727.492	52.18
727.675	53.66
727.858	53.87
728.041	52.25
728.224	54.2
728.407	51.09
728.589	50.42
728.772	47.74
728.955	46.53
729.138	46.84
729.321	45.59
729.503	43.65
729.686	42.69
729.869	41.71
730.052	45.46
730.234	44.31
730.417	44.06
730.6	46.08
730.782	48.11
730.965	46.62
731.148	46.46
731.33	51.12
731.513	54.58
731.695	56.85
731.878	56.78
732.061	54.71
732.243	54.89
732.426	54.98
732.608	51.93
732.791	54.16
732.973	53.6
733.156	53.65
733.338	52.7
733.52	53.28
733.703	52.55
733.885	53.84
734.068	57.84
734.25	59.71
734.432	61.39
734.615	64.42
734.797	61.22
734.979	62.57
735.162	65.06
735.344	63.42
735.526	63.74
735.708	61.44
735.891	61.4
736.073	57.1
736.255	55.78
736.437	55.82
736.619	56.96
736.802	55.47
736.984	58.12
737.166	55.2
737.348	55.2
737.53	57.22
737.712	57.71
737.894	58.42
738.076	63.39
738.258	64.8
738.44	63.25
738.622	63.61
738.804	66.06
738.986	65.01
739.168	67.6
739.35	70.15
739.532	72.02
739.714	71.71
739.896	73.24
740.078	69.62
740.259	69.33
740.441	72.79
740.623	72.9
740.805	73.93
740.987	77.48
741.168	77.06
741.35	75.16
741.532	68.08
741.714	69.1
741.895	68.08
742.077	74.16
742.259	75.74
742.44	70.89
742.622	73.34
742.804	73.83
742.985	70.7
743.167	71.78
743.348	77.61
743.53	80.86
743.711	85.01
743.893	89.45
744.075	86.77
744.256	87.7
744.438	92.43
744.619	93
744.8	93.97
744.982	98.75
745.163	98.58
745.345	94.08
745.526	93.53
745.707	88.43
745.889	86.54
746.07	91.45
746.252	92.41
746.433	94.62
746.614	95.56
746.795	95.93
746.977	97.31
747.158	94.36
747.339	92.56
747.52	89.96
747.702	95.42
747.883	93.17
748.064	88.05
748.245	87.09
748.426	83.97
748.607	78.32
748.788	78.31
748.97	73.54
749.151	73.8
749.332	74.99
749.513	81.32
749.694	79.93
749.875	82.08
750.056	79.19
750.237	78.44
750.418	82.32
750.599	84.11
750.78	81.76
750.96	82.02
751.141	85.53
751.322	87.55
751.503	81.59
751.684	78.93
751.865	75.91
752.046	77.12
752.226	77.88
752.407	73.18
752.588	74.52
752.769	79.85
752.949	79.48
753.13	79.37
753.311	77.15
753.492	79.26
753.672	79.33
753.853	81.54
754.034	81.81
754.214	81.7
754.395	84.64
754.575	86.07
754.756	79.18
754.937	80.57
755.117	79.09
755.298	78.88
755.478	79.51
755.659	82.02
755.839	80.82
756.02	78.35
756.2	75.82
756.381	74.7
756.561	69.43
756.741	70.33
756.922	68.74
757.102	66.95
757.283	65.86
757.463	61.19
757.643	54.61
757.823	54.96
758.004	51.26
758.184	48.78
758.364	45.59
758.545	46.6
758.725	45.67
758.905	42.46
759.085	41.43
759.265	40.75
759.446	40.53
759.626	43.54
759.806	39.1
759.986	41.09
760.166	40.17
760.346	43.98
760.526	45.8
760.706	43.39
760.886	42.02
761.066	40.05
761.246	36.52
761.426	36.52
761.606	34.71
761.786	36.35
761.966	35.21
762.146	38.13
762.326	36.97
762.506	35.78
762.686	37.91
762.866	38.65
763.046	39.49
763.225	42.86
763.405	41.27
763.585	44.83
763.765	43.57
763.945	48.02
764.124	47.14
764.304	48.03
764.484	46.59
764.664	48.43
764.843	52.45
765.023	54.24
765.203	52.65
765.382	59.37
765.562	58.75
765.741	65.75
765.921	67.81
766.101	71.75
766.28	74.87
766.46	81.02
766.639	83.03
766.819	81.27
766.998	84.48
767.178	93.76
767.357	96.74
767.537	101.47
767.716	100.06
767.896	97.28
768.075	97.68
768.254	97.2
768.434	96.41
768.613	93.98
768.792	98.48
768.972	97.47
769.151	88.9
769.33	85.18
769.51	83.3
769.689	91.36
769.868	94
770.047	97.99
770.226	101.82
770.406	99.09
770.585	104.23
770.764	103.98
770.943	109.8
771.122	109.95
771.301	111.67
771.48	114.45
771.66	110.17
771.839	116.28
772.018	113.16
772.197	117.69
772.376	118.69
772.555	113.4
772.734	114.8
772.913	118.01
773.092	129.87
773.271	131.1
773.449	142.85
773.628	135.09
773.807	125.11
773.986	124.9
774.165	115.91
774.344	123.63
774.523	122.76
774.701	122.59
774.88	121.1
775.059	118.15
775.238	122.24
775.417	115.14
775.595	113.84
775.774	119.79
775.953	114.69
776.131	114.56
776.31	110.03
776.489	109.16
776.667	110.46
776.846	101.33
777.025	97.44
777.203	91.01
777.382	90.97
777.56	93.22
777.739	93.03
777.917	94.29
778.096	98.18
778.274	100.7
778.453	101.6
778.631	95.03
778.81	97.23
778.988	97.12
779.166	100.7
779.345	96.96
779.523	95.62
779.702	86.53
779.88	83.54
780.058	86.14
780.237	76.73
780.415	75.38
780.593	79.43
780.771	81.35
780.95	84.4
781.128	86.14
781.306	86.13
781.484	88.28
781.662	99.87
781.841	105.69
782.019	99.86
782.197	113.99
782.375	120.55
782.553	127.41
782.731	143.19
782.909	134.88
783.087	133.3
783.265	139.42
783.443	131.12
783.621	130.16
783.799	134.86
783.977	125.4
784.155	122.99
784.333	116.53
784.511	110.84
784.689	101.68
784.867	103.58
785.045	96.36
785.223	90.61
785.4	90.61
785.578	86.9
785.756	88.06
785.934	85.78
786.112	83.19
786.289	81.9
786.467	79.32
786.645	76.73
786.823	80.33
787	82.67
787.178	85.41
787.356	82.97
787.533	85.89
787.711	81.77
787.889	81.14
788.066	79.37
788.244	81.64
788.421	82.13
788.599	83.76
788.776	85.15
788.954	89.53
789.131	85.4
789.309	92.99
789.486	80.01
789.664	82.32
789.841	85.42
790.019	89.68
790.196	92.61
790.373	86.85
790.551	89.55
790.728	88
790.906	85.04
791.083	86.79
791.26	79.42
791.437	94.04
791.615	97.95
791.792	104.88
791.969	104.87
792.146	104.58
792.324	111.94
792.501	112.37
792.678	103.96
792.855	98.23
793.032	90.91
793.209	95.02
793.387	83.81
793.564	74.25
793.741	66.34
793.918	67.96
794.095	61.31
794.272	52.65
794.449	51.55
794.626	55.28
794.803	66.22
794.98	65.04
795.157	66.23
795.334	58.51
795.511	61.26
795.688	61.01
795.864	62.63
796.041	66.56
796.218	68.88
796.395	73.29
796.572	72.32
796.749	66.29
796.925	74.27
797.102	72.26
797.279	80.2
797.456	76.37
797.632	83.48
797.809	81.76
797.986	81.52
798.162	92.44
798.339	83.28
798.516	77.23
798.692	71.33
798.869	67.11
799.046	81.76
799.222	82.38
799.399	79.83
799.575	64.14
799.752	61.72
799.928	65.09
800.105	65.89
800.281	65.6
800.458	67.09
800.634	67.62
800.811	63.55
800.987	55.6
801.163	51.85
801.34	54.93
801.516	67.11
801.692	75.8
801.869	76.52
802.045	80.22
802.221	80
802.398	83.55
802.574	81.56
802.75	84.44
802.926	85.02
803.103	92.46
803.279	99.87
803.455	93.33
803.631	86.3
803.807	82.62
803.983	81.5
804.16	78.56
804.336	76.47
804.512	73.5
804.688	69.35
804.864	68.05
805.04	53.22
805.216	51.55
805.392	58.89
805.568	56.7
805.744	57.77
805.92	52.02
806.096	63.73
806.272	67.78
806.448	71.95
806.623	75.47
806.799	72.18
806.975	81.25
807.151	79.43
807.327	88.21
807.503	95.41
807.678	104.62
807.854	107.22
808.03	120.86
808.206	116.05
808.381	119.81
808.557	114.34
808.733	110.07
808.908	104.87
809.084	104.79
809.26	98.31
809.435	92.81
809.611	81.44
809.787	79.28
809.962	71.56
810.138	68.57
810.313	84.9
810.489	95.41
810.664	93.44
810.84	90.85
811.015	111.35
811.191	95.09
811.366	89.09
811.542	87.35
811.717	79.94
811.892	75.65
812.068	89
812.243	47.08
812.419	9.81
812.594	51.19
812.769	61.61
812.944	58.21
813.12	52.62
813.295	55.91
813.47	52.09
813.645	48.5
813.821	54.91
813.996	47.17
814.171	48.58
814.346	49.84
814.521	39.15
814.697	37.49
814.872	29.22
815.047	40.73
815.222	45.4
815.397	46.23
815.572	48.91
815.747	46.45
815.922	43.84
816.097	43.42
816.272	51.3
816.447	58.66
816.622	54.77
816.797	51.3
816.972	47.95
817.147	45.01
817.322	47.34
817.496	54.79
817.671	51.8
817.846	56.31
818.021	60.9
818.196	57.74
818.371	52.37
818.545	54
818.72	58.55
818.895	57.58
819.069	57.29
819.244	56.31
819.419	54.33
819.594	53.43
819.768	51.32
819.943	43.29
820.117	39.04
820.292	36.09
820.467	36.08
820.641	35.77
820.816	33.64
820.99	32.61
821.165	33.24
821.339	31.04
821.514	29.84
821.688	30.15
821.863	33.1
822.037	34.44
822.212	35.98
822.386	36.8
822.56	35.86
822.735	37.83
822.909	40.66
823.084	38.43
823.258	41.21
823.432	39.69
823.606	35.66
823.781	34.6
823.955	34.8
824.129	34.01
824.303	31.15
824.478	29.45
824.652	22.22
824.826	20.13
825	20.5
825.174	18
825.348	21.49
825.523	22.42
825.697	23.95
825.871	22.22
826.045	26.59
826.219	25.1
826.393	28.39
826.567	30.03
826.741	28.93
826.915	32.19
827.089	34.06
827.263	35.81
827.437	36.67
827.611	37.93
827.784	35.6
827.958	27.97
828.132	28.06
828.306	26.51
828.48	28.53
828.654	32.55
828.827	34.19
829.001	37.13
829.175	38.37
829.349	41.01
829.522	40.57
829.696	55
829.87	60.69
830.044	63.66
830.217	39.4
830.391	62.61
830.565	48.97
830.738	24.42
830.912	37.1
831.085	32.79
831.259	36.04
831.432	25.65
831.606	26.63
831.779	30.75
831.953	34.31
832.126	39.08
832.3	28.56
832.473	27.95
832.647	26.27
832.82	22.65
832.994	22.72
833.167	22.57
833.34	26.9
833.514	31.87
833.687	26.56
833.86	22.11
834.034	25.09
834.207	31.11
834.38	38.46
834.553	52.23
834.727	57.02
834.9	59.13
835.073	58.44
835.246	66.85
835.419	54.22
835.593	88.69
835.766	130.95
835.939	93.3
836.112	130.52
836.285	134.88
836.458	108.46
836.631	83.66
836.804	88.49
836.977	97.39
837.15	84.1
837.323	83.36
837.496	67.89
837.669	80.23
837.842	106.34
838.015	79.39
838.188	65.91
838.361	64.96
838.533	71.59
838.706	70.88
838.879	65.49
839.052	59.64
839.225	63.86
839.398	83.8
839.57	86.39
839.743	81.28
839.916	83.67
840.088	83.66
840.261	86.99
840.434	88.59
840.607	97.84
840.779	100
840.952	115.71
841.124	115.96
841.297	84.73
841.47	51.39
841.642	56.4
841.815	46.96
841.987	98.9
842.16	19.61
842.332	-214.71
842.505	446.15
842.677	375
842.85	382.35
843.022	-1340
843.194	54.84
843.367	46.95
843.539	1.9
843.712	-40.34
843.884	-91.16
844.056	-130.23
844.229	-128.57
844.401	-610.62
844.573	-1091.57
844.745	954.02
844.918	425.24
845.09	278.45
845.262	156.76
845.434	150.57
845.606	107.7
845.779	86.85
845.951	76.3
846.123	69.16
846.295	56.52
846.467	51.47
846.639	63.57
846.811	66.61
846.983	65.71
847.155	107.3
847.327	239.87
847.499	287.62
847.671	304.97
847.843	-2057.89
848.015	-1370.97
848.187	962.07
848.359	3350
848.531	328.44
848.703	260.16
848.875	198.87
849.047	145.33
849.218	95.22
849.39	261.54
849.562	-1900
849.734	86.57
849.905	460
850.077	214.58
850.249	109.89
850.421	182.74
850.592	126.42
850.764	141.44
850.936	152.21
851.107	218.26
851.279	250.27
851.451	160
851.622	125.59
851.794	110.35
851.965	67.43
852.137	160.55
852.308	185.32
852.48	211.3
852.651	228.33
852.823	216.46
852.994	134.97
853.166	122.78
853.337	115.12
853.509	169.43
853.68	259.72
853.851	-1296.43
854.023	327.27
854.194	308.85
854.365	-4600
854.537	-1672.73
854.708	785.71
854.879	57.45
855.05	123.53
855.222	131.61
855.393	301.03
855.564	137.46
855.735	98.51
855.906	83.48
856.078	65.77
856.249	81.56
856.42	56.66
856.591	64.4
856.762	94.41
856.933	103.38
857.104	129.69
857.275	85.32
857.446	140.33
857.617	182.08
857.788	275.86
857.959	258.77
858.13	537.5
858.301	430.19
858.472	486.03
858.643	476.19
858.814	181.98
858.985	161.14
859.155	282.88
859.326	163.14
859.497	188.45
859.668	142.03
859.839	136.3
860.009	139.37
860.18	132.6
860.351	145.37
860.522	111.98
860.692	150
860.863	167.13
861.034	124.82
861.204	118.05
861.375	100.49
861.546	111.59
861.716	127.29
861.887	94.16
862.057	124.56
862.228	90.81
862.398	121.54
862.569	122.49
862.739	134.05
862.91	160.63
863.08	451.28
863.251	354.37
863.421	355.45
863.592	200.58
863.762	-182.5
863.932	-83.87
864.103	-470.83
864.273	-39.29
864.443	636.36
864.614	244.3
864.784	651.28
864.954	922.73
865.125	-621.21
865.295	-811.11
865.465	592.59
865.635	189.52
865.805	196.14
865.976	227.07
866.146	101.41
866.316	95.27
866.486	69.01
866.656	47.72
866.826	50.55
866.996	42.45
867.166	25.19
867.336	10.68
867.506	16.96
867.676	-1.72
867.846	-30.9
868.016	-26.29
868.186	-60.71
868.356	-108.79
868.526	-112
868.696	-83.54
868.866	2.79
869.036	67.65
869.206	-623.53
869.376	-2600
869.545	2650
869.715	659.37
869.885	-440.85
870.055	-510.96
870.224	391.34
870.394	731.37
870.564	-333.8
870.734	281.74
870.903	129.2
871.073	74.59
871.243	55.15
871.412	91.15
871.582	58.22
871.751	72.52
871.921	52.12
872.091	37.14
872.26	48.83
872.43	32.47
872.599	47.56
872.769	75.2
872.938	59.84
873.108	47.19
873.277	42.23
873.446	39.33
873.616	13.74
873.785	52.96
873.955	63.56
874.124	77.76
874.293	120.63
874.463	95.32
874.632	48.88
874.801	54.46
874.971	72.89
875.14	95.01
875.309	190.27
875.478	164.34
875.647	90.48
875.817	107.74
875.986	78.6
876.155	89.35
876.324	90.26
876.493	140.74
876.662	136.23
876.831	114.36
877	136.56
877.17	86.21
877.339	89.78
877.508	101.11
877.677	79.94
877.846	102.2
878.015	67.71
878.184	50.85
878.352	65.11
878.521	43.73
878.69	42.24
878.859	18.15
879.028	24.36
879.197	18.89
879.366	40.55
879.534	36.46
879.703	29.92
879.872	38.32
880.041	37.6
880.21	31.32
880.378	30.36
880.547	28.15
880.716	34.81
880.884	34.96
881.053	32.38
881.222	26.26
881.39	31.11
881.559	35.7
881.727	32.34
881.896	29.88
882.065	20.68
882.233	20.65
882.402	22.77
882.57	16.85
882.739	21.31
882.907	29.68
883.076	34.37
883.244	28.51
883.412	28.37
883.581	34.22
883.749	39.06
883.918	58.68
884.086	60.12
884.254	61.39
884.423	67.86
884.591	53.01
884.759	45.65
884.927	42.91
885.096	36.86
885.264	44.22
885.432	44.24
885.6	51.6
885.769	38.45
885.937	52.16
886.105	49.23
886.273	44.51
886.441	54.15
886.609	60.36
886.777	90.51
886.945	116.18
887.113	105.48
887.281	80.27
887.449	92.58
887.617	97.13
887.785	87.67
887.953	72.93
888.121	72.96
888.289	80.85
888.457	93.6
888.625	91.47
888.793	107.46
888.961	79.7
889.129	93.02
889.296	48.42
889.464	-16.13
889.632	-38.16
889.8	100
889.967	92.78
890.135	36.9
