Data from JASIL_3234_Reflection_1.txt Node
Date: Mon Nov 16 20:04:16 EST 2015
User: Geneva
Spectrometer: USB4E03002
Autoset integration time: false
Trigger mode: 4
Integration Time (sec): 1.000000E-1
Scans to average: 10
Electric dark correction enabled: false
Nonlinearity correction enabled: false
Boxcar width: 5
Stray light correction enabled: false
XAxis mode: Wavelengths
Stop averaging: false
Number of Pixels in Spectrum: 3648
>>>>>Begin Spectral Data<<<<<
177.575	1166.67
177.794	1984.85
178.014	1095.45
178.233	1018.13
178.452	720
178.672	1277.5
178.891	1592.31
179.11	1242.68
179.33	1288.57
179.549	828.57
179.768	906.93
179.987	580.68
180.207	475.16
180.426	713.39
180.645	789.23
180.864	894.84
181.084	599.75
181.303	644.14
181.522	774.46
181.741	614.36
181.96	543.11
182.179	688.4
182.398	934.07
182.618	3598.53
182.837	2940.74
183.056	2642.7
183.275	1541.87
183.494	3052
183.713	1359.14
183.932	776.07
184.151	1116.04
184.37	1185.05
184.589	1052.05
184.808	1053.81
185.027	651.58
185.246	520.09
185.465	543.98
185.684	1030.88
185.903	753.87
186.122	862.95
186.341	3471.87
186.56	1547.33
186.779	-3022.08
186.998	-2393.94
187.216	-1404.65
187.435	-6009.76
187.654	-3277.33
187.873	-4275
188.092	-6225
188.311	-22770
188.53	-2163.27
188.748	3178.38
188.967	-3659.02
189.186	2596.05
189.405	1208.82
189.623	996.65
189.842	1853.33
190.061	2850.72
190.28	1219.88
190.498	1499.22
190.717	2822.06
190.936	2031.68
191.154	4802.33
191.373	2734.18
191.592	2521.11
191.81	2935.14
192.029	2276.09
192.248	-5061.54
192.466	-5876.47
192.685	-784.72
192.904	-1184.97
193.122	-808.37
193.341	-1973.33
193.559	-1098.7
193.778	-1473.68
193.996	3611.32
194.215	-3619.57
194.433	-813.02
194.652	-804.35
194.87	-758.91
195.089	-1350.45
195.307	-840
195.526	-1118.37
195.744	-744.75
195.963	-586.13
196.181	-455.06
196.399	-261.86
196.618	-236.2
196.836	-547.88
197.055	-550
197.273	-30050
197.491	-5690.91
197.71	1426.09
197.928	4602.5
198.146	2985.71
198.365	1327.92
198.583	719.64
198.801	519.52
199.019	346.38
199.238	479.28
199.456	429.45
199.674	652.98
199.892	600.86
200.111	653.61
200.329	516.28
200.547	643.96
200.765	971
200.983	6700
201.202	-1769.23
201.42	-1411.9
201.638	-3080.33
201.856	8023.08
202.074	1997.2
202.292	4641.3
202.51	-3477.59
202.728	3587.27
202.946	1998.13
203.165	1090.91
203.383	1028.37
203.601	833.09
203.819	1464.86
204.037	3075.34
204.255	6167.65
204.473	-3377.42
204.691	-9204.55
204.909	-12082.35
205.127	-1750.83
205.345	4960.47
205.562	1482.43
205.78	901.97
205.998	731.35
206.216	591.79
206.434	654.24
206.652	619
206.87	739.37
207.088	567.62
207.306	811.22
207.523	1321.86
207.741	3931.58
207.959	13875
208.177	-6369.44
208.395	-1313.94
208.612	-1744.26
208.83	1849.57
209.048	1909.57
209.266	214800
209.483	-2090.29
209.701	11295
209.919	1689.68
210.136	766.45
210.354	529.22
210.572	395.46
210.79	317.11
211.007	326.67
211.225	400
211.442	385.39
211.66	296.32
211.878	323.84
212.095	342.86
212.313	336.17
212.53	446.58
212.748	508.38
212.966	632.87
213.183	852.29
213.401	738.75
213.618	816.03
213.836	686.02
214.053	744.14
214.271	467.09
214.488	398.74
214.705	465.57
214.923	362.64
215.14	667.9
215.358	501.25
215.575	623.1
215.793	614.15
216.01	395.31
216.227	498.29
216.445	509.73
216.662	640.12
216.879	658.06
217.097	398.01
217.314	389.27
217.531	313.82
217.749	353.48
217.966	329.59
218.183	380.03
218.4	814.39
218.618	577.94
218.835	513.71
219.052	491.45
219.269	532.91
219.487	1411.49
219.704	1931.07
219.921	1013
220.138	884.16
220.355	534.37
220.572	922.22
220.79	586.49
221.007	694.16
221.224	688.33
221.441	1069.19
221.658	924.77
221.875	881.48
222.092	1374.84
222.309	35300
222.526	2220.2
222.743	4759.52
222.96	1085.87
223.177	383.78
223.394	376.98
223.611	369.19
223.828	381.72
224.045	324.57
224.262	243.67
224.479	237.6
224.696	211.53
224.913	203.37
225.13	207.06
225.347	162.07
225.564	186.64
225.781	170.28
225.997	153.94
226.214	126.28
226.431	113.24
226.648	105.44
226.865	100.46
227.082	91.89
227.298	83.65
227.515	75.65
227.732	69.32
227.949	62.43
228.165	57.1
228.382	53.8
228.599	49.7
228.816	50.83
229.032	52.82
229.249	48.06
229.466	43.77
229.682	44.45
229.899	44.85
230.116	52.53
230.332	55.2
230.549	53.72
230.765	57.57
230.982	60.04
231.199	58.72
231.415	64.11
231.632	76.38
231.848	85.33
232.065	87.05
232.281	92.88
232.498	90.59
232.714	106.1
232.931	105.92
233.147	107.76
233.364	110.15
233.58	105.12
233.797	96.82
234.013	87.43
234.23	85.22
234.446	86.4
234.662	86.29
234.879	92.05
235.095	78.67
235.312	75.73
235.528	75.21
235.744	76.96
235.961	84.54
236.177	91.07
236.393	92.97
236.61	94.08
236.826	96.31
237.042	97.21
237.258	94.2
237.475	104.88
237.691	106.23
237.907	103.92
238.123	98.26
238.339	88.61
238.556	79.23
238.772	82.45
238.988	80.5
239.204	70.55
239.42	70.44
239.636	67.98
239.853	60.51
240.069	58.21
240.285	54.58
240.501	55.17
240.717	53.97
240.933	55.71
241.149	50.29
241.365	48.4
241.581	46.77
241.797	42.76
242.013	40.05
242.229	39.96
242.445	40.63
242.661	39.02
242.877	38.62
243.093	39.05
243.309	37.76
243.525	40.61
243.741	40.94
243.957	43.46
244.173	42.83
244.388	43.59
244.604	43.31
244.82	41.77
245.036	40.09
245.252	37.17
245.468	35.93
245.683	33.99
245.899	30.46
246.115	28.55
246.331	26.62
246.547	26.29
246.762	25.88
246.978	25.82
247.194	25.76
247.409	26.19
247.625	26.06
247.841	24.81
248.057	24.71
248.272	27.14
248.488	28.04
248.703	29.01
248.919	31.05
249.135	31.35
249.35	34.03
249.566	35.63
249.782	38.06
249.997	39.2
250.213	40.7
250.428	42.32
250.644	39.86
250.859	41.43
251.075	44.5
251.29	42.99
251.506	42.01
251.721	41.22
251.937	40.11
252.152	39.31
252.368	39.1
252.583	40.92
252.798	40.24
253.014	42.33
253.229	42.16
253.445	40.95
253.66	42.09
253.875	45.01
254.091	45.7
254.306	49.68
254.521	52.19
254.737	54.22
254.952	50.8
255.167	53.45
255.383	53.04
255.598	52.24
255.813	53.36
256.028	53.99
256.244	52.95
256.459	49.38
256.674	45.61
256.889	44.16
257.104	41.34
257.32	40.49
257.535	36.3
257.75	34.44
257.965	33.64
258.18	30.49
258.395	28.19
258.61	27.44
258.826	26.27
259.041	24.99
259.256	22.39
259.471	21.27
259.686	20.45
259.901	20.6
260.116	19.98
260.331	19.15
260.546	20.28
260.761	20.92
260.976	21.19
261.191	22.93
261.406	23.24
261.621	26.41
261.836	27.07
262.05	29.7
262.265	32.1
262.48	32.05
262.695	34.54
262.91	34.57
263.125	33.61
263.34	32.09
263.555	31.32
263.769	30.78
263.984	31.11
264.199	34.15
264.414	32.3
264.629	31.54
264.843	31.62
265.058	31.66
265.273	29.64
265.488	27.37
265.702	27.17
265.917	26.51
266.132	27.36
266.346	26.95
266.561	25.99
266.776	25.34
266.99	24.95
267.205	25.1
267.42	23.9
267.634	23.21
267.849	25.31
268.063	24.44
268.278	23.68
268.492	22.48
268.707	21.66
268.922	22.41
269.136	22.1
269.351	23.82
269.565	25.59
269.78	24.34
269.994	25.78
270.209	26.07
270.423	26
270.637	24.93
270.852	25.63
271.066	23.62
271.281	23.06
271.495	23.8
271.709	21.06
271.924	19.22
272.138	20.67
272.353	20.15
272.567	20.13
272.781	20.98
272.996	22.8
273.21	23.6
273.424	25.38
273.638	27.14
273.853	27.82
274.067	29
274.281	29.22
274.495	28.61
274.71	27.96
274.924	27.68
275.138	27.18
275.352	29.07
275.566	27.74
275.781	28.1
275.995	25.6
276.209	24.49
276.423	25.01
276.637	26.46
276.851	25.63
277.065	25.9
277.279	26.68
277.493	27.1
277.707	23.75
277.921	24.15
278.135	23.93
278.349	24.02
278.563	25.18
278.777	23.78
278.991	25.32
279.205	25.85
279.419	26.56
279.633	26.79
279.847	26.85
280.061	25.77
280.275	23.83
280.489	23.4
280.703	23.13
280.917	21.77
281.131	21.52
281.344	20.88
281.558	20.69
281.772	21.17
281.986	21.46
282.2	21.16
282.414	21.96
282.627	23.24
282.841	24.84
283.055	25.11
283.269	24.51
283.482	25
283.696	23.08
283.91	23.39
284.123	22.24
284.337	20.96
284.551	21.12
284.764	20.45
284.978	20.56
285.192	18.5
285.405	19.38
285.619	20.51
285.833	20.91
286.046	21.83
286.26	21.34
286.473	21.82
286.687	21.98
286.9	21.39
287.114	23.32
287.327	23.08
287.541	23.96
287.754	23.64
287.968	23.49
288.181	23.39
288.395	22.81
288.608	23.27
288.822	22
289.035	21.78
289.248	22.18
289.462	21.53
289.675	20.82
289.889	20.7
290.102	20.54
290.315	20.43
290.529	20.55
290.742	21.71
290.955	21.88
291.169	22.33
291.382	24.5
291.595	25.2
291.808	26.16
292.022	25.43
292.235	26.28
292.448	26.24
292.661	26.08
292.875	25.75
293.088	25.72
293.301	26.12
293.514	26.09
293.727	25.05
293.94	24.2
294.153	22.85
294.367	23.62
294.58	22.56
294.793	21.06
295.006	21.28
295.219	20.68
295.432	19.64
295.645	18.77
295.858	19.47
296.071	18.74
296.284	18.3
296.497	18.54
296.71	19.2
296.923	19.19
297.136	20.36
297.349	20.4
297.562	20.45
297.775	20.53
297.988	20.59
298.201	20.09
298.414	20.37
298.626	20.81
298.839	21.18
299.052	21.13
299.265	21.64
299.478	20.98
299.691	21.5
299.903	21.67
300.116	21.99
300.329	22.27
300.542	22.27
300.755	23.23
300.967	23.94
301.18	22.57
301.393	22.81
301.605	23.01
301.818	23.39
302.031	22.2
302.243	22.51
302.456	22.65
302.669	23.88
302.881	23.76
303.094	22.4
303.307	21.62
303.519	23.11
303.732	24.01
303.944	23.79
304.157	25.27
304.37	26.02
304.582	27.38
304.795	27.37
305.007	26.55
305.22	26.38
305.432	27.38
305.645	28.83
305.857	29.47
306.069	26.68
306.282	25.82
306.494	22.46
306.707	22.19
306.919	20.78
307.132	20.34
307.344	20.59
307.556	20.83
307.769	19.79
307.981	18.85
308.193	18.7
308.406	19.12
308.618	20.54
308.83	21.57
309.043	20.96
309.255	21.33
309.467	22.94
309.679	22.9
309.892	22.26
310.104	22.42
310.316	21.76
310.528	21.1
310.74	21.92
310.953	21.61
311.165	21.58
311.377	21.99
311.589	21.79
311.801	20.99
312.013	21.57
312.225	22.56
312.437	23.5
312.649	24.71
312.862	24.44
313.074	25.76
313.286	26.81
313.498	28.6
313.71	28.29
313.922	29.04
314.134	28.23
314.346	28.53
314.558	28.32
314.77	27.93
314.982	27.65
315.193	29.56
315.405	28.74
315.617	27.67
315.829	27.23
316.041	28.57
316.253	27.95
316.465	28.58
316.677	28.22
316.888	28.86
317.1	28.89
317.312	28.62
317.524	28.84
317.736	27.58
317.947	28.29
318.159	28.85
318.371	28.73
318.583	30.33
318.794	30.26
319.006	30.53
319.218	30.72
319.43	30.86
319.641	30.4
319.853	28.85
320.064	31.2
320.276	31.1
320.488	30.23
320.699	29.83
320.911	28.35
321.123	29.18
321.334	28.25
321.546	28.84
321.757	28.4
321.969	29.89
322.18	28.15
322.392	27.04
322.603	26.45
322.815	27.05
323.026	27.74
323.238	26.69
323.449	26.17
323.661	27.17
323.872	26.4
324.083	26.61
324.295	25.63
324.506	26.61
324.718	26.62
324.929	26.63
325.14	25.45
325.352	25.79
325.563	27.18
325.774	26.37
325.986	25.7
326.197	25.64
326.408	26.54
326.62	26.69
326.831	27.14
327.042	27.14
327.253	27.01
327.464	27.97
327.676	26.94
327.887	26.88
328.098	28.33
328.309	28.3
328.52	27.07
328.732	25.81
328.943	25.82
329.154	24.55
329.365	26.17
329.576	27
329.787	27.82
329.998	27.96
330.209	27.64
330.42	27.69
330.631	28.68
330.842	29.91
331.053	29.66
331.264	29.4
331.475	30.66
331.686	30.15
331.897	29.01
332.108	28.29
332.319	29.85
332.53	30.09
332.741	29.5
332.952	28.99
333.163	29.4
333.374	30.19
333.585	30.14
333.795	29.9
334.006	30.76
334.217	31.61
334.428	31.98
334.639	32.13
334.849	31.86
335.06	30.84
335.271	31.03
335.482	31.8
335.692	31.93
335.903	32.57
336.114	32.15
336.325	31.69
336.535	31.76
336.746	32.36
336.957	32
337.167	31.78
337.378	33.47
337.589	34.28
337.799	33.87
338.01	34.18
338.22	35.08
338.431	34.78
338.642	34.33
338.852	35.18
339.063	33.4
339.273	31.83
339.484	33.08
339.694	31.65
339.905	31.19
340.115	30.94
340.326	30.56
340.536	29.89
340.746	29.92
340.957	28.71
341.167	28.39
341.378	29.91
341.588	30.61
341.799	30.9
342.009	30.74
342.219	29.68
342.43	29.66
342.64	29.96
342.85	28.83
343.061	29.15
343.271	30.53
343.481	29.63
343.691	28.46
343.902	28.64
344.112	26.73
344.322	26.94
344.532	27.41
344.743	27.47
344.953	26.04
345.163	27.22
345.373	28.28
345.583	27.99
345.793	27.49
346.004	27.63
346.214	26.94
346.424	27.35
346.634	27.18
346.844	28.14
347.054	28.87
347.264	29.95
347.474	29.19
347.684	29.05
347.894	29.32
348.104	28.63
348.314	28.84
348.524	28.54
348.734	29.13
348.944	30.57
349.154	29.35
349.364	28.18
349.574	27.45
349.784	28.27
349.994	28.23
350.204	27.42
350.413	28
350.623	28.47
350.833	29.45
351.043	28.85
351.253	27.42
351.463	27.23
351.672	28.38
351.882	28.8
352.092	28.19
352.302	28.32
352.511	27.71
352.721	27.76
352.931	27.4
353.141	27.54
353.35	27.1
353.56	27.06
353.77	26.64
353.979	26.13
354.189	25.8
354.399	25.94
354.608	24.12
354.818	24.88
355.027	24.7
355.237	25.22
355.447	24.42
355.656	24.42
355.866	24.5
356.075	24.34
356.285	23.02
356.494	23.05
356.704	23.06
356.913	23.57
357.123	23.14
357.332	23.24
357.542	22.54
357.751	22.75
357.96	22.93
358.17	23.13
358.379	23.65
358.589	23.91
358.798	23.48
359.007	22.29
359.217	22.97
359.426	22.11
359.635	21.9
359.845	21.13
360.054	21.04
360.263	21.03
360.472	20.99
360.682	20.35
360.891	20.72
361.1	20.78
361.309	21.4
361.519	20.22
361.728	20.97
361.937	21.32
362.146	21.62
362.355	21.07
362.564	20.98
362.774	21.1
362.983	21.87
363.192	20.77
363.401	20.54
363.61	20.26
363.819	20.64
364.028	19.66
364.237	19.72
364.446	20.88
364.655	21.49
364.864	21.1
365.073	20.65
365.282	19.84
365.491	20.88
365.7	21.41
365.909	21.62
366.118	21.83
366.327	22.6
366.536	21.99
366.745	21.43
366.954	21.15
367.162	21.38
367.371	20.98
367.58	21.74
367.789	21.34
367.998	21.89
368.207	22.19
368.415	22.52
368.624	22.18
368.833	22.36
369.042	21.94
369.25	21.8
369.459	22.13
369.668	24.18
369.877	23.27
370.085	23.71
370.294	22.82
370.503	23
370.711	22.37
370.92	22.46
371.129	22.69
371.337	22.58
371.546	22.24
371.754	22.65
371.963	21.38
372.171	21.59
372.38	21.41
372.589	21.93
372.797	21.2
373.006	21.46
373.214	22.02
373.423	22.31
373.631	22.64
373.84	23.67
374.048	24.09
374.256	23.9
374.465	24.24
374.673	23.67
374.882	22.74
375.09	22.58
375.298	22.26
375.507	22.51
375.715	22.07
375.923	21.37
376.132	21.14
376.34	20.2
376.548	19.72
376.757	19.85
376.965	20.53
377.173	20.94
377.381	21.36
377.59	22.38
377.798	21.97
378.006	21.71
378.214	22.34
378.423	22.26
378.631	22.07
378.839	22.54
379.047	22.74
379.255	22.34
379.463	22.32
379.671	22.45
379.879	21.59
380.088	21.27
380.296	21.13
380.504	21.17
380.712	21.71
380.92	21.89
381.128	21.73
381.336	21.27
381.544	21.71
381.752	22.18
381.96	22.51
382.168	22.96
382.376	23.1
382.584	23.71
382.791	22.9
382.999	22.22
383.207	22.15
383.415	22.65
383.623	22.95
383.831	22.85
384.039	23.56
384.247	22.85
384.454	23
384.662	23.36
384.87	23.16
385.078	23.65
385.285	23.31
385.493	23.37
385.701	22.32
385.909	22.08
386.116	22.37
386.324	21.53
386.532	22.15
386.739	21.41
386.947	21.31
387.155	21.75
387.362	22.5
387.57	23.51
387.778	24.05
387.985	24.6
388.193	25.01
388.4	24.29
388.608	23.73
388.816	23.07
389.023	23.58
389.231	23.57
389.438	23.51
389.646	22.43
389.853	21.28
390.061	20.72
390.268	19.54
390.475	18.66
390.683	18.97
390.89	19.49
391.098	19.75
391.305	19.47
391.512	19.28
391.72	18.67
391.927	18.64
392.135	19.18
392.342	19.14
392.549	20.26
392.756	20.31
392.964	20.25
393.171	20.55
393.378	20.2
393.586	20.01
393.793	19.84
394	19.78
394.207	19.47
394.414	19.35
394.622	19.23
394.829	19.47
395.036	19.71
395.243	20.17
395.45	19.93
395.657	20.23
395.864	20.96
396.072	21.01
396.279	20.86
396.486	21.13
396.693	20.87
396.9	21.16
397.107	20.71
397.314	20.5
397.521	20.27
397.728	19.86
397.935	19.52
398.142	19.31
398.349	18.96
398.556	19.37
398.763	20.04
398.97	20.23
399.177	20.38
399.383	20.68
399.59	20.77
399.797	20.89
400.004	20.72
400.211	20.97
400.418	20.57
400.625	21.07
400.831	20.73
401.038	20.28
401.245	20.54
401.452	20.79
401.658	20.51
401.865	20.55
402.072	20.18
402.279	20.45
402.485	20.32
402.692	20.22
402.899	20.15
403.105	20.46
403.312	20.31
403.519	19.95
403.725	18.99
403.932	19.09
404.138	19.14
404.345	19.08
404.552	19.14
404.758	19.27
404.965	19.8
405.171	19.71
405.378	19.56
405.584	20.01
405.791	20.6
405.997	21.06
406.204	21.52
406.41	21.75
406.617	22.01
406.823	22.19
407.029	21.98
407.236	21.74
407.442	21.63
407.649	22.08
407.855	21.43
408.061	21.1
408.268	21.5
408.474	20.73
408.68	20.37
408.887	20.25
409.093	20.03
409.299	20.12
409.505	19.48
409.712	19.54
409.918	19.57
410.124	19.54
410.33	19.26
410.537	19.11
410.743	19.32
410.949	19.36
411.155	19.59
411.361	19.56
411.567	19.54
411.773	20.29
411.98	20.3
412.186	20.21
412.392	20.2
412.598	20.48
412.804	19.94
413.01	20.11
413.216	20.32
413.422	20.19
413.628	20.14
413.834	20.47
414.04	20.31
414.246	20.41
414.452	19.81
414.658	19.9
414.864	20.1
415.07	20.21
415.275	20.82
415.481	20.54
415.687	20.31
415.893	20.3
416.099	19.88
416.305	19.7
416.511	19.29
416.716	19.28
416.922	19.22
417.128	18.91
417.334	18.78
417.539	18.22
417.745	17.85
417.951	17.98
418.157	17.93
418.362	17.83
418.568	17.87
418.774	18.12
418.979	17.95
419.185	17.94
419.391	17.92
419.596	18.12
419.802	17.91
420.008	18.06
420.213	19.64
420.419	19.72
420.624	19.56
420.83	19.32
421.035	18.99
421.241	19.11
421.446	19.13
421.652	19.08
421.857	18.83
422.063	18.84
422.268	18.74
422.474	16.88
422.679	16.73
422.885	16.93
423.09	16.97
423.295	17.07
423.501	16.88
423.706	17.03
423.911	17.17
424.117	17.27
424.322	17.26
424.527	17.53
424.733	17.61
424.938	17.61
425.143	17.31
425.349	17.36
425.554	17.31
425.759	17.45
425.964	17.24
426.169	17.19
426.375	17.34
426.58	17.48
426.785	17.47
426.99	17.56
427.195	17.68
427.4	18.62
427.605	18.89
427.811	19.14
428.016	19.23
428.221	19.94
428.426	19.91
428.631	19.89
428.836	19.86
429.041	19.87
429.246	19.94
429.451	19.99
429.656	19.7
429.861	19.59
430.066	19.8
430.271	19.71
430.476	19.13
430.681	18.68
430.886	18.55
431.09	18.59
431.295	18.24
431.5	18.33
431.705	18.02
431.91	17.81
432.115	18.02
432.32	17.99
432.524	17.96
432.729	17.82
432.934	18.23
433.139	18.3
433.343	18.06
433.548	18.1
433.753	17.97
433.958	18.13
434.162	18.24
434.367	18.13
434.572	18.05
434.776	18.13
434.981	18.22
435.186	18.09
435.39	18.06
435.595	18.36
435.799	18.4
436.004	18.06
436.209	17.81
436.413	17.75
436.618	17.64
436.822	17.62
437.027	17.39
437.231	17.39
437.436	17.06
437.64	16.92
437.845	16.82
438.049	16.81
438.253	17.03
438.458	16.99
438.662	16.83
438.867	16.71
439.071	16.87
439.275	17.26
439.48	17.44
439.684	17.53
439.888	17.71
440.093	17.66
440.297	17.71
440.501	17.79
440.706	18.06
440.91	18.15
441.114	17.95
441.318	17.84
441.523	17.85
441.727	17.69
441.931	17.79
442.135	17.76
442.339	17.99
442.543	17.94
442.748	18.04
442.952	18.01
443.156	17.86
443.36	18.03
443.564	18.03
443.768	17.76
443.972	17.85
444.176	17.79
444.38	17.76
444.584	17.66
444.788	17.76
444.992	17.31
445.196	17.39
445.4	17.25
445.604	17.23
445.808	17.3
446.012	17.33
446.216	17.14
446.42	17.2
446.624	17.16
446.828	16.88
447.032	16.73
447.235	17.06
447.439	16.98
447.643	17.15
447.847	17.31
448.051	17.19
448.254	17.45
448.458	17.67
448.662	17.6
448.866	17.67
449.069	17.88
449.273	18.19
449.477	18.07
449.681	17.91
449.884	18.05
450.088	18.05
450.292	17.98
450.495	17.67
450.699	17.57
450.902	17.5
451.106	17.62
451.31	17.71
451.513	17.39
451.717	17.34
451.92	17.61
452.124	17.5
452.327	17.39
452.531	17.26
452.734	17.29
452.938	17.61
453.141	18
453.345	17.79
453.548	17.91
453.752	18.05
453.955	17.96
454.158	17.84
454.362	17.85
454.565	18.2
454.769	18.5
454.972	18.6
455.175	18.37
455.379	18.37
455.582	18.34
455.785	18.15
455.988	18.18
456.192	18.04
456.395	17.91
456.598	17.92
456.801	17.65
457.005	17.68
457.208	17.46
457.411	17.54
457.614	17.63
457.817	17.36
458.021	16.94
458.224	16.69
458.427	16.99
458.63	17.03
458.833	17.01
459.036	16.92
459.239	16.84
459.442	16.79
459.645	16.58
459.848	16.24
460.051	16.44
460.254	16.64
460.457	17.08
460.66	16.83
460.863	16.96
461.066	16.86
461.269	16.99
461.472	16.95
461.675	16.8
461.878	17.07
462.081	17.46
462.284	17.71
462.486	17.78
462.689	17.52
462.892	17.78
463.095	17.63
463.298	17.72
463.5	17.9
463.703	18.02
463.906	18.53
464.109	18.13
464.311	18.26
464.514	18.18
464.717	18.22
464.92	17.99
465.122	18.12
465.325	18.03
465.528	18.32
465.73	18.15
465.933	17.99
466.135	17.96
466.338	18.19
466.541	17.79
466.743	17.62
466.946	17.94
467.148	18.38
467.351	18.14
467.553	18.53
467.756	18.34
467.958	18.26
468.161	18.24
468.363	18.24
468.566	18.32
468.768	18.61
468.971	18.8
469.173	18.55
469.375	18.33
469.578	18.73
469.78	18.21
469.983	18.08
470.185	18
470.387	18.21
470.59	18.44
470.792	18.52
470.994	18.18
471.196	18.23
471.399	18.11
471.601	17.99
471.803	17.7
472.005	17.83
472.208	18.21
472.41	18.57
472.612	18.3
472.814	18.01
473.016	18.12
473.218	18.15
473.421	17.95
473.623	18.07
473.825	17.93
474.027	18.19
474.229	18.44
474.431	18.25
474.633	17.97
474.835	17.77
475.037	17.68
475.239	17.37
475.441	17.55
475.643	17.76
475.845	17.47
476.047	17.55
476.249	17.34
476.451	17.04
476.653	16.89
476.855	17.02
477.057	17.33
477.258	17.16
477.46	17.21
477.662	17.16
477.864	16.67
478.066	16.94
478.268	16.93
478.469	16.91
478.671	16.83
478.873	16.8
479.075	16.93
479.276	16.43
479.478	16.55
479.68	16.08
479.882	15.85
480.083	16.11
480.285	16.17
480.487	16.14
480.688	16.03
480.89	16.25
481.091	16.21
481.293	16.02
481.495	16.1
481.696	16.14
481.898	16.11
482.099	16
482.301	15.69
482.502	15.37
482.704	15.23
482.905	15.05
483.107	14.73
483.308	14.67
483.51	14.49
483.711	14.48
483.913	14.3
484.114	14.23
484.315	14.22
484.517	14.17
484.718	14.19
484.92	14.16
485.121	14.12
485.322	14.15
485.524	14.11
485.725	14.22
485.926	14.23
486.127	14.25
486.329	14.26
486.53	14.24
486.731	14.38
486.932	14.3
487.134	14.54
487.335	14.64
487.536	14.69
487.737	14.79
487.938	14.82
488.139	14.83
488.341	14.93
488.542	15.1
488.743	15.17
488.944	15.17
489.145	15.38
489.346	15.33
489.547	15.46
489.748	15.58
489.949	15.65
490.15	15.61
490.351	15.65
490.552	15.73
490.753	15.68
490.954	15.47
491.155	15.47
491.356	15.44
491.557	15.36
491.758	15.32
491.959	15.39
492.159	15.42
492.36	15.35
492.561	15.53
492.762	15.59
492.963	15.57
493.164	16.01
493.364	16.36
493.565	16.47
493.766	16.51
493.967	16.53
494.167	16.49
494.368	16.38
494.569	16.71
494.769	16.45
494.97	16.54
495.171	16.5
495.371	16.35
495.572	16.31
495.773	16.21
495.973	16.46
496.174	16.56
496.375	16.78
496.575	16.54
496.776	16.47
496.976	16.65
497.177	16.27
497.377	16.74
497.578	16.93
497.778	17.02
497.979	17.15
498.179	16.84
498.38	16.82
498.58	16.65
498.78	17.09
498.981	17.07
499.181	17.15
499.382	17.47
499.582	17.22
499.782	16.92
499.983	16.69
500.183	16.83
500.383	17.27
500.584	17.35
500.784	17.47
500.984	17.34
501.184	17.36
501.385	17.27
501.585	17.43
501.785	17.42
501.985	17.63
502.185	17.83
502.386	17.83
502.586	17.59
502.786	17.49
502.986	17.7
503.186	17.91
503.386	17.77
503.586	17.95
503.786	18
503.987	18.21
504.187	18.29
504.387	18.2
504.587	17.99
504.787	18.12
504.987	18.35
505.187	18.3
505.387	18.31
505.587	18.51
505.786	18.31
505.986	18.3
506.186	18.04
506.386	18
506.586	18.02
506.786	18.12
506.986	18.24
507.186	18.14
507.386	18.2
507.585	17.76
507.785	17.63
507.985	18.06
508.185	18.21
508.384	18.22
508.584	18.14
508.784	18.24
508.984	18.48
509.183	18.29
509.383	18.43
509.583	18.45
509.782	18.69
509.982	19.1
510.182	18.8
510.381	18.48
510.581	18.7
510.781	18.96
510.98	19.1
511.18	19.14
511.379	19.55
511.579	19.65
511.778	19.46
511.978	19.66
512.177	19.58
512.377	19.59
512.576	19.95
512.776	20
512.975	20.01
513.175	19.71
513.374	19.68
513.573	19.42
513.773	19.45
513.972	19.77
514.172	19.97
514.371	20.16
514.57	20.35
514.77	20.35
514.969	20.63
515.168	20.5
515.367	20.97
515.567	21.17
515.766	20.99
515.965	20.9
516.164	20.65
516.364	20.56
516.563	20.45
516.762	20.41
516.961	20.33
517.16	20.13
517.359	20.3
517.559	20.2
517.758	19.96
517.957	20.13
518.156	20.32
518.355	20.35
518.554	20.22
518.753	20.03
518.952	19.95
519.151	19.94
519.35	19.98
519.549	19.79
519.748	19.84
519.947	19.85
520.146	19.91
520.345	19.93
520.544	20.07
520.743	20.2
520.942	20.6
521.141	20.92
521.339	21.09
521.538	21.19
521.737	21.34
521.936	20.96
522.135	21.12
522.333	21.26
522.532	21.31
522.731	21.59
522.93	21.74
523.129	21.69
523.327	21.74
523.526	21.63
523.725	21.6
523.923	21.59
524.122	22.07
524.321	22.13
524.519	21.87
524.718	21.84
524.917	21.79
525.115	21.61
525.314	21.38
525.512	21.39
525.711	21.5
525.909	21.63
526.108	21.74
526.306	21.64
526.505	21.63
526.703	21.77
526.902	21.7
527.1	21.53
527.299	21.63
527.497	21.77
527.696	21.68
527.894	21.61
528.092	21.58
528.291	21.61
528.489	21.65
528.688	21.75
528.886	21.78
529.084	21.78
529.283	21.9
529.481	21.95
529.679	21.92
529.877	22.16
530.076	22.34
530.274	22.42
530.472	22.48
530.67	22.58
530.869	22.58
531.067	22.75
531.265	22.93
531.463	22.82
531.661	23.09
531.859	23.38
532.057	23.36
532.255	23.34
532.454	23.29
532.652	23.49
532.85	23.45
533.048	23.61
533.246	23.59
533.444	23.62
533.642	23.86
533.84	23.74
534.038	23.85
534.236	23.8
534.434	23.96
534.632	24.18
534.83	24.1
535.027	24.38
535.225	24.38
535.423	24.61
535.621	24.61
535.819	24.83
536.017	25
536.215	24.84
536.412	25.04
536.61	25.17
536.808	25.1
537.006	25.33
537.203	25.38
537.401	25.46
537.599	25.46
537.797	25.71
537.994	25.82
538.192	26.04
538.39	26.25
538.587	26.24
538.785	26.35
538.983	26.54
539.18	26.44
539.378	26.47
539.575	26.57
539.773	26.62
539.97	26.7
540.168	26.45
540.366	26.32
540.563	26.33
540.761	26.44
540.958	26.4
541.155	26.31
541.353	26.29
541.55	26.35
541.748	26.29
541.945	26.36
542.143	26.33
542.34	26.5
542.537	26.48
542.735	26.46
542.932	26.51
543.129	26.68
543.327	27.05
543.524	27.15
543.721	27.13
543.919	27.3
544.116	27.43
544.313	27.61
544.51	27.59
544.708	27.9
544.905	28.26
545.102	28.38
545.299	28.43
545.496	28.67
545.693	28.74
545.891	28.89
546.088	29.07
546.285	29.14
546.482	29.16
546.679	29.36
546.876	29.39
547.073	29.44
547.27	29.67
547.467	29.78
547.664	29.67
547.861	30.18
548.058	30.26
548.255	30.3
548.452	30.18
548.649	30.54
548.846	30.82
549.043	30.99
549.24	30.9
549.437	30.95
549.633	31.22
549.83	31.47
550.027	31.67
550.224	32.06
550.421	32.08
550.618	32.6
550.814	32.46
551.011	32.4
551.208	32.51
551.405	32.76
551.601	32.83
551.798	32.51
551.995	32.33
552.191	32.32
552.388	32.1
552.585	32.4
552.781	32.33
552.978	32.62
553.175	32.69
553.371	32.96
553.568	33.05
553.764	33.19
553.961	33.57
554.157	33.82
554.354	33.74
554.55	34.24
554.747	34.63
554.943	34.68
555.14	34.56
555.336	35.02
555.533	35.2
555.729	35.52
555.926	35.35
556.122	35.3
556.318	35.68
556.515	36.11
556.711	36.47
556.907	36.76
557.104	37.07
557.3	37.06
557.496	36.56
557.693	36.76
557.889	36.64
558.085	36.84
558.281	37.17
558.478	37.13
558.674	37.05
558.87	36.51
559.066	36.35
559.262	36.2
559.459	36.42
559.655	37.31
559.851	37.18
560.047	37.43
560.243	37.69
560.439	37.98
560.635	37.87
560.831	37.85
561.027	38.24
561.223	38.27
561.419	38.54
561.615	38.62
561.811	38.57
562.007	38.77
562.203	38.43
562.399	38.64
562.595	38.89
562.791	38.87
562.987	38.91
563.183	38.93
563.379	38.85
563.575	38.93
563.771	39.34
563.966	39.36
564.162	39.5
564.358	39.89
564.554	40.08
564.75	39.59
564.945	39.75
565.141	39.83
565.337	39.94
565.533	39.94
565.728	39.86
565.924	40.02
566.12	39.96
566.315	39.73
566.511	39.93
566.707	39.86
566.902	39.98
567.098	40.02
567.293	40.1
567.489	39.78
567.684	39.31
567.88	39.71
568.076	39.41
568.271	39.44
568.467	39.51
568.662	39.23
568.858	39.35
569.053	39.38
569.248	39.4
569.444	39.89
569.639	40.17
569.835	40.62
570.03	40.46
570.225	40.7
570.421	40.71
570.616	40.89
570.812	41.07
571.007	40.85
571.202	41
571.397	40.95
571.593	40.56
571.788	40.52
571.983	40.79
572.178	40.9
572.374	40.97
572.569	41.26
572.764	41.29
572.959	41.24
573.154	41.25
573.35	41.19
573.545	41.42
573.74	41.26
573.935	41.54
574.13	41.24
574.325	41.14
574.52	41.09
574.715	41.15
574.91	40.77
575.105	40.94
575.3	41.24
575.495	41.49
575.69	41.57
575.885	41.75
576.08	41.84
576.275	42.32
576.47	42.72
576.665	42.88
576.86	42.7
577.055	43.3
577.25	43.61
577.444	43.76
577.639	43.85
577.834	43.97
578.029	44.51
578.224	44.63
578.418	44.75
578.613	44.9
578.808	44.9
579.003	45.47
579.197	45.75
579.392	45.71
579.587	45.81
579.781	46.19
579.976	46.24
580.171	46.04
580.365	45.82
580.56	45.76
580.755	45.4
580.949	45.49
581.144	45.24
581.338	45.17
581.533	45.37
581.727	45.37
581.922	45.06
582.116	45.28
582.311	44.93
582.505	45.17
582.7	45.26
582.894	45.52
583.089	45.81
583.283	45.86
583.478	45.67
583.672	45.47
583.866	45.28
584.061	45.27
584.255	45.03
584.449	45.96
584.644	45.94
584.838	46.18
585.032	46.1
585.226	46.08
585.421	45.83
585.615	45.74
585.809	45.98
586.003	46.26
586.198	46.69
586.392	46.61
586.586	46.18
586.78	46.63
586.974	46.45
587.168	46.29
587.363	46.04
587.557	46.36
587.751	46.83
587.945	47.12
588.139	46.73
588.333	46.19
588.527	46.6
588.721	47.05
588.915	46.79
589.109	46.97
589.303	47.19
589.497	47.61
589.691	48.26
589.885	47.95
590.079	47.74
590.273	47.86
590.466	48.44
590.66	48.14
590.854	48.05
591.048	48.05
591.242	47.85
591.436	47.8
591.629	47.33
591.823	46.52
592.017	46.58
592.211	46.62
592.404	47.23
592.598	46.92
592.792	47.14
592.986	46.9
593.179	47.07
593.373	47.22
593.567	47.51
593.76	47.95
593.954	48.49
594.147	48.66
594.341	48.36
594.535	48.21
594.728	48.49
594.922	48.52
595.115	48.46
595.309	48.44
595.502	48.71
595.696	48.73
595.889	48.71
596.083	48.58
596.276	48.87
596.47	49.15
596.663	49.51
596.856	49.6
597.05	49.88
597.243	50.1
597.437	50.1
597.63	50.06
597.823	49.92
598.017	50
598.21	50.04
598.403	50.22
598.596	50.71
598.79	50.26
598.983	49.98
599.176	49.93
599.369	49.77
599.563	49.84
599.756	50.12
599.949	50.34
600.142	50.03
600.335	50.05
600.528	49.88
600.722	49.39
600.915	49.84
601.108	50.11
601.301	49.95
601.494	49.76
601.687	50.01
601.88	49.81
602.073	50.04
602.266	50.44
602.459	49.93
602.652	49.41
602.845	49.25
603.038	49.2
603.231	49.13
603.424	49.06
603.617	49.48
603.809	49.26
604.002	48.9
604.195	48.92
604.388	48.93
604.581	49.62
604.774	50.06
604.966	50.45
605.159	50.42
605.352	50.4
605.545	50.78
605.737	50.78
605.93	50.79
606.123	51.2
606.316	51.15
606.508	51.16
606.701	50.99
606.894	51
607.086	51.15
607.279	50.62
607.471	50.63
607.664	50.29
607.857	50.23
608.049	50.25
608.242	50.05
608.434	49.88
608.627	49.49
608.819	49.46
609.012	49.56
609.204	49.73
609.397	50.2
609.589	50.54
609.782	50.69
609.974	50.56
610.166	50.67
610.359	50.84
610.551	51.4
610.743	51.97
610.936	52.26
611.128	52.47
611.32	52.27
611.513	52.11
611.705	52.34
611.897	52.74
612.09	53.49
612.282	53.88
612.474	54.09
612.666	53.81
612.858	53.56
613.051	54.08
613.243	53.77
613.435	53.52
613.627	53.9
613.819	53.84
614.011	54.46
614.203	54.71
614.395	54.42
614.588	54.43
614.78	54.4
614.972	55.07
615.164	54.68
615.356	54.51
615.548	54.92
615.74	54.84
615.932	55.1
616.124	54.12
616.315	54.13
616.507	54.63
616.699	55.02
616.891	55.01
617.083	54.74
617.275	54.34
617.467	54.72
617.659	54.54
617.85	54.48
618.042	54.48
618.234	55.14
618.426	54.65
618.618	54.27
618.809	54.42
619.001	54.36
619.193	54.64
619.384	54.89
619.576	54.76
619.768	54.6
619.959	54.66
620.151	54.35
620.343	53.98
620.534	54.7
620.726	54.69
620.917	54.53
621.109	54.72
621.301	54.59
621.492	54.74
621.684	55.14
621.875	55.38
622.067	54.68
622.258	54.9
622.45	54.93
622.641	54.33
622.832	54.33
623.024	54.15
623.215	54.4
623.407	54.05
623.598	54.41
623.789	53.9
623.981	53.96
624.172	55.11
624.363	54.76
624.555	54.55
624.746	54.73
624.937	55.46
625.129	55.53
625.32	55.19
625.511	55.4
625.702	54.39
625.893	54.58
626.085	54.26
626.276	53.73
626.467	53.77
626.658	53.68
626.849	53.49
627.04	53.23
627.231	52.81
627.422	52.9
627.614	52.84
627.805	53.48
627.996	53.2
628.187	53.87
628.378	54.36
628.569	54.34
628.76	54.81
628.951	54.72
629.142	54.5
629.332	55
629.523	55.44
629.714	55.68
629.905	55.26
630.096	55.31
630.287	54.89
630.478	54.76
630.669	54.86
630.859	54.67
631.05	54.6
631.241	54.57
631.432	54.7
631.623	54.61
631.813	54.56
632.004	54.54
632.195	54.58
632.385	54.63
632.576	54.75
632.767	54.95
632.957	55.26
633.148	55.28
633.339	55.77
633.529	55.33
633.72	54.58
633.91	54.99
634.101	54.94
634.292	54.99
634.482	54.6
634.673	54.23
634.863	53.69
635.054	53.74
635.244	53.9
635.435	53.4
635.625	53.36
635.815	54.47
636.006	53.85
636.196	54.35
636.387	54.87
636.577	54.89
636.767	54.65
636.958	54.67
637.148	54.49
637.338	54.78
637.529	55.21
637.719	55.32
637.909	54.2
638.099	53.94
638.29	54
638.48	53.85
638.67	54.39
638.86	55.18
639.05	56.4
639.241	56.61
639.431	57.07
639.621	56.56
639.811	57.05
640.001	57.64
640.191	57.98
640.381	57.89
640.571	58.09
640.761	58.16
640.951	58.7
641.141	58.55
641.331	58.22
641.521	57.48
641.711	58.79
641.901	58.71
642.091	58.74
642.281	59.24
642.471	59.43
642.661	59.37
642.851	59.63
643.041	59.31
643.231	58.79
643.42	59.26
643.61	59
643.8	57.92
643.99	58.09
644.18	58.86
644.369	58.55
644.559	57.55
644.749	57.81
644.939	58.11
645.128	57.37
645.318	57.27
645.508	56.45
645.697	57.89
645.887	58.56
646.076	59.2
646.266	59.15
646.456	59.22
646.645	60.1
646.835	60.6
647.024	60.1
647.214	60.68
647.403	60.49
647.593	60.99
647.782	59.85
647.972	59.47
648.161	58.92
648.351	58.75
648.54	58.46
648.73	59.2
648.919	58.89
649.108	59.08
649.298	59.34
649.487	59.68
649.677	59.61
649.866	59.94
650.055	59.44
650.244	59.38
650.434	58.81
650.623	58.87
650.812	58.11
651.002	57.78
651.191	57.28
651.38	56.88
651.569	57.53
651.758	57.33
651.947	56.48
652.137	57.01
652.326	57.26
652.515	57.67
652.704	57.38
652.893	57.77
653.082	57.69
653.271	58.06
653.46	57.99
653.649	57.08
653.838	57.11
654.027	58.15
654.216	58.42
654.405	57.51
654.594	57.05
654.783	57.39
654.972	57.15
655.161	58.07
655.35	58.23
655.539	58.34
655.728	59.24
655.916	58.85
656.105	58.41
656.294	59.11
656.483	59.95
656.672	59.75
656.86	60.2
657.049	60.4
657.238	59.25
657.427	58.94
657.615	58.68
657.804	57.46
657.993	58.25
658.181	58.59
658.37	57.03
658.559	56.34
658.747	57
658.936	57.3
659.125	56.59
659.313	56.99
659.502	56.88
659.69	56.85
659.879	57.08
660.067	56.63
660.256	56.4
660.444	57
660.633	57.29
660.821	56.76
661.01	56.66
661.198	57.25
661.387	56.9
661.575	57.24
661.763	57.76
661.952	58.31
662.14	59.39
662.328	59.76
662.517	60.03
662.705	60.06
662.893	60.19
663.082	59.45
663.27	60.01
663.458	59.92
663.646	60.17
663.834	60.5
664.023	60.2
664.211	60.2
664.399	59.61
664.587	59.59
664.775	59.73
664.963	60.41
665.152	61.54
665.34	61.41
665.528	61.63
665.716	60.5
665.904	59.92
666.092	60.25
666.28	60.18
666.468	60.93
666.656	61.14
666.844	61.25
667.032	60.89
667.22	60.65
667.408	60.13
667.596	60.38
667.784	61.51
667.971	61.77
668.159	61.56
668.347	60.76
668.535	59.91
668.723	59.75
668.911	59.7
669.098	59.57
669.286	58.4
669.474	58.46
669.662	58.21
669.849	58.76
670.037	58.7
670.225	58.71
670.413	58.18
670.6	59.09
670.788	59.16
670.976	59.79
671.163	60.08
671.351	60.9
671.538	60.51
671.726	60.58
671.913	59.66
672.101	59.86
672.289	60.32
672.476	61.25
672.664	61.67
672.851	60.92
673.039	60.64
673.226	60.3
673.413	60.5
673.601	61.18
673.788	61.81
673.976	62.31
674.163	62.1
674.35	61.59
674.538	60.47
674.725	59.86
674.912	60.9
675.1	61.28
675.287	62.35
675.474	61.77
675.662	61.43
675.849	61.28
676.036	60.45
676.223	60.57
676.411	60.77
676.598	61.82
676.785	61.95
676.972	61.49
677.159	61.57
677.346	60.92
677.533	60.88
677.721	60.75
677.908	60.7
678.095	61.79
678.282	61.82
678.469	61.18
678.656	60.78
678.843	60.4
679.03	60.46
679.217	60.21
679.404	59.7
679.591	60.17
679.778	60.31
679.964	60.01
680.151	58.93
680.338	58.93
680.525	59.67
680.712	59.84
680.899	59.81
681.086	59.98
681.272	59.82
681.459	60.56
681.646	60.2
681.833	59.82
682.02	60.25
682.206	61.18
682.393	60.7
682.58	60.76
682.766	60.92
682.953	61.44
683.14	61.81
683.326	63.12
683.513	62.8
683.7	63.88
683.886	64.72
684.073	64.76
684.259	64.62
684.446	65.48
684.632	66.14
684.819	65.74
685.005	64.83
685.192	64.96
685.378	62.89
685.565	63.09
685.751	62.2
685.938	61.67
686.124	61.97
686.31	61.12
686.497	60.7
686.683	58.78
686.87	59.73
687.056	60.23
687.242	59.65
687.429	60.93
687.615	60.5
687.801	60.99
687.987	61.48
688.174	61
688.36	61.74
688.546	62.05
688.732	63.91
688.918	63.59
689.105	63.56
689.291	64.39
689.477	63.62
689.663	64.35
689.849	64.75
690.035	64.65
690.221	65.03
690.407	66.1
690.593	66.18
690.779	65.16
690.965	65.7
691.151	66.77
691.337	66.61
691.523	66.49
691.709	65.75
691.895	65.26
692.081	65.52
692.267	65.7
692.453	64.64
692.639	64.9
692.825	65.68
693.011	64.97
693.196	64.78
693.382	64.73
693.568	65.85
693.754	66.16
693.94	66.95
694.125	67.02
694.311	67.35
694.497	67.12
694.682	67.42
694.868	66.97
695.054	67.32
695.239	67.09
695.425	65.75
695.611	64.66
695.796	63.93
695.982	62.49
696.168	62.12
696.353	60.78
696.539	62.13
696.724	62.27
696.91	61.67
697.095	61.57
697.281	60.69
697.466	60.79
697.652	60.84
697.837	60.87
698.023	60.86
698.208	60.75
698.393	61.36
698.579	61.2
698.764	60.59
698.949	61.12
699.135	61.35
699.32	61.94
699.505	61.42
699.691	61.69
699.876	61.7
700.061	62.01
700.246	61.4
700.432	61.65
700.617	60.86
700.802	60.8
700.987	60.71
701.172	58.89
701.358	58.26
701.543	60.38
701.728	60.08
701.913	60.69
702.098	61.34
702.283	64.06
702.468	63.83
702.653	64.71
702.838	65.85
703.023	66.52
703.208	68.68
703.393	68.68
703.578	68.71
703.763	70.13
703.948	70.98
704.133	71.12
704.318	69.32
704.503	69.59
704.688	69.33
704.873	68.48
705.057	68.34
705.242	68.29
705.427	69.54
705.612	69.1
705.797	68.52
705.981	68.38
706.166	67.32
706.351	67.68
706.536	67.21
706.72	67.25
706.905	66.6
707.09	66.28
707.274	66.63
707.459	66.56
707.644	65.88
707.828	66.24
708.013	65.17
708.197	65.81
708.382	65.71
708.567	65.84
708.751	64.15
708.936	64.92
709.12	65.74
709.305	65.82
709.489	65.21
709.673	65.86
709.858	65.39
710.042	65.62
710.227	65.1
710.411	65.17
710.596	65.13
710.78	67.08
710.964	67.66
711.149	66.62
711.333	65.65
711.517	66.1
711.702	66.37
711.886	65.97
712.07	65.94
712.254	66.42
712.438	66.07
712.623	65.22
712.807	63.99
712.991	63.39
713.175	64.19
713.359	65.55
713.544	65.58
713.728	64.18
713.912	63.3
714.096	64.97
714.28	65.44
714.464	65.51
714.648	65.98
714.832	67.09
715.016	66.79
715.2	66.2
715.384	65.51
715.568	65.7
715.752	66.15
715.936	67.37
716.12	66.27
716.304	66.38
716.488	67.3
716.671	68.67
716.855	68.2
717.039	68.89
717.223	69.09
717.407	69.87
717.59	68.81
717.774	69.66
717.958	70.63
718.142	72.1
718.325	73.25
718.509	73.74
718.693	72.52
718.877	72.11
719.06	71.42
719.244	73.25
719.428	73.16
719.611	74.21
719.795	73.48
719.978	72.05
720.162	72.07
720.345	71.11
720.529	69.97
720.713	71.63
720.896	72.31
721.08	71.64
721.263	70.49
721.446	69.68
721.63	71.27
721.813	72.8
721.997	72.83
722.18	71.25
722.364	72.05
722.547	73.91
722.73	73.19
722.914	74.74
723.097	75.18
723.28	74.19
723.464	74.67
723.647	74.49
723.83	73.38
724.013	73.89
724.197	75.7
724.38	73.94
724.563	71.66
724.746	70.9
724.929	69.35
725.112	71.11
725.296	71.59
725.479	71.97
725.662	69.98
725.845	70.67
726.028	70.58
726.211	68.61
726.394	68.93
726.577	71.21
726.76	72.23
726.943	71.06
727.126	70.11
727.309	71.75
727.492	71.29
727.675	71.77
727.858	70.15
728.041	71.3
728.224	71.77
728.407	71.89
728.589	69.87
728.772	68.27
728.955	69.53
729.138	68.28
729.321	65.94
729.503	66.61
729.686	67.41
729.869	68.94
730.052	67.83
730.234	68.36
730.417	67.79
730.6	68.26
730.782	70.27
730.965	70.33
731.148	73.32
731.33	73.82
731.513	73.11
731.695	71.8
731.878	72.25
732.061	72.09
732.243	72.3
732.426	73.39
732.608	74.33
732.791	73
732.973	72.6
733.156	70.54
733.338	70.33
733.52	70.97
733.703	71.21
733.885	71.02
734.068	70.32
734.25	71.09
734.432	70.49
734.615	71.29
734.797	72.34
734.979	72.68
735.162	72.92
735.344	74.01
735.526	74.98
735.708	75.54
735.891	75.43
736.073	77.52
736.255	76.24
736.437	76.36
736.619	76.7
736.802	76.1
736.984	77.86
737.166	78.52
737.348	77.53
737.53	78.43
737.712	77.88
737.894	77.12
738.076	78.19
738.258	77.61
738.44	77.15
738.622	75.14
738.804	76.65
738.986	75.47
739.168	74.08
739.35	74.34
739.532	74.02
739.714	75.49
739.896	76.18
740.078	75.61
740.259	77.71
740.441	79.24
740.623	79.57
740.805	77.95
740.987	78.32
741.168	81.59
741.35	82.74
741.532	80.09
741.714	78.03
741.895	79.07
742.077	79.1
742.259	78.87
742.44	79.69
742.622	78.22
742.804	79.81
742.985	79.74
743.167	76.93
743.348	77.98
743.53	78.97
743.711	78.64
743.893	79.93
744.075	79.36
744.256	77.54
744.438	76.58
744.619	79.54
744.8	76.32
744.982	76.32
745.163	77.36
745.345	75.74
745.526	75.5
745.707	75.92
745.889	73.98
746.07	73.67
746.252	74.85
746.433	73.44
746.614	74.16
746.795	77.92
746.977	77.65
747.158	77.95
747.339	78.43
747.52	79.48
747.702	80.08
747.883	81.17
748.064	82.25
748.245	81.74
748.426	83.76
748.607	80.76
748.788	81
748.97	81.14
749.151	81.66
749.332	82.23
749.513	81.96
749.694	83.58
749.875	82.04
750.056	81.89
750.237	83.9
750.418	83.89
750.599	87.17
750.78	84.03
750.96	85.33
751.141	83.93
751.322	83.05
751.503	83.12
751.684	82.54
751.865	82.27
752.046	83.5
752.226	83.41
752.407	84.49
752.588	83.93
752.769	83.79
752.949	80.48
753.13	82.67
753.311	81.26
753.492	84.35
753.672	84.76
753.853	85.96
754.034	85.13
754.214	84.81
754.395	81.86
754.575	84.02
754.756	88.07
754.937	91.84
755.117	89.43
755.298	92.02
755.478	88.73
755.659	86.63
755.839	87.15
756.02	86.14
756.2	86.99
756.381	87.58
756.561	84.3
756.741	82.33
756.922	81.52
757.102	83.85
757.283	82.84
757.463	81.52
757.643	82.62
757.823	80.55
758.004	79.75
758.184	78.26
758.364	79.36
758.545	80.4
758.725	81.62
758.905	79.7
759.085	78.17
759.265	79.99
759.446	81.56
759.626	80.18
759.806	82
759.986	83.82
760.166	85.53
760.346	84.82
760.526	84.13
760.706	81.99
760.886	83.21
761.066	83.09
761.246	80.26
761.426	78.18
761.606	78.83
761.786	77.43
761.966	76.32
762.146	73.24
762.326	69.83
762.506	71.01
762.686	70.42
762.866	69.71
763.046	68.09
763.225	68.21
763.405	67.52
763.585	68.25
763.765	66.85
763.945	67.16
764.124	66.7
764.304	70.38
764.484	70.1
764.664	70.28
764.843	70
765.023	70.91
765.203	71.47
765.382	74.02
765.562	72.59
765.741	74.84
765.921	77.08
766.101	78.6
766.28	77.18
766.46	76.71
766.639	77.12
766.819	77.84
766.998	79.02
767.178	77.98
767.357	76.9
767.537	78.34
767.716	79.05
767.896	75.84
768.075	78.69
768.254	79.92
768.434	78
768.613	78.16
768.792	79.56
768.972	81.73
769.151	84.34
769.33	84.66
769.51	84.7
769.689	86.39
769.868	89.76
770.047	87.76
770.226	88.21
770.406	88.93
770.585	91.61
770.764	89.97
770.943	88.08
771.122	88.93
771.301	89.43
771.48	91.1
771.66	89.43
771.839	87.82
772.018	87.92
772.197	87.87
772.376	88.5
772.555	90.98
772.734	93.45
772.913	93.28
773.092	92.43
773.271	90.85
773.449	91.8
773.628	90.92
773.807	90.27
773.986	93.15
774.165	94.14
774.344	93.89
774.523	89.13
774.701	88.53
774.88	92.4
775.059	93.03
775.238	96.44
775.417	96.06
775.595	101.36
775.774	103.24
775.953	97.75
776.131	93.54
776.31	93.52
776.489	97.78
776.667	98.28
776.846	93.25
777.025	92.6
777.203	94.3
777.382	90.64
777.56	87.59
777.739	87.12
777.917	90.79
778.096	92.69
778.274	93.34
778.453	90.11
778.631	88.52
778.81	87.11
778.988	86.95
779.166	86.57
779.345	86.8
779.523	85.32
779.702	86.58
779.88	90.6
780.058	90.57
780.237	91.36
780.415	91.76
780.593	92.94
780.771	94.83
780.95	99.98
781.128	99.22
781.306	97.79
781.484	98.28
781.662	102.37
781.841	96.08
782.019	95.92
782.197	92.77
782.375	93.27
782.553	91.49
782.731	91.73
782.909	84.27
783.087	88.14
783.265	94.93
783.443	99.45
783.621	89.95
783.799	96.01
783.977	100.21
784.155	104.67
784.333	105.13
784.511	104.98
784.689	109.61
784.867	110.7
785.045	105.43
785.223	104.58
785.4	98.52
785.578	105.17
785.756	99.94
785.934	96.12
786.112	96.44
786.289	98.77
786.467	95.64
786.645	92.52
786.823	92.14
787	94.61
787.178	94.69
787.356	95.1
787.533	98.13
787.711	96.23
787.889	95.96
788.066	96.58
788.244	93.47
788.421	95.71
788.599	92.52
788.776	92.33
788.954	90.7
789.131	86.2
789.309	88.51
789.486	81.86
789.664	83.87
789.841	83.98
790.019	84.43
790.196	86.48
790.373	89.44
790.551	97.46
790.728	102.3
790.906	101.43
791.083	102.82
791.26	101.08
791.437	102.06
791.615	102.93
791.792	101.41
791.969	99.26
792.146	94.64
792.324	89.76
792.501	85.65
792.678	83.67
792.855	84.07
793.032	80.72
793.209	82.96
793.387	83.16
793.564	80.61
793.741	84.25
793.918	82.39
794.095	85.12
794.272	89.97
794.449	88.85
794.626	89.08
794.803	86.39
794.98	90.84
795.157	89.06
795.334	92.94
795.511	91.33
795.688	90.36
795.864	92.47
796.041	93.06
796.218	93.54
796.395	95.95
796.572	96.44
796.749	100.07
796.925	103.98
797.102	106.07
797.279	107.6
797.456	112.4
797.632	109.99
797.809	112.17
797.986	114.11
798.162	117.4
798.339	117.05
798.516	117.95
798.692	121.87
798.869	116.53
799.046	114.84
799.222	110.85
799.399	113.51
799.575	119.89
799.752	117.77
799.928	116.39
800.105	112.03
800.281	116.86
800.458	117.47
800.634	116.45
800.811	121.53
800.987	133.14
801.163	135.85
801.34	130.92
801.516	128.35
801.692	143.44
801.869	138.88
802.045	142.8
802.221	138.17
802.398	134.54
802.574	128.97
802.75	124.69
802.926	118.89
803.103	117.35
803.279	120.44
803.455	120.77
803.631	113.33
803.807	113.78
803.983	110.91
804.16	111.22
804.336	111.27
804.512	113.96
804.688	112.71
804.864	107.44
805.04	112.85
805.216	117.67
805.392	119.79
805.568	121.09
805.744	120.91
805.92	125.17
806.096	125.42
806.272	134.81
806.448	136.14
806.623	141.73
806.799	144.2
806.975	142.92
807.151	137.32
807.327	137.11
807.503	132.09
807.678	137.95
807.854	132.6
808.03	133.46
808.206	122.59
808.381	117.29
808.557	112.88
808.733	111.06
808.908	110.8
809.084	113.07
809.26	111.05
809.435	111.32
809.611	106.9
809.787	109.83
809.962	107.82
810.138	105.11
810.313	103.47
810.489	104.28
810.664	109.45
810.84	112.26
811.015	113.39
811.191	119.38
811.366	118.12
811.542	116.29
811.717	114.25
811.892	113.31
812.068	119.65
812.243	126.55
812.419	122.42
812.594	119.52
812.769	115.48
812.944	113.87
813.12	112.34
813.295	116.38
813.47	119.36
813.645	126.95
813.821	129.11
813.996	130.37
814.171	130.94
814.346	137.03
814.521	135.83
814.697	138.67
814.872	135.63
815.047	132.51
815.222	132.26
815.397	129.27
815.572	122.1
815.747	117.62
815.922	115.95
816.097	114.69
816.272	111.29
816.447	106.67
816.622	104.65
816.797	103.36
816.972	104.42
817.147	102.71
817.322	107.25
817.496	109.52
817.671	109.86
817.846	111.97
818.021	111.35
818.196	107.57
818.371	104.63
818.545	102.68
818.72	106.8
818.895	103.86
819.069	101.57
819.244	98.5
819.419	95.49
819.594	99.26
819.768	94.42
819.943	88.21
820.117	86.25
820.292	86.34
820.467	78.65
820.641	73.01
820.816	71.02
820.99	69.26
821.165	67.18
821.339	65.5
821.514	63.12
821.688	61.18
821.863	61.05
822.037	59.87
822.212	58.73
822.386	59.57
822.56	58.94
822.735	59.37
822.909	58.52
823.084	57.73
823.258	57.41
823.432	56.61
823.606	57.1
823.781	57.39
823.955	58.36
824.129	59.83
824.303	62.09
824.478	63.62
824.652	62.61
824.826	64.04
825	65.19
825.174	67.71
825.348	68.63
825.523	72.4
825.697	73
825.871	74.38
826.045	73.83
826.219	73.07
826.393	74.86
826.567	76.48
826.741	78.29
826.915	78.93
827.089	79.55
827.263	80.35
827.437	78.26
827.611	79.92
827.784	79.46
827.958	81.69
828.132	85.4
828.306	85.58
828.48	87.99
828.654	88.01
828.827	87.73
829.001	87.68
829.175	89.71
829.349	93.84
829.522	94.25
829.696	96.53
829.87	95.87
830.044	91.22
830.217	92.26
830.391	92.52
830.565	93.19
830.738	97.52
830.912	100.06
831.085	105.87
831.259	107.13
831.432	106.47
831.606	107.09
831.779	106.83
831.953	108.15
832.126	107.29
832.3	105.18
832.473	104.87
832.647	104.03
832.82	100.92
832.994	96.84
833.167	94.29
833.34	93.74
833.514	89.47
833.687	89.13
833.86	87.8
834.034	85.97
834.207	88.19
834.38	87.51
834.553	87.79
834.727	87.74
834.9	88.53
835.073	92.06
835.246	93.09
835.419	100.91
835.593	102.32
835.766	104.35
835.939	107.91
836.112	104.35
836.285	111.35
836.458	121.87
836.631	129.37
836.804	132.15
836.977	125.42
837.15	126.6
837.323	127.29
837.496	127.17
837.669	125.97
837.842	129.14
838.015	144.5
838.188	139.57
838.361	136.98
838.533	131.54
838.706	138.83
838.879	142.91
839.052	145.62
839.225	151.59
839.398	143.65
839.57	146.45
839.743	146.73
839.916	138.61
840.088	135.95
840.261	139.22
840.434	136.3
840.607	143.24
840.779	145.18
840.952	143.38
841.124	154.37
841.297	178.49
841.47	193.59
841.642	199.27
841.815	206.76
841.987	210.52
842.16	194.39
842.332	228.04
842.505	221.89
842.677	209.04
842.85	180.27
843.022	157.57
843.194	153.58
843.367	170.76
843.539	158.04
843.712	161.09
843.884	176.44
844.056	189.32
844.229	185.46
844.401	180.81
844.573	204.61
844.745	267.06
844.918	299.56
845.09	277.03
845.262	243.62
845.434	261.3
845.606	269.33
845.779	316.13
845.951	317.7
846.123	404.61
846.295	384.02
846.467	314.42
846.639	344.46
846.811	312.86
846.983	319.29
847.155	305.31
847.327	331.04
847.499	340.58
847.671	346.98
847.843	324.76
848.015	271.55
848.187	340.53
848.359	347.09
848.531	308.33
848.703	274.55
848.875	315.37
849.047	275.72
849.218	286.3
849.39	275.49
849.562	227.44
849.734	241.74
849.905	274.57
850.077	238.41
850.249	252.2
850.421	247.8
850.592	239.12
850.764	242.24
850.936	252.58
851.107	264.71
851.279	243.6
851.451	304.54
851.622	274.15
851.794	254.54
851.965	268.39
852.137	263.74
852.308	249.95
852.48	299.64
852.651	248.86
852.823	272.02
852.994	265.14
853.166	280.63
853.337	280.33
853.509	313.08
853.68	353.42
853.851	309.29
854.023	267.01
854.194	247.08
854.365	229.87
854.537	242.3
854.708	230.92
854.879	231.24
855.05	234.58
855.222	206.66
855.393	189.49
855.564	170.24
855.735	179.68
855.906	217.46
856.078	305.94
856.249	309.55
856.42	312.61
856.591	317.95
856.762	318.43
856.933	282.23
857.104	329.95
857.275	335.89
857.446	392.7
857.617	340.59
857.788	305.63
857.959	234.22
858.13	240.38
858.301	234.08
858.472	228.42
858.643	219.64
858.814	233.58
858.985	243.98
859.155	284.51
859.326	290.42
859.497	481.67
859.668	863.01
859.839	910.26
860.009	974.59
860.18	4986.11
860.351	-5625
860.522	4754.29
860.692	-8263.16
860.863	2327.42
861.034	910.06
861.204	585.6
861.375	286.15
861.546	242.27
861.716	266.12
861.887	223.08
862.057	214.85
862.228	203.42
862.398	250.97
862.569	237.03
862.739	259.11
862.91	253.64
863.08	265.13
863.251	313.83
863.421	345.04
863.592	421.66
863.762	941.67
863.932	653.16
864.103	567.71
864.273	532.95
864.443	648.22
864.614	838.81
864.784	466.18
864.954	372.28
865.125	307.55
865.295	300
865.465	234.93
865.635	216.7
865.805	205.02
865.976	210.79
866.146	202.44
866.316	195.65
866.486	178.46
866.656	227.28
866.826	260.88
866.996	268.39
867.166	232.41
867.336	261.65
867.506	219.79
867.676	228.44
867.846	242.14
868.016	242.34
868.186	234.47
868.356	230.24
868.526	205.35
868.696	225.7
868.866	226.44
869.036	282.7
869.206	275.27
869.376	304.52
869.545	259.72
869.715	263.35
869.885	253.83
870.055	243.05
870.224	247.4
870.394	263.81
870.564	225.59
870.734	243.19
870.903	234.41
871.073	250
871.243	230.15
871.412	276.83
871.582	261.66
871.751	279.79
871.921	315.17
872.091	323.74
872.26	317.27
872.43	338.63
872.599	289.97
872.769	257.81
872.938	275.57
873.108	325.82
873.277	325.2
873.446	293.37
873.616	282.62
873.785	272.35
873.955	287.69
874.124	213.16
874.293	219.45
874.463	236.07
874.632	201.01
874.801	195.3
874.971	224.5
875.14	219.94
875.309	220.16
875.478	221.2
875.647	212.59
875.817	183.78
875.986	245.24
876.155	238.32
876.324	256.94
876.493	335.96
876.662	254.98
876.831	218.47
877	219.23
877.17	239.33
877.339	269.31
877.508	315.84
877.677	341
877.846	274.24
878.015	295.3
878.184	307.83
878.352	283.48
878.521	309.45
878.69	316.43
878.859	291.12
879.028	263.41
879.197	240.21
879.366	244.76
879.534	227.53
879.703	221.69
879.872	195.29
880.041	165.16
880.21	153.5
880.378	150.4
880.547	134.31
880.716	123.56
880.884	115.4
881.053	106.71
881.222	94.97
881.39	90.31
881.559	86.78
881.727	87.08
881.896	84.09
882.065	78.74
882.233	79.3
882.402	79.49
882.57	79.29
882.739	78.64
882.907	82.2
883.076	82.29
883.244	83.58
883.412	86.78
883.581	86.19
883.749	87.73
883.918	93.7
884.086	96.44
884.254	98.05
884.423	97.93
884.591	104.94
884.759	105.43
884.927	115.37
885.096	117.81
885.264	125.5
885.432	138.31
885.6	147.03
885.769	163.91
885.937	164.7
886.105	169.57
886.273	177.69
886.441	180.25
886.609	200.33
886.777	198.17
886.945	221.57
887.113	238.36
887.281	254.41
887.449	256.55
887.617	210.43
887.785	217.12
887.953	258.86
888.121	325.59
888.289	322.66
888.457	278.97
888.625	287.5
888.793	344.95
888.961	313.36
889.129	315.8
889.296	294.8
889.464	320.6
889.632	344.16
889.8	311.09
889.967	287.61
890.135	274.56
