Data from JASIL_3288_Reflection_1.txt Node
Date: Tue Nov 17 19:37:56 EST 2015
User: Geneva
Spectrometer: USB4E03002
Autoset integration time: false
Trigger mode: 4
Integration Time (sec): 1.000000E-1
Scans to average: 10
Electric dark correction enabled: false
Nonlinearity correction enabled: false
Boxcar width: 5
Stray light correction enabled: false
XAxis mode: Wavelengths
Stop averaging: false
Number of Pixels in Spectrum: 3648
>>>>>Begin Spectral Data<<<<<
177.575	-288.12
177.794	-420.65
178.014	-392.13
178.233	-449.06
178.452	-428.33
178.672	-270.87
178.891	-779.31
179.11	4540
179.33	965.22
179.549	994.12
179.768	-4600
179.987	481.82
180.207	243.44
180.426	521.92
180.645	769.6
180.864	5411.76
181.084	612.05
181.303	454.91
181.522	588.51
181.741	520.79
181.96	853.54
182.179	4170.59
182.398	-548.05
182.618	-194.53
182.837	-148.1
183.056	-128.42
183.275	-146.67
183.494	2.83
183.713	47.2
183.932	39.36
184.151	43.55
184.37	49.21
184.589	11.18
184.808	5.59
185.027	2.05
185.246	-7.59
185.465	-7.94
185.684	-17.67
185.903	-71.52
186.122	-176.25
186.341	-444.25
186.56	-378.57
186.779	-1922.22
186.998	-167.2
187.216	-226.67
187.435	-170.91
187.654	-154.55
187.873	-104.02
188.092	-41.67
188.311	-106.43
188.53	-92.39
188.748	-18.33
188.967	-55.56
189.186	-54.57
189.405	-128.24
189.623	-112.5
189.842	-125.98
190.061	-75.92
190.28	-39.75
190.498	-107.26
190.717	-65.62
190.936	-43.16
191.154	-172.53
191.373	-329.89
191.592	718.6
191.81	396.12
192.029	501.05
192.248	316.67
192.466	392.82
192.685	194.32
192.904	401.98
193.122	327.47
193.341	423.95
193.559	502.82
193.778	525.97
193.996	497.63
194.215	1323.19
194.433	547.86
194.652	446.15
194.87	371.88
195.089	382.31
195.307	398.25
195.526	-175.51
195.744	-113.67
195.963	-223.33
196.181	-247.11
196.399	-319.54
196.618	381.58
196.836	339.01
197.055	335.81
197.273	385.82
197.491	336.04
197.71	259.92
197.928	213.91
198.146	219.52
198.365	921.43
198.583	604.76
198.801	-187.9
199.019	-44.48
199.238	5.64
199.456	-26.1
199.674	-65.38
199.892	-77.8
200.111	-80.28
200.329	-107.53
200.547	-120.51
200.765	1035.29
200.983	-323.08
201.202	639.47
201.42	156.43
201.638	147.15
201.856	127.35
202.074	104
202.292	100.36
202.51	70.87
202.728	84.59
202.946	89.29
203.165	-111.54
203.383	42.96
203.601	89.34
203.819	331.82
204.037	-739.39
204.255	-1366.67
204.473	-230.07
204.691	-117.06
204.909	-34.51
205.127	-435.42
205.345	215.15
205.562	-288.37
205.78	-47.99
205.998	-28.38
206.216	-3.62
206.434	-36.39
206.652	-51.07
206.87	-150.9
207.088	-186.67
207.306	-252.02
207.523	-161.99
207.741	-81.9
207.959	-131.08
208.177	-176.17
208.395	-224.02
208.612	-212.04
208.83	-74.92
209.048	-113.41
209.266	-90.61
209.483	-40.28
209.701	-58.43
209.919	-57.75
210.136	-65.78
210.354	-62.94
210.572	-52.8
210.79	-69.67
211.007	-248.59
211.225	-3533.33
211.442	566.1
211.66	1460
211.878	175.08
212.095	734.03
212.313	1096.61
212.53	678.2
212.748	632.27
212.966	462.9
213.183	539.3
213.401	-5611.11
213.618	-357.14
213.836	-303.75
214.053	-418.35
214.271	-275.96
214.488	57.14
214.705	46.44
214.923	39.47
215.14	54.47
215.358	33.73
215.575	35.14
215.793	-14.01
216.01	-178.67
216.227	-281.03
216.445	-205.56
216.662	-79.31
216.879	-160.87
217.097	-68.9
217.314	-110.51
217.531	4150
217.749	333.66
217.966	218.13
218.183	131.49
218.4	-60
218.618	-18.42
218.835	62.65
219.052	77.94
219.269	58.92
219.487	58.27
219.704	43.57
219.921	49.26
220.138	65.06
220.355	59.88
220.572	84.35
220.79	124.65
221.007	159.72
221.224	160.08
221.441	146.59
221.658	172.22
221.875	-494.29
222.092	-238.64
222.309	748.48
222.526	157.58
222.743	223.19
222.96	224.46
223.177	462.79
223.394	473.68
223.611	313.99
223.828	159.2
224.045	133.55
224.262	121.1
224.479	126.37
224.696	220.67
224.913	419.01
225.13	297.17
225.347	131.03
225.564	84.08
225.781	62.85
225.997	46.4
226.214	46.19
226.431	17.83
226.648	10.11
226.865	3.83
227.082	-0.45
227.298	2.63
227.515	4.53
227.732	13.09
227.949	10.05
228.165	-1.36
228.382	-1.34
228.599	3.52
228.816	12.32
229.032	20.98
229.249	31
229.466	30.2
229.682	30.27
229.899	34.31
230.116	41.14
230.332	45.33
230.549	50.18
230.765	57.44
230.982	53.25
231.199	52.84
231.415	38.09
231.632	44.02
231.848	32.18
232.065	30.75
232.281	19.73
232.498	21.13
232.714	17
232.931	20.62
233.147	10.77
233.364	7.97
233.58	17.33
233.797	34.33
234.013	26.62
234.23	44.41
234.446	42.94
234.662	66.8
234.879	58.73
235.095	53.58
235.312	55.35
235.528	70.65
235.744	83.98
235.961	88.38
236.177	65.53
236.393	60.51
236.61	54.36
236.826	56.5
237.042	19.63
237.258	25.34
237.475	31.28
237.691	37.88
237.907	29.63
238.123	41.36
238.339	35.67
238.556	28.32
238.772	28.01
238.988	30.31
239.204	24.74
239.42	34.89
239.636	31.08
239.853	29.87
240.069	28.88
240.285	25.32
240.501	22.24
240.717	19.88
240.933	23.34
241.149	22.58
241.365	21.79
241.581	22.32
241.797	26.61
242.013	29.9
242.229	28.73
242.445	21.19
242.661	21.99
242.877	23
243.093	27
243.309	22.19
243.525	21.22
243.741	27.27
243.957	26.03
244.173	19.52
244.388	15.6
244.604	18
244.82	23.42
245.036	22.53
245.252	19.27
245.468	16.09
245.683	15.77
245.899	13.1
246.115	10.47
246.331	11.82
246.547	12.51
246.762	12.58
246.978	11.22
247.194	11.17
247.409	8.38
247.625	9.01
247.841	9.43
248.057	10.79
248.272	13.77
248.488	12.68
248.703	11.62
248.919	11.82
249.135	10.4
249.35	13.44
249.566	14.19
249.782	19.19
249.997	17.84
250.213	19.22
250.428	17.14
250.644	14.73
250.859	16.1
251.075	13.55
251.29	12
251.506	11.49
251.721	12.24
251.937	7.15
252.152	5.5
252.368	5.55
252.583	2.94
252.798	2.06
253.014	4.99
253.229	5.44
253.445	12.1
253.66	17.61
253.875	20.39
254.091	11.55
254.306	17.88
254.521	16.53
254.737	16.46
254.952	15.33
255.167	18.71
255.383	17.97
255.598	18.54
255.813	11.69
256.028	4.81
256.244	1
256.459	3.32
256.674	3.87
256.889	6.45
257.104	3.91
257.32	6.1
257.535	5.04
257.75	5.16
257.965	2.9
258.18	1.19
258.395	0.9
258.61	1.72
258.826	1.63
259.041	2.1
259.256	0.56
259.471	-0.31
259.686	-0.12
259.901	-1.75
260.116	-2.33
260.331	-1.41
260.546	2.04
260.761	3.35
260.976	4.06
261.191	5.66
261.406	7.74
261.621	7.71
261.836	11.79
262.05	10.17
262.265	15.71
262.48	15.84
262.695	19.62
262.91	16.68
263.125	17.37
263.34	12.22
263.555	5.75
263.769	-2.39
263.984	-6.18
264.199	-4.05
264.414	-1.59
264.629	1.8
264.843	4.76
265.058	2
265.273	-0.85
265.488	-0.99
265.702	3.88
265.917	8.33
266.132	9.24
266.346	12.93
266.561	13.77
266.776	12.58
266.99	11.78
267.205	12.23
267.42	10.13
267.634	9.9
267.849	9.8
268.063	7.18
268.278	5.42
268.492	4.81
268.707	5.28
268.922	5.51
269.136	6.71
269.351	4.92
269.565	6.08
269.78	5.8
269.994	8.15
270.209	7.39
270.423	8.67
270.637	8.48
270.852	8.18
271.066	8.12
271.281	7.63
271.495	6.26
271.709	6.08
271.924	4.69
272.138	7.17
272.353	6.92
272.567	9.11
272.781	8.48
272.996	7.37
273.21	8.53
273.424	6.9
273.638	6.88
273.853	8.3
274.067	7.45
274.281	6.09
274.495	5.22
274.71	7.71
274.924	5.29
275.138	7.42
275.352	6.71
275.566	7.8
275.781	7.35
275.995	6.63
276.209	2.73
276.423	2.59
276.637	3.99
276.851	2.67
277.065	0.17
277.279	-1.99
277.493	-3.89
277.707	-2.64
277.921	-4.18
278.135	1.85
278.349	2.2
278.563	5.71
278.777	3.74
278.991	4.45
279.205	5.64
279.419	3.17
279.633	5.52
279.847	7.37
280.061	6.95
280.275	6.48
280.489	2.92
280.703	2.21
280.917	4.97
281.131	7.64
281.344	8.93
281.558	7.09
281.772	7.19
281.986	7.51
282.2	5.35
282.414	5.17
282.627	5.44
282.841	6.66
283.055	4.4
283.269	1.3
283.482	1.05
283.696	-0.14
283.91	2.45
284.123	3.44
284.337	5.17
284.551	5.96
284.764	6.13
284.978	5.91
285.192	4.84
285.405	6.44
285.619	7.49
285.833	8.47
286.046	8.63
286.26	7.73
286.473	8.82
286.687	7.53
286.9	7.83
287.114	8.86
287.327	9.28
287.541	8.87
287.754	10.39
287.968	10.87
288.181	9.51
288.395	9.06
288.608	7.51
288.822	6.1
289.035	4.54
289.248	3.83
289.462	3.05
289.675	2.7
289.889	3.52
290.102	1.94
290.315	2.35
290.529	1.98
290.742	2.62
290.955	5.5
291.169	8.05
291.382	8.7
291.595	9.31
291.808	10.09
292.022	9.1
292.235	8.48
292.448	9.49
292.661	8.88
292.875	9.74
293.088	8.62
293.301	7.67
293.514	6.83
293.727	7
293.94	5.93
294.153	7.22
294.367	8.99
294.58	9.55
294.793	8.3
295.006	7.84
295.219	8.53
295.432	6.87
295.645	7.48
295.858	8.7
296.071	8.57
296.284	9.66
296.497	8.7
296.71	9.59
296.923	8.43
297.136	9.43
297.349	10.2
297.562	9.83
297.775	10.95
297.988	10.39
298.201	9.37
298.414	10.65
298.626	8.98
298.839	9.26
299.052	7.78
299.265	9.95
299.478	10.9
299.691	11.04
299.903	10.36
300.116	10.99
300.329	10.22
300.542	10.2
300.755	8.7
300.967	9.68
301.18	10.78
301.393	10.04
301.605	8.33
301.818	6.67
302.031	5.28
302.243	5.47
302.456	5.18
302.669	5.95
302.881	5.73
303.094	7.04
303.307	6.58
303.519	6.94
303.732	8.7
303.944	10.03
304.157	11.64
304.37	12.72
304.582	13.43
304.795	13.72
305.007	12.91
305.22	13.03
305.432	12.18
305.645	13.72
305.857	11.97
306.069	10
306.282	9.84
306.494	7.98
306.707	7.21
306.919	6.15
307.132	6.55
307.344	7.89
307.556	7.64
307.769	6.99
307.981	5.72
308.193	6.15
308.406	6.12
308.618	5.58
308.83	6.09
309.043	5.78
309.255	7.56
309.467	7.78
309.679	5.71
309.892	6.45
310.104	7.37
310.316	9.32
310.528	9.03
310.74	8.5
310.953	8.25
311.165	8.57
311.377	10.74
311.589	10.23
311.801	8.9
312.013	10.56
312.225	9.23
312.437	8.65
312.649	6.87
312.862	7.31
313.074	8.62
313.286	8.06
313.498	8.03
313.71	4.4
313.922	3.83
314.134	5.21
314.346	6.01
314.558	6.46
314.77	5.65
314.982	6.31
315.193	6.18
315.405	6.42
315.617	7.65
315.829	7.8
316.041	10.52
316.253	9.47
316.465	10.41
316.677	10.02
316.888	11.33
317.1	12.28
317.312	13.74
317.524	15.78
317.736	16.09
317.947	15.31
318.159	15.62
318.371	16.04
318.583	17.54
318.794	17.46
319.006	16.54
319.218	15.5
319.43	15.64
319.641	16.38
319.853	15.55
320.064	16.77
320.276	18.92
320.488	16.11
320.699	15.25
320.911	15.41
321.123	16.23
321.334	15.46
321.546	15.48
321.757	16.84
321.969	14.02
322.18	13.75
322.392	12.08
322.603	11.16
322.815	12.91
323.026	13.42
323.238	11.97
323.449	9.83
323.661	10.31
323.872	10.26
324.083	10.14
324.295	11
324.506	11.18
324.718	10.68
324.929	10.19
325.14	12.57
325.352	11.25
325.563	11.95
325.774	13.28
325.986	14.65
326.197	13.82
326.408	13.51
326.62	14.13
326.831	13.48
327.042	15.61
327.253	16.18
327.464	15.08
327.676	15.46
327.887	15.63
328.098	16.39
328.309	16.41
328.52	18.11
328.732	18.33
328.943	18.57
329.154	18.37
329.365	18.92
329.576	17.78
329.787	17.57
329.998	18.6
330.209	19.77
330.42	18.51
330.631	18.97
330.842	18.23
331.053	16.71
331.264	16.8
331.475	16.26
331.686	15.6
331.897	15.31
332.108	16.58
332.319	15.61
332.53	13.54
332.741	14.02
332.952	12.76
333.163	13.57
333.374	16.04
333.585	16.49
333.795	18.77
334.006	17.07
334.217	19.12
334.428	17.88
334.639	18.21
334.849	20.09
335.06	20.44
335.271	21.39
335.482	21.07
335.692	20.48
335.903	19.53
336.114	18.62
336.325	19.96
336.535	18.99
336.746	19.87
336.957	18.93
337.167	17.3
337.378	18.4
337.589	18.08
337.799	16.92
338.01	16.75
338.22	15.84
338.431	16.34
338.642	17.48
338.852	17.6
339.063	17.07
339.273	17.91
339.484	19.38
339.694	17.11
339.905	17.36
340.115	19.23
340.326	18.43
340.536	19.47
340.746	17.85
340.957	16.49
341.167	17.4
341.378	17.95
341.588	18.31
341.799	17.74
342.009	18.45
342.219	16.92
342.43	16.41
342.64	16.72
342.85	16.93
343.061	18.6
343.271	19.09
343.481	18.05
343.691	17.94
343.902	18.07
344.112	19.07
344.322	17.7
344.532	19.2
344.743	19.27
344.953	19.25
345.163	18.34
345.373	17.79
345.583	17.5
345.793	18.9
346.004	18.77
346.214	20.24
346.424	20.17
346.634	21.51
346.844	22.16
347.054	22.53
347.264	23.16
347.474	23.31
347.684	23.49
347.894	23.41
348.104	22.03
348.314	21.13
348.524	18.13
348.734	17.33
348.944	17.3
349.154	16.52
349.364	15.24
349.574	15.18
349.784	14.72
349.994	14.69
350.204	13.75
350.413	13.2
350.623	13.85
350.833	14.74
351.043	15.57
351.253	14.62
351.463	12.64
351.672	13.56
351.882	11.27
352.092	12.4
352.302	11.96
352.511	14.02
352.721	15.11
352.931	14.76
353.141	15.4
353.35	15.64
353.56	15.98
353.77	17.55
353.979	16.71
354.189	17.56
354.399	16.73
354.608	17.28
354.818	16.09
355.027	16.5
355.237	16.28
355.447	15.88
355.656	14.66
355.866	14.96
356.075	14.6
356.285	15.45
356.494	16.01
356.704	16.94
356.913	16.93
357.123	15.55
357.332	15.56
357.542	16.17
357.751	16.8
357.96	17.13
358.17	17.19
358.379	17.22
358.589	17.3
358.798	17.97
359.007	17.58
359.217	17.54
359.426	18.36
359.635	18.08
359.845	18.45
360.054	17.58
360.263	17.46
360.472	17.56
360.682	18.29
360.891	17.68
361.1	17.44
361.309	17.9
361.519	17.84
361.728	18.46
361.937	18.66
362.146	17.99
362.355	18.28
362.564	18.09
362.774	17.62
362.983	17.44
363.192	17.47
363.401	17.62
363.61	16.94
363.819	17.77
364.028	16.72
364.237	16.82
364.446	16.89
364.655	16.71
364.864	17.07
365.073	16.89
365.282	15.7
365.491	16.1
365.7	16.69
365.909	15.84
366.118	15.16
366.327	15.47
366.536	13.93
366.745	14.77
366.954	14.84
367.162	15.04
367.371	16.19
367.58	16.89
367.789	16.19
367.998	15.39
368.207	16.09
368.415	16.8
368.624	17.83
368.833	19.03
369.042	18.17
369.25	18.16
369.459	17.28
369.668	17.28
369.877	17.78
370.085	17.78
370.294	16.91
370.503	17.18
370.711	15.76
370.92	15.35
371.129	15.41
371.337	15.15
371.546	15.01
371.754	15.67
371.963	15.47
372.171	14.32
372.38	14.32
372.589	14.86
372.797	13.66
373.006	14.97
373.214	13.61
373.423	12.8
373.631	13.09
373.84	11.75
374.048	11.05
374.256	11.09
374.465	13.17
374.673	13.31
374.882	12.29
375.09	12.02
375.298	12.42
375.507	12.83
375.715	13.81
375.923	13.74
376.132	15.55
376.34	15.19
376.548	15.19
376.757	14.06
376.965	14.27
377.173	15.57
377.381	16.95
377.59	15.74
377.798	16.55
378.006	15.28
378.214	15.89
378.423	14.52
378.631	14.96
378.839	14.54
379.047	14.52
379.255	14.84
379.463	14.54
379.671	14.44
379.879	15.31
380.088	14.26
380.296	16.08
380.504	15.49
380.712	15.85
380.92	15.49
381.128	15.84
381.336	15.98
381.544	15.03
381.752	14.26
381.96	14.41
382.168	13.38
382.376	14.17
382.584	13.02
382.791	13
382.999	13.57
383.207	14.15
383.415	14.1
383.623	14.32
383.831	15.01
384.039	15.56
384.247	14.94
384.454	14.87
384.662	15.23
384.87	15.47
385.078	15.16
385.285	14.41
385.493	15.2
385.701	14.91
385.909	14.46
386.116	13.86
386.324	13.56
386.532	13.86
386.739	14.56
386.947	14.09
387.155	13.76
387.362	13.63
387.57	13.24
387.778	12.2
387.985	11.93
388.193	11.63
388.4	11.95
388.608	12.15
388.816	12.5
389.023	12.91
389.231	13.41
389.438	13.27
389.646	14.11
389.853	15.22
390.061	15.69
390.268	15.96
390.475	16.47
390.683	16.63
390.89	16.64
391.098	16.56
391.305	15.81
391.512	15.65
391.72	15.71
391.927	15.26
392.135	15.19
392.342	14.31
392.549	13.89
392.756	13.43
392.964	13.01
393.171	13.14
393.378	12.98
393.586	13.29
393.793	12.73
394	12.93
394.207	12.8
394.414	12.57
394.622	13.28
394.829	13.75
395.036	13.83
395.243	14.12
395.45	13.94
395.657	13.1
395.864	12.8
396.072	13.82
396.279	13.99
396.486	14.08
396.693	14.11
396.9	13.75
397.107	14.45
397.314	14.48
397.521	14.64
397.728	14.35
397.935	14.59
398.142	15.18
398.349	14
398.556	13.72
398.763	13.63
398.97	14.46
399.177	15.06
399.383	14.86
399.59	15.11
399.797	14.89
400.004	15.86
400.211	16.45
400.418	15.54
400.625	15.98
400.831	16.09
401.038	16.14
401.245	15.67
401.452	15.27
401.658	14.88
401.865	14.7
402.072	15.35
402.279	15.01
402.485	15.56
402.692	16.07
402.899	15.98
403.105	16.61
403.312	16.52
403.519	16.68
403.725	16.01
403.932	16.06
404.138	16.4
404.345	15.86
404.552	15.97
404.758	15.72
404.965	15.53
405.171	16.1
405.378	15.95
405.584	16.53
405.791	15.32
405.997	16.05
406.204	16.9
406.41	16.78
406.617	17.19
406.823	16.18
407.029	15.92
407.236	16.7
407.442	15.83
407.649	15.61
407.855	14.57
408.061	15.68
408.268	15.57
408.474	14.94
408.68	14.85
408.887	14.72
409.093	15.87
409.299	15.76
409.505	15.21
409.712	15.86
409.918	15.62
410.124	15.7
410.33	15.4
410.537	15.49
410.743	14.86
410.949	14.97
411.155	15.04
411.361	14.59
411.567	14.86
411.773	14.99
411.98	15.11
412.186	15.6
412.392	16.28
412.598	15.96
412.804	15.28
413.01	15.79
413.216	15.53
413.422	15.43
413.628	15.58
413.834	15.09
414.04	14.56
414.246	14.36
414.452	13.69
414.658	13.42
414.864	13.87
415.07	14.25
415.275	13.51
415.481	13.75
415.687	13.92
415.893	13.78
416.099	14.33
416.305	14.45
416.511	14.41
416.716	14.66
416.922	14.97
417.128	15.01
417.334	15.37
417.539	15.91
417.745	16.21
417.951	15.71
418.157	16.07
418.362	16.02
418.568	16.18
418.774	15.99
418.979	15.84
419.185	15.78
419.391	15.87
419.596	15.45
419.802	15.47
420.008	14.7
420.213	15.14
420.419	14.8
420.624	14.94
420.83	14.87
421.035	15.04
421.241	15.03
421.446	14.66
421.652	14.56
421.857	14.82
422.063	14.85
422.268	15.13
422.474	14.84
422.679	14.78
422.885	14.27
423.09	14.24
423.295	14.03
423.501	13.97
423.706	13.89
423.911	13.99
424.117	13.96
424.322	13.9
424.527	13.91
424.733	14.13
424.938	13.67
425.143	14.08
425.349	13.92
425.554	14.03
425.759	14.25
425.964	14.63
426.169	14.53
426.375	14.61
426.58	14.54
426.785	14.58
426.99	14.26
427.195	14.87
427.4	14.75
427.605	15.19
427.811	15.59
428.016	15.2
428.221	15.43
428.426	15.54
428.631	15.33
428.836	15.15
429.041	14.91
429.246	14.62
429.451	14.94
429.656	15.02
429.861	14.8
430.066	14.58
430.271	15.19
430.476	14.78
430.681	14.4
430.886	14.71
431.09	14.49
431.295	14.49
431.5	15
431.705	15.01
431.91	14.6
432.115	14.37
432.32	14.09
432.524	13.6
432.729	13.68
432.934	13.98
433.139	13.53
433.343	13.68
433.548	14.07
433.753	13.8
433.958	13.69
434.162	14.02
434.367	14.42
434.572	14.47
434.776	15.02
434.981	15.11
435.186	14.72
435.39	15.09
435.595	15.01
435.799	14.94
436.004	14.62
436.209	14.57
436.413	14.01
436.618	13.87
436.822	14.17
437.027	13.99
437.231	13.81
437.436	13.85
437.64	13.98
437.845	14.21
438.049	13.92
438.253	14.11
438.458	13.79
438.662	14.53
438.867	14.28
439.071	14.11
439.275	13.96
439.48	13.98
439.684	14.1
439.888	13.74
440.093	13.65
440.297	13.93
440.501	14.16
440.706	14.56
440.91	14.13
441.114	14.09
441.318	14.15
441.523	14.31
441.727	14.59
441.931	14.95
442.135	15.23
442.339	15.1
442.543	14.99
442.748	15.08
442.952	14.84
443.156	14.8
443.36	14.72
443.564	14.8
443.768	14.95
443.972	14.9
444.176	14.44
444.38	14.25
444.584	14.38
444.788	14.3
444.992	14.26
445.196	14.22
445.4	14.18
445.604	14.11
445.808	13.71
446.012	13.25
446.216	13.23
446.42	13.25
446.624	13.35
446.828	13.23
447.032	13.31
447.235	13.16
447.439	13.12
447.643	13.26
447.847	13.36
448.051	13.63
448.254	13.75
448.458	13.66
448.662	13.59
448.866	13.62
449.069	13.68
449.273	13.72
449.477	13.87
449.681	14.05
449.884	14.06
450.088	14.12
450.292	14.04
450.495	13.93
450.699	14.21
450.902	14.35
451.106	13.97
451.31	14.14
451.513	14.19
451.717	13.91
451.92	14.25
452.124	14.27
452.327	14.43
452.531	14.88
452.734	15.39
452.938	15.09
453.141	15.45
453.345	15.59
453.548	15.46
453.752	15.49
453.955	15.8
454.158	15.24
454.362	15.17
454.565	15.2
454.769	14.87
454.972	14.88
455.175	14.81
455.379	14.71
455.582	14.96
455.785	14.99
455.988	15.15
456.192	14.77
456.395	14.74
456.598	14.74
456.801	15.13
457.005	15.18
457.208	14.65
457.411	14.66
457.614	14.31
457.817	13.98
458.021	13.6
458.224	13.17
458.427	13.11
458.63	13.08
458.833	13.21
459.036	12.89
459.239	12.8
459.442	12.98
459.645	13.19
459.848	13.15
460.051	13.36
460.254	13.82
460.457	14.02
460.66	14.02
460.863	14.21
461.066	14.05
461.269	14.05
461.472	14.28
461.675	14.35
461.878	13.89
462.081	14.08
462.284	14.04
462.486	13.73
462.689	13.61
462.892	14.26
463.095	14.24
463.298	14.04
463.5	14.08
463.703	14.06
463.906	13.71
464.109	13.95
464.311	13.99
464.514	13.86
464.717	13.56
464.92	13.87
465.122	13.49
465.325	13.42
465.528	13.38
465.73	13.29
465.933	13.29
466.135	13.52
466.338	13.52
466.541	13.24
466.743	13
466.946	13.12
467.148	12.77
467.351	12.7
467.553	12.64
467.756	12.84
467.958	13.16
468.161	12.98
468.363	12.81
468.566	12.85
468.768	13.07
468.971	13.3
469.173	13.73
469.375	13.72
469.578	13.69
469.78	13.73
469.983	14.05
470.185	13.62
470.387	13.51
470.59	13.56
470.792	13.43
470.994	13.34
471.196	13.64
471.399	12.85
471.601	13.34
471.803	13.45
472.005	13.61
472.208	13.2
472.41	13.16
472.612	13.13
472.814	13.62
473.016	13.35
473.218	13.68
473.421	13.34
473.623	14.06
473.825	13.66
474.027	13.66
474.229	14.01
474.431	13.98
474.633	13.99
474.835	13.57
475.037	13.32
475.239	13.54
475.441	13.46
475.643	13.85
475.845	13.41
476.047	13.63
476.249	13.31
476.451	12.71
476.653	13.1
476.855	13.46
477.057	14.15
477.258	13.78
477.46	13.69
477.662	13.52
477.864	13.55
478.066	14.01
478.268	14.23
478.469	14.78
478.671	14.94
478.873	14.5
479.075	14.37
479.276	14.32
479.478	14.36
479.68	14.56
479.882	14.53
480.083	14.36
480.285	14.27
480.487	14.19
480.688	13.94
480.89	13.68
481.091	13.63
481.293	13.55
481.495	13.41
481.696	13.49
481.898	13.49
482.099	13.62
482.301	13.47
482.502	13.38
482.704	13.24
482.905	13.27
483.107	13.37
483.308	13.32
483.51	13.3
483.711	13.3
483.913	13.33
484.114	13.3
484.315	13.14
484.517	13.24
484.718	13.34
484.92	13.37
485.121	13.41
485.322	13.51
485.524	13.79
485.725	13.81
485.926	13.83
486.127	13.9
486.329	13.94
486.53	13.91
486.731	13.96
486.932	13.73
487.134	13.75
487.335	13.66
487.536	13.57
487.737	13.45
487.938	13.5
488.139	13.58
488.341	13.52
488.542	13.42
488.743	13.64
488.944	13.57
489.145	13.7
489.346	13.72
489.547	13.7
489.748	13.77
489.949	13.82
490.15	13.71
490.351	13.62
490.552	13.48
490.753	13.51
490.954	13.38
491.155	13.38
491.356	13.37
491.557	13.35
491.758	13.58
491.959	13.66
492.159	13.63
492.36	13.78
492.561	13.91
492.762	14.16
492.963	14.18
493.164	14.39
493.364	14.5
493.565	14.75
493.766	14.59
493.967	14.27
494.167	14.18
494.368	14.08
494.569	14.06
494.769	13.93
494.97	13.8
495.171	14.09
495.371	13.95
495.572	14.08
495.773	14.22
495.973	14.44
496.174	14.61
496.375	14.75
496.575	14.89
496.776	14.81
496.976	14.96
497.177	14.95
497.377	14.96
497.578	14.97
497.778	14.66
497.979	14.63
498.179	14.7
498.38	14.72
498.58	14.55
498.78	14.55
498.981	14.66
499.181	14.6
499.382	14.58
499.582	14.43
499.782	14.54
499.983	15.01
500.183	14.99
500.383	15.12
500.584	14.92
500.784	15.01
500.984	15.29
501.184	15.09
501.385	14.85
501.585	14.94
501.785	14.87
501.985	14.77
502.185	14.46
502.386	14.37
502.586	14.49
502.786	14.62
502.986	14.19
503.186	14.08
503.386	14.61
503.586	14.9
503.786	15.02
503.987	15.22
504.187	15.55
504.387	15.82
504.587	15.6
504.787	15.62
504.987	15.89
505.187	16.41
505.387	16.49
505.587	16.57
505.786	16.54
505.986	16.71
506.186	16.74
506.386	16.75
506.586	16.6
506.786	16.98
506.986	16.75
507.186	16.73
507.386	17.01
507.585	16.82
507.785	16.67
507.985	16.91
508.185	17.19
508.384	17.3
508.584	17.26
508.784	17.56
508.984	17.79
509.183	17.82
509.383	17.93
509.583	17.75
509.782	17.89
509.982	17.95
510.182	17.77
510.381	17.38
510.581	17.38
510.781	17.37
510.98	17.17
511.18	17.2
511.379	17.24
511.579	17.01
511.778	17.23
511.978	17.4
512.177	17.29
512.377	17.29
512.576	17.48
512.776	17.26
512.975	17.34
513.175	17.63
513.374	17.6
513.573	17.79
513.773	18.07
513.972	17.93
514.172	18
514.371	18.15
514.57	18.38
514.77	18.52
514.969	18.59
515.168	18.85
515.367	18.76
515.567	18.68
515.766	18.84
515.965	18.85
516.164	18.74
516.364	18.8
516.563	18.94
516.762	19.05
516.961	18.86
517.16	19.07
517.359	18.96
517.559	18.72
517.758	18.72
517.957	18.43
518.156	18.47
518.355	18.63
518.554	18.52
518.753	18.31
518.952	18.23
519.151	18.49
519.35	18.65
519.549	18.57
519.748	18.99
519.947	18.92
520.146	19.22
520.345	19.31
520.544	19.22
520.743	19.13
520.942	19.21
521.141	19.4
521.339	19.29
521.538	19.09
521.737	19.24
521.936	19.34
522.135	19.57
522.333	20.01
522.532	20.28
522.731	20.43
522.93	20.82
523.129	20.89
523.327	20.71
523.526	20.57
523.725	20.46
523.923	20.64
524.122	20.47
524.321	20.53
524.519	20.2
524.718	19.94
524.917	20.1
525.115	20.09
525.314	20.15
525.512	20.3
525.711	20.42
525.909	20.45
526.108	20.59
526.306	20.62
526.505	20.64
526.703	20.7
526.902	20.78
527.1	20.77
527.299	20.76
527.497	20.8
527.696	20.85
527.894	20.81
528.092	20.86
528.291	20.75
528.489	20.75
528.688	20.78
528.886	20.9
529.084	20.97
529.283	21.03
529.481	20.97
529.679	21.07
529.877	21.07
530.076	21.26
530.274	21.57
530.472	21.56
530.67	21.78
530.869	21.95
531.067	22.02
531.265	22.06
531.463	22.1
531.661	22.25
531.859	22.49
532.057	22.49
532.255	22.55
532.454	22.29
532.652	22.32
532.85	22.27
533.048	22.21
533.246	22.23
533.444	22.21
533.642	22.26
533.84	22.41
534.038	22.27
534.236	22.32
534.434	22.38
534.632	22.71
534.83	23
535.027	23.16
535.225	23.25
535.423	23.5
535.621	23.66
535.819	23.58
536.017	23.68
536.215	23.76
536.412	23.84
536.61	23.59
536.808	23.7
537.006	23.58
537.203	23.72
537.401	23.89
537.599	23.58
537.797	23.51
537.994	23.51
538.192	23.54
538.39	23.63
538.587	23.67
538.785	24.03
538.983	23.95
539.18	24.16
539.378	24.12
539.575	24.01
539.773	24.09
539.97	24.33
540.168	24.66
540.366	24.51
540.563	24.6
540.761	24.69
540.958	24.77
541.155	24.95
541.353	25
541.55	25.13
541.748	25.19
541.945	25.25
542.143	25.09
542.34	25.03
542.537	25.17
542.735	25.16
542.932	25.23
543.129	25.27
543.327	25.3
543.524	24.96
543.721	24.93
543.919	25.01
544.116	25.14
544.313	25.46
544.51	25.31
544.708	25.72
544.905	25.75
545.102	25.63
545.299	25.59
545.496	25.46
545.693	25.85
545.891	25.88
546.088	25.83
546.285	25.88
546.482	25.89
546.679	25.91
546.876	25.9
547.073	26.14
547.27	26.32
547.467	26.46
547.664	26.57
547.861	26.78
548.058	26.97
548.255	27.44
548.452	27.51
548.649	27.63
548.846	28.38
549.043	28.29
549.24	28.21
549.437	28.35
549.633	28.49
549.83	28.63
550.027	28.58
550.224	28.64
550.421	28.53
550.618	28.62
550.814	28.66
551.011	28.22
551.208	28.17
551.405	28.07
551.601	27.94
551.798	27.89
551.995	28
552.191	28.07
552.388	28.15
552.585	28.38
552.781	28.53
552.978	28.41
553.175	28.68
553.371	28.38
553.568	28.37
553.764	28.55
553.961	28.62
554.157	28.59
554.354	28.27
554.55	28.09
554.747	28.11
554.943	28.38
555.14	28.45
555.336	28.52
555.533	28.88
555.729	28.85
555.926	29.19
556.122	29.48
556.318	29.53
556.515	29.87
556.711	30.19
556.907	30.06
557.104	29.45
557.3	29.66
557.496	29.73
557.693	29.98
557.889	29.9
558.085	29.62
558.281	29.73
558.478	29.86
558.674	30.29
558.87	30.32
559.066	30.27
559.262	30.66
559.459	30.59
559.655	30.65
559.851	30.63
560.047	30.87
560.243	31.02
560.439	30.87
560.635	31.23
560.831	31.2
561.027	30.99
561.223	31.1
561.419	31.11
561.615	31.23
561.811	31.15
562.007	31.47
562.203	31.59
562.399	31.62
562.595	31.68
562.791	31.59
562.987	31.53
563.183	31.9
563.379	32.07
563.575	32.42
563.771	32.55
563.966	32.58
564.162	32.42
564.358	32.67
564.554	32.57
564.75	32.52
564.945	32.45
565.141	32.55
565.337	32.28
565.533	32.03
565.728	31.93
565.924	31.96
566.12	32.24
566.315	32.18
566.511	32.25
566.707	32.57
566.902	33.12
567.098	33.14
567.293	32.99
567.489	33.51
567.684	33.92
567.88	34.07
568.076	33.89
568.271	33.62
568.467	33.58
568.662	33.29
568.858	33.51
569.053	33.08
569.248	33.3
569.444	33.5
569.639	33.59
569.835	33.45
570.03	33.19
570.225	33.38
570.421	33.35
570.616	33.81
570.812	34.1
571.007	34.25
571.202	34.52
571.397	34.14
571.593	34.2
571.788	34.01
571.983	34.25
572.178	34.47
572.374	34.58
572.569	34.46
572.764	34.27
572.959	34.04
573.154	33.56
573.35	33.46
573.545	33.75
573.74	33.76
573.935	33.94
574.13	34.04
574.325	33.93
574.52	33.83
574.715	34.43
574.91	34.35
575.105	34.91
575.3	35.08
575.495	34.86
575.69	35
575.885	34.92
576.08	34.72
576.275	34.69
576.47	35.13
576.665	35.49
576.86	35
577.055	35.49
577.25	35.14
577.444	35.46
577.639	35.74
577.834	36.05
578.029	36.22
578.224	36.19
578.418	36.32
578.613	36.24
578.808	36.13
579.003	36.23
579.197	35.7
579.392	35.54
579.587	35.64
579.781	35.79
579.976	35.07
580.171	35.3
580.365	35.36
580.56	35.05
580.755	34.93
580.949	34.77
581.144	34.8
581.338	34.84
581.533	35.41
581.727	35.36
581.922	35.46
582.116	35.72
582.311	35.95
582.505	36.18
582.7	36.14
582.894	36.15
583.089	35.92
583.283	36
583.478	36.37
583.672	36.6
583.866	36.38
584.061	36.48
584.255	36.63
584.449	36.38
584.644	36.53
584.838	36.77
585.032	37.05
585.226	37.06
585.421	37.44
585.615	37.71
585.809	37.13
586.003	37.21
586.198	37.6
586.392	37.32
586.586	37.82
586.78	37.67
586.974	37.9
587.168	37.82
587.363	38.35
587.557	37.95
587.751	37.75
587.945	37.73
588.139	37.71
588.333	37.54
588.527	38.05
588.721	37.89
588.915	37.87
589.109	37.61
589.303	38.06
589.497	38.28
589.691	38.52
589.885	37.72
590.079	38.04
590.273	38.17
590.466	37.53
590.66	37.5
590.854	37.4
591.048	37.29
591.242	37.29
591.436	36.8
591.629	36.66
591.823	36.79
592.017	37.65
592.211	37.76
592.404	38.05
592.598	38.56
592.792	38.94
592.986	38.48
593.179	38.75
593.373	38.91
593.567	38.93
593.76	38.84
593.954	38.79
594.147	38.68
594.341	38.31
594.535	38.32
594.728	38.32
594.922	38.33
595.115	38.5
595.309	38.52
595.502	38.56
595.696	38.49
595.889	38.56
596.083	38.76
596.276	39.15
596.47	39.65
596.663	39.48
596.856	39.39
597.05	39.28
597.243	39.48
597.437	39.8
597.63	39.87
597.823	39.93
598.017	39.6
598.21	39.24
598.403	38.5
598.596	37.89
598.79	37.92
598.983	37.92
599.176	37.14
599.369	36.38
599.563	35.7
599.756	35.63
599.949	35.99
600.142	36.71
600.335	37.05
600.528	37.2
600.722	37.08
600.915	37.22
601.108	37.39
601.301	37.75
601.494	38.12
601.687	38.55
601.88	38.87
602.073	38.28
602.266	38.3
602.459	38.29
602.652	38.34
602.845	38.77
603.038	39.06
603.231	39.12
603.424	39.56
603.617	39.74
603.809	39.67
604.002	39.38
604.195	39.24
604.388	39.05
604.581	39.43
604.774	39.8
604.966	39.81
605.159	39.23
605.352	39.18
605.545	38.71
605.737	38.92
605.93	39.01
606.123	39.12
606.316	40.15
606.508	40.11
606.701	39.29
606.894	38.67
607.086	38.7
607.279	38.8
607.471	39.08
607.664	39.21
607.857	39.45
608.049	39.25
608.242	39.1
608.434	38.8
608.627	39.42
608.819	39.57
609.012	40.1
609.204	40.11
609.397	40.44
609.589	40.35
609.782	40.76
609.974	40.64
610.166	40.66
610.359	40.79
610.551	40.74
610.743	40.36
610.936	40.57
611.128	40.28
611.32	40.09
611.513	39.93
611.705	39.86
611.897	39.93
612.09	39.99
612.282	40.65
612.474	41.08
612.666	41.51
612.858	41.25
613.051	41.14
613.243	41.24
613.435	42.19
613.627	42.34
613.819	42.83
614.011	42.27
614.203	42.27
614.395	41.8
614.588	41.9
614.78	41.86
614.972	42.2
615.164	42.19
615.356	42.73
615.548	42.44
615.74	42.38
615.932	41.71
616.124	42.29
616.315	41.42
616.507	41.52
616.699	41.56
616.891	41.24
617.083	41.43
617.275	42.25
617.467	41.82
617.659	41.2
617.85	41.01
618.042	42.04
618.234	41.41
618.426	42.33
618.618	42.37
618.809	42.43
619.001	42.52
619.193	42.11
619.384	41.77
619.576	42.2
619.768	42.11
619.959	42.28
620.151	41.93
620.343	42.23
620.534	41.7
620.726	41.77
620.917	41.7
621.109	41.75
621.301	41.52
621.492	41.78
621.684	41.49
621.875	42.26
622.067	41.59
622.258	41.49
622.45	41.58
622.641	42.2
622.832	42.23
623.024	41.43
623.215	41.58
623.407	41.76
623.598	41.04
623.789	41.12
623.981	40.84
624.172	41.75
624.363	41.82
624.555	41.91
624.746	41.44
624.937	41.66
625.129	42.06
625.32	41.71
625.511	41.74
625.702	41.99
625.893	42.15
626.085	42.05
626.276	42.26
626.467	42.12
626.658	41.74
626.849	41.66
627.04	41.73
627.231	42.06
627.422	42.67
627.614	43.03
627.805	43.19
627.996	43.08
628.187	43.26
628.378	43.05
628.569	43.66
628.76	43.44
628.951	43.61
629.142	43.12
629.332	42.55
629.523	41.86
629.714	41.52
629.905	41.31
630.096	41.9
630.287	42.35
630.478	41.59
630.669	40.74
630.859	40.97
631.05	41.28
631.241	41.06
631.432	41.07
631.623	41.43
631.813	41.55
632.004	41.72
632.195	40.66
632.385	39.83
632.576	40.42
632.767	40.73
632.957	41.38
633.148	41
633.339	40.98
633.529	41.45
633.72	41.6
633.91	41.48
634.101	41.93
634.292	42.7
634.482	42.94
634.673	43.28
634.863	42.96
635.054	42.54
635.244	43.59
635.435	44.37
635.625	44.18
635.815	43.93
636.006	44.01
636.196	44.62
636.387	44.31
636.577	44.44
636.767	44.37
636.958	44.35
637.148	44.54
637.338	44.13
637.529	43.84
637.719	43.61
637.909	43.99
638.099	44.49
638.29	43.18
638.48	43.57
638.67	43.45
638.86	43.86
639.05	44.15
639.241	44.26
639.431	44.39
639.621	44.87
639.811	44.6
640.001	44.26
640.191	43.65
640.381	43.3
640.571	42.99
640.761	43.47
640.951	42.89
641.141	43.02
641.331	43.65
641.521	43.2
641.711	42.96
641.901	44.16
642.091	45.31
642.281	45.41
642.471	46.75
642.661	47.93
642.851	48
643.041	48.09
643.231	47.81
643.42	47.29
643.61	47.75
643.8	48.46
643.99	48.41
644.18	47.59
644.369	48.31
644.559	47.38
644.749	45.97
644.939	45.78
645.128	46.43
645.318	47.49
645.508	47.17
645.697	46.35
645.887	45.6
646.076	45.48
646.266	45.77
646.456	44.74
646.645	45
646.835	45.16
647.024	44.66
647.214	43.45
647.403	42.3
647.593	42.15
647.782	43.16
647.972	43.06
648.161	42.55
648.351	42.64
648.54	42.96
648.73	43.12
648.919	43.67
649.108	43.58
649.298	44.62
649.487	45.13
649.677	46.16
649.866	45.32
650.055	45.6
650.244	45.92
650.434	45.43
650.623	45.22
650.812	45.1
651.002	44.91
651.191	45.84
651.38	45.37
651.569	45.53
651.758	45.58
651.947	45.64
652.137	44.68
652.326	44.38
652.515	44.08
652.704	43.91
652.893	44.05
653.082	43.69
653.271	43.99
653.46	43.93
653.649	43.53
653.838	42.58
654.027	43.16
654.216	43.94
654.405	44.66
654.594	45.02
654.783	45.41
654.972	45.28
655.161	45.34
655.35	44.97
655.539	45.61
655.728	46.09
655.916	45.65
656.105	46.04
656.294	46.4
656.483	45.15
656.672	44.87
656.86	44.96
657.049	45.44
657.238	45.71
657.427	45.28
657.615	44.8
657.804	44.91
657.993	45.14
658.181	45.56
658.37	45.51
658.559	45.8
658.747	46.2
658.936	46.25
659.125	46.36
659.313	45.74
659.502	46.05
659.69	45.87
659.879	45.69
660.067	46.41
660.256	46.02
660.444	46
660.633	45.76
660.821	46.25
661.01	46.12
661.198	45.94
661.387	46.77
661.575	46.67
661.763	47.14
661.952	47
662.14	46.95
662.328	45.99
662.517	45.82
662.705	46.88
662.893	47.4
663.082	47.68
663.27	47.24
663.458	47.21
663.646	47.18
663.834	46.25
664.023	46.04
664.211	45.42
664.399	45.47
664.587	45.13
664.775	44.05
664.963	43.09
665.152	43.85
665.34	43.55
665.528	43.67
665.716	44.33
665.904	46.52
666.092	46.36
666.28	46.75
666.468	47.11
666.656	48.36
666.844	48.46
667.032	47.89
667.22	48.19
667.408	49.36
667.596	48.91
667.784	48.59
667.971	47.82
668.159	47.6
668.347	47.75
668.535	47.58
668.723	46.4
668.911	45.98
669.098	46.04
669.286	45.27
669.474	44.82
669.662	45.6
669.849	45.18
670.037	44.64
670.225	45.01
670.413	44.44
670.6	43.9
670.788	44
670.976	44.8
671.163	44.34
671.351	43.68
671.538	43.51
671.726	43.1
671.913	42.55
672.101	42.32
672.289	42.45
672.476	42.89
672.664	43.32
672.851	42.4
673.039	43.8
673.226	44.76
673.413	45.36
673.601	45.32
673.788	44.96
673.976	45.14
674.163	45.55
674.35	45.05
674.538	45.58
674.725	46.29
674.912	47.49
675.1	46.93
675.287	46.29
675.474	45.78
675.662	45.45
675.849	45.44
676.036	45.61
676.223	44.98
676.411	45.95
676.598	45.07
676.785	45.64
676.972	45.92
677.159	45
677.346	44.32
677.533	45.47
677.721	45.29
677.908	45.11
678.095	45.29
678.282	45.02
678.469	44.08
678.656	43.93
678.843	42.54
679.03	42.86
679.217	43.12
679.404	43.17
679.591	41.82
679.778	42.39
679.964	43.14
680.151	43.24
680.338	43.71
680.525	43.83
680.712	44.33
680.899	44.72
681.086	44.19
681.272	44.54
681.459	45.86
681.646	46.66
681.833	46.53
682.02	46.54
682.206	46.84
682.393	47
682.58	48.07
682.766	50.36
682.953	49.97
683.14	50.28
683.326	49.94
683.513	50.49
683.7	50.82
683.886	50.76
684.073	50.95
684.259	50.94
684.446	51.85
684.632	50.09
684.819	47.52
685.005	48.8
685.192	47.89
685.378	48.99
685.565	48.29
685.751	47.39
685.938	47.27
686.124	45.8
686.31	45.57
686.497	45.34
686.683	46.27
686.87	46.66
687.056	46
687.242	45.94
687.429	45.63
687.615	45.46
687.801	45.85
687.987	44.31
688.174	44.43
688.36	44.53
688.546	44.41
688.732	44.94
688.918	43.85
689.105	44.46
689.291	46.13
689.477	45.06
689.663	46
689.849	46.5
690.035	47.92
690.221	48.93
690.407	49.19
690.593	49.28
690.779	48.66
690.965	49.27
691.151	48.85
691.337	48.63
691.523	49.09
691.709	48.52
691.895	48.77
692.081	49.74
692.267	50.17
692.453	50.11
692.639	50.12
692.825	50.44
693.011	50.61
693.196	50.96
693.382	50
693.568	50.69
693.754	51.22
693.94	51.27
694.125	50.47
694.311	50.25
694.497	49.59
694.682	49.32
694.868	48.96
695.054	48.36
695.239	48.06
695.425	48.96
695.611	48.51
695.796	47.82
695.982	47.64
696.168	47.19
696.353	47.23
696.539	48.08
696.724	47.55
696.91	46.91
697.095	47.41
697.281	48
697.466	46.9
697.652	47
697.837	46.06
698.023	45.57
698.208	47.04
698.393	47.06
698.579	46.76
698.764	46.51
698.949	46.91
699.135	47.14
699.32	46.75
699.505	47.85
699.691	47.64
699.876	48.22
700.061	49.1
700.246	47.98
700.432	47.77
700.617	47.21
700.802	47.06
700.987	48.58
701.172	49.7
701.358	48.96
701.543	49.11
701.728	49.62
701.913	50.53
702.098	49.82
702.283	49.53
702.468	50.33
702.653	51.82
702.838	53.61
703.023	51.77
703.208	49.92
703.393	51.46
703.578	51.05
703.763	51.52
703.948	50.98
704.133	51.12
704.318	52.53
704.503	52.16
704.688	50.8
704.873	49.99
705.057	51.26
705.242	52.55
705.427	51.84
705.612	50.73
705.797	50.53
705.981	51.62
706.166	52.37
706.351	51.24
706.536	51.58
706.72	52.76
706.905	52.64
707.09	53.04
707.274	52.16
707.459	51.36
707.644	52.35
707.828	51.11
708.013	50.25
708.197	48.67
708.382	47.46
708.567	46.38
708.751	46.65
708.936	46.16
709.12	46.97
709.305	46.69
709.489	46.67
709.673	45.62
709.858	45.45
710.042	44.81
710.227	45.17
710.411	47.35
710.596	47.67
710.78	46.7
710.964	46.13
711.149	44.74
711.333	44.45
711.517	43.48
711.702	44.26
711.886	46.16
712.07	47.26
712.254	47.61
712.438	47.3
712.623	47.02
712.807	46.9
712.991	49.12
713.175	49.31
713.359	48.54
713.544	50.2
713.728	50.94
713.912	50.59
714.096	50.82
714.28	50.55
714.464	49.73
714.648	49.98
714.832	51.08
715.016	49.77
715.2	49.65
715.384	50.95
715.568	51.85
715.752	50.38
715.936	49.4
716.12	49.31
716.304	50.77
716.488	50.37
716.671	51.14
716.855	52.18
717.039	54.23
717.223	54.17
717.407	54.49
717.59	53.2
717.774	54.49
717.958	55.18
718.142	55.93
718.325	54.84
718.509	55.96
718.693	56.26
718.877	53.29
719.06	52.26
719.244	52.26
719.428	54.01
719.611	54.24
719.795	53.62
719.978	53.5
720.162	52.47
720.345	52.43
720.529	53.79
720.713	52.41
720.896	55.03
721.08	55.39
721.263	56.51
721.446	54.41
721.63	54.3
721.813	56.08
721.997	56.02
722.18	56.05
722.364	57.3
722.547	56.29
722.73	56.85
722.914	54.99
723.097	54.86
723.28	53.53
723.464	53.29
723.647	52.36
723.83	52.13
724.013	53.38
724.197	53.19
724.38	52.45
724.563	51.17
724.746	51.69
724.929	52.48
725.112	51.38
725.296	50.32
725.479	50.22
725.662	51.44
725.845	48.62
726.028	48.15
726.211	47.46
726.394	48.2
726.577	48.49
726.76	46.89
726.943	46.54
727.126	47.07
727.309	47.36
727.492	47.87
727.675	47.07
727.858	47.38
728.041	46.38
728.224	47.85
728.407	45.31
728.589	44.72
728.772	46.21
728.955	46.97
729.138	48.34
729.321	50.44
729.503	51.29
729.686	51.48
729.869	51.93
730.052	52.09
730.234	51.68
730.417	52.5
730.6	54.62
730.782	54.31
730.965	53.85
731.148	52.37
731.33	51.09
731.513	50.02
731.695	50.56
731.878	52.25
732.061	53
732.243	53.38
732.426	53.48
732.608	52.57
732.791	52.8
732.973	53.33
733.156	53.63
733.338	54.82
733.52	55.83
733.703	54.83
733.885	56.08
734.068	55.23
734.25	55.6
734.432	57.12
734.615	58.05
734.797	57.22
734.979	57.47
735.162	57.73
735.344	56.15
735.526	56.64
735.708	57.33
735.891	56.84
736.073	56.63
736.255	55.48
736.437	53.82
736.619	52.13
736.802	50.84
736.984	49.94
737.166	49.78
737.348	50.7
737.53	49.47
737.712	48.37
737.894	46.46
738.076	47.77
738.258	48.56
738.44	49.38
738.622	50.05
738.804	53.79
738.986	53.16
739.168	53.33
739.35	52.24
739.532	52.35
739.714	54.47
739.896	56.09
740.078	55.74
740.259	55.04
740.441	54.7
740.623	55.57
740.805	54.03
740.987	56
741.168	55.26
741.35	56.94
741.532	56.87
741.714	56.65
741.895	54.77
742.077	54.01
742.259	55.15
742.44	55.15
742.622	54.53
742.804	53.61
742.985	52.55
743.167	53.82
743.348	53.16
743.53	54.17
743.711	55.97
743.893	54.64
744.075	55.44
744.256	53.05
744.438	52.43
744.619	52.49
744.8	51.88
744.982	51.23
745.163	52.18
745.345	52.35
745.526	53.35
745.707	51.83
745.889	52.92
746.07	54.11
746.252	56.09
746.433	53.22
746.614	53.51
746.795	55.19
746.977	56.71
747.158	57.42
747.339	57.68
747.52	58.84
747.702	59.09
747.883	59.92
748.064	59.15
748.245	58.8
748.426	61.87
748.607	62.01
748.788	62.34
748.97	62.32
749.151	59.08
749.332	60.35
749.513	58.07
749.694	58.2
749.875	56.99
750.056	57.75
750.237	59.55
750.418	60.64
750.599	60.06
750.78	58.19
750.96	57.9
751.141	59.2
751.322	56.19
751.503	54.64
751.684	56.95
751.865	57.39
752.046	56.46
752.226	53.27
752.407	50.28
752.588	52.81
752.769	54.11
752.949	53.44
753.13	54.15
753.311	52.9
753.492	53.29
753.672	50.78
753.853	53.04
754.034	50.82
754.214	52.11
754.395	55.49
754.575	53.35
754.756	51.93
754.937	50.93
755.117	50.06
755.298	53.95
755.478	53.87
755.659	53.86
755.839	53.54
756.02	55.47
756.2	55.28
756.381	54.55
756.561	55.38
756.741	57.67
756.922	57.51
757.102	55.57
757.283	53.69
757.463	53.79
757.643	52.79
757.823	52.57
758.004	51.49
758.184	52.89
758.364	52.96
758.545	52.18
758.725	51.51
758.905	52.2
759.085	53.48
759.265	54.24
759.446	55.12
759.626	57.29
759.806	57.49
759.986	59.12
760.166	57.8
760.346	58.07
760.526	57.3
760.706	56.4
760.886	57.67
761.066	58.74
761.246	56.73
761.426	55.41
761.606	53.44
761.786	51.51
761.966	51.41
762.146	50.71
762.326	50.69
762.506	51.1
762.686	50.7
762.866	49
763.046	46.77
763.225	47.3
763.405	48.7
763.585	47.26
763.765	48.69
763.945	48.82
764.124	48.37
764.304	50.06
764.484	49.74
764.664	49.19
764.843	51.12
765.023	51.7
765.203	50.79
765.382	49.37
765.562	52.32
765.741	53.26
765.921	50.93
766.101	51.94
766.28	51.98
766.46	50.94
766.639	50.74
766.819	50.52
766.998	53.88
767.178	55.49
767.357	56.04
767.537	54.77
767.716	53.66
767.896	54.64
768.075	55.76
768.254	53.77
768.434	52.94
768.613	56.55
768.792	55.87
768.972	55.03
769.151	55.32
769.33	55
769.51	55.46
769.689	55.15
769.868	54.82
770.047	52.86
770.226	52.56
770.406	57.04
770.585	54.57
770.764	54.16
770.943	52.94
771.122	54.65
771.301	54.78
771.48	56.07
771.66	58.11
771.839	59.44
772.018	63.18
772.197	67.54
772.376	65.52
772.555	67.07
772.734	68.42
772.913	71.72
773.092	70.07
773.271	70.05
773.449	71.43
773.628	66.34
773.807	70.2
773.986	68.44
774.165	61.8
774.344	63.2
774.523	62.61
774.701	62.86
774.88	59.5
775.059	61.02
775.238	65.08
775.417	63.54
775.595	66.8
775.774	61.96
775.953	60.21
776.131	62.14
776.31	57.79
776.489	55.85
776.667	53.74
776.846	56.85
777.025	55.84
777.203	57.14
777.382	56.92
777.56	57.71
777.739	57.55
777.917	59.47
778.096	59.99
778.274	65.29
778.453	65.01
778.631	67.09
778.81	67.31
778.988	68.62
779.166	65.64
779.345	67.28
779.523	66.78
779.702	68.83
779.88	70.27
780.058	67.18
780.237	62.63
780.415	63.38
780.593	59.47
780.771	58.93
780.95	53.51
781.128	52.78
781.306	49.78
781.484	49.17
781.662	48.76
781.841	45.06
782.019	48.25
782.197	52.47
782.375	52.72
782.553	56.29
782.731	57.69
782.909	60.52
783.087	58.89
783.265	62.51
783.443	62.38
783.621	65.39
783.799	68.36
783.977	68.85
784.155	65.25
784.333	68.69
784.511	65.83
784.689	59.71
784.867	61.13
785.045	63.91
785.223	59.87
785.4	59.56
785.578	58.76
785.756	59.98
785.934	55.45
786.112	57.27
786.289	56.84
786.467	56.11
786.645	58.87
786.823	57.77
787	55.74
787.178	57.55
787.356	58.97
787.533	57.66
787.711	52.61
787.889	54.22
788.066	51.89
788.244	49.8
788.421	52.28
788.599	52.18
788.776	51.81
788.954	53.21
789.131	53.35
789.309	52.76
789.486	50.73
789.664	53.1
789.841	55.56
790.019	55.97
790.196	60.72
790.373	61.5
790.551	62.15
790.728	63.69
790.906	61.34
791.083	56.36
791.26	54.05
791.437	57.88
791.615	60.56
791.792	57.33
791.969	59.18
792.146	55.11
792.324	52.76
792.501	52.98
792.678	56.16
792.855	54.32
793.032	59.61
793.209	61.18
793.387	60.97
793.564	58.16
793.741	61.81
793.918	58.95
794.095	60.44
794.272	56.71
794.449	57.66
794.626	53.54
794.803	61.98
794.98	59.6
795.157	62.15
795.334	59.9
795.511	61.33
795.688	56.48
795.864	58.1
796.041	57.52
796.218	61.02
796.395	57.02
796.572	56.04
796.749	54.25
796.925	57.79
797.102	54.52
797.279	57.19
797.456	59.97
797.632	59.42
797.809	61.53
797.986	61.81
798.162	62.37
798.339	65.54
798.516	67.25
798.692	62.08
798.869	62.01
799.046	62.58
799.222	61.12
799.399	52.13
799.575	54.9
799.752	53.68
799.928	56.54
800.105	56.17
800.281	53.55
800.458	54.57
800.634	56.51
800.811	53.76
800.987	56.53
801.163	56.84
801.34	63.02
801.516	60.99
801.692	61.79
801.869	61.65
802.045	65.11
802.221	68.77
802.398	69.58
802.574	69.19
802.75	68.92
802.926	62.99
803.103	63.49
803.279	62.37
803.455	64.91
803.631	61.92
803.807	60.03
803.983	55.73
804.16	53.67
804.336	50.89
804.512	53.07
804.688	51.92
804.864	53.03
805.04	51.09
805.216	52.13
805.392	54.5
805.568	58.52
805.744	58.32
805.92	59.61
806.096	61.85
806.272	70.64
806.448	67.39
806.623	68.84
806.799	75.02
806.975	81.17
807.151	78.46
807.327	71.75
807.503	67.72
807.678	64.54
807.854	64.2
808.03	66.6
808.206	61.11
808.381	64.33
808.557	64.04
808.733	60.19
808.908	55.91
809.084	57.48
809.26	59.97
809.435	60.22
809.611	61.06
809.787	56.86
809.962	53.38
810.138	54.72
810.313	53.6
810.489	58.32
810.664	63.31
810.84	65.26
811.015	65.86
811.191	66.83
811.366	68.38
811.542	74.34
811.717	79.47
811.892	77.8
812.068	78.94
812.243	81.22
812.419	74.25
812.594	66.39
812.769	70.34
812.944	70.58
813.12	67.99
813.295	64.37
813.47	67.83
813.645	68.48
813.821	66.31
813.996	69.95
814.171	65.4
814.346	71.12
814.521	75.87
814.697	75.16
814.872	76.4
815.047	73.88
815.222	75.34
815.397	61.29
815.572	60.62
815.747	62.96
815.922	58.01
816.097	56.62
816.272	53.99
816.447	52.65
816.622	53.91
816.797	55.01
816.972	60.58
817.147	62.29
817.322	68.09
817.496	64.59
817.671	63
817.846	63.57
818.021	66.21
818.196	68.83
818.371	67.05
818.545	62.35
818.72	63.09
818.895	60.08
819.069	58.3
819.244	59.47
819.419	57.24
819.594	57.23
819.768	54.33
819.943	51.87
820.117	48.2
820.292	47.61
820.467	46.43
820.641	43.62
820.816	42.79
820.99	41.89
821.165	40.05
821.339	39.5
821.514	37.95
821.688	37.93
821.863	37.94
822.037	37.47
822.212	36.68
822.386	36.34
822.56	36.12
822.735	36.34
822.909	36.03
823.084	36.3
823.258	36.19
823.432	37.68
823.606	37.62
823.781	37.04
823.955	37.71
824.129	37.71
824.303	38.17
824.478	38.39
824.652	38.56
824.826	38.32
825	39.74
825.174	40.6
825.348	39.38
825.523	38.23
825.697	37.97
825.871	37.83
826.045	38.86
826.219	38.25
826.393	38.41
826.567	38.15
826.741	39.29
826.915	38.63
827.089	39.39
827.263	39.85
827.437	41.36
827.611	41.79
827.784	42.46
827.958	43.22
828.132	42.5
828.306	44.76
828.48	44.9
828.654	46.31
828.827	46.82
829.001	46.79
829.175	47.75
829.349	50.13
829.522	49.91
829.696	51.53
829.87	53.49
830.044	57.19
830.217	54.15
830.391	58.17
830.565	57.37
830.738	54.04
830.912	52.99
831.085	55.47
831.259	51.55
831.432	53.79
831.606	51.9
831.779	48.01
831.953	46.23
832.126	46.48
832.3	42.8
832.473	44.57
832.647	45.27
832.82	43.89
832.994	42.94
833.167	44.23
833.34	44.71
833.514	42.03
833.687	42.11
833.86	44.05
834.034	43.44
834.207	44.75
834.38	43.37
834.553	40.28
834.727	43.99
834.9	42.62
835.073	42.38
835.246	43.71
835.419	45.63
835.593	46.14
835.766	45.35
835.939	48.54
836.112	48.3
836.285	47.61
836.458	52.97
836.631	51.7
836.804	56.04
836.977	56.29
837.15	52.43
837.323	53.85
837.496	55.21
837.669	53.92
837.842	45.21
838.015	49.77
838.188	53
838.361	57.07
838.533	54.6
838.706	54.19
838.879	55.46
839.052	57.96
839.225	59.24
839.398	59
839.57	65.21
839.743	66.34
839.916	62.89
840.088	60.99
840.261	61.06
840.434	70.98
840.607	70.1
840.779	67.08
840.952	58.31
841.124	59.33
841.297	65.55
841.47	64.24
841.642	72.21
841.815	73.92
841.987	79.95
842.16	75.21
842.332	69.42
842.505	70.77
842.677	77.63
842.85	93.5
843.022	93.92
843.194	82.58
843.367	85.67
843.539	86.95
843.712	95.51
843.884	97.16
844.056	96.58
844.229	97.87
844.401	105.23
844.573	107.23
844.745	98.23
844.918	108.53
845.09	116.06
845.262	114.05
845.434	121.76
845.606	117.19
845.779	113.04
845.951	110.96
846.123	117.73
846.295	114.05
846.467	123.33
846.639	121.75
846.811	128.87
846.983	138.56
847.155	123.59
847.327	110.33
847.499	108.32
847.671	102.66
847.843	102.64
848.015	94.07
848.187	86.87
848.359	85.78
848.531	83.07
848.703	76.09
848.875	74.9
849.047	76.86
849.218	76.15
849.39	68.26
849.562	77.8
849.734	90.6
849.905	91.62
850.077	107.89
850.249	98.48
850.421	99.8
850.592	101.72
850.764	100.35
850.936	93.72
851.107	89.55
851.279	99.09
851.451	91.14
851.622	86.96
851.794	89.23
851.965	92.79
852.137	93.84
852.308	94.35
852.48	92.61
852.651	103.35
852.823	107.21
852.994	120.94
853.166	129.57
853.337	140.8
853.509	139.73
853.68	123.78
853.851	115.33
854.023	118.71
854.194	109.89
854.365	113.08
854.537	86.95
854.708	88.8
854.879	72.76
855.05	61.7
855.222	57.93
855.393	64.28
855.564	76.04
855.735	75.94
855.906	65.05
856.078	61.51
856.249	63.11
856.42	63.99
856.591	61.52
856.762	67.17
856.933	66.54
857.104	59.18
857.275	55.43
857.446	51.11
857.617	53.22
857.788	58.52
857.959	60.72
858.13	64.61
858.301	67.29
858.472	63.94
858.643	62.74
858.814	68.21
858.985	72.14
859.155	69.06
859.326	66.86
859.497	69.72
859.668	103.31
859.839	94.75
860.009	63.65
860.18	71.99
860.351	73.05
860.522	63.58
860.692	48.35
860.863	67.39
861.034	71.39
861.204	74
861.375	74.01
861.546	62.39
861.716	62.36
861.887	65.1
862.057	68.93
862.228	74.12
862.398	71.36
862.569	102.85
862.739	116.53
862.91	117.92
863.08	120.05
863.251	130.54
863.421	133.66
863.592	157.33
863.762	154.44
863.932	128.61
864.103	137.71
864.273	139.31
864.443	93.78
864.614	81.32
864.784	72.37
864.954	79.91
865.125	91.95
865.295	102.91
865.465	107.78
865.635	97.48
865.805	99.45
865.976	79.03
866.146	76.86
866.316	89.11
866.486	83.55
866.656	92.27
866.826	91.73
866.996	82.77
867.166	64.23
867.336	65.9
867.506	52.35
867.676	50.26
867.846	46.19
868.016	65.75
868.186	69.23
868.356	71.33
868.526	76.53
868.696	78.27
868.866	74.38
869.036	76.31
869.206	75
869.376	77.1
869.545	79.79
869.715	96.21
869.885	91.95
870.055	85.83
870.224	75.54
870.394	72.81
870.564	66.7
870.734	61.51
870.903	72.8
871.073	74.09
871.243	93.91
871.412	93.18
871.582	73.92
871.751	61.35
871.921	84.72
872.091	120.52
872.26	89.71
872.43	83.21
872.599	85.39
872.769	82.62
872.938	82.26
873.108	70.94
873.277	77.19
873.446	87.36
873.616	107.11
873.785	104.04
873.955	91.44
874.124	98.78
874.293	102.07
874.463	99.81
874.632	97.57
874.801	105.71
874.971	110.95
875.14	126.26
875.309	103.8
875.478	63.29
875.647	54.99
875.817	62.1
875.986	62.1
876.155	62.11
876.324	70.85
876.493	62.47
876.662	59.23
876.831	57.34
877	55.4
877.17	61.87
877.339	79.13
877.508	90.17
877.677	85.9
877.846	87.12
878.015	84.38
878.184	78.74
878.352	79.85
878.521	73.53
878.69	71.28
878.859	63.25
879.028	64.78
879.197	53.57
879.366	47.67
879.534	42.6
879.703	35.94
879.872	36.12
880.041	28.76
880.21	31.88
880.378	32.06
880.547	31.38
880.716	34.43
880.884	32.48
881.053	33.37
881.222	34.29
881.39	39.26
881.559	38.67
881.727	38.57
881.896	38.19
882.065	37.81
882.233	39.91
882.402	39.48
882.57	39.5
882.739	38.61
882.907	39.26
883.076	40.18
883.244	36.69
883.412	39.15
883.581	41.06
883.749	42.8
883.918	42.71
884.086	43.25
884.254	43.35
884.423	43.45
884.591	46.89
884.759	47.53
884.927	49.96
885.096	52.1
885.264	51.98
885.432	48.97
885.6	48.41
885.769	53.42
885.937	53.17
886.105	66.17
886.273	76.71
886.441	73.71
886.609	80.57
886.777	77.68
886.945	75.93
887.113	83.62
887.281	84.82
887.449	89.48
887.617	87.85
887.785	84.21
887.953	74.37
888.121	71.15
888.289	77.52
888.457	70.77
888.625	72.31
888.793	82.66
888.961	81.13
889.129	79.72
889.296	76.37
889.464	74.42
889.632	79.86
889.8	93.25
889.967	91.96
890.135	82.17
