Data from JASIL_3015_Reflection_02.txt Node
Date: Mon Nov 09 10:38:21 EST 2015
User: Geneva
Spectrometer: USB4E03002
Autoset integration time: false
Trigger mode: 4
Integration Time (sec): 1.000000E-1
Scans to average: 10
Electric dark correction enabled: false
Nonlinearity correction enabled: false
Boxcar width: 5
Stray light correction enabled: false
XAxis mode: Wavelengths
Stop averaging: false
Number of Pixels in Spectrum: 3648
>>>>>Begin Spectral Data<<<<<
177.575	159
177.794	176.39
178.014	162.43
178.233	196.96
178.452	213.53
178.672	687.72
178.891	1443.48
179.11	-551.22
179.33	-309.09
179.549	107.05
179.768	100
179.987	420.83
180.207	-288.33
180.426	-279.1
180.645	-39.79
180.864	-24.22
181.084	-5.5
181.303	-14.58
181.522	-16.02
181.741	-24.92
181.96	-77.02
182.179	-31.04
182.398	4.32
182.618	-53.23
182.837	-183.5
183.056	-400
183.275	260
183.494	-352.22
183.713	-1007.5
183.932	-493.62
184.151	-1136.36
184.37	-109.42
184.589	-1966.67
184.808	219.19
185.027	85.45
185.246	2.83
185.465	-0.74
185.684	-41.04
185.903	-21.26
186.122	-39.94
186.341	-45.69
186.56	-91.95
186.779	-661.22
186.998	389.01
187.216	195.6
187.435	104.17
187.654	93.43
187.873	38.54
188.092	58.5
188.311	19.8
188.53	14.62
188.748	47.88
188.967	-24.49
189.186	155.91
189.405	24.16
189.623	42.06
189.842	-14.29
190.061	-540
190.28	101.06
190.498	-24.76
190.717	-40
190.936	-33.33
191.154	-63.78
191.373	-3.52
191.592	-3.5
191.81	-65.07
192.029	-171.43
192.248	-137.23
192.466	-106.19
192.685	-93.1
192.904	-995.65
193.122	402.9
193.341	-6100
193.559	3408.33
193.778	531.82
193.996	685.71
194.215	347.87
194.433	124.77
194.652	124.68
194.87	108.1
195.089	127.52
195.307	152
195.526	110.49
195.744	47.32
195.963	74.26
196.181	-114.89
196.399	-112.05
196.618	-29.93
196.836	-7.31
197.055	21.96
197.273	43.2
197.491	3.5
197.71	-33.58
197.928	15.24
198.146	-24.9
198.365	-25.82
198.583	-2533.33
198.801	81.42
199.019	122.01
199.238	109.03
199.456	133.88
199.674	118.39
199.892	-4.63
200.111	-81
200.329	-342.86
200.547	1525
200.765	-264.94
200.983	212.58
201.202	194.64
201.42	218.75
201.638	136.19
201.856	298.52
202.074	275.76
202.292	320.63
202.51	223.61
202.728	1750
202.946	-62.12
203.165	863.16
203.383	-482.69
203.601	-777.27
203.819	320.93
204.037	441.25
204.255	184
204.473	262.41
204.691	222.55
204.909	-1585.71
205.127	715.15
205.345	382.35
205.562	-207.41
205.78	178
205.998	117.39
206.216	-107.55
206.434	-183.15
206.652	-4242.86
206.87	638.98
207.088	206.06
207.306	293.63
207.523	320.45
207.741	496.7
207.959	172.07
208.177	120.86
208.395	164.86
208.612	98.28
208.83	73.7
209.048	51.01
209.266	17.65
209.483	96.72
209.701	141.38
209.919	-8050
210.136	-474.55
210.354	-283.33
210.572	140.43
210.79	50
211.007	87.59
211.225	66.08
211.442	-2.63
211.66	68.85
211.878	161.84
212.095	-43.4
212.313	-7700
212.53	-284.43
212.748	-62.09
212.966	-917.07
213.183	-19000
213.401	-128.76
213.618	-97.09
213.836	-101.2
214.053	-137.56
214.271	-297.32
214.488	-141.34
214.705	-175.71
214.923	-146.67
215.14	-308.66
215.358	-105.59
215.575	2.13
215.793	-109.09
216.01	-641.67
216.227	-550
216.445	230.81
216.662	317.35
216.879	171.7
217.097	153.05
217.314	213.71
217.531	246.55
217.749	-41.86
217.966	-148.46
218.183	-1.54
218.4	16
218.618	64.92
218.835	61.95
219.052	53.47
219.269	63.38
219.487	60.86
219.704	66.3
219.921	47.59
220.138	1.85
220.355	85.79
220.572	-3366.67
220.79	219.44
221.007	270.59
221.224	419.79
221.441	270.47
221.658	-91
221.875	-41.42
222.092	-11.52
222.309	7.69
222.526	13.52
222.743	-22.48
222.96	-8.46
223.177	13.7
223.394	28.57
223.611	41.86
223.828	40.61
224.045	29.72
224.262	26.58
224.479	-6.87
224.696	-12.05
224.913	-5.47
225.13	4.84
225.347	16.4
225.564	14.49
225.781	6.13
225.997	-4.97
226.214	-8.84
226.431	-8.77
226.648	-6.25
226.865	9.66
227.082	13.52
227.298	6.85
227.515	2.42
227.732	3.57
227.949	-1.62
228.165	-8.39
228.382	-8.77
228.599	-6.37
228.816	-4
229.032	-7.83
229.249	-22
229.466	-26.63
229.682	-23.73
229.899	-26.87
230.116	-44.31
230.332	-40.56
230.549	-41.87
230.765	-48.22
230.982	-39.5
231.199	-46.33
231.415	-35.47
231.632	-34.8
231.848	-35.16
232.065	-24.5
232.281	-28.42
232.498	-16.42
232.714	-9.68
232.931	10.06
233.147	8.23
233.364	5.44
233.58	3.12
233.797	1.06
234.013	1.08
234.23	-2.64
234.446	2.73
234.662	16.29
234.879	9.05
235.095	1.71
235.312	-10.32
235.528	-11.25
235.744	-6.38
235.961	-3.22
236.177	-7.85
236.393	-3.32
236.61	-10.05
236.826	-14.21
237.042	-17.42
237.258	-7.33
237.475	-7.92
237.691	-2.14
237.907	11.24
238.123	5.31
238.339	7.31
238.556	12.5
238.772	8.56
238.988	6.73
239.204	9.8
239.42	10.17
239.636	6.4
239.853	10.84
240.069	9.99
240.285	4.08
240.501	5.8
240.717	9.07
240.933	4.83
241.149	6
241.365	4.57
241.581	4.21
241.797	3.33
242.013	5.62
242.229	4.3
242.445	0.73
242.661	1.03
242.877	-4.77
243.093	-10.63
243.309	-8.68
243.525	-11.73
243.741	5.16
243.957	6.33
244.173	4.49
244.388	4.11
244.604	7.11
244.82	5.62
245.036	7.19
245.252	7.72
245.468	7.52
245.683	6.43
245.899	6.48
246.115	3.51
246.331	2.73
246.547	3.1
246.762	2.21
246.978	0.79
247.194	2.29
247.409	1.61
247.625	1.3
247.841	3.05
248.057	6.03
248.272	4.21
248.488	2.84
248.703	2.65
248.919	5.41
249.135	4.93
249.35	5.58
249.566	4.94
249.782	1.93
249.997	4.81
250.213	3.75
250.428	2.45
250.644	8.79
250.859	5.19
251.075	7.04
251.29	3.22
251.506	7.37
251.721	4.3
251.937	6.19
252.152	9.95
252.368	8.74
252.583	6.81
252.798	10.2
253.014	5.39
253.229	14.91
253.445	10.34
253.66	8.51
253.875	-1.57
254.091	1.55
254.306	-1.69
254.521	0.34
254.737	-8.08
254.952	-3.72
255.167	-10.38
255.383	-6.27
255.598	-7.99
255.813	-8.11
256.028	-10.6
256.244	-4.83
256.459	-5.58
256.674	-5.07
256.889	-10.68
257.104	-2.27
257.32	-2.81
257.535	-4.56
257.75	-4.03
257.965	-2.14
258.18	-0.47
258.395	1.09
258.61	1.21
258.826	1.7
259.041	0.89
259.256	1.32
259.471	0
259.686	0.91
259.901	2.66
260.116	-0.61
260.331	0.28
260.546	0.52
260.761	-1.23
260.976	-0.31
261.191	-0.57
261.406	2.43
261.621	4.57
261.836	6.15
262.05	1.44
262.265	0.84
262.48	7.05
262.695	0.65
262.91	-2.76
263.125	-0.58
263.34	-4.25
263.555	-2.52
263.769	-6.24
263.984	-4.47
264.199	-2.57
264.414	-1.51
264.629	-3.28
264.843	-2.41
265.058	-1.86
265.273	0.62
265.488	2.09
265.702	0.95
265.917	-0.08
266.132	4.73
266.346	6.38
266.561	5.8
266.776	7.21
266.99	6.67
267.205	8.39
267.42	7.98
267.634	8.72
267.849	10.49
268.063	10.18
268.278	9.95
268.492	5.46
268.707	2
268.922	3.06
269.136	4.31
269.351	5.57
269.565	2.99
269.78	1.4
269.994	-0.48
270.209	-3.4
270.423	-2.24
270.637	-1.93
270.852	1.75
271.066	3.29
271.281	1.09
271.495	0.15
271.709	-1.67
271.924	-1.5
272.138	0.38
272.353	1.41
272.567	1.1
272.781	3.32
272.996	3.33
273.21	0.6
273.424	-1.49
273.638	-2.3
273.853	-1.04
274.067	1.66
274.281	0.66
274.495	2.09
274.71	2.04
274.924	0.34
275.138	-0.24
275.352	-0.26
275.566	0.39
275.781	2.09
275.995	5.72
276.209	5.05
276.423	4.59
276.637	4.29
276.851	2.08
277.065	4.32
277.279	9.61
277.493	10.14
277.707	10.03
277.921	11.68
278.135	8.56
278.349	6.85
278.563	3.91
278.777	5.63
278.991	5.66
279.205	6.4
279.419	3.71
279.633	1.75
279.847	-0.78
280.061	-1.87
280.275	-6.28
280.489	-3.11
280.703	-5.19
280.917	-4.05
281.131	-5.02
281.344	-7.1
281.558	-6.31
281.772	-4.74
281.986	-5.4
282.2	-5.33
282.414	-3.78
282.627	-0.61
282.841	-3.01
283.055	0.06
283.269	0.48
283.482	0.51
283.696	3.79
283.91	3.01
284.123	2.52
284.337	1.94
284.551	1.83
284.764	0.44
284.978	-0.5
285.192	1.89
285.405	0.2
285.619	-0.16
285.833	-0.69
286.046	-2.36
286.26	-3.77
286.473	-4.5
286.687	-2.78
286.9	-1.22
287.114	-1.53
287.327	-2.09
287.541	-4.25
287.754	-1.84
287.968	0.48
288.181	1.13
288.395	1.32
288.608	2.64
288.822	1.25
289.035	0.6
289.248	0.35
289.462	2.68
289.675	2.81
289.889	2.45
290.102	-0
290.315	-1.43
290.529	0.54
290.742	2.24
290.955	1.28
291.169	2.93
291.382	3.04
291.595	4.15
291.808	4.65
292.022	4
292.235	4.24
292.448	3.84
292.661	5.46
292.875	1.01
293.088	-1.1
293.301	-0.82
293.514	-1.41
293.727	0.51
293.94	-1.32
294.153	-1.5
294.367	1.07
294.58	0.22
294.793	2.6
295.006	2.65
295.219	3.84
295.432	4.29
295.645	4.71
295.858	4.79
296.071	2.36
296.284	1.34
296.497	3.13
296.71	2.44
296.923	3.52
297.136	0.81
297.349	-0.34
297.562	-1.85
297.775	-3.04
297.988	-0.8
298.201	-1.2
298.414	-0.91
298.626	0.45
298.839	-3.08
299.052	-3.43
299.265	-3.87
299.478	-1.95
299.691	-1.29
299.903	1.04
300.116	3.57
300.329	1.5
300.542	3.45
300.755	3.33
300.967	2.97
301.18	3.38
301.393	4.28
301.605	2.45
301.818	1.45
302.031	0.48
302.243	-0.3
302.456	-0.83
302.669	-1.54
302.881	-1.56
303.094	-2.71
303.307	-1.06
303.519	-1.78
303.732	-4.57
303.944	-4.17
304.157	-3.41
304.37	-2.99
304.582	-4.23
304.795	-4.32
305.007	-4.6
305.22	-6.59
305.432	-4.94
305.645	-6.66
305.857	-7.5
306.069	-8.8
306.282	-6.43
306.494	-5.46
306.707	-6.07
306.919	-3.89
307.132	-3.22
307.344	-4.17
307.556	-2.55
307.769	-2.12
307.981	-1.73
308.193	0.08
308.406	2.57
308.618	0.59
308.83	0.17
309.043	-0.76
309.255	-0.3
309.467	-1.13
309.679	-0.17
309.892	-0.55
310.104	1.9
310.316	3.94
310.528	2.47
310.74	2.61
310.953	5.97
311.165	4.91
311.377	7.6
311.589	4.55
311.801	5.42
312.013	7.5
312.225	7.66
312.437	5.79
312.649	0.46
312.862	2.48
313.074	0.53
313.286	-0.6
313.498	2.59
313.71	2.85
313.922	4.34
314.134	2.13
314.346	2.14
314.558	1.8
314.77	2.18
314.982	6.77
315.193	8.2
315.405	9.89
315.617	8.01
315.829	8.41
316.041	6.43
316.253	8.72
316.465	8.74
316.677	8.72
316.888	7.08
317.1	4.88
317.312	3.26
317.524	1.48
317.736	0.99
317.947	3.04
318.159	2.87
318.371	3.61
318.583	4
318.794	5.57
319.006	3.31
319.218	3.98
319.43	3.97
319.641	4.46
319.853	4.24
320.064	1.56
320.276	0.04
320.488	-1.84
320.699	1.7
320.911	1.98
321.123	2.51
321.334	3.62
321.546	5.73
321.757	6.95
321.969	8.8
322.18	7.67
322.392	10.27
322.603	9.03
322.815	10.38
323.026	6.67
323.238	7.07
323.449	6.69
323.661	7.57
323.872	4.76
324.083	6.48
324.295	6.82
324.506	6.48
324.718	8.07
324.929	7.53
325.14	7.83
325.352	7.57
325.563	7.69
325.774	7.05
325.986	5.94
326.197	7.69
326.408	4.21
326.62	2.74
326.831	3.98
327.042	4.77
327.253	7.53
327.464	7.11
327.676	6.6
327.887	6.93
328.098	7.89
328.309	8.22
328.52	8.73
328.732	12.07
328.943	12.14
329.154	12.11
329.365	7.81
329.576	7.23
329.787	5.85
329.998	8.38
330.209	6.65
330.42	6.59
330.631	9.73
330.842	11.21
331.053	12.97
331.264	15.45
331.475	15.36
331.686	16.59
331.897	15.46
332.108	15.24
332.319	16.07
332.53	16.06
332.741	16.58
332.952	13.45
333.163	11.06
333.374	9.74
333.585	8.58
333.795	10.26
334.006	9.85
334.217	10.34
334.428	10.66
334.639	10.11
334.849	10.36
335.06	7.17
335.271	8.36
335.482	10.07
335.692	9.21
335.903	7.41
336.114	6.66
336.325	6.68
336.535	8.72
336.746	9.79
336.957	11.19
337.167	11.92
337.378	13.72
337.589	12.41
337.799	13.53
338.01	14.02
338.22	15.8
338.431	15.32
338.642	16.35
338.852	13.15
339.063	14.21
339.273	12.07
339.484	11.27
339.694	10.85
339.905	11.15
340.115	10.22
340.326	12.86
340.536	11.86
340.746	11.34
340.957	11.42
341.167	12.3
341.378	10.25
341.588	8.63
341.799	6.95
342.009	8.41
342.219	8.45
342.43	9.1
342.64	6.53
342.85	7.8
343.061	6.85
343.271	5.28
343.481	5.96
343.691	6.66
343.902	6.81
344.112	8.32
344.322	7.25
344.532	8.99
344.743	7.89
344.953	8.11
345.163	9.79
345.373	12.84
345.583	16.2
345.793	16.16
346.004	16.07
346.214	16.94
346.424	16.47
346.634	16.34
346.844	18.1
347.054	18.44
347.264	17.73
347.474	16.86
347.684	15.51
347.894	13.09
348.104	14.49
348.314	12.43
348.524	12.59
348.734	15.04
348.944	15.54
349.154	13.69
349.364	14.72
349.574	16.46
349.784	15.05
349.994	14.84
350.204	15.59
350.413	13.28
350.623	13.6
350.833	13.11
351.043	10.36
351.253	11.34
351.463	10.24
351.672	8.48
351.882	9.11
352.092	11.15
352.302	9.83
352.511	9.93
352.721	11.37
352.931	13.1
353.141	14.47
353.35	15.18
353.56	17.3
353.77	17.82
353.979	16.96
354.189	15.75
354.399	15.37
354.608	18.21
354.818	16.54
355.027	16.3
355.237	15.61
355.447	15.1
355.656	14.67
355.866	11.81
356.075	11.36
356.285	12.53
356.494	12.64
356.704	12.16
356.913	10.54
357.123	13.07
357.332	12.63
357.542	12.75
357.751	12.2
357.96	12.85
358.17	13.75
358.379	13.96
358.589	14.53
358.798	13.96
359.007	14.13
359.217	14.43
359.426	14.77
359.635	14.31
359.845	14.32
360.054	14.04
360.263	12.46
360.472	12.82
360.682	12.29
360.891	12.55
361.1	13.91
361.309	13.33
361.519	11.63
361.728	10.75
361.937	11.22
362.146	11.38
362.355	11.62
362.564	12.69
362.774	13.18
362.983	13.05
363.192	12.39
363.401	10.54
363.61	10.7
363.819	11.6
364.028	10.9
364.237	10.98
364.446	10.71
364.655	10.67
364.864	12.28
365.073	10.15
365.282	9.87
365.491	10.38
365.7	12.37
365.909	12.52
366.118	14.25
366.327	15.67
366.536	16.09
366.745	16.83
366.954	17.52
367.162	16.24
367.371	18.09
367.58	18.86
367.789	18.5
367.998	17.29
368.207	18.26
368.415	17.86
368.624	16.63
368.833	15.73
369.042	15.75
369.25	13.72
369.459	13.65
369.668	10.97
369.877	9.64
370.085	9.34
370.294	9.7
370.503	8.23
370.711	6.99
370.92	6.62
371.129	6.52
371.337	5.9
371.546	8.36
371.754	7.87
371.963	8.39
372.171	9.77
372.38	10.2
372.589	9.64
372.797	10.09
373.006	9.59
373.214	9.85
373.423	10.35
373.631	11.1
373.84	9.76
374.048	10.49
374.256	10.99
374.465	11.11
374.673	11.22
374.882	10.3
375.09	10.51
375.298	11.01
375.507	11.16
375.715	11.64
375.923	10.29
376.132	11.16
376.34	11.15
376.548	11.9
376.757	11.7
376.965	12.06
377.173	12.92
377.381	14.14
377.59	15.54
377.798	15.28
378.006	14.49
378.214	15.8
378.423	16.64
378.631	16
378.839	15.36
379.047	15.76
379.255	14.78
379.463	12.5
379.671	10.58
379.879	10.8
380.088	11.12
380.296	11.99
380.504	11.57
380.712	10.19
380.92	9.61
381.128	9.15
381.336	9.05
381.544	8.92
381.752	11.01
381.96	11.6
382.168	10.1
382.376	10.33
382.584	9.72
382.791	9.84
382.999	9.62
383.207	10.89
383.415	10.87
383.623	11.1
383.831	11.17
384.039	11.5
384.247	11.16
384.454	9.01
384.662	9.56
384.87	10.66
385.078	10.41
385.285	10.8
385.493	10.81
385.701	11.52
385.909	12.6
386.116	11.75
386.324	12.42
386.532	12.58
386.739	14.97
386.947	14.33
387.155	13.57
387.362	12.39
387.57	12.3
387.778	12.23
387.985	11.88
388.193	10.32
388.4	11.39
388.608	11.05
388.816	11.9
389.023	12.32
389.231	12.9
389.438	11.84
389.646	11.38
389.853	11.19
390.061	10.76
390.268	11.46
390.475	11.69
390.683	12.01
390.89	9.88
391.098	9.87
391.305	9.38
391.512	9.68
391.72	10.87
391.927	11.67
392.135	11.62
392.342	11.92
392.549	10.04
392.756	9.93
392.964	9.56
393.171	10.88
393.378	10.3
393.586	9.96
393.793	9.1
394	8.99
394.207	9.4
394.414	9.77
394.622	8.88
394.829	9.26
395.036	10.55
395.243	11.12
395.45	11.36
395.657	11.27
395.864	11.36
396.072	10.34
396.279	9.74
396.486	10.51
396.693	10.61
396.9	10.92
397.107	12.28
397.314	10.1
397.521	8.82
397.728	9.02
397.935	8.44
398.142	8.54
398.349	9.02
398.556	8.42
398.763	6.85
398.97	6.09
399.177	6.36
399.383	6.71
399.59	7.3
399.797	8.26
400.004	8.08
400.211	8.8
400.418	7.85
400.625	7.53
400.831	7.71
401.038	8.26
401.245	9.72
401.452	10.35
401.658	10.19
401.865	10.96
402.072	11.56
402.279	11.04
402.485	10.22
402.692	11.39
402.899	11.51
403.105	12.18
403.312	12.55
403.519	12.23
403.725	12.04
403.932	10.75
404.138	10.94
404.345	9.8
404.552	10.34
404.758	11.03
404.965	10.31
405.171	10.46
405.378	10.47
405.584	10.54
405.791	10.18
405.997	9.69
406.204	10.18
406.41	8.98
406.617	9.63
406.823	10.11
407.029	10.98
407.236	11.83
407.442	12.02
407.649	11.49
407.855	11.51
408.061	11.61
408.268	11.99
408.474	11.17
408.68	12.05
408.887	12.05
409.093	11.09
409.299	9.38
409.505	8.63
409.712	8.61
409.918	9.46
410.124	9.94
410.33	8.28
410.537	8
410.743	8.36
410.949	7.4
411.155	6.64
411.361	7.27
411.567	7.77
411.773	8.61
411.98	8.82
412.186	8.74
412.392	8.12
412.598	9.87
412.804	10.14
413.01	10.78
413.216	11.03
413.422	12.3
413.628	11.69
413.834	11.92
414.04	11.6
414.246	11.13
414.452	10.58
414.658	10.13
414.864	9.18
415.07	8.83
415.275	7.69
415.481	7.02
415.687	6.54
415.893	6.05
416.099	6.84
416.305	7.23
416.511	7.57
416.716	7.46
416.922	7.4
417.128	7.85
417.334	8.11
417.539	8.64
417.745	9.18
417.951	9.31
418.157	10.3
418.362	9.8
418.568	8.89
418.774	8.52
418.979	8.05
419.185	8.8
419.391	8.65
419.596	8.52
419.802	8.29
420.008	8.1
420.213	3.62
420.419	3.24
420.624	2.94
420.83	3.52
421.035	3.14
421.241	4.18
421.446	3.85
421.652	4.07
421.857	3.72
422.063	3.97
422.268	4.25
422.474	8.28
422.679	8.01
422.885	8.09
423.09	7.78
423.295	8.22
423.501	7.73
423.706	7.52
423.911	7.22
424.117	7.23
424.322	7.48
424.527	7.73
424.733	8.03
424.938	8.63
425.143	8.74
425.349	8.91
425.554	8.65
425.759	8.29
425.964	8.77
426.169	9.67
426.375	9.96
426.58	10.13
426.785	9.21
426.99	9.62
427.195	9.32
427.4	9.54
427.605	9.6
427.811	10.12
428.016	10.86
428.221	10.16
428.426	8.86
428.631	9.13
428.836	8.98
429.041	9.13
429.246	9.47
429.451	9.75
429.656	9.21
429.861	8.89
430.066	8.68
430.271	8.39
430.476	8.77
430.681	9.7
430.886	9.33
431.09	9.16
431.295	9.39
431.5	8.59
431.705	8.32
431.91	8.83
432.115	9.6
432.32	9.29
432.524	10.2
432.729	10.04
432.934	9.55
433.139	10.05
433.343	10.32
433.548	10.19
433.753	10.01
433.958	9.75
434.162	9.42
434.367	8.8
434.572	8.99
434.776	8.13
434.981	7.72
435.186	7.14
435.39	6.94
435.595	7.16
435.799	7.54
436.004	7.79
436.209	8.25
436.413	8.83
436.618	8.7
436.822	8.63
437.027	8.08
437.231	8.46
437.436	8.61
437.64	8.69
437.845	8.35
438.049	8.55
438.253	8.54
438.458	8.38
438.662	8.21
438.867	8.02
439.071	8.5
439.275	8.77
439.48	8.44
439.684	8.7
439.888	8.76
440.093	8.65
440.297	8.41
440.501	8.67
440.706	8.65
440.91	8.54
441.114	8.85
441.318	8.86
441.523	8.26
441.727	8.86
441.931	8.98
442.135	8.42
442.339	9.16
442.543	9.08
442.748	9.16
442.952	9.02
443.156	9
443.36	9.02
443.564	8.78
443.768	9.31
443.972	9.39
444.176	9.04
444.38	9.31
444.584	9.29
444.788	9.46
444.992	8.76
445.196	8.42
445.4	8.32
445.604	7.95
445.808	7.58
446.012	7.74
446.216	7.33
446.42	7.58
446.624	7.69
446.828	7.08
447.032	7.11
447.235	7.54
447.439	7.54
447.643	7.92
447.847	7.95
448.051	8.64
448.254	8.45
448.458	8.08
448.662	8.68
448.866	8.29
449.069	8.06
449.273	7.69
449.477	7.49
449.681	8.74
449.884	8.51
450.088	8.97
450.292	9.2
450.495	9.71
450.699	10.56
450.902	9.81
451.106	9.91
451.31	10.24
451.513	10.71
451.717	11.26
451.92	10.41
452.124	9.9
452.327	9.98
452.531	8.92
452.734	8.56
452.938	7.9
453.141	7.94
453.345	8.65
453.548	8.4
453.752	7.87
453.955	7.69
454.158	7.72
454.362	7.99
454.565	7.52
454.769	8.06
454.972	8.09
455.175	8.02
455.379	8.04
455.582	6.93
455.785	7.05
455.988	7.11
456.192	7.59
456.395	8.09
456.598	8.11
456.801	8.26
457.005	8.61
457.208	7.99
457.411	8.27
457.614	8.43
457.817	9.25
458.021	9.34
458.224	9.34
458.427	9.14
458.63	9.17
458.833	9.03
459.036	9.23
459.239	9.07
459.442	9.56
459.645	9.55
459.848	9.53
460.051	9.05
460.254	9.1
460.457	8.8
460.66	8.31
460.863	8.09
461.066	8.48
461.269	8.53
461.472	7.96
461.675	7.61
461.878	7.8
462.081	7.9
462.284	7.67
462.486	7.14
462.689	7.5
462.892	8
463.095	8.04
463.298	8.3
463.5	7.78
463.703	7.98
463.906	8.34
464.109	8.85
464.311	8.52
464.514	8.86
464.717	9.3
464.92	9.46
465.122	9.11
465.325	8.96
465.528	8.86
465.73	8.7
465.933	9.27
466.135	9.41
466.338	8.58
466.541	8.35
466.743	8.02
466.946	7.92
467.148	7.71
467.351	7.7
467.553	7.29
467.756	6.62
467.958	7.09
468.161	7.05
468.363	7.37
468.566	8.02
468.768	8.64
468.971	8.75
469.173	8.69
469.375	8.68
469.578	8.83
469.78	9.37
469.983	9.68
470.185	9.75
470.387	9.45
470.59	8.7
470.792	8.39
470.994	8.28
471.196	8.53
471.399	9.24
471.601	9.51
471.803	9.2
472.005	9.23
472.208	8.86
472.41	8.76
472.612	8.82
472.814	8.83
473.016	9.33
473.218	9.12
473.421	8.44
473.623	8.2
473.825	8.1
474.027	8.45
474.229	8.11
474.431	8.05
474.633	8.31
474.835	8.79
475.037	8.93
475.239	8.53
475.441	8.36
475.643	8.46
475.845	8.19
476.047	8.1
476.249	7.82
476.451	7.68
476.653	8.37
476.855	8.55
477.057	8.24
477.258	8.14
477.46	8.57
477.662	8.69
477.864	8.88
478.066	9.44
478.268	9.35
478.469	9.53
478.671	10.21
478.873	9.98
479.075	9.62
479.276	9.5
479.478	9.22
479.68	9.15
479.882	8.92
480.083	8.87
480.285	8.67
480.487	9.08
480.688	8.63
480.89	8.35
481.091	8.2
481.293	8.36
481.495	8.42
481.696	8.67
481.898	8.59
482.099	8.65
482.301	8.64
482.502	8.57
482.704	8.34
482.905	8.58
483.107	8.55
483.308	8.55
483.51	8.47
483.711	8.43
483.913	8.31
484.114	8.09
484.315	8.19
484.517	8.26
484.718	8
484.92	7.92
485.121	7.78
485.322	7.81
485.524	7.91
485.725	7.95
485.926	7.93
486.127	7.98
486.329	8.02
486.53	7.94
486.731	8.06
486.932	8.4
487.134	8.5
487.335	8.42
487.536	8.69
487.737	8.57
487.938	8.63
488.139	8.71
488.341	8.63
488.542	8.72
488.743	8.66
488.944	8.58
489.145	8.35
489.346	8.57
489.547	8.72
489.748	8.47
489.949	8.63
490.15	8.43
490.351	8.55
490.552	8.65
490.753	8.46
490.954	8.59
491.155	8.47
491.356	8.37
491.557	8.3
491.758	8.47
491.959	8.25
492.159	8.05
492.36	8.27
492.561	8.09
492.762	7.95
492.963	8.29
493.164	8.19
493.364	8.32
493.565	8.27
493.766	8.17
493.967	7.85
494.167	7.79
494.368	7.69
494.569	7.1
494.769	7.09
494.97	7.18
495.171	7.32
495.371	7.75
495.572	7.5
495.773	7.74
495.973	7.93
496.174	8.06
496.375	8.41
496.575	8.63
496.776	9.13
496.976	8.67
497.177	8.84
497.377	8.86
497.578	8.16
497.778	8.42
497.979	8.39
498.179	8.37
498.38	8.02
498.58	7.64
498.78	7.67
498.981	7.76
499.181	8.01
499.382	8.31
499.582	7.93
499.782	8.24
499.983	8.35
500.183	8.71
500.383	8.95
500.584	9.77
500.784	9.97
500.984	10.09
501.184	9.81
501.385	10.26
501.585	9.99
501.785	10.07
501.985	10.39
502.185	10.68
502.386	10.51
502.586	10.46
502.786	9.77
502.986	10.21
503.186	10.22
503.386	10.46
503.586	10.07
503.786	9.63
503.987	9.99
504.187	9.5
504.387	9.16
504.587	9.12
504.787	8.94
504.987	9.27
505.187	9.17
505.387	8.77
505.587	8.74
505.786	9.03
505.986	9.21
506.186	9.2
506.386	9.26
506.586	8.95
506.786	9.14
506.986	8.86
507.186	8.89
507.386	9.07
507.585	9.75
507.785	9.94
507.985	9.77
508.185	10.08
508.384	9.91
508.584	10.58
508.784	10.78
508.984	10.97
509.183	11.63
509.383	11.29
509.583	10.93
509.782	10.84
509.982	10.78
510.182	11.19
510.381	11.34
510.581	11.29
510.781	11.03
510.98	11.38
511.18	10.8
511.379	10.35
511.579	10.62
511.778	10.78
511.978	10.5
512.177	10.66
512.377	10.54
512.576	10.27
512.776	10.45
512.975	10.76
513.175	10.43
513.374	10.51
513.573	10.58
513.773	10.41
513.972	10.45
514.172	10.76
514.371	10.82
514.57	10.64
514.77	10.79
514.969	11.15
515.168	10.54
515.367	10.59
515.567	11.19
515.766	11.01
515.965	11.34
516.164	11.44
516.364	11.47
516.563	11.39
516.762	11.7
516.961	11.66
517.16	11.02
517.359	11.24
517.559	11.26
517.758	10.72
517.957	10.92
518.156	11.16
518.355	11.4
518.554	11.28
518.753	11.41
518.952	11.12
519.151	11.11
519.35	12
519.549	12.33
519.748	12.59
519.947	13.15
520.146	13.5
520.345	13.74
520.544	13.57
520.743	13.74
520.942	13.4
521.141	13.81
521.339	14.18
521.538	13.92
521.737	14.38
521.936	14.28
522.135	14.33
522.333	13.92
522.532	13.38
522.731	13.36
522.93	12.96
523.129	13.17
523.327	13.2
523.526	13.27
523.725	13.16
523.923	12.99
524.122	13.16
524.321	13.1
524.519	13.45
524.718	13.51
524.917	13.55
525.115	14.16
525.314	14.04
525.512	14.04
525.711	13.92
525.909	13.82
526.108	13.39
526.306	13.49
526.505	13.64
526.703	13.6
526.902	13.5
527.1	13.45
527.299	13.35
527.497	13.46
527.696	13.37
527.894	13.52
528.092	13.61
528.291	13.69
528.489	13.87
528.688	13.77
528.886	13.78
529.084	14.02
529.283	14.08
529.481	14.24
529.679	14.56
529.877	14.77
530.076	14.88
530.274	15.12
530.472	15.29
530.67	14.99
530.869	15
531.067	15.17
531.265	15.36
531.463	15.56
531.661	15.66
531.859	15.47
532.057	15.62
532.255	15.67
532.454	15.66
532.652	15.89
532.85	15.99
533.048	16.2
533.246	16.43
533.444	16.43
533.642	16.51
533.84	16.43
534.038	16.56
534.236	16.24
534.434	16.5
534.632	16.7
534.83	16.64
535.027	16.94
535.225	16.92
535.423	17
535.621	17.08
535.819	17.27
536.017	17.31
536.215	17.65
536.412	18.17
536.61	17.92
536.808	18
537.006	18.22
537.203	17.97
537.401	18.05
537.599	18.12
537.797	18.06
537.994	17.76
538.192	17.98
538.39	18.03
538.587	18.07
538.785	18.15
538.983	17.91
539.18	17.79
539.378	17.83
539.575	17.89
539.773	17.33
539.97	17.12
540.168	17.51
540.366	17.22
540.563	17.03
540.761	17
540.958	16.82
541.155	16.95
541.353	17.16
541.55	17.07
541.748	17.29
541.945	17.97
542.143	18.28
542.34	18.13
542.537	18.6
542.735	18.61
542.932	18.6
543.129	19.06
543.327	19.09
543.524	19.2
543.721	19.39
543.919	19.11
544.116	18.73
544.313	18.8
544.51	18.88
544.708	19
544.905	19.04
545.102	19.32
545.299	19.14
545.496	19.06
545.693	19
545.891	19.14
546.088	19.66
546.285	20.04
546.482	20.17
546.679	19.98
546.876	19.98
547.073	20.51
547.27	20.36
547.467	20.17
547.664	20.1
547.861	19.59
548.058	19.85
548.255	19.49
548.452	19.24
548.649	19.18
548.846	19.99
549.043	20.49
549.24	20.3
549.437	20.29
549.633	20.35
549.83	20.92
550.027	21.81
550.224	21.71
550.421	22.2
550.618	22.24
550.814	22.62
551.011	22.37
551.208	21.44
551.405	21.39
551.601	20.89
551.798	21.75
551.995	21.76
552.191	21.65
552.388	21.37
552.585	20.63
552.781	20.87
552.978	20.27
553.175	20.19
553.371	20.68
553.568	20.62
553.764	21.21
553.961	20.66
554.157	20.57
554.354	21.01
554.55	20.97
554.747	21.67
554.943	21.21
555.14	21.57
555.336	21.92
555.533	21.38
555.729	21.58
555.926	21.4
556.122	22.2
556.318	22.9
556.515	22.32
556.711	23.39
556.907	23.55
557.104	24.28
557.3	24.57
557.496	24.47
557.693	24.82
557.889	25.02
558.085	25.56
558.281	24.72
558.478	24.82
558.674	25.29
558.87	24.82
559.066	24.27
559.262	23.86
559.459	24.37
559.655	24.29
559.851	23.89
560.047	24.54
560.243	24.4
560.439	24.62
560.635	23.71
560.831	23.42
561.027	23.27
561.223	23.66
561.419	23.69
561.615	23.39
561.811	23.63
562.007	23.74
562.203	22.81
562.399	22.86
562.595	22.91
562.791	23.33
562.987	23.37
563.183	23.9
563.379	23.76
563.575	23.32
563.771	23.08
563.966	22.82
564.162	23.1
564.358	23.22
564.554	23.17
564.75	23.5
564.945	23.24
565.141	23.44
565.337	23.14
565.533	24.05
565.728	24.49
565.924	24.22
566.12	25.01
566.315	25.06
566.511	25.49
566.707	25.64
566.902	26.19
567.098	26.1
567.293	25.85
567.489	26
567.684	25.72
567.88	25.61
568.076	25.73
568.271	25.15
568.467	24.98
568.662	24.35
568.858	23.87
569.053	22.87
569.248	23.31
569.444	23.11
569.639	22.91
569.835	21.96
570.03	21.95
570.225	22.07
570.421	21.98
570.616	22.23
570.812	22.4
571.007	22.85
571.202	23.37
571.397	23.7
571.593	24.09
571.788	24.32
571.983	24.16
572.178	24.55
572.374	24.71
572.569	25
572.764	25.57
572.959	25.23
573.154	25.39
573.35	25.02
573.545	24.76
573.74	24.38
573.935	24.36
574.13	25.03
574.325	25.26
574.52	25.31
574.715	25.09
574.91	24.82
575.105	25.65
575.3	25.44
575.495	26.22
575.69	26.4
575.885	27.19
576.08	27.53
576.275	27.58
576.47	27.48
576.665	27.83
576.86	28.25
577.055	28.47
577.25	27.66
577.444	27.79
577.639	27.39
577.834	27.32
578.029	27.36
578.224	26.45
578.418	26.61
578.613	25.93
578.808	25.61
579.003	25.1
579.197	25
579.392	25.69
579.587	26.38
579.781	26.19
579.976	26.46
580.171	25.45
580.365	26.12
580.56	26.21
580.755	27.46
580.949	27.89
581.144	27.84
581.338	27.23
581.533	27.38
581.727	27.21
581.922	27.27
582.116	27.24
582.311	27.81
582.505	27.55
582.7	27.81
582.894	27.37
583.089	28.11
583.283	28.38
583.478	28.4
583.672	28.29
583.866	28.91
584.061	28.75
584.255	29.21
584.449	29.25
584.644	30.47
584.838	30.35
585.032	29.95
585.226	29.73
585.421	29.99
585.615	30.4
585.809	30.42
586.003	29.46
586.198	29.63
586.392	29.04
586.586	28.53
586.78	28.01
586.974	28.07
587.168	28.78
587.363	27.68
587.557	26.85
587.751	26.65
587.945	26.19
588.139	26.06
588.333	25.89
588.527	25.79
588.721	26.08
588.915	25.33
589.109	24.91
589.303	24.65
589.497	24.51
589.691	25.14
589.885	25.02
590.079	25.41
590.273	25.93
590.466	26.65
590.66	26.69
590.854	27.15
591.048	28.01
591.242	28.49
591.436	28.04
591.629	28.59
591.823	28.47
592.017	29.34
592.211	29.71
592.404	29.18
592.598	28.19
592.792	27.91
592.986	27.19
593.179	27.25
593.373	27.28
593.567	27.5
593.76	27.53
593.954	27.44
594.147	26.79
594.341	26.45
594.535	27.25
594.728	27.26
594.922	27.61
595.115	28.07
595.309	27.51
595.502	27.45
595.696	27.58
595.889	27.92
596.083	27.9
596.276	27.91
596.47	27.91
596.663	27.53
596.856	28.22
597.05	28.38
597.243	28.67
597.437	29.69
597.63	29.8
597.823	29.81
598.017	29.35
598.21	30.02
598.403	30.68
598.596	30.66
598.79	31.09
598.983	31.1
599.176	31.19
599.369	31.57
599.563	30.9
599.756	31.4
599.949	31.34
600.142	31.27
600.335	30.31
600.528	30.65
600.722	30.75
600.915	29.91
601.108	29.66
601.301	30.08
601.494	29.21
601.687	29.34
601.88	28.37
602.073	28.31
602.266	28.83
602.459	28.28
602.652	27.76
602.845	27.97
603.038	28.7
603.231	28.62
603.424	27.73
603.617	27.67
603.809	27.21
604.002	27.09
604.195	27.21
604.388	26.86
604.581	28.31
604.774	27.94
604.966	27.68
605.159	27.02
605.352	26.71
605.545	26.8
605.737	27.36
605.93	27.86
606.123	28.63
606.316	28.56
606.508	29.19
606.701	28.68
606.894	29.24
607.086	28.98
607.279	28.88
607.471	29.55
607.664	30.09
607.857	30.21
608.049	29.95
608.242	29.66
608.434	29.53
608.627	28.91
608.819	29.08
609.012	29.44
609.204	29.33
609.397	29.5
609.589	29.53
609.782	29.13
609.974	29.16
610.166	28.95
610.359	29.3
610.551	30.13
610.743	29.53
610.936	29.14
611.128	28.85
611.32	29.63
611.513	29.45
611.705	28.7
611.897	28.72
612.09	28.4
612.282	28.96
612.474	29.41
612.666	28.63
612.858	29.81
613.051	30.05
613.243	29.27
613.435	28.57
613.627	29.01
613.819	29.55
614.011	30.27
614.203	30.19
614.395	30.69
614.588	30.11
614.78	32.13
614.972	31.31
615.164	31.41
615.356	31.78
615.548	32.09
615.74	31.43
615.932	30.97
616.124	30.81
616.315	31.15
616.507	31.46
616.699	31.57
616.891	30.3
617.083	32.08
617.275	31.84
617.467	31.8
617.659	32.04
617.85	32.79
618.042	33.43
618.234	33.35
618.426	32.6
618.618	31.99
618.809	31.34
619.001	31.28
619.193	30.98
619.384	30.52
619.576	30.13
619.768	30.17
619.959	29.77
620.151	28.85
620.343	28.57
620.534	28.72
620.726	29.11
620.917	29.18
621.109	28.61
621.301	27.77
621.492	28.86
621.684	30.26
621.875	30.91
622.067	30.85
622.258	31.23
622.45	31.47
622.641	31.25
622.832	30.5
623.024	30.93
623.215	30.99
623.407	31.17
623.598	30.89
623.789	30.26
623.981	30.1
624.172	30.31
624.363	31.08
624.555	31.2
624.746	31.94
624.937	32.32
625.129	31.8
625.32	31.47
625.511	30.84
625.702	30.42
625.893	30.52
626.085	30.08
626.276	30.32
626.467	30.11
626.658	29.78
626.849	29.16
627.04	29.48
627.231	30.55
627.422	31.21
627.614	32.42
627.805	32.2
627.996	32.3
628.187	32.13
628.378	32.03
628.569	31.72
628.76	32.43
628.951	33.04
629.142	32.03
629.332	31.59
629.523	31.32
629.714	30.24
629.905	30.97
630.096	31.02
630.287	31.85
630.478	31.6
630.669	32.61
630.859	32.24
631.05	31.12
631.241	31.67
631.432	31.81
631.623	32.42
631.813	32.2
632.004	31.67
632.195	31.2
632.385	31.04
632.576	32
632.767	31.09
632.957	31.24
633.148	31.35
633.339	31.69
633.529	31.42
633.72	30.77
633.91	31.56
634.101	31.91
634.292	32.02
634.482	31.57
634.673	30.77
634.863	31.45
635.054	31.65
635.244	32.58
635.435	32.44
635.625	32.48
635.815	31.9
636.006	31.03
636.196	30.48
636.387	30.97
636.577	31.47
636.767	31.3
636.958	31.37
637.148	31
637.338	30.41
637.529	30.34
637.719	30.86
637.909	31.66
638.099	31.98
638.29	31.98
638.48	30.77
638.67	31.04
638.86	31.36
639.05	30.06
639.241	29.92
639.431	30.19
639.621	30.38
639.811	30.3
640.001	31.08
640.191	33.72
640.381	35.33
640.571	37.13
640.761	36.98
640.951	37.82
641.141	39.42
641.331	39.91
641.521	40.02
641.711	40.04
641.901	39.58
642.091	38.78
642.281	36.15
642.471	34.33
642.661	32.76
642.851	33.07
643.041	31.75
643.231	32.87
643.42	32.19
643.61	32.68
643.8	32.06
643.99	31.88
644.18	31.67
644.369	31.37
644.559	31.89
644.749	31.28
644.939	30.25
645.128	30.63
645.318	28.73
645.508	28.73
645.697	29.45
645.887	29.36
646.076	30.28
646.266	29.93
646.456	31.25
646.645	32.85
646.835	34.37
647.024	34.2
647.214	34.48
647.403	34.17
647.593	34.48
647.782	33.26
647.972	34.52
648.161	33.64
648.351	34.72
648.54	34.29
648.73	33.65
648.919	33.56
649.108	34.19
649.298	33.21
649.487	32.72
649.677	32.04
649.866	32.02
650.055	31.19
650.244	31.95
650.434	31.69
650.623	32.05
650.812	32.03
651.002	32.37
651.191	31.63
651.38	33.05
651.569	34.4
651.758	35.78
651.947	36.19
652.137	35.52
652.326	35.85
652.515	35.74
652.704	36.41
652.893	36.38
653.082	35.98
653.271	37.4
653.46	35.72
653.649	35.23
653.838	35.1
654.027	34.69
654.216	34.07
654.405	33.42
654.594	33.27
654.783	33.18
654.972	33.07
655.161	34.56
655.35	33.34
655.539	34.65
655.728	35.29
655.916	33.78
656.105	33.71
656.294	34.08
656.483	34.2
656.672	33.39
656.86	32.27
657.049	32.16
657.238	30.41
657.427	31.67
657.615	31.69
657.804	31.63
657.993	32.44
658.181	32.86
658.37	33.68
658.559	32.7
658.747	33.49
658.936	33.54
659.125	31.46
659.313	31.78
659.502	30.54
659.69	29.24
659.879	28.75
660.067	28.26
660.256	27.75
660.444	28.43
660.633	29.39
660.821	29.29
661.01	30.36
661.198	34.32
661.387	35.14
661.575	36.37
661.763	37.77
661.952	36.46
662.14	37.65
662.328	38.65
662.517	38.53
662.705	39.4
662.893	39.88
663.082	39.63
663.27	38.4
663.458	37.94
663.646	37.75
663.834	37.58
664.023	39.64
664.211	40.43
664.399	41.03
664.587	40.75
664.775	40.29
664.963	40.87
665.152	38.97
665.34	39.65
665.528	39.4
665.716	39.89
665.904	40.89
666.092	40.27
666.28	39.21
666.468	38.4
666.656	37.03
666.844	37.53
667.032	35.77
667.22	36.94
667.408	36.19
667.596	37.07
667.784	36.21
667.971	34.42
668.159	33.72
668.347	34.12
668.535	34.49
668.723	36.2
668.911	35.86
669.098	36.62
669.286	37.23
669.474	38.51
669.662	38.24
669.849	37.87
670.037	37.71
670.225	38.04
670.413	36.41
670.6	36.69
670.788	34.47
670.976	33.09
671.163	33.96
671.351	32.91
671.538	31.22
671.726	30.57
671.913	30.01
672.101	31.67
672.289	32.99
672.476	34.06
672.664	33.6
672.851	35.08
673.039	37.05
673.226	36.03
673.413	35.87
673.601	36.63
673.788	36.15
673.976	36.77
674.163	36.48
674.35	36.34
674.538	37.26
674.725	37.46
674.912	37.36
675.1	35.69
675.287	36.64
675.474	36.54
675.662	37.04
675.849	36.59
676.036	37.45
676.223	36.47
676.411	36.44
676.598	35.71
676.785	34.85
676.972	33.85
677.159	33.62
677.346	32.84
677.533	34.09
677.721	33.85
677.908	35.03
678.095	35.44
678.282	35.94
678.469	35.48
678.656	33.78
678.843	33.72
679.03	34.3
679.217	35.88
679.404	35.78
679.591	35.22
679.778	35.03
679.964	34.89
680.151	35.05
680.338	35.31
680.525	35.28
680.712	37.87
680.899	38.08
681.086	37.81
681.272	37.18
681.459	36.52
681.646	37.6
681.833	37.24
682.02	36.66
682.206	35.91
682.393	35.79
682.58	36.25
682.766	33.9
682.953	34.04
683.14	34.84
683.326	33.89
683.513	34.68
683.7	33.83
683.886	33
684.073	32.3
684.259	30.27
684.446	29.97
684.632	29.02
684.819	29.91
685.005	29.57
685.192	27.78
685.378	28.11
685.565	29.21
685.751	29.38
685.938	29.97
686.124	30.62
686.31	31.71
686.497	32.1
686.683	33.14
686.87	33.6
687.056	32.36
687.242	32.41
687.429	31.37
687.615	30.75
687.801	31.01
687.987	32.3
688.174	32.39
688.36	33.9
688.546	34.71
688.732	34.46
688.918	34.27
689.105	34.42
689.291	35.57
689.477	36.7
689.663	37.8
689.849	36.03
690.035	33.98
690.221	35.03
690.407	35.12
690.593	34.11
690.779	34.52
690.965	33.31
691.151	35.27
691.337	35.11
691.523	33.19
691.709	30.34
691.895	32.64
692.081	33.27
692.267	32.32
692.453	32.12
692.639	31.89
692.825	29.48
693.011	31.97
693.196	32.88
693.382	33.43
693.568	34.75
693.754	35.48
693.94	35.26
694.125	36
694.311	35.49
694.497	35.2
694.682	36.4
694.868	37.38
695.054	35.12
695.239	32.42
695.425	32.11
695.611	32.76
695.796	32.84
695.982	33.11
696.168	32.64
696.353	33.68
696.539	33.86
696.724	32.81
696.91	32.2
697.095	33.87
697.281	34.43
697.466	34.02
697.652	34.19
697.837	35.51
698.023	33.86
698.208	33.89
698.393	33.96
698.579	34.02
698.764	34.97
698.949	36
699.135	35.35
699.32	35.05
699.505	35.86
699.691	35.01
699.876	34.68
700.061	34.42
700.246	35.42
700.432	36.68
700.617	35.39
700.802	35.16
700.987	35.06
701.172	35.42
701.358	34.91
701.543	35.74
701.728	36.71
701.913	36.03
702.098	38.58
702.283	38.44
702.468	36.59
702.653	39.71
702.838	40.16
703.023	40.07
703.208	38.08
703.393	38.81
703.578	38.05
703.763	38.23
703.948	38.23
704.133	38.11
704.318	38.39
704.503	39.35
704.688	37.76
704.873	35.51
705.057	35.07
705.242	36
705.427	38.17
705.612	37.61
705.797	37.28
705.981	35.71
706.166	36.83
706.351	34.65
706.536	34.88
706.72	34.16
706.905	36.42
707.09	38.15
707.274	39.65
707.459	39.44
707.644	40.69
707.828	41.89
708.013	43.06
708.197	42.32
708.382	45.31
708.567	44.55
708.751	46.49
708.936	47.19
709.12	46.97
709.305	46.84
709.489	46.45
709.673	45.72
709.858	45.93
710.042	48.06
710.227	47.11
710.411	44.89
710.596	46.89
710.78	45.89
710.964	44.44
711.149	42.09
711.333	40.64
711.517	41.9
711.702	44.04
711.886	43.8
712.07	44.28
712.254	44.65
712.438	46.91
712.623	43.08
712.807	43.25
712.991	44.03
713.175	48.11
713.359	47.93
713.544	46.42
713.728	44.37
713.912	43.11
714.096	41.13
714.28	42.55
714.464	41.73
714.648	42.17
714.832	40.98
715.016	40.39
715.2	37.45
715.384	38.68
715.568	39.57
715.752	38.83
715.936	38.75
716.12	38.5
716.304	36.46
716.488	35.67
716.671	37.62
716.855	37.79
717.039	39.1
717.223	38.57
717.407	37.59
717.59	38.1
717.774	36.45
717.958	37.21
718.142	37.93
718.325	36.98
718.509	36.03
718.693	34.56
718.877	37.59
719.06	35.5
719.244	34.9
719.428	36.74
719.611	32.86
719.795	38.02
719.978	39.29
720.162	38.08
720.345	42.35
720.529	42.7
720.713	43.92
720.896	38.04
721.08	38.39
721.263	38.21
721.446	34.88
721.63	35.12
721.813	31.94
721.997	30.71
722.18	29.51
722.364	27.46
722.547	28.22
722.73	25.09
722.914	29.53
723.097	30.05
723.28	32.09
723.464	33
723.647	32.83
723.83	32.05
724.013	32.79
724.197	35.1
724.38	33.37
724.563	30.62
724.746	31.43
724.929	28.63
725.112	26.28
725.296	26.04
725.479	26.45
725.662	27.33
725.845	30.17
726.028	29.7
726.211	27.45
726.394	29.26
726.577	33.95
726.76	36.76
726.943	36.48
727.126	40.72
727.309	42.21
727.492	42.74
727.675	42.45
727.858	41.19
728.041	42.41
728.224	44.74
728.407	43.44
728.589	41.86
728.772	40.56
728.955	42.05
729.138	40.75
729.321	39.17
729.503	38.85
729.686	41.13
729.869	40.85
730.052	41.61
730.234	41.56
730.417	40.22
730.6	38.01
730.782	35.92
730.965	37.55
731.148	35.68
731.33	34.38
731.513	35
731.695	31.64
731.878	33.68
732.061	32.64
732.243	34.06
732.426	37.32
732.608	37.47
732.791	39.54
732.973	37.28
733.156	36.91
733.338	38.11
733.52	38.48
733.703	40.53
733.885	40.16
734.068	40.18
734.25	40.36
734.432	40.32
734.615	42.3
734.797	43.57
734.979	43.72
735.162	47.74
735.344	50.71
735.526	48.85
735.708	50.2
735.891	51.21
736.073	53.73
736.255	48.98
736.437	48.75
736.619	46.13
736.802	48.69
736.984	51.33
737.166	51.86
737.348	48.97
737.53	49.08
737.712	48.68
737.894	46.73
738.076	45.06
738.258	49.04
738.44	49.24
738.622	53.33
738.804	47.94
738.986	46.76
739.168	46.14
739.35	47.9
739.532	49.16
739.714	48.03
739.896	48.09
740.078	47.92
740.259	46.22
740.441	45.58
740.623	45.64
740.805	47.64
740.987	47.47
741.168	44.4
741.35	47.81
741.532	47.94
741.714	48.83
741.895	46.04
742.077	44.98
742.259	45.44
742.44	48.88
742.622	48.72
742.804	52.43
742.985	55.52
743.167	57.15
743.348	56.41
743.53	56.97
743.711	59.94
743.893	67.81
744.075	67.95
744.256	68.4
744.438	65.52
744.619	63.09
744.8	59.76
744.982	55.84
745.163	55.02
745.345	50.92
745.526	54.17
745.707	54.45
745.889	50.52
746.07	49.62
746.252	48.47
746.433	49.26
746.614	53.49
746.795	54.08
746.977	56.87
747.158	57.05
747.339	58.09
747.52	58.78
747.702	58.75
747.883	59.69
748.064	61.67
748.245	64.28
748.426	63.6
748.607	58.72
748.788	62.17
748.97	62.66
749.151	65.06
749.332	67.55
749.513	64.89
749.694	64.33
749.875	61.54
750.056	60.3
750.237	55.15
750.418	54.75
750.599	58.27
750.78	53.79
750.96	56.93
751.141	51.69
751.322	48.27
751.503	51.62
751.684	50
751.865	51.82
752.046	54.53
752.226	56.98
752.407	53.63
752.588	53.42
752.769	52.77
752.949	46.65
753.13	50.92
753.311	54.51
753.492	50.57
753.672	53.67
753.853	51
754.034	46.1
754.214	45.53
754.395	50.87
754.575	52.13
754.756	54.8
754.937	59.47
755.117	56.65
755.298	55.41
755.478	54.97
755.659	53.29
755.839	51.81
756.02	57.59
756.2	58.67
756.381	54.54
756.561	50.88
756.741	49.58
756.922	46.57
757.102	50.15
757.283	47.99
757.463	50.22
757.643	48.33
757.823	49.3
758.004	43.64
758.184	42.13
758.364	43.57
758.545	42.15
758.725	40.25
758.905	37.79
759.085	33.4
759.265	31.84
759.446	28
759.626	30.67
759.806	27.85
759.986	32.04
760.166	28.6
760.346	25.11
760.526	29.81
760.706	29.15
760.886	31.45
761.066	29.68
761.246	29.1
761.426	29.69
761.606	28.7
761.786	30.87
761.966	28.81
762.146	30.07
762.326	31.38
762.506	29.08
762.686	28.91
762.866	28.59
763.046	30.91
763.225	32.38
763.405	33.31
763.585	32.77
763.765	31.64
763.945	33.63
764.124	36.09
764.304	39.18
764.484	41.85
764.664	42.07
764.843	43.93
765.023	45.18
765.203	49.14
765.382	51.73
765.562	50.52
765.741	56.35
765.921	54.49
766.101	58.61
766.28	58.91
766.46	60.01
766.639	61.93
766.819	63.49
766.998	67.71
767.178	63.9
767.357	62.2
767.537	63.29
767.716	57.51
767.896	60.3
768.075	56.81
768.254	52.02
768.434	50.93
768.613	52.35
768.792	51.69
768.972	51.36
769.151	55.89
769.33	59.17
769.51	61.85
769.689	70.27
769.868	66.76
770.047	65.45
770.226	73.78
770.406	77.81
770.585	82.52
770.764	83.94
770.943	84.78
771.122	77.57
771.301	76.86
771.48	79.81
771.66	76.11
771.839	80.89
772.018	88.34
772.197	83.45
772.376	85.24
772.555	77.67
772.734	69.37
772.913	58.82
773.092	63.36
773.271	63.89
773.449	59.12
773.628	62.08
773.807	62.92
773.986	54.88
774.165	56.85
774.344	49.93
774.523	58.07
774.701	55.89
774.88	62.16
775.059	66.54
775.238	70.57
775.417	77.23
775.595	77.5
775.774	71.27
775.953	72.8
776.131	72.72
776.31	68.45
776.489	66.76
776.667	73.6
776.846	71.13
777.025	67.5
777.203	66.73
777.382	62.74
777.56	64.41
777.739	67.55
777.917	63.61
778.096	60.75
778.274	66.86
778.453	68.44
778.631	63.4
778.81	67.92
778.988	65.46
779.166	62.89
779.345	51.57
779.523	49.09
779.702	46.29
779.88	51.59
780.058	55.28
780.237	57.02
780.415	56.61
780.593	59.5
780.771	62.64
780.95	61.07
781.128	58.7
781.306	65.47
781.484	72.36
781.662	71.28
781.841	71.32
782.019	72.11
782.197	69.77
782.375	72.73
782.553	73.94
782.731	68.32
782.909	73.58
783.087	75.62
783.265	73.61
783.443	64.34
783.621	61.19
783.799	57.23
783.977	53.63
784.155	52.43
784.333	46.98
784.511	46.97
784.689	43.54
784.867	47.98
785.045	42.79
785.223	42.96
785.4	44.38
785.578	56.04
785.756	66.38
785.934	62.33
786.112	62.43
786.289	62.57
786.467	59.76
786.645	62.33
786.823	65.71
787	69.07
787.178	68.6
787.356	66.47
787.533	55.97
787.711	51.35
787.889	49.08
788.066	53.44
788.244	52.75
788.421	59.56
788.599	58.24
788.776	50.93
788.954	53.9
789.131	58.01
789.309	61.02
789.486	67.25
789.664	64.64
789.841	69.22
790.019	64.1
790.196	71
790.373	64.79
790.551	77.14
790.728	66.54
790.906	64.36
791.083	75.54
791.26	58.68
791.437	62.53
791.615	65
791.792	61.85
791.969	65.76
792.146	62.82
792.324	65.98
792.501	53.86
792.678	69.45
792.855	53.2
793.032	40.57
793.209	48.72
793.387	43.11
793.564	33.64
793.741	41.47
793.918	44.78
794.095	54.51
794.272	53.9
794.449	53.29
794.626	56.47
794.803	65.14
794.98	64.76
795.157	72.14
795.334	80.38
795.511	89.39
795.688	88.53
795.864	83.87
796.041	78.72
796.218	76.7
796.395	78.68
796.572	68.2
796.749	63.72
796.925	66.18
797.102	57.68
797.279	57.81
797.456	51.87
797.632	50.56
797.809	47.83
797.986	46.69
798.162	47.06
798.339	47.64
798.516	47.06
798.692	52.52
798.869	50.18
799.046	53.8
799.222	53.52
799.399	60.23
799.575	65.05
799.752	65.76
799.928	63.72
800.105	58.75
800.281	54.33
800.458	58.13
800.634	61.23
800.811	61.97
800.987	59.29
801.163	50.94
801.34	51.38
801.516	45.02
801.692	45.91
801.869	54.49
802.045	53.1
802.221	62.38
802.398	58.41
802.574	60.19
802.75	57.45
802.926	57.82
803.103	56.28
803.279	59.41
803.455	59.4
803.631	59.6
803.807	54.18
803.983	65.49
804.16	60.09
804.336	56.66
804.512	58.38
804.688	50.71
804.864	55.79
805.04	55.9
805.216	55.12
805.392	52.2
805.568	51.28
805.744	52.56
805.92	47.81
806.096	47.16
806.272	61.23
806.448	58.37
806.623	60.36
806.799	59.22
806.975	67.71
807.151	56.01
807.327	52.48
807.503	55.44
807.678	60.25
807.854	48.07
808.03	58.84
808.206	44.51
808.381	47.64
808.557	58.68
808.733	55.11
808.908	61.29
809.084	60.02
809.26	66.85
809.435	63.95
809.611	51.93
809.787	71.06
809.962	50.21
810.138	51.15
810.313	26.37
810.489	30.37
810.664	29.26
810.84	19.08
811.015	37.17
811.191	39.46
811.366	42.66
811.542	52.23
811.717	51.03
811.892	47.62
812.068	66.84
812.243	84.84
812.419	88.78
812.594	87.36
812.769	58.81
812.944	49.47
813.12	40.47
813.295	49.03
813.47	40.7
813.645	38.02
813.821	45.39
813.996	40.92
814.171	45.99
814.346	49.29
814.521	37.89
814.697	46.89
814.872	41.88
815.047	58.71
815.222	53.06
815.397	54.89
815.572	53.96
815.747	63
815.922	53.17
816.097	46.78
816.272	39.04
816.447	39.75
816.622	41.65
816.797	43.25
816.972	36.21
817.147	30.98
817.322	33.67
817.496	35.41
817.671	20.49
817.846	29.44
818.021	36.22
818.196	36.61
818.371	46.72
818.545	48.99
818.72	46.19
818.895	45.01
819.069	44.58
819.244	41.22
819.419	38.37
819.594	38.58
819.768	37.45
819.943	33.41
820.117	30.61
820.292	28.1
820.467	27.15
820.641	26.58
820.816	27.91
820.99	26.97
821.165	26.63
821.339	26.39
821.514	27.24
821.688	26.3
821.863	25.95
822.037	24.66
822.212	24.82
822.386	23.69
822.56	25.3
822.735	25.67
822.909	27.97
823.084	29.19
823.258	29.22
823.432	30.23
823.606	30.37
823.781	28.44
823.955	33.1
824.129	31.54
824.303	36.73
824.478	36.17
824.652	34.12
824.826	31.35
825	32.2
825.174	31.55
825.348	29.51
825.523	29.07
825.697	32.32
825.871	32.54
826.045	35.42
826.219	32.23
826.393	31.72
826.567	31.46
826.741	33.54
826.915	30.78
827.089	33.26
827.263	34.34
827.437	39.71
827.611	44.7
827.784	49.41
827.958	43.25
828.132	42.94
828.306	39.93
828.48	44.25
828.654	45.53
828.827	49.62
829.001	49.37
829.175	57.13
829.349	43.41
829.522	44.63
829.696	35.95
829.87	39.81
830.044	35.94
830.217	48.22
830.391	44.79
830.565	47.31
830.738	54.86
830.912	48.5
831.085	40.66
831.259	42.19
831.432	30.84
831.606	28.93
831.779	27.26
831.953	37.26
832.126	39.35
832.3	42.25
832.473	45.21
832.647	42.08
832.82	42.99
832.994	40.13
833.167	43.99
833.34	42.75
833.514	41.12
833.687	44.67
833.86	43.22
834.034	42.22
834.207	36.19
834.38	33.44
834.553	37.82
834.727	38.58
834.9	39.89
835.073	32.91
835.246	30.39
835.419	39.18
835.593	29.46
835.766	26.98
835.939	5.92
836.112	29.39
836.285	21.1
836.458	10.26
836.631	9.54
836.804	27.57
836.977	37.87
837.15	51.85
837.323	53.62
837.496	70.59
837.669	83.6
837.842	69.05
838.015	52.75
838.188	47.86
838.361	53.64
838.533	53.2
838.706	55.75
838.879	58.08
839.052	53.77
839.225	55.42
839.398	52.99
839.57	53.12
839.743	60.1
839.916	60.36
840.088	56.66
840.261	46.02
840.434	43.79
840.607	47.05
840.779	32.5
840.952	40.59
841.124	36.24
841.297	47.5
841.47	15.76
841.642	18.58
841.815	26.84
841.987	25.82
842.16	46.01
842.332	65.91
842.505	43.4
842.677	69.93
842.85	57.05
843.022	59.78
843.194	42.12
843.367	54.49
843.539	38.38
843.712	18.33
843.884	42.06
844.056	38.04
844.229	10.1
844.401	23.7
844.573	17.7
844.745	63.12
844.918	26.34
845.09	70.91
845.262	71.2
845.434	171.06
845.606	367.86
845.779	-793.18
845.951	8400
846.123	-1214.71
846.295	934.69
846.467	-1134.21
846.639	-1865.22
846.811	609.09
846.983	264.1
847.155	560
847.327	432.08
847.499	219.77
847.671	173.46
847.843	257.73
848.015	291.3
848.187	240
848.359	163.24
848.531	162.63
848.703	202
848.875	208.92
849.047	617.5
849.218	1093.75
849.39	-40.74
849.562	3040
849.734	-578.57
849.905	3371.43
850.077	-132.43
850.249	-30.71
850.421	452.38
850.592	388.62
850.764	183.13
850.936	172.87
851.107	190.48
851.279	170.96
851.451	147.08
851.622	187.71
851.794	159.27
851.965	226.99
852.137	190.68
852.308	2744.44
852.48	42.59
852.651	-48.17
852.823	-16.67
852.994	-277.78
853.166	-250
853.337	136.11
853.509	12.56
853.68	-3825
853.851	-78.89
854.023	-85.31
854.194	-162.71
854.365	20.28
854.537	31.1
854.708	35.63
854.879	12.86
855.05	84.23
855.222	79.09
855.393	173.72
855.564	118.15
855.735	139.04
855.906	212.11
856.078	261.84
856.249	151.27
856.42	170.09
856.591	236.69
856.762	-2305.26
856.933	-1361.54
857.104	-546.67
857.275	14525
857.446	984.62
857.617	-9783.33
857.788	25750
857.959	305.71
858.13	1185.71
858.301	338.95
858.472	330.56
858.643	213.41
858.814	170.36
858.985	183.1
859.155	173.96
859.326	118.81
859.497	129.61
859.668	155.03
859.839	232.14
860.009	137.5
860.18	176.23
860.351	160.07
860.522	153.61
860.692	216
860.863	161.1
861.034	119.3
861.204	170.38
861.375	241.86
861.546	155.12
861.716	154.76
861.887	140.89
862.057	508.82
862.228	595.24
862.398	58.3
862.569	162.75
862.739	-350
862.91	204.35
863.08	-171.43
863.251	-223.81
863.421	125.33
863.592	487.5
863.762	-77.92
863.932	85.37
864.103	148.89
864.273	186.32
864.443	175
864.614	60.34
864.784	105.38
864.954	66.85
865.125	49.3
865.295	40.34
865.465	36
865.635	17.84
865.805	-25.17
865.976	25.08
866.146	16.41
866.316	12.62
866.486	32.52
866.656	37.5
866.826	61.02
866.996	81.67
867.166	112.5
867.336	102.37
867.506	92.84
867.676	138.35
867.846	109.84
868.016	60.24
868.186	94.96
868.356	236.14
868.526	206.06
868.696	-94.12
868.866	356.72
869.036	411.11
869.206	78.38
869.376	-22.22
869.545	-352
869.715	142.86
869.885	-157.35
870.055	-137.61
870.224	93.53
870.394	83.66
870.564	204.65
870.734	363.39
870.903	177.78
871.073	183.8
871.243	241.4
871.412	254.13
871.582	468.48
871.751	-2259.09
871.921	-165.19
872.091	-20.73
872.26	-69.25
872.43	-55.74
872.599	-114.91
872.769	-92.28
872.938	-157.52
873.108	-83.7
873.277	-150.81
873.446	2307.69
873.616	-135.48
873.785	163.42
873.955	175.64
874.124	195.87
874.293	254.12
874.463	805.41
874.632	-82.61
874.801	53.64
874.971	92.95
875.14	65.82
875.309	74.14
875.478	96.7
875.647	100.5
875.817	167.67
875.986	157.14
876.155	-45500
876.324	-306.06
876.493	-77.36
876.662	12.24
876.831	58.64
877	86.16
877.17	87.58
877.339	151.88
877.508	182.7
877.677	0
877.846	-395.83
878.015	-461.67
878.184	-327.97
878.352	-6533.33
878.521	594.12
878.69	224.27
878.859	165.16
879.028	151.23
879.197	125.96
879.366	94.01
879.534	73.66
879.703	79.33
879.872	72.77
880.041	53.34
880.21	50.49
880.378	50.38
880.547	43.57
880.716	42.61
880.884	36.03
881.053	36.36
881.222	33.42
881.39	33.7
881.559	32.07
881.727	35.57
881.896	39.67
882.065	37.59
882.233	26.15
882.402	22.3
882.57	22.59
882.739	28.18
882.907	18.82
883.076	9.89
883.244	9.98
883.412	4.56
883.581	-3.21
883.749	-18.68
883.918	-18.6
884.086	-19.79
884.254	-1.36
884.423	-3.48
884.591	12.21
884.759	16.67
884.927	34.62
885.096	44.35
885.264	24.06
885.432	22.55
885.6	35.1
885.769	23.09
885.937	42.19
886.105	21.46
886.273	27.66
886.441	7.14
886.609	14.7
886.777	8.5
886.945	5.67
887.113	46.82
887.281	63.83
887.449	83.26
887.617	90.15
887.785	127.57
887.953	173.85
888.121	284.13
888.289	491.67
888.457	886.54
888.625	341.67
888.793	-552.63
888.961	684.38
889.129	1116.67
889.296	-3.12
889.464	94.23
889.632	-63.08
889.8	-15.74
889.967	-34.43
890.135	-50.85
