Data from JASIL_3054_Reflection_02.txt Node
Date: Mon Nov 09 11:23:57 EST 2015
User: Geneva
Spectrometer: USB4E03002
Autoset integration time: false
Trigger mode: 4
Integration Time (sec): 1.000000E-1
Scans to average: 10
Electric dark correction enabled: false
Nonlinearity correction enabled: false
Boxcar width: 5
Stray light correction enabled: false
XAxis mode: Wavelengths
Stop averaging: false
Number of Pixels in Spectrum: 3648
>>>>>Begin Spectral Data<<<<<
177.575	-200
177.794	-80.49
178.014	-13.92
178.233	22.35
178.452	27.34
178.672	35.74
178.891	59.31
179.11	69.28
179.33	67.56
179.549	98.44
179.768	86.71
179.987	75.61
180.207	91.07
180.426	195.97
180.645	-177.03
180.864	-84.48
181.084	121.74
181.303	112.12
181.522	-137.5
181.741	119.12
181.96	-166.22
182.179	712.5
182.398	137.27
182.618	290.09
182.837	1805
183.056	284.44
183.275	178.43
183.494	142.48
183.713	158.71
183.932	135.65
184.151	136.02
184.37	94.41
184.589	183.87
184.808	124.46
185.027	-108.64
185.246	-151.47
185.465	136.19
185.684	25
185.903	75.24
186.122	79.72
186.341	37.5
186.56	-105.93
186.779	-22.08
186.998	-452.78
187.216	-153.66
187.435	-149.59
187.654	-95.54
187.873	-710.81
188.092	-89.43
188.311	-83.87
188.53	-85.64
188.748	-25.39
188.967	32.17
189.186	-38.46
189.405	-800
189.623	-247.37
189.842	58.76
190.061	-6.78
190.28	-16.11
190.498	-302.56
190.717	-527.03
190.936	195.15
191.154	78.31
191.373	54.06
191.592	77.21
191.81	182.49
192.029	116.94
192.248	99.05
192.466	129.13
192.685	41.8
192.904	28.72
193.122	52.15
193.341	37.8
193.559	95.56
193.778	-622.22
193.996	-5.11
194.215	27.78
194.433	29.36
194.652	-102.41
194.87	40.26
195.089	48.8
195.307	57.22
195.526	-53.03
195.744	-342.31
195.963	-132.63
196.181	-79.03
196.399	-176.97
196.618	-224.35
196.836	-840.48
197.055	301.39
197.273	435.44
197.491	481.48
197.71	252.19
197.928	377.14
198.146	550
198.365	268.5
198.583	112.63
198.801	99.46
199.019	74.88
199.238	37.84
199.456	-51.6
199.674	-59.15
199.892	-76.35
200.111	-116.39
200.329	-46
200.547	-11.94
200.765	-7.08
200.983	49.6
201.202	10.53
201.42	47.91
201.638	172.09
201.856	-450
202.074	-46.85
202.292	-49.59
202.51	3875
202.728	156.82
202.946	31.82
203.165	-211.11
203.383	-680
203.601	96.24
203.819	61.05
204.037	600
204.255	-114.44
204.473	115.87
204.691	85.33
204.909	116.09
205.127	757.14
205.345	73.89
205.562	53.33
205.78	-191.67
205.998	103.25
206.216	478.79
206.434	-62.9
206.652	310.64
206.87	36.78
207.088	64.62
207.306	109.35
207.523	325
207.741	116.25
207.959	428.57
208.177	1.96
208.395	31.07
208.612	42.29
208.83	-91.91
209.048	-43.9
209.266	-96.56
209.483	-72.82
209.701	-89.25
209.919	-26.35
210.136	-75.08
210.354	-32.31
210.572	-30.04
210.79	267.86
211.007	-8700
211.225	-93.1
211.442	-3550
211.66	-33.16
211.878	20.17
212.095	211.92
212.313	261.36
212.53	368.01
212.748	349.3
212.966	393.81
213.183	4959.09
213.401	-3618.52
213.618	565.17
213.836	620.27
214.053	685.71
214.271	28100
214.488	175.76
214.705	-107.21
214.923	-27.36
215.14	-21.51
215.358	22.38
215.575	37.81
215.793	17.98
216.01	28.85
216.227	62.5
216.445	55.39
216.662	36.46
216.879	12.01
217.097	102.47
217.314	281.82
217.531	70.59
217.749	97.58
217.966	55.87
218.183	-14.93
218.4	-1.11
218.618	74.58
218.835	-2.82
219.052	0.91
219.269	-74.68
219.487	-604.17
219.704	-179.63
219.921	-43.33
220.138	-17.39
220.355	-3.15
220.572	57.94
220.79	81.55
221.007	41.94
221.224	-195.31
221.441	-918.18
221.658	85.57
221.875	62.45
222.092	96.47
222.309	342.86
222.526	-4057.14
222.743	287.3
222.96	122.62
223.177	91.99
223.394	86.57
223.611	46.68
223.828	38.52
224.045	55.38
224.262	58.53
224.479	46.35
224.696	50.06
224.913	46.04
225.13	48.38
225.347	54.6
225.564	52.83
225.781	40.86
225.997	38.93
226.214	35.06
226.431	20.14
226.648	20.66
226.865	11.28
227.082	-0.52
227.298	-0.89
227.515	-13.08
227.732	-4.67
227.949	1.36
228.165	-0.13
228.382	-3.31
228.599	6.56
228.816	14.69
229.032	15.37
229.249	23.16
229.466	26.86
229.682	17.85
229.899	24.63
230.116	19.1
230.332	17.06
230.549	19.94
230.765	27.18
230.982	20.58
231.199	17.17
231.415	12.17
231.632	10
231.848	20.82
232.065	36.51
232.281	40.34
232.498	35.25
232.714	25.27
232.931	25.66
233.147	20.84
233.364	6.49
233.58	6.45
233.797	-0.72
234.013	-10.05
234.23	-21.5
234.446	-38.34
234.662	-64.88
234.879	-35.08
235.095	-20.38
235.312	-2.87
235.528	5.9
235.744	2.39
235.961	13.47
236.177	14.56
236.393	-2.12
236.61	8.24
236.826	14.45
237.042	17.72
237.258	12.49
237.475	14.85
237.691	15.61
237.907	18.29
238.123	39.06
238.339	28.1
238.556	15.02
238.772	31.4
238.988	13.86
239.204	12.7
239.42	7.66
239.636	16.69
239.853	13.79
240.069	13.84
240.285	12.12
240.501	8.56
240.717	13.5
240.933	20.97
241.149	23.12
241.365	24.99
241.581	26.86
241.797	26.09
242.013	18.42
242.229	23.89
242.445	21.18
242.661	19.24
242.877	22.24
243.093	11.34
243.309	6.73
243.525	2.69
243.741	0.65
243.957	7.58
244.173	11.09
244.388	10.66
244.604	11.83
244.82	12.81
245.036	12.82
245.252	10.81
245.468	15.08
245.683	11.66
245.899	11.87
246.115	10.51
246.331	6.46
246.547	3.67
246.762	4.69
246.978	3.77
247.194	1.97
247.409	-2.92
247.625	-4.38
247.841	-10.46
248.057	-2.36
248.272	-1.39
248.488	4.09
248.703	10.3
248.919	11
249.135	9.75
249.35	6.29
249.566	8.32
249.782	11.24
249.997	13.06
250.213	18.51
250.428	16.25
250.644	14.05
250.859	13.29
251.075	12.47
251.29	10.27
251.506	21.02
251.721	23.49
251.937	23.68
252.152	27.61
252.368	26.95
252.583	25.18
252.798	23.87
253.014	23.58
253.229	15.21
253.445	11.11
253.66	23.88
253.875	12.69
254.091	6.02
254.306	3.65
254.521	0.96
254.737	-0.59
254.952	2.94
255.167	8.25
255.383	9.01
255.598	13.37
255.813	11.5
256.028	6.52
256.244	5.78
256.459	10.17
256.674	12.08
256.889	11.19
257.104	14.84
257.32	11.11
257.535	9.65
257.75	10.35
257.965	11.43
258.18	9.1
258.395	8.39
258.61	7.11
258.826	4.42
259.041	3.91
259.256	2.41
259.471	0.46
259.686	-0.13
259.901	-1.91
260.116	-3.6
260.331	-5.13
260.546	-2.91
260.761	-4.14
260.976	-4.05
261.191	-0.93
261.406	3.99
261.621	7.12
261.836	9.31
262.05	8.81
262.265	8.39
262.48	12.7
262.695	9.54
262.91	8.87
263.125	3.42
263.34	8
263.555	4.72
263.769	-7.97
263.984	-6.56
264.199	-9.97
264.414	-6.25
264.629	-4.04
264.843	-3.72
265.058	1.12
265.273	3.33
265.488	7.31
265.702	5.23
265.917	7.48
266.132	12.25
266.346	10.41
266.561	10.07
266.776	14.28
266.99	14.83
267.205	13.25
267.42	11.86
267.634	10.3
267.849	12.18
268.063	11.63
268.278	7.89
268.492	6.48
268.707	12.99
268.922	12.31
269.136	6.92
269.351	8.8
269.565	5.1
269.78	3.13
269.994	5.22
270.209	3.68
270.423	2.56
270.637	5.13
270.852	3.36
271.066	0.89
271.281	4.22
271.495	5.72
271.709	3.15
271.924	4
272.138	4.6
272.353	3.12
272.567	4.63
272.781	6.86
272.996	3.93
273.21	5.86
273.424	6.59
273.638	1.02
273.853	-2.15
274.067	-2.87
274.281	-4.04
274.495	-0.05
274.71	0.04
274.924	-0.98
275.138	-2.12
275.352	-1.34
275.566	-2.62
275.781	-4.44
275.995	-2.9
276.209	0
276.423	0.57
276.637	0.45
276.851	-1.27
277.065	-4.69
277.279	-3.19
277.493	-2.19
277.707	-0.26
277.921	0.85
278.135	5.21
278.349	4.91
278.563	5.79
278.777	5.23
278.991	8.43
279.205	4.95
279.419	8.54
279.633	8.74
279.847	6.98
280.061	4.64
280.275	8.39
280.489	2.93
280.703	4.83
280.917	2.19
281.131	1.14
281.344	0.08
281.558	1.34
281.772	0.24
281.986	3.62
282.2	4.41
282.414	3.76
282.627	3.83
282.841	6.59
283.055	6.34
283.269	8.28
283.482	7.56
283.696	8.33
283.91	7.75
284.123	8.13
284.337	6.02
284.551	6.14
284.764	8.18
284.978	3.32
285.192	0.83
285.405	-0.29
285.619	-0.84
285.833	0.92
286.046	1.46
286.26	1.5
286.473	2.89
286.687	-1.98
286.9	0.77
287.114	-0.24
287.327	1.12
287.541	2.36
287.754	6.21
287.968	7.73
288.181	9.89
288.395	8.04
288.608	7.74
288.822	7.33
289.035	11.62
289.248	8.03
289.462	7.87
289.675	10.67
289.889	10.22
290.102	6.4
290.315	4.24
290.529	3.08
290.742	2.95
290.955	0.43
291.169	1.59
291.382	-1.18
291.595	0.54
291.808	4.49
292.022	5.5
292.235	7.58
292.448	9.08
292.661	8.89
292.875	11.15
293.088	12.11
293.301	15.61
293.514	13.41
293.727	14.19
293.94	12.79
294.153	7.64
294.367	7.36
294.58	6.7
294.793	6.87
295.006	5.34
295.219	4.39
295.432	5.27
295.645	1.94
295.858	2.41
296.071	2.95
296.284	4.46
296.497	8.06
296.71	7.01
296.923	7.6
297.136	6.92
297.349	5.39
297.562	5.26
297.775	5.26
297.988	10.27
298.201	10
298.414	8.05
298.626	9.2
298.839	4.5
299.052	3.07
299.265	2.68
299.478	3.3
299.691	5.17
299.903	4.33
300.116	3.73
300.329	-0.8
300.542	-0.19
300.755	-0.97
300.967	-3.26
301.18	0.74
301.393	1.95
301.605	3.68
301.818	2.93
302.031	2.86
302.243	5.34
302.456	5.41
302.669	8.08
302.881	7.79
303.094	10.37
303.307	11.62
303.519	9.13
303.732	9.59
303.944	6.02
304.157	7.26
304.37	8.66
304.582	6.57
304.795	3.99
305.007	2.86
305.22	2.11
305.432	1.78
305.645	-0.99
305.857	3.02
306.069	3.42
306.282	5.95
306.494	1.46
306.707	0.39
306.919	-2.67
307.132	1.23
307.344	1.35
307.556	0.23
307.769	2.99
307.981	5.97
308.193	3.29
308.406	1.38
308.618	1.91
308.83	6.95
309.043	7.48
309.255	8.46
309.467	6.46
309.679	7.04
309.892	8.99
310.104	6.67
310.316	6.74
310.528	7.66
310.74	9.34
310.953	7.83
311.165	4.43
311.377	6.26
311.589	5.81
311.801	8.2
312.013	6.65
312.225	4.12
312.437	7.54
312.649	7.6
312.862	6.4
313.074	6.74
313.286	8.07
313.498	11.3
313.71	10.68
313.922	9.69
314.134	8.2
314.346	7.47
314.558	11.08
314.77	8.07
314.982	8.87
315.193	8.38
315.405	7.75
315.617	5.7
315.829	3.58
316.041	1.78
316.253	3.16
316.465	0.32
316.677	5.16
316.888	1.56
317.1	2.56
317.312	-0.24
317.524	-0.54
317.736	-3.04
317.947	-0.09
318.159	1.61
318.371	2.07
318.583	2.8
318.794	5.71
319.006	2.66
319.218	0.99
319.43	3.97
319.641	4.23
319.853	7.93
320.064	9.79
320.276	8.48
320.488	8.19
320.699	8.78
320.911	10.98
321.123	11.29
321.334	10.37
321.546	14.13
321.757	11.66
321.969	12.03
322.18	8.7
322.392	7.98
322.603	4.97
322.815	5.93
323.026	5.61
323.238	4.41
323.449	0.94
323.661	4.51
323.872	6.11
324.083	2.8
324.295	1.34
324.506	1.41
324.718	3.02
324.929	5.6
325.14	2.44
325.352	2.21
325.563	-0.98
325.774	4.66
325.986	0.72
326.197	-1.4
326.408	0.26
326.62	-0.59
326.831	0.52
327.042	-1.11
327.253	-0.17
327.464	4.02
327.676	5.04
327.887	9.96
328.098	6.09
328.309	7.9
328.52	10.29
328.732	8.8
328.943	7.19
329.154	8.49
329.365	7.74
329.576	8.33
329.787	8.21
329.998	8.63
330.209	2.71
330.42	7.88
330.631	6.91
330.842	7.41
331.053	9.23
331.264	11.06
331.475	9.86
331.686	12.15
331.897	11.88
332.108	9.29
332.319	10.07
332.53	15.72
332.741	14.77
332.952	14.09
333.163	12.36
333.374	11.36
333.585	14.1
333.795	14.95
334.006	11.34
334.217	8.74
334.428	11.5
334.639	10.76
334.849	6.51
335.06	5.98
335.271	5.08
335.482	5.09
335.692	6.1
335.903	3.53
336.114	2.51
336.325	4.58
336.535	6.49
336.746	1.41
336.957	0.75
337.167	4.47
337.378	3.23
337.589	7.64
337.799	5.72
338.01	4.55
338.22	3.97
338.431	3.97
338.642	4.7
338.852	5.51
339.063	8.92
339.273	8.28
339.484	4.41
339.694	3.81
339.905	1.65
340.115	4.48
340.326	6.9
340.536	7.38
340.746	9.31
340.957	7.78
341.167	8.38
341.378	9.08
341.588	10.15
341.799	11.49
342.009	13.03
342.219	14.5
342.43	14.26
342.64	13.18
342.85	13.36
343.061	12.71
343.271	13.41
343.481	10.89
343.691	10.68
343.902	10.46
344.112	11.89
344.322	9.86
344.532	8.28
344.743	7.91
344.953	8.69
345.163	9.64
345.373	6.53
345.583	6.51
345.793	7.76
346.004	6.09
346.214	4.71
346.424	3.6
346.634	3.84
346.844	2.84
347.054	5.01
347.264	3.1
347.474	3.39
347.684	6.94
347.894	5.79
348.104	4.56
348.314	4.84
348.524	5.79
348.734	5.4
348.944	6.08
349.154	6.82
349.364	3.6
349.574	4.96
349.784	5.3
349.994	3.66
350.204	5.51
350.413	7.56
350.623	8.85
350.833	9.5
351.043	9.04
351.253	9.85
351.463	9.43
351.672	9.98
351.882	9.55
352.092	8.45
352.302	8.26
352.511	9.42
352.721	6.34
352.931	6.29
353.141	6.76
353.35	6.73
353.56	5.99
353.77	5.52
353.979	4.62
354.189	6.06
354.399	5.56
354.608	7.95
354.818	6.56
355.027	9
355.237	9.24
355.447	8.96
355.656	8.93
355.866	10.44
356.075	10.44
356.285	12.87
356.494	11.56
356.704	11.46
356.913	11.29
357.123	11.37
357.332	11.62
357.542	10.41
357.751	10.6
357.96	11.74
358.17	9.89
358.379	12.36
358.589	11.63
358.798	12.58
359.007	13.12
359.217	11.56
359.426	11.3
359.635	11.07
359.845	11.72
360.054	12.79
360.263	11.52
360.472	11.41
360.682	10.25
360.891	8.55
361.1	9.95
361.309	9.97
361.519	10.22
361.728	9.11
361.937	9.05
362.146	8.96
362.355	6.74
362.564	8.2
362.774	8.08
362.983	7.41
363.192	10.71
363.401	9.19
363.61	9.9
363.819	9.99
364.028	12.41
364.237	12.19
364.446	10.8
364.655	11.6
364.864	10.97
365.073	10.85
365.282	10.34
365.491	6.68
365.7	7.64
365.909	5.77
366.118	5.42
366.327	4.26
366.536	4.49
366.745	6.58
366.954	6.26
367.162	6.23
367.371	7.62
367.58	8.45
367.789	8.9
367.998	6.1
368.207	6.71
368.415	6.95
368.624	7.21
368.833	6.77
369.042	5.87
369.25	6.2
369.459	6.39
369.668	5.67
369.877	4.49
370.085	5.25
370.294	7.12
370.503	8.17
370.711	8.29
370.92	7.94
371.129	9.44
371.337	9.93
371.546	10.86
371.754	9.79
371.963	10.61
372.171	10.71
372.38	11.01
372.589	11.3
372.797	11.81
373.006	11.91
373.214	12.87
373.423	12.05
373.631	10.92
373.84	9.83
374.048	9.41
374.256	9.01
374.465	11.62
374.673	10.31
374.882	9.54
375.09	8.46
375.298	9.12
375.507	10.61
375.715	10.65
375.923	10.99
376.132	12.03
376.34	11.88
376.548	11.14
376.757	10.49
376.965	11.97
377.173	13
377.381	13.85
377.59	13.87
377.798	11.85
378.006	11.1
378.214	11.42
378.423	10.28
378.631	10.59
378.839	11.24
379.047	9.82
379.255	9.97
379.463	7.61
379.671	7.71
379.879	7.24
380.088	7.36
380.296	6.99
380.504	6.77
380.712	6.3
380.92	7.04
381.128	7.26
381.336	7.64
381.544	8.6
381.752	10.24
381.96	9.94
382.168	9.06
382.376	7.49
382.584	9.52
382.791	10.1
382.999	9.76
383.207	10.66
383.415	9.62
383.623	8.81
383.831	7.29
384.039	5.98
384.247	5.67
384.454	5.83
384.662	6.38
384.87	6.17
385.078	6.66
385.285	6.88
385.493	7.25
385.701	8.36
385.909	9.06
386.116	8.69
386.324	9.84
386.532	9.83
386.739	10.71
386.947	10.89
387.155	10.5
387.362	9.69
387.57	11.04
387.778	9.76
387.985	9.61
388.193	9.38
388.4	9.48
388.608	10.08
388.816	10.37
389.023	10.11
389.231	12.2
389.438	13.73
389.646	13.5
389.853	12.61
390.061	11.85
390.268	10.63
390.475	10.77
390.683	11.68
390.89	10.48
391.098	10.64
391.305	10.37
391.512	9.08
391.72	6.14
391.927	6.2
392.135	6.31
392.342	6.25
392.549	9.07
392.756	9.45
392.964	8.56
393.171	9.56
393.378	9.77
393.586	9.65
393.793	9.24
394	10.31
394.207	10.85
394.414	11.39
394.622	12.21
394.829	9.93
395.036	9.59
395.243	9.9
395.45	9.38
395.657	8.66
395.864	9.85
396.072	10.3
396.279	11.1
396.486	10.33
396.693	10.24
396.9	10.52
397.107	12.09
397.314	12.72
397.521	12.67
397.728	12.53
397.935	13.03
398.142	12.96
398.349	11.85
398.556	11.72
398.763	11.79
398.97	10.44
399.177	11.27
399.383	10.15
399.59	8.68
399.797	9.28
400.004	9.68
400.211	8.85
400.418	8.8
400.625	8.59
400.831	8.41
401.038	9.33
401.245	9.04
401.452	9.02
401.658	9.83
401.865	11.48
402.072	10.77
402.279	10.3
402.485	11.03
402.692	11.31
402.899	13.16
403.105	12.49
403.312	12.16
403.519	13.74
403.725	12.63
403.932	13.13
404.138	12.23
404.345	12.81
404.552	13.42
404.758	13.53
404.965	12.85
405.171	13.51
405.378	14
405.584	14.06
405.791	13.49
405.997	14.45
406.204	13.19
406.41	13.61
406.617	12.88
406.823	12.77
407.029	12.17
407.236	12.22
407.442	10.98
407.649	11.29
407.855	11.38
408.061	11.33
408.268	12.05
408.474	12.4
408.68	12.46
408.887	12.9
409.093	12.97
409.299	13.41
409.505	14.33
409.712	14.27
409.918	12.91
410.124	13.38
410.33	13.77
410.537	12.76
410.743	13.74
410.949	14.82
411.155	14.89
411.361	14.7
411.567	14.11
411.773	14.14
411.98	14.48
412.186	15.96
412.392	16.76
412.598	16.55
412.804	17.5
413.01	16.63
413.216	16.87
413.422	16.23
413.628	17.16
413.834	18.07
414.04	16.85
414.246	16.03
414.452	15.95
414.658	14.32
414.864	14.77
415.07	13.72
415.275	14.13
415.481	13.47
415.687	14.53
415.893	13.87
416.099	13.33
416.305	13.81
416.511	14.6
416.716	14.99
416.922	15.57
417.128	15.69
417.334	15.91
417.539	16.17
417.745	15.96
417.951	15.33
418.157	15.66
418.362	15.92
418.568	16.04
418.774	16.11
418.979	16.11
419.185	16.15
419.391	16.11
419.596	16.03
419.802	15.53
420.008	15.37
420.213	15.2
420.419	14.51
420.624	14.44
420.83	14.24
421.035	13.92
421.241	13.76
421.446	13.8
421.652	13.37
421.857	13.36
422.063	13.49
422.268	13.39
422.474	13.75
422.679	13.83
422.885	13.75
423.09	13.69
423.295	13.87
423.501	13.42
423.706	13.48
423.911	13.89
424.117	14.03
424.322	13.78
424.527	13.74
424.733	14.03
424.938	14.56
425.143	14.75
425.349	14.73
425.554	14.86
425.759	15.29
425.964	14.93
426.169	14.67
426.375	14.99
426.58	14.48
426.785	15.04
426.99	14.95
427.195	14.3
427.4	13.88
427.605	14.02
427.811	13.82
428.016	13.57
428.221	13.93
428.426	14.11
428.631	14.2
428.836	15.55
429.041	15.29
429.246	14.9
429.451	15.22
429.656	16
429.861	16.6
430.066	17.1
430.271	17.31
430.476	17.32
430.681	17.1
430.886	16.34
431.09	16.14
431.295	15.98
431.5	16.01
431.705	16.65
431.91	15.86
432.115	15.11
432.32	14.81
432.524	15.11
432.729	15.22
432.934	14.54
433.139	14.63
433.343	15.16
433.548	15.5
433.753	15.91
433.958	15.08
434.162	15.02
434.367	15.48
434.572	15.43
434.776	15.14
434.981	15.11
435.186	15.64
435.39	16.33
435.595	15.54
435.799	15.11
436.004	15.26
436.209	15.1
436.413	15.84
436.618	15.55
436.822	15.33
437.027	15.31
437.231	15.16
437.436	15.3
437.64	14.72
437.845	14.79
438.049	15.65
438.253	15.35
438.458	15.87
438.662	15.12
438.867	15.22
439.071	15.65
439.275	15.61
439.48	15.61
439.684	15.39
439.888	15.53
440.093	15.56
440.297	14.69
440.501	14.87
440.706	14.59
440.91	15.08
441.114	15.25
441.318	15.28
441.523	15.45
441.727	15.43
441.931	15.8
442.135	16.09
442.339	16.48
442.543	17.29
442.748	16.66
442.952	16.86
443.156	16.67
443.36	16.92
443.564	16.7
443.768	16.36
443.972	16.03
444.176	15.52
444.38	15.49
444.584	14.77
444.788	13.96
444.992	14.09
445.196	13.71
445.4	13.86
445.604	13.34
445.808	13.42
446.012	13.39
446.216	13.33
446.42	13.79
446.624	13.64
446.828	14.15
447.032	14.87
447.235	14.75
447.439	14.96
447.643	14.9
447.847	14.57
448.051	14.42
448.254	14.8
448.458	15.08
448.662	15.16
448.866	15.46
449.069	15.46
449.273	15.07
449.477	16.17
449.681	16.83
449.884	16.61
450.088	17.22
450.292	16.62
450.495	16.05
450.699	16.39
450.902	16.78
451.106	15.88
451.31	15.77
451.513	15.89
451.717	15.18
451.92	14.52
452.124	14.29
452.327	14.32
452.531	14.46
452.734	14.73
452.938	14.73
453.141	13.76
453.345	14.52
453.548	13.91
453.752	14.46
453.955	15
454.158	15.34
454.362	15.83
454.565	15.95
454.769	16.41
454.972	16.34
455.175	16.06
455.379	16.48
455.582	15.87
455.785	16.45
455.988	15.93
456.192	15.67
456.395	16.06
456.598	15.95
456.801	15.33
457.005	15.85
457.208	15.89
457.411	15.52
457.614	15.34
457.817	15.51
458.021	15.85
458.224	15.57
458.427	15.27
458.63	14.58
458.833	14.48
459.036	14.55
459.239	13.85
459.442	14.11
459.645	13.96
459.848	14.46
460.051	14.72
460.254	14.14
460.457	14.57
460.66	14.94
460.863	15.29
461.066	15.49
461.269	16.17
461.472	16.38
461.675	16.29
461.878	16.75
462.081	16.61
462.284	16.76
462.486	16.71
462.689	16.81
462.892	16.76
463.095	16.8
463.298	17.34
463.5	17.36
463.703	18.06
463.906	18.15
464.109	18.73
464.311	18.18
464.514	17.67
464.717	18.43
464.92	18
465.122	18.19
465.325	17.98
465.528	18.31
465.73	18.22
465.933	18.03
466.135	17.2
466.338	16.88
466.541	17.32
466.743	17.58
466.946	16.7
467.148	16.25
467.351	15.39
467.553	15.98
467.756	15.73
467.958	15.2
468.161	14.71
468.363	14.76
468.566	14.82
468.768	14.5
468.971	14.83
469.173	15.66
469.375	16.09
469.578	16.72
469.78	16.38
469.983	16.11
470.185	17.1
470.387	17.64
470.59	18.48
470.792	18.69
470.994	19.08
471.196	18.78
471.399	17.94
471.601	18.2
471.803	18.1
472.005	18.5
472.208	19.03
472.41	18.15
472.612	17.85
472.814	17.38
473.016	17.68
473.218	17.65
473.421	17.44
473.623	18.08
473.825	18.01
474.027	17.99
474.229	17.91
474.431	17.57
474.633	17.62
474.835	18.34
475.037	18.57
475.239	18.2
475.441	17.85
475.643	17.95
475.845	17.67
476.047	17.78
476.249	17.82
476.451	17.38
476.653	17.01
476.855	17.26
477.057	17.01
477.258	17.4
477.46	17.21
477.662	17.48
477.864	17.62
478.066	17.69
478.268	17.71
478.469	18.12
478.671	18.29
478.873	18.31
479.075	17.91
479.276	17.45
479.478	17.08
479.68	17.29
479.882	16.95
480.083	17
480.285	17.23
480.487	17.17
480.688	16.43
480.89	16.25
481.091	16.06
481.293	15.85
481.495	15.59
481.696	15.07
481.898	14.51
482.099	14.27
482.301	13.75
482.502	13.4
482.704	13.22
482.905	13.25
483.107	13.33
483.308	13.21
483.51	13.05
483.711	13.12
483.913	13.12
484.114	13.4
484.315	13.51
484.517	14.03
484.718	14.12
484.92	14.31
485.121	14.24
485.322	13.93
485.524	14.02
485.725	14.39
485.926	14.16
486.127	14.27
486.329	14.05
486.53	14.22
486.731	13.98
486.932	14.1
487.134	13.93
487.335	14.35
487.536	14.58
487.737	14.69
487.938	14.7
488.139	15.04
488.341	15.28
488.542	15.48
488.743	15.11
488.944	15.25
489.145	15.3
489.346	15.52
489.547	15.17
489.748	14.93
489.949	14.8
490.15	14.63
490.351	14.42
490.552	14.16
490.753	14.05
490.954	14.3
491.155	14.38
491.356	14.52
491.557	14.5
491.758	14.54
491.959	14.93
492.159	14.96
492.36	15.34
492.561	15.88
492.762	16.34
492.963	17.07
493.164	17.59
493.364	17.89
493.565	18.1
493.766	18.51
493.967	19.01
494.167	18.78
494.368	19.12
494.569	19.13
494.769	19.08
494.97	18.95
495.171	18.71
495.371	18.3
495.572	17.75
495.773	17.42
495.973	17.28
496.174	17.26
496.375	17.25
496.575	17.67
496.776	17.52
496.976	17.15
497.177	17.21
497.377	17.24
497.578	17.29
497.778	17.45
497.979	17.8
498.179	18.06
498.38	17.87
498.58	18.38
498.78	18.11
498.981	18.23
499.181	18.44
499.382	18.27
499.582	17.83
499.782	18.08
499.983	17.98
500.183	18.01
500.383	17.71
500.584	17.74
500.784	17.71
500.984	16.95
501.184	17.01
501.385	16.52
501.585	16.63
501.785	16.75
501.985	16.05
502.185	16.48
502.386	16.45
502.586	16.49
502.786	16.29
502.986	16.11
503.186	16.79
503.386	16.54
503.586	17.02
503.786	17.37
503.987	17.96
504.187	18.55
504.387	18.38
504.587	18.54
504.787	18.42
504.987	18.44
505.187	18.3
505.387	18.47
505.587	18.76
505.786	18.55
505.986	18.36
506.186	17.62
506.386	17.81
506.586	18.25
506.786	18.15
506.986	18.15
507.186	18.24
507.386	18.26
507.585	17.92
507.785	17.84
507.985	17.96
508.185	18.38
508.384	18.45
508.584	18
508.784	17.77
508.984	17.31
509.183	17.43
509.383	17.44
509.583	17.45
509.782	17.64
509.982	17.55
510.182	17.3
510.381	16.38
510.581	16.64
510.781	16.77
510.98	16.59
511.18	16.98
511.379	16.38
511.579	16.06
511.778	15.97
511.978	15.61
512.177	16.26
512.377	16.93
512.576	17.61
512.776	17.42
512.975	17.63
513.175	18.16
513.374	18.34
513.573	19.55
513.773	20.03
513.972	20.47
514.172	20.46
514.371	19.95
514.57	19.8
514.77	19.47
514.969	19.97
515.168	19.9
515.367	19.21
515.567	18.84
515.766	18.15
515.965	18.11
516.164	17.95
516.364	18.16
516.563	17.84
516.762	17.87
516.961	17.97
517.16	17.49
517.359	17.14
517.559	17.49
517.758	17.89
517.957	17.62
518.156	17.58
518.355	17.54
518.554	17.53
518.753	18.15
518.952	18.18
519.151	18.33
519.35	18.41
519.549	18.72
519.748	18.49
519.947	18.4
520.146	19.27
520.345	19.63
520.544	19.78
520.743	20.05
520.942	19.46
521.141	19.62
521.339	19.73
521.538	19.9
521.737	20.48
521.936	20.49
522.135	20.52
522.333	19.8
522.532	19.41
522.731	19.13
522.93	19.15
523.129	19.35
523.327	18.87
523.526	18.81
523.725	18.51
523.923	17.87
524.122	18.02
524.321	18
524.519	18.21
524.718	17.81
524.917	17.54
525.115	17.43
525.314	17.05
525.512	16.82
525.711	16.68
525.909	16.46
526.108	16.2
526.306	15.95
526.505	15.69
526.703	15.45
526.902	15.51
527.1	15.24
527.299	15.18
527.497	15.34
527.696	15.39
527.894	15.32
528.092	15.46
528.291	15.57
528.489	15.8
528.688	15.83
528.886	15.78
529.084	15.92
529.283	16.57
529.481	16.64
529.679	16.78
529.877	17.04
530.076	17.2
530.274	17.14
530.472	17.29
530.67	17.21
530.869	16.91
531.067	17.14
531.265	17.05
531.463	16.7
531.661	16.79
531.859	16.9
532.057	16.78
532.255	16.62
532.454	16.7
532.652	16.51
532.85	16.4
533.048	16.76
533.246	16.95
533.444	17.29
533.642	17.23
533.84	17.08
534.038	16.71
534.236	16.96
534.434	17.2
534.632	17.68
534.83	17.82
535.027	17.87
535.225	17.54
535.423	17.52
535.621	17.22
535.819	17.53
536.017	17.49
536.215	17.7
536.412	17.42
536.61	17.57
536.808	17.58
537.006	17.66
537.203	17.96
537.401	18.4
537.599	18.48
537.797	18.53
537.994	18.54
538.192	18.47
538.39	18.34
538.587	18.42
538.785	18.17
538.983	17.77
539.18	17.62
539.378	17.41
539.575	17.18
539.773	16.95
539.97	16.69
540.168	16.47
540.366	16.49
540.563	16.43
540.761	16.15
540.958	16.1
541.155	16.18
541.353	16.08
541.55	16.13
541.748	16.26
541.945	16.14
542.143	16.39
542.34	16.56
542.537	16.78
542.735	16.83
542.932	17.49
543.129	17.59
543.327	17.5
543.524	17.81
543.721	17.69
543.919	17.93
544.116	18.39
544.313	18.44
544.51	18.44
544.708	18.43
544.905	18.64
545.102	18.69
545.299	18.72
545.496	18.66
545.693	18.9
545.891	19.13
546.088	18.96
546.285	18.77
546.482	18.46
546.679	18.44
546.876	18.73
547.073	19.26
547.27	18.82
547.467	18.73
547.664	19.35
547.861	19.64
548.058	19.21
548.255	19.74
548.452	20.26
548.649	21
548.846	21.8
549.043	21.97
549.24	21.22
549.437	21.56
549.633	21.45
549.83	21.08
550.027	21.26
550.224	21.86
550.421	21.66
550.618	21.68
550.814	21.83
551.011	21.39
551.208	21.22
551.405	21.23
551.601	21.28
551.798	21.58
551.995	21.98
552.191	21.76
552.388	21.69
552.585	21.97
552.781	21.98
552.978	22.13
553.175	22.26
553.371	22.06
553.568	22.52
553.764	22.84
553.961	23.21
554.157	22.78
554.354	23.17
554.55	23.15
554.747	22.79
554.943	22.7
555.14	23.06
555.336	22.97
555.533	23.21
555.729	24.02
555.926	23.18
556.122	22.75
556.318	23.39
556.515	23.23
556.711	23.46
556.907	23.78
557.104	23.23
557.3	22.88
557.496	23.78
557.693	23.86
557.889	23.24
558.085	24.18
558.281	24.88
558.478	24.14
558.674	24.41
558.87	24.56
559.066	24.2
559.262	25.15
559.459	25.08
559.655	24.39
559.851	24.17
560.047	24.51
560.243	24.68
560.439	24.32
560.635	25.04
560.831	24.86
561.027	25.28
561.223	25.73
561.419	25.51
561.615	25.83
561.811	26.05
562.007	26.75
562.203	26.52
562.399	26.31
562.595	26.84
562.791	26.58
562.987	26.33
563.183	25.9
563.379	25.16
563.575	25.19
563.771	24.92
563.966	24.32
564.162	23.91
564.358	23.85
564.554	24.2
564.75	23.45
564.945	23.86
565.141	23.86
565.337	23.85
565.533	24.61
565.728	24.49
565.924	24.3
566.12	25.48
566.315	25.64
566.511	25.9
566.707	25.51
566.902	26.12
567.098	25.88
567.293	26.12
567.489	25.88
567.684	25.63
567.88	25.49
568.076	26.11
568.271	25.99
568.467	26.23
568.662	25.66
568.858	25.97
569.053	25.81
569.248	25.5
569.444	25.15
569.639	24.95
569.835	25.07
570.03	25.44
570.225	25.13
570.421	25.17
570.616	24.39
570.812	24.36
571.007	23.63
571.202	23.76
571.397	23.94
571.593	24.28
571.788	24.87
571.983	24.3
572.178	24
572.374	23.78
572.569	23.56
572.764	23.88
572.959	23.67
573.154	24.51
573.35	24.51
573.545	24.16
573.74	24.14
573.935	23.64
574.13	24.28
574.325	24.22
574.52	24.25
574.715	23.9
574.91	23.86
575.105	24.73
575.3	24.54
575.495	24.38
575.69	25.14
575.885	25.04
576.08	25.11
576.275	24.49
576.47	25.1
576.665	25.45
576.86	25.44
577.055	25.5
577.25	25.21
577.444	25.33
577.639	25.47
577.834	25.31
578.029	25.44
578.224	25.5
578.418	26
578.613	25.44
578.808	25.63
579.003	25.8
579.197	25.95
579.392	26.07
579.587	26.34
579.781	26.42
579.976	26.71
580.171	26.81
580.365	27.08
580.56	27.74
580.755	27.47
580.949	28
581.144	28.37
581.338	28.7
581.533	28.27
581.727	28.07
581.922	27.46
582.116	27.01
582.311	27.04
582.505	27.74
582.7	27.58
582.894	28.52
583.089	27.86
583.283	27.25
583.478	26.53
583.672	26.84
583.866	27.19
584.061	28.06
584.255	27.91
584.449	26.58
584.644	24.99
584.838	24.77
585.032	24.45
585.226	24.8
585.421	24.53
585.615	24.81
585.809	24.19
586.003	23.15
586.198	22.37
586.392	22.09
586.586	22.82
586.78	23.37
586.974	23.81
587.168	23.43
587.363	22.42
587.557	23.2
587.751	23.92
587.945	25.1
588.139	25.72
588.333	26.26
588.527	26.82
588.721	26.67
588.915	26.96
589.109	26.7
589.303	26.77
589.497	27.09
589.691	27.39
589.885	26.97
590.079	25.86
590.273	25.51
590.466	25.59
590.66	26.11
590.854	26.9
591.048	26.35
591.242	25.94
591.436	26.56
591.629	26.45
591.823	26.1
592.017	26.24
592.211	27.29
592.404	27.49
592.598	27.62
592.792	26.65
592.986	26.6
593.179	27.23
593.373	27.45
593.567	27.39
593.76	27.59
593.954	26.77
594.147	26.24
594.341	26.07
594.535	25.74
594.728	25.27
594.922	25.12
595.115	24.88
595.309	24.69
595.502	24.06
595.696	23.61
595.889	23.53
596.083	24.32
596.276	24.81
596.47	24.33
596.663	24.43
596.856	24.91
597.05	24.68
597.243	24.24
597.437	24.57
597.63	24.94
597.823	25.12
598.017	26.41
598.21	26.27
598.403	25.81
598.596	26.78
598.79	27.15
598.983	27.45
599.176	28.64
599.369	29.15
599.563	29.61
599.756	30.62
599.949	30.4
600.142	29.1
600.335	29.31
600.528	29.31
600.722	29.3
600.915	28.41
601.108	27.5
601.301	26.35
601.494	26.56
601.687	26.13
601.88	25.23
602.073	24.89
602.266	24.93
602.459	24.23
602.652	24.17
602.845	23.44
603.038	23.97
603.231	24.9
603.424	25.59
603.617	25.09
603.809	24.24
604.002	24.09
604.195	25.01
604.388	25
604.581	25.63
604.774	25.69
604.966	26.07
605.159	25.93
605.352	25.37
605.545	25.55
605.737	26.7
605.93	27.91
606.123	28.76
606.316	28.9
606.508	29.28
606.701	29.25
606.894	29.76
607.086	29.58
607.279	30.99
607.471	30.91
607.664	31.27
607.857	30.38
608.049	30.18
608.242	30.09
608.434	30.05
608.627	30.41
608.819	30.58
609.012	30.67
609.204	30.43
609.397	29.64
609.589	29.46
609.782	28.71
609.974	28.6
610.166	29.11
610.359	29.29
610.551	29.17
610.743	28.26
610.936	28.16
611.128	27.62
611.32	28.45
611.513	28.76
611.705	27.62
611.897	28.13
612.09	28.63
612.282	29.02
612.474	29.13
612.666	29.18
612.858	29.38
613.051	29.16
613.243	29.55
613.435	29.56
613.627	29.05
613.819	30.97
614.011	30.96
614.203	31.65
614.395	31.06
614.588	29.88
614.78	29.98
614.972	30.68
615.164	30.81
615.356	30.54
615.548	30.8
615.74	31.25
615.932	30.85
616.124	31.26
616.315	31
616.507	31.54
616.699	32.43
616.891	33.4
617.083	33.24
617.275	32.75
617.467	33.73
617.659	33.74
617.85	33.96
618.042	34.47
618.234	35.01
618.426	35.27
618.618	34.27
618.809	34.73
619.001	34.49
619.193	34.51
619.384	35.54
619.576	34.96
619.768	34.91
619.959	34.1
620.151	33.43
620.343	32.29
620.534	31.69
620.726	32.29
620.917	31.76
621.109	29.65
621.301	30.22
621.492	29.34
621.684	28.56
621.875	28.28
622.067	29.55
622.258	29.18
622.45	28.37
622.641	28.52
622.832	28.12
623.024	28.62
623.215	29.29
623.407	28.23
623.598	29.08
623.789	29.58
623.981	29.58
624.172	28.72
624.363	28.85
624.555	29.77
624.746	29.83
624.937	29.1
625.129	28.3
625.32	28.35
625.511	28.08
625.702	26.46
625.893	26.55
626.085	25.94
626.276	25.89
626.467	26.02
626.658	26.3
626.849	26.55
627.04	27.5
627.231	27.95
627.422	28.46
627.614	29.17
627.805	30.46
627.996	31.28
628.187	31.88
628.378	31.2
628.569	32.11
628.76	32.33
628.951	31.42
629.142	31.47
629.332	30.59
629.523	31.43
629.714	31.29
629.905	32.09
630.096	32.43
630.287	32.82
630.478	33.59
630.669	34.08
630.859	34.09
631.05	35.56
631.241	35.09
631.432	36.72
631.623	35.31
631.813	35.99
632.004	35.67
632.195	34.89
632.385	34.35
632.576	34.69
632.767	34.15
632.957	33.75
633.148	34.06
633.339	34.36
633.529	34.51
633.72	35.45
633.91	34.23
634.101	34.02
634.292	34.01
634.482	35.57
634.673	36.41
634.863	35.49
635.054	34.59
635.244	34.09
635.435	34.45
635.625	33.81
635.815	33.87
636.006	34.76
636.196	34.71
636.387	34.91
636.577	33.6
636.767	32.4
636.958	33.71
637.148	35.63
637.338	35.42
637.529	35.38
637.719	35.72
637.909	36.02
638.099	36.66
638.29	35.99
638.48	36.53
638.67	36.06
638.86	35.75
639.05	36.07
639.241	35.18
639.431	35.78
639.621	36.03
639.811	34.9
640.001	34.84
640.191	33.76
640.381	34.8
640.571	34.25
640.761	35.87
640.951	37.22
641.141	36.66
641.331	36.7
641.521	36.76
641.711	36.4
641.901	36.99
642.091	35.85
642.281	36.43
642.471	36.8
642.661	37.59
642.851	37.18
643.041	37.66
643.231	37.68
643.42	38.19
643.61	37.57
643.8	37.32
643.99	37.25
644.18	38.07
644.369	38.59
644.559	38.33
644.749	36.9
644.939	35.67
645.128	34.46
645.318	33.73
645.508	32.87
645.697	33.53
645.887	33.57
646.076	33.6
646.266	32.97
646.456	31.62
646.645	31.53
646.835	31.81
647.024	33.62
647.214	33.96
647.403	34.05
647.593	34.2
647.782	33.95
647.972	34.43
648.161	33.95
648.351	34.4
648.54	35.11
648.73	33.92
648.919	33.97
649.108	32.73
649.298	32.83
649.487	33.14
649.677	34.34
649.866	33.68
650.055	33.53
650.244	33.99
650.434	35.12
650.623	35.59
650.812	37.04
651.002	37.39
651.191	37.16
651.38	37.38
651.569	37.9
651.758	36.64
651.947	36.08
652.137	35.86
652.326	35.9
652.515	34.54
652.704	33.68
652.893	32.86
653.082	32.53
653.271	34.19
653.46	33.69
653.649	33.53
653.838	34.74
654.027	35.65
654.216	36.08
654.405	36.03
654.594	36.56
654.783	36.67
654.972	37.88
655.161	38.4
655.35	37.88
655.539	37.45
655.728	36.59
655.916	35.19
656.105	35.91
656.294	35.38
656.483	35.37
656.672	34.84
656.86	35.53
657.049	35.26
657.238	35.53
657.427	35.44
657.615	35.88
657.804	36.38
657.993	36.9
658.181	35.91
658.37	36.43
658.559	36.67
658.747	37.3
658.936	37.56
659.125	38.29
659.313	37.16
659.502	37.12
659.69	36.51
659.879	36.7
660.067	36.45
660.256	36.94
660.444	37.2
660.633	37.19
660.821	37.39
661.01	36.92
661.198	35.47
661.387	36.9
661.575	36.59
661.763	37.69
661.952	38.32
662.14	40.63
662.328	41.2
662.517	40.63
662.705	40.8
662.893	38.94
663.082	39.12
663.27	40.07
663.458	40.5
663.646	39.99
663.834	41.29
664.023	41.62
664.211	40.11
664.399	39.13
664.587	40.6
664.775	40.53
664.963	42.72
665.152	41.82
665.34	41.26
665.528	40.17
665.716	41.69
665.904	40.41
666.092	39.21
666.28	39.77
666.468	40.98
666.656	40.37
666.844	39.88
667.032	38.33
667.22	39.37
667.408	39.57
667.596	40.33
667.784	39.1
667.971	39.06
668.159	39.52
668.347	39.26
668.535	38.85
668.723	37.22
668.911	36.46
669.098	37.55
669.286	37.57
669.474	38.06
669.662	37.5
669.849	38.2
670.037	37.95
670.225	37.85
670.413	37.14
670.6	36.17
670.788	36.04
670.976	36.93
671.163	37.35
671.351	37.32
671.538	35.97
671.726	36.94
671.913	36.75
672.101	37.63
672.289	38.2
672.476	39.66
672.664	40.71
672.851	41.97
673.039	42.24
673.226	42.04
673.413	42.62
673.601	43.56
673.788	43.01
673.976	42.8
674.163	42.73
674.35	41.83
674.538	41.19
674.725	41.78
674.912	41.84
675.1	42.18
675.287	40.69
675.474	40.19
675.662	39.83
675.849	39.83
676.036	39.97
676.223	40.16
676.411	41.13
676.598	38.61
676.785	36.79
676.972	37.2
677.159	36.95
677.346	37.5
677.533	37.41
677.721	37.71
677.908	37.7
678.095	37.37
678.282	36.59
678.469	36.15
678.656	39.02
678.843	39.21
679.03	39.26
679.217	39.95
679.404	39.44
679.591	38.74
679.778	38.86
679.964	39.27
680.151	39.83
680.338	39.66
680.525	39.25
680.712	38.42
680.899	39.56
681.086	39.58
681.272	39.15
681.459	40.93
681.646	39.96
681.833	39.47
682.02	38.66
682.206	37.72
682.393	37.52
682.58	38.83
682.766	39.14
682.953	39.27
683.14	39.74
683.326	39.69
683.513	40.46
683.7	41.22
683.886	41.09
684.073	42.42
684.259	41.72
684.446	41.04
684.632	38.94
684.819	36.92
685.005	34.9
685.192	32.84
685.378	32.24
685.565	31.23
685.751	33.04
685.938	33.68
686.124	33.01
686.31	34.14
686.497	35.35
686.683	37.62
686.87	38.99
687.056	38.89
687.242	38.59
687.429	39.38
687.615	38.24
687.801	37.51
687.987	37.9
688.174	37.23
688.36	36.86
688.546	34.98
688.732	32.79
688.918	31.48
689.105	33.24
689.291	35.06
689.477	35.1
689.663	35.17
689.849	37.69
690.035	39.27
690.221	38.95
690.407	40.6
690.593	41.17
690.779	42.33
690.965	43.51
691.151	43.18
691.337	42.26
691.523	40.15
691.709	39.71
691.895	35.81
692.081	33.88
692.267	32.63
692.453	33.45
692.639	35.18
692.825	34.65
693.011	32.79
693.196	32.05
693.382	32.49
693.568	33.89
693.754	36.14
693.94	37.7
694.125	36.58
694.311	38.78
694.497	36.14
694.682	35.64
694.868	34.08
695.054	36
695.239	36.93
695.425	36.54
695.611	36.61
695.796	34.66
695.982	35.04
696.168	35.46
696.353	34.46
696.539	34.79
696.724	33.74
696.91	33.43
697.095	33.32
697.281	33.65
697.466	34.05
697.652	33.59
697.837	34.28
698.023	33.56
698.208	32.68
698.393	33.2
698.579	33.84
698.764	33.82
698.949	35.16
699.135	34.38
699.32	33.88
699.505	33.47
699.691	34.67
699.876	34.4
700.061	34.27
700.246	35.25
700.432	35.82
700.617	34.4
700.802	36.82
700.987	38.56
701.172	41.8
701.358	43.04
701.543	44.83
701.728	43.68
701.913	42.82
702.098	43.95
702.283	45.24
702.468	43.97
702.653	45
702.838	46.21
703.023	46.06
703.208	43.25
703.393	42.3
703.578	39.31
703.763	40.95
703.948	42.65
704.133	42.56
704.318	41.43
704.503	43.34
704.688	44.19
704.873	42.91
705.057	41.62
705.242	39.71
705.427	40.97
705.612	43.15
705.797	43.14
705.981	43.4
706.166	43.41
706.351	44.78
706.536	45.25
706.72	43.8
706.905	42.6
707.09	43.6
707.274	45.69
707.459	43.81
707.644	44.84
707.828	44.22
708.013	44.68
708.197	45.29
708.382	45.82
708.567	45.1
708.751	46.46
708.936	46.21
709.12	45.65
709.305	45.61
709.489	47.51
709.673	45.23
709.858	45.42
710.042	46.96
710.227	46.94
710.411	44.22
710.596	44.64
710.78	43.51
710.964	45.25
711.149	45.14
711.333	46.49
711.517	45.94
711.702	47.81
711.886	47.83
712.07	45.48
712.254	45.08
712.438	46.12
712.623	44.11
712.807	44.56
712.991	44.32
713.175	44.74
713.359	42.69
713.544	43.17
713.728	41.77
713.912	42.12
714.096	42.3
714.28	42.78
714.464	41.19
714.648	41.65
714.832	41.1
715.016	39.13
715.2	39.56
715.384	39.54
715.568	38.36
715.752	38.35
715.936	38.49
716.12	40.53
716.304	38.57
716.488	39.61
716.671	38.43
716.855	39.62
717.039	38.41
717.223	36.39
717.407	36.3
717.59	35.54
717.774	33.03
717.958	31.83
718.142	25.42
718.325	25.79
718.509	27.25
718.693	28.98
718.877	30.33
719.06	33.03
719.244	34.62
719.428	35.72
719.611	38.8
719.795	40
719.978	40.02
720.162	45.93
720.345	48.6
720.529	48.27
720.713	51.27
720.896	48.44
721.08	49.32
721.263	46.66
721.446	47.14
721.63	44.91
721.813	46.36
721.997	44.99
722.18	43.02
722.364	41.37
722.547	40.84
722.73	37.38
722.914	39.21
723.097	38.7
723.28	41.37
723.464	40.8
723.647	39.5
723.83	39.61
724.013	42.17
724.197	42.56
724.38	40.63
724.563	40.23
724.746	37.99
724.929	37
725.112	36.73
725.296	37.71
725.479	37.78
725.662	41.18
725.845	40.23
726.028	41.32
726.211	40.38
726.394	42.18
726.577	42.26
726.76	46.57
726.943	45.43
727.126	44.31
727.309	43.93
727.492	42.06
727.675	39.61
727.858	39.79
728.041	34.64
728.224	34.57
728.407	33.97
728.589	33.16
728.772	32.36
728.955	34.28
729.138	37.29
729.321	36.73
729.503	38.42
729.686	37.04
729.869	37.35
730.052	41.04
730.234	43.01
730.417	42.49
730.6	45.52
730.782	46.75
730.965	44.29
731.148	42.04
731.33	43.95
731.513	43.53
731.695	46.25
731.878	45.37
732.061	45.68
732.243	44.75
732.426	45.67
732.608	45.39
732.791	44.69
732.973	46.24
733.156	46.97
733.338	45.56
733.52	45.46
733.703	44.46
733.885	45.73
734.068	47.04
734.25	47.46
734.432	48.14
734.615	44.31
734.797	42.83
734.979	44.28
735.162	45.91
735.344	46.04
735.526	47.76
735.708	48.05
735.891	46.68
736.073	45.51
736.255	47.92
736.437	47.45
736.619	51.22
736.802	50.59
736.984	49.53
737.166	48.39
737.348	47.76
737.53	49.5
737.712	53.89
737.894	57.49
738.076	57.5
738.258	53.71
738.44	54.25
738.622	54.66
738.804	57.63
738.986	57.46
739.168	59.41
739.35	61
739.532	60.41
739.714	54.49
739.896	53.42
740.078	49.56
740.259	50.64
740.441	52.1
740.623	52.21
740.805	52.8
740.987	52.55
741.168	51.7
741.35	49.45
741.532	48.09
741.714	50.75
741.895	49.54
742.077	52.79
742.259	56.19
742.44	50.49
742.622	51.14
742.804	51.54
742.985	53.61
743.167	52.69
743.348	56.28
743.53	54.27
743.711	57.03
743.893	62.18
744.075	64.14
744.256	58.42
744.438	64.65
744.619	66.29
744.8	65.68
744.982	66.5
745.163	69.73
745.345	69.02
745.526	69.62
745.707	67.65
745.889	66.01
746.07	68.41
746.252	71.35
746.433	68.52
746.614	65.69
746.795	64.41
746.977	63.81
747.158	60.18
747.339	55.71
747.52	56.48
747.702	55.71
747.883	53.88
748.064	52.45
748.245	54.11
748.426	56.23
748.607	54.59
748.788	56.35
748.97	54.75
749.151	54.89
749.332	59.22
749.513	61.2
749.694	64.02
749.875	64.53
750.056	65.08
750.237	64.11
750.418	64.6
750.599	67.36
750.78	65.36
750.96	64.18
751.141	69.28
751.322	67.77
751.503	66.9
751.684	64.88
751.865	65.12
752.046	64.1
752.226	63.79
752.407	63.9
752.588	64
752.769	69.11
752.949	70.12
753.13	65.36
753.311	70.02
753.492	71.8
753.672	70.34
753.853	69.74
754.034	69.27
754.214	69.91
754.395	70.83
754.575	70.33
754.756	65.03
754.937	69.97
755.117	73.88
755.298	73.62
755.478	71.77
755.659	74.19
755.839	73.86
756.02	72.76
756.2	70.25
756.381	70.45
756.561	69.99
756.741	69.89
756.922	65.58
757.102	61.9
757.283	56.65
757.463	54.55
757.643	50.98
757.823	47.37
758.004	43.62
758.184	44.12
758.364	43.68
758.545	41.9
758.725	42.99
758.905	39.79
759.085	38.2
759.265	37.31
759.446	38.97
759.626	39.57
759.806	40.65
759.986	42.37
760.166	42.47
760.346	38.61
760.526	40.17
760.706	35.66
760.886	37.45
761.066	36.82
761.246	36.03
761.426	33.59
761.606	33.32
761.786	35.17
761.966	34.32
762.146	32.84
762.326	34.01
762.506	33.12
762.686	35.4
762.866	35.35
763.046	36.39
763.225	36.62
763.405	34.99
763.585	35.26
763.765	33.46
763.945	38.42
764.124	40.14
764.304	44.13
764.484	46.98
764.664	50.34
764.843	50.41
765.023	51.3
765.203	52.14
765.382	58.7
765.562	62.4
765.741	64.84
765.921	64.27
766.101	68.01
766.28	66.41
766.46	69.53
766.639	69.89
766.819	73.51
766.998	74.43
767.178	78.96
767.357	84.97
767.537	86.3
767.716	86.38
767.896	83.7
768.075	82.86
768.254	84.68
768.434	79.13
768.613	78.73
768.792	75.77
768.972	76.19
769.151	71.51
769.33	65.27
769.51	62.46
769.689	66.29
769.868	65.76
770.047	66.21
770.226	70.11
770.406	76.25
770.585	78.03
770.764	76.67
770.943	81.14
771.122	81.24
771.301	79.3
771.48	84.42
771.66	83.13
771.839	97.06
772.018	99.88
772.197	100.13
772.376	97.15
772.555	98.09
772.734	102.83
772.913	105.82
773.092	113.99
773.271	121.08
773.449	120
773.628	113.49
773.807	100
773.986	97.67
774.165	97.57
774.344	97.65
774.523	95.93
774.701	94.99
774.88	95.12
775.059	97
775.238	96.75
775.417	95.62
775.595	95.45
775.774	102.31
775.953	96.91
776.131	90.38
776.31	91.54
776.489	84.36
776.667	88.2
776.846	80.81
777.025	75.7
777.203	76.23
777.382	78.77
777.56	81.16
777.739	74.83
777.917	78.08
778.096	83.58
778.274	84.33
778.453	86.16
778.631	79.09
778.81	79.14
778.988	79.08
779.166	77.92
779.345	78.22
779.523	71.14
779.702	74.58
779.88	73.28
780.058	70.52
780.237	60.77
780.415	63.46
780.593	66.76
780.771	72.26
780.95	75.58
781.128	81.36
781.306	76.88
781.484	80.54
781.662	82.73
781.841	79.4
782.019	85.56
782.197	98.82
782.375	102.11
782.553	109.48
782.731	112.47
782.909	102.41
783.087	92.94
783.265	98.77
783.443	93.27
783.621	95.37
783.799	114.37
783.977	105.59
784.155	100.14
784.333	93.32
784.511	81.15
784.689	77.24
784.867	83.12
785.045	82.76
785.223	79.21
785.4	80.2
785.578	81.08
785.756	68.48
785.934	59.58
786.112	62.56
786.289	63.02
786.467	69.37
786.645	69.61
786.823	67.23
787	60.56
787.178	58.19
787.356	64.35
787.533	63.31
787.711	67.74
787.889	69.05
788.066	66.18
788.244	65.53
788.421	65.35
788.599	62.31
788.776	60.92
788.954	73.06
789.131	77.45
789.309	80.29
789.486	68.26
789.664	70.61
789.841	71.71
790.019	71.43
790.196	70.58
790.373	68.06
790.551	69.98
790.728	68.57
790.906	67.44
791.083	61.97
791.26	55.81
791.437	65.21
791.615	65.25
791.792	67.59
791.969	69.96
792.146	71.2
792.324	74.69
792.501	68.23
792.678	70.43
792.855	60.23
793.032	65.45
793.209	71.57
793.387	65.15
793.564	53.64
793.741	59.2
793.918	58.06
794.095	58.26
794.272	50.9
794.449	60.69
794.626	57.7
794.803	60.95
794.98	60.47
795.157	60.52
795.334	58.55
795.511	69.3
795.688	66.26
795.864	68.52
796.041	69.2
796.218	72.76
796.395	66.7
796.572	68.12
796.749	65.6
796.925	66.85
797.102	56.12
797.279	56.5
797.456	50.73
797.632	53.31
797.809	51.32
797.986	43.79
798.162	43.7
798.339	45.98
798.516	38.9
798.692	46.35
798.869	46.13
799.046	59.67
799.222	55.85
799.399	60.23
799.575	61.72
799.752	56.33
799.928	64.21
800.105	59.32
800.281	62.89
800.458	71.25
800.634	69.69
800.811	72.31
800.987	71.63
801.163	69.62
801.34	67.36
801.516	59.51
801.692	77.85
801.869	71.46
802.045	81.09
802.221	81.83
802.398	75.82
802.574	66.13
802.75	66.22
802.926	68.3
803.103	71.02
803.279	70.93
803.455	72.03
803.631	64.67
803.807	65.13
803.983	61.17
804.16	52.11
804.336	56.89
804.512	60.16
804.688	53.33
804.864	50.92
805.04	51.21
805.216	49.44
805.392	54.6
805.568	51.52
805.744	55.38
805.92	59
806.096	57.54
806.272	52.53
806.448	45.26
806.623	52.43
806.799	55.16
806.975	60.69
807.151	65.93
807.327	70.8
807.503	70.54
807.678	67.24
807.854	71.63
808.03	85.53
808.206	84.4
808.381	101.62
808.557	93.77
808.733	87.97
808.908	75.96
809.084	76.79
809.26	69.18
809.435	77.71
809.611	82.19
809.787	75.8
809.962	77.98
810.138	75.92
810.313	80.44
810.489	95.78
810.664	100.81
810.84	106.39
811.015	123.69
811.191	115.86
811.366	116.7
811.542	99.45
811.717	92.29
811.892	80.86
812.068	90.03
812.243	67.47
812.419	35.6
812.594	45.17
812.769	60.51
812.944	50.72
813.12	46.55
813.295	38.17
813.47	44.55
813.645	48.28
813.821	43.5
813.996	38.57
814.171	39.01
814.346	35.46
814.521	35.33
814.697	23.82
814.872	13.09
815.047	12.95
815.222	26.27
815.397	15.63
815.572	7.89
815.747	20.33
815.922	23.49
816.097	23.94
816.272	32.2
816.447	17.67
816.622	16.33
816.797	22.16
816.972	25.63
817.147	12.2
817.322	28.05
817.496	33.24
817.671	30.01
817.846	32.61
818.021	32.7
818.196	32.33
818.371	43.99
818.545	48.42
818.72	48.07
818.895	44.97
819.069	45.21
819.244	37.84
819.419	40.51
819.594	37.31
819.768	36.16
819.943	27.3
820.117	24.67
820.292	23.36
820.467	22.08
820.641	21.66
820.816	22.3
820.99	22.19
821.165	22.24
821.339	20.54
821.514	20.9
821.688	20.43
821.863	24.53
822.037	24.14
822.212	24.85
822.386	25.96
822.56	27.16
822.735	27.2
822.909	30.3
823.084	32.3
823.258	35.19
823.432	38.09
823.606	37.2
823.781	37.12
823.955	39.04
824.129	40.19
824.303	37.26
824.478	35
824.652	31.2
824.826	26.05
825	20.9
825.174	19.54
825.348	19.59
825.523	19.27
825.697	17.47
825.871	18.3
826.045	15.45
826.219	18.13
826.393	19.42
826.567	23.59
826.741	26.71
826.915	30.27
827.089	31.3
827.263	31.09
827.437	35.43
827.611	38.04
827.784	34.13
827.958	32.98
828.132	30.72
828.306	34.51
828.48	28.96
828.654	26.96
828.827	31.42
829.001	31.05
829.175	28.97
829.349	21.79
829.522	21.35
829.696	38.62
829.87	47.56
830.044	45.1
830.217	30.89
830.391	50.63
830.565	40.83
830.738	28.62
830.912	30.89
831.085	37.68
831.259	35.45
831.432	44.37
831.606	41.58
831.779	39.89
831.953	38.62
832.126	39.04
832.3	36.28
832.473	36.58
832.647	30.52
832.82	30.5
832.994	25.63
833.167	30.46
833.34	27.16
833.514	28.52
833.687	27.99
833.86	28.72
834.034	25.27
834.207	22.42
834.38	25.08
834.553	36.15
834.727	34.42
834.9	31.09
835.073	22.4
835.246	11.02
835.419	-0.56
835.593	-14.22
835.766	-20
835.939	50.56
836.112	71.3
836.285	103.88
836.458	96.21
836.631	77.5
836.804	101.53
836.977	108.77
837.15	128.37
837.323	108.71
837.496	104.15
837.669	116.98
837.842	120.24
838.015	109.39
838.188	80.09
838.361	85.3
838.533	85.99
838.706	76.91
838.879	73.2
839.052	69
839.225	87.09
839.398	82.06
839.57	79.66
839.743	62.48
839.916	53.19
840.088	50
840.261	44.64
840.434	36.73
840.607	42.54
840.779	46.29
840.952	45.64
841.124	31.63
841.297	10.04
841.47	2.6
841.642	-23.16
841.815	-13.33
841.987	-9.19
842.16	-272.55
842.332	-195.59
842.505	276.92
842.677	337.5
842.85	511.76
843.022	-3580
843.194	-193.55
843.367	94.21
843.539	9.49
843.712	68.91
843.884	-29.32
844.056	-46.84
844.229	-51.43
844.401	-276.11
844.573	-509.64
844.745	614.94
844.918	265.71
845.09	177.62
845.262	110.49
845.434	109.03
845.606	112.22
845.779	94.84
845.951	83.2
846.123	80.23
846.295	79.41
846.467	78.67
846.639	80.67
846.811	85.51
846.983	76.9
847.155	168.61
847.327	337.91
847.499	335.24
847.671	168.32
847.843	-889.47
848.015	-151.61
848.187	208.62
848.359	150
848.531	-24.77
848.703	-29.69
848.875	15.82
849.047	-91.12
849.218	-129.13
849.39	-378.85
849.562	6540
849.734	-425.37
849.905	-760
850.077	-70.14
850.249	-14.41
850.421	-43.15
850.592	6.04
850.764	22.05
850.936	54.41
851.107	82.16
851.279	92.51
851.451	32.41
851.622	43.56
851.794	26.43
851.965	18.46
852.137	55.08
852.308	128.57
852.48	139.73
852.651	166
852.823	188.41
852.994	137.61
853.166	171.24
853.337	192.53
853.509	315.09
853.68	630.56
853.851	-3075
854.023	793.39
854.194	716.81
854.365	-33350
854.537	-4436.36
854.708	1671.43
854.879	693.62
855.05	72.94
855.222	53.45
855.393	121.65
855.564	45.36
855.735	31.49
855.906	16.3
856.078	32.79
856.249	33.78
856.42	18.68
856.591	17.45
856.762	-5.39
856.933	14.55
857.104	-5.62
857.275	9.62
857.446	-21.8
857.617	-0.72
857.788	-4.43
857.959	-47.37
858.13	21.43
858.301	100.63
858.472	72.79
858.643	11.56
858.814	28.83
858.985	52.41
859.155	84.82
859.326	63.35
859.497	62.9
859.668	64.92
859.839	77.63
860.009	54.43
860.18	62.13
860.351	81.49
860.522	73.25
860.692	117.26
860.863	111.72
861.034	100
861.204	115.68
861.375	94.94
861.546	98.32
861.716	100.39
861.887	109.52
862.057	137.72
862.228	112.31
862.398	125.39
862.569	122.49
862.739	194.4
862.91	113.97
863.08	253.85
863.251	248.54
863.421	118.18
863.592	67.05
863.762	78.75
863.932	93.55
864.103	-162.5
864.273	-22.86
864.443	338.64
864.614	105.06
864.784	935.9
864.954	1000
865.125	-884.85
865.295	-2344.44
865.465	909.26
865.635	214.41
865.805	193.13
865.976	220.96
866.146	123.74
866.316	128.79
866.486	115.92
866.656	86.3
866.826	89.36
866.996	83.45
867.166	82.58
867.336	66.38
867.506	64.18
867.676	48.36
867.846	25.84
868.016	37.93
868.186	34.01
868.356	3.85
868.526	37
868.696	-116.46
868.866	3.98
869.036	32.35
869.206	-252.94
869.376	-2000
869.545	1730
869.715	471.87
869.885	-178.87
870.055	-279.45
870.224	214.96
870.394	70.59
870.564	-246.48
870.734	220
870.903	61.06
871.073	43.78
871.243	-90.44
871.412	16.54
871.582	25.61
871.751	31.08
871.921	-21.16
872.091	-105.31
872.26	-15.14
872.43	1.62
872.599	-27.8
872.769	13.09
872.938	7.38
873.108	26.09
873.277	28.53
873.446	13.01
873.616	-4.21
873.785	10.32
873.955	46.09
874.124	66.36
874.293	53.52
874.463	55.81
874.632	41.07
874.801	32.8
874.971	27.11
875.14	34.91
875.309	-5.41
875.478	48.16
875.647	50.22
875.817	60.46
875.986	29.99
876.155	43.43
876.324	51.16
876.493	68.42
876.662	74.04
876.831	84.04
877	93.32
877.17	83.16
877.339	65.82
877.508	70.19
877.677	40.58
877.846	65.56
878.015	40.1
878.184	56.2
878.352	68.95
878.521	57.03
878.69	34.61
878.859	36.3
879.028	-2.88
879.197	41.79
879.366	49.67
879.534	57.26
879.703	41.13
879.872	40.1
880.041	28.74
880.21	17.47
880.378	13.69
880.547	22.44
880.716	21.86
880.884	23.49
881.053	24.33
881.222	19.22
881.39	19.54
881.559	23.55
881.727	25.98
881.896	25.53
882.065	20.18
882.233	22.27
882.402	26.15
882.57	22.26
882.739	30.63
882.907	30.96
883.076	39.08
883.244	38.96
883.412	35.98
883.581	29.13
883.749	32.46
883.918	45.2
884.086	42.69
884.254	22.94
884.423	26.29
884.591	16.96
884.759	13.29
884.927	4.39
885.096	12.48
885.264	34.7
885.432	44.78
885.6	45.3
885.769	30.99
885.937	36.21
886.105	52.53
886.273	58.77
886.441	54.92
886.609	61.09
886.777	62.83
886.945	23.27
887.113	-30.25
887.281	-40.65
887.449	-25
887.617	27
887.785	33.56
887.953	46.43
888.121	28.06
888.289	38.75
888.457	46.37
888.625	59.48
888.793	85.67
888.961	116.36
889.129	131.84
889.296	153.16
889.464	212.9
889.632	134.21
889.8	207.69
889.967	175.26
890.135	189.29
