Data from JASIL_2990_Reflection_02.txt Node
Date: Mon Nov 09 09:41:23 EST 2015
User: Geneva
Spectrometer: USB4E03002
Autoset integration time: false
Trigger mode: 4
Integration Time (sec): 1.000000E-1
Scans to average: 10
Electric dark correction enabled: false
Nonlinearity correction enabled: false
Boxcar width: 5
Stray light correction enabled: false
XAxis mode: Wavelengths
Stop averaging: false
Number of Pixels in Spectrum: 3648
>>>>>Begin Spectral Data<<<<<
177.575	64
177.794	67.06
178.014	58.69
178.233	51.46
178.452	58.47
178.672	58.45
178.891	51.1
179.11	30.44
179.33	18.74
179.549	14.22
179.768	-34.2
179.987	-25.35
180.207	-1.89
180.426	-1.63
180.645	-7.02
180.864	-25.7
181.084	-12.82
181.303	-6.7
181.522	7.67
181.741	24.38
181.96	26.18
182.179	44.55
182.398	43.34
182.618	34.86
182.837	63.18
183.056	63.61
183.275	60
183.494	55.59
183.713	62.69
183.932	64.85
184.151	46.31
184.37	55.44
184.589	41.76
184.808	52.62
185.027	48.15
185.246	5.24
185.465	28.86
185.684	38.19
185.903	16.21
186.122	25.78
186.341	13.72
186.56	1.2
186.779	30.81
186.998	53.62
187.216	34.2
187.435	25.97
187.654	42.79
187.873	30.33
188.092	35.6
188.311	45.55
188.53	25.2
188.748	26.52
188.967	12.3
189.186	-3.29
189.405	-8.3
189.623	0.2
189.842	63.33
190.061	74.73
190.28	132
190.498	96.81
190.717	140.15
190.936	112
191.154	275.41
191.373	134.13
191.592	139.62
191.81	148.94
192.029	330.34
192.248	166.89
192.466	62.43
192.685	6.96
192.904	37.94
193.122	15.52
193.341	4.22
193.559	1.93
193.778	40.4
193.996	54.75
194.215	47.74
194.433	13.6
194.652	16.11
194.87	43.3
195.089	60
195.307	33.33
195.526	44.07
195.744	66.25
195.963	48.67
196.181	47.52
196.399	14.81
196.618	-41.23
196.836	-32.17
197.055	-16.49
197.273	-1.16
197.491	7.34
197.71	8.49
197.928	-7.85
198.146	-17.13
198.365	-50.8
198.583	-21.14
198.801	-24.47
199.019	-13.33
199.238	-40.97
199.456	-43.21
199.674	-42.46
199.892	-19.42
200.111	-33.54
200.329	-17.38
200.547	17.89
200.765	39.65
200.983	19.78
201.202	86.96
201.42	17.65
201.638	111.94
201.856	291.55
202.074	-416.22
202.292	-660.98
202.51	217.24
202.728	221.83
202.946	298.7
203.165	159
203.383	193.55
203.601	152.45
203.819	289.53
204.037	142.62
204.255	108.59
204.473	54.38
204.691	45
204.909	46.85
205.127	51.96
205.345	58.52
205.562	125.84
205.78	19.14
205.998	59.15
206.216	25.36
206.434	33.67
206.652	55.56
206.87	98.73
207.088	100
207.306	25.24
207.523	-49.03
207.741	2.76
207.959	18.93
208.177	-30.43
208.395	-18.37
208.612	14.81
208.83	47.45
209.048	61.11
209.266	41.41
209.483	40.97
209.701	93.81
209.919	87.72
210.136	77.41
210.354	59.38
210.572	74.67
210.79	72.67
211.007	108.08
211.225	86.9
211.442	84.7
211.66	111.15
211.878	131.7
212.095	34.08
212.313	45.3
212.53	42.1
212.748	46.42
212.966	53.57
213.183	53.44
213.401	42.24
213.618	48.29
213.836	42.8
214.053	37.86
214.271	32.92
214.488	62.18
214.705	50.76
214.923	55.3
215.14	56.24
215.358	52.82
215.575	74.56
215.793	100.98
216.01	88.29
216.227	131.33
216.445	190.45
216.662	131.88
216.879	125.64
217.097	153.28
217.314	162.56
217.531	173.26
217.749	108.69
217.966	94.33
218.183	84.14
218.4	82.33
218.618	30.67
218.835	-5.05
219.052	-147.86
219.269	-405.26
219.487	-166.08
219.704	-558.73
219.921	787.72
220.138	861.54
220.355	494.52
220.572	0
220.79	-836.36
221.007	-170.45
221.224	-88.97
221.441	-8.08
221.658	-5.63
221.875	65.86
222.092	26.96
222.309	23.75
222.526	16.15
222.743	11.17
222.96	1.23
223.177	7.33
223.394	21.57
223.611	15.04
223.828	-18.06
224.045	4.66
224.262	4.28
224.479	0
224.696	18.78
224.913	0.31
225.13	-23.97
225.347	-20.99
225.564	-16.4
225.781	-21.95
225.997	-12.26
226.214	-1.29
226.431	-11.99
226.648	-17.83
226.865	-7.93
227.082	-12.7
227.298	-7.21
227.515	-4.28
227.732	5.5
227.949	3.03
228.165	3.63
228.382	3.64
228.599	5.88
228.816	8.37
229.032	4.66
229.249	3.75
229.466	2.11
229.682	0.45
229.899	12.49
230.116	-4.32
230.332	1.64
230.549	-2.89
230.765	-35.03
230.982	-21.04
231.199	-2.5
231.415	7.84
231.632	5.63
231.848	31.37
232.065	35.56
232.281	10.41
232.498	19.83
232.714	21.68
232.931	20.91
233.147	36.14
233.364	33.41
233.58	24.22
233.797	23.22
234.013	22.38
234.23	4.34
234.446	16.09
234.662	25.71
234.879	28.91
235.095	26.15
235.312	21.39
235.528	10.04
235.744	14.84
235.961	16.85
236.177	18.59
236.393	17.59
236.61	14.55
236.826	5.11
237.042	9.3
237.258	1.84
237.475	1.54
237.691	7.76
237.907	14.48
238.123	-1.35
238.339	-8.74
238.556	-21.22
238.772	-31.72
238.988	-13.98
239.204	-10.13
239.42	-12.14
239.636	3.78
239.853	12.85
240.069	9.88
240.285	10.36
240.501	17.42
240.717	17.84
240.933	22.01
241.149	25.9
241.365	26.47
241.581	25.77
241.797	24.95
242.013	21.9
242.229	20.11
242.445	22.37
242.661	23.46
242.877	23.97
243.093	23.13
243.309	19.79
243.525	14.06
243.741	9.47
243.957	11.65
244.173	16.11
244.388	16.95
244.604	16.6
244.82	14.19
245.036	14.89
245.252	14.21
245.468	16.08
245.683	16.82
245.899	18.71
246.115	19.23
246.331	17.25
246.547	16.67
246.762	17.25
246.978	15.89
247.194	16.97
247.409	17.11
247.625	15.97
247.841	18.12
248.057	20.38
248.272	20.1
248.488	22.59
248.703	26.64
248.919	21.48
249.135	16.99
249.35	14.48
249.566	17.62
249.782	13.97
249.997	15.55
250.213	8.93
250.428	7.67
250.644	3.87
250.859	4.01
251.075	0.83
251.29	3.6
251.506	8.66
251.721	10.23
251.937	10.33
252.152	12.25
252.368	9.84
252.583	10.58
252.798	7.91
253.014	19.91
253.229	18.53
253.445	17.42
253.66	16.18
253.875	15.32
254.091	14.98
254.306	6.65
254.521	15.79
254.737	24.03
254.952	26.94
255.167	29.94
255.383	24.71
255.598	22.71
255.813	27.49
256.028	29.15
256.244	28.36
256.459	29.39
256.674	32.09
256.889	26.32
257.104	19.32
257.32	15.98
257.535	13.2
257.75	11.72
257.965	13.58
258.18	14.05
258.395	15.54
258.61	14.15
258.826	12.54
259.041	12
259.256	9.75
259.471	11.24
259.686	12.08
259.901	12.7
260.116	13.19
260.331	10.53
260.546	9.26
260.761	8.49
260.976	6.71
261.191	8.5
261.406	4.46
261.621	10.59
261.836	11.34
262.05	13.29
262.265	12.45
262.48	13.72
262.695	12.77
262.91	11.31
263.125	9.07
263.34	10.62
263.555	13.59
263.769	14.23
263.984	15.13
264.199	10.1
264.414	8.64
264.629	12.49
264.843	13.53
265.058	17.11
265.273	17.37
265.488	16.32
265.702	13.91
265.917	11.57
266.132	11.68
266.346	8.43
266.561	11.18
266.776	15.36
266.99	10.59
267.205	13.13
267.42	13.69
267.634	12.84
267.849	10.69
268.063	13.61
268.278	14.66
268.492	19.58
268.707	18.13
268.922	19.91
269.136	12.04
269.351	12.54
269.565	13.55
269.78	12.37
269.994	13.59
270.209	17.39
270.423	15.51
270.637	15.02
270.852	14.32
271.066	16.06
271.281	18.56
271.495	21.52
271.709	23.7
271.924	20.01
272.138	21.62
272.353	23.86
272.567	24.02
272.781	25.33
272.996	26.26
273.21	23.73
273.424	21.64
273.638	15.22
273.853	14.92
274.067	16.41
274.281	17.42
274.495	14.74
274.71	9.9
274.924	9.71
275.138	10.6
275.352	9.81
275.566	10.69
275.781	10.62
275.995	14.04
276.209	16.81
276.423	13.9
276.637	16.03
276.851	18.73
277.065	20.29
277.279	18.34
277.493	19.12
277.707	18.7
277.921	16.56
278.135	17.72
278.349	15.96
278.563	14.22
278.777	13.81
278.991	15.05
279.205	11.33
279.419	14.19
279.633	11.77
279.847	10.12
280.061	7.81
280.275	14.09
280.489	16.42
280.703	15.43
280.917	12.93
281.131	15.46
281.344	13.7
281.558	13.65
281.772	10.58
281.986	13.43
282.2	13.45
282.414	16.63
282.627	13.35
282.841	12.67
283.055	11.4
283.269	14.14
283.482	13.01
283.696	14.33
283.91	15.64
284.123	15.23
284.337	14.74
284.551	17.65
284.764	16.43
284.978	19.12
285.192	20.82
285.405	21.65
285.619	18.38
285.833	18.69
286.046	15.24
286.26	13.11
286.473	17.44
286.687	18.33
286.9	18.79
287.114	17.35
287.327	14.43
287.541	12.28
287.754	12.19
287.968	14.93
288.181	11.67
288.395	13.63
288.608	12.78
288.822	12.56
289.035	10.71
289.248	7.75
289.462	8.64
289.675	11.62
289.889	10.82
290.102	14.67
290.315	14.31
290.529	18.12
290.742	18.38
290.955	22.61
291.169	22.18
291.382	24.32
291.595	23.37
291.808	23.09
292.022	21.28
292.235	24.25
292.448	22.51
292.661	21.25
292.875	19.17
293.088	17.32
293.301	18.55
293.514	17.49
293.727	17.31
293.94	18.01
294.153	17.94
294.367	17.81
294.58	15.15
294.793	14.68
295.006	15.14
295.219	17.09
295.432	20.29
295.645	18.09
295.858	17.97
296.071	17.11
296.284	19.06
296.497	18.67
296.71	17.83
296.923	18.44
297.136	18.05
297.349	19.55
297.562	20.03
297.775	17.76
297.988	19.63
298.201	19.09
298.414	20.92
298.626	20.71
298.839	20.2
299.052	20.94
299.265	22.21
299.478	22.69
299.691	23.48
299.903	23.96
300.116	24.01
300.329	21.52
300.542	22.53
300.755	22
300.967	20.99
301.18	21.79
301.393	22.45
301.605	21.49
301.818	19.89
302.031	20.41
302.243	16.94
302.456	17.78
302.669	20.48
302.881	23.04
303.094	24.18
303.307	25.1
303.519	26.31
303.732	26.33
303.944	26.52
304.157	27.64
304.37	24.87
304.582	27.09
304.795	28.05
305.007	28.25
305.22	24.25
305.432	22.58
305.645	21.93
305.857	21.38
306.069	19.25
306.282	18.8
306.494	21.97
306.707	22.26
306.919	23.86
307.132	21.4
307.344	19.29
307.556	19.76
307.769	21.06
307.981	19.72
308.193	19.21
308.406	21.35
308.618	23.41
308.83	24.31
309.043	26.18
309.255	23.56
309.467	23.07
309.679	24.4
309.892	25.32
310.104	24.35
310.316	26.68
310.528	29.13
310.74	29.02
310.953	26.87
311.165	25.37
311.377	24.14
311.589	25.6
311.801	26.58
312.013	26.18
312.225	26.17
312.437	28.36
312.649	26.08
312.862	23.49
313.074	20.8
313.286	23.81
313.498	22.51
313.71	20.96
313.922	22.22
314.134	25.26
314.346	25.72
314.558	24.98
314.77	24.07
314.982	26.53
315.193	29.11
315.405	31.28
315.617	32.4
315.829	33.4
316.041	36.02
316.253	31.69
316.465	31.4
316.677	29.42
316.888	33.79
317.1	32.36
317.312	31.6
317.524	30.63
317.736	32.74
317.947	30.26
318.159	29.31
318.371	28.47
318.583	30.01
318.794	28.04
319.006	30.9
319.218	27.47
319.43	27.66
319.641	29.22
319.853	30.52
320.064	28.36
320.276	28.13
320.488	30.32
320.699	29.93
320.911	30.4
321.123	33.17
321.334	29.45
321.546	28.38
321.757	28.31
321.969	25.01
322.18	21.64
322.392	22.05
322.603	22.19
322.815	21.11
323.026	23.37
323.238	22.05
323.449	20.91
323.661	21.84
323.872	21.88
324.083	20.54
324.295	19.33
324.506	18.9
324.718	18.7
324.929	20.07
325.14	18.74
325.352	18.75
325.563	22.62
325.774	21.13
325.986	22.61
326.197	23.2
326.408	25.64
326.62	25.33
326.831	30
327.042	29.97
327.253	28.99
327.464	27.82
327.676	28.24
327.887	26.71
328.098	28.66
328.309	29.14
328.52	29.33
328.732	27.06
328.943	27.73
329.154	23.57
329.365	28.31
329.576	29.68
329.787	33.18
329.998	33.39
330.209	33.92
330.42	33.54
330.631	29.76
330.842	28.01
331.053	30.03
331.264	32.5
331.475	32.75
331.686	29.14
331.897	28.51
332.108	26.94
332.319	25.83
332.53	23.64
332.741	23.36
332.952	25.46
333.163	27.04
333.374	27.37
333.585	25.99
333.795	27.06
334.006	30.09
334.217	31.46
334.428	32.19
334.639	30.49
334.849	31.2
335.06	32.6
335.271	32.24
335.482	33.27
335.692	32.05
335.903	34.04
336.114	32.57
336.325	31.88
336.535	29.51
336.746	31.26
336.957	33.64
337.167	33.86
337.378	33.25
337.589	34.46
337.799	33.39
338.01	33.97
338.22	32.82
338.431	30.93
338.642	28.22
338.852	28.84
339.063	25.51
339.273	26.85
339.484	27.71
339.694	26.26
339.905	25.02
340.115	26.23
340.326	25.32
340.536	25.43
340.746	28.22
340.957	30.14
341.167	31.06
341.378	32.41
341.588	30.04
341.799	29.32
342.009	30.44
342.219	30.38
342.43	29.57
342.64	30.41
342.85	32.85
343.061	32.17
343.271	30.12
343.481	29.92
343.691	29.87
343.902	29.82
344.112	29.64
344.322	28.93
344.532	29.41
344.743	28.1
344.953	26.92
345.163	24.79
345.373	25.88
345.583	27.02
345.793	25.65
346.004	26.4
346.214	25.97
346.424	26.4
346.634	26.66
346.844	27.95
347.054	31.23
347.264	30.32
347.474	31.15
347.684	32.71
347.894	32.39
348.104	34.82
348.314	32.9
348.524	35.28
348.734	36.01
348.944	37.42
349.154	36.6
349.364	34.57
349.574	37.71
349.784	36.51
349.994	36.78
350.204	38.1
350.413	37.19
350.623	39.69
350.833	39.21
351.043	36.76
351.253	35.89
351.463	35.02
351.672	34.43
351.882	33.96
352.092	34.55
352.302	33.58
352.511	31.34
352.721	31.73
352.931	30.76
353.141	29.56
353.35	32.01
353.56	31.13
353.77	29.7
353.979	33.09
354.189	31.61
354.399	29.41
354.608	29.95
354.818	29.74
355.027	28.89
355.237	30
355.447	30.95
355.656	30.69
355.866	31.56
356.075	32.35
356.285	31.05
356.494	31.29
356.704	31.84
356.913	29.92
357.123	30
357.332	30.15
357.542	28.24
357.751	27.09
357.96	26.52
358.17	26.76
358.379	27.69
358.589	27.75
358.798	28.37
359.007	30.43
359.217	30.58
359.426	31.18
359.635	30.23
359.845	29.85
360.054	28.56
360.263	28.12
360.472	28.11
360.682	27.51
360.891	26.61
361.1	26.29
361.309	24.28
361.519	24.54
361.728	24.63
361.937	24.81
362.146	26.09
362.355	28.32
362.564	29.09
362.774	28.81
362.983	29.17
363.192	29.79
363.401	30.38
363.61	31.41
363.819	31.09
364.028	29.74
364.237	29.86
364.446	29.89
364.655	28.75
364.864	28.82
365.073	29.71
365.282	29.41
365.491	30.08
365.7	30.41
365.909	31.04
366.118	30.14
366.327	30.62
366.536	32.75
366.745	32.22
366.954	33.78
367.162	32.89
367.371	30.63
367.58	31.11
367.789	29.79
367.998	29.44
368.207	30.03
368.415	31.38
368.624	31.64
368.833	31.7
369.042	31.7
369.25	30.1
369.459	30.01
369.668	30.12
369.877	30.21
370.085	30.31
370.294	31.25
370.503	29.98
370.711	30.24
370.92	30.16
371.129	29.71
371.337	28.38
371.546	28.28
371.754	28.74
371.963	29.03
372.171	29.07
372.38	28.54
372.589	27.14
372.797	25.38
373.006	24.99
373.214	25.29
373.423	25.74
373.631	26.73
373.84	27.71
374.048	28.21
374.256	26.95
374.465	28.27
374.673	29.01
374.882	29.2
375.09	31.24
375.298	30.38
375.507	29.07
375.715	28.53
375.923	29.31
376.132	29.42
376.34	29.64
376.548	32.1
376.757	29.71
376.965	29.86
377.173	30.19
377.381	30.31
377.59	30.08
377.798	32.04
378.006	29.66
378.214	28.54
378.423	27.7
378.631	26.64
378.839	26.04
379.047	27.13
379.255	27.51
379.463	26.12
379.671	26.28
379.879	27.52
380.088	27.18
380.296	28.26
380.504	28.44
380.712	28.23
380.92	29.9
381.128	30.77
381.336	30.42
381.544	28.91
381.752	30.51
381.96	30.94
382.168	29.59
382.376	27.96
382.584	28.24
382.791	28.34
382.999	28.88
383.207	28.18
383.415	26.8
383.623	27.71
383.831	28.63
384.039	27.63
384.247	26.39
384.454	27.41
384.662	28.81
384.87	28.64
385.078	28.68
385.285	28.45
385.493	27.44
385.701	28.27
385.909	27.37
386.116	27.89
386.324	28.31
386.532	29.48
386.739	30.34
386.947	31.02
387.155	31.14
387.362	31.09
387.57	30.34
387.778	31.78
387.985	31.36
388.193	31.25
388.4	31.17
388.608	31.29
388.816	30.18
389.023	29.19
389.231	28.88
389.438	30.1
389.646	31.04
389.853	32.81
390.061	32.51
390.268	31.57
390.475	32.14
390.683	31.68
390.89	32.22
391.098	33.43
391.305	34.24
391.512	34.67
391.72	33.79
391.927	31.54
392.135	30.94
392.342	31.85
392.549	32.29
392.756	32.76
392.964	33.45
393.171	32.9
393.378	32.76
393.586	32.32
393.793	32.7
394	33.51
394.207	35.33
394.414	36.03
394.622	35.61
394.829	36.69
395.036	36.49
395.243	36.13
395.45	37.04
395.657	37.04
395.864	37.24
396.072	36.86
396.279	37.52
396.486	37.04
396.693	37.24
396.9	37.09
397.107	37.1
397.314	36.67
397.521	37.07
397.728	37.12
397.935	36.29
398.142	35.69
398.349	34.62
398.556	34.05
398.763	34.87
398.97	33.96
399.177	33.38
399.383	32.94
399.59	32.9
399.797	31.93
400.004	31.87
400.211	32.87
400.418	33.49
400.625	34.98
400.831	35.1
401.038	34.6
401.245	34.34
401.452	35.18
401.658	35.46
401.865	36.22
402.072	36.67
402.279	36.25
402.485	36.12
402.692	36.51
402.899	36.25
403.105	35.03
403.312	36.04
403.519	35.95
403.725	36.07
403.932	36.85
404.138	37.01
404.345	38.05
404.552	38.41
404.758	39.04
404.965	39.45
405.171	39.69
405.378	41.43
405.584	41.51
405.791	42.78
405.997	42.77
406.204	41.68
406.41	42.44
406.617	42.44
406.823	43.29
407.029	43.72
407.236	43.6
407.442	44.63
407.649	44.33
407.855	43.41
408.061	43.52
408.268	43.9
408.474	45.5
408.68	45.42
408.887	45.37
409.093	45.46
409.299	45.58
409.505	45.96
409.712	44.81
409.918	45.06
410.124	46.04
410.33	45.94
410.537	46.6
410.743	46.18
410.949	44.9
411.155	45.53
411.361	45.42
411.567	46.1
411.773	46.18
411.98	46.85
412.186	48.05
412.392	47.44
412.598	48.3
412.804	47.79
413.01	48.44
413.216	50.01
413.422	49.44
413.628	49.65
413.834	49.17
414.04	48.69
414.246	49.76
414.452	49.36
414.658	49.58
414.864	48.84
415.07	48.89
415.275	48.81
415.481	48.9
415.687	49.38
415.893	49.87
416.099	49.48
416.305	49.59
416.511	48.75
416.716	48.44
416.922	48.61
417.128	48.78
417.334	48.39
417.539	47.89
417.745	47.81
417.951	46.66
418.157	46.49
418.362	46.55
418.568	46.5
418.774	46.76
418.979	46.27
419.185	46.02
419.391	45.89
419.596	46.07
419.802	46.84
420.008	46.9
420.213	47.07
420.419	46.93
420.624	46.68
420.83	46.97
421.035	47.41
421.241	47.76
421.446	47.64
421.652	47.82
421.857	47.84
422.063	47
422.268	46.47
422.474	46.54
422.679	46.27
422.885	46.13
423.09	45.94
423.295	45.76
423.501	45.56
423.706	45.62
423.911	45.64
424.117	45.34
424.322	46.1
424.527	46.36
424.733	46.96
424.938	46.92
425.143	47.68
425.349	47.41
425.554	47.39
425.759	47.81
425.964	48.7
426.169	48.67
426.375	49.24
426.58	48.86
426.785	49.37
426.99	48.8
427.195	49.15
427.4	49.38
427.605	50.24
427.811	49.65
428.016	49.43
428.221	49.13
428.426	49.71
428.631	49.77
428.836	49.61
429.041	49.49
429.246	49.85
429.451	49.78
429.656	49.47
429.861	49.07
430.066	49.43
430.271	49.9
430.476	50.41
430.681	49.53
430.886	49.54
431.09	49.24
431.295	49.06
431.5	48.98
431.705	49.51
431.91	49.27
432.115	49.07
432.32	48.94
432.524	48.13
432.729	46.55
432.934	46.8
433.139	46.69
433.343	46.82
433.548	47.13
433.753	47.55
433.958	47.15
434.162	48.09
434.367	48.37
434.572	48.13
434.776	48.8
434.981	49.79
435.186	49.73
435.39	49.88
435.595	50.03
435.799	50.08
436.004	50.29
436.209	50.35
436.413	49.43
436.618	50.31
436.822	50.51
437.027	50.12
437.231	50.23
437.436	50.38
437.64	49.88
437.845	49.29
438.049	49.37
438.253	49.16
438.458	49.16
438.662	48.98
438.867	48.51
439.071	48.41
439.275	48.55
439.48	48.57
439.684	48.18
439.888	48.42
440.093	48.84
440.297	48.91
440.501	48.6
440.706	48.86
440.91	48.93
441.114	48.43
441.318	49.08
441.523	49.07
441.727	49.33
441.931	49.93
442.135	50.03
442.339	50.67
442.543	50.69
442.748	50.59
442.952	50.12
443.156	49.94
443.36	50.22
443.564	49.2
443.768	49.22
443.972	48.58
444.176	48.21
444.38	47.83
444.584	47.81
444.788	47.52
444.992	47.99
445.196	47.83
445.4	47.69
445.604	47.59
445.808	48.12
446.012	48.12
446.216	48.72
446.42	48.89
446.624	49.45
446.828	48.93
447.032	48.97
447.235	48.32
447.439	48.47
447.643	48.83
447.847	49.14
448.051	48.84
448.254	49.34
448.458	48.88
448.662	49.38
448.866	49.02
449.069	49.09
449.273	49.3
449.477	50.05
449.681	50.28
449.884	50.65
450.088	50.44
450.292	50.33
450.495	49.88
450.699	50.58
450.902	49.91
451.106	50.23
451.31	50.5
451.513	50.87
451.717	50.64
451.92	50.67
452.124	50.55
452.327	50.92
452.531	51.23
452.734	51.03
452.938	50.76
453.141	51.25
453.345	51.08
453.548	50.55
453.752	50.18
453.955	50.53
454.158	50.17
454.362	50.23
454.565	50.18
454.769	49.44
454.972	49.73
455.175	49.02
455.379	48.22
455.582	48.09
455.785	48.92
455.988	47.89
456.192	47.57
456.395	47.28
456.598	46.83
456.801	46.12
457.005	46.83
457.208	47.13
457.411	47.55
457.614	47.65
457.817	47.7
458.021	46.86
458.224	47.5
458.427	46.95
458.63	47.49
458.833	47
459.036	47.09
459.239	46.72
459.442	46.46
459.645	46.12
459.848	46.13
460.051	46.08
460.254	46.62
460.457	46.25
460.66	46.34
460.863	45.89
461.066	46.3
461.269	46.53
461.472	46.32
461.675	46.29
461.878	46.84
462.081	47.1
462.284	47.05
462.486	47.06
462.689	47.98
462.892	48.15
463.095	48.29
463.298	48.87
463.5	49.12
463.703	49.8
463.906	49.79
464.109	49.99
464.311	49.96
464.514	50.3
464.717	50.04
464.92	49.4
465.122	49.67
465.325	50.04
465.528	49.46
465.73	48.9
465.933	49.07
466.135	48.48
466.338	48.91
466.541	49.59
466.743	49.25
466.946	49.25
467.148	48.73
467.351	48.7
467.553	48.13
467.756	48.34
467.958	48.73
468.161	48.86
468.363	49.72
468.566	48.97
468.768	47.83
468.971	48.08
469.173	48.25
469.375	48.43
469.578	48.23
469.78	48.67
469.983	48.64
470.185	48.54
470.387	47.91
470.59	47.76
470.792	47.78
470.994	48.12
471.196	48.44
471.399	48.57
471.601	49.05
471.803	49.14
472.005	48.98
472.208	49.56
472.41	49.4
472.612	49.67
472.814	49.09
473.016	49.12
473.218	49.2
473.421	49.21
473.623	48.67
473.825	48.2
474.027	48.12
474.229	48.57
474.431	48.12
474.633	48.26
474.835	48.26
475.037	48.45
475.239	48.32
475.441	48.46
475.643	48.21
475.845	48.51
476.047	48.74
476.249	49.32
476.451	49.19
476.653	48.68
476.855	49.4
477.057	49.29
477.258	49.82
477.46	49.91
477.662	49.8
477.864	50.32
478.066	50.31
478.268	50.52
478.469	50.18
478.671	49.9
478.873	49.98
479.075	49.2
479.276	49.51
479.478	48.8
479.68	48.76
479.882	48.8
480.083	47.62
480.285	47.51
480.487	47.23
480.688	47.16
480.89	46.77
481.091	46.6
481.293	46.28
481.495	45.73
481.696	45.81
481.898	45.27
482.099	44.99
482.301	45.36
482.502	45.17
482.704	45.14
482.905	45.11
483.107	45.08
483.308	45.06
483.51	45.23
483.711	45.37
483.913	45.33
484.114	45.52
484.315	45.55
484.517	45.51
484.718	45.7
484.92	45.52
485.121	45.44
485.322	45.65
485.524	45.91
485.725	45.8
485.926	45.71
486.127	45.68
486.329	45.78
486.53	45.81
486.731	45.7
486.932	45.72
487.134	45.98
487.335	45.98
487.536	46
487.737	45.72
487.938	45.83
488.139	45.88
488.341	46.11
488.542	46.3
488.743	46.43
488.944	46.45
489.145	46.14
489.346	46.09
489.547	46.04
489.748	45.78
489.949	46.08
490.15	46.01
490.351	45.9
490.552	45.69
490.753	45.65
490.954	45.35
491.155	45.35
491.356	45.47
491.557	45.56
491.758	45.76
491.959	45.93
492.159	45.56
492.36	45.53
492.561	45.68
492.762	46.08
492.963	45.85
493.164	46.33
493.364	46.44
493.565	46.68
493.766	46.42
493.967	46.5
494.167	46.79
494.368	47.2
494.569	46.98
494.769	47.25
494.97	47.26
495.171	47.46
495.371	47.32
495.572	47.14
495.773	47.23
495.973	47.19
496.174	47.29
496.375	47.16
496.575	46.79
496.776	47.55
496.976	47.47
497.177	47.27
497.377	47.28
497.578	47.27
497.778	47.39
497.979	47.34
498.179	47.54
498.38	47.06
498.58	46.9
498.78	47.45
498.981	46.81
499.181	46.9
499.382	46.91
499.582	47.03
499.782	47.19
499.983	47.32
500.183	47.46
500.383	47.43
500.584	47.42
500.784	47.61
500.984	47.59
501.184	47.78
501.385	47.98
501.585	47.37
501.785	47.3
501.985	47.04
502.185	47.07
502.386	46.51
502.586	46.57
502.786	46.57
502.986	46.7
503.186	46.56
503.386	46.81
503.586	46.56
503.786	47.21
503.987	46.88
504.187	47.24
504.387	47.26
504.587	47.81
504.787	47.85
504.987	48.16
505.187	48.27
505.387	48.27
505.587	47.75
505.786	47.35
505.986	47.08
506.186	47.17
506.386	47.41
506.586	47.39
506.786	47.74
506.986	47.41
507.186	47.28
507.386	46.62
507.585	46.51
507.785	46.43
507.985	46.74
508.185	46.49
508.384	46.71
508.584	46.55
508.784	46.15
508.984	46.06
509.183	46.51
509.383	47.12
509.583	47.43
509.782	47.71
509.982	47.9
510.182	48.09
510.381	48.51
510.581	48.46
510.781	48.29
510.98	49.04
511.18	49.17
511.379	49.24
511.579	48.53
511.778	48.74
511.978	48.53
512.177	48.94
512.377	48.66
512.576	48.98
512.776	48.92
512.975	49.24
513.175	48.71
513.374	48.31
513.573	48.28
513.773	49.03
513.972	49.13
514.172	49.56
514.371	49.15
514.57	49.38
514.77	49.29
514.969	49.49
515.168	49.07
515.367	49.17
515.567	48.93
515.766	48.71
515.965	47.99
516.164	47.85
516.364	47.71
516.563	47.72
516.762	47.64
516.961	47.48
517.16	47.69
517.359	47.74
517.559	47.95
517.758	48.33
517.957	48.62
518.156	49.12
518.355	49.2
518.554	48.97
518.753	49.2
518.952	49.62
519.151	49.92
519.35	49.93
519.549	50.22
519.748	49.99
519.947	49.84
520.146	49.67
520.345	49.64
520.544	49.4
520.743	49.72
520.942	49.92
521.141	49.84
521.339	49.57
521.538	49.45
521.737	49.26
521.936	49.31
522.135	49.15
522.333	49.19
522.532	49.17
522.731	49.29
522.93	49.3
523.129	49.38
523.327	49.24
523.526	49.35
523.725	48.86
523.923	49.29
524.122	49.15
524.321	49.44
524.519	49.64
524.718	49.82
524.917	49.94
525.115	49.96
525.314	49.75
525.512	49.83
525.711	49.93
525.909	50.23
526.108	50.07
526.306	50.04
526.505	49.99
526.703	49.97
526.902	49.87
527.1	49.84
527.299	49.78
527.497	49.88
527.696	49.68
527.894	49.86
528.092	50.02
528.291	50.15
528.489	50.58
528.688	50.86
528.886	51.01
529.084	51.19
529.283	51.36
529.481	51.46
529.679	51.58
529.877	51.93
530.076	51.65
530.274	51.68
530.472	51.73
530.67	51.58
530.869	51.39
531.067	50.98
531.265	50.74
531.463	50.89
531.661	51.03
531.859	51
532.057	51.2
532.255	51.22
532.454	51.26
532.652	51.29
532.85	51.13
533.048	51.19
533.246	51.52
533.444	51.54
533.642	51.39
533.84	51.57
534.038	51.76
534.236	51.66
534.434	51.78
534.632	51.65
534.83	51.54
535.027	51.9
535.225	51.52
535.423	51.28
535.621	51.21
535.819	51.1
536.017	50.97
536.215	50.8
536.412	50.71
536.61	50.87
536.808	50.69
537.006	50.31
537.203	50.37
537.401	50.76
537.599	50.74
537.797	50.93
537.994	51.31
538.192	51.39
538.39	51.15
538.587	51.31
538.785	51.06
538.983	51.18
539.18	51.78
539.378	51.47
539.575	51.27
539.773	51.36
539.97	51.48
540.168	51.45
540.366	51.66
540.563	51.66
540.761	51.52
540.958	51.61
541.155	51.75
541.353	51.61
541.55	51.74
541.748	51.79
541.945	52.02
542.143	51.93
542.34	51.88
542.537	51.62
542.735	51.98
542.932	52.29
543.129	52.33
543.327	52.45
543.524	52.49
543.721	52.56
543.919	52.56
544.116	52.08
544.313	52.2
544.51	52.16
544.708	52.21
544.905	52.32
545.102	52.48
545.299	52.45
545.496	52.64
545.693	52.33
545.891	52.41
546.088	52.47
546.285	52.54
546.482	52.47
546.679	52.76
546.876	52.76
547.073	52.9
547.27	52.47
547.467	52.66
547.664	52.66
547.861	52.98
548.058	52.57
548.255	52.78
548.452	52.47
548.649	52.55
548.846	52.34
549.043	53.23
549.24	52.92
549.437	53.03
549.633	52.96
549.83	52.73
550.027	53.14
550.224	53.71
550.421	53.97
550.618	55.17
550.814	55.02
551.011	54.84
551.208	54.03
551.405	53.92
551.601	53.86
551.798	53.63
551.995	53.57
552.191	52.94
552.388	52.7
552.585	52.29
552.781	51.45
552.978	51.71
553.175	52.09
553.371	52.28
553.568	52.13
553.764	51.71
553.961	52.49
554.157	52.5
554.354	53.51
554.55	53.97
554.747	54.17
554.943	54.84
555.14	54.78
555.336	54.49
555.533	54.02
555.729	53.57
555.926	54.34
556.122	53.89
556.318	53.94
556.515	53.25
556.711	52.52
556.907	52.41
557.104	52.2
557.3	52.04
557.496	52.48
557.693	53.27
557.889	53.79
558.085	53.1
558.281	53.12
558.478	53.13
558.674	53.75
558.87	54.32
559.066	54.22
559.262	54
559.459	53.94
559.655	53.64
559.851	52.93
560.047	52.77
560.243	52.85
560.439	53.09
560.635	53.6
560.831	53.38
561.027	53.26
561.223	53.74
561.419	54.78
561.615	55.13
561.811	55.52
562.007	55.76
562.203	56.09
562.399	56.59
562.595	56.58
562.791	56.28
562.987	55.79
563.183	55.45
563.379	54.86
563.575	54.18
563.771	53.77
563.966	53.85
564.162	54.45
564.358	54.44
564.554	54.24
564.75	54.57
564.945	54.22
565.141	54.66
565.337	54.21
565.533	54.6
565.728	54.77
565.924	54.84
566.12	54.52
566.315	54.11
566.511	54.63
566.707	54.44
566.902	53.5
567.098	53.6
567.293	53.72
567.489	54.13
567.684	53.48
567.88	53.18
568.076	53.49
568.271	53.78
568.467	53.95
568.662	53.67
568.858	54.57
569.053	55.1
569.248	54.79
569.444	54.27
569.639	54.71
569.835	55.95
570.03	55.83
570.225	55.7
570.421	55.54
570.616	55.44
570.812	55.06
571.007	54.94
571.202	55.23
571.397	55.75
571.593	56.04
571.788	56.29
571.983	55.96
572.178	56.34
572.374	56.42
572.569	56.1
572.764	55.92
572.959	56
573.154	55.35
573.35	55.34
573.545	55.03
573.74	55.08
573.935	54.69
574.13	54.67
574.325	54.92
574.52	54.99
574.715	55.24
574.91	55.01
575.105	55.08
575.3	55.32
575.495	54.82
575.69	55
575.885	55.61
576.08	55.57
576.275	55.17
576.47	54.35
576.665	54.83
576.86	55.85
577.055	55.99
577.25	55.95
577.444	55.79
577.639	56.5
577.834	56.24
578.029	55.59
578.224	54.33
578.418	54.71
578.613	55.31
578.808	54.96
579.003	53.55
579.197	53.52
579.392	53.92
579.587	54.56
579.781	53.38
579.976	54.3
580.171	54.12
580.365	55.29
580.56	54.7
580.755	54.91
580.949	55.05
581.144	55.47
581.338	56.45
581.533	56.35
581.727	55.75
581.922	56.53
582.116	56.03
582.311	55.78
582.505	56.09
582.7	56.18
582.894	56.51
583.089	56.82
583.283	56.76
583.478	56.04
583.672	56.22
583.866	56.44
584.061	56.27
584.255	56.06
584.449	55.91
584.644	55.83
584.838	55.99
585.032	56.47
585.226	55.57
585.421	55.81
585.615	55.5
585.809	55.56
586.003	55.78
586.198	55.99
586.392	56.19
586.586	56.71
586.78	56.48
586.974	56.77
587.168	55.91
587.363	56.07
587.557	55.94
587.751	56.03
587.945	55.47
588.139	55.5
588.333	54.78
588.527	55.16
588.721	55.2
588.915	55.03
589.109	54.47
589.303	53.9
589.497	53.9
589.691	53.23
589.885	53.26
590.079	53.82
590.273	53.78
590.466	54.09
590.66	53.13
590.854	53.11
591.048	53.94
591.242	54.26
591.436	54.78
591.629	54.52
591.823	55.88
592.017	56.13
592.211	55.11
592.404	54.66
592.598	54.7
592.792	54.69
592.986	54.45
593.179	53.79
593.373	53.64
593.567	53.08
593.76	53.45
593.954	52.75
594.147	52.86
594.341	54.03
594.535	54.8
594.728	54.58
594.922	54.88
595.115	54.61
595.309	54.63
595.502	55
595.696	55.11
595.889	55.81
596.083	55.81
596.276	55.67
596.47	55.26
596.663	54.84
596.856	54.95
597.05	55.47
597.243	55.81
597.437	55.89
597.63	55.36
597.823	55.94
598.017	54.74
598.21	55.51
598.403	55.38
598.596	55.4
598.79	55.13
598.983	55.91
599.176	55.65
599.369	55.28
599.563	55
599.756	55.54
599.949	55.42
600.142	55.43
600.335	54.71
600.528	54.54
600.722	54.73
600.915	54.69
601.108	54.26
601.301	54.21
601.494	55.28
601.687	55.5
601.88	55.01
602.073	55.08
602.266	55.42
602.459	55.29
602.652	55.73
602.845	55.19
603.038	55.7
603.231	55.53
603.424	55.11
603.617	54.09
603.809	54.31
604.002	54.5
604.195	54.43
604.388	54.48
604.581	54.82
604.774	55.33
604.966	55.56
605.159	55.24
605.352	55.24
605.545	55.33
605.737	56.42
605.93	56.38
606.123	56.36
606.316	55.7
606.508	55.35
606.701	54.98
606.894	54.41
607.086	54.3
607.279	54.63
607.471	54.93
607.664	55.1
607.857	54.86
608.049	54.8
608.242	54.9
608.434	55.92
608.627	55.87
608.819	55.76
609.012	56.2
609.204	56.82
609.397	56.13
609.589	56.56
609.782	56.71
609.974	56.41
610.166	55.81
610.359	56.64
610.551	56.23
610.743	56.99
610.936	57.3
611.128	56.03
611.32	55.24
611.513	56.11
611.705	56.76
611.897	56.76
612.09	56.99
612.282	57.55
612.474	57.64
612.666	57.22
612.858	57.03
613.051	57.12
613.243	56.96
613.435	57.55
613.627	57.38
613.819	56.25
614.011	56.79
614.203	56.68
614.395	57.54
614.588	56.55
614.78	56.72
614.972	56.87
615.164	55.6
615.356	56.68
615.548	57.22
615.74	58.09
615.932	57.44
616.124	57.16
616.315	57.45
616.507	56.96
616.699	56.49
616.891	56.57
617.083	57.11
617.275	59.18
617.467	59.73
617.659	59.35
617.85	58.8
618.042	59.22
618.234	59.27
618.426	58.69
618.618	58.04
618.809	58.98
619.001	58.67
619.193	57.33
619.384	57.15
619.576	57.04
619.768	57.33
619.959	57.04
620.151	57.51
620.343	57.61
620.534	57.86
620.726	58.37
620.917	57.6
621.109	58.17
621.301	58.61
621.492	59.06
621.684	58.27
621.875	56.83
622.067	57.22
622.258	56.73
622.45	56.4
622.641	56.03
622.832	55.5
623.024	56.26
623.215	55.87
623.407	55.82
623.598	54.01
623.789	54.78
623.981	55.05
624.172	54.99
624.363	55.41
624.555	55.84
624.746	56.18
624.937	56.66
625.129	56.36
625.32	56.1
625.511	56.13
625.702	57.07
625.893	57
626.085	58.06
626.276	57.79
626.467	58.04
626.658	57.85
626.849	57.5
627.04	57.76
627.231	57.76
627.422	58.09
627.614	58.29
627.805	57.97
627.996	58.47
628.187	58.02
628.378	57.93
628.569	57.57
628.76	56.98
628.951	57.75
629.142	57.66
629.332	57.77
629.523	58.3
629.714	57.69
629.905	57.53
630.096	57
630.287	56.56
630.478	56.24
630.669	55.99
630.859	58.08
631.05	57.94
631.241	58.53
631.432	58.29
631.623	57.98
631.813	59.15
632.004	59.41
632.195	59.39
632.385	58.84
632.576	58.46
632.767	58.35
632.957	57.23
633.148	57.23
633.339	56.57
633.529	57.39
633.72	58.4
633.91	57.69
634.101	57.73
634.292	57.76
634.482	58.91
634.673	59.87
634.863	59.95
635.054	59.6
635.244	59.84
635.435	59.99
635.625	59.92
635.815	59.49
636.006	59.8
636.196	59.43
636.387	58.84
636.577	58.37
636.767	57.93
636.958	57.38
637.148	58.16
637.338	58.58
637.529	59.21
637.719	58.48
637.909	56.79
638.099	56.87
638.29	55.98
638.48	57.23
638.67	57.94
638.86	57.73
639.05	58.73
639.241	58.24
639.431	57.51
639.621	56.19
639.811	56.63
640.001	57.88
640.191	57.5
640.381	58.36
640.571	56.65
640.761	56.11
640.951	58.16
641.141	57.26
641.331	57.99
641.521	57.84
641.711	57.65
641.901	56.84
642.091	57.19
642.281	56.64
642.471	57.67
642.661	58.87
642.851	57.56
643.041	55.74
643.231	56.43
643.42	55.24
643.61	54.31
643.8	55.15
643.99	55.99
644.18	56.31
644.369	56.64
644.559	56.47
644.749	55.97
644.939	57.53
645.128	58.02
645.318	56.5
645.508	56.14
645.697	58
645.887	57.93
646.076	58.08
646.266	57.84
646.456	58.41
646.645	58.33
646.835	58.69
647.024	57.97
647.214	57.47
647.403	59.08
647.593	60.59
647.782	61
647.972	61.08
648.161	60.34
648.351	59.79
648.54	59.39
648.73	58.78
648.919	58.6
649.108	59.09
649.298	59.5
649.487	58.79
649.677	58.21
649.866	56.65
650.055	56.66
650.244	56.88
650.434	58.28
650.623	58.75
650.812	59.86
651.002	60.07
651.191	61.48
651.38	61.66
651.569	63.83
651.758	63.47
651.947	64.6
652.137	64.8
652.326	65.96
652.515	63.51
652.704	63.07
652.893	61.58
653.082	61.15
653.271	59.5
653.46	58.96
653.649	56.99
653.838	57.53
654.027	56.39
654.216	55.9
654.405	56.52
654.594	58.15
654.783	59.03
654.972	59.93
655.161	60.08
655.35	60.8
655.539	61.72
655.728	62.41
655.916	61.69
656.105	62.47
656.294	63.6
656.483	61.78
656.672	60.93
656.86	59.89
657.049	60.11
657.238	60.57
657.427	61.67
657.615	61.41
657.804	61.13
657.993	60.79
658.181	61.19
658.37	60.3
658.559	61.46
658.747	61.83
658.936	62.12
659.125	61.97
659.313	61.9
659.502	60.58
659.69	61.42
659.879	61.12
660.067	61.65
660.256	61.29
660.444	60.97
660.633	59.39
660.821	58.81
661.01	58.34
661.198	57.98
661.387	58.48
661.575	58.19
661.763	57.1
661.952	57.89
662.14	58.56
662.328	57.52
662.517	58.74
662.705	59.33
662.893	61.06
663.082	61.29
663.27	62.4
663.458	60.53
663.646	60.88
663.834	61.34
664.023	60.67
664.211	60.44
664.399	61.45
664.587	61.45
664.775	61.64
664.963	60.22
665.152	62.03
665.34	61.17
665.528	61.91
665.716	60.79
665.904	59.23
666.092	59.83
666.28	59.99
666.468	59.13
666.656	57.68
666.844	57.95
667.032	57.64
667.22	56.7
667.408	57.5
667.596	57.33
667.784	59.66
667.971	61.36
668.159	61.92
668.347	59.92
668.535	60.02
668.723	60.44
668.911	60.04
669.098	59.67
669.286	59.06
669.474	57.42
669.662	57.27
669.849	55.4
670.037	54.89
670.225	53.77
670.413	53.91
670.6	54.82
670.788	54.54
670.976	54.12
671.163	54.91
671.351	53.86
671.538	54.3
671.726	55.29
671.913	54.86
672.101	54.7
672.289	55.23
672.476	55.97
672.664	55.64
672.851	55.21
673.039	54.26
673.226	55.98
673.413	57.39
673.601	56.88
673.788	55.31
673.976	56.5
674.163	56.96
674.35	56.49
674.538	57.74
674.725	57.5
674.912	59.37
675.1	60.46
675.287	58.32
675.474	58.8
675.662	59.42
675.849	60.39
676.036	59.71
676.223	58.7
676.411	59.98
676.598	58.19
676.785	59.03
676.972	58.53
677.159	58.61
677.346	58.64
677.533	57.35
677.721	57.73
677.908	58.51
678.095	59.33
678.282	59.84
678.469	58.44
678.656	58.72
678.843	58.41
679.03	58.16
679.217	58.69
679.404	58.46
679.591	59.72
679.778	59.87
679.964	59.72
680.151	58.43
680.338	58.76
680.525	59.06
680.712	58.92
680.899	58.8
681.086	57.94
681.272	58
681.459	58.43
681.646	56.91
681.833	58.48
682.02	58.08
682.206	60.77
682.393	60.36
682.58	59.04
682.766	59.66
682.953	59.87
683.14	60.43
683.326	58.94
683.513	58.22
683.7	59.75
683.886	58.1
684.073	57.83
684.259	56.94
684.446	55.96
684.632	58.12
684.819	58.99
685.005	57.78
685.192	58.07
685.378	60.69
685.565	61.37
685.751	60.77
685.938	61.54
686.124	60.59
686.31	59.32
686.497	60.17
686.683	59.81
686.87	58.87
687.056	59.18
687.242	60.41
687.429	60.09
687.615	60.68
687.801	62.74
687.987	60.67
688.174	62.03
688.36	62.93
688.546	62.64
688.732	62.96
688.918	62.13
689.105	61.58
689.291	59.39
689.477	57.26
689.663	56.26
689.849	54.57
690.035	57.01
690.221	56.75
690.407	56.29
690.593	56.52
690.779	55.49
690.965	56.22
691.151	57.81
691.337	59.47
691.523	61.54
691.709	62.89
691.895	63.59
692.081	61
692.267	61.07
692.453	60.06
692.639	60.64
692.825	59.74
693.011	59.59
693.196	59.06
693.382	57.46
693.568	55.61
693.754	55.62
693.94	53.79
694.125	54.4
694.311	53.07
694.497	55.9
694.682	55.19
694.868	54.23
695.054	54.44
695.239	53.75
695.425	56.73
695.611	57.07
695.796	56.66
695.982	58.16
696.168	58.47
696.353	58.15
696.539	56.7
696.724	57.16
696.91	58.36
697.095	58.88
697.281	59.53
697.466	57.82
697.652	58.14
697.837	57.92
698.023	58.2
698.208	58.34
698.393	59.23
698.579	59.61
698.764	58.64
698.949	59.82
699.135	59.1
699.32	58.08
699.505	58.16
699.691	58.77
699.876	60.16
700.061	59.95
700.246	59.28
700.432	60.3
700.617	60.08
700.802	61.66
700.987	60.46
701.172	61.62
701.358	62.79
701.543	62.1
701.728	61.13
701.913	59.29
702.098	58.49
702.283	59.58
702.468	58.09
702.653	57.1
702.838	55
703.023	55.56
703.208	57.2
703.393	57.06
703.578	58.41
703.763	57.25
703.948	58.27
704.133	59.62
704.318	58.08
704.503	59.82
704.688	61.62
704.873	61.49
705.057	61.1
705.242	59.65
705.427	58.96
705.612	58.53
705.797	57.79
705.981	56.4
706.166	55.28
706.351	56.72
706.536	57.62
706.72	58.6
706.905	61.72
707.09	62.61
707.274	62.5
707.459	62.22
707.644	63.66
707.828	65.18
708.013	66.81
708.197	67.45
708.382	65.62
708.567	64.99
708.751	64.74
708.936	63.56
709.12	62.36
709.305	62.07
709.489	62.71
709.673	62.03
709.858	62.32
710.042	61.6
710.227	59.02
710.411	59.25
710.596	57.66
710.78	55.54
710.964	56.13
711.149	55.75
711.333	55.63
711.517	56.53
711.702	57.74
711.886	56.79
712.07	58.35
712.254	60.49
712.438	62.93
712.623	63.41
712.807	64.28
712.991	62.5
713.175	64.48
713.359	64.03
713.544	64.19
713.728	61.88
713.912	62.92
714.096	59.92
714.28	61.35
714.464	58.79
714.648	58.66
714.832	58.24
715.016	57.92
715.2	56.61
715.384	56.91
715.568	56.07
715.752	58.6
715.936	59.65
716.12	61.11
716.304	61.39
716.488	59.91
716.671	60.36
716.855	60.81
717.039	62.82
717.223	63.02
717.407	63.32
717.59	63.65
717.774	63.06
717.958	61.29
718.142	61.71
718.325	59.71
718.509	63.19
718.693	61.99
718.877	60.35
719.06	58.64
719.244	59.45
719.428	62.82
719.611	62.04
719.795	60.03
719.978	59.45
720.162	59.09
720.345	57.37
720.529	56.96
720.713	58.81
720.896	59.39
721.08	60.28
721.263	60.54
721.446	55.85
721.63	57.27
721.813	57.02
721.997	57.03
722.18	57.66
722.364	60.43
722.547	60.05
722.73	56.66
722.914	58.05
723.097	60.95
723.28	58.97
723.464	61.01
723.647	60.33
723.83	60.68
724.013	60.13
724.197	59.71
724.38	56.61
724.563	56.62
724.746	59.03
724.929	59.56
725.112	57.52
725.296	61.28
725.479	60.11
725.662	60.24
725.845	61.22
726.028	63.92
726.211	63.35
726.394	64.76
726.577	65.07
726.76	64.17
726.943	63.7
727.126	63.96
727.309	61.98
727.492	64.41
727.675	66.53
727.858	65.08
728.041	62.12
728.224	62.81
728.407	62.84
728.589	63.61
728.772	63.32
728.955	63.69
729.138	63.71
729.321	62.64
729.503	60.96
729.686	57.49
729.869	57.73
730.052	59.61
730.234	58.45
730.417	57.2
730.6	56.46
730.782	56.55
730.965	54.07
731.148	54.61
731.33	54.92
731.513	54.28
731.695	57.14
731.878	59.63
732.061	60.76
732.243	62.86
732.426	65.08
732.608	63.79
732.791	65.85
732.973	67.45
733.156	65.74
733.338	66.81
733.52	66.86
733.703	62.75
733.885	57.49
734.068	56.06
734.25	55.27
734.432	57.23
734.615	57.71
734.797	56.83
734.979	55.36
735.162	57.36
735.344	56.65
735.526	54.99
735.708	58.81
735.891	64.99
736.073	66.19
736.255	65.29
736.437	60.83
736.619	61.98
736.802	61.88
736.984	64.33
737.166	64.19
737.348	61.84
737.53	63.39
737.712	63.43
737.894	60.85
738.076	60.35
738.258	59.69
738.44	60.58
738.622	59.49
738.804	60.27
738.986	60.49
739.168	58.78
739.35	63.87
739.532	63.9
739.714	63.64
739.896	63.04
740.078	62.97
740.259	64.65
740.441	68.09
740.623	68.08
740.805	65.79
740.987	65.62
741.168	65.8
741.35	63.07
741.532	62.54
741.714	61.93
741.895	66.12
742.077	64.39
742.259	63.74
742.44	62.53
742.622	61.53
742.804	61.88
742.985	58.97
743.167	56.79
743.348	53.77
743.53	56.4
743.711	56.4
743.893	51.96
744.075	52.29
744.256	52.71
744.438	50.56
744.619	53.02
744.8	54.61
744.982	56.53
745.163	58.61
745.345	61.04
745.526	62.26
745.707	59.77
745.889	60.17
746.07	58.41
746.252	57.97
746.433	59.17
746.614	62.59
746.795	58.9
746.977	58.8
747.158	61.02
747.339	65.41
747.52	63.53
747.702	63.94
747.883	64.23
748.064	67.05
748.245	67.81
748.426	65.42
748.607	62.87
748.788	66.51
748.97	67.59
749.151	71.78
749.332	69.73
749.513	63.3
749.694	66.49
749.875	68.22
750.056	68.71
750.237	69.69
750.418	72.67
750.599	71.35
750.78	72.44
750.96	72.48
751.141	65.56
751.322	64.71
751.503	68.63
751.684	65.88
751.865	62.32
752.046	59.24
752.226	57.69
752.407	56.69
752.588	54.6
752.769	49.65
752.949	47.77
753.13	47.14
753.311	46.8
753.492	48.39
753.672	50.9
753.853	51.37
754.034	55.15
754.214	56.34
754.395	53.78
754.575	57.26
754.756	61.29
754.937	63.47
755.117	66.42
755.298	63.09
755.478	60.45
755.659	55.72
755.839	59.73
756.02	57.65
756.2	61.85
756.381	64.73
756.561	63.76
756.741	60.5
756.922	58.78
757.102	56.79
757.283	56.78
757.463	59.1
757.643	65.03
757.823	64.4
758.004	65.19
758.184	60.26
758.364	58.42
758.545	56.92
758.725	59.13
758.905	58.47
759.085	61.69
759.265	62.62
759.446	63.59
759.626	58.42
759.806	59.91
759.986	61.85
760.166	64.11
760.346	67.87
760.526	67.99
760.706	66.82
760.886	68.18
761.066	68.73
761.246	68.99
761.426	66.18
761.606	67.75
761.786	64.41
761.966	60.45
762.146	58.37
762.326	54.89
762.506	56.6
762.686	55.57
762.866	56.36
763.046	56.29
763.225	58.01
763.405	58.33
763.585	58.94
763.765	61.03
763.945	61.85
764.124	60.8
764.304	63.27
764.484	64.46
764.664	67.81
764.843	65.8
765.023	64.86
765.203	64.84
765.382	63.22
765.562	62.39
765.741	61.6
765.921	62.94
766.101	67.74
766.28	68.37
766.46	64.42
766.639	61.54
766.819	63.46
766.998	63.3
767.178	64.02
767.357	66.95
767.537	63.98
767.716	65.22
767.896	66.81
768.075	69.02
768.254	69.41
768.434	73.87
768.613	74.53
768.792	73.57
768.972	72.75
769.151	68.11
769.33	69.98
769.51	73.94
769.689	71.82
769.868	71.74
770.047	68.86
770.226	67.68
770.406	64.03
770.585	64.08
770.764	62.76
770.943	62.95
771.122	67.66
771.301	64.64
771.48	64.78
771.66	61.67
771.839	59.53
772.018	56.98
772.197	55.09
772.376	54.41
772.555	55.91
772.734	52.25
772.913	53.51
773.092	52.8
773.271	56.07
773.449	55.34
773.628	56.88
773.807	59.78
773.986	65.24
774.165	67.77
774.344	68.98
774.523	64.83
774.701	72.87
774.88	72.18
775.059	67.45
775.238	62.56
775.417	62.39
775.595	58.34
775.774	59.28
775.953	55
776.131	60.84
776.31	58.99
776.489	63.65
776.667	54.77
776.846	57.22
777.025	57.49
777.203	57.85
777.382	57.62
777.56	59.74
777.739	54.78
777.917	53.79
778.096	54.08
778.274	56.37
778.453	51.67
778.631	60.73
778.81	55.79
778.988	60.61
779.166	60.78
779.345	57.62
779.523	54.5
779.702	57.73
779.88	57.11
780.058	45.96
780.237	46.6
780.415	49.59
780.593	50.26
780.771	52.5
780.95	54.91
781.128	55.26
781.306	59.23
781.484	60.84
781.662	62.2
781.841	61.28
782.019	61.46
782.197	57.48
782.375	61.37
782.553	57.39
782.731	55.11
782.909	51.72
783.087	52.21
783.265	49.48
783.443	51.11
783.621	50
783.799	49.67
783.977	56.22
784.155	65.27
784.333	65.39
784.511	72.81
784.689	75.12
784.867	73.72
785.045	70.39
785.223	72.56
785.4	76.66
785.578	79.19
785.756	87.62
785.934	81.15
786.112	78.71
786.289	70.83
786.467	63.81
786.645	65.19
786.823	64.8
787	68.95
787.178	67.56
787.356	61.45
787.533	55.12
787.711	56.48
787.889	58.37
788.066	60.49
788.244	64.67
788.421	66.88
788.599	61.17
788.776	63.92
788.954	62.99
789.131	59.88
789.309	59.04
789.486	59.92
789.664	53.94
789.841	54.28
790.019	49.72
790.196	49.87
790.373	47.76
790.551	50.66
790.728	48.97
790.906	51.17
791.083	66.99
791.26	74.24
791.437	75.14
791.615	74.29
791.792	76.55
791.969	74.34
792.146	72.09
792.324	76.23
792.501	77.17
792.678	72.89
792.855	67.33
793.032	60.24
793.209	50.84
793.387	53.22
793.564	52.27
793.741	51.95
793.918	53.73
794.095	50
794.272	48.55
794.449	47.48
794.626	54.46
794.803	55.37
794.98	52.89
795.157	54.11
795.334	63.09
795.511	65.47
795.688	67.05
795.864	68.14
796.041	77.86
796.218	73.16
796.395	76.26
796.572	74.58
796.749	78.37
796.925	80
797.102	84.63
797.279	73.48
797.456	75.68
797.632	75.8
797.809	78.15
797.986	75.06
798.162	73.98
798.339	79.23
798.516	79.58
798.692	70.58
798.869	68.68
799.046	64.62
799.222	58.08
799.399	47.89
799.575	53.24
799.752	51.49
799.928	55.97
800.105	57.36
800.281	51.17
800.458	53.36
800.634	52.39
800.811	43.61
800.987	50.81
801.163	57.89
801.34	64.15
801.516	56.26
801.692	59.88
801.869	53.84
802.045	56.6
802.221	57.61
802.398	57.74
802.574	61.9
802.75	66.82
802.926	58.18
803.103	64.44
803.279	62.77
803.455	60.14
803.631	56.09
803.807	57.91
803.983	58.73
804.16	60.06
804.336	59.12
804.512	60.98
804.688	60.22
804.864	65.34
805.04	56.76
805.216	55.83
805.392	60.27
805.568	69.83
805.744	70.46
805.92	71.24
806.096	71.79
806.272	70.28
806.448	71.58
806.623	76.54
806.799	78.03
806.975	78.66
807.151	79.31
807.327	84.27
807.503	80.62
807.678	82.66
807.854	72.92
808.03	69.49
808.206	74.8
808.381	79.55
808.557	74.1
808.733	67.53
808.908	70.59
809.084	72.35
809.26	68.95
809.435	57.65
809.611	58.97
809.787	68.8
809.962	75.47
810.138	62.55
810.313	51.3
810.489	64.34
810.664	54.5
810.84	62.11
811.015	61.67
811.191	57.96
811.366	71.38
811.542	67.03
811.717	71.99
811.892	76.81
812.068	81.06
812.243	78.06
812.419	71.29
812.594	65.63
812.769	69.58
812.944	68.2
813.12	72.61
813.295	63.99
813.47	59.94
813.645	54.23
813.821	55.37
813.996	54.97
814.171	59.25
814.346	61.64
814.521	79.62
814.697	71.12
814.872	72.99
815.047	71.55
815.222	74.76
815.397	80.14
815.572	78.24
815.747	65.98
815.922	67.51
816.097	66.89
816.272	71.94
816.447	70.89
816.622	73.34
816.797	82.16
816.972	85.68
817.147	79.9
817.322	72.88
817.496	78.54
817.671	83.75
817.846	79.65
818.021	77.79
818.196	72.07
818.371	71.71
818.545	69.4
818.72	63.03
818.895	63.98
819.069	65.53
819.244	67.23
819.419	64.44
819.594	59.51
819.768	60.14
819.943	60.96
820.117	58.88
820.292	58.08
820.467	56.07
820.641	55.94
820.816	53.72
820.99	55.5
821.165	56.09
821.339	55.32
821.514	55.14
821.688	55.49
821.863	54.87
822.037	55.64
822.212	58.23
822.386	59.93
822.56	60.21
822.735	61.86
822.909	59.11
823.084	58.56
823.258	60.33
823.432	64.59
823.606	64.02
823.781	67.95
823.955	72.05
824.129	64.33
824.303	64.23
824.478	68.02
824.652	66.75
824.826	70.56
825	71.13
825.174	71.11
825.348	65.83
825.523	69.18
825.697	65.8
825.871	61.85
826.045	62.47
826.219	60.56
826.393	58.49
826.567	58.37
826.741	59.74
826.915	60
827.089	59.13
827.263	58.27
827.437	57.14
827.611	59
827.784	60.32
827.958	61.83
828.132	63.14
828.306	60.26
828.48	61.69
828.654	65.53
828.827	65.77
829.001	67.55
829.175	72.57
829.349	72.34
829.522	71.5
829.696	64.22
829.87	65.47
830.044	71
830.217	73.28
830.391	62.48
830.565	52.42
830.738	46.47
830.912	44.3
831.085	37.59
831.259	40.59
831.432	51.61
831.606	60.56
831.779	67.16
831.953	61.31
832.126	64.18
832.3	71.39
832.473	72.36
832.647	77.34
832.82	69.92
832.994	77.84
833.167	70.05
833.34	64.43
833.514	69.9
833.687	64.04
833.86	69.95
834.034	67.88
834.207	73.43
834.38	70.02
834.553	70.26
834.727	77.08
834.9	76.31
835.073	87.23
835.246	90.53
835.419	84.54
835.593	91
835.766	73.83
835.939	76.06
836.112	54.14
836.285	58.64
836.458	51.8
836.631	55.57
836.804	49.26
836.977	58.28
837.15	53.18
837.323	41.61
837.496	22.79
837.669	42.61
837.842	36.27
838.015	68.83
838.188	57.79
838.361	63.72
838.533	44.85
838.706	50.95
838.879	45.59
839.052	41.2
839.225	58.88
839.398	56.89
839.57	62.52
839.743	57.72
839.916	51.76
840.088	70.33
840.261	61.46
840.434	66.89
840.607	64.95
840.779	59.8
840.952	68.01
841.124	50.34
841.297	63.49
841.47	84.46
841.642	82.92
841.815	65.69
841.987	57.77
842.16	56.05
842.332	63.83
842.505	53.94
842.677	49.18
842.85	39.49
843.022	44.14
843.194	44.04
843.367	12.69
843.539	13.75
843.712	26.25
843.884	16.15
844.056	14.02
844.229	-5.01
844.401	-28.86
844.573	-31.74
844.745	-12.96
844.918	-9.42
845.09	-14.37
845.262	-18.46
845.434	-37.5
845.606	-21.96
845.779	-66.6
845.951	-27.77
846.123	-5.25
846.295	44.22
846.467	65.58
846.639	128.52
846.811	135.8
846.983	139.35
847.155	252.63
847.327	98.02
847.499	65.76
847.671	65.52
847.843	44.55
848.015	7.18
848.187	-16.49
848.359	-125.84
848.531	-60.49
848.703	0.48
848.875	-33.06
849.047	-137.25
849.218	-60.17
849.39	29.57
849.562	15.38
849.734	12.25
849.905	49.3
850.077	20.59
850.249	32.81
850.421	32.98
850.592	52.18
850.764	51.72
850.936	79.06
851.107	61.62
851.279	53.85
851.451	54.89
851.622	66.24
851.794	55.69
851.965	65.79
852.137	70.92
852.308	57.23
852.48	57.29
852.651	84.34
852.823	60.03
852.994	86.97
853.166	95.56
853.337	108.82
853.509	91.84
853.68	85.26
853.851	84.15
854.023	75.09
854.194	93.35
854.365	92.79
854.537	72.34
854.708	75.92
854.879	69.58
855.05	68.01
855.222	75.96
855.393	71.52
855.564	81.69
855.735	68.1
855.906	83.06
856.078	62.85
856.249	32.25
856.42	64.66
856.591	48.44
856.762	65.48
856.933	78.7
857.104	50.87
857.275	44.44
857.446	17.91
857.617	41.26
857.788	52.75
857.959	57.56
858.13	52.75
858.301	47.86
858.472	48.37
858.643	44
858.814	48.13
858.985	60.33
859.155	61.83
859.326	86.71
859.497	85.03
859.668	60.73
859.839	42.27
860.009	51.07
860.18	51.57
860.351	60.46
860.522	63.2
860.692	40.37
860.863	7.17
861.034	62.67
861.204	68.22
861.375	67.91
861.546	100.98
861.716	135.2
861.887	108.27
862.057	107.42
862.228	103.71
862.398	90.94
862.569	87.28
862.739	96.89
862.91	71.34
863.08	73.14
863.251	71.28
863.421	65.3
863.592	70.35
863.762	76.67
863.932	81.81
864.103	74.04
864.273	58.5
864.443	72.65
864.614	83.27
864.784	73.28
864.954	73.09
865.125	67.63
865.295	62.56
865.465	70.1
865.635	66.85
865.805	47.82
865.976	61.27
866.146	74.37
866.316	61.73
866.486	60.67
866.656	61.48
866.826	65.75
866.996	65.56
867.166	76.4
867.336	70.34
867.506	81
867.676	111.69
867.846	83.48
868.016	92.19
868.186	113.27
868.356	25.48
868.526	-2.08
868.696	-14400
868.866	58.82
869.036	-3.67
869.206	-212.9
869.376	-490.24
869.545	-98.89
869.715	-102.04
869.885	-137.23
870.055	-12.55
870.224	29.87
870.394	27.27
870.564	51.81
870.734	40.7
870.903	29.31
871.073	100.51
871.243	130
871.412	225.89
871.582	154.84
871.751	201.55
871.921	188.45
872.091	131.87
872.26	122.82
872.43	119.85
872.599	80.95
872.769	84
872.938	53.51
873.108	34.6
873.277	12.99
873.446	31.02
873.616	11.97
873.785	3.7
873.955	34.66
874.124	43.88
874.293	31.09
874.463	26.09
874.632	-26.03
874.801	2.88
874.971	16.04
875.14	23.47
875.309	-0.81
875.478	3.33
875.647	7.96
875.817	7.99
875.986	-15.58
876.155	-0.8
876.324	16.03
876.493	34.95
876.662	12.96
876.831	22.16
877	29.83
877.17	34.41
877.339	45.77
877.508	45.03
877.677	51.53
877.846	55.13
878.015	49.22
878.184	48.55
878.352	50.48
878.521	52.47
878.69	53.24
878.859	55.51
879.028	64.57
879.197	60.16
879.366	62.86
879.534	55.37
879.703	53.18
879.872	54.43
880.041	55.62
880.21	54.51
880.378	56.5
880.547	57.36
880.716	65.07
880.884	64.92
881.053	69.09
881.222	64.12
881.39	64.64
881.559	68.93
881.727	72.17
881.896	72.39
882.065	81.99
882.233	85.95
882.402	79.37
882.57	70.26
882.739	68.15
882.907	65.16
883.076	66.57
883.244	69.72
883.412	73.04
883.581	71.41
883.749	78.41
883.918	66.96
884.086	62.44
884.254	62.17
884.423	67.25
884.591	76.11
884.759	64.68
884.927	81.46
885.096	77.44
885.264	29.81
885.432	13.54
885.6	4.42
885.769	22.11
885.937	14.26
886.105	54.81
886.273	64.47
886.441	50.89
886.609	68.01
886.777	56.53
886.945	55.72
887.113	63.87
887.281	69.9
887.449	63.88
887.617	60.33
887.785	70.75
887.953	48.56
888.121	40.64
888.289	49.12
888.457	47.23
888.625	59.36
888.793	69.75
888.961	69.97
889.129	65.67
889.296	87.85
889.464	80.73
889.632	67.86
889.8	87.54
889.967	96.22
890.135	74.02
