Data from JASIL_3018_Reflection_01.txt Node
Date: Mon Nov 09 10:42:04 EST 2015
User: Geneva
Spectrometer: USB4E03002
Autoset integration time: false
Trigger mode: 4
Integration Time (sec): 1.000000E-1
Scans to average: 10
Electric dark correction enabled: false
Nonlinearity correction enabled: false
Boxcar width: 5
Stray light correction enabled: false
XAxis mode: Wavelengths
Stop averaging: false
Number of Pixels in Spectrum: 3648
>>>>>Begin Spectral Data<<<<<
177.575	60.11
177.794	72.92
178.014	78.65
178.233	140.3
178.452	113.53
178.672	261.4
178.891	-100
179.11	134.15
179.33	918.18
179.549	58.33
179.768	53.41
179.987	19.44
180.207	-193.33
180.426	-289.55
180.645	-63.67
180.864	2.16
181.084	21.53
181.303	31.94
181.522	11.05
181.741	12.94
181.96	-22.13
182.179	19.7
182.398	-10.49
182.618	-11.03
182.837	38.35
183.056	32.63
183.275	57.04
183.494	-138.89
183.713	-160
183.932	-26.6
184.151	36.36
184.37	-1.57
184.589	-1488.89
184.808	200.51
185.027	25.45
185.246	44.17
185.465	82.84
185.684	119.08
185.903	46.62
186.122	36.21
186.341	47.99
186.56	32.63
186.779	-63.27
186.998	215.38
187.216	190.4
187.435	106.77
187.654	32.53
187.873	77.08
188.092	92.48
188.311	78.45
188.53	68.72
188.748	62.61
188.967	65.99
189.186	-24.73
189.405	16.85
189.623	71.96
189.842	-184.13
190.061	6820
190.28	271.28
190.498	120
190.717	56.67
190.936	54.02
191.154	81.12
191.373	56.78
191.592	114.69
191.81	104.8
192.029	133.86
192.248	-0.43
192.466	-31.86
192.685	4.93
192.904	173.91
193.122	-289.86
193.341	4780
193.559	-2166.67
193.778	-325
193.996	-491.07
194.215	-342.55
194.433	-247.71
194.652	-194.3
194.87	-40.81
195.089	-21.1
195.307	-67.33
195.526	25.93
195.744	76.1
195.963	92.65
196.181	-438.3
196.399	-107.83
196.618	-109.49
196.836	-19.18
197.055	-40.19
197.273	52.43
197.491	116.5
197.71	97.74
197.928	74.39
198.146	138.37
198.365	149.77
198.583	3044.44
198.801	-107.96
199.019	-38.61
199.238	-13.54
199.456	-78.78
199.674	-67.24
199.892	-125
200.111	-126
200.329	-453.57
200.547	2233.33
200.765	-357.14
200.983	250.99
201.202	184.52
201.42	201.79
201.638	119.61
201.856	299.26
202.074	328.28
202.292	415.87
202.51	352.78
202.728	4900
202.946	-90.91
203.165	226.32
203.383	157.69
203.601	400
203.819	-146.51
204.037	15
204.255	-3
204.473	53.38
204.691	-70.59
204.909	238.1
205.127	-206.06
205.345	-196.08
205.562	-1.85
205.78	276
205.998	423.19
206.216	269.81
206.434	96.63
206.652	-928.57
206.87	366.1
207.088	60.61
207.306	38.22
207.523	-6.82
207.741	63.74
207.959	40.54
208.177	3.97
208.395	124.77
208.612	83.79
208.83	31.19
209.048	21.14
209.266	0
209.483	91.8
209.701	-396.55
209.919	4600
210.136	-100
210.354	541.67
210.572	-174.47
210.79	-105.56
211.007	18.25
211.225	96.49
211.442	-363.16
211.66	234.43
211.878	493.42
212.095	790.57
212.313	11433.33
212.53	292.62
212.748	224.64
212.966	856.1
213.183	22800
213.401	215.49
213.618	173.46
213.836	187.25
214.053	221.13
214.271	204.03
214.488	111.81
214.705	120.24
214.923	166.15
215.14	213.39
215.358	205.59
215.575	186.52
215.793	527.27
216.01	1279.17
216.227	418.52
216.445	-82.46
216.662	-248.98
216.879	-67.55
217.097	-31.46
217.314	-75
217.531	-162.07
217.749	30.7
217.966	-50.77
218.183	22.11
218.4	68.44
218.618	87.85
218.835	52.05
219.052	50.6
219.269	50.44
219.487	69.46
219.704	72.65
219.921	67.93
220.138	114.2
220.355	64.47
220.572	-2566.67
220.79	267.59
221.007	122.79
221.224	154.17
221.441	71.14
221.658	31.75
221.875	37.69
222.092	45.34
222.309	83.12
222.526	102.55
222.743	115.85
222.96	107.9
223.177	97.74
223.394	72.38
223.611	75.11
223.828	75.08
224.045	78.58
224.262	75.53
224.479	76.78
224.696	51.48
224.913	45.37
225.13	45.43
225.347	58.84
225.564	54.77
225.781	43.46
225.997	43.46
226.214	40.8
226.431	31.19
226.648	30.65
226.865	29.2
227.082	30.94
227.298	30.89
227.515	20.78
227.732	15.4
227.949	8.32
228.165	5.35
228.382	8.39
228.599	9.12
228.816	11.83
229.032	6.03
229.249	-0.04
229.466	-5.12
229.682	-8.77
229.899	2.84
230.116	2.99
230.332	15.71
230.549	24.67
230.765	15.12
230.982	14.73
231.199	27.06
231.415	32.01
231.632	36.41
231.848	41.4
232.065	41.9
232.281	36.42
232.498	28.32
232.714	31.36
232.931	32.83
233.147	30.1
233.364	24.55
233.58	7.43
233.797	2.38
234.013	-1.71
234.23	-6.09
234.446	-9.25
234.662	-3.84
234.879	2.96
235.095	-1.48
235.312	-13.94
235.528	-12.75
235.744	-5.08
235.961	1.31
236.177	2.32
236.393	0.83
236.61	-1.58
236.826	-3.63
237.042	-0.19
237.258	1.56
237.475	-1.86
237.691	1.89
237.907	8.94
238.123	7.93
238.339	7.95
238.556	13.6
238.772	18.82
238.988	16.48
239.204	26.43
239.42	25.81
239.636	22.61
239.853	25.89
240.069	25.56
240.285	18.56
240.501	19.3
240.717	20.47
240.933	17.59
241.149	15.24
241.365	13.49
241.581	8.42
241.797	8.32
242.013	10.33
242.229	7.56
242.445	5.93
242.661	9.89
242.877	7.95
243.093	4.4
243.309	0.6
243.525	-0.4
243.741	10.9
243.957	11.69
244.173	12.1
244.388	8.76
244.604	11.31
244.82	13.82
245.036	11.85
245.252	11.23
245.468	12.18
245.683	12.24
245.899	11.95
246.115	10.43
246.331	9.98
246.547	9.27
246.762	9.73
246.978	8.77
247.194	7.75
247.409	10.27
247.625	9.2
247.841	8.13
248.057	10.28
248.272	9.24
248.488	7.48
248.703	7.77
248.919	10.3
249.135	11.9
249.35	14.87
249.566	17.23
249.782	12.09
249.997	15.54
250.213	22.61
250.428	21.95
250.644	25.65
250.859	28.75
251.075	31.81
251.29	30.02
251.506	32.68
251.721	33.96
251.937	32.85
252.152	35.1
252.368	35.03
252.583	30.29
252.798	35.67
253.014	33.6
253.229	33.27
253.445	22.4
253.66	18.08
253.875	5.14
254.091	0.39
254.306	2.36
254.521	1.49
254.737	-6.34
254.952	-1.9
255.167	-4.35
255.383	-6
255.598	-9.41
255.813	-0.51
256.028	-2.13
256.244	5.34
256.459	6.12
256.674	7.88
256.889	7.06
257.104	13.15
257.32	11.92
257.535	9.86
257.75	11.45
257.965	11.83
258.18	12.39
258.395	11.65
258.61	10.22
258.826	10.64
259.041	8.97
259.256	8.06
259.471	5.78
259.686	4.98
259.901	4.56
260.116	1.83
260.331	3.24
260.546	2.01
260.761	5.12
260.976	6.49
261.191	2.63
261.406	4.82
261.621	9.37
261.836	10.37
262.05	13.11
262.265	12.66
262.48	13.01
262.695	11.92
262.91	13.29
263.125	8.57
263.34	5.63
263.555	5.82
263.769	6.71
263.984	5.36
264.199	6.58
264.414	1.64
264.629	1.46
264.843	-0.12
265.058	-0.91
265.273	-3.14
265.488	2.88
265.702	2.91
265.917	3.81
266.132	4.92
266.346	6.61
266.561	6.19
266.776	8.13
266.99	7.1
267.205	10.79
267.42	8.35
267.634	10.1
267.849	8.05
268.063	8.85
268.278	10.51
268.492	9.3
268.707	6.87
268.922	6.02
269.136	5.43
269.351	7.7
269.565	5.36
269.78	4.54
269.994	2.9
270.209	1.92
270.423	0.19
270.637	-2.26
270.852	-0.64
271.066	0.54
271.281	0.41
271.495	1.62
271.709	0.65
271.924	1.49
272.138	1.12
272.353	1.62
272.567	2.34
272.781	3.83
272.996	6.34
273.21	4.41
273.424	5.05
273.638	6.24
273.853	4.14
274.067	4.99
274.281	4.94
274.495	8.69
274.71	5.76
274.924	6.83
275.138	10.13
275.352	10.34
275.566	10.53
275.781	7.63
275.995	7.84
276.209	8.21
276.423	9.56
276.637	7.88
276.851	9
277.065	12.23
277.279	10.56
277.493	8.48
277.707	7.39
277.921	7.33
278.135	9.57
278.349	11.48
278.563	11.28
278.777	11.94
278.991	15.04
279.205	14.06
279.419	12.43
279.633	12.51
279.847	11.75
280.061	9.15
280.275	7.96
280.489	5.36
280.703	2.07
280.917	4.67
281.131	5.42
281.344	-0.23
281.558	0.55
281.772	1.3
281.986	0.48
282.2	0.8
282.414	4.4
282.627	5.28
282.841	4.64
283.055	7.5
283.269	6.29
283.482	2.63
283.696	6.75
283.91	6.44
284.123	5.86
284.337	6.6
284.551	5.07
284.764	3.2
284.978	3.98
285.192	6.86
285.405	6.15
285.619	6.05
285.833	6.76
286.046	5.01
286.26	1.82
286.473	1.44
286.687	-0.77
286.9	1.27
287.114	1.84
287.327	1.2
287.541	0.03
287.754	1.68
287.968	3.36
288.181	4.11
288.395	3.42
288.608	4.96
288.822	4.96
289.035	6.85
289.248	7.07
289.462	8.23
289.675	6.63
289.889	5.14
290.102	2.64
290.315	-0.01
290.529	1.76
290.742	6.08
290.955	7.18
291.169	9.35
291.382	8.72
291.595	9.39
291.808	9.1
292.022	8.65
292.235	9.42
292.448	8.5
292.661	10.21
292.875	8.41
293.088	5.22
293.301	6.25
293.514	6.07
293.727	5.85
293.94	4.87
294.153	3.66
294.367	5.14
294.58	4.97
294.793	6.65
295.006	5.12
295.219	4.84
295.432	5.03
295.645	3.72
295.858	2.85
296.071	2.67
296.284	1.97
296.497	4.53
296.71	3.03
296.923	2.17
297.136	-0.22
297.349	-0.08
297.562	-1.14
297.775	-1.46
297.988	-2.26
298.201	-2.67
298.414	-1.39
298.626	0.59
298.839	-2.9
299.052	-0.66
299.265	1.11
299.478	2.24
299.691	4.49
299.903	7.07
300.116	7.11
300.329	9.66
300.542	12.57
300.755	12.01
300.967	12.12
301.18	12.41
301.393	14.09
301.605	12.24
301.818	12.36
302.031	11.2
302.243	9.42
302.456	11.23
302.669	8.95
302.881	6.11
303.094	3.48
303.307	3.81
303.519	3.13
303.732	-2.22
303.944	-2.56
304.157	-1.55
304.37	-2.07
304.582	-2.2
304.795	-3.5
305.007	-2.69
305.22	-2.16
305.432	1.01
305.645	0.27
305.857	0.5
306.069	3.96
306.282	4.59
306.494	4.66
306.707	4.59
306.919	6.16
307.132	4.52
307.344	4.14
307.556	7.02
307.769	7.83
307.981	6.39
308.193	9.38
308.406	9.79
308.618	9.68
308.83	10.69
309.043	11.59
309.255	10.81
309.467	12.83
309.679	12.98
309.892	10.3
310.104	10.83
310.316	12.93
310.528	8.98
310.74	7.97
310.953	10.47
311.165	9.31
311.377	9.04
311.589	6.52
311.801	5.91
312.013	4.4
312.225	4.83
312.437	2.06
312.649	-1.81
312.862	1.8
313.074	1.77
313.286	1.3
313.498	1.65
313.71	3.22
313.922	7.98
314.134	8.7
314.346	8.95
314.558	9.3
314.77	11.38
314.982	13.08
315.193	14.79
315.405	17.12
315.617	16.75
315.829	18.66
316.041	16.86
316.253	16.5
316.465	14.94
316.677	17.92
316.888	17.06
317.1	16.74
317.312	17.65
317.524	15.56
317.736	15.83
317.947	15.22
318.159	15.09
318.371	13.99
318.583	13.09
318.794	14.76
319.006	11.63
319.218	12.13
319.43	10.11
319.641	9.7
319.853	9.86
320.064	8.46
320.276	6.64
320.488	5.48
320.699	6.7
320.911	7.33
321.123	8.31
321.334	9.44
321.546	9.7
321.757	13.7
321.969	14.12
322.18	14.98
322.392	15.69
322.603	16.82
322.815	15.21
323.026	16.01
323.238	18.04
323.449	15.26
323.661	16.18
323.872	15.08
324.083	14.41
324.295	12.84
324.506	10.15
324.718	9.85
324.929	8.23
325.14	7.77
325.352	6.61
325.563	2.35
325.774	5.2
325.986	4.82
326.197	5.72
326.408	2.95
326.62	5.06
326.831	5.8
327.042	7.36
327.253	7.42
327.464	9.75
327.676	8.87
327.887	9.72
328.098	7.03
328.309	5.84
328.52	6.29
328.732	9.46
328.943	9.26
329.154	10.53
329.365	7.43
329.576	9.11
329.787	8.8
329.998	10.34
330.209	10.74
330.42	13.59
330.631	17.77
330.842	16.82
331.053	16.91
331.264	17.19
331.475	15.14
331.686	16.47
331.897	16.2
332.108	15.63
332.319	16.53
332.53	17.98
332.741	18.13
332.952	16.75
333.163	18.06
333.374	17.97
333.585	17.9
333.795	20.23
334.006	20.15
334.217	20.59
334.428	19.17
334.639	18.74
334.849	17.21
335.06	14.02
335.271	13.16
335.482	13.45
335.692	14.04
335.903	13.09
336.114	10.99
336.325	11.61
336.535	11.8
336.746	12.45
336.957	11.21
337.167	11.54
337.378	13.89
337.589	12.59
337.799	11.64
338.01	10.35
338.22	11.67
338.431	12.03
338.642	10.28
338.852	8.58
339.063	10.04
339.273	8.7
339.484	8.74
339.694	6.47
339.905	6.53
340.115	5.95
340.326	6.08
340.536	5.57
340.746	6.1
340.957	5.47
341.167	6.55
341.378	6.63
341.588	9.51
341.799	8.48
342.009	9.35
342.219	9.02
342.43	10.66
342.64	9.92
342.85	9.83
343.061	9.06
343.271	9.98
343.481	8.4
343.691	5.66
343.902	3.89
344.112	5
344.322	5.09
344.532	5.68
344.743	4.96
344.953	5.17
345.163	6.1
345.373	7.88
345.583	9.09
345.793	10.23
346.004	11.71
346.214	12.32
346.424	10.26
346.634	9.07
346.844	10.24
347.054	9.89
347.264	8.53
347.474	7.04
347.684	5.65
347.894	4.08
348.104	5.06
348.314	5.3
348.524	4.63
348.734	7.73
348.944	8.97
349.154	9.67
349.364	11.57
349.574	14.29
349.784	13.91
349.994	13.04
350.204	14.29
350.413	13.83
350.623	13.22
350.833	11.97
351.043	10.17
351.253	11.09
351.463	8.68
351.672	6.58
351.882	3.77
352.092	6
352.302	7.36
352.511	8.43
352.721	7.19
352.931	7.36
353.141	8.17
353.35	8.72
353.56	9.4
353.77	11.34
353.979	10.11
354.189	11.97
354.399	11.18
354.608	11.83
354.818	9.67
355.027	9.85
355.237	10.12
355.447	11.81
355.656	10.68
355.866	9.14
356.075	7.67
356.285	9.54
356.494	8.61
356.704	8.93
356.913	9.4
357.123	8.75
357.332	8.02
357.542	7.76
357.751	6.27
357.96	6.27
358.17	6.2
358.379	7.16
358.589	7.8
358.798	7.99
359.007	8.51
359.217	8.34
359.426	9.88
359.635	10.27
359.845	10.61
360.054	11.19
360.263	11.61
360.472	11.93
360.682	11.24
360.891	9.89
361.1	9.97
361.309	8.03
361.519	7.22
361.728	6.59
361.937	6.54
362.146	6.29
362.355	6.86
362.564	7.79
362.774	8.93
362.983	8.97
363.192	10.79
363.401	10.42
363.61	11.34
363.819	11.4
364.028	11.56
364.237	11.94
364.446	11.34
364.655	10.15
364.864	11.72
365.073	11.45
365.282	11.53
365.491	11.8
365.7	13.12
365.909	14.61
366.118	15.64
366.327	15.98
366.536	17.19
366.745	18.2
366.954	19.04
367.162	16.96
367.371	16.6
367.58	17.11
367.789	14.48
367.998	13.03
368.207	12.71
368.415	11.05
368.624	10.51
368.833	10.28
369.042	10.03
369.25	9.62
369.459	9.32
369.668	8.91
369.877	8.08
370.085	9.28
370.294	10.11
370.503	8.81
370.711	9.53
370.92	8.82
371.129	7.03
371.337	7.41
371.546	7.59
371.754	8.1
371.963	7.37
372.171	9.03
372.38	9.5
372.589	8.69
372.797	8.7
373.006	8.6
373.214	9.01
373.423	11.19
373.631	10.34
373.84	10.56
374.048	10.18
374.256	10.96
374.465	10.11
374.673	9.14
374.882	10.28
375.09	10.31
375.298	8.85
375.507	9.01
375.715	7.95
375.923	9.12
376.132	9.46
376.34	9.71
376.548	8.75
376.757	8.89
376.965	9.05
377.173	8.29
377.381	9
377.59	10.66
377.798	10.18
378.006	9.82
378.214	9.39
378.423	9.26
378.631	9.16
378.839	9.88
379.047	9.88
379.255	10.53
379.463	9.54
379.671	11.18
379.879	10.96
380.088	10.6
380.296	10.5
380.504	9.26
380.712	8.65
380.92	7.69
381.128	7.8
381.336	7.47
381.544	7.37
381.752	8.63
381.96	7.02
382.168	6.78
382.376	8.57
382.584	8.27
382.791	9.2
382.999	9.78
383.207	11.41
383.415	12.02
383.623	11.45
383.831	10.12
384.039	10.61
384.247	11.16
384.454	11.16
384.662	10.89
384.87	12.54
385.078	13.36
385.285	12.31
385.493	11.35
385.701	11.09
385.909	11.99
386.116	11.9
386.324	10.4
386.532	8.74
386.739	9
386.947	8.38
387.155	6.9
387.362	5.52
387.57	6.22
387.778	6.2
387.985	5.09
388.193	4.51
388.4	5.53
388.608	5.59
388.816	5.76
389.023	5.47
389.231	5.58
389.438	5.25
389.646	4.87
389.853	4.84
390.061	5.28
390.268	6.16
390.475	6.64
390.683	5.65
390.89	5.69
391.098	5.41
391.305	6.82
391.512	7.15
391.72	8.14
391.927	8.93
392.135	9.23
392.342	8.83
392.549	7.48
392.756	7.41
392.964	8.63
393.171	8.82
393.378	9.58
393.586	8.3
393.793	7.69
394	7.38
394.207	7.59
394.414	7.5
394.622	7.18
394.829	7.62
395.036	8.16
395.243	8.81
395.45	8.62
395.657	7.98
395.864	7.23
396.072	7.74
396.279	7.4
396.486	7.92
396.693	7.9
396.9	7.55
397.107	8.56
397.314	6.81
397.521	6.15
397.728	5.72
397.935	5.94
398.142	6.87
398.349	7.11
398.556	6.19
398.763	4.35
398.97	3.67
399.177	4.24
399.383	4.23
399.59	4.45
399.797	4.25
400.004	4.6
400.211	5.41
400.418	3.83
400.625	3.51
400.831	4.23
401.038	6.29
401.245	7.69
401.452	8.75
401.658	7.96
401.865	8.8
402.072	8.53
402.279	9.53
402.485	8.06
402.692	9.36
402.899	9.42
403.105	10.65
403.312	9.96
403.519	10.3
403.725	9.88
403.932	10.21
404.138	10.19
404.345	9.04
404.552	7.65
404.758	8.55
404.965	8.17
405.171	7.88
405.378	6.88
405.584	6.25
405.791	4.76
405.997	4.71
406.204	5.52
406.41	5.32
406.617	7.13
406.823	8.34
407.029	8.84
407.236	9.19
407.442	9.31
407.649	8.24
407.855	9.22
408.061	9.34
408.268	9.57
408.474	8.03
408.68	7.47
408.887	7.1
409.093	6.31
409.299	4.67
409.505	4.46
409.712	4.19
409.918	5.24
410.124	5
410.33	4.23
410.537	4.72
410.743	6.71
410.949	6.8
411.155	7.04
411.361	8.05
411.567	8.88
411.773	9.16
411.98	10.01
412.186	10.17
412.392	10.23
412.598	10.29
412.804	8.54
413.01	7.66
413.216	7.85
413.422	7.71
413.628	7.16
413.834	7.42
414.04	6.59
414.246	5.84
414.452	5.47
414.658	5.28
414.864	6.09
415.07	6.62
415.275	5.79
415.481	6.2
415.687	5.42
415.893	5.17
416.099	4.97
416.305	5.38
416.511	5.64
416.716	5.87
416.922	5.63
417.128	4.95
417.334	5.3
417.539	5.6
417.745	5.59
417.951	5.82
418.157	6.08
418.362	6.01
418.568	5.91
418.774	5.68
418.979	5.1
419.185	5.83
419.391	5.95
419.596	5.56
419.802	5.83
420.008	5.72
420.213	6.12
420.419	5.82
420.624	6.31
420.83	6.41
421.035	6.42
421.241	7.23
421.446	6.74
421.652	6.79
421.857	6.76
422.063	6.29
422.268	6.15
422.474	5.77
422.679	5.87
422.885	5.31
423.09	5
423.295	4.75
423.501	4.24
423.706	4.37
423.911	4.57
424.117	4.61
424.322	4.55
424.527	4.68
424.733	4.97
424.938	5.06
425.143	5.37
425.349	5.99
425.554	5.71
425.759	6.25
425.964	6.71
426.169	6.84
426.375	7.17
426.58	7.38
426.785	7.17
426.99	7.27
427.195	6.7
427.4	7.15
427.605	6.46
427.811	7.25
428.016	6.77
428.221	5.27
428.426	4.38
428.631	4.21
428.836	4.78
429.041	4.89
429.246	4.62
429.451	5.26
429.656	4.89
429.861	5.18
430.066	5.73
430.271	5.75
430.476	7.14
430.681	7.82
430.886	7.71
431.09	6.8
431.295	6.69
431.5	5.97
431.705	5.9
431.91	5.81
432.115	6.23
432.32	5.39
432.524	5.81
432.729	5.28
432.934	4.97
433.139	5.26
433.343	5.54
433.548	5.83
433.753	6.56
433.958	6.55
434.162	6.11
434.367	6.18
434.572	5.89
434.776	5.98
434.981	5.44
435.186	5
435.39	4.48
435.595	5.23
435.799	4.31
436.004	4.09
436.209	3.83
436.413	4.34
436.618	3.7
436.822	4.68
437.027	3.88
437.231	4.03
437.436	4.51
437.64	4.88
437.845	4.53
438.049	5.07
438.253	5.14
438.458	5.61
438.662	5.43
438.867	5.21
439.071	4.92
439.275	5.25
439.48	5.08
439.684	5.16
439.888	5.1
440.093	4.95
440.297	4.73
440.501	5.01
440.706	4.55
440.91	4.56
441.114	4.82
441.318	5.04
441.523	4.72
441.727	5.02
441.931	5.1
442.135	5.09
442.339	5.25
442.543	5.62
442.748	5.53
442.952	5.93
443.156	6.07
443.36	6.44
443.564	6.22
443.768	6.35
443.972	6.22
444.176	5.8
444.38	5.85
444.584	6
444.788	5.96
444.992	5.8
445.196	5.54
445.4	5.34
445.604	4.82
445.808	4.5
446.012	4.36
446.216	4.53
446.42	4.78
446.624	4.81
446.828	4.33
447.032	4.59
447.235	4.58
447.439	4.57
447.643	4.88
447.847	5.11
448.051	5.88
448.254	6.11
448.458	5.73
448.662	6.29
448.866	5.87
449.069	6.15
449.273	5.09
449.477	5.32
449.681	6.01
449.884	6.11
450.088	6.16
450.292	6
450.495	6.5
450.699	6.54
450.902	6.11
451.106	6.26
451.31	6.41
451.513	7.02
451.717	7.03
451.92	6.18
452.124	6.13
452.327	6.02
452.531	5.9
452.734	5.44
452.938	5.11
453.141	4.64
453.345	4.3
453.548	4.03
453.752	3.75
453.955	3.67
454.158	3.86
454.362	3.58
454.565	3.48
454.769	3.09
454.972	3.38
455.175	3.5
455.379	3.93
455.582	4.25
455.785	4.52
455.988	4.42
456.192	4.34
456.395	4.6
456.598	4.58
456.801	4.28
457.005	4.96
457.208	4.23
457.411	4.47
457.614	4.38
457.817	4.43
458.021	3.91
458.224	4.48
458.427	4.97
458.63	4.77
458.833	4.74
459.036	4.91
459.239	4.49
459.442	4.6
459.645	4.5
459.848	4.46
460.051	4.33
460.254	4.69
460.457	4.07
460.66	3.65
460.863	3.78
461.066	3.42
461.269	3.79
461.472	3.54
461.675	3.41
461.878	3.61
462.081	3.96
462.284	3.93
462.486	3.92
462.689	4.39
462.892	4.84
463.095	4.86
463.298	5.41
463.5	4.9
463.703	5.22
463.906	5.32
464.109	5.3
464.311	4.69
464.514	4.44
464.717	4.52
464.92	4.47
465.122	4.02
465.325	4.21
465.528	4.36
465.73	4.5
465.933	5.15
466.135	5.23
466.338	5.32
466.541	5.49
466.743	5.79
466.946	5.95
467.148	6.35
467.351	6.77
467.553	6.96
467.756	6.73
467.958	6.45
468.161	5.98
468.363	6.55
468.566	6.44
468.768	6.97
468.971	6.6
469.173	6.72
469.375	6.12
469.578	5.49
469.78	5.37
469.983	5.42
470.185	5.77
470.387	5.49
470.59	5.26
470.792	5.03
470.994	5.44
471.196	6.11
471.399	6.54
471.601	6.64
471.803	6.58
472.005	6.08
472.208	5.85
472.41	5.68
472.612	5.48
472.814	5.63
473.016	6.23
473.218	5.31
473.421	4.72
473.623	3.9
473.825	4.51
474.027	5.16
474.229	5.49
474.431	5.51
474.633	5.67
474.835	6.02
475.037	5.97
475.239	5.51
475.441	5.44
475.643	5.42
475.845	5.39
476.047	4.71
476.249	4.21
476.451	3.83
476.653	4.17
476.855	4.18
477.057	3.7
477.258	3.59
477.46	3.83
477.662	3.68
477.864	4
478.066	4.19
478.268	4.45
478.469	4.25
478.671	4.72
478.873	4.51
479.075	5.01
479.276	5.74
479.478	5.61
479.68	5.86
479.882	5.94
480.083	5.68
480.285	5.65
480.487	5.42
480.688	5.2
480.89	4.84
481.091	4.55
481.293	4.15
481.495	3.82
481.696	3.88
481.898	3.71
482.099	3.73
482.301	3.76
482.502	3.79
482.704	3.73
482.905	3.83
483.107	3.82
483.308	4
483.51	4.05
483.711	4.26
483.913	4.24
484.114	4.15
484.315	4.23
484.517	4.21
484.718	4.12
484.92	4.33
485.121	4.36
485.322	4.41
485.524	4.42
485.725	4.48
485.926	4.34
486.127	4.3
486.329	4.3
486.53	4.28
486.731	4.44
486.932	4.57
487.134	4.32
487.335	4.16
487.536	4.29
487.737	4.06
487.938	4.05
488.139	4.07
488.341	4.1
488.542	4.09
488.743	4.11
488.944	4.26
489.145	4.12
489.346	4.36
489.547	4.78
489.748	4.77
489.949	5.02
490.15	4.82
490.351	4.67
490.552	4.68
490.753	4.58
490.954	4.68
491.155	4.49
491.356	4.56
491.557	4.56
491.758	4.53
491.959	4.29
492.159	4.08
492.36	4.25
492.561	4.46
492.762	4.26
492.963	4.67
493.164	4.51
493.364	4.38
493.565	4.41
493.766	4.38
493.967	3.91
494.167	3.89
494.368	3.98
494.569	3.7
494.769	3.3
494.97	3.4
495.171	3.87
495.371	4.1
495.572	3.96
495.773	3.93
495.973	4
496.174	4.2
496.375	4.48
496.575	4.56
496.776	4.98
496.976	4.97
497.177	5.13
497.377	4.54
497.578	4.07
497.778	4.54
497.979	4.33
498.179	4.39
498.38	4.45
498.58	3.99
498.78	3.94
498.981	3.36
499.181	3.27
499.382	3.25
499.582	3.44
499.782	3.45
499.983	3.36
500.183	3.63
500.383	3.56
500.584	3.87
500.784	4.42
500.984	4.11
501.184	4.64
501.385	5
501.585	5.27
501.785	4.89
501.985	5.01
502.185	4.92
502.386	4.98
502.586	5.09
502.786	4.62
502.986	5.04
503.186	5.44
503.386	5.25
503.586	5.36
503.786	5.11
503.987	5.29
504.187	5.33
504.387	5.4
504.587	5.74
504.787	5.59
504.987	5.89
505.187	5.47
505.387	5.39
505.587	5.21
505.786	4.92
505.986	5
506.186	5.48
506.386	5.81
506.586	5.71
506.786	5.26
506.986	5.06
507.186	4.8
507.386	5.28
507.585	5.78
507.785	6.48
507.985	6.62
508.185	6.69
508.384	6.37
508.584	6.5
508.784	6.77
508.984	7.18
509.183	7.27
509.383	7.29
509.583	6.87
509.782	6.62
509.982	6.27
510.182	6.22
510.381	6.17
510.581	6.05
510.781	5.44
510.98	5.47
511.18	5.28
511.379	5.36
511.579	5.47
511.778	5.67
511.978	5.34
512.177	5.5
512.377	5.57
512.576	6.11
512.776	6.59
512.975	7.84
513.175	7.5
513.374	7.44
513.573	7.43
513.773	7.34
513.972	7.44
514.172	8.11
514.371	7.82
514.57	8.08
514.77	7.86
514.969	7.6
515.168	6.59
515.367	7.2
515.567	7.2
515.766	7.45
515.965	7.84
516.164	7.79
516.364	7.31
516.563	7.63
516.762	7.6
516.961	7.62
517.16	7.69
517.359	7.93
517.559	7.74
517.758	7.64
517.957	7.78
518.156	8.1
518.355	8.28
518.554	8.64
518.753	8.76
518.952	8.74
519.151	8.49
519.35	8.45
519.549	8.69
519.748	8.78
519.947	9.25
520.146	9.49
520.345	9.49
520.544	9.32
520.743	9.11
520.942	9.03
521.141	9.67
521.339	9.79
521.538	9.98
521.737	10.21
521.936	10.85
522.135	10.53
522.333	10.48
522.532	10.15
522.731	10.36
522.93	10.18
523.129	10.05
523.327	9.91
523.526	10.45
523.725	10.54
523.923	10.39
524.122	10.01
524.321	10.44
524.519	10.42
524.718	10.57
524.917	10.55
525.115	10.97
525.314	11.18
525.512	11.07
525.711	10.76
525.909	10.81
526.108	10.71
526.306	10.89
526.505	10.95
526.703	10.93
526.902	10.93
527.1	11.09
527.299	11.38
527.497	11.47
527.696	11.4
527.894	11.51
528.092	11.62
528.291	11.63
528.489	11.85
528.688	11.89
528.886	12.23
529.084	12.42
529.283	12.29
529.481	12.29
529.679	12.29
529.877	12.65
530.076	12.83
530.274	13.01
530.472	13.28
530.67	13.19
530.869	13.15
531.067	13.07
531.265	13.13
531.463	13.16
531.661	13.24
531.859	13.54
532.057	13.69
532.255	13.78
532.454	13.78
532.652	13.8
532.85	13.73
533.048	14.15
533.246	14.27
533.444	14.38
533.642	14.58
533.84	14.57
534.038	14.41
534.236	14.11
534.434	14.4
534.632	14.44
534.83	14.61
535.027	14.74
535.225	14.2
535.423	14.37
535.621	14.42
535.819	14.6
536.017	14.48
536.215	15.02
536.412	15.72
536.61	15.56
536.808	15.74
537.006	15.71
537.203	15.7
537.401	16.28
537.599	16.35
537.797	16.33
537.994	16.7
538.192	16.72
538.39	16.43
538.587	16.03
538.785	16.08
538.983	15.72
539.18	16.01
539.378	16.09
539.575	16.2
539.773	15.89
539.97	15.93
540.168	15.88
540.366	15.84
540.563	15.75
540.761	15.97
540.958	16.02
541.155	16.13
541.353	16.16
541.55	16.19
541.748	16.01
541.945	16.42
542.143	16.59
542.34	17.13
542.537	17.39
542.735	17.44
542.932	17.31
543.129	17.56
543.327	17.95
543.524	18.1
543.721	18.21
543.919	18.35
544.116	18.26
544.313	18.24
544.51	17.61
544.708	18.01
544.905	17.96
545.102	18.39
545.299	17.93
545.496	17.77
545.693	17.62
545.891	17.26
546.088	17.19
546.285	17.33
546.482	17.57
546.679	17.61
546.876	17.33
547.073	17.96
547.27	17.44
547.467	17.97
547.664	18.24
547.861	18.26
548.058	18.83
548.255	19.27
548.452	18.94
548.649	18.8
548.846	19.1
549.043	19.11
549.24	18.81
549.437	19.25
549.633	19.04
549.83	19.17
550.027	20.05
550.224	20.15
550.421	19.91
550.618	20.51
550.814	20.9
551.011	20.63
551.208	20.6
551.405	20.69
551.601	20.15
551.798	20.81
551.995	20.47
552.191	20.06
552.388	20.32
552.585	20.59
552.781	20.9
552.978	20.29
553.175	20.48
553.371	20.93
553.568	21.09
553.764	21.89
553.961	21.79
554.157	22.12
554.354	22.18
554.55	22.49
554.747	23.31
554.943	22.22
555.14	22.38
555.336	22.85
555.533	22.69
555.729	22.27
555.926	21.95
556.122	22.04
556.318	22.99
556.515	23.17
556.711	23.3
556.907	22.64
557.104	23.44
557.3	23.91
557.496	23.55
557.693	23.95
557.889	24.52
558.085	25.44
558.281	25.75
558.478	25.08
558.674	25.18
558.87	24.77
559.066	24.31
559.262	23.77
559.459	24.19
559.655	24.29
559.851	23.39
560.047	23.79
560.243	22.92
560.439	22.89
560.635	22.48
560.831	23.07
561.027	23.01
561.223	23.73
561.419	24
561.615	23.61
561.811	23.36
562.007	23.95
562.203	23.32
562.399	23.59
562.595	23.26
562.791	23.82
562.987	22.9
563.183	23.04
563.379	22.4
563.575	22.45
563.771	22.72
563.966	22.77
564.162	23.06
564.358	23.04
564.554	23.26
564.75	23.11
564.945	22.99
565.141	23.11
565.337	23.05
565.533	23.48
565.728	23.57
565.924	23.03
566.12	23.23
566.315	22.78
566.511	23.17
566.707	22.51
566.902	23.11
567.098	23.11
567.293	23.28
567.489	23.16
567.684	23.52
567.88	23.21
568.076	23.52
568.271	23.95
568.467	24.13
568.662	23.77
568.858	24.01
569.053	23.13
569.248	23.52
569.444	23.32
569.639	23.67
569.835	23.09
570.03	23.16
570.225	23.2
570.421	22.72
570.616	22.81
570.812	22.68
571.007	23.13
571.202	23.41
571.397	23.5
571.593	23.56
571.788	23.68
571.983	23.52
572.178	24.4
572.374	24.23
572.569	24.46
572.764	25.08
572.959	24.72
573.154	24.57
573.35	24.36
573.545	23.72
573.74	23.69
573.935	23.54
574.13	23.84
574.325	23.3
574.52	23.94
574.715	23.83
574.91	23.42
575.105	24.28
575.3	24.51
575.495	24.88
575.69	25.62
575.885	25.76
576.08	25.9
576.275	25.73
576.47	25.79
576.665	25.27
576.86	25.83
577.055	25.91
577.25	25.25
577.444	25.05
577.639	25.6
577.834	25.74
578.029	25.68
578.224	25
578.418	25.22
578.613	24.89
578.808	25.07
579.003	24.77
579.197	24.98
579.392	25.77
579.587	26.01
579.781	25.3
579.976	24.64
580.171	24.33
580.365	24.5
580.56	24.67
580.755	25.86
580.949	26.71
581.144	26.23
581.338	26.18
581.533	26.14
581.727	26.21
581.922	26.53
582.116	26.33
582.311	27.61
582.505	28.29
582.7	28.76
582.894	28.62
583.089	28.54
583.283	28.46
583.478	27.94
583.672	27.86
583.866	27.62
584.061	27.99
584.255	28.4
584.449	28.35
584.644	29.55
584.838	29.02
585.032	28.38
585.226	27.77
585.421	28.14
585.615	28.81
585.809	28.32
586.003	29.02
586.198	28.77
586.392	28.48
586.586	27.67
586.78	26.46
586.974	26.06
587.168	26.36
587.363	26.42
587.557	26.69
587.751	25.95
587.945	26.21
588.139	25.58
588.333	25.03
588.527	25.31
588.721	25.07
588.915	24.56
589.109	24.86
589.303	24.7
589.497	24.32
589.691	24.23
589.885	23.93
590.079	24.49
590.273	24.51
590.466	25.36
590.66	24.88
590.854	25.58
591.048	26.35
591.242	26.12
591.436	26.43
591.629	26.47
591.823	25.87
592.017	27.13
592.211	26.72
592.404	26.57
592.598	26.02
592.792	26.86
592.986	26.19
593.179	25.9
593.373	26.32
593.567	26.03
593.76	26.56
593.954	26.69
594.147	25.95
594.341	26.06
594.535	26.77
594.728	26.81
594.922	26.45
595.115	26.4
595.309	26.21
595.502	26.01
595.696	25.91
595.889	25.61
596.083	26.04
596.276	25.96
596.47	26.09
596.663	25.3
596.856	25.42
597.05	25.34
597.243	25.73
597.437	26.33
597.63	26.68
597.823	26.87
598.017	27.17
598.21	27.04
598.403	27.77
598.596	28.01
598.79	28.5
598.983	28.4
599.176	28.29
599.369	28.76
599.563	28.39
599.756	29.03
599.949	28.91
600.142	28.35
600.335	27.98
600.528	27.52
600.722	27.71
600.915	28.13
601.108	28.05
601.301	28
601.494	28.03
601.687	27.76
601.88	26.88
602.073	26.7
602.266	27.22
602.459	27.09
602.652	26.91
602.845	26.35
603.038	26.18
603.231	26.19
603.424	26.14
603.617	25.44
603.809	25.41
604.002	25.33
604.195	25.49
604.388	25.2
604.581	25.89
604.774	26.22
604.966	26.06
605.159	25.67
605.352	25.79
605.545	25.85
605.737	27.27
605.93	27.9
606.123	28.65
606.316	29.26
606.508	29.61
606.701	28.88
606.894	29.52
607.086	29.87
607.279	29.8
607.471	29.44
607.664	29.63
607.857	28.41
608.049	28.12
608.242	27.99
608.434	27.52
608.627	27.72
608.819	28.36
609.012	28.02
609.204	27.76
609.397	27.93
609.589	28.14
609.782	27.85
609.974	28.34
610.166	28.61
610.359	28.75
610.551	29.12
610.743	27.87
610.936	27.45
611.128	26.95
611.32	26.59
611.513	26.71
611.705	27.49
611.897	27.56
612.09	27.66
612.282	27.48
612.474	27.29
612.666	27.37
612.858	29.03
613.051	29.54
613.243	30.02
613.435	31.19
613.627	30.63
613.819	29.09
614.011	29.05
614.203	28.45
614.395	28.39
614.588	29.39
614.78	30.26
614.972	29.81
615.164	29.42
615.356	28.44
615.548	28.41
615.74	29.22
615.932	30.54
616.124	31.05
616.315	31.71
616.507	31.96
616.699	31.05
616.891	29.34
617.083	30.11
617.275	30.45
617.467	31
617.659	30.3
617.85	30.8
618.042	30.47
618.234	30.16
618.426	31.06
618.618	30.62
618.809	30.47
619.001	31.02
619.193	30.53
619.384	30.13
619.576	30.53
619.768	31.23
619.959	30.61
620.151	31.28
620.343	31.46
620.534	30.7
620.726	31.82
620.917	32.56
621.109	32.63
621.301	32.95
621.492	33.05
621.684	33.18
621.875	33
622.067	33.04
622.258	31.74
622.45	32.08
622.641	30.74
622.832	29.57
623.024	29.55
623.215	28.84
623.407	27.58
623.598	27.51
623.789	26.8
623.981	26.29
624.172	26.3
624.363	26.98
624.555	26.89
624.746	27.72
624.937	27.67
625.129	26.34
625.32	26.38
625.511	26.85
625.702	26.66
625.893	27.24
626.085	27.78
626.276	27.67
626.467	27.9
626.658	27.83
626.849	27.59
627.04	28.32
627.231	29.42
627.422	30.67
627.614	31.29
627.805	30.97
627.996	31.09
628.187	30.68
628.378	30.36
628.569	30.71
628.76	31.24
628.951	32.11
629.142	31.93
629.332	31.83
629.523	31.26
629.714	30.62
629.905	31.41
630.096	30.42
630.287	30.47
630.478	31.45
630.669	31.26
630.859	30.75
631.05	30.69
631.241	30
631.432	30.14
631.623	31.05
631.813	31.6
632.004	32.2
632.195	32.28
632.385	31.93
632.576	31.92
632.767	31.49
632.957	30.61
633.148	30.52
633.339	31.65
633.529	31.78
633.72	30.99
633.91	30.31
634.101	29.14
634.292	29.93
634.482	30.63
634.673	30.07
634.863	30.9
635.054	32.45
635.244	32.79
635.435	33.14
635.625	32.24
635.815	31.51
636.006	31.7
636.196	32.02
636.387	31.19
636.577	32.02
636.767	32.75
636.958	32.19
637.148	31.46
637.338	30.3
637.529	29.64
637.719	30.24
637.909	31.09
638.099	31.46
638.29	31.67
638.48	32.11
638.67	31.18
638.86	30.93
639.05	30.77
639.241	31.18
639.431	31.47
639.621	31.62
639.811	31.19
640.001	30.81
640.191	31.4
640.381	32.41
640.571	33.2
640.761	33.87
640.951	34.52
641.141	35.18
641.331	34.41
641.521	34.13
641.711	33.34
641.901	33.91
642.091	34.37
642.281	33.96
642.471	32.13
642.661	31.35
642.851	31.04
643.041	30.11
643.231	30.18
643.42	29.93
643.61	30.22
643.8	31.7
643.99	30.95
644.18	30.43
644.369	30.36
644.559	32.01
644.749	31.6
644.939	32.02
645.128	33.54
645.318	32.93
645.508	33.76
645.697	34.25
645.887	32.58
646.076	33.97
646.266	34.4
646.456	33.96
646.645	33.99
646.835	34.96
647.024	34.7
647.214	33.32
647.403	33.47
647.593	33.65
647.782	32.74
647.972	34.19
648.161	33.72
648.351	33.72
648.54	33.71
648.73	33.58
648.919	33.06
649.108	32.12
649.298	32.26
649.487	32.16
649.677	32.94
649.866	33.9
650.055	33.18
650.244	32.55
650.434	31.27
650.623	31.63
650.812	31.09
651.002	31.59
651.191	31.87
651.38	31.48
651.569	32.28
651.758	32.56
651.947	32.47
652.137	31.86
652.326	33.19
652.515	35.26
652.704	35.66
652.893	37.22
653.082	37.33
653.271	37.96
653.46	38.27
653.649	37.94
653.838	37.02
654.027	37.27
654.216	37.31
654.405	35.64
654.594	34.35
654.783	34.44
654.972	33.8
655.161	33.69
655.35	33.96
655.539	34.19
655.728	34.85
655.916	34.58
656.105	34.76
656.294	34.7
656.483	34.66
656.672	35.24
656.86	34.69
657.049	34.4
657.238	34.76
657.427	34.24
657.615	33.9
657.804	32.13
657.993	32.26
658.181	31.3
658.37	31.52
658.559	31.81
658.747	31.36
658.936	30.75
659.125	30.63
659.313	30.18
659.502	30.68
659.69	30.55
659.879	31.84
660.067	32.13
660.256	32.52
660.444	32.61
660.633	32.02
660.821	32.12
661.01	34.06
661.198	33.75
661.387	32.48
661.575	32.12
661.763	31.93
661.952	30.39
662.14	30.66
662.328	33.17
662.517	34.1
662.705	35.72
662.893	34.98
663.082	33.9
663.27	33.5
663.458	34.47
663.646	33.52
663.834	33.75
664.023	34.22
664.211	34.65
664.399	33.01
664.587	33.64
664.775	33.09
664.963	34.28
665.152	34.09
665.34	35.71
665.528	35.64
665.716	35.62
665.904	35.57
666.092	36.82
666.28	36.45
666.468	35.76
666.656	33.55
666.844	33.59
667.032	33.88
667.22	34.18
667.408	33.93
667.596	34.39
667.784	35.33
667.971	36.25
668.159	35.47
668.347	34.9
668.535	35.65
668.723	36.95
668.911	36.86
669.098	36.62
669.286	35.88
669.474	35.78
669.662	34.39
669.849	34.14
670.037	32.49
670.225	32.57
670.413	33.59
670.6	33.04
670.788	32.98
670.976	31.71
671.163	32.32
671.351	31.75
671.538	32.98
671.726	34.09
671.913	31.15
672.101	33.22
672.289	32.56
672.476	31.83
672.664	32.95
672.851	32.94
673.039	34.54
673.226	34.97
673.413	35.97
673.601	35.8
673.788	36.97
673.976	38.76
674.163	38.23
674.35	41.8
674.538	41.51
674.725	40.39
674.912	40.05
675.1	39.53
675.287	38.14
675.474	38.77
675.662	37.36
675.849	36.99
676.036	38.47
676.223	37.62
676.411	34.22
676.598	34.79
676.785	34.33
676.972	32.93
677.159	33.47
677.346	32.71
677.533	33.54
677.721	34.62
677.908	35.09
678.095	34.21
678.282	33.53
678.469	34.51
678.656	33.78
678.843	35.38
679.03	36.53
679.217	36.32
679.404	36.95
679.591	36.65
679.778	36.17
679.964	35.37
680.151	36.53
680.338	37.62
680.525	35.79
680.712	36.78
680.899	35.75
681.086	35.62
681.272	36.29
681.459	34.8
681.646	35.19
681.833	33.66
682.02	33.27
682.206	32.78
682.393	33.36
682.58	35.23
682.766	33.55
682.953	34.17
683.14	33.67
683.326	34.07
683.513	36.59
683.7	36.76
683.886	36.45
684.073	35.06
684.259	33.7
684.446	31.65
684.632	33.25
684.819	35.39
685.005	35.09
685.192	35.27
685.378	34.46
685.565	34.89
685.751	33.98
685.938	35.67
686.124	37.5
686.31	38.41
686.497	39.76
686.683	38.02
686.87	36.41
687.056	35.37
687.242	36.37
687.429	35.67
687.615	34.06
687.801	33.65
687.987	33.97
688.174	34.04
688.36	34.13
688.546	32.39
688.732	32.57
688.918	31.37
689.105	30.83
689.291	29.21
689.477	28.99
689.663	30.33
689.849	30.6
690.035	28.94
690.221	28.88
690.407	29.7
690.593	32.46
690.779	32.97
690.965	35.66
691.151	36.43
691.337	36.99
691.523	35.69
691.709	35.51
691.895	36.68
692.081	37.2
692.267	35.69
692.453	35.42
692.639	35.03
692.825	31.62
693.011	30.91
693.196	32.77
693.382	33.36
693.568	34.6
693.754	33.84
693.94	32.61
694.125	33.03
694.311	34.51
694.497	35.24
694.682	34.88
694.868	36
695.054	35.8
695.239	32.31
695.425	32.93
695.611	32.97
695.796	33.15
695.982	34.25
696.168	33.89
696.353	33.02
696.539	32.72
696.724	31.85
696.91	32.28
697.095	31.38
697.281	31.93
697.466	31.65
697.652	31.35
697.837	30.94
698.023	30.2
698.208	31.09
698.393	33.24
698.579	32.62
698.764	33.48
698.949	33.21
699.135	33.72
699.32	34.86
699.505	33.79
699.691	34.89
699.876	36.01
700.061	34.57
700.246	35.08
700.432	34.88
700.617	36.33
700.802	36.56
700.987	37.14
701.172	37.35
701.358	36.45
701.543	39.1
701.728	40.5
701.913	40.92
702.098	44.15
702.283	43.09
702.468	40.66
702.653	41.07
702.838	40.17
703.023	41.63
703.208	42.06
703.393	44.37
703.578	43.04
703.763	40.37
703.948	39.37
704.133	40.01
704.318	42.36
704.503	42.68
704.688	41
704.873	41.95
705.057	42.15
705.242	41.41
705.427	40.05
705.612	38.72
705.797	39.33
705.981	38.72
706.166	38.54
706.351	36.66
706.536	37.85
706.72	37.59
706.905	37.79
707.09	37.67
707.274	38.38
707.459	40.07
707.644	40.83
707.828	42.65
708.013	46.14
708.197	46.77
708.382	47.06
708.567	48.22
708.751	49.44
708.936	48.02
709.12	48.18
709.305	48.74
709.489	46.6
709.673	49.14
709.858	49.94
710.042	47.37
710.227	45.47
710.411	43.75
710.596	41.76
710.78	40.73
710.964	41.81
711.149	40.89
711.333	40.19
711.517	40.89
711.702	39.34
711.886	38.36
712.07	38.26
712.254	38.97
712.438	40.82
712.623	40.12
712.807	40.58
712.991	40.64
713.175	40.6
713.359	41.12
713.544	40.4
713.728	39.69
713.912	38.75
714.096	37.97
714.28	37.45
714.464	36.08
714.648	36.98
714.832	35.62
715.016	35.29
715.2	34.64
715.384	34.33
715.568	35.99
715.752	35.98
715.936	34.14
716.12	34.03
716.304	32.79
716.488	34.66
716.671	34.3
716.855	35.95
717.039	36.45
717.223	36.84
717.407	36.21
717.59	34.65
717.774	35.57
717.958	36.94
718.142	37.26
718.325	37.99
718.509	33.84
718.693	35.01
718.877	36.18
719.06	35.93
719.244	34.39
719.428	35.37
719.611	34.95
719.795	34.75
719.978	34.84
720.162	32.56
720.345	33.41
720.529	36.22
720.713	37.64
720.896	33.5
721.08	36.03
721.263	35.69
721.446	35.47
721.63	32.89
721.813	31.79
721.997	30.57
722.18	32.44
722.364	31.54
722.547	31.98
722.73	28.85
722.914	30.77
723.097	29.05
723.28	30.19
723.464	29.66
723.647	33.43
723.83	33.86
724.013	37.92
724.197	37.22
724.38	35.1
724.563	32.6
724.746	34.03
724.929	33.33
725.112	33.19
725.296	35.31
725.479	35.09
725.662	35.28
725.845	36.42
726.028	30.92
726.211	31.54
726.394	35.44
726.577	36.83
726.76	37.77
726.943	36.51
727.126	37.03
727.309	36.08
727.492	34.64
727.675	34.04
727.858	32.86
728.041	37.55
728.224	38.9
728.407	36.11
728.589	39.3
728.772	36.2
728.955	38.11
729.138	37.4
729.321	37.87
729.503	40.42
729.686	41.89
729.869	39.94
730.052	40.58
730.234	40.23
730.417	41.48
730.6	39.78
730.782	40.87
730.965	41.65
731.148	41.02
731.33	40.55
731.513	38.52
731.695	38.47
731.878	39.98
732.061	40.27
732.243	40.18
732.426	41.56
732.608	39.6
732.791	41.14
732.973	40.8
733.156	41.87
733.338	41.32
733.52	42.25
733.703	40.97
733.885	42.71
734.068	40.91
734.25	44.81
734.432	44.26
734.615	46.78
734.797	46.14
734.979	45.36
735.162	46.79
735.344	49.06
735.526	50.36
735.708	50.94
735.891	51.51
736.073	52.4
736.255	48.09
736.437	48.48
736.619	46.18
736.802	48.3
736.984	51.82
737.166	51.07
737.348	51.24
737.53	49.73
737.712	50.1
737.894	46.54
738.076	47.02
738.258	48.87
738.44	47.38
738.622	49.76
738.804	45.19
738.986	40.63
739.168	39
739.35	37.63
739.532	40.97
739.714	42.47
739.896	44.91
740.078	43.57
740.259	42.74
740.441	43.64
740.623	42.99
740.805	45.12
740.987	46.65
741.168	47.23
741.35	49.16
741.532	46.64
741.714	45.21
741.895	43.77
742.077	42.58
742.259	43.54
742.44	45.46
742.622	48.25
742.804	48.89
742.985	47.87
743.167	50.67
743.348	50
743.53	49.58
743.711	52.47
743.893	52.26
744.075	52.83
744.256	53.58
744.438	49.91
744.619	49.07
744.8	49.38
744.982	52.48
745.163	50.06
745.345	49.08
745.526	52.77
745.707	54.92
745.889	54.68
746.07	56.06
746.252	56.06
746.433	55.82
746.614	56.26
746.795	56.52
746.977	55.33
747.158	59.47
747.339	58.81
747.52	59.82
747.702	55.84
747.883	59.17
748.064	59.71
748.245	58.25
748.426	57.58
748.607	55.23
748.788	56.16
748.97	57.44
749.151	54.27
749.332	57.64
749.513	54.89
749.694	56.52
749.875	56.28
750.056	55.31
750.237	53.82
750.418	57.52
750.599	59.55
750.78	58.04
750.96	58.54
751.141	54.95
751.322	54.53
751.503	54.55
751.684	51.64
751.865	51.55
752.046	53.94
752.226	56.35
752.407	55.88
752.588	53.65
752.769	49.31
752.949	46.4
753.13	47.79
753.311	50.15
753.492	50.14
753.672	55.06
753.853	55.28
754.034	52.61
754.214	51.12
754.395	54.7
754.575	57.59
754.756	62.86
754.937	65.82
755.117	68.89
755.298	67.13
755.478	67.32
755.659	65.2
755.839	62.16
756.02	65.5
756.2	63.69
756.381	59.61
756.561	59.29
756.741	57.58
756.922	52.6
757.102	50.9
757.283	48.36
757.463	49
757.643	46.56
757.823	44.86
758.004	41.09
758.184	44.17
758.364	43.89
758.545	44.86
758.725	43.85
758.905	47.5
759.085	47.87
759.265	47.55
759.446	41.74
759.626	42.09
759.806	39.03
759.986	38.63
760.166	35.62
760.346	39.23
760.526	33.45
760.706	32.28
760.886	32.19
761.066	30.81
761.246	28.56
761.426	32.09
761.606	33.9
761.786	36.17
761.966	33.38
762.146	34.53
762.326	31.09
762.506	31.31
762.686	30.36
762.866	29.65
763.046	29.55
763.225	32.36
763.405	33.4
763.585	32.9
763.765	32.42
763.945	37.15
764.124	37.32
764.304	42.64
764.484	47.46
764.664	50.62
764.843	50.5
765.023	55.57
765.203	56.69
765.382	58.47
765.562	55.32
765.741	62.46
765.921	60.3
766.101	60.27
766.28	61.43
766.46	59.6
766.639	60.82
766.819	61.97
766.998	62.2
767.178	60.57
767.357	56
767.537	56.81
767.716	56.47
767.896	56.5
768.075	62.3
768.254	59.31
768.434	58.77
768.613	63.33
768.792	65.52
768.972	66.31
769.151	70.09
769.33	77.15
769.51	75.97
769.689	75.91
769.868	74
770.047	64.27
770.226	66.6
770.406	71.97
770.585	71.92
770.764	74.31
770.943	71.49
771.122	66.44
771.301	66.88
771.48	70.02
771.66	61.6
771.839	64.78
772.018	66.74
772.197	65.04
772.376	59.94
772.555	55.46
772.734	52.93
772.913	50.56
773.092	47.3
773.271	47.06
773.449	47.18
773.628	63.13
773.807	64.36
773.986	67.13
774.165	69.72
774.344	71.2
774.523	71.16
774.701	65.53
774.88	66.76
775.059	74.79
775.238	69.06
775.417	69.6
775.595	67.77
775.774	68.52
775.953	69.63
776.131	73.77
776.31	71.21
776.489	75.69
776.667	80.07
776.846	78.69
777.025	76.59
777.203	77.55
777.382	74.56
777.56	76.51
777.739	79
777.917	77.75
778.096	70.27
778.274	75.29
778.453	71.27
778.631	73.03
778.81	81.22
778.988	75.59
779.166	77.03
779.345	76.29
779.523	72.15
779.702	75.08
779.88	72.34
780.058	74.69
780.237	70.69
780.415	68.98
780.593	64.58
780.771	60.04
780.95	59.27
781.128	61.71
781.306	70.91
781.484	70.54
781.662	69.96
781.841	71.41
782.019	65.07
782.197	64.21
782.375	67.6
782.553	67.43
782.731	72.69
782.909	95.19
783.087	86.8
783.265	77.37
783.443	79.33
783.621	66.16
783.799	71.74
783.977	77.4
784.155	80.47
784.333	76.56
784.511	78.56
784.689	73.07
784.867	67.3
785.045	72.97
785.223	71.89
785.4	64.65
785.578	73.34
785.756	70.21
785.934	71.1
786.112	69.05
786.289	67.56
786.467	66.2
786.645	63.24
786.823	58.12
787	54.75
787.178	54.15
787.356	56.07
787.533	48.37
787.711	49.86
787.889	48.13
788.066	48.49
788.244	54.13
788.421	53.81
788.599	56.29
788.776	56.97
788.954	64.44
789.131	63.71
789.309	73.18
789.486	87.03
789.664	89.34
789.841	99.18
790.019	110.11
790.196	106.56
790.373	106.85
790.551	118.58
790.728	118.41
790.906	102.79
791.083	133.28
791.26	110.98
791.437	95
791.615	95.84
791.792	84.3
791.969	84.57
792.146	78.66
792.324	88.47
792.501	87.61
792.678	89.36
792.855	87.12
793.032	72.11
793.209	73.98
793.387	71.92
793.564	68.17
793.741	60.39
793.918	55.59
794.095	63.08
794.272	56.29
794.449	51.37
794.626	52.67
794.803	60.73
794.98	57.06
795.157	60.69
795.334	65.39
795.511	65.6
795.688	76.91
795.864	77.97
796.041	80.16
796.218	79.52
796.395	83.18
796.572	82.63
796.749	71.55
796.925	69.38
797.102	63.9
797.279	62.73
797.456	60.78
797.632	56.57
797.809	54.71
797.986	52.28
798.162	55.56
798.339	50.69
798.516	40.56
798.692	52.42
798.869	46.35
799.046	48.5
799.222	54.07
799.399	55.77
799.575	66.54
799.752	71.58
799.928	77.79
800.105	82.11
800.281	83.99
800.458	91.64
800.634	84.55
800.811	96.05
800.987	98.71
801.163	97.8
801.34	101.31
801.516	87.77
801.692	77.11
801.869	75.52
802.045	74.75
802.221	75.63
802.398	73.25
802.574	71.59
802.75	72.57
802.926	72.05
803.103	73.63
803.279	78.49
803.455	75.61
803.631	71.95
803.807	64.52
803.983	58.88
804.16	66.22
804.336	70.21
804.512	80.88
804.688	84.95
804.864	91.05
805.04	91.33
805.216	85.75
805.392	87.21
805.568	103.96
805.744	98.29
805.92	93.71
806.096	89.93
806.272	90.68
806.448	82.98
806.623	71.25
806.799	66.67
806.975	65.42
807.151	59.48
807.327	64.23
807.503	56.8
807.678	70.3
807.854	55.71
808.03	60.41
808.206	59.11
808.381	65.22
808.557	83.18
808.733	86.45
808.908	85.45
809.084	93.88
809.26	92.92
809.435	97.76
809.611	83.45
809.787	93.26
809.962	75.39
810.138	69.93
810.313	52.86
810.489	43.8
810.664	49.06
810.84	45.39
811.015	56.75
811.191	51.39
811.366	44.18
811.542	61.6
811.717	74.71
811.892	96.54
812.068	93.84
812.243	120.96
812.419	131.38
812.594	103.79
812.769	93.74
812.944	65.26
813.12	62.54
813.295	59.07
813.47	36.05
813.645	23.14
813.821	28.47
813.996	34.98
814.171	36.75
814.346	46.03
814.521	48.43
814.697	53.46
814.872	68.19
815.047	72.72
815.222	77.34
815.397	89.89
815.572	94.31
815.747	83.94
815.922	81.25
816.097	74.67
816.272	64.04
816.447	65.98
816.622	58.47
816.797	49.17
816.972	45.75
817.147	48.92
817.322	55.68
817.496	52.19
817.671	58.06
817.846	49.2
818.021	52.14
818.196	52.94
818.371	50.86
818.545	48.16
818.72	49.29
818.895	46.02
819.069	42.21
819.244	36.31
819.419	36.88
819.594	32.52
819.768	35.3
819.943	32.91
820.117	30.51
820.292	29.6
820.467	29.62
820.641	28.74
820.816	29.85
820.99	27.89
821.165	27.66
821.339	26.09
821.514	26.26
821.688	25.43
821.863	25.88
822.037	25.62
822.212	26.29
822.386	27.54
822.56	28.32
822.735	27.63
822.909	30.24
823.084	33.01
823.258	36.65
823.432	38.56
823.606	40.99
823.781	44.03
823.955	49.22
824.129	51.27
824.303	53.5
824.478	55.87
824.652	56.36
824.826	53.25
825	51.2
825.174	46.86
825.348	46.34
825.523	44.65
825.697	40.54
825.871	38.15
826.045	38.07
826.219	37.63
826.393	37.38
826.567	34.63
826.741	36.48
826.915	33.13
827.089	37.13
827.263	36.85
827.437	37.59
827.611	39.32
827.784	42.38
827.958	39.16
828.132	40.86
828.306	41.75
828.48	49.37
828.654	49.68
828.827	61.13
829.001	67.86
829.175	74.36
829.349	69.53
829.522	70.78
829.696	70.01
829.87	74.2
830.044	68.68
830.217	63.55
830.391	80.53
830.565	77.27
830.738	65.2
830.912	55.91
831.085	54.61
831.259	60.14
831.432	58.67
831.606	53.19
831.779	46.06
831.953	53.29
832.126	50.67
832.3	45.5
832.473	46.16
832.647	45.84
832.82	44.57
832.994	39.72
833.167	39.88
833.34	41.04
833.514	39.08
833.687	39.54
833.86	40.57
834.034	43.11
834.207	40.56
834.38	38.24
834.553	43.82
834.727	43.74
834.9	54.32
835.073	52.16
835.246	44.48
835.419	48.49
835.593	45.36
835.766	41.39
835.939	43.75
836.112	38.71
836.285	63.3
836.458	75.37
836.631	77.1
836.804	57.06
836.977	72.63
837.15	89.06
837.323	107.05
837.496	143.33
837.669	138.46
837.842	87.16
838.015	79.8
838.188	70.37
838.361	58.32
838.533	62.94
838.706	55.44
838.879	52.89
839.052	58.79
839.225	63.78
839.398	55.65
839.57	52.83
839.743	67.1
839.916	76.11
840.088	80.35
840.261	80.56
840.434	82.63
840.607	89.83
840.779	88.93
840.952	89.83
841.124	74.5
841.297	87.67
841.47	94.94
841.642	99.54
841.815	119.7
841.987	105.25
842.16	149.08
842.332	142.61
842.505	141.87
842.677	138.04
842.85	114.6
843.022	136.53
843.194	132.94
843.367	111.79
843.539	87.09
843.712	89.84
843.884	68.06
844.056	46.87
844.229	18.79
844.401	-19.27
844.573	-34.1
844.745	-44.69
844.918	-72.43
845.09	58.64
845.262	67.72
845.434	68.94
845.606	161.61
845.779	-763.64
845.951	12650
846.123	-2132.35
846.295	1646.94
846.467	-1955.26
846.639	-3678.26
846.811	1018.18
846.983	391.28
847.155	870
847.327	726.42
847.499	269.2
847.671	200
847.843	265.91
848.015	200
848.187	213.06
848.359	149.77
848.531	202.42
848.703	304
848.875	387.26
849.047	1562.5
849.218	4175
849.39	-793.83
849.562	17740
849.734	-3121.43
849.905	15285.71
850.077	-1201.35
850.249	-628.57
850.421	1546.03
850.592	730.89
850.764	293.98
850.936	251.1
851.107	301.3
851.279	240.12
851.451	212.71
851.622	275.98
851.794	173.39
851.965	263.8
852.137	258.39
852.308	3300
852.48	-212.96
852.651	-171.73
852.823	-297.62
852.994	-1818.52
853.166	4037.5
853.337	-641.67
853.509	149.75
853.68	4375
853.851	162.22
854.023	77.62
854.194	125.42
854.365	93.87
854.537	70.57
854.708	-3.83
854.879	-50
855.05	26.14
855.222	83.97
855.393	114.74
855.564	71.92
855.735	91.89
855.906	183.2
856.078	154.39
856.249	152.39
856.42	239.74
856.591	341.42
856.762	-3005.26
856.933	-2211.54
857.104	-686.67
857.275	18550
857.446	1260
857.617	-15283.33
857.788	45050
857.959	619.43
858.13	1991.84
858.301	578.49
858.472	601.67
858.643	401.09
858.814	353.09
858.985	343.31
859.155	380.73
859.326	585.15
859.497	299.14
859.668	263.49
859.839	447.32
860.009	248.21
860.18	226.46
860.351	190.6
860.522	160.64
860.692	156.75
860.863	197.41
861.034	183.63
861.204	203.8
861.375	372.87
861.546	213.78
861.716	191.84
861.887	224.91
862.057	654.41
862.228	1185.71
862.398	-86.22
862.569	-915.69
862.739	-950
862.91	716.3
863.08	7600
863.251	-2457.14
863.421	-665.33
863.592	-4937.5
863.762	-624.68
863.932	1419.51
864.103	-1035.56
864.273	523.16
864.443	579.76
864.614	299.43
864.784	230.65
864.954	167.97
865.125	123.54
865.295	98.95
865.465	151
865.635	107.41
865.805	86.64
865.976	76.22
866.146	68.74
866.316	54.65
866.486	42.63
866.656	54.21
866.826	43.36
866.996	43.43
867.166	64.56
867.336	50.17
867.506	40.55
867.676	62.85
867.846	58.12
868.016	46.93
868.186	83.29
868.356	315.66
868.526	250.51
868.696	-817.65
868.866	-229.85
869.036	-918.52
869.206	832.43
869.376	-1281.48
869.545	1512
869.715	1433.33
869.885	-764.71
870.055	-390.6
870.224	231.9
870.394	235.64
870.564	498.45
870.734	534.82
870.903	249.54
871.073	445.07
871.243	385.48
871.412	320.64
871.582	731.52
871.751	-1445.45
871.921	-115.82
872.091	9.98
872.26	-13.05
872.43	6.79
872.599	-21.45
872.769	-11.11
872.938	15.04
873.108	60
873.277	60.48
873.446	200
873.616	12.9
873.785	139.69
873.955	173.08
874.124	229.75
874.293	320.62
874.463	1494.59
874.632	-521.74
874.801	-414.55
874.971	-102.01
875.14	-47.34
875.309	-16.97
875.478	-223.63
875.647	-3.71
875.817	-20.68
875.986	-10.32
876.155	5300
876.324	112.12
876.493	93.4
876.662	36.73
876.831	93.98
877	127.67
877.17	181.88
877.339	196.25
877.508	229.19
877.677	0
877.846	-608.33
878.015	-358.33
878.184	-170.34
878.352	-5083.33
878.521	519.12
878.69	161.92
878.859	152.26
879.028	116.33
879.197	120.88
879.366	95.33
879.534	82.82
879.703	90.89
879.872	81.61
880.041	72.9
880.21	70.2
880.378	66.78
880.547	57.76
880.716	52.16
880.884	46.64
881.053	43.09
881.222	47.43
881.39	39.75
881.559	40.99
881.727	42.69
881.896	40.05
882.065	38.87
882.233	30.74
882.402	36.25
882.57	38.38
882.739	40.88
882.907	44.87
883.076	34.33
883.244	40.58
883.412	43.3
883.581	39.17
883.749	41.93
883.918	41.35
884.086	49.19
884.254	58.72
884.423	52.19
884.591	64.22
884.759	72.74
884.927	88.58
885.096	104.37
885.264	110.83
885.432	96.85
885.6	95.55
885.769	91.41
885.937	99.15
886.105	78.54
886.273	79.48
886.441	62.42
886.609	53.68
886.777	33.57
886.945	23.23
887.113	23.61
887.281	45.74
887.449	54.22
887.617	51.14
887.785	79.95
887.953	63.08
888.121	126.98
888.289	266.67
888.457	786.54
888.625	533.33
888.793	-1176.32
888.961	1718.75
889.129	4008.33
889.296	771.87
889.464	976.92
889.632	650.77
889.8	500
889.967	231.6
890.135	187.71
