Data from JASIL_3201_Reflection_01.txt Node
Date: Fri Nov 13 14:25:13 EST 2015
User: Geneva
Spectrometer: USB4E03002
Autoset integration time: false
Trigger mode: 4
Integration Time (sec): 1.000000E-1
Scans to average: 10
Electric dark correction enabled: false
Nonlinearity correction enabled: false
Boxcar width: 5
Stray light correction enabled: false
XAxis mode: Wavelengths
Stop averaging: false
Number of Pixels in Spectrum: 3648
>>>>>Begin Spectral Data<<<<<
177.575	261.45
177.794	265.49
178.014	242.84
178.233	213.66
178.452	212.62
178.672	205.1
178.891	210.4
179.11	209.19
179.33	194.93
179.549	190.92
179.768	210.67
179.987	190.17
180.207	184.32
180.426	185.27
180.645	210.63
180.864	207.53
181.084	221.61
181.303	199.46
181.522	187.76
181.741	197.6
181.96	196.52
182.179	184.83
182.398	213.78
182.618	204.75
182.837	202.43
183.056	184.16
183.275	180
183.494	179.2
183.713	194.22
183.932	189.95
184.151	187.21
184.37	181.49
184.589	172.73
184.808	172.74
185.027	180.89
185.246	184.57
185.465	192.37
185.684	190.95
185.903	178.27
186.122	171.02
186.341	170.19
186.56	172.71
186.779	182.44
186.998	189.02
187.216	173.8
187.435	161.13
187.654	155.16
187.873	153.04
188.092	153.56
188.311	149.06
188.53	146.62
188.748	149.89
188.967	146.17
189.186	133.91
189.405	126.81
189.623	124.45
189.842	135.1
190.061	129.07
190.28	132.34
190.498	130.87
190.717	131.01
190.936	127.96
191.154	133.66
191.373	139.83
191.592	144.73
191.81	146.03
192.029	148.72
192.248	146.7
192.466	156.32
192.685	147.79
192.904	154.27
193.122	160.84
193.341	161.99
193.559	149.9
193.778	143.83
193.996	135.6
194.215	127.82
194.433	124.75
194.652	124.69
194.87	132.95
195.089	137.85
195.307	134.94
195.526	145.24
195.744	147.09
195.963	152.9
196.181	150.49
196.399	165.91
196.618	170.72
196.836	171.97
197.055	175.68
197.273	166.16
197.491	180.67
197.71	184.17
197.928	185.11
198.146	189.46
198.365	193.22
198.583	194.78
198.801	183.02
199.019	189.49
199.238	204.59
199.456	203.81
199.674	198.66
199.892	194.93
200.111	191.78
200.329	194.25
200.547	197.85
200.765	195.32
200.983	194.68
201.202	184.76
201.42	184.27
201.638	160.16
201.856	155.94
202.074	160.66
202.292	141.59
202.51	137.76
202.728	128.39
202.946	119.93
203.165	129.34
203.383	133.09
203.601	143.27
203.819	163.57
204.037	182.41
204.255	169.24
204.473	168.54
204.691	180.53
204.909	197.41
205.127	207.36
205.345	248.24
205.562	220.2
205.78	200.31
205.998	184.7
206.216	154.12
206.434	154.06
206.652	170.74
206.87	164.67
207.088	173.95
207.306	163.15
207.523	163.03
207.741	158.21
207.959	159.7
208.177	163.33
208.395	171.04
208.612	174.97
208.83	146.78
209.048	134.99
209.266	141.23
209.483	133.77
209.701	136.23
209.919	124.7
210.136	120.76
210.354	135.9
210.572	135
210.79	138.99
211.007	131.66
211.225	143.15
211.442	151.49
211.66	158.15
211.878	154.84
212.095	135.08
212.313	140.03
212.53	136.82
212.748	129.14
212.966	133.34
213.183	137.27
213.401	141.78
213.618	149.18
213.836	152.02
214.053	147.05
214.271	151.05
214.488	194.2
214.705	198.13
214.923	195.12
215.14	184.99
215.358	196.9
215.575	168.41
215.793	166.38
216.01	168.42
216.227	162.82
216.445	157.34
216.662	150.06
216.879	144.93
217.097	145.16
217.314	155.1
217.531	161.39
217.749	153.23
217.966	161.82
218.183	172.18
218.4	164.23
218.618	164.96
218.835	201.34
219.052	197.33
219.269	199.18
219.487	193.56
219.704	192.5
219.921	208.96
220.138	236.82
220.355	223.69
220.572	215.28
220.79	206.7
221.007	200.41
221.224	169.7
221.441	168.53
221.658	168.15
221.875	166.82
222.092	143.83
222.309	131.61
222.526	125.38
222.743	127.96
222.96	124.59
223.177	123.59
223.394	120.63
223.611	132.19
223.828	131.59
224.045	122.43
224.262	124.07
224.479	130.73
224.696	141.1
224.913	135.87
225.13	139.16
225.347	142.89
225.564	142.03
225.781	145.47
225.997	138.67
226.214	131.2
226.431	132.52
226.648	140.98
226.865	141.82
227.082	127.2
227.298	116.31
227.515	103.74
227.732	96.36
227.949	92.84
228.165	94.16
228.382	88.15
228.599	95.12
228.816	101.78
229.032	88.33
229.249	89.58
229.466	93.44
229.682	98.6
229.899	111.17
230.116	123.15
230.332	126.14
230.549	123.24
230.765	131.58
230.982	124.74
231.199	117.83
231.415	121.58
231.632	126.19
231.848	125.01
232.065	127.01
232.281	128.24
232.498	122.22
232.714	123.36
232.931	127.55
233.147	119.38
233.364	120.52
233.58	119.36
233.797	125.48
234.013	120.18
234.23	120.73
234.446	122.04
234.662	113.08
234.879	105.81
235.095	103.54
235.312	103.95
235.528	106.93
235.744	107.55
235.961	108.15
236.177	103.18
236.393	104.39
236.61	105.74
236.826	107.87
237.042	115.49
237.258	120.52
237.475	126.21
237.691	124.97
237.907	128.68
238.123	131.98
238.339	130.85
238.556	128.55
238.772	120.6
238.988	123.91
239.204	123.58
239.42	119.2
239.636	116.52
239.853	109.43
240.069	106.01
240.285	104.52
240.501	97.7
240.717	96.72
240.933	99.29
241.149	98.38
241.365	88.91
241.581	84.14
241.797	83.78
242.013	83.81
242.229	87.28
242.445	87.79
242.661	84.85
242.877	86.5
243.093	84.89
243.309	81.88
243.525	84.47
243.741	86.19
243.957	87.92
244.173	83.12
244.388	81.92
244.604	74.27
244.82	69.95
245.036	66.52
245.252	60.98
245.468	58.58
245.683	57.72
245.899	54.36
246.115	53.39
246.331	51.67
246.547	49.72
246.762	47.53
246.978	50.42
247.194	49.94
247.409	52.48
247.625	54.57
247.841	55.32
248.057	57.95
248.272	59.64
248.488	61.85
248.703	58.82
248.919	65.06
249.135	68.65
249.35	69.75
249.566	76.07
249.782	79.44
249.997	81.17
250.213	82.59
250.428	79.91
250.644	76.86
250.859	72.9
251.075	77.49
251.29	73.16
251.506	70.6
251.721	69.68
251.937	66.57
252.152	62.77
252.368	64.37
252.583	61.54
252.798	63.89
253.014	67.39
253.229	69.11
253.445	69.27
253.66	72.08
253.875	77.15
254.091	78.47
254.306	83.83
254.521	87.03
254.737	84.43
254.952	89.34
255.167	88.19
255.383	84.49
255.598	85.6
255.813	81.89
256.028	86.28
256.244	83.77
256.459	81.66
256.674	74.32
256.889	72.84
257.104	67.29
257.32	62.98
257.535	58.24
257.75	55.11
257.965	56.35
258.18	56.58
258.395	50.05
258.61	46.46
258.826	44.65
259.041	41.64
259.256	38.1
259.471	40.12
259.686	40.9
259.901	42.88
260.116	45.02
260.331	44.16
260.546	45.75
260.761	47.06
260.976	49.28
261.191	53.14
261.406	59.46
261.621	64.5
261.836	63.36
262.05	61.12
262.265	63.44
262.48	64.17
262.695	64.86
262.91	63.69
263.125	65.51
263.34	70.99
263.555	68.39
263.769	63.78
263.984	59.49
264.199	59.92
264.414	62.33
264.629	60.42
264.843	61.74
265.058	63.94
265.273	63.63
265.488	60.99
265.702	56.61
265.917	56.9
266.132	62.71
266.346	65.44
266.561	68.13
266.776	68.67
266.99	70.94
267.205	68.59
267.42	64.12
267.634	62.92
267.849	61.26
268.063	61.27
268.278	59.46
268.492	56.96
268.707	55.28
268.922	54.68
269.136	58.28
269.351	56.33
269.565	55.88
269.78	55.43
269.994	56
270.209	55.3
270.423	54.49
270.637	54.43
270.852	51.98
271.066	54.68
271.281	56.79
271.495	53.35
271.709	52.5
271.924	52.25
272.138	54.23
272.353	54.81
272.567	57.66
272.781	59.8
272.996	61.35
273.21	62.66
273.424	59.03
273.638	57.54
273.853	58.71
274.067	58.72
274.281	59.69
274.495	59.26
274.71	58.37
274.924	59.69
275.138	61.76
275.352	62.72
275.566	61.12
275.781	62.37
275.995	60.86
276.209	59.28
276.423	60.35
276.637	62.38
276.851	60.87
277.065	60.6
277.279	57.1
277.493	51.77
277.707	51.24
277.921	50.07
278.135	49.87
278.349	51.68
278.563	50.46
278.777	49.13
278.991	44.72
279.205	46.4
279.419	45.4
279.633	44.49
279.847	44.98
280.061	45.89
280.275	48.57
280.489	47.47
280.703	44.85
280.917	47.61
281.131	48.37
281.344	51.55
281.558	52.95
281.772	54.93
281.986	58.56
282.2	59.1
282.414	57.78
282.627	53.79
282.841	54.01
283.055	54.41
283.269	51.9
283.482	50.29
283.696	46.89
283.91	45.53
284.123	43.48
284.337	42.99
284.551	40.47
284.764	40.68
284.978	41.4
285.192	43.45
285.405	44.19
285.619	43.13
285.833	44.45
286.046	42.69
286.26	42.88
286.473	43.03
286.687	42.38
286.9	46.05
287.114	44.76
287.327	45.98
287.541	46.39
287.754	44.51
287.968	47.8
288.181	47.08
288.395	49.09
288.608	48.25
288.822	47.5
289.035	45.61
289.248	44.9
289.462	46.08
289.675	45.66
289.889	45.07
290.102	45.63
290.315	43.21
290.529	41.57
290.742	44.25
290.955	45.59
291.169	48.28
291.382	52
291.595	52.23
291.808	54.35
292.022	56.36
292.235	56.25
292.448	57.28
292.661	59.62
292.875	59.89
293.088	59.73
293.301	57.04
293.514	51.83
293.727	50.19
293.94	49.66
294.153	46.95
294.367	45.33
294.58	43.37
294.793	43.09
295.006	42.02
295.219	41.05
295.432	38.25
295.645	37.28
295.858	37.91
296.071	36.38
296.284	34.24
296.497	33.6
296.71	33.69
296.923	35.68
297.136	34.45
297.349	34.81
297.562	36.4
297.775	37.55
297.988	38.41
298.201	40.17
298.414	39.97
298.626	42.23
298.839	42.96
299.052	42.48
299.265	43.03
299.478	43.62
299.691	42.48
299.903	41.78
300.116	40.38
300.329	40.46
300.542	39.23
300.755	40.06
300.967	39.69
301.18	39.21
301.393	40.42
301.605	39.22
301.818	39.45
302.031	41.2
302.243	41.85
302.456	45.95
302.669	47.63
302.881	49.52
303.094	48.55
303.307	49.09
303.519	50.4
303.732	49.24
303.944	49.37
304.157	50.72
304.37	49.38
304.582	51.8
304.795	50.16
305.007	49.41
305.22	48.58
305.432	50.13
305.645	50.55
305.857	49.32
306.069	48.62
306.282	48.78
306.494	48.15
306.707	49.31
306.919	46.29
307.132	44.83
307.344	45.22
307.556	46.37
307.769	44.56
307.981	41.96
308.193	42.86
308.406	43.65
308.618	42.73
308.83	43.16
309.043	42.63
309.255	43.72
309.467	43.8
309.679	41.61
309.892	39.94
310.104	42.65
310.316	43.11
310.528	42.1
310.74	41.05
310.953	40.98
311.165	39.74
311.377	40.49
311.589	41.01
311.801	41.1
312.013	48.84
312.225	49.37
312.437	47.98
312.649	48.88
312.862	49.01
313.074	50.07
313.286	50.86
313.498	53.67
313.71	53.18
313.922	52.59
314.134	52.53
314.346	46.13
314.558	47.93
314.77	47.99
314.982	50.61
315.193	52.11
315.405	51.88
315.617	51.31
315.829	50.05
316.041	48.19
316.253	46.64
316.465	50.41
316.677	51.28
316.888	51.92
317.1	51.56
317.312	50.65
317.524	50.41
317.736	54.26
317.947	55.66
318.159	56.75
318.371	56.27
318.583	59
318.794	56.53
319.006	56.37
319.218	54.42
319.43	55.54
319.641	56.6
319.853	57.26
320.064	56.86
320.276	55.74
320.488	54.12
320.699	53.94
320.911	51.96
321.123	51.19
321.334	51.29
321.546	51.68
321.757	52.8
321.969	50.38
322.18	48.83
322.392	47.98
322.603	49.23
322.815	48.02
323.026	50
323.238	50.85
323.449	51.18
323.661	50.69
323.872	50.88
324.083	50.22
324.295	50.14
324.506	50.36
324.718	48.87
324.929	46.09
325.14	46.8
325.352	46.08
325.563	45.53
325.774	47.23
325.986	48.02
326.197	48.95
326.408	49
326.62	49.67
326.831	50.33
327.042	49.34
327.253	52.29
327.464	52
327.676	52.56
327.887	52.07
328.098	50.58
328.309	49.95
328.52	49.9
328.732	48.24
328.943	50.09
329.154	52.22
329.365	54.89
329.576	53.58
329.787	55.96
329.998	57.75
330.209	57.38
330.42	57.76
330.631	57.35
330.842	56.88
331.053	56.42
331.264	54.95
331.475	52.01
331.686	51.22
331.897	51.99
332.108	50.35
332.319	48.21
332.53	48.73
332.741	48.93
332.952	50.07
333.163	49.39
333.374	49.86
333.585	49.87
333.795	51.88
334.006	52.48
334.217	50.83
334.428	52.7
334.639	53.89
334.849	51.93
335.06	50.53
335.271	49.83
335.482	50.86
335.692	50.78
335.903	50.77
336.114	47.3
336.325	45.97
336.535	48.31
336.746	47.28
336.957	47.22
337.167	49.61
337.378	49.84
337.589	49.26
337.799	47.12
338.01	48.66
338.22	46.99
338.431	50
338.642	51.3
338.852	49.8
339.063	50.7
339.273	51.87
339.484	50.97
339.694	51.09
339.905	49.29
340.115	50.73
340.326	50.28
340.536	49.84
340.746	48.03
340.957	45.75
341.167	47.42
341.378	45.49
341.588	44.26
341.799	43.27
342.009	41.57
342.219	43.15
342.43	43.08
342.64	42.14
342.85	42.21
343.061	42.61
343.271	44.35
343.481	42.51
343.691	43.54
343.902	42.02
344.112	41.61
344.322	42.84
344.532	43.6
344.743	44.04
344.953	44.69
345.163	45.47
345.373	43.92
345.583	43.56
345.793	42.62
346.004	41.54
346.214	43
346.424	44.07
346.634	46.58
346.844	46.79
347.054	45.31
347.264	46.67
347.474	47.39
347.684	47.19
347.894	46.29
348.104	47.37
348.314	47.57
348.524	45.8
348.734	45.87
348.944	42.67
349.154	41.54
349.364	41.72
349.574	38.26
349.784	37.81
349.994	40.25
350.204	41.83
350.413	42.25
350.623	41.04
350.833	41.96
351.043	41.8
351.253	41.08
351.463	41.86
351.672	42.9
351.882	43.97
352.092	44.67
352.302	43.54
352.511	42.13
352.721	40.9
352.931	41.52
353.141	40.54
353.35	40.55
353.56	42.16
353.77	41.73
353.979	40.43
354.189	41.04
354.399	39.98
354.608	41.41
354.818	43.15
355.027	44.32
355.237	43.85
355.447	44.57
355.656	44.28
355.866	43.47
356.075	42.82
356.285	43.34
356.494	43.08
356.704	44.17
356.913	42.17
357.123	40.64
357.332	40.02
357.542	40.99
357.751	41.43
357.96	41.95
358.17	41.75
358.379	41.15
358.589	40.87
358.798	39.79
359.007	39.05
359.217	39.44
359.426	39.02
359.635	37.85
359.845	38.39
360.054	37.27
360.263	36.23
360.472	36.8
360.682	36.67
360.891	34.92
361.1	35.28
361.309	34.65
361.519	33.54
361.728	33.69
361.937	35
362.146	33.86
362.355	34.91
362.564	35.05
362.774	34.96
362.983	34.52
363.192	36.67
363.401	37.85
363.61	37.58
363.819	39.05
364.028	38.98
364.237	38.4
364.446	39.05
364.655	38.14
364.864	38.06
365.073	38.26
365.282	38.85
365.491	37.57
365.7	35.15
365.909	35.39
366.118	35.34
366.327	34.93
366.536	34.26
366.745	33.48
366.954	33.89
367.162	35.15
367.371	33.37
367.58	34.34
367.789	35.79
367.998	37.98
368.207	38.51
368.415	37.49
368.624	38.99
368.833	39.11
369.042	39.36
369.25	38.98
369.459	37.2
369.668	37.79
369.877	38.53
370.085	37.11
370.294	35.22
370.503	34.27
370.711	34.64
370.92	33.56
371.129	34.89
371.337	34.31
371.546	33.16
371.754	33.59
371.963	33.83
372.171	32.42
372.38	33.11
372.589	34.13
372.797	34.13
373.006	34.54
373.214	35.26
373.423	33.68
373.631	35.38
373.84	37.14
374.048	37.22
374.256	37.02
374.465	38.46
374.673	37.86
374.882	37.74
375.09	37.35
375.298	36.92
375.507	35.73
375.715	35.19
375.923	33.08
376.132	31.82
376.34	31.74
376.548	31.22
376.757	29.46
376.965	29.51
377.173	28.17
377.381	29.23
377.59	29.3
377.798	29.09
378.006	28.98
378.214	30.55
378.423	31.94
378.631	32
378.839	32.34
379.047	33.7
379.255	34.04
379.463	34.44
379.671	35.36
379.879	34.94
380.088	35.85
380.296	37.52
380.504	37.69
380.712	36.45
380.92	36.61
381.128	37.92
381.336	37.85
381.544	37.3
381.752	38.32
381.96	38.48
382.168	39.68
382.376	39.62
382.584	38.84
382.791	38.79
382.999	38.44
383.207	38.03
383.415	38.53
383.623	37.8
383.831	38.51
384.039	38.34
384.247	37.09
384.454	36.52
384.662	37.04
384.87	36.22
385.078	35.91
385.285	35.98
385.493	34.87
385.701	33.64
385.909	33.44
386.116	34.09
386.324	34.05
386.532	34.91
386.739	34.32
386.947	33.68
387.155	34.88
387.362	34.74
387.57	36.17
387.778	36.3
387.985	35.64
388.193	36.22
388.4	35.14
388.608	34.8
388.816	33.64
389.023	34.27
389.231	33.9
389.438	33.49
389.646	33.17
389.853	31.84
390.061	31.79
390.268	32.41
390.475	31.85
390.683	32.08
390.89	32.88
391.098	32.98
391.305	33.1
391.512	33.61
391.72	33.14
391.927	33.65
392.135	33.57
392.342	33.78
392.549	34.35
392.756	34.06
392.964	33.9
393.171	33.89
393.378	34.1
393.586	33.45
393.793	32.2
394	32.42
394.207	31.92
394.414	32.03
394.622	33.09
394.829	31.79
395.036	31.22
395.243	31.77
395.45	31.64
395.657	31.56
395.864	31.74
396.072	32
396.279	33.05
396.486	32.78
396.693	33.19
396.9	32.74
397.107	32.55
397.314	34.16
397.521	33.75
397.728	32.85
397.935	32.64
398.142	32.76
398.349	33.95
398.556	32.55
398.763	33.65
398.97	33.42
399.177	33.07
399.383	33.5
399.59	32.41
399.797	32.14
400.004	32.06
400.211	32.36
400.418	32.76
400.625	32.5
400.831	32.03
401.038	31.18
401.245	31.7
401.452	32.04
401.658	32.2
401.865	32.76
402.072	32.84
402.279	33.7
402.485	32.68
402.692	32.01
402.899	32.14
403.105	32.34
403.312	33.15
403.519	32.16
403.725	31.63
403.932	31.47
404.138	31.22
404.345	31.02
404.552	30.67
404.758	31.04
404.965	30.45
405.171	30.43
405.378	30.47
405.584	29.52
405.791	29.82
405.997	31.29
406.204	31.3
406.41	30.44
406.617	30.86
406.823	30.35
407.029	31.06
407.236	31.66
407.442	32.2
407.649	33.93
407.855	33.56
408.061	32.89
408.268	31.39
408.474	32.83
408.68	34.18
408.887	34.38
409.093	34.87
409.299	34.38
409.505	34.87
409.712	34.46
409.918	32.66
410.124	33.27
410.33	34.2
410.537	34.91
410.743	33.74
410.949	34.21
411.155	34.17
411.361	34.18
411.567	33.6
411.773	33.42
411.98	32.94
412.186	33.62
412.392	34.13
412.598	34.1
412.804	34.08
413.01	33.16
413.216	31.74
413.422	30.98
413.628	30.23
413.834	30.51
414.04	29.78
414.246	29.86
414.452	29.53
414.658	28.55
414.864	27.66
415.07	27.97
415.275	28.6
415.481	29.01
415.687	28.94
415.893	28.8
416.099	28.88
416.305	29.19
416.511	28.57
416.716	28.3
416.922	28.78
417.128	28.88
417.334	27.41
417.539	27.4
417.745	27.17
417.951	26.64
418.157	27.11
418.362	26.08
418.568	25.54
418.774	25.16
418.979	25.54
419.185	24.76
419.391	25.02
419.596	25.64
419.802	25.59
420.008	24.87
420.213	19.73
420.419	19.78
420.624	20.09
420.83	20.55
421.035	21.18
421.241	21.25
421.446	21.33
421.652	20.84
421.857	20.28
422.063	20.01
422.268	20.73
422.474	26.01
422.679	25.77
422.885	26.45
423.09	25.73
423.295	25.19
423.501	24.57
423.706	24.25
423.911	23.63
424.117	23.61
424.322	23.74
424.527	23.78
424.733	23.64
424.938	23.57
425.143	23.49
425.349	23.94
425.554	23.87
425.759	25.11
425.964	25.67
426.169	26.31
426.375	27.26
426.58	27.93
426.785	27.66
426.99	28.05
427.195	28.45
427.4	28.65
427.605	28.56
427.811	29.47
428.016	27.94
428.221	28.65
428.426	28.76
428.631	28.42
428.836	27.83
429.041	27.67
429.246	27.76
429.451	27.46
429.656	26.56
429.861	27.2
430.066	27.19
430.271	27.79
430.476	26.91
430.681	27.36
430.886	27.07
431.09	26.32
431.295	26.46
431.5	26.21
431.705	26.27
431.91	26.57
432.115	26.44
432.32	25.93
432.524	25.4
432.729	25.91
432.934	26.03
433.139	25.95
433.343	26.06
433.548	25.6
433.753	25.79
433.958	25.4
434.162	25.37
434.367	25.02
434.572	24.88
434.776	24.87
434.981	24.52
435.186	24.32
435.39	24.81
435.595	25.29
435.799	25.94
436.004	25.47
436.209	26.56
436.413	26.01
436.618	25.5
436.822	25.8
437.027	25.96
437.231	26.26
437.436	25.35
437.64	24.61
437.845	24.74
438.049	24.76
438.253	25.15
438.458	24.65
438.662	24.85
438.867	25.02
439.071	25.19
439.275	24.69
439.48	24.46
439.684	24.65
439.888	25.08
440.093	24.58
440.297	24.04
440.501	24.07
440.706	23.96
440.91	24.52
441.114	24.94
441.318	24.88
441.523	25.5
441.727	25.58
441.931	26.04
442.135	25.56
442.339	26.13
442.543	26.9
442.748	27.02
442.952	26.75
443.156	26.43
443.36	26.75
443.564	26.48
443.768	26.54
443.972	26.65
444.176	25.82
444.38	26.03
444.584	25.75
444.788	24.76
444.992	24.66
445.196	24.6
445.4	24.17
445.604	23.25
445.808	23.07
446.012	23.05
446.216	22.61
446.42	23.27
446.624	23.32
446.828	23.45
447.032	24.14
447.235	23.68
447.439	23.65
447.643	23.83
447.847	24.37
448.051	24.66
448.254	24.92
448.458	25.4
448.662	25.55
448.866	25.48
449.069	25.35
449.273	25.38
449.477	25.9
449.681	25.87
449.884	26.07
450.088	26.62
450.292	26.44
450.495	26.29
450.699	25.95
450.902	26.1
451.106	26.12
451.31	26.8
451.513	26.85
451.717	26.41
451.92	27.16
452.124	26.93
452.327	25.98
452.531	25.63
452.734	25.96
452.938	26.1
453.141	26.04
453.345	26.06
453.548	25.22
453.752	25.18
453.955	25.74
454.158	25.45
454.362	25.68
454.565	26.51
454.769	27.45
454.972	27.49
455.175	27.64
455.379	27.99
455.582	28.4
455.785	29.03
455.988	28.96
456.192	29.16
456.395	28.71
456.598	28.8
456.801	28.11
457.005	27.75
457.208	27.32
457.411	27.35
457.614	25.95
457.817	25.69
458.021	24.83
458.224	24.5
458.427	24.03
458.63	24.25
458.833	24.01
459.036	23.86
459.239	24.02
459.442	23.65
459.645	23.61
459.848	24.11
460.051	24.37
460.254	24.69
460.457	24.73
460.66	24.87
460.863	24.9
461.066	25.01
461.269	25.4
461.472	25.04
461.675	25.28
461.878	25.24
462.081	26.08
462.284	25.97
462.486	25.57
462.689	25.44
462.892	25.76
463.095	25.99
463.298	26.45
463.5	26.81
463.703	27.51
463.906	27.23
464.109	27.49
464.311	26.78
464.514	27.3
464.717	27.54
464.92	28.07
465.122	28.12
465.325	27.79
465.528	27.49
465.73	27.3
465.933	26.42
466.135	26.54
466.338	25.98
466.541	25.8
466.743	24.88
466.946	25.24
467.148	24.92
467.351	24.31
467.553	24.44
467.756	24.73
467.958	23.82
468.161	24.1
468.363	24.3
468.566	24.6
468.768	25.4
468.971	26.21
469.173	26.36
469.375	26.17
469.578	26.78
469.78	26.26
469.983	26.2
470.185	27.17
470.387	27.47
470.59	27.87
470.792	27.78
470.994	27.16
471.196	26.54
471.399	26.27
471.601	26.55
471.803	26.24
472.005	26.52
472.208	26.07
472.41	26.04
472.612	26.14
472.814	25.32
473.016	26.11
473.218	26.45
473.421	26.36
473.623	26.71
473.825	26.89
474.027	26.72
474.229	26.59
474.431	27.34
474.633	27.28
474.835	27.38
475.037	27.75
475.239	26.9
475.441	27.08
475.643	27.42
475.845	27.21
476.047	27.03
476.249	27.46
476.451	28.06
476.653	27.5
476.855	27.37
477.057	27.29
477.258	27.4
477.46	27.11
477.662	26.8
477.864	26.82
478.066	26.51
478.268	26.29
478.469	25.98
478.671	25.58
478.873	25.69
479.075	25.63
479.276	25.21
479.478	24.9
479.68	24.68
479.882	24.51
480.083	23.81
480.285	23.8
480.487	23.77
480.688	23.37
480.89	23.27
481.091	22.64
481.293	22.48
481.495	22.09
481.696	21.78
481.898	21.45
482.099	21.02
482.301	20.83
482.502	20.56
482.704	20.32
482.905	20.04
483.107	19.67
483.308	19.58
483.51	19.37
483.711	19.38
483.913	19.22
484.114	19.23
484.315	19.29
484.517	19.26
484.718	19.33
484.92	19.35
485.121	19.61
485.322	19.72
485.524	19.84
485.725	19.98
485.926	20.02
486.127	20.34
486.329	20.57
486.53	20.42
486.731	20.44
486.932	20.41
487.134	20.28
487.335	20.27
487.536	20.42
487.737	20.47
487.938	20.59
488.139	20.65
488.341	20.55
488.542	20.64
488.743	21.04
488.944	21.26
489.145	21.47
489.346	21.72
489.547	21.57
489.748	21.6
489.949	21.87
490.15	21.88
490.351	21.67
490.552	21.81
490.753	21.59
490.954	21.24
491.155	21.12
491.356	20.77
491.557	20.81
491.758	20.96
491.959	20.67
492.159	20.43
492.36	20.48
492.561	20.79
492.762	20.86
492.963	21.07
493.164	21.45
493.364	21.74
493.565	22.18
493.766	22.6
493.967	22.99
494.167	23.42
494.368	23.68
494.569	23.53
494.769	24.01
494.97	24.06
495.171	24.16
495.371	24.31
495.572	24.15
495.773	24.17
495.973	23.76
496.174	23.51
496.375	23.72
496.575	23.81
496.776	23.78
496.976	23.29
497.177	23.31
497.377	23.52
497.578	23.43
497.778	23.45
497.979	23.68
498.179	23.74
498.38	23.82
498.58	23.88
498.78	23.7
498.981	24.1
499.181	24.57
499.382	24.91
499.582	24.57
499.782	25.21
499.983	25.6
500.183	25.76
500.383	25.91
500.584	25.66
500.784	25.83
500.984	26.23
501.184	26.07
501.385	26.07
501.585	25.8
501.785	26.54
501.985	25.98
502.185	25.62
502.386	25.48
502.586	25.21
502.786	25.86
502.986	25.33
503.186	25.26
503.386	25.13
503.586	24.7
503.786	24.42
503.987	23.8
504.187	23.69
504.387	24.02
504.587	24.28
504.787	24.83
504.987	24.91
505.187	25.5
505.387	25.57
505.587	26.04
505.786	26.06
505.986	26.25
506.186	25.87
506.386	26.14
506.586	26.16
506.786	25.57
506.986	25.49
507.186	24.91
507.386	25.01
507.585	24.79
507.785	24.65
507.985	24.8
508.185	24.86
508.384	25.54
508.584	25.37
508.784	25.4
508.984	25.8
509.183	25.55
509.383	26.36
509.583	26.13
509.782	26.3
509.982	26.39
510.182	26.48
510.381	26.73
510.581	26.61
510.781	26.31
510.98	26.12
511.18	26.34
511.379	26.15
511.579	25.47
511.778	25.48
511.978	25.7
512.177	25.3
512.377	25.12
512.576	24.8
512.776	24.85
512.975	25.12
513.175	25.37
513.374	25.07
513.573	25.9
513.773	26.45
513.972	26.87
514.172	26.55
514.371	27.07
514.57	27.7
514.77	28.22
514.969	28.1
515.168	28.39
515.367	28.16
515.567	28.2
515.766	27.7
515.965	27.6
516.164	27.51
516.364	27.19
516.563	27.08
516.762	26.73
516.961	26.62
517.16	26.14
517.359	26
517.559	26.03
517.758	26.06
517.957	26.06
518.156	26.13
518.355	26.06
518.554	26.54
518.753	26.5
518.952	26.72
519.151	26.71
519.35	27.41
519.549	27.59
519.748	28.23
519.947	28.34
520.146	28.4
520.345	28.45
520.544	28.74
520.743	28.83
520.942	28.84
521.141	28.29
521.339	28.18
521.538	28.03
521.737	28.08
521.936	27.67
522.135	27.87
522.333	27.99
522.532	28
522.731	27.69
522.93	27.41
523.129	27.36
523.327	27.83
523.526	28
523.725	28.25
523.923	27.97
524.122	27.92
524.321	27.76
524.519	28.12
524.718	27.8
524.917	28.05
525.115	28.01
525.314	28.06
525.512	27.94
525.711	27.51
525.909	27.19
526.108	27.11
526.306	27.11
526.505	26.96
526.703	26.72
526.902	26.53
527.1	26.18
527.299	26.28
527.497	25.96
527.696	25.66
527.894	25.76
528.092	25.72
528.291	25.9
528.489	25.82
528.688	25.95
528.886	25.85
529.084	26.22
529.283	26.37
529.481	26.51
529.679	26.95
529.877	27.45
530.076	27.52
530.274	27.67
530.472	27.59
530.67	27.72
530.869	27.76
531.067	28.02
531.265	27.89
531.463	27.97
531.661	27.68
531.859	27.54
532.057	27.45
532.255	27.53
532.454	27.85
532.652	28.13
532.85	28.34
533.048	28.33
533.246	28.31
533.444	28.37
533.642	28.75
533.84	29.23
534.038	29.71
534.236	30.07
534.434	30.43
534.632	30.5
534.83	30.28
535.027	30.17
535.225	30.31
535.423	30.46
535.621	30.6
535.819	30.21
536.017	30.13
536.215	29.98
536.412	30.05
536.61	30.14
536.808	30.42
537.006	30.87
537.203	31.42
537.401	31.71
537.599	32
537.797	32.27
537.994	32.65
538.192	32.74
538.39	32.78
538.587	32.56
538.785	32.89
538.983	33.04
539.18	32.94
539.378	32.63
539.575	32.35
539.773	32.28
539.97	32.31
540.168	32.33
540.366	32.55
540.563	32.41
540.761	32.52
540.958	32.52
541.155	32.35
541.353	32.54
541.55	32.5
541.748	32.72
541.945	32.63
542.143	32.55
542.34	32.8
542.537	32.69
542.735	32.96
542.932	33.14
543.129	33.09
543.327	33.12
543.524	33.23
543.721	33.4
543.919	33.56
544.116	34.02
544.313	34.15
544.51	33.89
544.708	34.04
544.905	34.4
545.102	34.49
545.299	34.78
545.496	34.81
545.693	34.52
545.891	34.7
546.088	34.81
546.285	34.89
546.482	35.32
546.679	35.65
546.876	35.64
547.073	35.74
547.27	35.96
547.467	35.66
547.664	36.07
547.861	36.49
548.058	36.78
548.255	37.31
548.452	37.4
548.649	37.92
548.846	37.92
549.043	38.19
549.24	37.92
549.437	38.15
549.633	39.05
549.83	39.48
550.027	39.51
550.224	39.9
550.421	39.95
550.618	40.51
550.814	39.97
551.011	39.8
551.208	40.08
551.405	39.93
551.601	39.84
551.798	40.09
551.995	39.67
552.191	39.98
552.388	39.41
552.585	39.1
552.781	39.02
552.978	38.95
553.175	39.52
553.371	39.98
553.568	40.24
553.764	40.69
553.961	40.38
554.157	40.97
554.354	41.33
554.55	42.22
554.747	42.52
554.943	43.55
555.14	44.33
555.336	44.87
555.533	44.78
555.729	45.91
555.926	45.78
556.122	45.8
556.318	45.96
556.515	46.14
556.711	46
556.907	46.58
557.104	46.51
557.3	46.39
557.496	46.11
557.693	45.86
557.889	45.57
558.085	45.73
558.281	46.04
558.478	46.12
558.674	45.54
558.87	45.43
559.066	44.88
559.262	44.09
559.459	44.28
559.655	44.38
559.851	44.67
560.047	44.89
560.243	44.71
560.439	44.83
560.635	45.11
560.831	45.43
561.027	45.71
561.223	46.29
561.419	46.31
561.615	46.3
561.811	46.51
562.007	46.59
562.203	46.78
562.399	47.7
562.595	47.76
562.791	47.94
562.987	47.78
563.183	47.93
563.379	47.99
563.575	48.62
563.771	48.47
563.966	47.75
564.162	47.53
564.358	47.15
564.554	46.41
564.75	45.62
564.945	45.33
565.141	45.99
565.337	45.88
565.533	45.85
565.728	45.11
565.924	45.02
566.12	45.71
566.315	45.77
566.511	46.08
566.707	46.35
566.902	46.63
567.098	46.93
567.293	46.95
567.489	47.35
567.684	47.82
567.88	48.36
568.076	48.5
568.271	48.6
568.467	49.3
568.662	49.03
568.858	49.43
569.053	49.84
569.248	49.54
569.444	48.89
569.639	48.54
569.835	47.59
570.03	47.5
570.225	47.58
570.421	47.68
570.616	47.42
570.812	47.4
571.007	46.87
571.202	46.82
571.397	46.74
571.593	46.94
571.788	46.83
571.983	47.32
572.178	47.57
572.374	48.12
572.569	47.48
572.764	47.78
572.959	47.54
573.154	47.95
573.35	47.77
573.545	48.17
573.74	48.29
573.935	48.7
574.13	48.58
574.325	48.08
574.52	47.59
574.715	48.37
574.91	48.02
575.105	48.44
575.3	48.34
575.495	48.88
575.69	49.44
575.885	49.49
576.08	49.72
576.275	50.01
576.47	50.28
576.665	50.66
576.86	50.6
577.055	50.2
577.25	50.58
577.444	51.15
577.639	51.71
577.834	51.08
578.029	52.01
578.224	52.27
578.418	52.88
578.613	52.6
578.808	52.88
579.003	53.15
579.197	54.12
579.392	54.04
579.587	53.79
579.781	53.46
579.976	53.8
580.171	53.32
580.365	53.71
580.56	53.75
580.755	55.01
580.949	55.19
581.144	55.68
581.338	55.05
581.533	55.41
581.727	55.39
581.922	55.89
582.116	56.01
582.311	56.3
582.505	55.8
582.7	55.43
582.894	55.24
583.089	55.26
583.283	54.93
583.478	55.69
583.672	55.37
583.866	55.49
584.061	55.32
584.255	55.55
584.449	56.19
584.644	55.88
584.838	56.31
585.032	56.56
585.226	56.04
585.421	56.22
585.615	56.33
585.809	56.58
586.003	57.18
586.198	56.91
586.392	57.03
586.586	57.02
586.78	57.23
586.974	57.02
587.168	56.87
587.363	57.25
587.557	56.88
587.751	56.53
587.945	57.13
588.139	57.23
588.333	57.4
588.527	56.9
588.721	56.25
588.915	56.38
589.109	56.1
589.303	56.13
589.497	55.96
589.691	56.33
589.885	56.51
590.079	56.17
590.273	56.22
590.466	56.1
590.66	56.57
590.854	56.84
591.048	57.08
591.242	57.18
591.436	57.61
591.629	58.04
591.823	58.45
592.017	58.35
592.211	58.68
592.404	58.45
592.598	59.42
592.792	59.53
592.986	59.71
593.179	59.58
593.373	59.46
593.567	59.37
593.76	58.91
593.954	57.76
594.147	58.37
594.341	58.16
594.535	58.15
594.728	57.22
594.922	56.84
595.115	56.22
595.309	56.07
595.502	56.59
595.696	56.27
595.889	56.67
596.083	57.17
596.276	57.11
596.47	57.1
596.663	56.74
596.856	56.56
597.05	56.23
597.243	56.48
597.437	57.11
597.63	56.95
597.823	57.87
598.017	56.96
598.21	57.48
598.403	57.92
598.596	57.37
598.79	57.79
598.983	58.49
599.176	59.57
599.369	60.65
599.563	60.17
599.756	60.48
599.949	60.66
600.142	61.43
600.335	61.25
600.528	60.88
600.722	62.18
600.915	62.3
601.108	62.43
601.301	61.38
601.494	60.57
601.687	60.24
601.88	60.3
602.073	59.29
602.266	60.13
602.459	59.86
602.652	59.13
602.845	58.17
603.038	58.32
603.231	58.57
603.424	59.12
603.617	58.61
603.809	58.77
604.002	58.36
604.195	58.89
604.388	58.41
604.581	58.68
604.774	59.72
604.966	60.02
605.159	60.28
605.352	59.56
605.545	59.93
605.737	61.08
605.93	61.7
606.123	62.56
606.316	62.2
606.508	62.36
606.701	62.51
606.894	61.89
607.086	62.19
607.279	62.35
607.471	63.13
607.664	63.07
607.857	62.34
608.049	61.65
608.242	60.71
608.434	60.5
608.627	60.28
608.819	60.32
609.012	60.18
609.204	60.87
609.397	60.25
609.589	60.51
609.782	60.31
609.974	60.19
610.166	60.64
610.359	61.89
610.551	61.9
610.743	62.49
610.936	62.06
611.128	62.94
611.32	62.75
611.513	62.97
611.705	62.74
611.897	63.04
612.09	63.98
612.282	64.34
612.474	64.33
612.666	64.85
612.858	65.04
613.051	65.4
613.243	64.63
613.435	64.76
613.627	64.49
613.819	64.5
614.011	65.41
614.203	64.75
614.395	64.48
614.588	63.94
614.78	64.71
614.972	65.29
615.164	66.54
615.356	67.06
615.548	66.69
615.74	67.56
615.932	68.25
616.124	67.15
616.315	68.65
616.507	69.29
616.699	68.74
616.891	68.3
617.083	68.16
617.275	67.7
617.467	68.11
617.659	67.84
617.85	68.29
618.042	67.83
618.234	68.18
618.426	67.59
618.618	67.73
618.809	68.48
619.001	68.91
619.193	69.51
619.384	69.04
619.576	68.41
619.768	67.9
619.959	67.19
620.151	68.13
620.343	68.88
620.534	68.46
620.726	68.41
620.917	69.37
621.109	70.18
621.301	69.92
621.492	70.81
621.684	71.79
621.875	73.12
622.067	73.09
622.258	72.08
622.45	71.49
622.641	72.23
622.832	72.07
623.024	71.25
623.215	70.23
623.407	69.43
623.598	69.16
623.789	68.7
623.981	67.99
624.172	68.42
624.363	68.01
624.555	68.03
624.746	67.58
624.937	67.21
625.129	67.72
625.32	67.91
625.511	68.03
625.702	66.83
625.893	66.97
626.085	67.54
626.276	67.13
626.467	67.25
626.658	66.86
626.849	67.57
627.04	67.21
627.231	66.28
627.422	66.28
627.614	66.4
627.805	67.49
627.996	67.44
628.187	67.41
628.378	67.7
628.569	67.15
628.76	67.75
628.951	67.96
629.142	67.39
629.332	67.98
629.523	67.9
629.714	68.06
629.905	67.89
630.096	68.27
630.287	68.34
630.478	68.46
630.669	69.39
630.859	69.35
631.05	68.69
631.241	70.62
631.432	70.91
631.623	71.33
631.813	70.68
632.004	71.04
632.195	70.25
632.385	71.81
632.576	71.52
632.767	71.31
632.957	71.57
633.148	71.63
633.339	71.61
633.529	71.64
633.72	71.83
633.91	72.11
634.101	72.59
634.292	72.41
634.482	71.24
634.673	72.28
634.863	72.91
635.054	73.3
635.244	73.61
635.435	73.75
635.625	73.4
635.815	72
636.006	72.62
636.196	72.55
636.387	73.36
636.577	72.83
636.767	72.63
636.958	73.16
637.148	72.16
637.338	71.67
637.529	71.85
637.719	72.16
637.909	73.76
638.099	72.46
638.29	72.1
638.48	71.83
638.67	71.49
638.86	72.19
639.05	71.34
639.241	72.49
639.431	73.57
639.621	72.99
639.811	73.35
640.001	72.8
640.191	73.85
640.381	72.81
640.571	73.65
640.761	74.13
640.951	73.65
641.141	74.13
641.331	73.67
641.521	73.73
641.711	74.57
641.901	74.77
642.091	77.17
642.281	77.58
642.471	78.73
642.661	78.83
642.851	80.41
643.041	79.44
643.231	79.03
643.42	79.38
643.61	79.22
643.8	78.4
643.99	78.93
644.18	76.95
644.369	76.48
644.559	77.58
644.749	76.69
644.939	75.97
645.128	76.59
645.318	77.53
645.508	77.31
645.697	77.68
645.887	78.46
646.076	78.13
646.266	78.82
646.456	79.57
646.645	78.34
646.835	79.31
647.024	78.83
647.214	78.87
647.403	78.26
647.593	78.21
647.782	78.24
647.972	77.69
648.161	77.41
648.351	75.91
648.54	75.15
648.73	75.19
648.919	74.76
649.108	75.09
649.298	75.77
649.487	76.52
649.677	76.59
649.866	75.55
650.055	75.17
650.244	75.22
650.434	75.37
650.623	76.76
650.812	77.85
651.002	77.4
651.191	78.16
651.38	78.97
651.569	79.41
651.758	78.65
651.947	79.78
652.137	80.39
652.326	80.19
652.515	81.85
652.704	81.08
652.893	79.75
653.082	80.04
653.271	79.95
653.46	77.31
653.649	76.13
653.838	77.25
654.027	77.15
654.216	77.72
654.405	78.26
654.594	77.41
654.783	77.47
654.972	76.8
655.161	77.34
655.35	76.93
655.539	78.65
655.728	78.14
655.916	77.62
656.105	77.3
656.294	76.79
656.483	76.31
656.672	76.1
656.86	75.68
657.049	75.62
657.238	73.97
657.427	74.57
657.615	73.98
657.804	73.68
657.993	73.29
658.181	72.97
658.37	72.9
658.559	73.24
658.747	73.79
658.936	73.87
659.125	75.62
659.313	76.16
659.502	75.31
659.69	75.42
659.879	77.19
660.067	77.71
660.256	77.32
660.444	78.1
660.633	78.45
660.821	78.17
661.01	77.81
661.198	77.32
661.387	78.95
661.575	79.48
661.763	80.48
661.952	78.74
662.14	79.2
662.328	80.73
662.517	81.63
662.705	80.93
662.893	79.58
663.082	80.88
663.27	80.9
663.458	80.23
663.646	81.08
663.834	81.13
664.023	83.22
664.211	84.1
664.399	83.58
664.587	82.25
664.775	82.71
664.963	85.32
665.152	85.25
665.34	84.9
665.528	85.8
665.716	85.59
665.904	86.02
666.092	85.84
666.28	85.75
666.468	86.78
666.656	87.13
666.844	87.27
667.032	86
667.22	85.81
667.408	87.13
667.596	86.9
667.784	86.49
667.971	86.59
668.159	86.68
668.347	87.13
668.535	86.06
668.723	86.14
668.911	85.18
669.098	85.93
669.286	85.62
669.474	84
669.662	84.98
669.849	85.72
670.037	85.53
670.225	85.88
670.413	86.14
670.6	85.57
670.788	85.34
670.976	85.85
671.163	86.02
671.351	86.99
671.538	88.61
671.726	87.08
671.913	86.09
672.101	84.72
672.289	83.09
672.476	82.41
672.664	84.01
672.851	83.58
673.039	84.83
673.226	85.19
673.413	84.5
673.601	84.58
673.788	84.22
673.976	84.32
674.163	85.61
674.35	86.68
674.538	86.15
674.725	84.62
674.912	85.9
675.1	86.16
675.287	86.63
675.474	87.16
675.662	86.93
675.849	87.31
676.036	87.9
676.223	87.57
676.411	87.1
676.598	87.27
676.785	89.48
676.972	87.54
677.159	86.61
677.346	85.51
677.533	85.32
677.721	85.26
677.908	84.68
678.095	83.13
678.282	83.37
678.469	82.65
678.656	82.1
678.843	80.78
679.03	81.3
679.217	82.4
679.404	82.46
679.591	82.39
679.778	82.21
679.964	82.97
680.151	84.7
680.338	84.18
680.525	84.05
680.712	83.73
680.899	84.18
681.086	83.3
681.272	82.47
681.459	82.81
681.646	82.69
681.833	82.13
682.02	82.55
682.206	81.62
682.393	81.87
682.58	83.03
682.766	84.98
682.953	84.97
683.14	86.61
683.326	85.57
683.513	86.06
683.7	85.99
683.886	86
684.073	86.49
684.259	86.34
684.446	86.55
684.632	87.31
684.819	87.97
685.005	87.66
685.192	88.33
685.378	89.22
685.565	87.88
685.751	87.6
685.938	87.5
686.124	86.05
686.31	86.73
686.497	86.33
686.683	85.18
686.87	83.36
687.056	83.64
687.242	84.15
687.429	83.87
687.615	85.03
687.801	84.79
687.987	85.43
688.174	86.48
688.36	86.04
688.546	85.81
688.732	84.9
688.918	83.91
689.105	82.61
689.291	80.79
689.477	82.31
689.663	82.07
689.849	84.22
690.035	84.58
690.221	81.99
690.407	83.17
690.593	83.62
690.779	84.92
690.965	87.07
691.151	88.46
691.337	88.55
691.523	87.8
691.709	89.64
691.895	89.2
692.081	88
692.267	90.21
692.453	88.11
692.639	88.27
692.825	89.43
693.011	87.83
693.196	88.58
693.382	90.73
693.568	91.41
693.754	89.94
693.94	89.95
694.125	91.63
694.311	91.54
694.497	92.92
694.682	93.34
694.868	93.1
695.054	93.96
695.239	93.71
695.425	92.62
695.611	91.98
695.796	91.48
695.982	90.55
696.168	89.4
696.353	88.26
696.539	87.94
696.724	87.9
696.91	85.66
697.095	85.71
697.281	83.85
697.466	83.39
697.652	82.75
697.837	82.09
698.023	81.77
698.208	79.37
698.393	80.03
698.579	79.58
698.764	78.78
698.949	78.81
699.135	78.41
699.32	79.65
699.505	79.33
699.691	79.75
699.876	79.86
700.061	79.86
700.246	83.2
700.432	82.29
700.617	84.91
700.802	87.07
700.987	89.97
701.172	91.87
701.358	93.42
701.543	94.97
701.728	94.13
701.913	94.05
702.098	95.06
702.283	95.45
702.468	97.68
702.653	95.94
702.838	94.86
703.023	93.79
703.208	94.45
703.393	92.02
703.578	92.16
703.763	93.77
703.948	95.67
704.133	96.17
704.318	96.7
704.503	96.67
704.688	98.98
704.873	99.84
705.057	99.71
705.242	98.09
705.427	99.2
705.612	99.69
705.797	99.78
705.981	101.18
706.166	102.16
706.351	102.68
706.536	102.99
706.72	102.46
706.905	100.64
707.09	101.09
707.274	101.37
707.459	101.36
707.644	101.04
707.828	100.52
708.013	98.07
708.197	96.78
708.382	95.35
708.567	95.7
708.751	96.09
708.936	96.07
709.12	94.86
709.305	94.54
709.489	94.09
709.673	92.81
709.858	94.54
710.042	96.82
710.227	95.59
710.411	95.22
710.596	94.2
710.78	91.9
710.964	94.23
711.149	96.01
711.333	95.53
711.517	95.11
711.702	93.78
711.886	93.03
712.07	90.63
712.254	91.89
712.438	91.78
712.623	90.97
712.807	90.8
712.991	88.38
713.175	88.33
713.359	88.01
713.544	86.95
713.728	88.55
713.912	87.14
714.096	88.52
714.28	85.86
714.464	86.51
714.648	86.71
714.832	86.69
715.016	86.11
715.2	84.81
715.384	84.84
715.568	86.17
715.752	86.28
715.936	87.3
716.12	85.69
716.304	89.17
716.488	87.68
716.671	88.48
716.855	88.88
717.039	88.37
717.223	87.83
717.407	88.66
717.59	88
717.774	87.07
717.958	85.38
718.142	86.75
718.325	85.85
718.509	87.24
718.693	88.08
718.877	87.92
719.06	91.89
719.244	91.86
719.428	93.59
719.611	96.6
719.795	96.07
719.978	96.22
720.162	95.11
720.345	95.8
720.529	97.07
720.713	96.53
720.896	97.73
721.08	96.83
721.263	98.65
721.446	97.34
721.63	95.85
721.813	96.25
721.997	96.32
722.18	98.62
722.364	98.23
722.547	99.06
722.73	99.39
722.914	97.86
723.097	95.2
723.28	93.23
723.464	91.46
723.647	91.11
723.83	91.32
724.013	91.86
724.197	90.32
724.38	89.79
724.563	87.87
724.746	88.47
724.929	90.48
725.112	94.88
725.296	95.9
725.479	97.69
725.662	97.52
725.845	96.63
726.028	95.69
726.211	94.49
726.394	95.27
726.577	96.72
726.76	96.45
726.943	94.53
727.126	92.12
727.309	92.73
727.492	93.66
727.675	91.51
727.858	91.29
728.041	93.49
728.224	93.48
728.407	92.89
728.589	92.66
728.772	91.28
728.955	90.71
729.138	90.51
729.321	88.8
729.503	87.33
729.686	89.28
729.869	89.98
730.052	88.66
730.234	89.79
730.417	89.41
730.6	87.84
730.782	88.77
730.965	91.75
731.148	93
731.33	93.09
731.513	92.92
731.695	93.45
731.878	95.63
732.061	97.46
732.243	96.51
732.426	96.75
732.608	98.28
732.791	99.43
732.973	98.37
733.156	97.56
733.338	98.43
733.52	100.25
733.703	100.05
733.885	98.41
734.068	97.88
734.25	100.7
734.432	101.78
734.615	101.66
734.797	101.54
734.979	101.24
735.162	100.78
735.344	103.12
735.526	100.94
735.708	101.5
735.891	103.23
736.073	103.53
736.255	103.64
736.437	103.23
736.619	101.83
736.802	101.28
736.984	100.95
737.166	100.16
737.348	99.24
737.53	100.17
737.712	102.36
737.894	101.63
738.076	101.88
738.258	100.86
738.44	102.34
738.622	104.77
738.804	105.08
738.986	107.54
739.168	107.62
739.35	107.87
739.532	111.15
739.714	110.26
739.896	110.79
740.078	111.16
740.259	109.28
740.441	107.47
740.623	106.68
740.805	106.01
740.987	103.66
741.168	103.69
741.35	103.82
741.532	102.81
741.714	100.79
741.895	99.97
742.077	98.53
742.259	101.44
742.44	103.02
742.622	104.04
742.804	104.5
742.985	104.98
743.167	107.42
743.348	106.88
743.53	105.41
743.711	107.72
743.893	109.29
744.075	110.9
744.256	110.49
744.438	110.6
744.619	109.41
744.8	111.15
744.982	111.91
745.163	110.32
745.345	112.15
745.526	111.98
745.707	111.63
745.889	109.01
746.07	110.99
746.252	112.3
746.433	114.11
746.614	113.71
746.795	114.29
746.977	112.42
747.158	113.82
747.339	112.42
747.52	110.85
747.702	111.77
747.883	113.29
748.064	112.57
748.245	111.98
748.426	108.68
748.607	109.86
748.788	105.35
748.97	108.02
749.151	109.3
749.332	112.15
749.513	115.54
749.694	115.04
749.875	118.95
750.056	118.42
750.237	116.77
750.418	121.2
750.599	119.37
750.78	123.17
750.96	121.97
751.141	122
751.322	119.9
751.503	120.83
751.684	120
751.865	116.58
752.046	117.33
752.226	116.02
752.407	115.34
752.588	118.56
752.769	118.11
752.949	115.84
753.13	112.94
753.311	110.96
753.492	111.21
753.672	108.26
753.853	108.01
754.034	104.49
754.214	106.99
754.395	105.15
754.575	104.18
754.756	102.66
754.937	103.15
755.117	102.49
755.298	102.26
755.478	99.31
755.659	102.68
755.839	102.84
756.02	104.67
756.2	104.74
756.381	104.76
756.561	105.42
756.741	107.35
756.922	108.55
757.102	108.18
757.283	109.44
757.463	110.72
757.643	109.62
757.823	111.84
758.004	109.37
758.184	106.92
758.364	107.25
758.545	102.05
758.725	102.33
758.905	100.13
759.085	101.36
759.265	98.97
759.446	96.48
759.626	96.6
759.806	93.09
759.986	94.91
760.166	94.99
760.346	94.1
760.526	98.43
760.706	96.29
760.886	96.76
761.066	96.26
761.246	95.62
761.426	94.7
761.606	90.51
761.786	89.52
761.966	86.16
762.146	86.05
762.326	84.22
762.506	82.37
762.686	83.65
762.866	84.26
763.046	85.14
763.225	87.27
763.405	87.89
763.585	90.94
763.765	91.55
763.945	93.91
764.124	93.61
764.304	95.93
764.484	98.01
764.664	98.55
764.843	98.29
765.023	96.97
765.203	97.36
765.382	99.07
765.562	101
765.741	102.6
765.921	104.04
766.101	107.18
766.28	107.8
766.46	110.19
766.639	108.53
766.819	110.26
766.998	111.88
767.178	110.23
767.357	110.75
767.537	111.26
767.716	111.91
767.896	112.09
768.075	114.25
768.254	113.97
768.434	111.25
768.613	113.92
768.792	116.33
768.972	118.91
769.151	125.01
769.33	127.62
769.51	126.86
769.689	128.28
769.868	128.49
770.047	126.67
770.226	124.57
770.406	128.49
770.585	132.81
770.764	130.6
770.943	128.94
771.122	130.31
771.301	129.34
771.48	129.57
771.66	131.95
771.839	129.75
772.018	130.29
772.197	133.95
772.376	134.73
772.555	132.34
772.734	132.21
772.913	134.63
773.092	129.49
773.271	130.54
773.449	133.27
773.628	128.27
773.807	130.47
773.986	130.22
774.165	130.86
774.344	132.27
774.523	130.97
774.701	132.75
774.88	128.23
775.059	125.08
775.238	124.2
775.417	121.58
775.595	125.15
775.774	126.59
775.953	124.37
776.131	122.11
776.31	116.99
776.489	114.59
776.667	115.34
776.846	116.51
777.025	118.53
777.203	118.71
777.382	118.51
777.56	116.82
777.739	114.51
777.917	115.05
778.096	115.14
778.274	120
778.453	121.16
778.631	120.29
778.81	122.55
778.988	126.23
779.166	126.09
779.345	125.43
779.523	123.91
779.702	124.72
779.88	125.82
780.058	130.6
780.237	126.05
780.415	126.04
780.593	122.26
780.771	118.89
780.95	119.23
781.128	117.31
781.306	117.49
781.484	124.69
781.662	125.97
781.841	122.5
782.019	118.3
782.197	120.75
782.375	124.65
782.553	128.78
782.731	131.37
782.909	125.95
783.087	126.94
783.265	123.55
783.443	118.61
783.621	117.96
783.799	122.86
783.977	123.45
784.155	121.93
784.333	116.73
784.511	116.2
784.689	116.78
784.867	118.06
785.045	118.68
785.223	121.56
785.4	122.38
785.578	123.05
785.756	121.89
785.934	124.63
786.112	126.01
786.289	131.17
786.467	128.07
786.645	126.09
786.823	126.02
787	126.54
787.178	125.69
787.356	126.17
787.533	128.06
787.711	124.47
787.889	119.98
788.066	120.25
788.244	114.6
788.421	118.23
788.599	119.66
788.776	119.84
788.954	120.27
789.131	122.28
789.309	123.34
789.486	126.92
789.664	129.91
789.841	129.71
790.019	129.44
790.196	133.19
790.373	133.36
790.551	131.39
790.728	130.17
790.906	129.45
791.083	120.21
791.26	113.76
791.437	108.61
791.615	109.25
791.792	112.75
791.969	111.56
792.146	109.3
792.324	106.27
792.501	108.95
792.678	109.75
792.855	109.45
793.032	118.03
793.209	118.5
793.387	120.37
793.564	118.67
793.741	116.87
793.918	117.68
794.095	120.32
794.272	125.05
794.449	122.35
794.626	123.05
794.803	116.86
794.98	116.23
795.157	120.72
795.334	118.16
795.511	117.43
795.688	117.64
795.864	115.67
796.041	111.89
796.218	108.45
796.395	107.37
796.572	105.86
796.749	107.4
796.925	106.62
797.102	106.88
797.279	105.92
797.456	109.18
797.632	106.45
797.809	109.55
797.986	109.62
798.162	110.44
798.339	110.09
798.516	113.93
798.692	115.97
798.869	116.54
799.046	114.03
799.222	115.23
799.399	115.87
799.575	120.03
799.752	116.97
799.928	115.66
800.105	118.37
800.281	120.59
800.458	119.35
800.634	120.48
800.811	122.35
800.987	124.01
801.163	125.8
801.34	122.56
801.516	123.19
801.692	121.54
801.869	124.92
802.045	123.72
802.221	127.71
802.398	129.03
802.574	131.86
802.75	130.03
802.926	130.29
803.103	128.74
803.279	132.89
803.455	130.67
803.631	135
803.807	142.05
803.983	142.54
804.16	138.75
804.336	140.83
804.512	135.55
804.688	137.57
804.864	131.25
805.04	127.6
805.216	127.27
805.392	127.37
805.568	124.48
805.744	123.28
805.92	122.95
806.096	121.51
806.272	114.82
806.448	119.78
806.623	117.51
806.799	124.69
806.975	124.22
807.151	118.68
807.327	117.51
807.503	116.42
807.678	115.16
807.854	113.16
808.03	115.56
808.206	120.7
808.381	118.02
808.557	115.19
808.733	114.53
808.908	114.13
809.084	116.32
809.26	116.38
809.435	122.81
809.611	123.37
809.787	122.62
809.962	121.08
810.138	121.21
810.313	121.77
810.489	125.51
810.664	121.91
810.84	122.56
811.015	125.92
811.191	125.76
811.366	121.52
811.542	121.46
811.717	120.77
811.892	115.21
812.068	115.71
812.243	114.63
812.419	118.76
812.594	123.53
812.769	123.54
812.944	122.76
813.12	120.02
813.295	122.61
813.47	118.1
813.645	118.41
813.821	126.32
813.996	119.01
814.171	119.2
814.346	110.17
814.521	108.55
814.697	110.2
814.872	105.53
815.047	108.84
815.222	109.37
815.397	111.91
815.572	112.69
815.747	104.2
815.922	105.09
816.097	107.32
816.272	113.19
816.447	114.46
816.622	118.84
816.797	117.73
816.972	123.7
817.147	119.04
817.322	117.4
817.496	119.05
817.671	119.76
817.846	126.17
818.021	124.09
818.196	117.55
818.371	115.57
818.545	109.11
818.72	112.09
818.895	105.73
819.069	108.44
819.244	107.53
819.419	106.72
819.594	106.64
819.768	99.05
819.943	96.5
820.117	94.02
820.292	91.05
820.467	87.59
820.641	82.69
820.816	79.23
820.99	75.38
821.165	72.45
821.339	70.14
821.514	69.78
821.688	67.05
821.863	65.94
822.037	65.15
822.212	64.19
822.386	64.35
822.56	65.24
822.735	65.25
822.909	65.73
823.084	66.66
823.258	66.89
823.432	67.65
823.606	69.31
823.781	70.04
823.955	71.73
824.129	73.43
824.303	74.46
824.478	73.43
824.652	74.84
824.826	75.51
825	75.92
825.174	78.35
825.348	77.83
825.523	80.84
825.697	83.92
825.871	83.33
826.045	82.35
826.219	82.52
826.393	82.63
826.567	81.63
826.741	81.38
826.915	82.79
827.089	81.15
827.263	82.05
827.437	82.68
827.611	81.56
827.784	84.2
827.958	83.54
828.132	83.63
828.306	86.08
828.48	88.07
828.654	88.67
828.827	88.87
829.001	93.82
829.175	97.42
829.349	100.91
829.522	99.7
829.696	100.47
829.87	105.19
830.044	108.94
830.217	115.15
830.391	116.58
830.565	122.03
830.738	120.9
830.912	115.12
831.085	111.53
831.259	111.85
831.432	115.77
831.606	112.14
831.779	111.76
831.953	109.06
832.126	103.57
832.3	100.68
832.473	99.81
832.647	98.06
832.82	98.61
832.994	101.66
833.167	96.11
833.34	92.96
833.514	90.42
833.687	88.88
833.86	85.7
834.034	85.83
834.207	87.49
834.38	85.81
834.553	87.03
834.727	86.43
834.9	84.78
835.073	86.82
835.246	87.59
835.419	90.61
835.593	92.55
835.766	95.21
835.939	97.62
836.112	103.68
836.285	107.01
836.458	109.24
836.631	112.99
836.804	115.98
836.977	114.25
837.15	115.99
837.323	124.89
837.496	130.71
837.669	139.06
837.842	135.66
838.015	132.24
838.188	132.81
838.361	135.63
838.533	135.41
838.706	129.89
838.879	134.05
839.052	138.63
839.225	129.61
839.398	126.69
839.57	126.26
839.743	123.47
839.916	123.79
840.088	123.2
840.261	115.7
840.434	115.77
840.607	115.36
840.779	118.06
840.952	115.38
841.124	119.53
841.297	119.37
841.47	120.18
841.642	128.28
841.815	123.77
841.987	125.63
842.16	130.22
842.332	134.18
842.505	137.12
842.677	139.25
842.85	142.39
843.022	135.63
843.194	135.91
843.367	136.36
843.539	127.08
843.712	124.96
843.884	125.25
844.056	127.07
844.229	123.74
844.401	128.34
844.573	123.08
844.745	120.03
844.918	122.65
845.09	120.01
845.262	122.68
845.434	130.36
845.606	130.87
845.779	131.65
845.951	136.83
846.123	134
846.295	135.38
846.467	140.44
846.639	135.42
846.811	140.55
846.983	148.01
847.155	149
847.327	144.14
847.499	158.46
847.671	153.79
847.843	149.06
848.015	142.48
848.187	141.82
848.359	142.68
848.531	151.9
848.703	144.8
848.875	141.12
849.047	132.23
849.218	137.25
849.39	131.69
849.562	134.06
849.734	139.26
849.905	144.33
850.077	129.33
850.249	125.56
850.421	125.18
850.592	125.84
850.764	124.86
850.936	128.64
851.107	123.55
851.279	123.19
851.451	128.43
851.622	126.32
851.794	123.78
851.965	130.53
852.137	127.84
852.308	130.57
852.48	131.71
852.651	130.51
852.823	134.03
852.994	131.3
853.166	133.19
853.337	131.29
853.509	124.63
853.68	125.71
853.851	130.57
854.023	135.07
854.194	133.05
854.365	132.87
854.537	136.14
854.708	130.11
854.879	128.19
855.05	126.39
855.222	124.36
855.393	129.73
855.564	133.82
855.735	130.51
855.906	131.13
856.078	132.76
856.249	138.04
856.42	142.94
856.591	150.38
856.762	160.97
856.933	164.74
857.104	168.87
857.275	162.14
857.446	164.28
857.617	171.92
857.788	178.6
857.959	180.61
858.13	166.76
858.301	153.73
858.472	151.38
858.643	137.22
858.814	135.71
858.985	142.43
859.155	152.87
859.326	151.32
859.497	148.03
859.668	151.22
859.839	151.9
860.009	154.65
860.18	156.18
860.351	154.38
860.522	164.91
860.692	177.69
860.863	161.2
861.034	155.15
861.204	162.06
861.375	157.39
861.546	145.85
861.716	145.57
861.887	142.43
862.057	142.1
862.228	144.06
862.398	146.68
862.569	136.09
862.739	137.01
862.91	131.41
863.08	124.69
863.251	127.12
863.421	127.48
863.592	125.61
863.762	127.4
863.932	130.16
864.103	131.08
864.273	128.11
864.443	135.33
864.614	136.01
864.784	143
864.954	140.41
865.125	138.17
865.295	137.42
865.465	136.87
865.635	149.2
865.805	148.88
865.976	147.31
866.146	150.3
866.316	139.66
866.486	145.12
866.656	145.56
866.826	151.65
866.996	158.9
867.166	164.39
867.336	173.21
867.506	158.11
867.676	150.79
867.846	143.94
868.016	142
868.186	146.95
868.356	144.9
868.526	139.47
868.696	134.65
868.866	130.95
869.036	131.16
869.206	119.35
869.376	121.51
869.545	121.35
869.715	125.68
869.885	129.42
870.055	132.92
870.224	129.85
870.394	141.37
870.564	140.77
870.734	135.78
870.903	139.41
871.073	146.93
871.243	151.36
871.412	156.79
871.582	164.51
871.751	157.48
871.921	156
872.091	162.43
872.26	151.35
872.43	160.34
872.599	165.65
872.769	154.15
872.938	151.1
873.108	145.45
873.277	143.49
873.446	135.04
873.616	140.01
873.785	138.57
873.955	138.53
874.124	141.59
874.293	138.89
874.463	138.88
874.632	148.86
874.801	151.85
874.971	153.27
875.14	152.22
875.309	161.12
875.478	156.71
875.647	152.84
875.817	148
875.986	144.2
876.155	144.31
876.324	148.86
876.493	140.41
876.662	140.06
876.831	130.38
877	132.96
877.17	125.38
877.339	128.4
877.508	135.08
877.677	133.84
877.846	131.97
878.015	125.24
878.184	123.49
878.352	118.19
878.521	115.42
878.69	123.55
878.859	114.69
879.028	121.22
879.197	117.39
879.366	110.29
879.534	110.32
879.703	114.19
879.872	111.63
880.041	112.08
880.21	113.77
880.378	110.32
880.547	106.13
880.716	106.44
880.884	95.62
881.053	93.98
881.222	89.75
881.39	87.19
881.559	83.75
881.727	85.32
881.896	83.08
882.065	81.25
882.233	81.29
882.402	79.47
882.57	77.86
882.739	78.15
882.907	77.34
883.076	79.14
883.244	81.39
883.412	81.01
883.581	78.15
883.749	76.81
883.918	76.27
884.086	80.07
884.254	83.94
884.423	88.38
884.591	95.72
884.759	100.22
884.927	102.24
885.096	105.13
885.264	114.11
885.432	130.47
885.6	136.98
885.769	137.6
885.937	133.06
886.105	140.31
886.273	146.41
886.441	150.16
886.609	154.67
886.777	157.04
886.945	155.79
887.113	153.25
887.281	140.13
887.449	145.56
887.617	148.07
887.785	155.29
887.953	139.49
888.121	139.68
888.289	134.66
888.457	131.73
888.625	138.93
888.793	134.94
888.961	140.63
889.129	145.74
889.296	147.89
889.464	152.71
889.632	146.27
889.8	154.18
889.967	155.59
890.135	161.66
