Data from JASIL_3246_Reflection_2.txt Node
Date: Mon Nov 16 20:36:57 EST 2015
User: Geneva
Spectrometer: USB4E03002
Autoset integration time: false
Trigger mode: 4
Integration Time (sec): 1.000000E-1
Scans to average: 10
Electric dark correction enabled: false
Nonlinearity correction enabled: false
Boxcar width: 5
Stray light correction enabled: false
XAxis mode: Wavelengths
Stop averaging: false
Number of Pixels in Spectrum: 3648
>>>>>Begin Spectral Data<<<<<
177.575	-532.48
177.794	-587.14
178.014	-624.1
178.233	-1071.96
178.452	-1502.41
178.672	-1050.76
178.891	-1335.85
179.11	4354.05
179.33	1508.04
179.549	-7318.18
179.768	1382.2
179.987	1658.06
180.207	972.26
180.426	531.71
180.645	570.59
180.864	1029.87
181.084	440.62
181.303	405.79
181.522	745.45
181.741	2121.13
181.96	481.77
182.179	631.23
182.398	774.67
182.618	726.27
182.837	759.66
183.056	603.17
183.275	382.83
183.494	372.56
183.713	395.31
183.932	295.07
184.151	315.75
184.37	316.63
184.589	262.5
184.808	217.09
185.027	198.36
185.246	217.88
185.465	367.73
185.684	373.96
185.903	1496.55
186.122	581.61
186.341	834.27
186.56	426.05
186.779	722.28
186.998	1085.38
187.216	1222.83
187.435	1063.47
187.654	965.41
187.873	452.67
188.092	414.51
188.311	382.08
188.53	600.34
188.748	531.99
188.967	1428
189.186	737.93
189.405	810.82
189.623	741.67
189.842	696.71
190.061	716.75
190.28	1916.67
190.498	-1776.25
190.717	1217.46
190.936	-2479.66
191.154	-1216.96
191.373	-23416.67
191.592	-12590.91
191.81	-745.4
192.029	-1048.09
192.248	-322.99
192.466	-328.26
192.685	-394.76
192.904	-563.37
193.122	-371.47
193.341	-837.84
193.559	-791.37
193.778	-856.97
193.996	-1165.65
194.215	41850
194.433	-3971.43
194.652	757.14
194.87	593.07
195.089	486.9
195.307	644.74
195.526	2006.78
195.744	1031.58
195.963	705.49
196.181	15962.5
196.399	-1130.77
196.618	6220
196.836	21033.33
197.055	-1235.25
197.273	-2958.62
197.491	-1960
197.71	-3162.75
197.928	2213.75
198.146	4283.33
198.365	-17420
198.583	754.55
198.801	985.38
199.019	2311.69
199.238	-3997.62
199.456	1570.75
199.674	671.61
199.892	517.07
200.111	666.54
200.329	652.08
200.547	499.44
200.765	447.12
200.983	510.84
201.202	384.29
201.42	600.79
201.638	402.36
201.856	444.89
202.074	1250.41
202.292	1352.53
202.51	987.07
202.728	1449.48
202.946	-3252.5
203.165	4781.82
203.383	-1649.48
203.601	-2024.42
203.819	3682
204.037	18890
204.255	2079.38
204.473	940.65
204.691	1406
204.909	893.47
205.127	991.63
205.345	1232.95
205.562	1067.82
205.78	738.59
205.998	823.27
206.216	679.64
206.434	615.2
206.652	543.33
206.87	417.67
207.088	334.25
207.306	408.58
207.523	370.52
207.741	272.83
207.959	261.63
208.177	275.82
208.395	211.05
208.612	242.01
208.83	241.76
209.048	286.78
209.266	354.3
209.483	377.18
209.701	296.67
209.919	335.28
210.136	356.22
210.354	796.5
210.572	744.34
210.79	1285.93
211.007	734.93
211.225	1114.73
211.442	-5433.33
211.66	-1505.56
211.878	-704.86
212.095	315.83
212.313	362.18
212.53	514.21
212.748	302.11
212.966	295.92
213.183	265.23
213.401	259.31
213.618	231.77
213.836	281.85
214.053	285.53
214.271	264.95
214.488	1297.48
214.705	633.03
214.923	469.03
215.14	529.89
215.358	434.77
215.575	616.04
215.793	729.22
216.01	1107.36
216.227	390.21
216.445	314.2
216.662	356
216.879	364.62
217.097	321.46
217.314	345.22
217.531	403.52
217.749	443.18
217.966	532.67
218.183	414.05
218.4	429.32
218.618	524.8
218.835	557.44
219.052	389.89
219.269	331.71
219.487	500
219.704	363.57
219.921	259.1
220.138	192.18
220.355	193.61
220.572	219.43
220.79	221.7
221.007	271.6
221.224	349.24
221.441	348.41
221.658	427.85
221.875	283.33
222.092	274.27
222.309	426.81
222.526	470.97
222.743	430.61
222.96	524.53
223.177	298.73
223.394	337.53
223.611	222.26
223.828	237.98
224.045	212.58
224.262	252.68
224.479	190.54
224.696	153.74
224.913	186.27
225.13	161.07
225.347	128.07
225.564	122.83
225.781	97.5
225.997	103.18
226.214	85.7
226.431	83.53
226.648	68.64
226.865	67.86
227.082	65.24
227.298	55.6
227.515	46.43
227.732	45.36
227.949	40.32
228.165	39.08
228.382	34.13
228.599	32.63
228.816	32.65
229.032	36.2
229.249	34.29
229.466	34.54
229.682	34.41
229.899	39.98
230.116	41.39
230.332	44.14
230.549	46.71
230.765	50.95
230.982	49.21
231.199	50.81
231.415	53.43
231.632	56.47
231.848	59.09
232.065	69.99
232.281	63.06
232.498	74.96
232.714	80.93
232.931	76.05
233.147	74.47
233.364	84.1
233.58	79.59
233.797	78.62
234.013	77.17
234.23	71.9
234.446	69.63
234.662	77.63
234.879	73.66
235.095	72.27
235.312	71.89
235.528	71.6
235.744	69.74
235.961	71.45
236.177	67.73
236.393	72.02
236.61	79.4
236.826	75.07
237.042	69.87
237.258	60.46
237.475	56.02
237.691	57.49
237.907	60.01
238.123	66.27
238.339	67.73
238.556	71.67
238.772	69.2
238.988	64.36
239.204	64.43
239.42	63.11
239.636	63.3
239.853	64.17
240.069	58.94
240.285	55.43
240.501	48.88
240.717	46.81
240.933	38.49
241.149	34.73
241.365	32.63
241.581	29.92
241.797	27.6
242.013	25.2
242.229	22.74
242.445	23.75
242.661	22.38
242.877	22.78
243.093	18.7
243.309	23.27
243.525	23.21
243.741	24.72
243.957	25.34
244.173	25.49
244.388	28.06
244.604	29.87
244.82	28.39
245.036	27.79
245.252	25.38
245.468	26.45
245.683	23.4
245.899	21.84
246.115	20.27
246.331	19.32
246.547	18.19
246.762	17.75
246.978	17.94
247.194	18.38
247.409	19.41
247.625	21.09
247.841	20.56
248.057	21.24
248.272	22.75
248.488	24.65
248.703	26.19
248.919	28.01
249.135	28.62
249.35	28.79
249.566	31.51
249.782	30.27
249.997	29.58
250.213	28.58
250.428	26.17
250.644	26.5
250.859	26.02
251.075	24.81
251.29	25.89
251.506	26.67
251.721	25.15
251.937	24.03
252.152	23.52
252.368	24.77
252.583	27.5
252.798	30.63
253.014	31.54
253.229	29.83
253.445	32.25
253.66	32.86
253.875	34.46
254.091	39.66
254.306	39.35
254.521	43.66
254.737	41.95
254.952	43.88
255.167	43.67
255.383	43.43
255.598	42.1
255.813	40.45
256.028	40.45
256.244	40.74
256.459	35.65
256.674	33.85
256.889	29.39
257.104	26.93
257.32	24.33
257.535	22.51
257.75	20.39
257.965	21.2
258.18	19.96
258.395	17.34
258.61	15.2
258.826	14.98
259.041	14.11
259.256	14.96
259.471	14.76
259.686	13.73
259.901	13.68
260.116	14.23
260.331	14.14
260.546	14.02
260.761	14.15
260.976	14.58
261.191	14.58
261.406	15.85
261.621	17.46
261.836	17.5
262.05	18.81
262.265	20.82
262.48	20.71
262.695	18.65
262.91	17.11
263.125	19.34
263.34	20.95
263.555	23.95
263.769	26.04
263.984	24.29
264.199	27.64
264.414	28.59
264.629	25.75
264.843	24.79
265.058	27.92
265.273	27.23
265.488	25.7
265.702	23.99
265.917	22.19
266.132	19.46
266.346	17.86
266.561	17.44
266.776	16.85
266.99	18.53
267.205	19.67
267.42	18.29
267.634	20.6
267.849	21.55
268.063	21.47
268.278	23.29
268.492	23.82
268.707	24.02
268.922	21.55
269.136	21.09
269.351	18.61
269.565	16.8
269.78	17.24
269.994	16.49
270.209	16.26
270.423	16.22
270.637	14.86
270.852	14.06
271.066	14.1
271.281	16.05
271.495	16.03
271.709	17.86
271.924	19.3
272.138	20.27
272.353	20.58
272.567	19.68
272.781	19.09
272.996	18.34
273.21	19.01
273.424	19.79
273.638	19.39
273.853	19.76
274.067	18.73
274.281	17.67
274.495	16.45
274.71	15.38
274.924	16.52
275.138	16.92
275.352	17.18
275.566	17.91
275.781	17.41
275.995	17.2
276.209	16.99
276.423	19.13
276.637	18.02
276.851	18.81
277.065	21.02
277.279	20.84
277.493	20.37
277.707	19.61
277.921	19.97
278.135	21.07
278.349	21.79
278.563	21.77
278.777	21.45
278.991	22.64
279.205	22.38
279.419	20.22
279.633	19.04
279.847	19.58
280.061	20.79
280.275	19.26
280.489	18.2
280.703	16.84
280.917	16.42
281.131	13.65
281.344	13.79
281.558	13.63
281.772	14.56
281.986	15.2
282.2	15.18
282.414	14.45
282.627	14.12
282.841	13.48
283.055	14.75
283.269	15.6
283.482	16.29
283.696	16
283.91	15.2
284.123	15.49
284.337	14.92
284.551	14.76
284.764	14.65
284.978	14.9
285.192	15.53
285.405	15.09
285.619	15.13
285.833	15.56
286.046	14.94
286.26	15.35
286.473	14.69
286.687	14.86
286.9	16.28
287.114	18.2
287.327	18.36
287.541	17.4
287.754	17.56
287.968	16.11
288.181	16.27
288.395	16.82
288.608	17.18
288.822	17.41
289.035	18.1
289.248	17.28
289.462	15.94
289.675	16.16
289.889	16.16
290.102	15.15
290.315	16.47
290.529	16.14
290.742	15
290.955	14.72
291.169	14.98
291.382	14.78
291.595	15.49
291.808	14.68
292.022	15.17
292.235	16.62
292.448	16.9
292.661	15.72
292.875	17.02
293.088	18
293.301	17.43
293.514	15.4
293.727	13.86
293.94	13.16
294.153	14.53
294.367	13.79
294.58	12.22
294.793	11.58
295.006	11.71
295.219	10.98
295.432	11.91
295.645	11.65
295.858	12.72
296.071	13.72
296.284	12.09
296.497	11.67
296.71	11.06
296.923	12.28
297.136	12.16
297.349	10.87
297.562	11.02
297.775	10.78
297.988	10.31
298.201	10.99
298.414	10.36
298.626	12.18
298.839	11.48
299.052	11.74
299.265	10.33
299.478	11.59
299.691	14.12
299.903	13.9
300.116	12.61
300.329	13.78
300.542	13
300.755	13.45
300.967	14.41
301.18	14.78
301.393	16.6
301.605	18.37
301.818	17.19
302.031	17.03
302.243	16.74
302.456	18.45
302.669	19.41
302.881	20.59
303.094	20.6
303.307	19.44
303.519	19.63
303.732	19.27
303.944	18.6
304.157	19.13
304.37	18.94
304.582	19.96
304.795	18.7
305.007	18.3
305.22	16.86
305.432	17.08
305.645	17.77
305.857	18.02
306.069	17.01
306.282	17.15
306.494	16.14
306.707	16.8
306.919	16.49
307.132	17.02
307.344	16.63
307.556	16.42
307.769	16.87
307.981	15.56
308.193	13.91
308.406	14.27
308.618	13.37
308.83	14.28
309.043	12.74
309.255	13.31
309.467	12.98
309.679	12.21
309.892	12.36
310.104	11.53
310.316	11.8
310.528	12.79
310.74	11.7
310.953	12.06
311.165	13.02
311.377	13.8
311.589	13.65
311.801	13.33
312.013	12.98
312.225	14.05
312.437	13.57
312.649	13.98
312.862	15.27
313.074	15.79
313.286	16.56
313.498	17.49
313.71	16.08
313.922	14.94
314.134	16.15
314.346	16.8
314.558	15.77
314.77	16.86
314.982	17.69
315.193	16.38
315.405	17.07
315.617	15.02
315.829	15.2
316.041	16.39
316.253	16.45
316.465	16.38
316.677	17.59
316.888	18.29
317.1	18.12
317.312	16.53
317.524	16.12
317.736	17.18
317.947	19.49
318.159	18.76
318.371	17.45
318.583	17.02
318.794	17.12
319.006	16.82
319.218	16.4
319.43	16.49
319.641	16.54
319.853	17.62
320.064	16.75
320.276	16.85
320.488	16.05
320.699	18.05
320.911	21.04
321.123	21.71
321.334	22.83
321.546	22.54
321.757	23.31
321.969	23.74
322.18	23.2
322.392	23.12
322.603	22.8
322.815	22.53
323.026	22.63
323.238	21.3
323.449	19.66
323.661	18.55
323.872	18.15
324.083	17.21
324.295	17.73
324.506	19.08
324.718	18.71
324.929	18.93
325.14	18.82
325.352	19.1
325.563	19.75
325.774	19.73
325.986	18.99
326.197	19.41
326.408	19.29
326.62	18.12
326.831	16.61
327.042	16.73
327.253	16.27
327.464	16.91
327.676	16.32
327.887	15.86
328.098	17.48
328.309	19.05
328.52	18.9
328.732	19.99
328.943	21.97
329.154	22.01
329.365	22.11
329.576	22.04
329.787	20.57
329.998	20.9
330.209	19.32
330.42	20.36
330.631	20.92
330.842	20.97
331.053	20.45
331.264	18.86
331.475	18.38
331.686	19.53
331.897	19.74
332.108	20.57
332.319	19.86
332.53	21.06
332.741	19.67
332.952	18.49
333.163	18.43
333.374	18.23
333.585	18.45
333.795	18.99
334.006	17.35
334.217	16.7
334.428	17.04
334.639	17.77
334.849	16.74
335.06	17.39
335.271	17.59
335.482	18.5
335.692	18.02
335.903	17.89
336.114	19.19
336.325	20.01
336.535	20.65
336.746	20.83
336.957	21.5
337.167	22.14
337.378	21.25
337.589	21.42
337.799	21.59
338.01	22.81
338.22	23.11
338.431	22.91
338.642	22.1
338.852	21.99
339.063	21.2
339.273	19.29
339.484	19.52
339.694	19.6
339.905	19.41
340.115	17.63
340.326	16.97
340.536	17.45
340.746	17.33
340.957	17.23
341.167	16.97
341.378	16.4
341.588	16.24
341.799	16.12
342.009	15.86
342.219	15.97
342.43	17.73
342.64	17.24
342.85	16.27
343.061	15.33
343.271	14.97
343.481	14.14
343.691	13
343.902	14.23
344.112	13.55
344.322	13.23
344.532	12.43
344.743	11.22
344.953	11.68
345.163	11.7
345.373	11.88
345.583	13.39
345.793	14.34
346.004	15.57
346.214	14.72
346.424	14.79
346.634	13.84
346.844	13.92
347.054	14.46
347.264	13.85
347.474	14.57
347.684	14.61
347.894	14.32
348.104	14.32
348.314	14.8
348.524	16.19
348.734	16.29
348.944	17.25
349.154	17.59
349.364	17.47
349.574	17.18
349.784	16.94
349.994	16.68
350.204	15.59
350.413	14.93
350.623	14.35
350.833	12.65
351.043	12.92
351.253	13.79
351.463	12.93
351.672	12.22
351.882	13.07
352.092	13.6
352.302	13.94
352.511	13.45
352.721	14.37
352.931	14.53
353.141	15.14
353.35	14.52
353.56	14.9
353.77	15.23
353.979	16.68
354.189	15.83
354.399	14.86
354.608	14.85
354.818	15.61
355.027	14.22
355.237	13.63
355.447	13.51
355.656	14.18
355.866	12.51
356.075	12.16
356.285	11.57
356.494	11.05
356.704	10.89
356.913	10.43
357.123	10.19
357.332	10.51
357.542	10.29
357.751	10.07
357.96	10.42
358.17	10.31
358.379	10.9
358.589	10.18
358.798	10.36
359.007	10.31
359.217	9.32
359.426	9.29
359.635	9.62
359.845	9.01
360.054	9.46
360.263	8.24
360.472	8.31
360.682	7.99
360.891	8.64
361.1	8.73
361.309	8.17
361.519	9.05
361.728	9.27
361.937	8.69
362.146	10.06
362.355	10.06
362.564	10.83
362.774	10.81
362.983	10.92
363.192	10.59
363.401	11.4
363.61	12.16
363.819	12.01
364.028	11.92
364.237	12.58
364.446	11.84
364.655	11.9
364.864	11.9
365.073	12.58
365.282	12.66
365.491	12.36
365.7	11.9
365.909	11.6
366.118	11.38
366.327	11.97
366.536	12.62
366.745	12.47
366.954	12.53
367.162	13.19
367.371	13.06
367.58	13.03
367.789	13.28
367.998	13.35
368.207	13.59
368.415	14.7
368.624	14.02
368.833	13.38
369.042	13.93
369.25	14.23
369.459	14.09
369.668	14.24
369.877	14.52
370.085	13.53
370.294	13.28
370.503	12.72
370.711	11.6
370.92	11.34
371.129	11.36
371.337	10.86
371.546	9.99
371.754	8.7
371.963	8.96
372.171	8.76
372.38	9.91
372.589	10.98
372.797	11.46
373.006	12.56
373.214	13.22
373.423	12.96
373.631	13.79
373.84	13.23
374.048	13.12
374.256	12.66
374.465	12.95
374.673	12.54
374.882	11.65
375.09	11.44
375.298	10.65
375.507	9.52
375.715	9.2
375.923	7.67
376.132	8.32
376.34	8.8
376.548	9.23
376.757	8.97
376.965	9.42
377.173	8.8
377.381	9.4
377.59	9.61
377.798	10.21
378.006	10.89
378.214	12.22
378.423	12.24
378.631	11.98
378.839	10.94
379.047	11.05
379.255	10.67
379.463	11.15
379.671	11.07
379.879	11.03
380.088	11.81
380.296	11.54
380.504	11.49
380.712	11.68
380.92	11.7
381.128	11.91
381.336	12.04
381.544	12.38
381.752	12.27
381.96	11.86
382.168	11.72
382.376	11.67
382.584	11.44
382.791	10.78
382.999	11.33
383.207	11.47
383.415	12.33
383.623	11.32
383.831	10.22
384.039	10.6
384.247	11.31
384.454	11.44
384.662	10.9
384.87	10.98
385.078	11.26
385.285	9.63
385.493	9.3
385.701	8.7
385.909	9.53
386.116	10.2
386.324	10.1
386.532	9.55
386.739	8.97
386.947	8.69
387.155	8.83
387.362	9.03
387.57	9.5
387.778	9.92
387.985	10.07
388.193	9.47
388.4	10.15
388.608	10.23
388.816	10.23
389.023	10.77
389.231	10.87
389.438	10.61
389.646	10.55
389.853	10.74
390.061	10.4
390.268	10.24
390.475	10.6
390.683	9.5
390.89	9.75
391.098	9.47
391.305	9.67
391.512	8.82
391.72	8.01
391.927	8.47
392.135	8.99
392.342	9
392.549	9.38
392.756	9.17
392.964	9.37
393.171	9.08
393.378	8.98
393.586	8.43
393.793	8.41
394	9.45
394.207	9.02
394.414	8.46
394.622	8.37
394.829	7.81
395.036	7.52
395.243	8.19
395.45	8.19
395.657	8.8
395.864	9.24
396.072	10.43
396.279	10.19
396.486	10.2
396.693	10.88
396.9	11.21
397.107	11.98
397.314	12.07
397.521	11.56
397.728	11.34
397.935	10.28
398.142	9.58
398.349	9.31
398.556	8.96
398.763	9.1
398.97	8.62
399.177	8.69
399.383	8.68
399.59	9.19
399.797	9.04
400.004	9.12
400.211	9.64
400.418	10.65
400.625	11.38
400.831	11.82
401.038	11.03
401.245	10.96
401.452	10.64
401.658	10.27
401.865	10.24
402.072	10.13
402.279	9.88
402.485	10.22
402.692	9.54
402.899	8.42
403.105	8.57
403.312	9.2
403.519	9.09
403.725	8.61
403.932	8.32
404.138	7.82
404.345	8.07
404.552	8.21
404.758	7.75
404.965	7.51
405.171	7.8
405.378	7.33
405.584	7.25
405.791	7.31
405.997	7.55
406.204	7.27
406.41	7.38
406.617	7.2
406.823	7.05
407.029	7.24
407.236	7.34
407.442	7.24
407.649	7.58
407.855	7.43
408.061	8.01
408.268	8.57
408.474	9.53
408.68	8.98
408.887	8.89
409.093	8.99
409.299	8.75
409.505	9.05
409.712	8.91
409.918	8.47
410.124	8.22
410.33	7.65
410.537	7.48
410.743	6.37
410.949	7.46
411.155	7.54
411.361	8.11
411.567	7.99
411.773	7.57
411.98	7.84
412.186	7.61
412.392	7.87
412.598	7.35
412.804	7.27
413.01	7.84
413.216	7.85
413.422	8.33
413.628	7.85
413.834	7.8
414.04	7.88
414.246	7.96
414.452	8.64
414.658	8.89
414.864	9.44
415.07	9.53
415.275	9.72
415.481	9.71
415.687	8.93
415.893	8.62
416.099	8.9
416.305	9.12
416.511	8.48
416.716	7.95
416.922	7.66
417.128	7.13
417.334	7.04
417.539	6.49
417.745	6.12
417.951	5.99
418.157	5.75
418.362	5.73
418.568	5.34
418.774	5.23
418.979	5.56
419.185	5.11
419.391	5.35
419.596	5.08
419.802	5.26
420.008	5.13
420.213	5.02
420.419	5.28
420.624	5.24
420.83	5.1
421.035	5.3
421.241	4.9
421.446	5.13
421.652	4.79
421.857	4.64
422.063	4.7
422.268	4.7
422.474	5.15
422.679	4.94
422.885	4.82
423.09	4.91
423.295	4.74
423.501	4.9
423.706	4.84
423.911	5
424.117	5.21
424.322	4.96
424.527	4.8
424.733	4.54
424.938	4.56
425.143	4.51
425.349	4.51
425.554	4.64
425.759	4.65
425.964	4.88
426.169	4.74
426.375	4.44
426.58	4.53
426.785	4.65
426.99	4.7
427.195	5.02
427.4	4.97
427.605	5.31
427.811	5.43
428.016	5.65
428.221	5.72
428.426	6.33
428.631	7.12
428.836	7.08
429.041	7.43
429.246	7.78
429.451	7.65
429.656	7.63
429.861	7.3
430.066	6.93
430.271	6.98
430.476	6.43
430.681	6.21
430.886	5.92
431.09	5.76
431.295	5.67
431.5	5.05
431.705	5.12
431.91	4.85
432.115	5.06
432.32	5.45
432.524	5.18
432.729	5.18
432.934	5
433.139	4.96
433.343	5.38
433.548	4.96
433.753	4.99
433.958	5.2
434.162	5.67
434.367	5.78
434.572	5.79
434.776	5.77
434.981	6.13
435.186	6.15
435.39	6.13
435.595	6.14
435.799	6.11
436.004	6.06
436.209	5.64
436.413	5.32
436.618	5.16
436.822	5.21
437.027	5.1
437.231	4.29
437.436	4.28
437.64	4.33
437.845	4.1
438.049	4.2
438.253	4.53
438.458	4.47
438.662	4.65
438.867	4.5
439.071	4.26
439.275	4.22
439.48	4.69
439.684	4.69
439.888	4.4
440.093	4.64
440.297	4.7
440.501	4.65
440.706	4.72
440.91	4.66
441.114	4.81
441.318	5.2
441.523	5.35
441.727	5.47
441.931	5.2
442.135	5.21
442.339	5.09
442.543	5.22
442.748	5.27
442.952	5.16
443.156	4.97
443.36	4.97
443.564	4.78
443.768	4.5
443.972	4.59
444.176	4.75
444.38	5.02
444.584	4.68
444.788	4.37
444.992	4.32
445.196	4.45
445.4	4.55
445.604	4.44
445.808	4.38
446.012	4.51
446.216	4.23
446.42	4.21
446.624	4.39
446.828	4.58
447.032	4.7
447.235	4.67
447.439	4.4
447.643	4.39
447.847	4.52
448.051	4.63
448.254	4.64
448.458	4.72
448.662	4.66
448.866	4.54
449.069	4.45
449.273	4.52
449.477	4.5
449.681	4.7
449.884	4.73
450.088	4.83
450.292	4.73
450.495	4.84
450.699	5.08
450.902	5.37
451.106	5.29
451.31	5.66
451.513	5.87
451.717	5.87
451.92	6.04
452.124	6.05
452.327	5.95
452.531	5.93
452.734	5.89
452.938	5.72
453.141	5.8
453.345	6.08
453.548	5.74
453.752	5.6
453.955	6.1
454.158	6.08
454.362	5.89
454.565	6.21
454.769	6.29
454.972	6.65
455.175	6.47
455.379	6.26
455.582	5.62
455.785	5.81
455.988	5.81
456.192	5.39
456.395	5.26
456.598	5.26
456.801	4.88
457.005	4.7
457.208	4.24
457.411	4.51
457.614	4.6
457.817	5.02
458.021	4.93
458.224	4.84
458.427	4.99
458.63	5.09
458.833	5.07
459.036	4.9
459.239	4.77
459.442	4.67
459.645	4.85
459.848	5.2
460.051	4.97
460.254	5.02
460.457	4.79
460.66	4.48
460.863	4.4
461.066	4.57
461.269	4.74
461.472	4.78
461.675	5.2
461.878	4.99
462.081	4.8
462.284	4.71
462.486	4.81
462.689	5.31
462.892	5.46
463.095	5.62
463.298	5.67
463.5	5.65
463.703	5.93
463.906	5.54
464.109	5.54
464.311	5.38
464.514	5.88
464.717	5.64
464.92	5.39
465.122	5.69
465.325	5.56
465.528	5.36
465.73	5.12
465.933	5.06
466.135	5.5
466.338	5.27
466.541	5.14
466.743	4.85
466.946	4.77
467.148	5.2
467.351	4.89
467.553	4.72
467.756	5
467.958	5.35
468.161	4.86
468.363	4.59
468.566	4.53
468.768	4.77
468.971	4.67
469.173	4.72
469.375	4.21
469.578	3.92
469.78	3.83
469.983	3.56
470.185	3.76
470.387	4.63
470.59	4.57
470.792	4.85
470.994	4.5
471.196	4.9
471.399	5
471.601	5.16
471.803	5.45
472.005	5.69
472.208	5.67
472.41	5.21
472.612	4.98
472.814	5.04
473.016	5.12
473.218	5.2
473.421	4.8
473.623	4.74
473.825	4.84
474.027	4.88
474.229	4.97
474.431	5.59
474.633	5.73
474.835	5.75
475.037	5.74
475.239	5.56
475.441	5.82
475.643	6.25
475.845	6.07
476.047	5.9
476.249	5.96
476.451	5.65
476.653	4.97
476.855	5.13
477.057	4.92
477.258	4.65
477.46	4.98
477.662	5.03
477.864	4.9
478.066	5
478.268	4.92
478.469	4.61
478.671	4.69
478.873	5.03
479.075	4.82
479.276	4.79
479.478	4.79
479.68	4.24
479.882	3.62
480.083	3.38
480.285	3.29
480.487	3.5
480.688	3.77
480.89	3.88
481.091	3.66
481.293	3.52
481.495	3.4
481.696	3.57
481.898	3.51
482.099	3.57
482.301	3.45
482.502	3.45
482.704	3.16
482.905	2.98
483.107	2.76
483.308	2.57
483.51	2.55
483.711	2.56
483.913	2.42
484.114	2.47
484.315	2.45
484.517	2.48
484.718	2.42
484.92	2.45
485.121	2.42
485.322	2.53
485.524	2.64
485.725	2.69
485.926	2.63
486.127	2.73
486.329	2.71
486.53	2.74
486.731	2.66
486.932	2.55
487.134	2.56
487.335	2.65
487.536	2.66
487.737	2.7
487.938	2.7
488.139	2.73
488.341	2.66
488.542	2.75
488.743	2.84
488.944	2.89
489.145	3.09
489.346	3.2
489.547	3.22
489.748	3.27
489.949	3.36
490.15	3.45
490.351	3.45
490.552	3.53
490.753	3.53
490.954	3.42
491.155	3.49
491.356	3.54
491.557	3.56
491.758	3.67
491.959	3.65
492.159	3.79
492.36	3.73
492.561	3.96
492.762	3.9
492.963	3.83
493.164	3.96
493.364	4
493.565	4.06
493.766	4.06
493.967	4.03
494.167	4.1
494.368	4.02
494.569	4.02
494.769	3.78
494.97	4.02
495.171	4.26
495.371	4.44
495.572	4.51
495.773	4.52
495.973	4.61
496.174	4.49
496.375	4.79
496.575	4.65
496.776	4.59
496.976	4.29
497.177	4.23
497.377	4.33
497.578	4.18
497.778	4.22
497.979	4.33
498.179	4.27
498.38	4.28
498.58	4.11
498.78	4
498.981	4.18
499.181	4.88
499.382	5.06
499.582	4.73
499.782	4.74
499.983	4.65
500.183	4.42
500.383	4.37
500.584	4.4
500.784	4.52
500.984	4.52
501.184	4.47
501.385	4.2
501.585	4.03
501.785	4.39
501.985	4.76
502.185	4.93
502.386	4.93
502.586	4.85
502.786	4.94
502.986	4.75
503.186	5.14
503.386	5.04
503.586	5
503.786	4.9
503.987	4.66
504.187	4.44
504.387	4.71
504.587	4.57
504.787	4.77
504.987	4.98
505.187	5.24
505.387	5
505.587	4.95
505.786	4.74
505.986	5.09
506.186	5.17
506.386	5.26
506.586	4.88
506.786	5.02
506.986	5.06
507.186	4.97
507.386	4.56
507.585	4.97
507.785	5.1
507.985	5.33
508.185	5.12
508.384	5.03
508.584	4.73
508.784	4.65
508.984	4.57
509.183	4.35
509.383	4.28
509.583	4.34
509.782	4.19
509.982	4.35
510.182	4.23
510.381	4.2
510.581	4.24
510.781	4.22
510.98	4.38
511.18	4.53
511.379	4.63
511.579	4.37
511.778	4.43
511.978	4.35
512.177	4.1
512.377	4.09
512.576	4.09
512.776	4.19
512.975	4.43
513.175	4.52
513.374	4.54
513.573	4.53
513.773	4.83
513.972	4.95
514.172	4.74
514.371	4.97
514.57	5.11
514.77	5.07
514.969	5.27
515.168	5.32
515.367	5.34
515.567	5.48
515.766	5.81
515.965	5.82
516.164	5.92
516.364	6.11
516.563	6.15
516.762	6.05
516.961	6.19
517.16	6.16
517.359	6
517.559	5.96
517.758	5.84
517.957	5.71
518.156	5.71
518.355	5.5
518.554	5.59
518.753	5.47
518.952	5.44
519.151	5.38
519.35	5.4
519.549	5.32
519.748	5.36
519.947	5.24
520.146	5.34
520.345	5.41
520.544	5.47
520.743	5.41
520.942	5.55
521.141	5.72
521.339	6.01
521.538	5.85
521.737	5.9
521.936	5.61
522.135	5.62
522.333	5.75
522.532	5.61
522.731	5.66
522.93	5.57
523.129	5.34
523.327	5.38
523.526	5.11
523.725	5.27
523.923	5.4
524.122	5.41
524.321	5.55
524.519	5.35
524.718	5.44
524.917	5.6
525.115	5.66
525.314	5.83
525.512	5.71
525.711	5.6
525.909	5.3
526.108	5.24
526.306	5.35
526.505	5.42
526.703	5.47
526.902	5.26
527.1	5.06
527.299	5.02
527.497	4.98
527.696	4.97
527.894	5.14
528.092	5.18
528.291	5.15
528.489	5.01
528.688	4.93
528.886	4.79
529.084	4.89
529.283	4.93
529.481	4.83
529.679	4.87
529.877	4.85
530.076	4.76
530.274	4.98
530.472	5.1
530.67	5.2
530.869	5.27
531.067	5.36
531.265	5.37
531.463	5.56
531.661	5.76
531.859	5.69
532.057	5.79
532.255	5.78
532.454	5.64
532.652	5.75
532.85	5.85
533.048	5.79
533.246	5.81
533.444	5.88
533.642	5.93
533.84	5.92
534.038	5.88
534.236	5.99
534.434	5.91
534.632	5.98
534.83	5.94
535.027	6.11
535.225	6.08
535.423	6.4
535.621	6.29
535.819	6.03
536.017	5.92
536.215	6.02
536.412	5.91
536.61	6.03
536.808	5.92
537.006	5.88
537.203	5.98
537.401	6.19
537.599	6.13
537.797	6.29
537.994	6.35
538.192	6.67
538.39	6.93
538.587	7.16
538.785	7.19
538.983	7.35
539.18	7.64
539.378	7.36
539.575	7.21
539.773	7.13
539.97	7.17
540.168	7.29
540.366	7.32
540.563	7.16
540.761	7.03
540.958	7.07
541.155	7.11
541.353	7
541.55	6.99
541.748	7.14
541.945	7.18
542.143	7.15
542.34	7.23
542.537	7.11
542.735	7.02
542.932	7.14
543.129	7.24
543.327	7.32
543.524	7.16
543.721	7.27
543.919	7.4
544.116	7.57
544.313	7.6
544.51	7.53
544.708	7.8
544.905	8.06
545.102	8.37
545.299	8.47
545.496	8.43
545.693	8.77
545.891	8.86
546.088	9.03
546.285	8.95
546.482	9.17
546.679	9.18
546.876	9.29
547.073	9.48
547.27	9.12
547.467	9.02
547.664	9.24
547.861	9.04
548.058	9.38
548.255	9.2
548.452	9.44
548.649	9.63
548.846	9.83
549.043	9.79
549.24	9.94
549.437	10.12
549.633	10.14
549.83	10.23
550.027	10.57
550.224	10.32
550.421	10.56
550.618	10.47
550.814	10.25
551.011	10.49
551.208	10.29
551.405	10.1
551.601	10.32
551.798	10.46
551.995	10.4
552.191	10.27
552.388	10.22
552.585	10.13
552.781	10.12
552.978	10.24
553.175	9.92
553.371	10.12
553.568	10.27
553.764	10.37
553.961	10.58
554.157	10.99
554.354	11.19
554.55	11.58
554.747	11.73
554.943	11.54
555.14	11.97
555.336	12.59
555.533	13.01
555.729	13.08
555.926	13.53
556.122	13.47
556.318	13.48
556.515	13.61
556.711	13.23
556.907	13.3
557.104	14
557.3	13.72
557.496	13.72
557.693	13.65
557.889	14.27
558.085	14.3
558.281	14.88
558.478	14.82
558.674	15.02
558.87	15.32
559.066	15.28
559.262	15
559.459	15.13
559.655	15.1
559.851	15.19
560.047	14.71
560.243	14.43
560.439	14.43
560.635	14.4
560.831	14.28
561.027	14.47
561.223	14.73
561.419	15.01
561.615	15.38
561.811	15.29
562.007	15.2
562.203	15.44
562.399	15.32
562.595	15.05
562.791	15.1
562.987	15.73
563.183	16.03
563.379	16.3
563.575	16.35
563.771	16.04
563.966	16.03
564.162	15.97
564.358	15.93
564.554	16.16
564.75	16.14
564.945	16.17
565.141	15.61
565.337	15.39
565.533	15.33
565.728	15.22
565.924	15.29
566.12	15.4
566.315	15.37
566.511	15.32
566.707	15.4
566.902	15.51
567.098	15.74
567.293	16.12
567.489	15.96
567.684	15.95
567.88	16.12
568.076	16.06
568.271	16.28
568.467	16.5
568.662	16.66
568.858	16.68
569.053	16.9
569.248	16.85
569.444	16.75
569.639	17.5
569.835	17.21
570.03	17.25
570.225	17.54
570.421	17.25
570.616	17.1
570.812	17.06
571.007	17.14
571.202	16.71
571.397	16.91
571.593	16.95
571.788	16.42
571.983	16.44
572.178	16.44
572.374	16.45
572.569	16.54
572.764	16.85
572.959	17.08
573.154	17.05
573.35	17.73
573.545	17.77
573.74	17.8
573.935	18.26
574.13	18.82
574.325	18.92
574.52	19.05
574.715	19.45
574.91	19.48
575.105	19.6
575.3	19.73
575.495	19.67
575.69	19.42
575.885	19.89
576.08	19.77
576.275	19.63
576.47	20.04
576.665	20.35
576.86	20.49
577.055	20.44
577.25	20.21
577.444	19.98
577.639	20.16
577.834	20.64
578.029	20.56
578.224	20.74
578.418	20.99
578.613	20.96
578.808	21
579.003	20.84
579.197	21.45
579.392	21.59
579.587	21.76
579.781	21.76
579.976	22
580.171	22.05
580.365	21.81
580.56	21.52
580.755	21.56
580.949	21.31
581.144	21.6
581.338	21.32
581.533	21.5
581.727	21.9
581.922	21.26
582.116	21.12
582.311	20.79
582.505	21.02
582.7	21.13
582.894	21.15
583.089	21.1
583.283	20.98
583.478	21.2
583.672	21.82
583.866	21.76
584.061	22.33
584.255	22.21
584.449	22.47
584.644	22.53
584.838	22.71
585.032	22.88
585.226	22.93
585.421	23.09
585.615	23.4
585.809	22.95
586.003	22.96
586.198	22.9
586.392	23.03
586.586	22.97
586.78	23.2
586.974	23.32
587.168	22.94
587.363	22.96
587.557	22.86
587.751	22.58
587.945	22.38
588.139	22.57
588.333	22.66
588.527	22.38
588.721	22.37
588.915	21.9
589.109	21.86
589.303	22.18
589.497	21.98
589.691	22.32
589.885	22.08
590.079	22.23
590.273	22.27
590.466	22.33
590.66	22.77
590.854	22.77
591.048	23.03
591.242	23
591.436	22.46
591.629	22.65
591.823	22.05
592.017	22.46
592.211	23.11
592.404	23.09
592.598	22.93
592.792	22.47
592.986	22.69
593.179	22.18
593.373	22.06
593.567	22.57
593.76	22.69
593.954	22.98
594.147	23.12
594.341	22.63
594.535	22.85
594.728	22.61
594.922	22.81
595.115	22.93
595.309	23.14
595.502	23.42
595.696	23.32
595.889	23.54
596.083	23.39
596.276	23.03
596.47	23.44
596.663	23.32
596.856	23.78
597.05	23.7
597.243	23.38
597.437	23.76
597.63	23.56
597.823	23.8
598.017	23.76
598.21	23.89
598.403	24.52
598.596	24.23
598.79	24.35
598.983	24.23
599.176	24.49
599.369	24.97
599.563	25.01
599.756	25.46
599.949	25.43
600.142	25.54
600.335	25.19
600.528	25.23
600.722	25.13
600.915	24.82
601.108	25.13
601.301	24.79
601.494	24.43
601.687	24.64
601.88	24.2
602.073	24.42
602.266	24
602.459	24.36
602.652	24.04
602.845	24.06
603.038	24.23
603.231	24.35
603.424	24.39
603.617	24.34
603.809	23.86
604.002	23.84
604.195	23.63
604.388	23.75
604.581	24.1
604.774	23.96
604.966	23.78
605.159	23.93
605.352	23.37
605.545	23.62
605.737	23.73
605.93	24.36
606.123	24.79
606.316	24.8
606.508	25.2
606.701	24.96
606.894	25.15
607.086	25.55
607.279	25.31
607.471	25.8
607.664	25.88
607.857	25.89
608.049	25.67
608.242	25.62
608.434	25.77
608.627	25.57
608.819	25.28
609.012	25.18
609.204	25.13
609.397	24.91
609.589	25.29
609.782	24.81
609.974	24.69
610.166	24.63
610.359	23.83
610.551	23.81
610.743	24.27
610.936	24.5
611.128	24.45
611.32	24.44
611.513	25.13
611.705	24.5
611.897	24.81
612.09	24.99
612.282	25.07
612.474	25.93
612.666	25.7
612.858	25.52
613.051	25.69
613.243	26.12
613.435	26
613.627	26.12
613.819	26.19
614.011	27.73
614.203	28.05
614.395	28.32
614.588	28.32
614.78	28.91
614.972	28.8
615.164	29.17
615.356	28.91
615.548	29.31
615.74	29.34
615.932	29.62
616.124	28.55
616.315	28.36
616.507	28.07
616.699	28.09
616.891	27.99
617.083	28.18
617.275	27.76
617.467	28.2
617.659	27.88
617.85	28.29
618.042	27.7
618.234	27.72
618.426	27.51
618.618	27.31
618.809	27.02
619.001	27.13
619.193	26.94
619.384	27.54
619.576	27.15
619.768	27.55
619.959	26.53
620.151	26.76
620.343	26.87
620.534	27.21
620.726	27.21
620.917	27.79
621.109	27.68
621.301	28.18
621.492	28.11
621.684	28.6
621.875	28.79
622.067	29.12
622.258	28.76
622.45	28.77
622.641	28.82
622.832	29.32
623.024	28.79
623.215	28.5
623.407	27.8
623.598	28.21
623.789	28.11
623.981	28.07
624.172	27.76
624.363	28.01
624.555	27.6
624.746	27.12
624.937	27.28
625.129	27.63
625.32	27.53
625.511	27.34
625.702	26.59
625.893	26.53
626.085	26.12
626.276	26.92
626.467	26.91
626.658	27.49
626.849	27.92
627.04	27.99
627.231	27.68
627.422	27.98
627.614	28.44
627.805	28.15
627.996	28.27
628.187	27.98
628.378	27.66
628.569	27.81
628.76	27.83
628.951	27.73
629.142	27.32
629.332	27.59
629.523	27.47
629.714	27.01
629.905	27.46
630.096	27.38
630.287	27.87
630.478	27.4
630.669	28.19
630.859	28.09
631.05	28.37
631.241	28.71
631.432	28.99
631.623	29.48
631.813	29.83
632.004	29.5
632.195	28.95
632.385	29.42
632.576	29.88
632.767	29.52
632.957	29.51
633.148	29.1
633.339	28.74
633.529	28.33
633.72	27.81
633.91	27.85
634.101	28.11
634.292	28.35
634.482	28.22
634.673	28.06
634.863	27.87
635.054	27.83
635.244	27.68
635.435	28.11
635.625	28.11
635.815	28.26
636.006	28.41
636.196	28.55
636.387	29.05
636.577	28.91
636.767	28.68
636.958	28.75
637.148	28.67
637.338	29.87
637.529	29.67
637.719	29.55
637.909	29.37
638.099	30.01
638.29	30.31
638.48	30.34
638.67	30.28
638.86	30.92
639.05	30.86
639.241	30.91
639.431	30.4
639.621	30.81
639.811	31.04
640.001	31.25
640.191	30.4
640.381	30.24
640.571	30.03
640.761	29.76
640.951	29.39
641.141	29.69
641.331	29.44
641.521	29.34
641.711	29.83
641.901	29.71
642.091	29.95
642.281	30.18
642.471	30.27
642.661	29.92
642.851	30.18
643.041	31.15
643.231	31.14
643.42	31.8
643.61	31.97
643.8	31.37
643.99	31.93
644.18	31.92
644.369	32.21
644.559	32.46
644.749	33.33
644.939	33.74
645.128	32.86
645.318	32.63
645.508	32.8
645.697	33.34
645.887	33.14
646.076	33.27
646.266	32.89
646.456	32.27
646.645	31.92
646.835	31.23
647.024	30.88
647.214	31.06
647.403	30.69
647.593	30.4
647.782	29.54
647.972	29.86
648.161	29.24
648.351	29.84
648.54	29.91
648.73	29.71
648.919	29.47
649.108	29.6
649.298	29.63
649.487	30.16
649.677	30.14
649.866	30.13
650.055	30.58
650.244	30.89
650.434	29.9
650.623	30.29
650.812	30.88
651.002	31.06
651.191	30.94
651.38	30.61
651.569	30.16
651.758	30.09
651.947	30.05
652.137	29.73
652.326	29.9
652.515	30.39
652.704	30.5
652.893	31.02
653.082	31.48
653.271	31.26
653.46	31.85
653.649	32.26
653.838	32.3
654.027	32.43
654.216	32.11
654.405	31.99
654.594	32.6
654.783	32.31
654.972	31.62
655.161	30.99
655.35	31.17
655.539	30.35
655.728	30.77
655.916	30.7
656.105	30.4
656.294	30.11
656.483	30.23
656.672	29.6
656.86	29.24
657.049	29.46
657.238	29.24
657.427	28.92
657.615	29.22
657.804	28.57
657.993	27.51
658.181	27.83
658.37	28.7
658.559	28.74
658.747	28.84
658.936	29.49
659.125	30.39
659.313	30.68
659.502	31
659.69	31.54
659.879	31.72
660.067	33.01
660.256	33.23
660.444	33.01
660.633	33.1
660.821	33.21
661.01	32.4
661.198	30.47
661.387	30.51
661.575	30.35
661.763	30.16
661.952	30.47
662.14	29.86
662.328	30.18
662.517	29.75
662.705	29.66
662.893	29.46
663.082	30.09
663.27	30.49
663.458	29.87
663.646	30.63
663.834	30.57
664.023	30.33
664.211	31.24
664.399	31.34
664.587	31.39
664.775	31.5
664.963	32.71
665.152	32.81
665.34	33.11
665.528	33.37
665.716	33.27
665.904	33.49
666.092	33.11
666.28	32.97
666.468	32.44
666.656	32.73
666.844	33.59
667.032	33
667.22	32.68
667.408	32.46
667.596	32.57
667.784	32.26
667.971	32.01
668.159	33
668.347	32.61
668.535	32.58
668.723	32.36
668.911	31.82
669.098	32.01
669.286	32.05
669.474	32.42
669.662	33.49
669.849	34.26
670.037	34.35
670.225	34.27
670.413	34.2
670.6	35.16
670.788	35.51
670.976	35.64
671.163	35.43
671.351	36.31
671.538	36.73
671.726	36.48
671.913	35.92
672.101	35.57
672.289	35.52
672.476	35.75
672.664	35.51
672.851	35.03
673.039	34.41
673.226	34.02
673.413	33.43
673.601	33.51
673.788	33.23
673.976	33.46
674.163	33.95
674.35	33.79
674.538	33.84
674.725	33.8
674.912	33.93
675.1	33.93
675.287	33.97
675.474	34.97
675.662	34.05
675.849	34.76
676.036	33.82
676.223	34.12
676.411	34
676.598	33.84
676.785	34.19
676.972	34.34
677.159	34.89
677.346	35.29
677.533	34.81
677.721	35
677.908	34.58
678.095	35.66
678.282	34.8
678.469	33.89
678.656	33.64
678.843	32.48
679.03	31.8
679.217	31.76
679.404	31.55
679.591	30.82
679.778	30.85
679.964	30.83
680.151	30.17
680.338	30.62
680.525	31.16
680.712	32.24
680.899	31.96
681.086	32.67
681.272	32.71
681.459	33.31
681.646	33.99
681.833	34.19
682.02	34.72
682.206	36
682.393	36.31
682.58	36.71
682.766	35.16
682.953	36.18
683.14	36.09
683.326	36.13
683.513	35.43
683.7	34.71
683.886	35.54
684.073	34.96
684.259	33.82
684.446	34.15
684.632	34.49
684.819	35.41
685.005	35.75
685.192	35.85
685.378	35.8
685.565	36.09
685.751	36.56
685.938	36.19
686.124	36.37
686.31	37.21
686.497	37.11
686.683	37.26
686.87	37.17
687.056	36.61
687.242	37.32
687.429	37.12
687.615	36.58
687.801	36.62
687.987	36.29
688.174	36.59
688.36	36.76
688.546	35.86
688.732	35.08
688.918	35.5
689.105	35.33
689.291	35.15
689.477	35.75
689.663	36.88
689.849	36.95
690.035	37.47
690.221	37.38
690.407	37.21
690.593	38.08
690.779	39.18
690.965	38.31
691.151	38.47
691.337	38.5
691.523	38.58
691.709	37.85
691.895	38.01
692.081	38.24
692.267	37.81
692.453	37.39
692.639	36.95
692.825	36.26
693.011	37.51
693.196	38.8
693.382	38.33
693.568	38.72
693.754	39.72
693.94	40.64
694.125	40.1
694.311	40.19
694.497	40
694.682	40.03
694.868	40.3
695.054	39.97
695.239	39.05
695.425	39.09
695.611	38.48
695.796	37.19
695.982	36.39
696.168	36.08
696.353	36.94
696.539	37
696.724	37.05
696.91	36.37
697.095	35.96
697.281	34.96
697.466	34.78
697.652	34.24
697.837	34.23
698.023	34.13
698.208	33.7
698.393	33.14
698.579	32.84
698.764	32.89
698.949	32.79
699.135	32.92
699.32	33.1
699.505	33.43
699.691	33.45
699.876	33.74
700.061	33.24
700.246	33.8
700.432	33.75
700.617	34.2
700.802	33.12
700.987	34.6
701.172	35.41
701.358	37.08
701.543	36.77
701.728	38.56
701.913	39.69
702.098	40.56
702.283	41.44
702.468	41.86
702.653	40.78
702.838	42.87
703.023	41.39
703.208	40.86
703.393	41.17
703.578	41.84
703.763	40.38
703.948	39.77
704.133	40.46
704.318	40.65
704.503	40
704.688	41.32
704.873	40.47
705.057	42.29
705.242	41.52
705.427	40.46
705.612	41.07
705.797	41.54
705.981	42.16
706.166	40.83
706.351	39.82
706.536	40.8
706.72	40.6
706.905	40.35
707.09	40.31
707.274	41
707.459	40.83
707.644	40.18
707.828	39.3
708.013	38.31
708.197	39.02
708.382	39.22
708.567	38.48
708.751	38.29
708.936	38.69
709.12	37.94
709.305	37.31
709.489	37.37
709.673	36.81
709.858	38.23
710.042	39.4
710.227	38.53
710.411	38.96
710.596	39.93
710.78	39.8
710.964	39.07
711.149	39.29
711.333	39.99
711.517	39.2
711.702	40.31
711.886	39.63
712.07	38.94
712.254	40.63
712.438	39.96
712.623	40.14
712.807	39.93
712.991	39.95
713.175	39.93
713.359	40.39
713.544	41.02
713.728	39.62
713.912	39.7
714.096	40.24
714.28	39.18
714.464	40.16
714.648	39.98
714.832	41.49
715.016	42.04
715.2	41.32
715.384	41.16
715.568	40.77
715.752	40.83
715.936	40.75
716.12	40.18
716.304	39.49
716.488	38.28
716.671	38.16
716.855	36.37
717.039	35.68
717.223	36.72
717.407	37.13
717.59	38.57
717.774	40.25
717.958	40.77
718.142	41.08
718.325	42.22
718.509	43.72
718.693	43.2
718.877	44.56
719.06	45.37
719.244	45.26
719.428	45.64
719.611	46.03
719.795	45.73
719.978	45.57
720.162	45.47
720.345	45.56
720.529	44.5
720.713	44.95
720.896	44.56
721.08	44.53
721.263	46.17
721.446	45.28
721.63	46.62
721.813	46.13
721.997	47.77
722.18	47.67
722.364	49.1
722.547	50.07
722.73	50.26
722.914	49.76
723.097	52.01
723.28	50.55
723.464	51.01
723.647	47.79
723.83	47.3
724.013	46.45
724.197	47.34
724.38	46.25
724.563	46.84
724.746	46.74
724.929	47.18
725.112	47.33
725.296	47.23
725.479	46.5
725.662	47.22
725.845	48.11
726.028	47.94
726.211	47.47
726.394	46.97
726.577	46.67
726.76	46.52
726.943	45.8
727.126	43.92
727.309	42.03
727.492	42.84
727.675	43
727.858	43.28
728.041	41.71
728.224	40.99
728.407	42.07
728.589	41.09
728.772	39.81
728.955	40.82
729.138	40.68
729.321	41.65
729.503	42.17
729.686	42.33
729.869	42.5
730.052	43.64
730.234	44.18
730.417	42.46
730.6	44.42
730.782	45.21
730.965	45.15
731.148	45.35
731.33	44.78
731.513	44.02
731.695	43.4
731.878	42.61
732.061	41.53
732.243	40.83
732.426	41.41
732.608	40.29
732.791	40.31
732.973	39.67
733.156	40.8
733.338	41.45
733.52	42.45
733.703	42.53
733.885	44.04
734.068	45.94
734.25	47.11
734.432	49.43
734.615	48.57
734.797	48.73
734.979	50.03
735.162	49.89
735.344	51.04
735.526	48.77
735.708	50.34
735.891	46.99
736.073	46.43
736.255	46.29
736.437	44.3
736.619	46.15
736.802	45.3
736.984	46.19
737.166	46.47
737.348	46.08
737.53	47.94
737.712	47.58
737.894	50.69
738.076	50.46
738.258	50.4
738.44	51.08
738.622	50.2
738.804	51.79
738.986	50.2
739.168	49.22
739.35	48.32
739.532	47.54
739.714	46.47
739.896	43.25
740.078	43.63
740.259	42.79
740.441	44.53
740.623	43.17
740.805	44.67
740.987	44.51
741.168	44.46
741.35	46.18
741.532	46.15
741.714	47.34
741.895	48.9
742.077	46.49
742.259	47.61
742.44	45.6
742.622	46.38
742.804	44.78
742.985	45.8
743.167	43.8
743.348	43.87
743.53	44.82
743.711	45.28
743.893	47.63
744.075	49.64
744.256	50.62
744.438	51.71
744.619	54.12
744.8	55.16
744.982	55.32
745.163	60.92
745.345	59.08
745.526	58.01
745.707	58.02
745.889	55.61
746.07	58.36
746.252	57.14
746.433	56.99
746.614	56.57
746.795	55.74
746.977	56.53
747.158	54.06
747.339	53.81
747.52	54.86
747.702	53.95
747.883	54.79
748.064	54.4
748.245	54.38
748.426	55.75
748.607	54.03
748.788	56.64
748.97	53.84
749.151	52.86
749.332	54.35
749.513	54.68
749.694	54.62
749.875	56.78
750.056	54.04
750.237	54.14
750.418	54.18
750.599	56.44
750.78	52.44
750.96	54.34
751.141	54.26
751.322	54.01
751.503	50.67
751.684	50.93
751.865	47.81
752.046	50.69
752.226	51.35
752.407	48.67
752.588	47.71
752.769	48.88
752.949	49.6
753.13	51.63
753.311	50.97
753.492	52.16
753.672	53.41
753.853	56.29
754.034	54.43
754.214	53.78
754.395	54.74
754.575	54.27
754.756	53.59
754.937	55.2
755.117	55.49
755.298	57.39
755.478	60.82
755.659	59.93
755.839	58.02
756.02	59.09
756.2	60.8
756.381	60.95
756.561	60
756.741	61.32
756.922	59.55
757.102	59.76
757.283	58.89
757.463	55.76
757.643	56.38
757.823	56.29
758.004	56.54
758.184	54.69
758.364	54.92
758.545	54.13
758.725	53.82
758.905	56.87
759.085	55.65
759.265	54.63
759.446	54.11
759.626	52.72
759.806	51.63
759.986	50.95
760.166	52.04
760.346	51.1
760.526	50.49
760.706	51.07
760.886	46.76
761.066	47.2
761.246	46.97
761.426	47.44
761.606	46.44
761.786	47.32
761.966	45.55
762.146	45.31
762.326	44.94
762.506	47.15
762.686	45.62
762.866	46.49
763.046	44.65
763.225	43.77
763.405	43.22
763.585	43.63
763.765	43.29
763.945	44.39
764.124	44.25
764.304	45.13
764.484	44.4
764.664	44.53
764.843	44.91
765.023	46.68
765.203	46.09
765.382	46.93
765.562	46.33
765.741	47.35
765.921	48.67
766.101	48.75
766.28	49.52
766.46	49.34
766.639	50.71
766.819	48.79
766.998	47.53
767.178	50.63
767.357	52.2
767.537	56.58
767.716	55.37
767.896	54.19
768.075	53.88
768.254	52.6
768.434	53.02
768.613	54.36
768.792	57.6
768.972	60.24
769.151	59.96
769.33	60.2
769.51	56.19
769.689	60.51
769.868	61.27
770.047	62.01
770.226	61.97
770.406	61.35
770.585	61.11
770.764	59.82
770.943	58.3
771.122	56.17
771.301	54.08
771.48	55.58
771.66	54.65
771.839	55.03
772.018	55.93
772.197	57.06
772.376	60.33
772.555	63.23
772.734	65.26
772.913	65.95
773.092	66.92
773.271	70.14
773.449	72.54
773.628	70.11
773.807	70.8
773.986	68.49
774.165	70.86
774.344	72.06
774.523	69.33
774.701	69.49
774.88	70.51
775.059	72.43
775.238	72.05
775.417	72.45
775.595	75.41
775.774	74.85
775.953	77.26
776.131	72.17
776.31	67.46
776.489	66.03
776.667	63.01
776.846	61.86
777.025	62.14
777.203	62.4
777.382	57.67
777.56	55.4
777.739	53.51
777.917	56.03
778.096	59.49
778.274	62.42
778.453	62.93
778.631	64.7
778.81	66.75
778.988	65.53
779.166	64.77
779.345	68.95
779.523	70.72
779.702	75.24
779.88	74.1
780.058	74.22
780.237	73.68
780.415	72.98
780.593	73.44
780.771	71.93
780.95	74.12
781.128	72.51
781.306	68.59
781.484	67.22
781.662	67.89
781.841	67.25
782.019	66.51
782.197	66.16
782.375	63.41
782.553	59.64
782.731	61.34
782.909	61.77
783.087	63.63
783.265	69.39
783.443	70.57
783.621	65.09
783.799	66.16
783.977	66.82
784.155	68.26
784.333	74.25
784.511	77.08
784.689	79.21
784.867	79.18
785.045	78.64
785.223	75.23
785.4	75.09
785.578	75.59
785.756	71.46
785.934	69.5
786.112	67.83
786.289	63.74
786.467	64.4
786.645	66.06
786.823	65.26
787	67.68
787.178	68.47
787.356	68.15
787.533	68.8
787.711	69.6
787.889	67.8
788.066	65.65
788.244	68.86
788.421	67.31
788.599	63.96
788.776	66.4
788.954	67.57
789.131	64.97
789.309	64.99
789.486	65.94
789.664	67.01
789.841	71.46
790.019	74.8
790.196	72.67
790.373	75.68
790.551	73.34
790.728	74.78
790.906	71.93
791.083	73.96
791.26	73.55
791.437	70.57
791.615	71.45
791.792	69.32
791.969	70.49
792.146	71.22
792.324	69.71
792.501	75.08
792.678	65.99
792.855	59.05
793.032	62
793.209	61.96
793.387	64.41
793.564	64.06
793.741	67.1
793.918	67.49
794.095	69.09
794.272	69.3
794.449	72.16
794.626	80.94
794.803	86.09
794.98	81.11
795.157	80.12
795.334	76.05
795.511	74.35
795.688	71.5
795.864	72.44
796.041	71.3
796.218	70.75
796.395	65.06
796.572	62.47
796.749	61.38
796.925	60.79
797.102	60.38
797.279	62.8
797.456	67.22
797.632	70.26
797.809	74.05
797.986	73.32
798.162	75.72
798.339	78.12
798.516	80.83
798.692	82.06
798.869	90.57
799.046	96.74
799.222	95.08
799.399	89.85
799.575	90.94
799.752	81.65
799.928	79.77
800.105	76.47
800.281	76.24
800.458	75
800.634	72.43
800.811	70.52
800.987	74.21
801.163	75.26
801.34	79.09
801.516	74.07
801.692	75.81
801.869	77.62
802.045	78.27
802.221	75.24
802.398	75.01
802.574	76.17
802.75	73.99
802.926	71.51
803.103	74.54
803.279	69.68
803.455	71.82
803.631	75.1
803.807	81.36
803.983	92.78
804.16	98.75
804.336	102.78
804.512	107.07
804.688	114.65
804.864	113.47
805.04	112.18
805.216	113.49
805.392	118.31
805.568	118.99
805.744	111.38
805.92	101.01
806.096	98.9
806.272	98.37
806.448	92.22
806.623	93
806.799	96.33
806.975	90.84
807.151	90.12
807.327	87.39
807.503	83.53
807.678	84.45
807.854	85.42
808.03	83.68
808.206	84.67
808.381	82.64
808.557	70.89
808.733	68.09
808.908	71.7
809.084	75.32
809.26	75.32
809.435	78.85
809.611	81.91
809.787	77.52
809.962	87.17
810.138	91.98
810.313	100.88
810.489	105.77
810.664	105.51
810.84	100.57
811.015	100.57
811.191	105.93
811.366	106.18
811.542	104.43
811.717	106.64
811.892	98.01
812.068	92.02
812.243	95.7
812.419	99.23
812.594	100.8
812.769	101.11
812.944	101.89
813.12	91.85
813.295	89.03
813.47	91.68
813.645	96.02
813.821	100.76
813.996	101.72
814.171	97.56
814.346	101.43
814.521	103.3
814.697	108.38
814.872	106.19
815.047	110.65
815.222	105.87
815.397	98.97
815.572	102.88
815.747	96.1
815.922	90.87
816.097	89.82
816.272	85.72
816.447	83.12
816.622	81.21
816.797	80.21
816.972	78.63
817.147	78.81
817.322	81.47
817.496	77.95
817.671	77.34
817.846	79.1
818.021	80.47
818.196	80.53
818.371	82.81
818.545	82.9
818.72	77.26
818.895	75.14
819.069	73.18
819.244	72.77
819.419	71.8
819.594	66.16
819.768	62.04
819.943	56.86
820.117	52.17
820.292	48.32
820.467	47.32
820.641	47.42
820.816	44.93
820.99	42.83
821.165	41.03
821.339	39.72
821.514	39.67
821.688	38.95
821.863	37.84
822.037	37.83
822.212	36.98
822.386	35.88
822.56	35.25
822.735	35.16
822.909	35.6
823.084	35.41
823.258	34.67
823.432	35.33
823.606	35.52
823.781	36.03
823.955	36.86
824.129	36.92
824.303	38.69
824.478	38.3
824.652	38.5
824.826	38.48
825	41.03
825.174	42.5
825.348	42.1
825.523	42.03
825.697	43.25
825.871	42.96
826.045	44.16
826.219	44.74
826.393	46.06
826.567	47.95
826.741	47.46
826.915	45.46
827.089	46.25
827.263	48.41
827.437	49.51
827.611	50.77
827.784	53.28
827.958	54.97
828.132	55.32
828.306	56.27
828.48	55.08
828.654	57.89
828.827	59.19
829.001	59.39
829.175	58.16
829.349	59.75
829.522	62.06
829.696	60.14
829.87	59.1
830.044	63.14
830.217	68.03
830.391	69.31
830.565	70.96
830.738	75.41
830.912	75.39
831.085	76.05
831.259	72.26
831.432	70.93
831.606	75.65
831.779	79.14
831.953	73.03
832.126	68.38
832.3	71.24
832.473	68.08
832.647	65.58
832.82	63.1
832.994	62.17
833.167	59.69
833.34	58.65
833.514	56.18
833.687	54.97
833.86	55.99
834.034	56.39
834.207	53.47
834.38	55.74
834.553	56.7
834.727	59.13
834.9	59.82
835.073	64.55
835.246	64.79
835.419	65.86
835.593	67.05
835.766	63.86
835.939	65.07
836.112	72.66
836.285	72.78
836.458	76.82
836.631	77.62
836.804	78
836.977	82.16
837.15	85.07
837.323	84.77
837.496	96.86
837.669	104.78
837.842	116.5
838.015	116.56
838.188	112.47
838.361	106.03
838.533	107.78
838.706	119.97
838.879	116.09
839.052	123.75
839.225	130.22
839.398	118.91
839.57	123.03
839.743	120.75
839.916	120.89
840.088	120.4
840.261	120.98
840.434	125.13
840.607	118.76
840.779	124.23
840.952	117.05
841.124	114.85
841.297	121.45
841.47	116.36
841.642	110.23
841.815	112.08
841.987	128.37
842.16	141.78
842.332	146.05
842.505	146.03
842.677	126.48
842.85	150.36
843.022	149.4
843.194	161.25
843.367	159.64
843.539	163.16
843.712	141.11
843.884	134.3
844.056	130.09
844.229	130.45
844.401	143.81
844.573	156.47
844.745	146.01
844.918	152.57
845.09	142.78
845.262	154.87
845.434	153.37
845.606	178.68
845.779	165.24
845.951	191.15
846.123	171.48
846.295	167.71
846.467	165.14
846.639	164.35
846.811	170.37
846.983	166.67
847.155	181.1
847.327	169.66
847.499	163.81
847.671	205.06
847.843	181.84
848.015	255.93
848.187	229.07
848.359	237.65
848.531	241.6
848.703	224.97
848.875	256.92
849.047	215.58
849.218	291.85
849.39	284.24
849.562	238.52
849.734	243.96
849.905	211.29
850.077	262.86
850.249	367.95
850.421	431.17
850.592	406.87
850.764	368.89
850.936	370.37
851.107	383.63
851.279	432.87
851.451	333.97
851.622	286.71
851.794	245.11
851.965	215.35
852.137	181.89
852.308	164.87
852.48	176.68
852.651	171.54
852.823	165.6
852.994	163.7
853.166	160.37
853.337	168.05
853.509	184.92
853.68	237.78
853.851	260.32
854.023	330.86
854.194	314.41
854.365	343.97
854.537	343.47
854.708	520.74
854.879	853.85
855.05	773.73
855.222	716.21
855.393	466.83
855.564	520.26
855.735	423.79
855.906	316.72
856.078	357.14
856.249	397
856.42	368.86
856.591	324.62
856.762	329.3
856.933	410.06
857.104	440.6
857.275	494.84
857.446	277.79
857.617	252.27
857.788	245.79
857.959	208.79
858.13	176.85
858.301	211.34
858.472	241.18
858.643	230.91
858.814	240.96
858.985	231.85
859.155	235.27
859.326	335.89
859.497	357.21
859.668	340.57
859.839	620.74
860.009	411.21
860.18	287.28
860.351	215.15
860.522	204.92
860.692	163.25
860.863	176.87
861.034	177.05
861.204	157.84
861.375	168.72
861.546	167.14
861.716	157.68
861.887	173.58
862.057	220.58
862.228	197.77
862.398	215.68
862.569	223.54
862.739	229.49
862.91	216.8
863.08	281.05
863.251	271.17
863.421	305.96
863.592	272.26
863.762	297.66
863.932	245.76
864.103	311.46
864.273	277.76
864.443	302.2
864.614	238.29
864.784	265.27
864.954	227.64
865.125	239.31
865.295	246.96
865.465	253.98
865.635	278.62
865.805	268.99
865.976	253.3
866.146	267.81
866.316	307.28
866.486	456.43
866.656	311.83
866.826	332.17
866.996	297.94
867.166	275.81
867.336	264.58
867.506	227.37
867.676	217.28
867.846	212.31
868.016	220.13
868.186	205.51
868.356	181.84
868.526	197.77
868.696	226.42
868.866	250.13
869.036	245.84
869.206	221.4
869.376	242.56
869.545	234.45
869.715	263.69
869.885	260.16
870.055	297.75
870.224	327.65
870.394	475.29
870.564	354.11
870.734	366.74
870.903	330.27
871.073	413.65
871.243	338.18
871.412	384.73
871.582	305.4
871.751	290.06
871.921	248.91
872.091	253.53
872.26	223.83
872.43	176.52
872.599	179.42
872.769	200.31
872.938	181.39
873.108	248.43
873.277	255.5
873.446	333.52
873.616	315.76
873.785	342.37
873.955	420.1
874.124	306.27
874.293	808.72
874.463	920.36
874.632	1136.36
874.801	1258.82
874.971	364.54
875.14	382.97
875.309	269.87
875.478	243.15
875.647	254.16
875.817	205.46
875.986	247.28
876.155	252.89
876.324	258.2
876.493	236.72
876.662	231.24
876.831	254.23
877	234.36
877.17	271.51
877.339	350.18
877.508	247.17
877.677	285.1
877.846	301.33
878.015	247.27
878.184	204.35
878.352	202.35
878.521	201.33
878.69	198.73
878.859	190.29
879.028	194.01
879.197	171.15
879.366	193.52
879.534	182.89
879.703	177.71
879.872	169.85
880.041	168.74
880.21	147.45
880.378	136.57
880.547	127.38
880.716	112.63
880.884	101.52
881.053	96.27
881.222	91.68
881.39	81.95
881.559	73.02
881.727	67.37
881.896	66.68
882.065	64.82
882.233	62.83
882.402	64.07
882.57	64.52
882.739	62.5
882.907	59.79
883.076	62.41
883.244	63.8
883.412	63.44
883.581	64.75
883.749	67.5
883.918	70.96
884.086	71.53
884.254	70.69
884.423	71.94
884.591	78.97
884.759	84.37
884.927	79.46
885.096	83.48
885.264	92.98
885.432	96.12
885.6	96.71
885.769	104.27
885.937	113.69
886.105	118.51
886.273	115.55
886.441	112.49
886.609	116.06
886.777	137.85
886.945	157.35
887.113	151.94
887.281	176.88
887.449	182.39
887.617	166.75
887.785	186.61
887.953	198.61
888.121	212.37
888.289	224.26
888.457	276.12
888.625	321.09
888.793	239.79
888.961	266.23
889.129	196.8
889.296	198.66
889.464	225.13
889.632	191.07
889.8	197.76
889.967	203.55
890.135	211.48
