Data from JASIL_3152_Reflection_2.txt Node
Date: Thu Nov 12 21:26:38 EST 2015
User: Geneva
Spectrometer: USB4E03002
Autoset integration time: false
Trigger mode: 4
Integration Time (sec): 1.000000E-1
Scans to average: 10
Electric dark correction enabled: true
Nonlinearity correction enabled: false
Boxcar width: 5
Stray light correction enabled: false
XAxis mode: Wavelengths
Stop averaging: false
Number of Pixels in Spectrum: 3648
>>>>>Begin Spectral Data<<<<<
177.575	88.48
177.794	233.96
178.014	551.83
178.233	-64.07
178.452	-10513.04
178.672	-286.29
178.891	-103.85
179.11	122.97
179.33	23.49
179.549	-16.22
179.768	51.87
179.987	-104.32
180.207	48.93
180.426	4.72
180.645	21.35
180.864	40.81
181.084	23.82
181.303	25.7
181.522	63.11
181.741	71.41
181.96	72.71
182.179	81.66
182.398	60.4
182.618	38.93
182.837	42.72
183.056	42.66
183.275	18.5
183.494	18.65
183.713	25.16
183.932	-0.96
184.151	-11.7
184.37	-66.81
184.589	-48.84
184.808	-45.57
185.027	-29.25
185.246	-9.64
185.465	9.67
185.684	11.5
185.903	19.08
186.122	10
186.341	5.25
186.56	29.09
186.779	78.1
186.998	70.12
187.216	49.53
187.435	54.71
187.654	-2.44
187.873	-62.15
188.092	11.17
188.311	-21.34
188.53	11.83
188.748	-2.68
188.967	-61.9
189.186	-164.24
189.405	-104.04
189.623	-64.5
189.842	-37.99
190.061	-27.55
190.28	12.17
190.498	-23.99
190.717	-15.81
190.936	-11.83
191.154	22.89
191.373	39.66
191.592	53.81
191.81	50.84
192.029	48.64
192.248	74.48
192.466	72.93
192.685	72.1
192.904	86.86
193.122	99.05
193.341	116.48
193.559	97.56
193.778	160.58
193.996	183.98
194.215	124.21
194.433	133.21
194.652	33.92
194.87	-2.13
195.089	-8
195.307	-13.39
195.526	-22.95
195.744	-17.1
195.963	14.38
196.181	20.85
196.399	0.98
196.618	23.74
196.836	50.12
197.055	36.26
197.273	87.16
197.491	91.1
197.71	204.64
197.928	197.11
198.146	72.1
198.365	358.05
198.583	-48.4
198.801	-326.41
199.019	-39.25
199.238	6.85
199.456	-157.42
199.674	-48.35
199.892	-122.2
200.111	-1132.1
200.329	-1797.39
200.547	-93.85
200.765	-274.2
200.983	-154.35
201.202	-264.23
201.42	-63.44
201.638	-117.24
201.856	-105.83
202.074	3.38
202.292	-44.4
202.51	-13.48
202.728	22.4
202.946	31.67
203.165	39.85
203.383	74.58
203.601	101.62
203.819	125.22
204.037	106
204.255	90.29
204.473	83
204.691	76.63
204.909	94.59
205.127	101.73
205.345	101.46
205.562	86.49
205.78	57.16
205.998	51.53
206.216	88.42
206.434	136.22
206.652	150.86
206.87	119.91
207.088	77.5
207.306	98.69
207.523	163.55
207.741	137.34
207.959	150.7
208.177	283.22
208.395	167.61
208.612	97.71
208.83	181.34
209.048	-33.44
209.266	12628.57
209.483	-71.72
209.701	-74.78
209.919	125.38
210.136	63.33
210.354	11.17
210.572	505.56
210.79	935.61
211.007	-300.99
211.225	136.58
211.442	133.38
211.66	133.55
211.878	129.28
212.095	143.1
212.313	143.26
212.53	126.44
212.748	135.84
212.966	141.57
213.183	151.9
213.401	135.26
213.618	142.64
213.836	120.32
214.053	113.35
214.271	109.86
214.488	41.22
214.705	79.92
214.923	80.93
215.14	76.75
215.358	78.87
215.575	84.95
215.793	117.28
216.01	117.28
216.227	143.76
216.445	122.68
216.662	111.61
216.879	124.52
217.097	105.25
217.314	417.65
217.531	757.09
217.749	521.25
217.966	130.38
218.183	85.97
218.4	96.48
218.618	281.13
218.835	354.78
219.052	446.45
219.269	634.83
219.487	245.97
219.704	64.02
219.921	45.77
220.138	45.35
220.355	55.67
220.572	74.62
220.79	43.02
221.007	24.59
221.224	29.04
221.441	6.46
221.658	14.21
221.875	19.14
222.092	75.52
222.309	82.9
222.526	156.56
222.743	80.94
222.96	89.59
223.177	119.08
223.394	146.96
223.611	123.81
223.828	158.13
224.045	1090.13
224.262	-113.04
224.479	-19.84
224.696	-10.01
224.913	13.05
225.13	-164.92
225.347	-87.06
225.564	-12.67
225.781	41.25
225.997	6.15
226.214	20.51
226.431	13
226.648	0.64
226.865	-26.83
227.082	-64.55
227.298	-25.04
227.515	-3.33
227.732	-0.67
227.949	-3
228.165	-16.37
228.382	-13.65
228.599	-17.05
228.816	-25.34
229.032	-24.1
229.249	-15.32
229.466	-4.94
229.682	-27.12
229.899	-27.26
230.116	-41.5
230.332	-49.67
230.549	-38.91
230.765	-25.37
230.982	-21.57
231.199	-2.91
231.415	-0.69
231.632	6.21
231.848	3.83
232.065	26.43
232.281	34.2
232.498	39.73
232.714	35.82
232.931	40.23
233.147	33.85
233.364	25.32
233.58	14.35
233.797	7.94
234.013	-7.56
234.23	-3.6
234.446	-24.51
234.662	-81.54
234.879	-75.11
235.095	-60.79
235.312	-110.89
235.528	-33.53
235.744	-30.17
235.961	-51.84
236.177	-43.03
236.393	-84.51
236.61	-88.77
236.826	-27.2
237.042	-8.34
237.258	-2.54
237.475	-12.62
237.691	12.94
237.907	-20.91
238.123	-33.52
238.339	-1.39
238.556	12.28
238.772	17.9
238.988	32.86
239.204	16.28
239.42	11.51
239.636	7.5
239.853	12.77
240.069	4.52
240.285	-6.63
240.501	-1.67
240.717	5.34
240.933	3.6
241.149	8.6
241.365	0.94
241.581	-0.04
241.797	1.38
242.013	-2.46
242.229	-3.17
242.445	5.31
242.661	6.45
242.877	5.66
243.093	7.58
243.309	8.65
243.525	6.62
243.741	3.94
243.957	3.83
244.173	6.76
244.388	14.39
244.604	11.56
244.82	3.33
245.036	0.62
245.252	1.4
245.468	1.91
245.683	1.74
245.899	1.82
246.115	1.6
246.331	4.89
246.547	1.36
246.762	1.31
246.978	3.07
247.194	0.66
247.409	3.11
247.625	1.85
247.841	-2.78
248.057	-5.54
248.272	-3.19
248.488	5.56
248.703	1.72
248.919	5.49
249.135	1.02
249.35	1.18
249.566	9.39
249.782	6.23
249.997	4.79
250.213	2.96
250.428	1.88
250.644	-10.28
250.859	-18.3
251.075	-23.48
251.29	-18.74
251.506	-17.37
251.721	-17.12
251.937	-15.61
252.152	-12.65
252.368	-15.82
252.583	-16.77
252.798	-11.17
253.014	-6.11
253.229	-12.54
253.445	-9.27
253.66	-8.68
253.875	-9.81
254.091	-18.6
254.306	-15.31
254.521	-23.97
254.737	-10.65
254.952	-10.35
255.167	-18.86
255.383	-17.44
255.598	-14.77
255.813	-14.73
256.028	-24.81
256.244	-22.75
256.459	-7.14
256.674	-8.01
256.889	-1.78
257.104	4.3
257.32	6.29
257.535	8.53
257.75	5.83
257.965	9.01
258.18	7.06
258.395	6.56
258.61	10.53
258.826	8.57
259.041	7.17
259.256	5.33
259.471	2.04
259.686	0.96
259.901	2.13
260.116	5.58
260.331	4.5
260.546	7.95
260.761	9.76
260.976	10.64
261.191	10.54
261.406	11.28
261.621	11.8
261.836	10.98
262.05	12.91
262.265	13.49
262.48	16.19
262.695	16.68
262.91	17.3
263.125	12.51
263.34	7.87
263.555	4.42
263.769	-0.4
263.984	0.53
264.199	3.97
264.414	5.24
264.629	2.16
264.843	-5.26
265.058	-8.28
265.273	-10.16
265.488	-9.73
265.702	-9.01
265.917	-11.56
266.132	-11.11
266.346	-6.18
266.561	-8.68
266.776	-8.71
266.99	-9.58
267.205	-9.83
267.42	-9.37
267.634	-12
267.849	-9.56
268.063	-11.11
268.278	-9.18
268.492	-9.53
268.707	-11.85
268.922	-11.9
269.136	-7.95
269.351	-3.82
269.565	1.51
269.78	4.26
269.994	5.48
270.209	5.79
270.423	6.84
270.637	5.62
270.852	8.69
271.066	9.89
271.281	9.73
271.495	4.94
271.709	1.84
271.924	-1.29
272.138	-2.33
272.353	-3.18
272.567	-3.55
272.781	-3.68
272.996	-1.81
273.21	-0.23
273.424	-0.04
273.638	2.74
273.853	5.29
274.067	6.84
274.281	6.23
274.495	3.38
274.71	4.58
274.924	2.63
275.138	2.69
275.352	1.56
275.566	0.36
275.781	-2.61
275.995	-0.29
276.209	-5.82
276.423	-9.85
276.637	-12.44
276.851	-10.96
277.065	-14.48
277.279	-13.97
277.493	-14.62
277.707	-10.76
277.921	-13.31
278.135	-14.88
278.349	-13.06
278.563	-8.65
278.777	-7.49
278.991	-2.82
279.205	-2.04
279.419	0.07
279.633	-2.66
279.847	-2.53
280.061	-5.5
280.275	-4.22
280.489	-4.1
280.703	-14.53
280.917	-9.35
281.131	-7.72
281.344	-12.53
281.558	-9.64
281.772	-9.38
281.986	-6.44
282.2	-6.96
282.414	-6.33
282.627	-6.29
282.841	-6.27
283.055	1.15
283.269	0.93
283.482	2.86
283.696	4.83
283.91	3.73
284.123	1.47
284.337	2.89
284.551	3.17
284.764	5.13
284.978	4.89
285.192	8.33
285.405	6.37
285.619	5.91
285.833	8.4
286.046	12.78
286.26	12.11
286.473	14.93
286.687	13.55
286.9	16.23
287.114	14.64
287.327	15.84
287.541	14.78
287.754	15.07
287.968	12.17
288.181	8.87
288.395	3.05
288.608	5.79
288.822	3.72
289.035	3.09
289.248	0.9
289.462	0.03
289.675	-0.31
289.889	-0.83
290.102	-0.26
290.315	2.05
290.529	1.61
290.742	2.92
290.955	3.08
291.169	7.37
291.382	9.04
291.595	11.21
291.808	12.98
292.022	14.72
292.235	14.02
292.448	13.32
292.661	10.5
292.875	9.5
293.088	11.28
293.301	8.03
293.514	3.89
293.727	3.25
293.94	-1.66
294.153	-1.59
294.367	-5.55
294.58	-4.58
294.793	-4.93
295.006	-3.48
295.219	-2.55
295.432	-3.49
295.645	-1.99
295.858	-0.07
296.071	-0.03
296.284	2.94
296.497	4.29
296.71	4.27
296.923	4.53
297.136	4.19
297.349	3.03
297.562	5.09
297.775	5.87
297.988	5.38
298.201	5.3
298.414	5.86
298.626	4.88
298.839	2.73
299.052	6.54
299.265	5.84
299.478	7.46
299.691	8.18
299.903	5.63
300.116	5.38
300.329	7.27
300.542	5.42
300.755	4.56
300.967	4.98
301.18	5.43
301.393	2.81
301.605	2.93
301.818	3
302.031	2.39
302.243	2.68
302.456	1.83
302.669	-0.42
302.881	-1.69
303.094	-1.92
303.307	-1.56
303.519	-0.51
303.732	-1.18
303.944	-1.55
304.157	-4.37
304.37	-2.17
304.582	-0.46
304.795	-2.25
305.007	-1.89
305.22	1.54
305.432	-0.8
305.645	-0.51
305.857	2.54
306.069	3.62
306.282	4.84
306.494	7.83
306.707	11.04
306.919	8.61
307.132	7.62
307.344	3.97
307.556	3.64
307.769	5.18
307.981	4.91
308.193	-1.14
308.406	-0.99
308.618	-2.2
308.83	-3.31
309.043	-5.57
309.255	-5.72
309.467	-5.56
309.679	-1.71
309.892	-0.39
310.104	-0.29
310.316	-1.21
310.528	0.82
310.74	1.46
310.953	1.22
311.165	0.87
311.377	0.53
311.589	2.32
311.801	1.84
312.013	1.86
312.225	0.41
312.437	-0.12
312.649	-1.89
312.862	-1.43
313.074	-3.75
313.286	-1.22
313.498	1.88
313.71	-1.63
313.922	-3.38
314.134	-2.56
314.346	-3.48
314.558	-3.02
314.77	-0.09
314.982	2.74
315.193	2.55
315.405	2.85
315.617	2.1
315.829	-0.92
316.041	-0.18
316.253	3.97
316.465	5.79
316.677	5.82
316.888	4.5
317.1	4.99
317.312	5.37
317.524	6.52
317.736	8.43
317.947	3.86
318.159	7.07
318.371	11.24
318.583	10.56
318.794	9.68
319.006	9.53
319.218	10.19
319.43	7.02
319.641	7.29
319.853	7.75
320.064	8.16
320.276	12.7
320.488	10.07
320.699	8.23
320.911	4.66
321.123	2.76
321.334	3.02
321.546	3.93
321.757	5.2
321.969	4.46
322.18	0.38
322.392	-2.09
322.603	-3.97
322.815	-5.13
323.026	-7.04
323.238	-4.52
323.449	2.16
323.661	2.18
323.872	2.06
324.083	0.68
324.295	1.45
324.506	2.58
324.718	3.55
324.929	5.29
325.14	5.63
325.352	5.66
325.563	5.08
325.774	4.26
325.986	3.97
326.197	3.36
326.408	5.66
326.62	6.03
326.831	4.05
327.042	5.22
327.253	5.02
327.464	4.48
327.676	6.57
327.887	5.16
328.098	3.82
328.309	4.74
328.52	5.06
328.732	5.11
328.943	3.84
329.154	5.98
329.365	2.53
329.576	3.54
329.787	6.3
329.998	5.14
330.209	7.14
330.42	6.92
330.631	5.92
330.842	6.73
331.053	3.45
331.264	5.11
331.475	4.32
331.686	5.9
331.897	5.84
332.108	1.22
332.319	2.21
332.53	1.78
332.741	3.15
332.952	3.18
333.163	2.68
333.374	6.47
333.585	5.75
333.795	4.44
334.006	5.79
334.217	5.82
334.428	11.85
334.639	9.53
334.849	8.07
335.06	6.2
335.271	4.78
335.482	6.12
335.692	3.53
335.903	2.78
336.114	5
336.325	4.69
336.535	5.6
336.746	2.04
336.957	2.9
337.167	4.06
337.378	0.61
337.589	2.6
337.799	3.49
338.01	5.2
338.22	7.92
338.431	9.53
338.642	8.61
338.852	7.38
339.063	7.48
339.273	6.56
339.484	7.6
339.694	12.29
339.905	11.89
340.115	8.13
340.326	6.96
340.536	3.87
340.746	2.65
340.957	2.6
341.167	2.05
341.378	2.33
341.588	4.54
341.799	3.3
342.009	2.04
342.219	3.71
342.43	5.91
342.64	6.85
342.85	6.94
343.061	6.69
343.271	6.85
343.481	7
343.691	6.14
343.902	7.12
344.112	6.96
344.322	7.08
344.532	5.68
344.743	6.4
344.953	5.98
345.163	7.4
345.373	7.29
345.583	9.11
345.793	9.5
346.004	8.13
346.214	7.48
346.424	9.1
346.634	8.87
346.844	7.53
347.054	7.5
347.264	9.49
347.474	9.27
347.684	10.58
347.894	9.09
348.104	6.81
348.314	9.24
348.524	9.22
348.734	9
348.944	10.41
349.154	12.07
349.364	10.52
349.574	8.7
349.784	8.64
349.994	9.3
350.204	10.13
350.413	9.77
350.623	8.4
350.833	8.18
351.043	8.07
351.253	7.66
351.463	6.01
351.672	6.34
351.882	6.08
352.092	4.26
352.302	2.73
352.511	2.28
352.721	2.26
352.931	4.07
353.141	4.54
353.35	3.7
353.56	2.12
353.77	4.46
353.979	2.91
354.189	1.14
354.399	2.55
354.608	-0.39
354.818	-1.64
355.027	1.18
355.237	1.02
355.447	-1.12
355.656	-0.86
355.866	-0.19
356.075	-0.02
356.285	1.91
356.494	3.09
356.704	2.65
356.913	5.33
357.123	6.09
357.332	5.12
357.542	4.99
357.751	5.28
357.96	5.31
358.17	5.17
358.379	5.1
358.589	4.54
358.798	3.85
359.007	4.46
359.217	4.78
359.426	5.45
359.635	5.41
359.845	5.18
360.054	5.65
360.263	4.59
360.472	4.66
360.682	3.32
360.891	3.98
361.1	5.27
361.309	5.91
361.519	5.46
361.728	4.1
361.937	5.03
362.146	5.17
362.355	5.07
362.564	6.63
362.774	6.59
362.983	6.83
363.192	6.67
363.401	6.85
363.61	4.93
363.819	3.99
364.028	5.85
364.237	5.98
364.446	6.41
364.655	5.88
364.864	4.57
365.073	5.44
365.282	5.22
365.491	4.83
365.7	4.39
365.909	5.74
366.118	7.14
366.327	6.78
366.536	5.84
366.745	6.33
366.954	7
367.162	7.1
367.371	6.6
367.58	7.37
367.789	6.76
367.998	6.32
368.207	7.19
368.415	6.77
368.624	5.1
368.833	4.35
369.042	2.18
369.25	3.17
369.459	4.29
369.668	3.37
369.877	3.49
370.085	5.06
370.294	5.62
370.503	3.99
370.711	4.13
370.92	4.51
371.129	5.59
371.337	5.43
371.546	4.57
371.754	5.49
371.963	5.1
372.171	5.4
372.38	4.84
372.589	4.43
372.797	4.91
373.006	3.86
373.214	2.69
373.423	1.77
373.631	3.85
373.84	5.41
374.048	4.57
374.256	7.13
374.465	6.95
374.673	7.37
374.882	7.3
375.09	7.17
375.298	7.85
375.507	10.65
375.715	11.26
375.923	10.46
376.132	8.29
376.34	8.71
376.548	6.77
376.757	6.27
376.965	5.91
377.173	5.27
377.381	5.82
377.59	4.82
377.798	3.1
378.006	2.1
378.214	2.71
378.423	4.49
378.631	3.98
378.839	4.09
379.047	5.28
379.255	5.57
379.463	7.98
379.671	6
379.879	7.87
380.088	8.18
380.296	9.62
380.504	8.38
380.712	7.87
380.92	8.27
381.128	9.21
381.336	9.59
381.544	8.88
381.752	5.94
381.96	7.76
382.168	7.1
382.376	7.11
382.584	6.07
382.791	5.86
382.999	6.18
383.207	4.46
383.415	4.81
383.623	3.86
383.831	4.45
384.039	5.77
384.247	4.97
384.454	5.59
384.662	6.43
384.87	7.38
385.078	7.96
385.285	7.41
385.493	7.49
385.701	7.91
385.909	7.69
386.116	6.71
386.324	7.48
386.532	7.78
386.739	7.82
386.947	5.53
387.155	4.39
387.362	4.31
387.57	3.91
387.778	4.62
387.985	3.11
388.193	1.89
388.4	2.92
388.608	3.22
388.816	2.36
389.023	1.17
389.231	2.78
389.438	2.96
389.646	2.58
389.853	1.84
390.061	1.42
390.268	1.42
390.475	3.54
390.683	2.71
390.89	1.49
391.098	2.53
391.305	2.58
391.512	2.63
391.72	2.16
391.927	3.38
392.135	4.22
392.342	4.26
392.549	4.53
392.756	3.37
392.964	4.79
393.171	4.28
393.378	3.75
393.586	4.04
393.793	4.06
394	4.82
394.207	4.5
394.414	5.06
394.622	4.89
394.829	4.43
395.036	5.12
395.243	3
395.45	4.26
395.657	5.16
395.864	4.59
396.072	4.02
396.279	4.15
396.486	2.88
396.693	2.26
396.9	2.34
397.107	2.22
397.314	2.73
397.521	4.33
397.728	3.74
397.935	2.22
398.142	2.65
398.349	3.67
398.556	2.99
398.763	3.95
398.97	4.4
399.177	5.02
399.383	5.7
399.59	6.31
399.797	5.74
400.004	6.73
400.211	6.83
400.418	7.45
400.625	7.16
400.831	7.84
401.038	6.51
401.245	5.45
401.452	4.6
401.658	3.54
401.865	1.9
402.072	0.98
402.279	-0.22
402.485	-0.7
402.692	-0.9
402.899	-1.62
403.105	-1.09
403.312	0.09
403.519	-0.12
403.725	0.36
403.932	0.92
404.138	1.02
404.345	1.85
404.552	1.45
404.758	1.81
404.965	1.15
405.171	1.1
405.378	0.31
405.584	-0.62
405.791	0.81
405.997	0.03
406.204	0.7
406.41	0.64
406.617	0.99
406.823	2.14
407.029	3.05
407.236	3.24
407.442	2.7
407.649	2.08
407.855	3.37
408.061	1.58
408.268	3.1
408.474	2.96
408.68	2.94
408.887	3.05
409.093	2.78
409.299	1.98
409.505	2.22
409.712	3.12
409.918	3.59
410.124	2.93
410.33	4.52
410.537	3.93
410.743	3.28
410.949	3.75
411.155	3.34
411.361	4.58
411.567	5.19
411.773	5.58
411.98	5.76
412.186	5.62
412.392	5.37
412.598	4.44
412.804	5.47
413.01	5.9
413.216	6.12
413.422	6.53
413.628	5.3
413.834	4.31
414.04	3.28
414.246	3.89
414.452	3.99
414.658	4.35
414.864	3.95
415.07	2.95
415.275	2.96
415.481	2.17
415.687	1.28
415.893	0.84
416.099	1.98
416.305	2.62
416.511	2.63
416.716	2.43
416.922	2.13
417.128	2.46
417.334	2.59
417.539	2.61
417.745	2.92
417.951	3.28
418.157	3.77
418.362	3.31
418.568	2.83
418.774	2.49
418.979	2.37
419.185	3.04
419.391	3.24
419.596	2.99
419.802	3.25
420.008	3.45
420.213	3.45
420.419	2.85
420.624	3.13
420.83	4.01
421.035	4.17
421.241	5.12
421.446	4.28
421.652	4.48
421.857	4.88
422.063	4.43
422.268	4.12
422.474	3.7
422.679	4.29
422.885	3.91
423.09	3.09
423.295	3.02
423.501	2.16
423.706	2.35
423.911	2.19
424.117	1.99
424.322	1.7
424.527	1.73
424.733	1.72
424.938	1.6
425.143	1.23
425.349	1.15
425.554	1.21
425.759	1.71
425.964	1.98
426.169	2.05
426.375	2.02
426.58	2.87
426.785	2.25
426.99	2.47
427.195	2
427.4	2.17
427.605	2.58
427.811	2.32
428.016	1.61
428.221	1.38
428.426	0.95
428.631	0.49
428.836	0.39
429.041	1.51
429.246	1.26
429.451	1.42
429.656	2.55
429.861	2.89
430.066	3.47
430.271	4.36
430.476	4.44
430.681	4.57
430.886	4.6
431.09	4.45
431.295	4.53
431.5	5.02
431.705	5.38
431.91	5.29
432.115	5.36
432.32	4.88
432.524	4.55
432.729	4.43
432.934	4.26
433.139	4.64
433.343	4.9
433.548	4.55
433.753	3.78
433.958	4.01
434.162	3.86
434.367	3.85
434.572	3.48
434.776	3.62
434.981	4.12
435.186	4.63
435.39	4.41
435.595	3.98
435.799	4.32
436.004	4.6
436.209	3.85
436.413	3.6
436.618	3.4
436.822	3.81
437.027	3.48
437.231	3.16
437.436	2.67
437.64	2.39
437.845	2.47
438.049	2.08
438.253	2.31
438.458	2.32
438.662	2.27
438.867	2.2
439.071	1.74
439.275	1.72
439.48	1.62
439.684	1.33
439.888	1.42
440.093	1.24
440.297	1.49
440.501	1.77
440.706	1.39
440.91	1.33
441.114	1.08
441.318	1.2
441.523	0.89
441.727	0.9
441.931	1.09
442.135	2.12
442.339	1.79
442.543	1.77
442.748	1.21
442.952	1.85
443.156	2.06
443.36	2.03
443.564	2.13
443.768	2.56
443.972	2.05
444.176	2.7
444.38	2.04
444.584	2.33
444.788	2.64
444.992	3.15
445.196	2.96
445.4	2.57
445.604	2.81
445.808	2.8
446.012	2.63
446.216	3.04
446.42	2.82
446.624	2.85
446.828	2.53
447.032	2.46
447.235	2.36
447.439	2.56
447.643	2.8
447.847	2.78
448.051	2.88
448.254	3.2
448.458	4.09
448.662	3.92
448.866	4.09
449.069	4.2
449.273	3.54
449.477	3.55
449.681	3.03
449.884	2.55
450.088	2.48
450.292	2.23
450.495	2.31
450.699	1.31
450.902	1.73
451.106	1.64
451.31	2.27
451.513	1.99
451.717	2.1
451.92	2.3
452.124	2.67
452.327	3
452.531	3.36
452.734	3
452.938	2.89
453.141	2.61
453.345	2.93
453.548	2.85
453.752	3.47
453.955	3.1
454.158	3.75
454.362	3.26
454.565	2.72
454.769	2.59
454.972	2.3
455.175	2.6
455.379	2.81
455.582	1.91
455.785	1.67
455.988	1.32
456.192	1.71
456.395	1.45
456.598	2.02
456.801	2.31
457.005	2.03
457.208	2.72
457.411	2.32
457.614	2.24
457.817	2.42
458.021	2.46
458.224	2.58
458.427	3.01
458.63	2.72
458.833	2.77
459.036	2.5
459.239	2.68
459.442	2.5
459.645	2.85
459.848	2.77
460.051	2.93
460.254	3.19
460.457	3.38
460.66	2.69
460.863	3.33
461.066	3.13
461.269	3.39
461.472	3.13
461.675	3.24
461.878	3.61
462.081	4.15
462.284	4.3
462.486	4.14
462.689	4.11
462.892	4.15
463.095	3.12
463.298	3.14
463.5	3.19
463.703	3.06
463.906	3.12
464.109	2.42
464.311	2.24
464.514	1.76
464.717	1.42
464.92	1.05
465.122	0.98
465.325	1.37
465.528	1.99
465.73	1.93
465.933	2.77
466.135	2.08
466.338	2.78
466.541	2.29
466.743	3
466.946	3.21
467.148	4.04
467.351	4.2
467.553	4.07
467.756	3.82
467.958	3.59
468.161	3.15
468.363	3.23
468.566	2.09
468.768	2.24
468.971	1.94
469.173	2
469.375	1.41
469.578	1.08
469.78	1.34
469.983	0.59
470.185	0.54
470.387	0.78
470.59	1.1
470.792	1.6
470.994	1.46
471.196	0.72
471.399	0.31
471.601	0
471.803	0.86
472.005	0.88
472.208	1.46
472.41	1.55
472.612	1.2
472.814	0.79
473.016	0.23
473.218	0.52
473.421	0.68
473.623	1.32
473.825	1.33
474.027	0.62
474.229	0.5
474.431	0.73
474.633	1.28
474.835	1.99
475.037	2.33
475.239	2.6
475.441	2.76
475.643	2.54
475.845	1.71
476.047	2.22
476.249	2.47
476.451	2.91
476.653	2.84
476.855	3
477.057	2.68
477.258	3
477.46	2.95
477.662	2.92
477.864	3.88
478.066	4.14
478.268	3.78
478.469	3.69
478.671	3.26
478.873	3.31
479.075	3
479.276	3.2
479.478	3.45
479.68	3.53
479.882	3.11
480.083	3.29
480.285	3.37
480.487	3.52
480.688	3.64
480.89	3.35
481.091	3.27
481.293	3.11
481.495	2.95
481.696	2.65
481.898	2.79
482.099	3.04
482.301	2.75
482.502	2.96
482.704	3.08
482.905	2.96
483.107	3.23
483.308	3.13
483.51	3.29
483.711	3.21
483.913	3.2
484.114	3.16
484.315	3.1
484.517	3.19
484.718	3.22
484.92	3.1
485.121	3.13
485.322	3.01
485.524	3.29
485.725	2.94
485.926	3.08
486.127	3.33
486.329	3.27
486.53	3.24
486.731	3
486.932	2.74
487.134	2.73
487.335	2.81
487.536	2.79
487.737	2.76
487.938	3.03
488.139	2.74
488.341	2.63
488.542	2.69
488.743	2.46
488.944	2.5
489.145	2.63
489.346	2.45
489.547	2.5
489.748	2.39
489.949	2.34
490.15	2.25
490.351	2.64
490.552	2.49
490.753	2.58
490.954	2.75
491.155	2.96
491.356	2.86
491.557	2.99
491.758	2.75
491.959	2.91
492.159	2.75
492.36	2.64
492.561	2.53
492.762	2.41
492.963	2.18
493.164	2.4
493.364	2.08
493.565	2.02
493.766	2.15
493.967	2.61
494.167	2.58
494.368	2.74
494.569	2.78
494.769	2.54
494.97	2.56
495.171	2.55
495.371	2.24
495.572	2.24
495.773	2.33
495.973	2.17
496.174	1.69
496.375	1.68
496.575	1.7
496.776	1.87
496.976	1.84
497.177	2.04
497.377	2.16
497.578	2.27
497.778	2.15
497.979	2.03
498.179	2.19
498.38	2.51
498.58	2.17
498.78	2.35
498.981	2.13
499.181	2.78
499.382	2.38
499.582	2.64
499.782	2.48
499.983	2.64
500.183	2.76
500.383	2.74
500.584	2.79
500.784	2.91
500.984	2.73
501.184	2.56
501.385	2.02
501.585	2.61
501.785	2.88
501.985	3.41
502.185	3.51
502.386	3.87
502.586	3.85
502.786	3.89
502.986	4.09
503.186	3.86
503.386	3.69
503.586	3.72
503.786	3.59
503.987	3.09
504.187	2.63
504.387	3.01
504.587	3.05
504.787	3.46
504.987	3.17
505.187	3.39
505.387	3.69
505.587	4.09
505.786	4.23
505.986	4.4
506.186	4.36
506.386	4.66
506.586	4.41
506.786	4.46
506.986	4.66
507.186	5.07
507.386	4.92
507.585	4.82
507.785	5.02
507.985	5.64
508.185	5.6
508.384	5.75
508.584	5.26
508.784	5.32
508.984	4.91
509.183	4.26
509.383	4.29
509.583	4.36
509.782	4.92
509.982	4.72
510.182	4.51
510.381	4.34
510.581	4.23
510.781	4.61
510.98	4.92
511.18	5.44
511.379	5.62
511.579	5.72
511.778	6.16
511.978	5.94
512.177	6.2
512.377	5.93
512.576	5.89
512.776	6.24
512.975	6.23
513.175	6.11
513.374	5.92
513.573	6.14
513.773	5.94
513.972	5.62
514.172	5.61
514.371	5.61
514.57	5.84
514.77	5.77
514.969	5.71
515.168	6.03
515.367	6.25
515.567	6.32
515.766	6.37
515.965	6.07
516.164	5.92
516.364	6.17
516.563	6.39
516.762	6.41
516.961	6.8
517.16	6.98
517.359	7.2
517.559	6.93
517.758	6.89
517.957	7.02
518.156	7.63
518.355	7.96
518.554	7.99
518.753	7.97
518.952	8.13
519.151	8.16
519.35	8.51
519.549	8.45
519.748	8.72
519.947	8.82
520.146	8.95
520.345	8.63
520.544	8.57
520.743	8.63
520.942	9.18
521.141	9.04
521.339	9.32
521.538	8.95
521.737	8.43
521.936	8.77
522.135	9.21
522.333	9.32
522.532	9.76
522.731	10.07
522.93	9.86
523.129	9.26
523.327	9.63
523.526	9.53
523.725	9.39
523.923	9.69
524.122	9
524.321	9.23
524.519	9.55
524.718	9.66
524.917	9.5
525.115	9.56
525.314	9.66
525.512	9.38
525.711	9.44
525.909	9.84
526.108	10.03
526.306	10.24
526.505	10.48
526.703	10.18
526.902	10.07
527.1	10.24
527.299	10.36
527.497	10.5
527.696	10.71
527.894	10.77
528.092	10.76
528.291	10.99
528.489	11.12
528.688	11.01
528.886	11.12
529.084	11.11
529.283	11.21
529.481	11.22
529.679	11.2
529.877	11.23
530.076	11.35
530.274	11.55
530.472	11.22
530.67	11.3
530.869	11.06
531.067	11.08
531.265	11.16
531.463	11.12
531.661	11.31
531.859	11.45
532.057	11.65
532.255	11.59
532.454	11.51
532.652	11.66
532.85	11.69
533.048	11.86
533.246	12.08
533.444	12.29
533.642	12.14
533.84	12.18
534.038	12.33
534.236	12.34
534.434	12.34
534.632	12.67
534.83	12.73
535.027	12.94
535.225	13.12
535.423	13.2
535.621	13.24
535.819	13.69
536.017	14.01
536.215	13.99
536.412	14.13
536.61	14.15
536.808	14.13
537.006	14.38
537.203	14.64
537.401	14.38
537.599	14.67
537.797	14.74
537.994	15
538.192	14.92
538.39	15.07
538.587	14.9
538.785	15.15
538.983	14.83
539.18	14.86
539.378	14.71
539.575	15
539.773	14.53
539.97	14.66
540.168	14.64
540.366	14.54
540.563	14.57
540.761	14.65
540.958	14.72
541.155	14.91
541.353	14.91
541.55	14.88
541.748	14.85
541.945	15.1
542.143	15.07
542.34	14.88
542.537	15.05
542.735	15.05
542.932	14.84
543.129	14.86
543.327	14.91
543.524	14.69
543.721	14.61
543.919	14.56
544.116	14.38
544.313	14.35
544.51	14.52
544.708	14.36
544.905	14.5
545.102	15.09
545.299	15.31
545.496	15.15
545.693	15.48
545.891	15.69
546.088	15.96
546.285	16.08
546.482	16.44
546.679	16.42
546.876	16.67
547.073	16.71
547.27	16.37
547.467	16.09
547.664	16.48
547.861	16.57
548.058	17.16
548.255	17.24
548.452	17.42
548.649	17.67
548.846	17.92
549.043	18.01
549.24	17.82
549.437	18.6
549.633	18.74
549.83	18.29
550.027	18.47
550.224	18.4
550.421	18.46
550.618	18.66
550.814	18.58
551.011	18.49
551.208	18.41
551.405	18.76
551.601	18.13
551.798	18.57
551.995	18.89
552.191	18.49
552.388	17.8
552.585	17.39
552.781	17.53
552.978	17.49
553.175	17.56
553.371	17.45
553.568	17.3
553.764	17.7
553.961	17.51
554.157	17.68
554.354	17.97
554.55	18.61
554.747	19.5
554.943	19.48
555.14	19.48
555.336	19.72
555.533	19.78
555.729	19.93
555.926	19.78
556.122	19.87
556.318	19.58
556.515	20.1
556.711	19.25
556.907	18.97
557.104	18.91
557.3	18.74
557.496	18.66
557.693	18.97
557.889	18.94
558.085	18.8
558.281	18.72
558.478	19.01
558.674	18.63
558.87	18.94
559.066	18.68
559.262	18.79
559.459	19.06
559.655	19.61
559.851	18.93
560.047	18.73
560.243	18.51
560.439	18.73
560.635	18.78
560.831	18.82
561.027	19.22
561.223	19.3
561.419	19.23
561.615	18.88
561.811	18.2
562.007	19.53
562.203	20.18
562.399	20.09
562.595	20.23
562.791	20.16
562.987	20.65
563.183	20.81
563.379	21.03
563.575	20.9
563.771	21.06
563.966	20.83
564.162	20.63
564.358	20.85
564.554	21.27
564.75	20.73
564.945	21.32
565.141	20.7
565.337	20.54
565.533	20.52
565.728	20.55
565.924	20.57
566.12	21.32
566.315	20.37
566.511	20.13
566.707	20.66
566.902	21.25
567.098	20.84
567.293	21.11
567.489	21.51
567.684	21.58
567.88	21.69
568.076	21.61
568.271	21.75
568.467	22.64
568.662	22.66
568.858	22.58
569.053	22.59
569.248	22.28
569.444	22.95
569.639	22.94
569.835	22.74
570.03	23.1
570.225	23.52
570.421	22.72
570.616	22.59
570.812	22.26
571.007	21.87
571.202	22.09
571.397	22.22
571.593	21.55
571.788	21.87
571.983	22.03
572.178	21.86
572.374	21.9
572.569	22.35
572.764	22.43
572.959	22.4
573.154	22.56
573.35	22.41
573.545	22.47
573.74	23.02
573.935	22.37
574.13	22.4
574.325	21.81
574.52	21.51
574.715	21.6
574.91	22.05
575.105	22.12
575.3	22.29
575.495	22.03
575.69	22.02
575.885	21.7
576.08	21.81
576.275	21.91
576.47	22.99
576.665	23
576.86	22.73
577.055	22.17
577.25	22.69
577.444	22.49
577.639	22.89
577.834	23.01
578.029	23.23
578.224	23.51
578.418	24.26
578.613	23.51
578.808	23.9
579.003	24.28
579.197	24.75
579.392	24.99
579.587	25.09
579.781	24.83
579.976	25.02
580.171	25.15
580.365	25.05
580.56	24.3
580.755	24.33
580.949	24.65
581.144	24.48
581.338	23.36
581.533	23
581.727	22.74
581.922	23.19
582.116	23.36
582.311	22.98
582.505	23.07
582.7	23.47
582.894	23.77
583.089	23.19
583.283	23.13
583.478	24.38
583.672	24
583.866	23.87
584.061	23.57
584.255	23.78
584.449	24.17
584.644	23.89
584.838	23.39
585.032	23.49
585.226	23.76
585.421	23.76
585.615	23.17
585.809	23.7
586.003	23.73
586.198	23.55
586.392	23.85
586.586	23.6
586.78	24.03
586.974	23.96
587.168	24.44
587.363	24.44
587.557	25.06
587.751	25.5
587.945	25.56
588.139	26.67
588.333	26.49
588.527	25.75
588.721	25.76
588.915	25.83
589.109	25.98
589.303	26.13
589.497	26.01
589.691	25.55
589.885	25.53
590.079	25.88
590.273	25.38
590.466	25.28
590.66	25.31
590.854	25.43
591.048	25.29
591.242	25.3
591.436	24.35
591.629	24.14
591.823	24.2
592.017	24.58
592.211	23.69
592.404	23.6
592.598	24.41
592.792	24.74
592.986	24.32
593.179	24.56
593.373	25.02
593.567	25.72
593.76	25.88
593.954	25.73
594.147	25.43
594.341	25.83
594.535	26.13
594.728	25.53
594.922	25.55
595.115	25.98
595.309	25.21
595.502	25.06
595.696	24.9
595.889	24.94
596.083	25.12
596.276	25.05
596.47	25.5
596.663	25.5
596.856	25.58
597.05	25.38
597.243	25.31
597.437	25.22
597.63	24.79
597.823	24.78
598.017	25.41
598.21	25.9
598.403	26.68
598.596	26.48
598.79	25.89
598.983	27.01
599.176	27.63
599.369	27.79
599.563	28.83
599.756	29.19
599.949	29.49
600.142	28.53
600.335	28.63
600.528	27.39
600.722	27.39
600.915	27.65
601.108	26.61
601.301	26.7
601.494	26.71
601.687	25.89
601.88	25.8
602.073	25.16
602.266	25.47
602.459	25.41
602.652	25.6
602.845	25.33
603.038	25.75
603.231	25.66
603.424	24.92
603.617	24.52
603.809	25.42
604.002	25.38
604.195	25.25
604.388	25.46
604.581	25.31
604.774	25.52
604.966	25.62
605.159	25.07
605.352	25.35
605.545	25.63
605.737	26.16
605.93	25.4
606.123	25.57
606.316	25.87
606.508	25.62
606.701	25.37
606.894	25.5
607.086	25.4
607.279	24.84
607.471	25.99
607.664	26.53
607.857	25.53
608.049	25.56
608.242	25.78
608.434	26.54
608.627	26.49
608.819	26.61
609.012	26.35
609.204	26.22
609.397	27.21
609.589	26.22
609.782	25.64
609.974	25.65
610.166	25.94
610.359	25.61
610.551	24.87
610.743	25.71
610.936	26.07
611.128	26.4
611.32	26.66
611.513	26.44
611.705	26.78
611.897	27.37
612.09	28.24
612.282	28.58
612.474	29.37
612.666	30.35
612.858	29.74
613.051	28.91
613.243	28.13
613.435	27.77
613.627	28.26
613.819	28.57
614.011	29.02
614.203	29.25
614.395	28.79
614.588	28.04
614.78	27.97
614.972	28.02
615.164	28.94
615.356	29.82
615.548	30.16
615.74	30.07
615.932	28.98
616.124	28.39
616.315	28.57
616.507	28.5
616.699	28.81
616.891	28.25
617.083	27.95
617.275	27.31
617.467	26.49
617.659	26.17
617.85	25.8
618.042	25.94
618.234	26.25
618.426	26.27
618.618	26.66
618.809	26.77
619.001	26.66
619.193	26.51
619.384	26.9
619.576	27.24
619.768	28.24
619.959	28.29
620.151	28.79
620.343	28.13
620.534	28.15
620.726	27.76
620.917	27.93
621.109	29.1
621.301	29.47
621.492	29.23
621.684	29.54
621.875	28.25
622.067	28.56
622.258	27.79
622.45	27.56
622.641	27.68
622.832	28.41
623.024	28.36
623.215	26.81
623.407	25.78
623.598	25.67
623.789	25.54
623.981	25.93
624.172	25.43
624.363	26.22
624.555	26.55
624.746	26.24
624.937	25.92
625.129	25.39
625.32	25.73
625.511	26.52
625.702	26.44
625.893	26.52
626.085	26.71
626.276	26.94
626.467	26.85
626.658	27.08
626.849	26.7
627.04	26.61
627.231	26.72
627.422	27.36
627.614	26.97
627.805	26.93
627.996	26.85
628.187	27.52
628.378	27.18
628.569	26.83
628.76	26.79
628.951	26.96
629.142	27.67
629.332	27.44
629.523	26.83
629.714	26.36
629.905	28.24
630.096	28.18
630.287	28.07
630.478	28.58
630.669	29.03
630.859	28.79
631.05	29.3
631.241	28.94
631.432	29.6
631.623	29.73
631.813	31.19
632.004	30.04
632.195	30.15
632.385	29.71
632.576	29.85
632.767	30.18
632.957	30.42
633.148	30.47
633.339	29.99
633.529	30.34
633.72	30.6
633.91	30.19
634.101	29.7
634.292	30.44
634.482	30.67
634.673	30.2
634.863	29.84
635.054	29.41
635.244	29.08
635.435	29.55
635.625	29.45
635.815	29.84
636.006	30.38
636.196	30.85
636.387	30.07
636.577	30.04
636.767	30.62
636.958	30.7
637.148	31.89
637.338	32.22
637.529	32.38
637.719	32.18
637.909	31.78
638.099	30.48
638.29	30.46
638.48	30.19
638.67	29.8
638.86	29.71
639.05	29.63
639.241	29.39
639.431	29.54
639.621	29
639.811	28.19
640.001	27.86
640.191	28.71
640.381	29.46
640.571	30.24
640.761	30.43
640.951	29.05
641.141	29.66
641.331	29.17
641.521	28.45
641.711	29.05
641.901	30.47
642.091	31.35
642.281	31.32
642.471	29.86
642.661	29.77
642.851	30.97
643.041	32.42
643.231	31.64
643.42	31.28
643.61	31.49
643.8	30.63
643.99	29.45
644.18	29.19
644.369	29.7
644.559	31.03
644.749	30.31
644.939	29.71
645.128	30.25
645.318	30.88
645.508	30.97
645.697	31.58
645.887	32.5
646.076	33.12
646.266	32.75
646.456	32.82
646.645	31.78
646.835	32.71
647.024	31.67
647.214	29.78
647.403	28.54
647.593	30.24
647.782	29.95
647.972	29.74
648.161	29.2
648.351	30.1
648.54	29.95
648.73	30.02
648.919	30.43
649.108	30.71
649.298	31.94
649.487	33.3
649.677	32.44
649.866	32.89
650.055	32.62
650.244	33.33
650.434	33.99
650.623	34.42
650.812	34.81
651.002	34.44
651.191	34.87
651.38	33.8
651.569	32.93
651.758	32.49
651.947	32.07
652.137	32.36
652.326	31.12
652.515	29.97
652.704	28.69
652.893	28.33
653.082	27.81
653.271	27.47
653.46	28.74
653.649	29.83
653.838	30.23
654.027	30.97
654.216	30.43
654.405	32.16
654.594	30.99
654.783	32.27
654.972	32.55
655.161	32.58
655.35	32.94
655.539	33.29
655.728	32.8
655.916	32.38
656.105	31.79
656.294	31.88
656.483	31.62
656.672	32.31
656.86	32.1
657.049	31.72
657.238	31.08
657.427	30.96
657.615	30.77
657.804	30.69
657.993	30.19
658.181	29.32
658.37	29.58
658.559	28.63
658.747	28.96
658.936	28.9
659.125	29.7
659.313	30.12
659.502	29.94
659.69	30.15
659.879	30.82
660.067	30.25
660.256	31.2
660.444	31.38
660.633	32.05
660.821	31.24
661.01	29.98
661.198	29.22
661.387	30.55
661.575	30.15
661.763	29.47
661.952	28.51
662.14	28.09
662.328	27.87
662.517	27.42
662.705	27.41
662.893	27.49
663.082	28.42
663.27	29.15
663.458	27.76
663.646	29.13
663.834	28.99
664.023	29.45
664.211	30.94
664.399	32.09
664.587	32.36
664.775	33.45
664.963	35.38
665.152	36.15
665.34	35.8
665.528	35.84
665.716	36.78
665.904	37.08
666.092	36.5
666.28	37.45
666.468	36.31
666.656	37.18
666.844	36.47
667.032	35.43
667.22	34.16
667.408	33.56
667.596	33.46
667.784	32.38
667.971	33.04
668.159	33.12
668.347	32.79
668.535	32.93
668.723	33.05
668.911	32.95
669.098	32.34
669.286	33.49
669.474	34.82
669.662	34.55
669.849	33.97
670.037	31.22
670.225	32.07
670.413	32.97
670.6	33.13
670.788	33.04
670.976	33.15
671.163	33.04
671.351	32.87
671.538	32.68
671.726	34.57
671.913	34.81
672.101	37.93
672.289	37.75
672.476	36.81
672.664	36.31
672.851	35.96
673.039	35.02
673.226	35.69
673.413	35.08
673.601	35.38
673.788	32.93
673.976	32.86
674.163	33.26
674.35	33.19
674.538	33.61
674.725	34.53
674.912	34.45
675.1	35.43
675.287	35.31
675.474	35.27
675.662	33.3
675.849	33.51
676.036	33.33
676.223	30.67
676.411	30.66
676.598	30.4
676.785	29.39
676.972	29.39
677.159	29.32
677.346	29.25
677.533	30.2
677.721	30.48
677.908	30.93
678.095	31.96
678.282	33.12
678.469	32.38
678.656	31.66
678.843	33.14
679.03	33.15
679.217	33.41
679.404	33.98
679.591	33.47
679.778	34.59
679.964	34.71
680.151	34.5
680.338	34.81
680.525	34.39
680.712	34.88
680.899	34.18
681.086	33.75
681.272	33.22
681.459	31.55
681.646	32.23
681.833	31.42
682.02	32.28
682.206	31.36
682.393	30.73
682.58	31.65
682.766	32.11
682.953	31.93
683.14	32.27
683.326	32.7
683.513	34.23
683.7	33.22
683.886	32.55
684.073	32.35
684.259	34.01
684.446	34.12
684.632	34.45
684.819	33.64
685.005	33.82
685.192	34.24
685.378	35.26
685.565	35.89
685.751	37.33
685.938	38.75
686.124	38.86
686.31	38.52
686.497	38.47
686.683	38.51
686.87	39.43
687.056	39.55
687.242	39.52
687.429	38.1
687.615	36.02
687.801	33.92
687.987	32.02
688.174	32.21
688.36	31.22
688.546	32.27
688.732	32.68
688.918	33.1
689.105	32.95
689.291	33.17
689.477	33.67
689.663	35.01
689.849	36
690.035	37.06
690.221	36.79
690.407	37.01
690.593	37.12
690.779	37.49
690.965	35.92
691.151	37.51
691.337	36.85
691.523	37.09
691.709	36.87
691.895	37.94
692.081	37.85
692.267	37.44
692.453	37.63
692.639	38.84
692.825	37.97
693.011	39.32
693.196	37.55
693.382	36.75
693.568	36.35
693.754	35.92
693.94	35.47
694.125	37.12
694.311	37.14
694.497	37.38
694.682	35.15
694.868	34.18
695.054	33.28
695.239	33.25
695.425	34.02
695.611	35.04
695.796	34.89
695.982	35.07
696.168	33.71
696.353	32.41
696.539	32.71
696.724	32.81
696.91	32.95
697.095	33.4
697.281	33.29
697.466	33.68
697.652	33.95
697.837	34.56
698.023	33.58
698.208	34.47
698.393	34.48
698.579	34.39
698.764	33.78
698.949	34.07
699.135	33.4
699.32	33.49
699.505	32.96
699.691	31.26
699.876	31.22
700.061	33.65
700.246	33.54
700.432	34.38
700.617	34.97
700.802	34.98
700.987	35.56
701.172	35.75
701.358	35.84
701.543	36.37
701.728	37.13
701.913	35.94
702.098	33.08
702.283	31.24
702.468	31.62
702.653	33.14
702.838	34.74
703.023	31.74
703.208	32.97
703.393	32.97
703.578	34.01
703.763	36.01
703.948	38.18
704.133	38.55
704.318	40.27
704.503	40.96
704.688	39.06
704.873	37.95
705.057	40.56
705.242	38.61
705.427	39.26
705.612	38.69
705.797	37.56
705.981	37.68
706.166	37.5
706.351	34.92
706.536	34.93
706.72	34.05
706.905	34.11
707.09	33.27
707.274	34.37
707.459	33.3
707.644	34.23
707.828	33.66
708.013	33.62
708.197	34.31
708.382	35.36
708.567	33.67
708.751	33.21
708.936	35.56
709.12	35.91
709.305	36.94
709.489	37.55
709.673	36.51
709.858	37.31
710.042	35.34
710.227	34.51
710.411	35.06
710.596	37
710.78	37.91
710.964	36.45
711.149	37.3
711.333	37.16
711.517	37.65
711.702	37.82
711.886	36.26
712.07	37.05
712.254	37.16
712.438	36.36
712.623	35.01
712.807	34.85
712.991	35.58
713.175	34.96
713.359	33.23
713.544	33.81
713.728	32.85
713.912	35.15
714.096	35.31
714.28	36.42
714.464	37.6
714.648	36.97
714.832	36.82
715.016	36.35
715.2	37.56
715.384	37.81
715.568	38.37
715.752	38.57
715.936	37.08
716.12	37.31
716.304	36.04
716.488	35.94
716.671	36.42
716.855	34.28
717.039	34.88
717.223	33.4
717.407	33.92
717.59	33.19
717.774	33.99
717.958	34.98
718.142	34.91
718.325	37.32
718.509	35.26
718.693	34.84
718.877	37.67
719.06	36.27
719.244	39.59
719.428	40.71
719.611	38.32
719.795	38.04
719.978	37.76
720.162	39.44
720.345	39.86
720.529	42.89
720.713	43.32
720.896	43.54
721.08	44.25
721.263	40.93
721.446	41.2
721.63	42.31
721.813	43.03
721.997	43.88
722.18	41.73
722.364	39.37
722.547	38.43
722.73	41.55
722.914	42.28
723.097	42.64
723.28	43.13
723.464	42.46
723.647	42.35
723.83	42.37
724.013	38.14
724.197	35.25
724.38	34.68
724.563	34.72
724.746	31.64
724.929	30.67
725.112	29.21
725.296	30.7
725.479	32.07
725.662	33.33
725.845	34.1
726.028	37.11
726.211	41.28
726.394	41.43
726.577	43.45
726.76	44.74
726.943	45.99
727.126	47.68
727.309	44.19
727.492	42.23
727.675	40.33
727.858	39.83
728.041	38.68
728.224	35.43
728.407	36.62
728.589	35.73
728.772	36.49
728.955	37.08
729.138	35.36
729.321	37.48
729.503	38.95
729.686	41.3
729.869	38.46
730.052	40.07
730.234	41.9
730.417	43.55
730.6	42.38
730.782	40.61
730.965	40.04
731.148	39.56
731.33	39.87
731.513	39.61
731.695	39.61
731.878	39.94
732.061	38.11
732.243	37.41
732.426	34
732.608	33.18
732.791	33.43
732.973	33.09
733.156	35.61
733.338	35.86
733.52	34.06
733.703	31.51
733.885	34.27
734.068	37.38
734.25	38.8
734.432	41.66
734.615	42.49
734.797	42.53
734.979	42.75
735.162	42.39
735.344	43.25
735.526	44.37
735.708	46.49
735.891	44.41
736.073	43.91
736.255	43
736.437	40.53
736.619	39.77
736.802	40.61
736.984	41.87
737.166	42.93
737.348	38.75
737.53	36.71
737.712	35.33
737.894	35.41
738.076	32.79
738.258	33.09
738.44	34.57
738.622	33.27
738.804	32.96
738.986	30.17
739.168	28.25
739.35	31.37
739.532	31.91
739.714	34.06
739.896	34.64
740.078	37.4
740.259	38.18
740.441	37.59
740.623	39.41
740.805	42.02
740.987	40.92
741.168	40.55
741.35	36.2
741.532	36.04
741.714	35.04
741.895	37.47
742.077	37.19
742.259	37.47
742.44	37.6
742.622	38.76
742.804	37.76
742.985	38.75
743.167	38.36
743.348	44.83
743.53	50.81
743.711	50.63
743.893	48.78
744.075	51.06
744.256	54
744.438	55.05
744.619	52.34
744.8	51.25
744.982	52.09
745.163	54.19
745.345	51.8
745.526	48.24
745.707	46.96
745.889	44.85
746.07	43.84
746.252	42.47
746.433	42.44
746.614	45.3
746.795	45.64
746.977	42.38
747.158	40.96
747.339	39.91
747.52	41.5
747.702	42.41
747.883	41.61
748.064	40.45
748.245	40.2
748.426	39.24
748.607	39.18
748.788	32.7
748.97	36.59
749.151	35.01
749.332	34.58
749.513	33.72
749.694	29.69
749.875	31.2
750.056	33.33
750.237	30.51
750.418	31.85
750.599	31.09
750.78	35.77
750.96	36.41
751.141	36.34
751.322	35.83
751.503	33.65
751.684	38.27
751.865	39.59
752.046	38.14
752.226	39.99
752.407	40.94
752.588	43.98
752.769	47.57
752.949	45.08
753.13	46.24
753.311	46.89
753.492	48.93
753.672	47.18
753.853	48.6
754.034	43.31
754.214	42.51
754.395	40.9
754.575	39.74
754.756	38.33
754.937	39.66
755.117	42.67
755.298	43.95
755.478	45.92
755.659	45.11
755.839	43.24
756.02	46.56
756.2	45.59
756.381	44.76
756.561	42.83
756.741	40.77
756.922	42.84
757.102	42.21
757.283	38.89
757.463	40.91
757.643	39.27
757.823	40.52
758.004	42.51
758.184	38.45
758.364	40.43
758.545	39.52
758.725	37.24
758.905	37.54
759.085	38.74
759.265	42.36
759.446	38.26
759.626	38.44
759.806	36.45
759.986	36.01
760.166	38.68
760.346	38.33
760.526	40
760.706	43.99
760.886	42.16
761.066	39.65
761.246	39.18
761.426	40.9
761.606	42.06
761.786	44.67
761.966	42.69
762.146	45.35
762.326	42.22
762.506	43.24
762.686	43.22
762.866	41.17
763.046	43.03
763.225	42.72
763.405	41.99
763.585	43.77
763.765	43.09
763.945	44.52
764.124	43.75
764.304	46.81
764.484	46.45
764.664	45.03
764.843	47.32
765.023	46.2
765.203	46.91
765.382	48.08
765.562	45.03
765.741	45.42
765.921	47.65
766.101	44.54
766.28	43.46
766.46	43.03
766.639	43.84
766.819	43.18
766.998	44.53
767.178	43.8
767.357	48.17
767.537	50.33
767.716	48.53
767.896	45.88
768.075	51.77
768.254	51.67
768.434	52.93
768.613	50.26
768.792	48.58
768.972	47.95
769.151	49.88
769.33	48
769.51	50.56
769.689	53.66
769.868	55.83
770.047	52.91
770.226	54.02
770.406	51.14
770.585	55.75
770.764	58.72
770.943	58.29
771.122	54.75
771.301	50.04
771.48	46.76
771.66	46.11
771.839	45.66
772.018	46.69
772.197	48.54
772.376	49.44
772.555	44.04
772.734	43.91
772.913	42.69
773.092	44.23
773.271	45.36
773.449	49.85
773.628	47.42
773.807	43.65
773.986	46.6
774.165	44.26
774.344	42.65
774.523	43.41
774.701	48.31
774.88	50.83
775.059	53.44
775.238	55.68
775.417	58.01
775.595	55.95
775.774	56
775.953	51.64
776.131	49.81
776.31	48.21
776.489	48.96
776.667	41.33
776.846	40.21
777.025	38.56
777.203	35.99
777.382	31.73
777.56	33.99
777.739	38.43
777.917	42.13
778.096	43.91
778.274	46.63
778.453	53.14
778.631	54.49
778.81	51.64
778.988	53.77
779.166	55.12
779.345	54.84
779.523	56.59
779.702	58.42
779.88	56.33
780.058	57.87
780.237	62.12
780.415	61.85
780.593	62.47
780.771	65.93
780.95	66.34
781.128	67.48
781.306	65.4
781.484	61.88
781.662	56.89
781.841	57.23
782.019	60.11
782.197	56.69
782.375	55.18
782.553	55.16
782.731	55.9
782.909	50.97
783.087	48.97
783.265	56.41
783.443	56.31
783.621	56.23
783.799	51.56
783.977	49.89
784.155	49.99
784.333	48.81
784.511	51.34
784.689	48.03
784.867	50.39
785.045	49.35
785.223	42.51
785.4	47.9
785.578	45.38
785.756	50.48
785.934	47.51
786.112	50.2
786.289	50.28
786.467	46.26
786.645	49.04
786.823	52.09
787	51.57
787.178	54.41
787.356	50.54
787.533	57.61
787.711	56.56
787.889	55.33
788.066	52.26
788.244	53.28
788.421	55.28
788.599	52.69
788.776	49.7
788.954	52.55
789.131	53.82
789.309	49.46
789.486	44.77
789.664	48.89
789.841	51
790.019	51.73
790.196	50.16
790.373	47.82
790.551	48.41
790.728	58.38
790.906	55.48
791.083	52.15
791.26	59.1
791.437	54.1
791.615	50.27
791.792	49.98
791.969	48.21
792.146	50.94
792.324	51.45
792.501	52.1
792.678	45.42
792.855	45.52
793.032	43.04
793.209	41.26
793.387	43.82
793.564	46.87
793.741	51.36
793.918	54.28
794.095	53.79
794.272	53.12
794.449	50.68
794.626	50.9
794.803	47.43
794.98	48.95
795.157	49.43
795.334	50.27
795.511	45.85
795.688	40.53
795.864	42.71
796.041	41.84
796.218	43.05
796.395	47.66
796.572	43.73
796.749	43.87
796.925	43.02
797.102	46.01
797.279	45.65
797.456	45.08
797.632	47.59
797.809	42.24
797.986	42.29
798.162	45.45
798.339	41.22
798.516	47.83
798.692	47.8
798.869	53.84
799.046	53.24
799.222	53.05
799.399	53.92
799.575	51.68
799.752	47.38
799.928	43.75
800.105	41.13
800.281	43.4
800.458	38.46
800.634	42.83
800.811	35.26
800.987	31.27
801.163	36.14
801.34	38.96
801.516	40.46
801.692	46.05
801.869	50.48
802.045	50.21
802.221	51.7
802.398	50.41
802.574	46.01
802.75	49.91
802.926	50.38
803.103	42.25
803.279	43.04
803.455	46.87
803.631	50.36
803.807	47.72
803.983	55.13
804.16	46.17
804.336	50.49
804.512	63.34
804.688	63.79
804.864	67.44
805.04	74.16
805.216	77.85
805.392	72.28
805.568	67.5
805.744	68.87
805.92	51.81
806.096	58.01
806.272	52.61
806.448	45.18
806.623	40.33
806.799	49.71
806.975	46.56
807.151	41.42
807.327	46.39
807.503	48.83
807.678	50.16
807.854	54.01
808.03	56.99
808.206	62.16
808.381	68.84
808.557	74.58
808.733	68.57
808.908	73.59
809.084	82.2
809.26	76.44
809.435	77.01
809.611	74.57
809.787	69.18
809.962	65.05
810.138	65.82
810.313	49.71
810.489	47.9
810.664	40.14
810.84	35.17
811.015	28.66
811.191	37.81
811.366	46.23
811.542	48.63
811.717	57.78
811.892	62.88
812.068	64.49
812.243	71.58
812.419	70.61
812.594	68
812.769	75.77
812.944	80.03
813.12	75.45
813.295	66.26
813.47	64.17
813.645	58.02
813.821	53.92
813.996	51.14
814.171	52.34
814.346	61.46
814.521	62.41
814.697	51.08
814.872	53.12
815.047	55.25
815.222	62.12
815.397	67.24
815.572	69.1
815.747	62.71
815.922	61.72
816.097	61.99
816.272	53.85
816.447	57.17
816.622	59.68
816.797	56.07
816.972	52.26
817.147	50.82
817.322	46.06
817.496	50.63
817.671	47.94
817.846	52.24
818.021	45.75
818.196	53.13
818.371	53.61
818.545	55.68
818.72	52.34
818.895	49.31
819.069	46.84
819.244	43.44
819.419	35.96
819.594	41.16
819.768	35.45
819.943	37.85
820.117	31.07
820.292	28.48
820.467	31.69
820.641	31.39
820.816	32.5
820.99	32.83
821.165	32.37
821.339	32.34
821.514	32.07
821.688	31.82
821.863	32.01
822.037	33.16
822.212	33.79
822.386	31.59
822.56	32.18
822.735	31.3
822.909	30.83
823.084	31.49
823.258	30.95
823.432	31.44
823.606	30.38
823.781	29.78
823.955	29.42
824.129	28.55
824.303	29.37
824.478	30.36
824.652	31.48
824.826	31.36
825	31.29
825.174	32.7
825.348	31.02
825.523	35.32
825.697	34.87
825.871	37.72
826.045	37.74
826.219	36.22
826.393	33.49
826.567	34.77
826.741	33.46
826.915	33.93
827.089	32.65
827.263	33.23
827.437	30.91
827.611	31.5
827.784	26.59
827.958	25.83
828.132	25.89
828.306	28.86
828.48	23.94
828.654	25.65
828.827	24.67
829.001	22.69
829.175	27.45
829.349	29.72
829.522	24.74
829.696	32.56
829.87	37.51
830.044	42.38
830.217	41.28
830.391	45.73
830.565	51.15
830.738	51.23
830.912	54.13
831.085	48.69
831.259	49.48
831.432	54.17
831.606	47.11
831.779	45.3
831.953	45.69
832.126	49.47
832.3	45.68
832.473	36.19
832.647	32.13
832.82	30.6
832.994	27.85
833.167	30.06
833.34	27.1
833.514	26.91
833.687	25.98
833.86	24.3
834.034	19.03
834.207	22.12
834.38	25.59
834.553	27.16
834.727	28.18
834.9	28.14
835.073	26.97
835.246	30.44
835.419	30.5
835.593	29.26
835.766	33.28
835.939	38.5
836.112	37.35
836.285	39.73
836.458	43.41
836.631	45.92
836.804	46.92
836.977	49.98
837.15	49.26
837.323	53.4
837.496	64
837.669	48
837.842	49.64
838.015	57.52
838.188	53.05
838.361	45.8
838.533	39.71
838.706	51.4
838.879	53.31
839.052	49.82
839.225	42.85
839.398	37.58
839.57	49.21
839.743	44.18
839.916	44.68
840.088	40.42
840.261	41.96
840.434	51.09
840.607	53.82
840.779	49.16
840.952	45.97
841.124	52.75
841.297	56.23
841.47	57.51
841.642	55.7
841.815	53.28
841.987	53.76
842.16	59.41
842.332	50.82
842.505	30.1
842.677	36.35
842.85	42.04
843.022	35.59
843.194	-1.76
843.367	-8.11
843.539	-16.67
843.712	1.28
843.884	-21.98
844.056	-30.71
844.229	-40.89
844.401	-35.02
844.573	-73.96
844.745	-53.77
844.918	-25.85
845.09	-0.36
845.262	-4
845.434	7.29
845.606	-63.19
845.779	-9.73
845.951	113.9
846.123	147.34
846.295	139.03
846.467	136.48
846.639	125.73
846.811	297.75
846.983	165.14
847.155	231.65
847.327	103.5
847.499	115.36
847.671	131.42
847.843	111.71
848.015	129.57
848.187	124.01
848.359	390.59
848.531	-326.51
848.703	443.13
848.875	-1087.76
849.047	1322.35
849.218	-762.01
849.39	-75.7
849.562	-58.89
849.734	-44.84
849.905	-39.84
850.077	-160.33
850.249	719.07
850.421	783.11
850.592	-791.53
850.764	422.61
850.936	337.82
851.107	128.26
851.279	118.45
851.451	86.61
851.622	90.53
851.794	77.53
851.965	54.09
852.137	89.87
852.308	100.02
852.48	99.42
852.651	89.34
852.823	119.25
852.994	185.79
853.166	217.82
853.337	294.21
853.509	268.92
853.68	-3510
853.851	285.72
854.023	216.02
854.194	190.38
854.365	243.93
854.537	151.64
854.708	110.32
854.879	87.3
855.05	98.73
855.222	93.15
855.393	180.74
855.564	388.94
855.735	-250.67
855.906	-445.91
856.078	-12.38
856.249	-75.71
856.42	-12117.86
856.591	588.68
856.762	4327.63
856.933	517.03
857.104	1274.33
857.275	255.62
857.446	167.47
857.617	145.65
857.788	132.6
857.959	135.58
858.13	143.19
858.301	215.6
858.472	251.06
858.643	190.05
858.814	237.01
858.985	138.17
859.155	223.57
859.326	238.29
859.497	758.49
859.668	-220.94
859.839	-63.11
860.009	5.35
860.18	118.75
860.351	21.14
860.522	-47.12
860.692	-36.04
860.863	-5.06
861.034	-8.69
861.204	45.46
861.375	71.74
861.546	62.8
861.716	82.92
861.887	8.82
862.057	3692
862.228	135.63
862.398	306.05
862.569	189.86
862.739	284.52
862.91	187.96
863.08	147.1
863.251	110.97
863.421	97.67
863.592	105.07
863.762	92.29
863.932	82.62
864.103	64.33
864.273	26.49
864.443	-94.99
864.614	32.29
864.784	35.66
864.954	72.91
865.125	167.89
865.295	118.63
865.465	89.76
865.635	80.97
865.805	75.27
865.976	74.07
866.146	56.91
866.316	66.95
866.486	62.04
866.656	62.92
866.826	51.64
866.996	70.04
867.166	171.24
867.336	206.87
867.506	1158.1
867.676	-27.08
867.846	4.89
868.016	-2.56
868.186	-0.41
868.356	0.25
868.526	-24.36
868.696	-72.17
868.866	-18
869.036	-122.55
869.206	-160.38
869.376	-182.8
869.545	324.15
869.715	171.37
869.885	111.38
870.055	110.79
870.224	122.79
870.394	106.52
870.564	74.34
870.734	87.89
870.903	55.4
871.073	65.33
871.243	82.02
871.412	94.9
871.582	202.41
871.751	211.3
871.921	250.16
872.091	282.63
872.26	297.35
872.43	339.31
872.599	271.88
872.769	199.85
872.938	207.33
873.108	172.17
873.277	157.22
873.446	95.04
873.616	126.64
873.785	97.4
873.955	96.66
874.124	79.7
874.293	78.96
874.463	91.61
874.632	68.78
874.801	72
874.971	31.87
875.14	-20.46
875.309	-46.53
875.478	-68.13
875.647	-41.91
875.817	-14.37
875.986	14.71
876.155	39.52
876.324	14.63
876.493	22.31
876.662	45.95
876.831	39.47
877	52.8
877.17	63.3
877.339	52.85
877.508	58.05
877.677	45.35
877.846	60.13
878.015	40.15
878.184	40.5
878.352	66.16
878.521	25.17
878.69	51.29
878.859	68.27
879.028	65.31
879.197	77
879.366	59.02
879.534	65.99
879.703	36.35
879.872	34.52
880.041	20.29
880.21	12.73
880.378	16.93
880.547	14.33
880.716	7.31
880.884	9.87
881.053	8.37
881.222	10.95
881.39	11.8
881.559	18.24
881.727	18.19
881.896	24.1
882.065	22.8
882.233	25.32
882.402	25.61
882.57	22.61
882.739	21.24
882.907	24.11
883.076	24.89
883.244	24.5
883.412	21.63
883.581	20.81
883.749	21.46
883.918	24.9
884.086	20.94
884.254	27.36
884.423	35.37
884.591	33.7
884.759	31.74
884.927	30.27
885.096	25.95
885.264	22.34
885.432	25.51
885.6	23.61
885.769	22.86
885.937	33.21
886.105	15.5
886.273	15.09
886.441	15.02
886.609	8.5
886.777	13.18
886.945	29.62
887.113	30.4
887.281	13.23
887.449	15.06
887.617	27.27
887.785	-2.09
887.953	-5.09
888.121	-73.93
888.289	-91.28
888.457	-105.31
888.625	-123.29
888.793	-200.66
888.961	-237.97
889.129	-17.6
889.296	-12.72
889.464	-40.78
889.632	-31.04
889.8	-7.58
889.967	41.06
890.135	57.79
