Data from JASIL_3051_Reflection_01.txt Node
Date: Mon Nov 09 11:19:35 EST 2015
User: Geneva
Spectrometer: USB4E03002
Autoset integration time: false
Trigger mode: 4
Integration Time (sec): 1.000000E-1
Scans to average: 10
Electric dark correction enabled: false
Nonlinearity correction enabled: false
Boxcar width: 5
Stray light correction enabled: false
XAxis mode: Wavelengths
Stop averaging: false
Number of Pixels in Spectrum: 3648
>>>>>Begin Spectral Data<<<<<
177.575	309.85
177.794	4600
178.014	-40400
178.233	-618.87
178.452	-381.82
178.672	-2023.53
178.891	769.44
179.11	294.52
179.33	242.19
179.549	-392.31
179.768	-584.37
179.987	-54.88
180.207	-1714.29
180.426	585.29
180.645	217.82
180.864	281.38
181.084	362.5
181.303	-63100
181.522	-589.42
181.741	-797.37
181.96	-287.04
182.179	-112.96
182.398	-145.53
182.618	-82.67
182.837	-94.4
183.056	-69.2
183.275	-55.8
183.494	-10.63
183.713	-2.79
183.932	-12.6
184.151	-17.08
184.37	-91.41
184.589	596.61
184.808	353.64
185.027	437.08
185.246	473.03
185.465	425.23
185.684	-617.65
185.903	-783.33
186.122	-131.43
186.341	-250.76
186.56	-225.54
186.779	-132.51
186.998	-36.68
187.216	-11.09
187.435	-7.95
187.654	22.45
187.873	29.16
188.092	24.18
188.311	16.22
188.53	-27.44
188.748	-18.88
188.967	20.4
189.186	-15.06
189.405	-58.78
189.623	-243.09
189.842	-143.9
190.061	-171.17
190.28	-244.44
190.498	-231.56
190.717	-235.12
190.936	-165.33
191.154	-219.32
191.373	-11233.33
191.592	33900
191.81	-427.5
192.029	19.23
192.248	-225.27
192.466	68.29
192.685	-9.09
192.904	126.32
193.122	-109.09
193.341	-100
193.559	731.58
193.778	28.95
193.996	280
194.215	37.24
194.433	876.19
194.652	1538.1
194.87	92.77
195.089	-82.76
195.307	20.97
195.526	2414.29
195.744	72.73
195.963	-5500
196.181	-253.16
196.399	-147.44
196.618	-271.97
196.836	-127.68
197.055	-41.88
197.273	-129.7
197.491	-181.65
197.71	-163.78
197.928	-233.04
198.146	-223.46
198.365	-78.41
198.583	-201.46
198.801	-541.38
199.019	-49.02
199.238	-52.74
199.456	1.26
199.674	1.81
199.892	-15.88
200.111	-367.86
200.329	31.91
200.547	119.15
200.765	-13.33
200.983	76.62
201.202	129.17
201.42	179.25
201.638	14.06
201.856	84.14
202.074	56.37
202.292	71.08
202.51	-12.82
202.728	115.91
202.946	208.59
203.165	156.57
203.383	341.67
203.601	354.46
203.819	322.86
204.037	290.87
204.255	220.71
204.473	602.41
204.691	1292.68
204.909	-1815.63
205.127	591.38
205.345	452.94
205.562	255.97
205.78	581.48
205.998	-726.32
206.216	-117.07
206.434	90.48
206.652	66.39
206.87	40
207.088	99.31
207.306	387.5
207.523	58.1
207.741	65.25
207.959	98.66
208.177	60.67
208.395	623.08
208.612	-57.6
208.83	-194.37
209.048	-98.28
209.266	-103.17
209.483	-339.34
209.701	455.88
209.919	-93.29
210.136	-77.78
210.354	-150.63
210.572	-210.48
210.79	-165.79
211.007	179.67
211.225	-68.13
211.442	-160.25
211.66	-30.29
211.878	-1.76
212.095	410.36
212.313	1080.82
212.53	560.9
212.748	684.56
212.966	823.58
213.183	-674.8
213.401	2516.22
213.618	-647.79
213.836	-281.79
214.053	-184.21
214.271	-183.29
214.488	44.34
214.705	63.81
214.923	36.08
215.14	60.4
215.358	46.35
215.575	52.63
215.793	54.05
216.01	46.23
216.227	56.65
216.445	16.55
216.662	-130.05
216.879	-279.84
217.097	-253.53
217.314	-158.05
217.531	610
217.749	397.53
217.966	164.29
218.183	239.47
218.4	653.52
218.618	-16200
218.835	-343.04
219.052	-320.83
219.269	-181.97
219.487	-13.85
219.704	-205.83
219.921	-288.39
220.138	579.52
220.355	-5387.5
220.572	-7633.33
220.79	-381.93
221.007	431.34
221.224	297.08
221.441	570.67
221.658	417.39
221.875	106.79
222.092	217.09
222.309	162.07
222.526	2888.89
222.743	551.52
222.96	-28.26
223.177	475
223.394	119.23
223.611	38.37
223.828	56.18
224.045	-21.05
224.262	-256.25
224.479	333.96
224.696	-947.37
224.913	66.17
225.13	89.29
225.347	81.23
225.564	83.75
225.781	108.29
225.997	79.66
226.214	82.52
226.431	55.43
226.648	32.95
226.865	19.6
227.082	1.28
227.298	7.99
227.515	6.28
227.732	-7.81
227.949	-6.77
228.165	-2.42
228.382	-0.88
228.599	-7.07
228.816	-4.62
229.032	-4.83
229.249	3.4
229.466	16.87
229.682	7.91
229.899	4.84
230.116	12.32
230.332	21.86
230.549	2.22
230.765	26.75
230.982	1.05
231.199	19.3
231.415	0.16
231.632	-19.76
231.848	2.9
232.065	12.2
232.281	22.08
232.498	28.96
232.714	13.68
232.931	32.56
233.147	21.19
233.364	39.57
233.58	30.98
233.797	50.19
234.013	38.98
234.23	29.54
234.446	30.22
234.662	36.31
234.879	39.95
235.095	48.51
235.312	46.94
235.528	38.56
235.744	33.81
235.961	25.37
236.177	3.2
236.393	22.42
236.61	39.84
236.826	39.92
237.042	30.55
237.258	26.56
237.475	19.78
237.691	5.42
237.907	10.85
238.123	21.62
238.339	28.27
238.556	24.38
238.772	32.11
238.988	21.45
239.204	17.81
239.42	22.12
239.636	7.8
239.853	15.08
240.069	13.38
240.285	14.5
240.501	13.01
240.717	12.22
240.933	9.38
241.149	1.77
241.365	2.71
241.581	3
241.797	2.43
242.013	6
242.229	4.23
242.445	12.47
242.661	10.46
242.877	9.3
243.093	7.45
243.309	6.66
243.525	14.41
243.741	10.43
243.957	11.74
244.173	11.98
244.388	14.91
244.604	13.65
244.82	6.75
245.036	7.15
245.252	7.12
245.468	7.77
245.683	9.13
245.899	5.25
246.115	4.85
246.331	3.54
246.547	3.42
246.762	0.99
246.978	1.09
247.194	0.45
247.409	0.51
247.625	-1.47
247.841	-4.21
248.057	-6.37
248.272	-7.53
248.488	-8.99
248.703	-7.77
248.919	-17.47
249.135	-20.16
249.35	-31.53
249.566	-22.4
249.782	-24.86
249.997	-15.91
250.213	-14.7
250.428	-13.35
250.644	-7.6
250.859	-0.79
251.075	-2.42
251.29	-0.32
251.506	4.16
251.721	10.9
251.937	6.46
252.152	7.94
252.368	3.17
252.583	9.63
252.798	14.24
253.014	15.94
253.229	13.4
253.445	13.25
253.66	15.45
253.875	14.16
254.091	1.05
254.306	-5.69
254.521	-12.09
254.737	-6.77
254.952	-14.92
255.167	-11.36
255.383	-28.21
255.598	-25.53
255.813	-25.84
256.028	-22.31
256.244	-23.24
256.459	-13.74
256.674	0.5
256.889	3.1
257.104	0.91
257.32	1.75
257.535	-2.08
257.75	2.09
257.965	2.56
258.18	3.24
258.395	3.71
258.61	5.89
258.826	5.7
259.041	5.15
259.256	4.23
259.471	6.77
259.686	9.64
259.901	13.67
260.116	14.91
260.331	13.6
260.546	12.72
260.761	13.81
260.976	13.06
261.191	11.36
261.406	8.47
261.621	10.79
261.836	7.99
262.05	4.4
262.265	0.91
262.48	0.57
262.695	4.42
262.91	4.04
263.125	5.25
263.34	2.77
263.555	7.28
263.769	6.41
263.984	3.83
264.199	3.38
264.414	1.9
264.629	-5.67
264.843	-5.29
265.058	-3.26
265.273	3.22
265.488	2.18
265.702	3.76
265.917	0.27
266.132	4.32
266.346	3.6
266.561	2.19
266.776	5.07
266.99	8.21
267.205	6.77
267.42	6.31
267.634	3.8
267.849	1.69
268.063	2.85
268.278	6.75
268.492	5.38
268.707	7.4
268.922	10.71
269.136	7.91
269.351	7.21
269.565	10.54
269.78	10.49
269.994	8.44
270.209	12.5
270.423	10.77
270.637	9.94
270.852	5.73
271.066	4.6
271.281	4.54
271.495	4.71
271.709	5.22
271.924	4.34
272.138	2.72
272.353	2.65
272.567	-0.8
272.781	0.16
272.996	0.08
273.21	3.96
273.424	5.27
273.638	3.12
273.853	1.45
274.067	-0.05
274.281	2.67
274.495	2.67
274.71	2.97
274.924	6.26
275.138	3.88
275.352	3.42
275.566	2.41
275.781	1.32
275.995	6.09
276.209	7.89
276.423	8.74
276.637	7.97
276.851	10.4
277.065	14.02
277.279	9.78
277.493	14.89
277.707	10.12
277.921	7.68
278.135	7.69
278.349	3.87
278.563	1.37
278.777	4.28
278.991	4.45
279.205	-0.74
279.419	-4.54
279.633	-4.08
279.847	-7.34
280.061	0.38
280.275	4.35
280.489	6.03
280.703	9.07
280.917	13.49
281.131	11.79
281.344	9.46
281.558	10.18
281.772	10.26
281.986	9.82
282.2	10.83
282.414	10.17
282.627	6.7
282.841	4.4
283.055	3.42
283.269	2.55
283.482	2.81
283.696	2.68
283.91	4.59
284.123	5.68
284.337	5.14
284.551	5.59
284.764	3.77
284.978	5.12
285.192	7.89
285.405	5.13
285.619	4.8
285.833	0.92
286.046	0.34
286.26	-0.44
286.473	-1.68
286.687	-0.21
286.9	-3.04
287.114	-2.51
287.327	-4.04
287.541	-4.31
287.754	-3.8
287.968	-3.68
288.181	1.28
288.395	3.49
288.608	4.35
288.822	6.1
289.035	9.31
289.248	7.22
289.462	7.07
289.675	7.98
289.889	7.27
290.102	8.55
290.315	8.05
290.529	9.87
290.742	8.39
290.955	7.99
291.169	4.75
291.382	2.97
291.595	7.78
291.808	9.72
292.022	10.56
292.235	8.68
292.448	9.05
292.661	5.91
292.875	0.22
293.088	0.95
293.301	0.67
293.514	3.42
293.727	4.08
293.94	3.04
294.153	-0.44
294.367	-0.31
294.58	0.13
294.793	-0.88
295.006	1.83
295.219	4.15
295.432	4.13
295.645	4.08
295.858	2.93
296.071	1.03
296.284	2.86
296.497	4.16
296.71	2.53
296.923	2.08
297.136	1
297.349	0.85
297.562	0.26
297.775	-0.55
297.988	-1.26
298.201	-0.77
298.414	0.45
298.626	-2.12
298.839	-3.13
299.052	0.55
299.265	3.72
299.478	4.97
299.691	5.38
299.903	5.2
300.116	8.55
300.329	8.76
300.542	8.75
300.755	6.61
300.967	6.31
301.18	6.43
301.393	2.89
301.605	0.91
301.818	3.37
302.031	-0.38
302.243	3.32
302.456	1.66
302.669	4.46
302.881	5.36
303.094	8.02
303.307	10.74
303.519	10.33
303.732	12.7
303.944	13.43
304.157	11.8
304.37	16.78
304.582	13.63
304.795	11.92
305.007	8.65
305.22	8.39
305.432	6.83
305.645	4.2
305.857	3.66
306.069	4.15
306.282	3.35
306.494	2.09
306.707	-1.46
306.919	-0.74
307.132	-1.11
307.344	3.13
307.556	3.1
307.769	1.37
307.981	0.22
308.193	1.4
308.406	0.15
308.618	-0.56
308.83	-1.32
309.043	-0.95
309.255	0.52
309.467	2.51
309.679	-0.98
309.892	-0.47
310.104	0.17
310.316	2.08
310.528	3.19
310.74	4.17
310.953	5.2
311.165	6.62
311.377	5.53
311.589	4.94
311.801	4.19
312.013	2.08
312.225	1.14
312.437	3.15
312.649	3.55
312.862	3.97
313.074	2.24
313.286	4.85
313.498	5.58
313.71	9.77
313.922	8.53
314.134	8.3
314.346	12.25
314.558	11.65
314.77	9.96
314.982	7.56
315.193	7.71
315.405	8.34
315.617	5.69
315.829	5.51
316.041	4.4
316.253	7.03
316.465	7.3
316.677	7.04
316.888	8.25
317.1	8.23
317.312	8.86
317.524	10.83
317.736	12.29
317.947	11.4
318.159	11.65
318.371	9.31
318.583	7.37
318.794	9.11
319.006	7.38
319.218	8.09
319.43	7.9
319.641	7.05
319.853	2.58
320.064	2.55
320.276	2.87
320.488	0.18
320.699	0.24
320.911	0.5
321.123	0.49
321.334	-0.24
321.546	0.94
321.757	2.6
321.969	-0.45
322.18	-0.98
322.392	-1.07
322.603	-1.3
322.815	0.69
323.026	3.11
323.238	2.23
323.449	1.44
323.661	4.15
323.872	3.01
324.083	2.49
324.295	5.73
324.506	7.24
324.718	6.3
324.929	5.42
325.14	6.23
325.352	7.05
325.563	6.93
325.774	7.04
325.986	5.94
326.197	6.63
326.408	7.34
326.62	3.71
326.831	3.89
327.042	2.2
327.253	2.02
327.464	0.99
327.676	-0.15
327.887	2.61
328.098	0.12
328.309	0.36
328.52	-0.44
328.732	0.92
328.943	2.59
329.154	2.89
329.365	4.44
329.576	2.83
329.787	2.64
329.998	5.18
330.209	3.75
330.42	2.93
330.631	2.72
330.842	4.12
331.053	2.13
331.264	6.21
331.475	4.62
331.686	6.89
331.897	14.52
332.108	16.37
332.319	11.53
332.53	11.98
332.741	11.11
332.952	12.46
333.163	10.38
333.374	10.9
333.585	9.51
333.795	10.58
334.006	6.94
334.217	3.27
334.428	4.13
334.639	5.06
334.849	6.27
335.06	11.15
335.271	7.2
335.482	6.51
335.692	5.71
335.903	5.97
336.114	4.35
336.325	8.48
336.535	8.64
336.746	8.4
336.957	10.49
337.167	7.97
337.378	7.55
337.589	10.56
337.799	12.41
338.01	14.17
338.22	10.99
338.431	9.89
338.642	9.42
338.852	9.03
339.063	9.2
339.273	8.38
339.484	7.37
339.694	6.26
339.905	4.98
340.115	5.07
340.326	2.14
340.536	5.49
340.746	6.72
340.957	6.92
341.167	7.46
341.378	6.08
341.588	7.31
341.799	8.96
342.009	8.08
342.219	8.15
342.43	6.54
342.64	7.82
342.85	5.91
343.061	5.89
343.271	6.3
343.481	5.13
343.691	5.61
343.902	4.47
344.112	6.05
344.322	7.92
344.532	8.87
344.743	7.83
344.953	8.19
345.163	9.21
345.373	9.5
345.583	7.35
345.793	7.54
346.004	6
346.214	5.47
346.424	-0.39
346.634	-2.59
346.844	-2.15
347.054	-0.28
347.264	2
347.474	3.07
347.684	3.87
347.894	5.17
348.104	5.43
348.314	5.34
348.524	4.23
348.734	7.77
348.944	6.32
349.154	6.38
349.364	2.75
349.574	-1.58
349.784	-2.24
349.994	-2.53
350.204	-3.86
350.413	-2.67
350.623	-2.81
350.833	-1.82
351.043	-2.88
351.253	-0.12
351.463	-2.93
351.672	1.13
351.882	2.35
352.092	2.78
352.302	-0.44
352.511	-0.73
352.721	-2.83
352.931	-3.86
353.141	-2.66
353.35	-4.86
353.56	-4.46
353.77	-1.26
353.979	0.1
354.189	0.25
354.399	-1.92
354.608	2.26
354.818	3.16
355.027	3.55
355.237	4.69
355.447	3.95
355.656	6.42
355.866	4.47
356.075	4.33
356.285	4.69
356.494	5.48
356.704	6.72
356.913	5.04
357.123	5.37
357.332	3.88
357.542	3.4
357.751	4.3
357.96	2.81
358.17	3.65
358.379	2.81
358.589	0.12
358.798	-2.29
359.007	-1.75
359.217	-0.88
359.426	-2.31
359.635	0.27
359.845	0.78
360.054	1.38
360.263	2.54
360.472	3.13
360.682	4.13
360.891	4.97
361.1	7.02
361.309	7.97
361.519	7.84
361.728	8.87
361.937	8.43
362.146	9.68
362.355	7.79
362.564	7.48
362.774	7.48
362.983	7.2
363.192	6.87
363.401	6.72
363.61	5.53
363.819	5.82
364.028	6.48
364.237	6.08
364.446	5.15
364.655	5.9
364.864	4.81
365.073	4.69
365.282	3.62
365.491	1.72
365.7	0.67
365.909	0.85
366.118	1.06
366.327	-0.42
366.536	-0.65
366.745	-1.36
366.954	-1.6
367.162	1.14
367.371	0.19
367.58	0.82
367.789	3.95
367.998	4.68
368.207	4.65
368.415	4.77
368.624	4.89
368.833	5.87
369.042	8.09
369.25	8.79
369.459	6.15
369.668	6.19
369.877	5.71
370.085	5.58
370.294	4.93
370.503	5.29
370.711	4.55
370.92	4.07
371.129	5.1
371.337	3.55
371.546	1.14
371.754	2.86
371.963	4.19
372.171	4.04
372.38	3.12
372.589	3.92
372.797	3.05
373.006	4.72
373.214	5.19
373.423	4.6
373.631	5.04
373.84	5.08
374.048	3.28
374.256	2.67
374.465	3.1
374.673	3.46
374.882	3.5
375.09	3.9
375.298	2.36
375.507	2.86
375.715	3.37
375.923	3.16
376.132	5.46
376.34	7.15
376.548	7.29
376.757	7.36
376.965	8.24
377.173	7.11
377.381	6.64
377.59	7.77
377.798	7.33
378.006	4.71
378.214	4.25
378.423	4.29
378.631	2.96
378.839	2.16
379.047	2.67
379.255	3.46
379.463	3.64
379.671	3.55
379.879	3.71
380.088	4.7
380.296	6.58
380.504	8.37
380.712	8.48
380.92	9.2
381.128	9.04
381.336	8.6
381.544	6.28
381.752	7.59
381.96	8.73
382.168	7.52
382.376	7.57
382.584	7.1
382.791	5.95
382.999	4.37
383.207	3.06
383.415	2.49
383.623	3.05
383.831	3.23
384.039	3.81
384.247	2.81
384.454	4.35
384.662	3.59
384.87	3.81
385.078	3.06
385.285	2.97
385.493	5.48
385.701	6.71
385.909	5.11
386.116	5.97
386.324	4.36
386.532	3.16
386.739	1.14
386.947	1.14
387.155	0.76
387.362	1.62
387.57	4.22
387.778	4.02
387.985	3.75
388.193	3.84
388.4	3.15
388.608	3.61
388.816	3.96
389.023	3.76
389.231	3.29
389.438	2.81
389.646	2.4
389.853	0.6
390.061	0.04
390.268	-0.03
390.475	1.61
390.683	2.59
390.89	1.6
391.098	2.35
391.305	2.13
391.512	2.41
391.72	3.03
391.927	1.64
392.135	1.96
392.342	1.1
392.549	2.52
392.756	1.36
392.964	0.37
393.171	0.86
393.378	-0.68
393.586	-0.55
393.793	-0.27
394	-0.52
394.207	1.2
394.414	0.51
394.622	1.45
394.829	1.05
395.036	1.12
395.243	0.68
395.45	0.5
395.657	0.5
395.864	0.36
396.072	0.73
396.279	0.02
396.486	-0.53
396.693	1.25
396.9	1.48
397.107	1.3
397.314	0.42
397.521	1.94
397.728	3.67
397.935	4.82
398.142	6.11
398.349	6.57
398.556	8.09
398.763	8.45
398.97	7.27
399.177	6.03
399.383	4.26
399.59	4.4
399.797	4.05
400.004	2.51
400.211	3.6
400.418	2.41
400.625	3.41
400.831	3.65
401.038	4.54
401.245	4.44
401.452	5.17
401.658	5.85
401.865	6.8
402.072	6.75
402.279	6.67
402.485	6.8
402.692	7.05
402.899	4.9
403.105	3.77
403.312	3.1
403.519	4.13
403.725	3.94
403.932	3.76
404.138	3.18
404.345	2.83
404.552	2.24
404.758	2.06
404.965	2.77
405.171	4.51
405.378	3.72
405.584	3.79
405.791	2.25
405.997	3.59
406.204	3.62
406.41	4.86
406.617	4.17
406.823	5.95
407.029	4.17
407.236	4.15
407.442	2.91
407.649	3.88
407.855	3.57
408.061	3.8
408.268	2.74
408.474	2.97
408.68	2.05
408.887	2.49
409.093	1.58
409.299	2.48
409.505	2.38
409.712	2.41
409.918	1.31
410.124	1.19
410.33	2.21
410.537	1.69
410.743	2.61
410.949	2.54
411.155	2.81
411.361	2.55
411.567	3.47
411.773	3.01
411.98	2.39
412.186	4.26
412.392	5.01
412.598	4.12
412.804	4.34
413.01	3.11
413.216	3.47
413.422	4
413.628	4.83
413.834	4.66
414.04	4.76
414.246	4.44
414.452	3.48
414.658	2.92
414.864	3.75
415.07	3.91
415.275	4.48
415.481	4.71
415.687	4
415.893	3.08
416.099	2.66
416.305	2.59
416.511	3.05
416.716	2.93
416.922	3.47
417.128	2.34
417.334	2.07
417.539	1.56
417.745	1.11
417.951	1.2
418.157	1.81
418.362	1.59
418.568	2.08
418.774	2.04
418.979	2.37
419.185	1.18
419.391	1.29
419.596	1.46
419.802	2.08
420.008	2.31
420.213	-1.84
420.419	-1.68
420.624	-1.78
420.83	-2.23
421.035	-1.8
421.241	-2.16
421.446	-1.14
421.652	-0.83
421.857	-0.7
422.063	-1.69
422.268	-1.25
422.474	2.97
422.679	2.45
422.885	2.67
423.09	2.82
423.295	2.7
423.501	2.92
423.706	2.95
423.911	2.99
424.117	2.77
424.322	3.69
424.527	3.6
424.733	3.65
424.938	3.84
425.143	4.08
425.349	3.72
425.554	3.67
425.759	2.64
425.964	1.94
426.169	2.35
426.375	2.93
426.58	2.95
426.785	2.42
426.99	1.89
427.195	1.68
427.4	0.98
427.605	0.91
427.811	0.89
428.016	2.08
428.221	1.96
428.426	1.9
428.631	1.54
428.836	1.16
429.041	1.1
429.246	2.27
429.451	2.39
429.656	2.85
429.861	3.04
430.066	4.1
430.271	4.88
430.476	5.9
430.681	4.78
430.886	4.59
431.09	4.66
431.295	4.81
431.5	4.47
431.705	4.71
431.91	4.7
432.115	4.32
432.32	3.34
432.524	2.15
432.729	1.6
432.934	2.06
433.139	2.29
433.343	2.11
433.548	1.59
433.753	1.67
433.958	1.51
434.162	1.73
434.367	2.69
434.572	2.93
434.776	3.39
434.981	3.8
435.186	3.43
435.39	3.48
435.595	3.5
435.799	4.33
436.004	3.38
436.209	3.6
436.413	3.5
436.618	3.53
436.822	3.27
437.027	3.17
437.231	2.6
437.436	3.04
437.64	2.95
437.845	2.18
438.049	1.66
438.253	2.05
438.458	1.82
438.662	1.11
438.867	0.42
439.071	0.73
439.275	0.58
439.48	0.91
439.684	0.23
439.888	0.1
440.093	1.1
440.297	1.31
440.501	2.08
440.706	1.89
440.91	1.82
441.114	2.28
441.318	2
441.523	1.75
441.727	1.28
441.931	1.65
442.135	1.08
442.339	0.96
442.543	0.46
442.748	-0.16
442.952	-0.11
443.156	0.45
443.36	0.1
443.564	-0.17
443.768	0.22
443.972	0.16
444.176	0.55
444.38	0.65
444.584	0.58
444.788	0.87
444.992	1
445.196	1.29
445.4	1.39
445.604	1.75
445.808	1.94
446.012	1.87
446.216	2.18
446.42	2.68
446.624	3.16
446.828	3.5
447.032	3.63
447.235	3.35
447.439	3.23
447.643	3.58
447.847	3.5
448.051	2.92
448.254	3.21
448.458	3.45
448.662	2.35
448.866	2.48
449.069	2.26
449.273	2.36
449.477	2.86
449.681	3.18
449.884	2.49
450.088	1.74
450.292	2.34
450.495	1.82
450.699	1.35
450.902	1.91
451.106	1.98
451.31	1.63
451.513	1.82
451.717	1.19
451.92	0.44
452.124	0.6
452.327	0.65
452.531	0.49
452.734	1.02
452.938	1.75
453.141	1.98
453.345	1.61
453.548	1.25
453.752	0.84
453.955	1.26
454.158	1.32
454.362	1.9
454.565	2.75
454.769	3.02
454.972	3.21
455.175	2.74
455.379	2.29
455.582	2.58
455.785	2.86
455.988	3.11
456.192	3.61
456.395	4.24
456.598	3.8
456.801	3.5
457.005	3.84
457.208	3.95
457.411	3.95
457.614	3.92
457.817	3.65
458.021	3.55
458.224	3.54
458.427	2.86
458.63	2.43
458.833	1.94
459.036	1.91
459.239	1.87
459.442	1.46
459.645	1.3
459.848	1.11
460.051	1.15
460.254	0.63
460.457	-0.01
460.66	0.21
460.863	0.12
461.066	0.7
461.269	1.08
461.472	1.18
461.675	1.26
461.878	1.87
462.081	2.34
462.284	2.29
462.486	3.24
462.689	4.35
462.892	3.59
463.095	2.91
463.298	3.2
463.5	2.73
463.703	2.54
463.906	3.41
464.109	2.72
464.311	2.64
464.514	3.84
464.717	3.63
464.92	3.39
465.122	4.35
465.325	5.59
465.528	5.21
465.73	5.82
465.933	5.44
466.135	5.03
466.338	5.4
466.541	4.97
466.743	3.74
466.946	3.44
467.148	3.03
467.351	3.23
467.553	2.66
467.756	2.63
467.958	1.84
468.161	2.96
468.363	2.49
468.566	2.02
468.768	2.73
468.971	2.68
469.173	2.34
469.375	2.07
469.578	1.35
469.78	1.96
469.983	2.13
470.185	1.92
470.387	1.07
470.59	1.47
470.792	1.35
470.994	0.71
471.196	1.44
471.399	2.68
471.601	2.79
471.803	2.92
472.005	2.82
472.208	3.11
472.41	3.46
472.612	3.03
472.814	2.78
473.016	3.16
473.218	3.58
473.421	2.77
473.623	1.58
473.825	2.27
474.027	2.46
474.229	2.48
474.431	2.3
474.633	2.75
474.835	3.13
475.037	3.91
475.239	4.34
475.441	3.72
475.643	3.5
475.845	4.36
476.047	3.95
476.249	3.63
476.451	4.11
476.653	4.09
476.855	3.04
477.057	2.73
477.258	2.49
477.46	2.52
477.662	3.31
477.864	3.81
478.066	3.7
478.268	3.97
478.469	4.66
478.671	4.36
478.873	4.09
479.075	5.12
479.276	5.17
479.478	4.86
479.68	4.41
479.882	4
480.083	3.54
480.285	3.19
480.487	2.5
480.688	2.09
480.89	1.71
481.091	2.05
481.293	1.96
481.495	2.1
481.696	2.18
481.898	2.3
482.099	2.29
482.301	2.44
482.502	2.68
482.704	2.8
482.905	2.95
483.107	3.01
483.308	3.1
483.51	2.99
483.711	2.93
483.913	2.94
484.114	2.91
484.315	2.94
484.517	3.07
484.718	3.13
484.92	3.34
485.121	3.17
485.322	3.15
485.524	2.9
485.725	2.91
485.926	3.11
486.127	2.8
486.329	2.77
486.53	2.88
486.731	2.95
486.932	2.87
487.134	2.72
487.335	2.53
487.536	2.65
487.737	2.83
487.938	2.72
488.139	2.72
488.341	2.96
488.542	3.14
488.743	3.21
488.944	2.79
489.145	2.6
489.346	2.58
489.547	2.9
489.748	2.9
489.949	2.8
490.15	2.86
490.351	2.92
490.552	2.84
490.753	2.77
490.954	2.36
491.155	2.55
491.356	2.4
491.557	2.66
491.758	2.52
491.959	2.54
492.159	2.42
492.36	2.24
492.561	2.07
492.762	1.97
492.963	1.5
493.164	1.93
493.364	1.8
493.565	2.21
493.766	1.68
493.967	1.75
494.167	1.21
494.368	1.43
494.569	2.22
494.769	1.89
494.97	1.91
495.171	2.45
495.371	2.93
495.572	2.89
495.773	2.59
495.973	2.97
496.174	3.29
496.375	3.5
496.575	3.12
496.776	2.96
496.976	3.46
497.177	3.48
497.377	3.95
497.578	4.02
497.778	4.05
497.979	4.61
498.179	4.61
498.38	4.52
498.58	4.73
498.78	4.85
498.981	4.69
499.181	4.6
499.382	4.95
499.582	4.39
499.782	3.6
499.983	4.05
500.183	3.88
500.383	3.47
500.584	3.3
500.784	3.19
500.984	3.56
501.184	3.63
501.385	3.46
501.585	4.14
501.785	3.94
501.985	3.95
502.185	3.81
502.386	3.47
502.586	3.27
502.786	3.22
502.986	3.18
503.186	2.79
503.386	2.24
503.586	1.95
503.786	1.08
503.987	0.87
504.187	0.76
504.387	0.51
504.587	1.28
504.787	1.2
504.987	1.86
505.187	2.04
505.387	1.93
505.587	2.45
505.786	3.22
505.986	3.01
506.186	3.15
506.386	3.1
506.586	3.79
506.786	3.27
506.986	3.27
507.186	2.73
507.386	2.71
507.585	2.79
507.785	2.94
507.985	2.21
508.185	2.9
508.384	2.87
508.584	3.22
508.784	2.65
508.984	2.59
509.183	2.98
509.383	2.91
509.583	2.64
509.782	2.62
509.982	2.73
510.182	3.2
510.381	2.88
510.581	3.29
510.781	3.5
510.98	3.33
511.18	3.35
511.379	3.36
511.579	3.31
511.778	3.41
511.978	3.97
512.177	3.61
512.377	3.47
512.576	3.75
512.776	3.46
512.975	3.71
513.175	3.83
513.374	4.47
513.573	4.53
513.773	4.37
513.972	4.68
514.172	4.92
514.371	4.94
514.57	4.9
514.77	4.36
514.969	4.97
515.168	5.33
515.367	5.47
515.567	5.38
515.766	5.2
515.965	5.22
516.164	5.01
516.364	4.32
516.563	4.98
516.762	5.19
516.961	5.45
517.16	5.29
517.359	4.85
517.559	5.17
517.758	4.95
517.957	5.36
518.156	5.54
518.355	5.97
518.554	6.14
518.753	5.76
518.952	5.97
519.151	6.23
519.35	6.04
519.549	5.47
519.748	5.45
519.947	5.27
520.146	4.83
520.345	4.75
520.544	4.85
520.743	4.95
520.942	5.18
521.141	5.13
521.339	5.09
521.538	4.7
521.737	4.87
521.936	4.46
522.135	4.38
522.333	4.61
522.532	4.64
522.731	4.62
522.93	4.83
523.129	4.54
523.327	4.51
523.526	4.44
523.725	4.59
523.923	5.03
524.122	5.29
524.321	5.23
524.519	5.31
524.718	5.51
524.917	5.38
525.115	5.39
525.314	5.54
525.512	5.66
525.711	5.61
525.909	5.78
526.108	5.71
526.306	5.55
526.505	5.53
526.703	5.59
526.902	5.68
527.1	5.55
527.299	5.57
527.497	5.51
527.696	5.46
527.894	5.57
528.092	5.52
528.291	5.55
528.489	5.92
528.688	6.17
528.886	6.18
529.084	5.95
529.283	5.81
529.481	5.86
529.679	6.2
529.877	6.13
530.076	6.25
530.274	6.55
530.472	6.84
530.67	6.52
530.869	6.43
531.067	6.18
531.265	6.59
531.463	6.85
531.661	6.71
531.859	6.27
532.057	6.45
532.255	6.39
532.454	6.22
532.652	6.26
532.85	6.15
533.048	6.26
533.246	6.56
533.444	6.69
533.642	6.8
533.84	7.17
534.038	7.58
534.236	7.34
534.434	6.93
534.632	6.86
534.83	6.69
535.027	6.86
535.225	6.98
535.423	6.87
535.621	6.87
535.819	6.74
536.017	6.25
536.215	5.86
536.412	6.49
536.61	6.92
536.808	7.1
537.006	7.02
537.203	7.01
537.401	6.72
537.599	6.89
537.797	6.83
537.994	6.73
538.192	7.06
538.39	7.13
538.587	6.64
538.785	6.29
538.983	6.48
539.18	6.58
539.378	6.32
539.575	6.61
539.773	6.56
539.97	6.46
540.168	6.5
540.366	6.51
540.563	6.71
540.761	6.88
540.958	7.2
541.155	7.36
541.353	7.32
541.55	7.72
541.748	7.43
541.945	7.62
542.143	7.68
542.34	7.76
542.537	7.79
542.735	7.88
542.932	7.7
543.129	7.42
543.327	7.71
543.524	7.99
543.721	7.75
543.919	7.85
544.116	7.28
544.313	7.11
544.51	7.17
544.708	6.93
544.905	7.06
545.102	7.16
545.299	7.3
545.496	7.08
545.693	6.88
545.891	6.87
546.088	7.14
546.285	7.69
546.482	7.9
546.679	8.04
546.876	8.47
547.073	8.57
547.27	8.42
547.467	8.38
547.664	7.83
547.861	7.21
548.058	7.3
548.255	7.08
548.452	6.71
548.649	6.86
548.846	7.16
549.043	7.19
549.24	7.66
549.437	8.44
549.633	8.56
549.83	8.62
550.027	9.1
550.224	9.19
550.421	9.23
550.618	9.19
550.814	8.77
551.011	7.93
551.208	7.61
551.405	7.28
551.601	7.52
551.798	8.08
551.995	8.28
552.191	8.81
552.388	9.24
552.585	9.83
552.781	9.58
552.978	9.59
553.175	10.21
553.371	10.58
553.568	10.32
553.764	9.89
553.961	9.53
554.157	9.72
554.354	9.81
554.55	9.79
554.747	9.55
554.943	10.18
555.14	10.18
555.336	10.55
555.533	10.19
555.729	10.58
555.926	10.3
556.122	10.21
556.318	10.6
556.515	10.38
556.711	10.04
556.907	9.86
557.104	9.67
557.3	10.63
557.496	10.43
557.693	10.29
557.889	9.48
558.085	9.32
558.281	9.47
558.478	8.16
558.674	7.98
558.87	7.71
559.066	8.26
559.262	8.52
559.459	8.25
559.655	8.28
559.851	9
560.047	9.93
560.243	10.62
560.439	10.92
560.635	11.64
560.831	11.29
561.027	11.73
561.223	11.25
561.419	11.14
561.615	10.91
561.811	10.78
562.007	10.46
562.203	10.16
562.399	10.64
562.595	10.14
562.791	10.6
562.987	10.83
563.183	10.51
563.379	10.99
563.575	10.88
563.771	10.66
563.966	10.8
564.162	10.76
564.358	11
564.554	10.15
564.75	10.61
564.945	10.05
565.141	10.13
565.337	10.82
565.533	10.5
565.728	10.38
565.924	11.02
566.12	10.66
566.315	11.07
566.511	10.73
566.707	10.48
566.902	9.95
567.098	10.31
567.293	10.28
567.489	9.33
567.684	9.12
567.88	9.58
568.076	8.99
568.271	9.25
568.467	8.35
568.662	8.67
568.858	9.05
569.053	8.65
569.248	8.84
569.444	8.97
569.639	9.37
569.835	8.77
570.03	8.89
570.225	9.19
570.421	9.42
570.616	9.85
570.812	10.17
571.007	10.29
571.202	10.88
571.397	10.1
571.593	10.56
571.788	10.7
571.983	11.08
572.178	10.69
572.374	10.86
572.569	10.57
572.764	10.56
572.959	9.87
573.154	10.47
573.35	10.55
573.545	11.06
573.74	10.52
573.935	10.36
574.13	10.51
574.325	10.88
574.52	10.74
574.715	10.72
574.91	10.89
575.105	10.64
575.3	10.25
575.495	10.5
575.69	10.38
575.885	10.61
576.08	10.62
576.275	10.93
576.47	10.19
576.665	9.85
576.86	10.84
577.055	11.23
577.25	11.83
577.444	12.17
577.639	11.93
577.834	12.58
578.029	12.3
578.224	12.47
578.418	11.83
578.613	12.85
578.808	13.44
579.003	13.28
579.197	12.64
579.392	11.89
579.587	11.08
579.781	11.25
579.976	10.74
580.171	11.1
580.365	11.17
580.56	11.37
580.755	11.42
580.949	10.86
581.144	10.1
581.338	10.81
581.533	11.87
581.727	12.55
581.922	12.67
582.116	12.85
582.311	12.82
582.505	12.74
582.7	13.39
582.894	13.75
583.089	13.73
583.283	15.48
583.478	15.12
583.672	13.67
583.866	12.8
584.061	12.88
584.255	12.52
584.449	13.16
584.644	13.4
584.838	12.34
585.032	11.31
585.226	11.31
585.421	10.44
585.615	9.29
585.809	10.82
586.003	10.74
586.198	10.44
586.392	11.12
586.586	10.61
586.78	9.59
586.974	11.14
587.168	11.5
587.363	12.11
587.557	11.02
587.751	12
587.945	11.16
588.139	11.48
588.333	11.83
588.527	11.23
588.721	11.39
588.915	12.11
589.109	11.36
589.303	11.49
589.497	10.56
589.691	11.19
589.885	11.01
590.079	12.28
590.273	12.73
590.466	12.5
590.66	12.79
590.854	13.25
591.048	12.82
591.242	13.79
591.436	13.78
591.629	14.61
591.823	13.75
592.017	14.73
592.211	13.95
592.404	14.11
592.598	14.57
592.792	14.74
592.986	14.07
593.179	15.21
593.373	14.14
593.567	14.27
593.76	14.25
593.954	14.88
594.147	14.39
594.341	13.71
594.535	13.15
594.728	12.6
594.922	12.27
595.115	12.44
595.309	12.15
595.502	12.41
595.696	12.04
595.889	11.76
596.083	11.73
596.276	11.04
596.47	12.04
596.663	11.65
596.856	12.13
597.05	12.54
597.243	13.07
597.437	11.92
597.63	12.63
597.823	13.22
598.017	12.9
598.21	13.02
598.403	13.4
598.596	13.55
598.79	14.48
598.983	14.46
599.176	13.98
599.369	12.91
599.563	13.71
599.756	13.48
599.949	12.98
600.142	13.29
600.335	14.09
600.528	13.04
600.722	13.06
600.915	12.82
601.108	12.94
601.301	13.41
601.494	13.83
601.687	13.62
601.88	12.89
602.073	12.38
602.266	13.03
602.459	13.33
602.652	13.87
602.845	13.01
603.038	12.37
603.231	12.51
603.424	12.46
603.617	12.12
603.809	12.53
604.002	12.53
604.195	12.94
604.388	12.45
604.581	11.7
604.774	12.51
604.966	13.36
605.159	13.59
605.352	13.2
605.545	13.01
605.737	13.22
605.93	13.29
606.123	14.02
606.316	14.18
606.508	14.13
606.701	13.97
606.894	14.14
607.086	14.22
607.279	14.93
607.471	14.96
607.664	14.82
607.857	15.01
608.049	14.36
608.242	13.95
608.434	13.86
608.627	14.45
608.819	15.27
609.012	14.24
609.204	13.68
609.397	13.34
609.589	13.85
609.782	14.27
609.974	13.77
610.166	14.86
610.359	15.33
610.551	15.26
610.743	15.21
610.936	14.57
611.128	14.45
611.32	14.99
611.513	14.61
611.705	13.21
611.897	13.3
612.09	14.76
612.282	14.27
612.474	13.86
612.666	14.2
612.858	13.93
613.051	13.62
613.243	15.37
613.435	14.52
613.627	15.36
613.819	16.79
614.011	16.2
614.203	15.9
614.395	15.45
614.588	16.13
614.78	15.76
614.972	16.34
615.164	16.28
615.356	16.42
615.548	17.31
615.74	18.04
615.932	18.11
616.124	17.74
616.315	16.97
616.507	16.87
616.699	16.04
616.891	15.71
617.083	16.11
617.275	16.25
617.467	15.35
617.659	14.97
617.85	14.84
618.042	14.59
618.234	15.29
618.426	16.04
618.618	16.16
618.809	17.33
619.001	17.86
619.193	16.43
619.384	15.89
619.576	16.63
619.768	16.55
619.959	15.94
620.151	15.91
620.343	15.27
620.534	14.49
620.726	15.09
620.917	14.5
621.109	14.65
621.301	14.54
621.492	15.7
621.684	15.24
621.875	14.85
622.067	14.76
622.258	14.3
622.45	14.82
622.641	14.3
622.832	13.64
623.024	13.62
623.215	14.17
623.407	14.35
623.598	14.18
623.789	13.97
623.981	13.55
624.172	14.02
624.363	13.97
624.555	14.27
624.746	14.98
624.937	15.03
625.129	14.62
625.32	13.86
625.511	15.06
625.702	14.61
625.893	14.37
626.085	14.97
626.276	14.16
626.467	13.78
626.658	14.19
626.849	13.97
627.04	15.12
627.231	15.52
627.422	16.27
627.614	16.05
627.805	15.64
627.996	16.09
628.187	16.01
628.378	16.86
628.569	17.37
628.76	17.39
628.951	17.66
629.142	16.83
629.332	16.81
629.523	16.31
629.714	15.03
629.905	14.96
630.096	15.17
630.287	15.62
630.478	15.1
630.669	15.29
630.859	14.83
631.05	14.51
631.241	13.66
631.432	13.32
631.623	13.36
631.813	14.79
632.004	15.49
632.195	14.05
632.385	13.85
632.576	14.2
632.767	14.59
632.957	15.5
633.148	16.31
633.339	16.92
633.529	17.42
633.72	17.62
633.91	17.39
634.101	17.25
634.292	18.11
634.482	17.88
634.673	17.56
634.863	16.31
635.054	15.79
635.244	14.97
635.435	14.95
635.625	14.91
635.815	14.95
636.006	14.31
636.196	14.88
636.387	15.46
636.577	15.78
636.767	16.83
636.958	17.15
637.148	17.06
637.338	16.26
637.529	17.34
637.719	16.6
637.909	16.72
638.099	16.71
638.29	14.56
638.48	13.52
638.67	13.81
638.86	12.62
639.05	14.24
639.241	14.57
639.431	16.17
639.621	14.76
639.811	15.4
640.001	14.82
640.191	14.99
640.381	17.25
640.571	18.09
640.761	17.96
640.951	19.11
641.141	16.68
641.331	15.39
641.521	14.66
641.711	15.98
641.901	16.02
642.091	16.9
642.281	15.96
642.471	13.98
642.661	14.51
642.851	13.85
643.041	12.34
643.231	13.63
643.42	14.03
643.61	13.93
643.8	13.37
643.99	13.69
644.18	11.54
644.369	11.47
644.559	13.4
644.749	12.41
644.939	11.68
645.128	11.78
645.318	12.06
645.508	12.5
645.697	13.19
645.887	13.17
646.076	10.73
646.266	11.15
646.456	11.18
646.645	10.33
646.835	11.94
647.024	11.69
647.214	11.96
647.403	12.14
647.593	10.98
647.782	11.62
647.972	10.79
648.161	14.19
648.351	14.57
648.54	16.09
648.73	16.03
648.919	15.12
649.108	17.14
649.298	17.44
649.487	16.95
649.677	17.04
649.866	16.35
650.055	17.18
650.244	14.52
650.434	14.97
650.623	14.71
650.812	15.14
651.002	15.49
651.191	14.5
651.38	15.31
651.569	15.49
651.758	15.54
651.947	16.2
652.137	15.01
652.326	16.13
652.515	15.28
652.704	13.24
652.893	13.62
653.082	13.06
653.271	14.58
653.46	14.09
653.649	12.92
653.838	12.25
654.027	11.3
654.216	12.9
654.405	12.61
654.594	13.3
654.783	15.06
654.972	15.18
655.161	14.69
655.35	12.48
655.539	12.4
655.728	14.03
655.916	15.43
656.105	14.4
656.294	14.13
656.483	15.19
656.672	15.76
656.86	15.33
657.049	15.06
657.238	16.1
657.427	16.52
657.615	16.38
657.804	15.68
657.993	15.86
658.181	16.6
658.37	16.13
658.559	15.49
658.747	15.33
658.936	17.3
659.125	16.77
659.313	15.88
659.502	16.08
659.69	15.53
659.879	15.75
660.067	14.77
660.256	14.43
660.444	14.71
660.633	14.82
660.821	14.95
661.01	13.74
661.198	14.99
661.387	15.21
661.575	15.23
661.763	16.89
661.952	16.75
662.14	16.91
662.328	18.01
662.517	19.15
662.705	20.88
662.893	21.48
663.082	21.65
663.27	21.78
663.458	22.75
663.646	20.29
663.834	19.16
664.023	19.58
664.211	20.7
664.399	22.45
664.587	19.99
664.775	18.85
664.963	17.77
665.152	18.18
665.34	17.52
665.528	17.13
665.716	20.5
665.904	20.92
666.092	19.7
666.28	19.04
666.468	16.84
666.656	17.85
666.844	16.99
667.032	17.87
667.22	16.76
667.408	16.57
667.596	16.19
667.784	14.56
667.971	12.41
668.159	14.29
668.347	15.28
668.535	14.16
668.723	13.77
668.911	14.09
669.098	14.91
669.286	14.43
669.474	14.76
669.662	15.34
669.849	16.8
670.037	18.16
670.225	18.21
670.413	17.65
670.6	18.04
670.788	17.21
670.976	17.12
671.163	15.97
671.351	15.86
671.538	15.81
671.726	15
671.913	14.34
672.101	13.74
672.289	12.46
672.476	10.61
672.664	11.27
672.851	11.44
673.039	11.52
673.226	11.49
673.413	11.55
673.601	10.6
673.788	11.53
673.976	10.74
674.163	12.35
674.35	12.64
674.538	13.45
674.725	13.94
674.912	15.31
675.1	15.22
675.287	14.68
675.474	16.16
675.662	14.56
675.849	14.89
676.036	15.23
676.223	15.42
676.411	16.19
676.598	17.51
676.785	17.01
676.972	16.39
677.159	14.95
677.346	13.87
677.533	13.93
677.721	15.69
677.908	15.01
678.095	15.27
678.282	14.12
678.469	14.62
678.656	13.88
678.843	14.67
679.03	15.78
679.217	17.65
679.404	18.29
679.591	16.87
679.778	16.84
679.964	16.42
680.151	16.24
680.338	15.92
680.525	15.44
680.712	16.93
680.899	16.09
681.086	14.25
681.272	14.98
681.459	15.68
681.646	17.97
681.833	16.67
682.02	16.22
682.206	16.56
682.393	17.97
682.58	18.48
682.766	17.11
682.953	17.76
683.14	19.92
683.326	19.32
683.513	19.31
683.7	17.19
683.886	18.71
684.073	19.39
684.259	19.85
684.446	20
684.632	19.6
684.819	18.84
685.005	18.45
685.192	17.55
685.378	16.51
685.565	17.13
685.751	17.31
685.938	16.87
686.124	16.64
686.31	17.1
686.497	15.63
686.683	16.84
686.87	16.5
687.056	15.7
687.242	15.05
687.429	14.92
687.615	14.51
687.801	14.66
687.987	14.52
688.174	15.13
688.36	13.91
688.546	15.02
688.732	14.41
688.918	16.29
689.105	17.26
689.291	16.06
689.477	15
689.663	14.81
689.849	14.75
690.035	15.94
690.221	16.33
690.407	16.41
690.593	17.32
690.779	17.54
690.965	17.27
691.151	17.93
691.337	19.62
691.523	19.88
691.709	18.27
691.895	18.1
692.081	17.99
692.267	17.38
692.453	18.81
692.639	17.3
692.825	15.67
693.011	15.45
693.196	14.5
693.382	12.18
693.568	14.48
693.754	13.81
693.94	14.55
694.125	13.4
694.311	12.96
694.497	10.39
694.682	11.28
694.868	11.3
695.054	10.8
695.239	11.37
695.425	12.98
695.611	10.34
695.796	13.91
695.982	14.26
696.168	15.43
696.353	15.02
696.539	16.6
696.724	17.02
696.91	17.27
697.095	16.47
697.281	16.48
697.466	16.91
697.652	19.63
697.837	17.56
698.023	17.64
698.208	17.34
698.393	17.53
698.579	17.77
698.764	16.24
698.949	17.57
699.135	18.64
699.32	17.29
699.505	16.87
699.691	14.22
699.876	15.24
700.061	14.71
700.246	15.24
700.432	14.52
700.617	13.55
700.802	16.79
700.987	16.88
701.172	19.22
701.358	19.66
701.543	18.79
701.728	19.5
701.913	17.49
702.098	16.27
702.283	15.48
702.468	14.34
702.653	15.42
702.838	13.59
703.023	11.33
703.208	6.44
703.393	5.99
703.578	7.38
703.763	7.27
703.948	11.51
704.133	11.95
704.318	11.13
704.503	15.11
704.688	14.97
704.873	15.6
705.057	16.42
705.242	18.61
705.427	19.61
705.612	22.29
705.797	22.28
705.981	20.8
706.166	21.52
706.351	21.94
706.536	21.86
706.72	21.61
706.905	22.27
707.09	21.35
707.274	20.76
707.459	22.67
707.644	21.79
707.828	21.97
708.013	22.27
708.197	22.55
708.382	20.88
708.567	18.8
708.751	17.78
708.936	16.14
709.12	15.83
709.305	16.25
709.489	15.95
709.673	16.87
709.858	17.28
710.042	17.17
710.227	17.92
710.411	17.95
710.596	19.46
710.78	20.51
710.964	20.72
711.149	21.21
711.333	21.07
711.517	18.87
711.702	18.35
711.886	19.16
712.07	17.92
712.254	15.96
712.438	18.3
712.623	16.67
712.807	15.42
712.991	12.5
713.175	12.66
713.359	11.98
713.544	15.82
713.728	12.3
713.912	9.85
714.096	12.05
714.28	13.7
714.464	13.18
714.648	14.41
714.832	17.34
715.016	21.93
715.2	20.19
715.384	21.93
715.568	20.42
715.752	21.33
715.936	24.49
716.12	23.09
716.304	23.75
716.488	24.6
716.671	25.2
716.855	23.06
717.039	19.88
717.223	22.47
717.407	21.25
717.59	19.18
717.774	18.46
717.958	14.98
718.142	13.89
718.325	9.1
718.509	8.4
718.693	5.81
718.877	6.24
719.06	6.9
719.244	2.79
719.428	3.91
719.611	6.32
719.795	11.08
719.978	11.56
720.162	12.16
720.345	17.14
720.529	18.17
720.713	19.68
720.896	18.25
721.08	18.79
721.263	20.38
721.446	16.3
721.63	15.29
721.813	12.63
721.997	14.89
722.18	15.95
722.364	15.81
722.547	14.65
722.73	14.21
722.914	13.25
723.097	13.24
723.28	17
723.464	22.47
723.647	22.83
723.83	22.13
724.013	24.57
724.197	22.46
724.38	18.41
724.563	18.67
724.746	19.14
724.929	20.86
725.112	21.58
725.296	17.33
725.479	14.92
725.662	12.49
725.845	13.83
726.028	9.95
726.211	16.76
726.394	17.31
726.577	15.71
726.76	15.03
726.943	13.72
727.126	11.83
727.309	11.39
727.492	11.11
727.675	13.34
727.858	12.98
728.041	15.12
728.224	13.33
728.407	12.47
728.589	17.2
728.772	17.37
728.955	18.04
729.138	17.97
729.321	18.5
729.503	17.76
729.686	16.94
729.869	19.24
730.052	18.32
730.234	12.98
730.417	17.02
730.6	11.45
730.782	11.17
730.965	12.51
731.148	15.15
731.33	15.02
731.513	16.46
731.695	20.09
731.878	19.63
732.061	19.46
732.243	23.03
732.426	22.61
732.608	23.3
732.791	22.1
732.973	23.16
733.156	21.54
733.338	23.02
733.52	22.33
733.703	20.24
733.885	19.87
734.068	20.08
734.25	17.4
734.432	14.9
734.615	15.92
734.797	19.61
734.979	20.65
735.162	19.84
735.344	19.57
735.526	20.2
735.708	20.38
735.891	17.51
736.073	15.98
736.255	19.93
736.437	22.31
736.619	24.54
736.802	19.95
736.984	16.84
737.166	20.32
737.348	18.25
737.53	22.53
737.712	22.11
737.894	23.89
738.076	21.77
738.258	19.52
738.44	17.66
738.622	18.23
738.804	20.96
738.986	19.31
739.168	17.66
739.35	15.28
739.532	13.02
739.714	12.86
739.896	10.74
740.078	16.78
740.259	15.78
740.441	15.23
740.623	16.25
740.805	14.26
740.987	15.26
741.168	16.44
741.35	21.11
741.532	17.19
741.714	13.72
741.895	14.8
742.077	12.64
742.259	14.92
742.44	17.55
742.622	15.98
742.804	15.6
742.985	14.43
743.167	13.73
743.348	13.66
743.53	15.35
743.711	22.72
743.893	23.57
744.075	23.17
744.256	22.4
744.438	18.33
744.619	14.34
744.8	18.08
744.982	21.74
745.163	21.4
745.345	21.73
745.526	17.54
745.707	17.1
745.889	17.46
746.07	21.61
746.252	20.23
746.433	20.56
746.614	26.49
746.795	25.85
746.977	21.9
747.158	23.56
747.339	23.19
747.52	32.68
747.702	32.52
747.883	33.1
748.064	31.59
748.245	33.38
748.426	34.22
748.607	26.69
748.788	27.02
748.97	22.29
749.151	18.64
749.332	16.1
749.513	13.12
749.694	12.47
749.875	11.98
750.056	11.18
750.237	9.69
750.418	10.6
750.599	13.09
750.78	17.73
750.96	30.39
751.141	24.31
751.322	26.56
751.503	29.6
751.684	24.48
751.865	25.13
752.046	21.81
752.226	16.4
752.407	18.73
752.588	27.77
752.769	25.51
752.949	19.18
753.13	26.23
753.311	25.26
753.492	24.78
753.672	26.04
753.853	20.97
754.034	21.39
754.214	26.29
754.395	24.44
754.575	18.23
754.756	14.98
754.937	16.13
755.117	17
755.298	16.63
755.478	17.92
755.659	17.04
755.839	21.41
756.02	19.95
756.2	17.82
756.381	17.35
756.561	17.94
756.741	23.52
756.922	23.39
757.102	16.79
757.283	15.73
757.463	12.76
757.643	13.62
757.823	8.34
758.004	6.37
758.184	8.4
758.364	8.86
758.545	10.51
758.725	10.8
758.905	10.9
759.085	12.69
759.265	16.97
759.446	16.4
759.626	20.97
759.806	26.6
759.986	27.08
760.166	26.16
760.346	28.22
760.526	28.67
760.706	23.73
760.886	21.79
761.066	23.08
761.246	21.73
761.426	22.27
761.606	19.09
761.786	17.62
761.966	17.82
762.146	16.85
762.326	15.29
762.506	15.31
762.686	17.12
762.866	20.84
763.046	19.03
763.225	20.13
763.405	17.21
763.585	18.09
763.765	18.66
763.945	22.05
764.124	21.81
764.304	26.78
764.484	25.13
764.664	24.04
764.843	19.23
765.023	21.72
765.203	18.62
765.382	23.91
765.562	20.21
765.741	20.78
765.921	17.61
766.101	22.65
766.28	18.83
766.46	20.64
766.639	19.63
766.819	25.01
766.998	29.7
767.178	30.73
767.357	23.34
767.537	29.43
767.716	29.53
767.896	32.56
768.075	28.23
768.254	27.72
768.434	34.95
768.613	34.64
768.792	38.53
768.972	27.51
769.151	30.24
769.33	33.77
769.51	35.36
769.689	37.2
769.868	36.05
770.047	39.98
770.226	40.2
770.406	37.63
770.585	40.26
770.764	42.79
770.943	51.14
771.122	51.21
771.301	51.72
771.48	51.35
771.66	51.88
771.839	55.65
772.018	61.31
772.197	64.81
772.376	59.98
772.555	60.27
772.734	55.12
772.913	46.25
773.092	47.66
773.271	50.74
773.449	48.35
773.628	53.9
773.807	52.11
773.986	42.78
774.165	43.88
774.344	49.39
774.523	49.63
774.701	49.45
774.88	51.21
775.059	51.64
775.238	53.65
775.417	50.87
775.595	46.74
775.774	39.66
775.953	40.43
776.131	37.14
776.31	32.08
776.489	27.21
776.667	26.22
776.846	32.8
777.025	30.86
777.203	29.1
777.382	26.32
777.56	25.28
777.739	25.63
777.917	23.51
778.096	18.98
778.274	17.04
778.453	18.7
778.631	21.12
778.81	21.22
778.988	16.1
779.166	13.27
779.345	15.98
779.523	19.34
779.702	28.74
779.88	32.29
780.058	35.17
780.237	33.59
780.415	33.55
780.593	26.72
780.771	19.05
780.95	24.58
781.128	25.41
781.306	35.54
781.484	31.58
781.662	22.56
781.841	20.09
782.019	22.87
782.197	25.77
782.375	24.07
782.553	28.11
782.731	21.41
782.909	28.14
783.087	31.69
783.265	22.58
783.443	22.88
783.621	24.3
783.799	27.72
783.977	27.4
784.155	28.67
784.333	33.17
784.511	23.89
784.689	30.21
784.867	25.47
785.045	18.69
785.223	12.01
785.4	17.31
785.578	14.24
785.756	10.11
785.934	1.32
786.112	0.84
786.289	2.59
786.467	14.86
786.645	16.5
786.823	12.72
787	13.35
787.178	11.94
787.356	15.92
787.533	17.57
787.711	15.07
787.889	17.76
788.066	24.24
788.244	20.53
788.421	16.48
788.599	19.08
788.776	20.96
788.954	23.81
789.131	33.22
789.309	23.09
789.486	23.1
789.664	24.87
789.841	23.73
790.019	27.44
790.196	31.81
790.373	34.97
790.551	36.04
790.728	32.14
790.906	28.33
791.083	27.35
791.26	27.31
791.437	27.94
791.615	29.45
791.792	33.06
791.969	28.45
792.146	25.38
792.324	16.01
792.501	15.58
792.678	15.35
792.855	10.28
793.032	8.29
793.209	19.79
793.387	16.59
793.564	14.8
793.741	20
793.918	17.49
794.095	15.78
794.272	20.92
794.449	19.36
794.626	26.59
794.803	33.96
794.98	34.05
795.157	23.5
795.334	27.4
795.511	28.89
795.688	24.96
795.864	24.08
796.041	27.6
796.218	33.32
796.395	29.91
796.572	20.63
796.749	21.8
796.925	29.98
797.102	32.59
797.279	27.17
797.456	29.73
797.632	33.9
797.809	34.39
797.986	29.74
798.162	22.99
798.339	29.41
798.516	40.01
798.692	27.73
798.869	18.34
799.046	22.37
799.222	27.01
799.399	28.56
799.575	28.83
799.752	32.15
799.928	41.55
800.105	43.73
800.281	45.71
800.458	39.1
800.634	62.4
800.811	68.43
800.987	63.64
801.163	59.94
801.34	65.02
801.516	70.38
801.692	61.29
801.869	56.07
802.045	41.36
802.221	47.34
802.398	43.84
802.574	26.78
802.75	26.29
802.926	35.13
803.103	45.53
803.279	27.54
803.455	29.25
803.631	33.04
803.807	39.78
803.983	52.53
804.16	49.21
804.336	73.04
804.512	91.51
804.688	74.74
804.864	81.1
805.04	92.01
805.216	83.15
805.392	75.43
805.568	63.71
805.744	33.62
805.92	47.73
806.096	35.15
806.272	-2.48
806.448	-39.67
806.623	-14.81
806.799	7.68
806.975	13.76
807.151	31
807.327	39.3
807.503	38.1
807.678	56.42
807.854	50.21
808.03	63.7
808.206	68.69
808.381	67.96
808.557	64.03
808.733	55.2
808.908	43.8
809.084	24.29
809.26	19.29
809.435	22.69
809.611	4.36
809.787	14.96
809.962	-8.46
810.138	-22.49
810.313	-16.04
810.489	-40.14
810.664	-34.32
810.84	-18.2
811.015	-4.54
811.191	2.14
811.366	1.67
811.542	6.61
811.717	-1.24
811.892	8.92
812.068	19.84
812.243	27.38
812.419	34.76
812.594	51.5
812.769	55.39
812.944	75.04
813.12	60.03
813.295	79.48
813.47	54.87
813.645	66.59
813.821	44.5
813.996	5.51
814.171	4.27
814.346	-18.8
814.521	-9.81
814.697	-17.1
814.872	-14.06
815.047	7.09
815.222	-9.63
815.397	-9.38
815.572	-19.19
815.747	-8.48
815.922	8.61
816.097	5.21
816.272	30.55
816.447	24.81
816.622	29.74
816.797	27.3
816.972	27.56
817.147	34.14
817.322	45.06
817.496	43.76
817.671	24.69
817.846	17.19
818.021	11.79
818.196	7.2
818.371	6.82
818.545	9.63
818.72	15.95
818.895	14.99
819.069	19.25
819.244	13.22
819.419	9.18
819.594	21.02
819.768	22.29
819.943	23.85
820.117	23.09
820.292	23.11
820.467	20.72
820.641	15.77
820.816	13.11
820.99	12.91
821.165	14.43
821.339	15.25
821.514	13.91
821.688	11.61
821.863	11.86
822.037	11.58
822.212	10.66
822.386	10.7
822.56	13.38
822.735	13.39
822.909	14.07
823.084	15.15
823.258	16.93
823.432	20.42
823.606	25.55
823.781	26.96
823.955	23.76
824.129	23.88
824.303	18.63
824.478	21.57
824.652	26.09
824.826	22
825	20.72
825.174	17.18
825.348	9.3
825.523	7.12
825.697	1.76
825.871	6.79
826.045	6.59
826.219	13.13
826.393	14.18
826.567	11.88
826.741	16.59
826.915	21.53
827.089	23.55
827.263	32.04
827.437	32.99
827.611	40.87
827.784	41.62
827.958	42.51
828.132	41.54
828.306	40.82
828.48	41.27
828.654	37.77
828.827	29.31
829.001	30.13
829.175	28.4
829.349	20.12
829.522	14.65
829.696	9.69
829.87	11.43
830.044	15.59
830.217	7.01
830.391	6.73
830.565	25.41
830.738	33.45
830.912	36.04
831.085	38.73
831.259	40.97
831.432	44.18
831.606	47.81
831.779	41.77
831.953	42.29
832.126	42.65
832.3	37.52
832.473	29.32
832.647	23.93
832.82	22.72
832.994	22.68
833.167	24.23
833.34	18.59
833.514	12.71
833.687	14.56
833.86	14.15
834.034	9.14
834.207	5.09
834.38	11.22
834.553	14.35
834.727	11.3
834.9	2.28
835.073	0.84
835.246	7.07
835.419	14.3
835.593	24.14
835.766	22.97
835.939	22.65
836.112	28.93
836.285	19.28
836.458	13
836.631	20.12
836.804	38.94
836.977	45.85
837.15	39.38
837.323	25.34
837.496	21.67
837.669	29.11
837.842	38.86
838.015	53.15
838.188	56.83
838.361	53.56
838.533	53.16
838.706	61.89
838.879	57.2
839.052	50.76
839.225	54.92
839.398	50.71
839.57	54.99
839.743	39.43
839.916	36.26
840.088	26.08
840.261	31.11
840.434	40.17
840.607	25.29
840.779	38.96
840.952	51.2
841.124	37.69
841.297	59.42
841.47	34.81
841.642	77.04
841.815	94.5
841.987	76.31
842.16	107.11
842.332	215.61
842.505	228.64
842.677	268.24
842.85	-4366.67
843.022	-2318.75
843.194	950
843.367	-909.68
843.539	-256.47
843.712	-193.42
843.884	-313.58
844.056	-454.55
844.229	109.49
844.401	154.78
844.573	174.1
844.745	98.15
844.918	93.33
845.09	106.89
845.262	103.44
845.434	91.65
845.606	102.91
845.779	113.23
845.951	178.23
846.123	203.52
846.295	177.95
846.467	193.42
846.639	194.85
846.811	184.38
846.983	333.57
847.155	-153.03
847.327	-29.31
847.499	1866.67
847.671	-205.33
847.843	-786.36
848.015	-68.37
848.187	1.45
848.359	204.29
848.531	137.33
848.703	71.53
848.875	77.39
849.047	94.41
849.218	42.65
849.39	80.12
849.562	49.57
849.734	120.39
849.905	64.36
850.077	45.23
850.249	-226
850.421	216.13
850.592	-6.94
850.764	45.02
850.936	58.03
851.107	62.09
851.279	68.07
851.451	20.58
851.622	10.43
851.794	21.24
851.965	24.52
852.137	9.37
852.308	-7.31
852.48	11.29
852.651	-31.42
852.823	-5.71
852.994	4.71
853.166	-14.14
853.337	21.04
853.509	70.42
853.68	-30.19
853.851	218.92
854.023	37.5
854.194	39.62
854.365	63.57
854.537	102.65
854.708	121.21
854.879	189.04
855.05	203.75
855.222	1138.46
855.393	63.21
855.564	390.29
855.735	1082.61
855.906	258.96
856.078	-106.08
856.249	-63.3
856.42	-110.08
856.591	-482.93
856.762	-155.84
856.933	-132.79
857.104	-103.21
857.275	-160.66
857.446	54.15
857.617	-0.39
857.788	2.99
857.959	136.07
858.13	172.22
858.301	509.38
858.472	128.07
858.643	196.3
858.814	115.77
858.985	114.1
859.155	284
859.326	120.98
859.497	95.89
859.668	47.56
859.839	63.5
860.009	-25.51
860.18	137.17
860.351	-80
860.522	-341.67
860.692	160
860.863	-733.33
861.034	-70.51
861.204	186.36
861.375	37.11
861.546	-82.54
861.716	-1283.33
861.887	-368.75
862.057	1450
862.228	-527.78
862.398	-1587.5
862.569	315.19
862.739	234.4
862.91	642.42
863.08	111.52
863.251	-620
863.421	-118
863.592	712.9
863.762	1104
863.932	447.57
864.103	210.64
864.273	269.23
864.443	549.37
864.614	180.16
864.784	226.11
864.954	2168.75
865.125	227.92
865.295	123.35
865.465	-297.22
865.635	-30.3
865.805	-125
865.976	-542.86
866.146	10.47
866.316	126.63
866.486	219.05
866.656	142.93
866.826	178.34
866.996	182.39
867.166	204.82
867.336	233.24
867.506	220.39
867.676	212.56
867.846	168.21
868.016	380.49
868.186	8
868.356	-280
868.526	-166.25
868.696	1838.89
868.866	8.97
869.036	-10.39
869.206	-89.5
869.376	-23.72
869.545	3.78
869.715	12.16
869.885	126.85
870.055	-557.14
870.224	3450
870.394	-101.5
870.564	-158.33
870.734	26.02
870.903	10.24
871.073	-4.4
871.243	-9.01
871.412	-26.98
871.582	-5.92
871.751	-151.02
871.921	147.96
872.091	105.51
872.26	78.41
872.43	69.34
872.599	86.51
872.769	74.32
872.938	71.23
873.108	63.64
873.277	79.22
873.446	104.37
873.616	112.37
873.785	62.53
873.955	77.64
874.124	43.82
874.293	31.06
874.463	20.79
874.632	23.84
874.801	28.68
874.971	27.71
875.14	23.74
875.309	4.17
875.478	-15.67
875.647	17.1
875.817	-2.27
875.986	3.13
876.155	99.01
876.324	92.81
876.493	86.96
876.662	77.27
876.831	85.65
877	104.48
877.17	88.94
877.339	71.78
877.508	79.31
877.677	111.21
877.846	92.8
878.015	53.12
878.184	16.81
878.352	-207.69
878.521	-87.5
878.69	-100
878.859	34.08
879.028	109.41
879.197	127.61
879.366	59.94
879.534	35.08
879.703	32.9
879.872	27.28
880.041	23.07
880.21	24.84
880.378	14.95
880.547	12.61
880.716	6.54
880.884	3.15
881.053	-4.74
881.222	-7.41
881.39	-8.07
881.559	-8.58
881.727	-6.53
881.896	-0.63
882.065	1.98
882.233	-2.38
882.402	2.47
882.57	4.71
882.739	9.12
882.907	15.79
883.076	27.73
883.244	41.38
883.412	57.78
883.581	56.43
883.749	62.75
883.918	64.94
884.086	76.73
884.254	62.25
884.423	65.97
884.591	74.28
884.759	65.51
884.927	65.32
885.096	80.73
885.264	62.66
885.432	61.79
885.6	50
885.769	44.88
885.937	40.08
886.105	82.13
886.273	59.42
886.441	124.02
886.609	122.13
886.777	26.9
886.945	-61.4
887.113	-219.39
887.281	-191.95
887.449	2000
887.617	-2123.08
887.785	-79.49
887.953	91.43
888.121	-8.92
888.289	74.32
888.457	-254.1
888.625	-129.03
888.793	-88.71
888.961	-151.71
889.129	-225
889.296	-550
889.464	-376.92
889.632	-131.23
889.8	-158.79
889.967	-142.57
890.135	-292.16
