Data from JASIL_3273_Reflection_2.txt Node
Date: Tue Nov 17 19:02:55 EST 2015
User: Geneva
Spectrometer: USB4E03002
Autoset integration time: false
Trigger mode: 4
Integration Time (sec): 1.000000E-1
Scans to average: 10
Electric dark correction enabled: false
Nonlinearity correction enabled: false
Boxcar width: 5
Stray light correction enabled: false
XAxis mode: Wavelengths
Stop averaging: false
Number of Pixels in Spectrum: 3648
>>>>>Begin Spectral Data<<<<<
177.575	360.27
177.794	315.45
178.014	393.25
178.233	281.25
178.452	317.58
178.672	380.63
178.891	405.83
179.11	451.52
179.33	527.94
179.549	565.17
179.768	470.74
179.987	517.66
180.207	618.03
180.426	549.13
180.645	839.67
180.864	949.64
181.084	1358.71
181.303	-138400
181.522	-3418.67
181.741	-2485.44
181.96	-892.77
182.179	-808.36
182.398	-1109.48
182.618	-2433.64
182.837	-7997.06
183.056	-3960.87
183.275	2864.29
183.494	1176.32
183.713	1127.95
183.932	708.33
184.151	708.16
184.37	564.87
184.589	548.66
184.808	689.43
185.027	763.66
185.246	1402.44
185.465	1386.43
185.684	1898.64
185.903	4160.29
186.122	1951.06
186.341	-5346.94
186.56	-1016.53
186.779	-1089.86
186.998	-1002.24
187.216	-1332.18
187.435	-755.91
187.654	-625.72
187.873	-659.79
188.092	-570.02
188.311	-1104.8
188.53	-3584.72
188.748	-4361.9
188.967	1470.31
189.186	-3910.96
189.405	11353.85
189.623	-285300
189.842	1728.57
190.061	841.86
190.28	1143.75
190.498	1309.82
190.717	10281.48
190.936	291500
191.154	3346.51
191.373	3092.63
191.592	1201.72
191.81	1189.27
192.029	1159.43
192.248	-1875
192.466	-1521.79
192.685	-1158.15
192.904	-1160
193.122	-1937.21
193.341	-1440
193.559	-1126.82
193.778	-1019.92
193.996	-2505.5
194.215	-4383.08
194.433	-2612.96
194.652	1322.77
194.87	1522.92
195.089	1101.53
195.307	3609.88
195.526	-99233.33
195.744	315900
195.963	-3462.79
196.181	-1473.98
196.399	-818.02
196.618	-647.5
196.836	-1325
197.055	-1130.42
197.273	-3644
197.491	-1503.68
197.71	-2131.82
197.928	5791.84
198.146	-3725.71
198.365	-2314.16
198.583	11375
198.801	17018.75
199.019	-5472.55
199.238	-2639.05
199.456	9510
199.674	-1939.73
199.892	4033.78
200.111	-2731.13
200.329	-1435.61
200.547	-7834.21
200.765	1655.98
200.983	-35862.5
201.202	-8466.67
201.42	134050
201.638	-2413.46
201.856	-658.11
202.074	-601.4
202.292	-460.23
202.51	-810.71
202.728	-852.03
202.946	-848.37
203.165	-711.92
203.383	-1207.31
203.601	-1092.59
203.819	-880.92
204.037	-953.5
204.255	-11225
204.473	2152.89
204.691	1283.96
204.909	1382.93
205.127	1170.59
205.345	2423.21
205.562	-4095.08
205.78	-15600
205.998	2161.02
206.216	2048.06
206.434	2062.6
206.652	11330.43
206.87	4894
207.088	-4070.69
207.306	10439.13
207.523	-13635.29
207.741	13664.71
207.959	2070
208.177	2231.9
208.395	2005.26
208.612	-5234.69
208.83	4517.74
209.048	1896.05
209.266	2487.18
209.483	1455.02
209.701	1193.51
209.919	1514.08
210.136	932
210.354	1481.48
210.572	1537.07
210.79	-60420
211.007	1576.77
211.225	3184.95
211.442	2110.29
211.66	1396.62
211.878	2547.66
212.095	7189.47
212.313	5061.11
212.53	-1729.53
212.748	8318.18
212.966	-2022.05
213.183	-6397.5
213.401	-2385.45
213.618	53920
213.836	-2004.48
214.053	-1413
214.271	-1143.65
214.488	-1039.92
214.705	-1947.01
214.923	-2527.03
215.14	-3489.87
215.358	-5500
215.575	29360
215.793	-3314.1
216.01	-1568.15
216.227	-1045.99
216.445	-788.89
216.662	-2788.76
216.879	-1829.17
217.097	-1172.9
217.314	-1133.65
217.531	-1225.94
217.749	5103.7
217.966	7046.15
218.183	691.32
218.4	862.06
218.618	614.53
218.835	655.83
219.052	626.58
219.269	470.32
219.487	458.31
219.704	438.69
219.921	386.22
220.138	610.95
220.355	642.41
220.572	1080.62
220.79	688.01
221.007	731.11
221.224	478.91
221.441	503
221.658	616.99
221.875	672.43
222.092	674.87
222.309	674.93
222.526	405.78
222.743	378.03
222.96	409.7
223.177	460.8
223.394	372.66
223.611	484.05
223.828	531.47
224.045	415.77
224.262	413
224.479	345.33
224.696	339.41
224.913	424.45
225.13	463.99
225.347	500.17
225.564	379.18
225.781	427.18
225.997	368.69
226.214	261.71
226.431	227.35
226.648	202.28
226.865	181.54
227.082	155.31
227.298	128.43
227.515	114.57
227.732	110.21
227.949	110.62
228.165	101.75
228.382	95.73
228.599	102.54
228.816	110.97
229.032	113.52
229.249	116.31
229.466	126.18
229.682	132.93
229.899	143.69
230.116	155.45
230.332	163.49
230.549	178.48
230.765	206.17
230.982	195.46
231.199	191.52
231.415	201.04
231.632	234.17
231.848	232.7
232.065	248.54
232.281	248.47
232.498	232.08
232.714	210.16
232.931	216.66
233.147	194.05
233.364	192.5
233.58	193.72
233.797	200.45
234.013	186.41
234.23	175.8
234.446	172.32
234.662	153.24
234.879	153
235.095	163.33
235.312	159.08
235.528	174.92
235.744	180.89
235.961	188.4
236.177	176.13
236.393	190.37
236.61	200.13
236.826	208.83
237.042	229.36
237.258	234.76
237.475	212.19
237.691	219.31
237.907	193.1
238.123	193.96
238.339	178.5
238.556	160.58
238.772	149.65
238.988	138.29
239.204	128.36
239.42	121.37
239.636	113.62
239.853	108.15
240.069	95.16
240.285	87.28
240.501	81.66
240.717	77.98
240.933	70.62
241.149	64.71
241.365	63.33
241.581	60.2
241.797	62.48
242.013	61.85
242.229	59.54
242.445	66.68
242.661	68.14
242.877	68.5
243.093	70.27
243.309	73.48
243.525	79.03
243.741	80.16
243.957	80.75
244.173	73.85
244.388	70.08
244.604	66.92
244.82	60.56
245.036	56.36
245.252	52.38
245.468	49.17
245.683	45.93
245.899	43.55
246.115	41.66
246.331	40.48
246.547	39.38
246.762	38.5
246.978	38.95
247.194	40.43
247.409	41.63
247.625	43.79
247.841	45.56
248.057	50.74
248.272	54.68
248.488	63.37
248.703	65.68
248.919	73.12
249.135	79.35
249.35	81.1
249.566	81.62
249.782	79.98
249.997	82.65
250.213	83.46
250.428	78.61
250.644	77
250.859	72.75
251.075	73.34
251.29	70.45
251.506	72.05
251.721	73.02
251.937	71.05
252.152	74.57
252.368	77.33
252.583	83.95
252.798	92.66
253.014	97.53
253.229	103.4
253.445	106.52
253.66	120
253.875	119.78
254.091	117.7
254.306	122.14
254.521	128.04
254.737	123.15
254.952	114.74
255.167	109.46
255.383	104.25
255.598	100.07
255.813	99.13
256.028	89.16
256.244	89.56
256.459	85.63
256.674	78.94
256.889	75.69
257.104	67.23
257.32	59.93
257.535	51.67
257.75	50.62
257.965	46.69
258.18	42.62
258.395	39.43
258.61	35.56
258.826	33.07
259.041	31.17
259.256	29.42
259.471	30.34
259.686	30.96
259.901	31.93
260.116	31.88
260.331	31.87
260.546	32.6
260.761	34.62
260.976	37.71
261.191	42.49
261.406	47.11
261.621	53.28
261.836	54.14
262.05	55.76
262.265	58.3
262.48	58.28
262.695	61.79
262.91	65.1
263.125	69.22
263.34	72.76
263.555	72.05
263.769	68.61
263.984	65.19
264.199	64.77
264.414	65.78
264.629	71.31
264.843	70.18
265.058	66.43
265.273	63.35
265.488	59.62
265.702	56.21
265.917	53.8
266.132	54.01
266.346	53.52
266.561	52.61
266.776	49.24
266.99	45.09
267.205	44.99
267.42	47.29
267.634	46.6
267.849	45.7
268.063	47.2
268.278	47.67
268.492	48.42
268.707	45.98
268.922	45.92
269.136	44.07
269.351	43.03
269.565	40.53
269.78	40.34
269.994	40.3
270.209	41.78
270.423	41.16
270.637	40.35
270.852	38.77
271.066	40.74
271.281	41.2
271.495	41.86
271.709	41.54
271.924	42.74
272.138	40.65
272.353	40.51
272.567	40.34
272.781	39.28
272.996	41.04
273.21	42.02
273.424	40.77
273.638	41.79
273.853	42.36
274.067	43.26
274.281	43.89
274.495	45.39
274.71	45.69
274.924	46.09
275.138	47.11
275.352	45.47
275.566	44.64
275.781	44.31
275.995	43.01
276.209	46.34
276.423	45.41
276.637	43.78
276.851	43.34
277.065	41.86
277.279	42.29
277.493	44.43
277.707	49.54
277.921	48.28
278.135	49.68
278.349	49.82
278.563	48.17
278.777	48.33
278.991	48.16
279.205	48.46
279.419	50.41
279.633	49.43
279.847	45.04
280.061	40.89
280.275	41.23
280.489	40.58
280.703	38.92
280.917	38.89
281.131	39.03
281.344	40.73
281.558	40.15
281.772	39.38
281.986	38.14
282.2	38.71
282.414	37.27
282.627	38
282.841	38.33
283.055	38.09
283.269	37.65
283.482	37.75
283.696	36.25
283.91	35.66
284.123	34.16
284.337	34.49
284.551	34.3
284.764	33.9
284.978	34.31
285.192	32.71
285.405	33.22
285.619	32.08
285.833	31.93
286.046	32.53
286.26	32.81
286.473	33.32
286.687	32.81
286.9	34.55
287.114	36.35
287.327	34.86
287.541	36.12
287.754	36.42
287.968	36.61
288.181	36.18
288.395	35.51
288.608	35.25
288.822	35.53
289.035	35.15
289.248	33.69
289.462	32.19
289.675	32.5
289.889	32.69
290.102	32.76
290.315	33.62
290.529	32.61
290.742	33.5
290.955	35.09
291.169	33.69
291.382	35.09
291.595	34.58
291.808	35.99
292.022	36.64
292.235	36.27
292.448	34.52
292.661	32.31
292.875	32.44
293.088	30.93
293.301	30.2
293.514	30.65
293.727	28.89
293.94	29.73
294.153	29.41
294.367	29
294.58	27.59
294.793	27.14
295.006	27.33
295.219	27.51
295.432	27.47
295.645	26.04
295.858	26.57
296.071	26.6
296.284	26.6
296.497	25.38
296.71	25.13
296.923	25.77
297.136	25.81
297.349	26.6
297.562	27.33
297.775	28.74
297.988	30.02
298.201	30.4
298.414	30.92
298.626	30.43
298.839	31.45
299.052	32.16
299.265	33.67
299.478	33.79
299.691	33.31
299.903	32.45
300.116	32.31
300.329	31.72
300.542	30.5
300.755	30.21
300.967	30.8
301.18	31.46
301.393	31.65
301.605	30.41
301.818	31.62
302.031	32.82
302.243	33.3
302.456	32.35
302.669	31.81
302.881	34.22
303.094	34.54
303.307	34.27
303.519	34.65
303.732	34.68
303.944	34.4
304.157	34.94
304.37	34.93
304.582	35.17
304.795	34.79
305.007	37.25
305.22	35.09
305.432	36.05
305.645	36.73
305.857	35.27
306.069	34.35
306.282	34.34
306.494	34.12
306.707	33.36
306.919	31.23
307.132	32.4
307.344	29.81
307.556	30.6
307.769	30.08
307.981	30.24
308.193	30.95
308.406	30.84
308.618	30.19
308.83	29.51
309.043	28.81
309.255	29.65
309.467	29.09
309.679	28.72
309.892	28.92
310.104	28.2
310.316	27.14
310.528	25.86
310.74	25.84
310.953	27.13
311.165	26.9
311.377	27.66
311.589	28.94
311.801	28
312.013	28.93
312.225	28.85
312.437	29.9
312.649	31.42
312.862	32.4
313.074	32.87
313.286	33.42
313.498	34.28
313.71	34.16
313.922	32.39
314.134	33.62
314.346	33.39
314.558	34.36
314.77	34.97
314.982	35.13
315.193	34.7
315.405	35.55
315.617	32.51
315.829	32.2
316.041	31.84
316.253	32.24
316.465	32.23
316.677	32.64
316.888	32.27
317.1	32.8
317.312	32.18
317.524	33.07
317.736	34.3
317.947	38.31
318.159	39.82
318.371	40.08
318.583	41.67
318.794	42.82
319.006	44.21
319.218	44.73
319.43	45.15
319.641	45.96
319.853	46.39
320.064	44.3
320.276	44.88
320.488	43.89
320.699	46.11
320.911	46.87
321.123	47.24
321.334	48.29
321.546	48.64
321.757	47.63
321.969	48.37
322.18	49.11
322.392	50.82
322.603	48.67
322.815	48.88
323.026	48.25
323.238	47.31
323.449	47.55
323.661	45.1
323.872	45.92
324.083	45.12
324.295	44.75
324.506	45.07
324.718	43.57
324.929	45.64
325.14	46.78
325.352	46.65
325.563	46.97
325.774	46.1
325.986	48.45
326.197	48.15
326.408	48.97
326.62	47.26
326.831	47.18
327.042	48.39
327.253	48.28
327.464	47.94
327.676	48.37
327.887	48.28
328.098	51.24
328.309	51.63
328.52	52.13
328.732	53.97
328.943	56.13
329.154	56.28
329.365	57.15
329.576	56.47
329.787	58.13
329.998	58.51
330.209	59.66
330.42	57.59
330.631	57.7
330.842	57.4
331.053	57.77
331.264	57.93
331.475	58.13
331.686	57.94
331.897	59.03
332.108	58.2
332.319	59.9
332.53	60.74
332.741	61.55
332.952	60.74
333.163	59.74
333.374	57.47
333.585	58.12
333.795	58.65
334.006	59.58
334.217	58.53
334.428	57.94
334.639	57.12
334.849	57.05
335.06	55.91
335.271	56.29
335.482	56.77
335.692	57.32
335.903	55.81
336.114	55.22
336.325	55.12
336.535	56.54
336.746	56.78
336.957	57.99
337.167	58.19
337.378	58.49
337.589	59.09
337.799	58.95
338.01	60.63
338.22	61.95
338.431	62.66
338.642	61.77
338.852	60.01
339.063	61.14
339.273	59.63
339.484	57.49
339.694	57.37
339.905	56.33
340.115	56.83
340.326	54.89
340.536	54.4
340.746	53.29
340.957	53.99
341.167	55.15
341.378	54.57
341.588	55.35
341.799	56.43
342.009	57.53
342.219	58.39
342.43	58.19
342.64	59.19
342.85	59.56
343.061	60
343.271	58.51
343.481	57.37
343.691	57.23
343.902	55.82
344.112	56.25
344.322	54.39
344.532	53.72
344.743	53.74
344.953	53.6
345.163	52.81
345.373	52.3
345.583	53.04
345.793	53.13
346.004	53.27
346.214	54.2
346.424	52.94
346.634	54.33
346.844	54.16
347.054	53.68
347.264	54.57
347.474	55.7
347.684	55.89
347.894	54.86
348.104	54.4
348.314	53.44
348.524	53.78
348.734	54.07
348.944	52.8
349.154	53.82
349.364	53.5
349.574	52.31
349.784	52.01
349.994	52.95
350.204	54.86
350.413	55.29
350.623	55.52
350.833	55
351.043	55.18
351.253	55.85
351.463	54.42
351.672	54.28
351.882	53.62
352.092	52.16
352.302	51.2
352.511	49.42
352.721	48.39
352.931	48.99
353.141	47.73
353.35	47.04
353.56	46.84
353.77	46.32
353.979	47.53
354.189	48.12
354.399	48.92
354.608	46.99
354.818	46.92
355.027	48.42
355.237	47.23
355.447	47.84
355.656	47.75
355.866	47.85
356.075	48.66
356.285	47.22
356.494	47.29
356.704	46.56
356.913	47.59
357.123	48.22
357.332	47.29
357.542	47.76
357.751	47.1
357.96	47.26
358.17	46.81
358.379	46.22
358.589	46.99
358.798	46.94
359.007	46.88
359.217	46.97
359.426	46.23
359.635	45.93
359.845	45.07
360.054	45.12
360.263	44.78
360.472	43.96
360.682	43.89
360.891	43.11
361.1	42.13
361.309	42.1
361.519	41.9
361.728	41.86
361.937	42.33
362.146	42.52
362.355	43.51
362.564	42.96
362.774	43.45
362.983	43.77
363.192	44.1
363.401	44.67
363.61	44.54
363.819	44.32
364.028	43.93
364.237	43.78
364.446	44.31
364.655	43.02
364.864	44.06
365.073	44.31
365.282	44.27
365.491	43.23
365.7	43.32
365.909	43.6
366.118	44.64
366.327	45.23
366.536	45.64
366.745	45.35
366.954	46.98
367.162	46.33
367.371	45.71
367.58	46.17
367.789	47.54
367.998	46.55
368.207	47.53
368.415	46.42
368.624	46.64
368.833	45.44
369.042	45.88
369.25	45.83
369.459	46.84
369.668	47.01
369.877	46.65
370.085	47.05
370.294	47.55
370.503	47.42
370.711	47.24
370.92	46.69
371.129	47.8
371.337	47.45
371.546	46.12
371.754	45.81
371.963	46.42
372.171	46.67
372.38	46.61
372.589	47.92
372.797	47.66
373.006	48.18
373.214	48.21
373.423	47.01
373.631	47.5
373.84	48.16
374.048	47.46
374.256	47.26
374.465	46.56
374.673	45.49
374.882	44.68
375.09	44
375.298	43.21
375.507	43.77
375.715	44.04
375.923	43.86
376.132	42.97
376.34	42.93
376.548	41.61
376.757	40.92
376.965	40.77
377.173	40.36
377.381	40.49
377.59	40.81
377.798	40.11
378.006	39.81
378.214	39.54
378.423	40.1
378.631	39.84
378.839	40.68
379.047	41.74
379.255	42.63
379.463	42.81
379.671	42.32
379.879	43.01
380.088	43.33
380.296	43.48
380.504	42.71
380.712	42.19
380.92	42.63
381.128	41.87
381.336	40.83
381.544	40.88
381.752	40.79
381.96	41.22
382.168	40.62
382.376	40.22
382.584	40.8
382.791	40.82
382.999	41.32
383.207	40.84
383.415	41.67
383.623	42.03
383.831	41.78
384.039	41.65
384.247	41.34
384.454	41.2
384.662	41.45
384.87	40.18
385.078	40.2
385.285	39.71
385.493	39.63
385.701	39.71
385.909	39.39
386.116	39.15
386.324	38.44
386.532	38.38
386.739	38.68
386.947	38.91
387.155	38.95
387.362	39.37
387.57	39.07
387.778	38.81
387.985	38.39
388.193	39.39
388.4	39.39
388.608	40
388.816	40.06
389.023	39.32
389.231	38.18
389.438	37.73
389.646	37.59
389.853	37.14
390.061	37.17
390.268	37.04
390.475	36.08
390.683	35.66
390.89	35.23
391.098	34.92
391.305	35.2
391.512	35.3
391.72	36.27
391.927	35.68
392.135	35.74
392.342	35.92
392.549	35.72
392.756	35.72
392.964	35.49
393.171	35.53
393.378	35.65
393.586	35.13
393.793	35.86
394	35.48
394.207	35.34
394.414	35.27
394.622	34.67
394.829	34.84
395.036	35.14
395.243	35.1
395.45	35.06
395.657	34.58
395.864	34.92
396.072	34.4
396.279	34.53
396.486	34.96
396.693	35.39
396.9	35.25
397.107	35.38
397.314	35.18
397.521	34.95
397.728	35.22
397.935	35.99
398.142	35.76
398.349	35.5
398.556	35.25
398.763	34.85
398.97	34.52
399.177	34.91
399.383	34.71
399.59	34.75
399.797	35.26
400.004	34.92
400.211	34.03
400.418	34.47
400.625	34.58
400.831	35.03
401.038	34.94
401.245	35.01
401.452	34.86
401.658	35.02
401.865	35.09
402.072	35.17
402.279	35.1
402.485	35.31
402.692	34.22
402.899	34.14
403.105	33.09
403.312	33.34
403.519	33.06
403.725	32.74
403.932	32.33
404.138	31.59
404.345	31.43
404.552	31.45
404.758	31.95
404.965	32.04
405.171	31.5
405.378	32.01
405.584	31.87
405.791	31.56
405.997	32.03
406.204	32.47
406.41	32.71
406.617	32.61
406.823	32.76
407.029	31.97
407.236	31.75
407.442	31.48
407.649	32.02
407.855	31.41
408.061	31.9
408.268	31.77
408.474	31.28
408.68	31.88
408.887	31.73
409.093	30.87
409.299	30.81
409.505	31.91
409.712	32.21
409.918	31.62
410.124	31.98
410.33	31.95
410.537	32.14
410.743	32.04
410.949	31.31
411.155	31.26
411.361	31.53
411.567	31.92
411.773	31.35
411.98	32.27
412.186	32.32
412.392	32.38
412.598	31.84
412.804	31.94
413.01	31.84
413.216	32.17
413.422	32.08
413.628	32.02
413.834	31.72
414.04	31.88
414.246	30.77
414.452	30.34
414.658	30.54
414.864	30.17
415.07	29.54
415.275	29.22
415.481	28.47
415.687	28.26
415.893	28.17
416.099	27.84
416.305	27.76
416.511	27.67
416.716	27.39
416.922	27.26
417.128	27.79
417.334	27.94
417.539	28.02
417.745	28.01
417.951	27.62
418.157	27.41
418.362	27.37
418.568	26.82
418.774	26.75
418.979	26.76
419.185	26.33
419.391	25.65
419.596	25.12
419.802	24.93
420.008	24.69
420.213	22.48
420.419	22.63
420.624	22.66
420.83	22.78
421.035	22.95
421.241	22.72
421.446	22.8
421.652	23
421.857	23.1
422.063	23.19
422.268	23.19
422.474	25.43
422.679	25.12
422.885	24.81
423.09	24.71
423.295	24.46
423.501	24.63
423.706	24.51
423.911	24.52
424.117	24.56
424.322	24.39
424.527	24.48
424.733	24.7
424.938	25.15
425.143	25.27
425.349	25.32
425.554	25.59
425.759	25.91
425.964	26.16
426.169	25.81
426.375	25.97
426.58	26.15
426.785	26.78
426.99	26.48
427.195	26.36
427.4	26.34
427.605	26.37
427.811	26.26
428.016	25.83
428.221	25.77
428.426	25.93
428.631	25.86
428.836	26.28
429.041	25.73
429.246	25.61
429.451	25.77
429.656	26.12
429.861	25.92
430.066	26.2
430.271	26.2
430.476	26.03
430.681	26.29
430.886	26.24
431.09	25.78
431.295	25.87
431.5	25.98
431.705	25.79
431.91	25.56
432.115	25.17
432.32	24.54
432.524	24.74
432.729	24.81
432.934	24.7
433.139	24.59
433.343	24.56
433.548	24.3
433.753	24.22
433.958	23.94
434.162	24.24
434.367	24.76
434.572	24.94
434.776	24.65
434.981	24.5
435.186	24.41
435.39	24.33
435.595	23.98
435.799	24.05
436.004	23.98
436.209	23.99
436.413	23.52
436.618	23.36
436.822	23.08
437.027	23.13
437.231	23.39
437.436	22.97
437.64	23.16
437.845	23.27
438.049	23.55
438.253	23.55
438.458	23.39
438.662	23.44
438.867	23.44
439.071	23.57
439.275	23.44
439.48	23.14
439.684	23.28
439.888	22.93
440.093	22.69
440.297	22.51
440.501	22.4
440.706	22.44
440.91	22.35
441.114	22.24
441.318	22.29
441.523	22.22
441.727	22.22
441.931	22.64
442.135	22.85
442.339	23.2
442.543	23.14
442.748	23.02
442.952	22.53
443.156	22.58
443.36	22.75
443.564	22.66
443.768	22.26
443.972	22.06
444.176	21.37
444.38	21.35
444.584	21.24
444.788	21.05
444.992	21.05
445.196	21.15
445.4	20.96
445.604	20.94
445.808	20.82
446.012	21.03
446.216	21.03
446.42	21.33
446.624	21.5
446.828	21.6
447.032	21.6
447.235	21.63
447.439	21.81
447.643	21.98
447.847	21.91
448.051	22.15
448.254	22.16
448.458	22.13
448.662	22.1
448.866	21.93
449.069	22.23
449.273	22.07
449.477	22
449.681	22.02
449.884	21.86
450.088	21.94
450.292	21.7
450.495	21.8
450.699	22.1
450.902	22.14
451.106	22.24
451.31	21.72
451.513	21.95
451.717	21.97
451.92	21.99
452.124	22
452.327	21.81
452.531	22.11
452.734	22.17
452.938	21.84
453.141	21.75
453.345	21.42
453.548	21.28
453.752	21.47
453.955	21.38
454.158	21.51
454.362	21.68
454.565	22.02
454.769	21.58
454.972	21.42
455.175	21.58
455.379	21.54
455.582	21.68
455.785	22.01
455.988	21.48
456.192	21.68
456.395	21.68
456.598	21.44
456.801	20.81
457.005	21.13
457.208	21.04
457.411	20.86
457.614	20.85
457.817	20.41
458.021	19.85
458.224	19.97
458.427	19.61
458.63	19.51
458.833	19.49
459.036	19.47
459.239	19.26
459.442	19.38
459.645	19.29
459.848	19.19
460.051	19.21
460.254	19.51
460.457	19.66
460.66	19.85
460.863	19.75
461.066	19.74
461.269	19.74
461.472	20.02
461.675	19.77
461.878	19.86
462.081	20.06
462.284	19.96
462.486	20.11
462.689	20.3
462.892	20.44
463.095	20.72
463.298	20.72
463.5	20.73
463.703	20.69
463.906	20.92
464.109	21.28
464.311	21.39
464.514	22
464.717	21.96
464.92	21.82
465.122	21.6
465.325	21.55
465.528	21.53
465.73	21.88
465.933	21.61
466.135	21.5
466.338	21.29
466.541	21
466.743	20.84
466.946	20.64
467.148	20.44
467.351	20.57
467.553	20.77
467.756	20.38
467.958	19.85
468.161	19.66
468.363	19.57
468.566	19.77
468.768	19.72
468.971	19.33
469.173	19.58
469.375	19.32
469.578	19.69
469.78	19.66
469.983	19.84
470.185	20.37
470.387	20.57
470.59	20.52
470.792	20.56
470.994	21.31
471.196	21.69
471.399	21.37
471.601	21.39
471.803	20.57
472.005	20.13
472.208	20.44
472.41	19.99
472.612	19.93
472.814	20.36
473.016	20.21
473.218	19.81
473.421	19.99
473.623	20.01
473.825	20.28
474.027	20.57
474.229	20.33
474.431	19.95
474.633	20.51
474.835	20.36
475.037	19.96
475.239	20.14
475.441	19.97
475.643	19.8
475.845	20.06
476.047	19.87
476.249	20.08
476.451	20.26
476.653	20.32
476.855	19.9
477.057	20.11
477.258	19.93
477.46	19.4
477.662	19.35
477.864	19.14
478.066	18.75
478.268	18.71
478.469	18.75
478.671	18.74
478.873	18.73
479.075	18.43
479.276	18.12
479.478	18.28
479.68	18.14
479.882	17.94
480.083	17.7
480.285	17.63
480.487	17.26
480.688	16.81
480.89	16.54
481.091	16.4
481.293	16.15
481.495	16.09
481.696	15.89
481.898	15.76
482.099	15.65
482.301	15.74
482.502	15.54
482.704	15.55
482.905	15.5
483.107	15.32
483.308	15.25
483.51	15.41
483.711	15.28
483.913	15.29
484.114	15.44
484.315	15.46
484.517	15.42
484.718	15.56
484.92	15.61
485.121	15.62
485.322	15.94
485.524	15.97
485.725	15.99
485.926	16.04
486.127	15.95
486.329	15.81
486.53	15.75
486.731	15.63
486.932	15.57
487.134	15.67
487.335	15.83
487.536	15.74
487.737	15.94
487.938	16.03
488.139	16.16
488.341	16.31
488.542	16.43
488.743	16.77
488.944	16.8
489.145	16.96
489.346	16.86
489.547	16.9
489.748	17.01
489.949	16.7
490.15	16.41
490.351	16.3
490.552	16.22
490.753	16.39
490.954	16.06
491.155	16.28
491.356	16.3
491.557	16.48
491.758	16.46
491.959	16.56
492.159	16.88
492.36	17.22
492.561	17.41
492.762	17.76
492.963	17.73
493.164	18.17
493.364	18.52
493.565	18.94
493.766	18.92
493.967	19.02
494.167	19.07
494.368	19.12
494.569	19.25
494.769	19.67
494.97	19.44
495.171	19.49
495.371	19.37
495.572	19.05
495.773	18.89
495.973	19.12
496.174	19.2
496.375	19.23
496.575	18.89
496.776	18.74
496.976	18.65
497.177	18.88
497.377	18.8
497.578	18.9
497.778	18.9
497.979	18.7
498.179	18.52
498.38	18.58
498.58	18.59
498.78	19.07
498.981	19.44
499.181	19.59
499.382	19.69
499.582	19.65
499.782	19.83
499.983	19.87
500.183	20.14
500.383	20.19
500.584	20.3
500.784	20.53
500.984	20.53
501.184	20.46
501.385	20.26
501.585	20.47
501.785	20.58
501.985	20.82
502.185	21.01
502.386	21.3
502.586	21.42
502.786	21.8
502.986	21.63
503.186	21.67
503.386	21.61
503.586	21.97
503.786	21.78
503.987	22.37
504.187	22.45
504.387	22.6
504.587	22.54
504.787	22.49
504.987	22.07
505.187	22.15
505.387	22.31
505.587	22.12
505.786	22.26
505.986	22.48
506.186	22.03
506.386	21.93
506.586	21.9
506.786	22.1
506.986	22.3
507.186	22.43
507.386	22.56
507.585	22.84
507.785	22.9
507.985	22.55
508.185	22.27
508.384	22.27
508.584	22.33
508.784	22.72
508.984	22.61
509.183	22.69
509.383	22.68
509.583	22.6
509.782	22.23
509.982	22.59
510.182	22.6
510.381	22.8
510.581	22.82
510.781	22.59
510.98	22.18
511.18	22.23
511.379	22.19
511.579	22.13
511.778	22.19
511.978	22.53
512.177	22.43
512.377	22.4
512.576	22.43
512.776	22.36
512.975	22.51
513.175	22.79
513.374	23.02
513.573	23.14
513.773	23.17
513.972	23.32
514.172	23.24
514.371	23.54
514.57	23.38
514.77	23.37
514.969	23.6
515.168	23.93
515.367	23.73
515.567	23.59
515.766	23.39
515.965	23.54
516.164	23.33
516.364	23.17
516.563	22.77
516.762	22.84
516.961	22.98
517.16	22.92
517.359	22.61
517.559	22.66
517.758	22.65
517.957	22.98
518.156	23.03
518.355	23.29
518.554	23.68
518.753	23.72
518.952	23.94
519.151	23.76
519.35	24.1
519.549	24.33
519.748	24.43
519.947	24.58
520.146	24.37
520.345	24.37
520.544	24.41
520.743	24.04
520.942	24.28
521.141	24.53
521.339	24.74
521.538	24.33
521.737	24.4
521.936	24.47
522.135	24.26
522.333	24.32
522.532	24.15
522.731	24.01
522.93	23.73
523.129	23.63
523.327	23.45
523.526	23.55
523.725	23.61
523.923	23.5
524.122	23.39
524.321	23.37
524.519	23.33
524.718	23.59
524.917	23.44
525.115	23.59
525.314	23.62
525.512	23.49
525.711	23.1
525.909	23.04
526.108	22.87
526.306	22.61
526.505	22.47
526.703	22.25
526.902	21.86
527.1	21.72
527.299	21.58
527.497	21.42
527.696	21.44
527.894	21.44
528.092	21.38
528.291	21.5
528.489	21.67
528.688	21.69
528.886	21.84
529.084	22.14
529.283	22.35
529.481	22.53
529.679	22.61
529.877	22.74
530.076	22.93
530.274	23.17
530.472	23.08
530.67	23
530.869	23.15
531.067	23.07
531.265	22.89
531.463	22.8
531.661	22.7
531.859	22.69
532.057	22.57
532.255	22.62
532.454	22.64
532.652	22.8
532.85	22.97
533.048	22.93
533.246	23.04
533.444	23.23
533.642	23.31
533.84	23.58
534.038	23.86
534.236	23.97
534.434	24.07
534.632	24.17
534.83	24.17
535.027	23.98
535.225	23.87
535.423	23.82
535.621	23.78
535.819	23.82
536.017	23.84
536.215	23.74
536.412	23.76
536.61	23.79
536.808	23.89
537.006	24
537.203	24.28
537.401	24.43
537.599	24.64
537.797	24.71
537.994	24.95
538.192	24.82
538.39	25.12
538.587	25.05
538.785	25.02
538.983	24.78
539.18	24.4
539.378	24.06
539.575	23.91
539.773	23.7
539.97	23.81
540.168	23.66
540.366	23.66
540.563	23.52
540.761	23.53
540.958	23.42
541.155	23.43
541.353	23.54
541.55	23.72
541.748	24
541.945	24.16
542.143	24.15
542.34	24.33
542.537	24.41
542.735	24.41
542.932	24.58
543.129	24.83
543.327	25.03
543.524	25.31
543.721	25.33
543.919	25.16
544.116	25.19
544.313	25.24
544.51	25.01
544.708	24.89
544.905	24.99
545.102	25.05
545.299	24.89
545.496	24.85
545.693	24.92
545.891	24.96
546.088	25.28
546.285	25.18
546.482	25.07
546.679	25.36
546.876	25.75
547.073	26.24
547.27	26.35
547.467	26.6
547.664	26.85
547.861	26.93
548.058	27.21
548.255	26.8
548.452	27.47
548.649	27.93
548.846	27.97
549.043	27.95
549.24	27.74
549.437	27.9
549.633	28.08
549.83	28.2
550.027	28.12
550.224	28.53
550.421	29.09
550.618	28.76
550.814	28.66
551.011	28.93
551.208	29.06
551.405	29.26
551.601	29.37
551.798	29.57
551.995	29.41
552.191	29.55
552.388	29.14
552.585	28.95
552.781	28.99
552.978	28.93
553.175	28.99
553.371	29.01
553.568	29.01
553.764	29.28
553.961	29.2
554.157	29.56
554.354	29.58
554.55	29.88
554.747	30.31
554.943	30.49
555.14	30.46
555.336	30.2
555.533	29.98
555.729	29.95
555.926	29.76
556.122	30.05
556.318	29.64
556.515	30.15
556.711	30.51
556.907	30.82
557.104	31.19
557.3	31.79
557.496	31.95
557.693	32.16
557.889	32.51
558.085	32.85
558.281	33.24
558.478	33.62
558.674	33.09
558.87	32.84
559.066	32.8
559.262	32.77
559.459	32.7
559.655	33.15
559.851	33.55
560.047	33.35
560.243	33.31
560.439	32.89
560.635	32.83
560.831	33.11
561.027	33.36
561.223	33.44
561.419	33.41
561.615	33.43
561.811	33.74
562.007	33.49
562.203	33.52
562.399	33.08
562.595	33.29
562.791	33.47
562.987	33.46
563.183	33.35
563.379	33.35
563.575	33.14
563.771	32.97
563.966	32.59
564.162	32.72
564.358	32.97
564.554	33.27
564.75	33.12
564.945	33.1
565.141	33.34
565.337	33.71
565.533	33.67
565.728	33.91
565.924	34.27
566.12	34.35
566.315	34.46
566.511	34.71
566.707	35.25
566.902	35.46
567.098	35.92
567.293	36.33
567.489	36.25
567.684	36.64
567.88	36.85
568.076	36.59
568.271	36.78
568.467	37.07
568.662	37.09
568.858	36.93
569.053	37.22
569.248	36.91
569.444	36.47
569.639	36.62
569.835	36.31
570.03	36.4
570.225	36.68
570.421	36.84
570.616	36.59
570.812	36.47
571.007	36.46
571.202	36.66
571.397	37.22
571.593	37.38
571.788	37.38
571.983	38.09
572.178	38.59
572.374	38.85
572.569	38.79
572.764	39.41
572.959	39.62
573.154	39.59
573.35	39.27
573.545	39.34
573.74	39.61
573.935	39.68
574.13	39.24
574.325	38.96
574.52	38.94
574.715	38.92
574.91	38.82
575.105	38.87
575.3	39.13
575.495	39.7
575.69	39.79
575.885	40.18
576.08	40.31
576.275	41.1
576.47	41.08
576.665	41.41
576.86	42.13
577.055	42.32
577.25	42.71
577.444	43.23
577.639	43.58
577.834	43.49
578.029	43.15
578.224	43.8
578.418	43.6
578.613	43.63
578.808	43.91
579.003	43.3
579.197	43.44
579.392	43.62
579.587	43.91
579.781	43.92
579.976	44.27
580.171	44.98
580.365	44.78
580.56	45.15
580.755	45.84
580.949	46.31
581.144	47.21
581.338	47.43
581.533	47.55
581.727	47.57
581.922	47.69
582.116	47.96
582.311	47.74
582.505	48
582.7	48.08
582.894	47.99
583.089	47.24
583.283	47.24
583.478	47.23
583.672	47.27
583.866	47.34
584.061	47.25
584.255	47.05
584.449	47.25
584.644	46.95
584.838	46.68
585.032	46.78
585.226	46.85
585.421	46.76
585.615	46.83
585.809	46.72
586.003	46.4
586.198	46.55
586.392	46.09
586.586	46.18
586.78	46.53
586.974	47.1
587.168	47.24
587.363	47.82
587.557	48.18
587.751	48.45
587.945	48.56
588.139	49.08
588.333	49.43
588.527	50.67
588.721	50.58
588.915	51.1
589.109	50.35
589.303	50.2
589.497	50.1
589.691	50.05
589.885	50.25
590.079	50.09
590.273	49.84
590.466	49.19
590.66	48.5
590.854	48.22
591.048	47.45
591.242	48
591.436	48.34
591.629	48.61
591.823	48.88
592.017	49.03
592.211	49.58
592.404	49.67
592.598	50.1
592.792	50.27
592.986	51.18
593.179	51.63
593.373	51.08
593.567	51.02
593.76	50.7
593.954	50.55
594.147	50.42
594.341	49.72
594.535	50
594.728	49.63
594.922	49.22
595.115	48.49
595.309	48.52
595.502	49.02
595.696	49.14
595.889	48.85
596.083	48.67
596.276	48.55
596.47	48.97
596.663	49.12
596.856	49.86
597.05	50.51
597.243	50.96
597.437	50.95
597.63	51.03
597.823	50.88
598.017	51.88
598.21	52.53
598.403	52.52
598.596	52.53
598.79	52.32
598.983	52.27
599.176	52.06
599.369	51.72
599.563	52.13
599.756	51.93
599.949	51.71
600.142	51.01
600.335	50.18
600.528	50.01
600.722	50.51
600.915	50.48
601.108	49.86
601.301	50.3
601.494	50.85
601.687	50.84
601.88	51.06
602.073	51.14
602.266	51.39
602.459	51.48
602.652	51.25
602.845	50.77
603.038	50.42
603.231	50.32
603.424	49.73
603.617	49.25
603.809	48.68
604.002	48.58
604.195	49.07
604.388	48.69
604.581	48.81
604.774	49.64
604.966	50.24
605.159	50.86
605.352	51.37
605.545	52
605.737	52.54
605.93	53.36
606.123	53.49
606.316	53.41
606.508	53.72
606.701	54.58
606.894	53.9
607.086	53.76
607.279	52.95
607.471	52.99
607.664	52.8
607.857	52.51
608.049	52.62
608.242	52.9
608.434	52.51
608.627	51.94
608.819	51.15
609.012	51.07
609.204	50.55
609.397	51.49
609.589	51.44
609.782	51.38
609.974	51.83
610.166	51.5
610.359	51.71
610.551	51.98
610.743	53.03
610.936	53.41
611.128	54.33
611.32	54.75
611.513	54.36
611.705	54.52
611.897	54.76
612.09	54.5
612.282	54.82
612.474	54.28
612.666	54.54
612.858	54.62
613.051	54.57
613.243	54.97
613.435	55.06
613.627	55.12
613.819	55.06
614.011	56.29
614.203	56.81
614.395	56.35
614.588	57.05
614.78	56.98
614.972	57.37
615.164	57.89
615.356	57.21
615.548	56.76
615.74	56.81
615.932	56.41
616.124	55.07
616.315	55.24
616.507	55.39
616.699	55.58
616.891	55.32
617.083	54.66
617.275	53.82
617.467	53.98
617.659	54.55
617.85	54.7
618.042	55.42
618.234	55.99
618.426	55.71
618.618	56.11
618.809	55.83
619.001	55.95
619.193	56.02
619.384	56.65
619.576	56.19
619.768	56.56
619.959	55.8
620.151	55.48
620.343	55.25
620.534	55.1
620.726	54.83
620.917	55.23
621.109	54.99
621.301	54.84
621.492	54.79
621.684	55.08
621.875	55.43
622.067	56.69
622.258	56.81
622.45	56.44
622.641	56.46
622.832	56.56
623.024	55.24
623.215	55.27
623.407	55.29
623.598	55.19
623.789	55.55
623.981	55.31
624.172	53.67
624.363	53.61
624.555	53.51
624.746	53.78
624.937	53.47
625.129	53.84
625.32	53.99
625.511	54.55
625.702	54.26
625.893	53.27
626.085	52.74
626.276	53.59
626.467	53.69
626.658	53.48
626.849	53.2
627.04	53.15
627.231	53.57
627.422	53.68
627.614	52.91
627.805	53.2
627.996	54.23
628.187	54.7
628.378	54.8
628.569	54.53
628.76	55.32
628.951	55.75
629.142	56.43
629.332	56.2
629.523	55.91
629.714	56.1
629.905	55.91
630.096	55.38
630.287	55.53
630.478	54.74
630.669	54.91
630.859	54.72
631.05	54.73
631.241	54.48
631.432	54.78
631.623	54.39
631.813	53.94
632.004	53.65
632.195	53.92
632.385	53.46
632.576	54.43
632.767	54.72
632.957	54.21
633.148	53.32
633.339	53.66
633.529	53.3
633.72	53.65
633.91	53.82
634.101	54.32
634.292	54.18
634.482	54.35
634.673	54.4
634.863	53.89
635.054	54.74
635.244	55.35
635.435	55.18
635.625	54.75
635.815	55.31
636.006	55.91
636.196	55.91
636.387	55.72
636.577	56.34
636.767	56.65
636.958	56.96
637.148	56.37
637.338	56.71
637.529	57.29
637.719	58.37
637.909	57.96
638.099	57.59
638.29	57.45
638.48	57.84
638.67	56.47
638.86	56.14
639.05	56.14
639.241	56.67
639.431	56.34
639.621	55.12
639.811	54.69
640.001	54.78
640.191	55.74
640.381	56.19
640.571	56.22
640.761	56.87
640.951	56.8
641.141	56.94
641.331	57.24
641.521	57.61
641.711	58.84
641.901	58.16
642.091	58.56
642.281	57.94
642.471	57.63
642.661	58.74
642.851	59.02
643.041	58.91
643.231	58.73
643.42	58.07
643.61	57.65
643.8	57.33
643.99	58.4
644.18	57.45
644.369	58.1
644.559	58.84
644.749	57.75
644.939	57.25
645.128	56.98
645.318	56.87
645.508	57.7
645.697	57.74
645.887	57.59
646.076	56.91
646.266	58.04
646.456	57.4
646.645	56.83
646.835	56.72
647.024	57.25
647.214	57.4
647.403	57.3
647.593	56.08
647.782	56.2
647.972	55.59
648.161	56.81
648.351	56.17
648.54	56.42
648.73	56.34
648.919	56.94
649.108	56.88
649.298	57.25
649.487	57.65
649.677	58.37
649.866	58.46
650.055	58.6
650.244	57.87
650.434	57.86
650.623	57.39
650.812	56.92
651.002	55.54
651.191	54.9
651.38	54.56
651.569	54.06
651.758	54.28
651.947	54.35
652.137	54.5
652.326	54.41
652.515	54.4
652.704	55.91
652.893	56.03
653.082	57.39
653.271	57.62
653.46	58.06
653.649	58.52
653.838	58.81
654.027	58.73
654.216	59
654.405	59.2
654.594	59.52
654.783	58.68
654.972	59.74
655.161	59.48
655.35	60.66
655.539	60.11
655.728	60.04
655.916	59.43
656.105	59.3
656.294	59.57
656.483	59.85
656.672	59.08
656.86	58.67
657.049	57.33
657.238	57.09
657.427	56.71
657.615	56.76
657.804	57.01
657.993	55.98
658.181	55.85
658.37	55.23
658.559	54.64
658.747	55.07
658.936	55.03
659.125	56.49
659.313	56.86
659.502	56.18
659.69	56.49
659.879	56.45
660.067	57.55
660.256	57.62
660.444	57.82
660.633	58.81
660.821	59.81
661.01	60.62
661.198	59.82
661.387	60.07
661.575	60.17
661.763	59.92
661.952	60.58
662.14	60.42
662.328	61.07
662.517	61.7
662.705	60.41
662.893	59.9
663.082	58.9
663.27	59.13
663.458	59.11
663.646	59.47
663.834	59.12
664.023	58.84
664.211	60.51
664.399	60.25
664.587	60.12
664.775	61.6
664.963	60.76
665.152	60.58
665.34	61.68
665.528	61.55
665.716	61.37
665.904	62.62
666.092	62.15
666.28	60.48
666.468	59.94
666.656	59.97
666.844	59.55
667.032	60.24
667.22	60.58
667.408	59.62
667.596	59.78
667.784	59.27
667.971	59.14
668.159	59.21
668.347	59.16
668.535	59.08
668.723	58.83
668.911	58
669.098	57.67
669.286	58.41
669.474	58.36
669.662	58.91
669.849	60.34
670.037	60.14
670.225	60.53
670.413	61.89
670.6	62.68
670.788	63.2
670.976	63.65
671.163	63.34
671.351	62.94
671.538	63.81
671.726	62.39
671.913	62.08
672.101	62.01
672.289	61.09
672.476	59.67
672.664	58.37
672.851	57.6
673.039	57.83
673.226	58.08
673.413	58.17
673.601	57.05
673.788	57.71
673.976	57.61
674.163	58.53
674.35	59.36
674.538	59.68
674.725	61.15
674.912	61.97
675.1	61.57
675.287	61.84
675.474	61.34
675.662	61.67
675.849	61.07
676.036	61.9
676.223	60.95
676.411	60.64
676.598	60.66
676.785	60.66
676.972	59.74
677.159	60.28
677.346	60.29
677.533	60.33
677.721	59.73
677.908	59.91
678.095	59.07
678.282	58.14
678.469	57.65
678.656	57.08
678.843	56.46
679.03	57.25
679.217	56.89
679.404	56.43
679.591	56.55
679.778	56.33
679.964	56.39
680.151	55.57
680.338	56.95
680.525	57.54
680.712	58.42
680.899	58.42
681.086	58.39
681.272	59.76
681.459	60.69
681.646	60.79
681.833	61.63
682.02	61.53
682.206	62.8
682.393	62.38
682.58	61.98
682.766	62.15
682.953	63.02
683.14	62.92
683.326	61.02
683.513	60.95
683.7	62.15
683.886	62.48
684.073	62.7
684.259	62.85
684.446	62.84
684.632	63.83
684.819	63.03
685.005	62.27
685.192	62.28
685.378	62.87
685.565	63.27
685.751	62.33
685.938	62.57
686.124	62.92
686.31	62.51
686.497	62.71
686.683	62.26
686.87	62.82
687.056	63.48
687.242	62.85
687.429	63.13
687.615	63.14
687.801	62.47
687.987	62.82
688.174	62.96
688.36	63.72
688.546	64.43
688.732	65.42
688.918	65.02
689.105	65.25
689.291	66.71
689.477	67.6
689.663	66.8
689.849	67.56
690.035	66.88
690.221	66.92
690.407	67.07
690.593	66.12
690.779	65.46
690.965	66.42
691.151	66.56
691.337	66.41
691.523	65.14
691.709	66.95
691.895	67.27
692.081	66.75
692.267	67.45
692.453	67.24
692.639	67.96
692.825	68.48
693.011	68.79
693.196	68.28
693.382	68.09
693.568	68.76
693.754	67.53
693.94	67.64
694.125	68.4
694.311	68.27
694.497	67.84
694.682	68.26
694.868	68.61
695.054	67.83
695.239	69.46
695.425	69.41
695.611	68.33
695.796	67.46
695.982	67.31
696.168	65.69
696.353	63.67
696.539	62.35
696.724	61.18
696.91	60.06
697.095	59.91
697.281	57.75
697.466	56.95
697.652	57.24
697.837	57.08
698.023	56.51
698.208	57.5
698.393	57.83
698.579	59.06
698.764	59.15
698.949	59.4
699.135	59.47
699.32	60.69
699.505	61.65
699.691	61.81
699.876	62.12
700.061	62.66
700.246	62.36
700.432	63.51
700.617	64
700.802	64.38
700.987	65.45
701.172	67.75
701.358	67.47
701.543	67.58
701.728	68.27
701.913	67.88
702.098	69.21
702.283	70
702.468	71.22
702.653	71.47
702.838	72.96
703.023	73.57
703.208	70.81
703.393	71.94
703.578	72.75
703.763	73.66
703.948	76.86
704.133	76.16
704.318	75.97
704.503	74.33
704.688	73.42
704.873	73.12
705.057	72.94
705.242	73.63
705.427	73.34
705.612	73.02
705.797	72.59
705.981	71.4
706.166	72.65
706.351	74.1
706.536	74.68
706.72	73.95
706.905	73.83
707.09	74.3
707.274	74.44
707.459	73.74
707.644	73.14
707.828	73.04
708.013	73.37
708.197	72.52
708.382	71.86
708.567	71.57
708.751	71.11
708.936	69.93
709.12	69.34
709.305	68.93
709.489	67.98
709.673	68.64
709.858	68.21
710.042	68.07
710.227	68.25
710.411	68.64
710.596	68.63
710.78	70.29
710.964	70.71
711.149	70.53
711.333	70.75
711.517	72.29
711.702	71.63
711.886	71.93
712.07	71.47
712.254	70.5
712.438	69.28
712.623	67.32
712.807	67.47
712.991	66.67
713.175	66.33
713.359	66.33
713.544	65.57
713.728	66.35
713.912	65.42
714.096	64.84
714.28	65.65
714.464	65.79
714.648	68.22
714.832	66.27
715.016	67.05
715.2	67.37
715.384	68.48
715.568	68.88
715.752	68.99
715.936	70.37
716.12	70.88
716.304	70.88
716.488	71.5
716.671	71.66
716.855	72.63
717.039	72.75
717.223	73.03
717.407	74.02
717.59	76.01
717.774	76.14
717.958	76.32
718.142	76.03
718.325	77.52
718.509	77.85
718.693	78.66
718.877	79.6
719.06	80.29
719.244	78.88
719.428	76.82
719.611	76.31
719.795	75.58
719.978	75.52
720.162	77.23
720.345	76.53
720.529	76.51
720.713	76.98
720.896	76.49
721.08	76.73
721.263	78.86
721.446	77.1
721.63	76.42
721.813	77.34
721.997	76.59
722.18	75.88
722.364	75.29
722.547	74.39
722.73	74.55
722.914	74.93
723.097	75.64
723.28	77.46
723.464	79.4
723.647	78.53
723.83	78.67
724.013	80.16
724.197	81.15
724.38	81.38
724.563	82.19
724.746	80.68
724.929	81.68
725.112	79
725.296	77.67
725.479	78.82
725.662	79.23
725.845	80.52
726.028	80.33
726.211	80.13
726.394	80.02
726.577	79.92
726.76	78.81
726.943	77.39
727.126	79.64
727.309	78.16
727.492	76.99
727.675	77.71
727.858	76.49
728.041	76.18
728.224	74.89
728.407	72.77
728.589	71.48
728.772	72.84
728.955	73.36
729.138	73.72
729.321	74.85
729.503	75.38
729.686	75.62
729.869	75.79
730.052	76.4
730.234	77.71
730.417	79.18
730.6	79.1
730.782	77.39
730.965	76.84
731.148	75.75
731.33	75.05
731.513	74.82
731.695	74.73
731.878	74.42
732.061	73.25
732.243	73.56
732.426	71.93
732.608	74.22
732.791	74.62
732.973	75.52
733.156	75.78
733.338	75.35
733.52	75.43
733.703	76.18
733.885	75.93
734.068	76.53
734.25	76.96
734.432	79.74
734.615	78.88
734.797	82.1
734.979	82.94
735.162	83.46
735.344	86.03
735.526	86.99
735.708	84.98
735.891	86.72
736.073	87.14
736.255	88.1
736.437	88.84
736.619	89.25
736.802	86
736.984	84.87
737.166	86.1
737.348	85.55
737.53	85.46
737.712	86.25
737.894	83.7
738.076	84.24
738.258	82.75
738.44	82.18
738.622	78.91
738.804	80.82
738.986	80.11
739.168	78.97
739.35	78.31
739.532	78.27
739.714	79.84
739.896	81.68
740.078	82.94
740.259	82.8
740.441	84.34
740.623	87.32
740.805	89.09
740.987	92.14
741.168	93.86
741.35	96.75
741.532	96.86
741.714	94.98
741.895	94.62
742.077	91.58
742.259	90.84
742.44	90.05
742.622	90.43
742.804	88.61
742.985	86.26
743.167	82.91
743.348	80.01
743.53	80.57
743.711	82.21
743.893	82.19
744.075	85.38
744.256	86.44
744.438	88.22
744.619	89.2
744.8	88.52
744.982	91.52
745.163	95.07
745.345	96.63
745.526	96.35
745.707	94.12
745.889	93.62
746.07	93.98
746.252	94.74
746.433	92.88
746.614	92.43
746.795	94.07
746.977	92.56
747.158	90.86
747.339	90.11
747.52	88.82
747.702	90.25
747.883	93.98
748.064	92.58
748.245	90.91
748.426	92.38
748.607	94.37
748.788	97.05
748.97	96.25
749.151	96.88
749.332	97.53
749.513	97.84
749.694	95.57
749.875	92.49
750.056	92.82
750.237	96.05
750.418	96.62
750.599	92.51
750.78	88.01
750.96	88.88
751.141	89.96
751.322	89.77
751.503	90.4
751.684	94.44
751.865	97
752.046	95.76
752.226	94.39
752.407	92.26
752.588	94.62
752.769	96.64
752.949	95.19
753.13	93.93
753.311	95
753.492	94.17
753.672	92.91
753.853	93.63
754.034	93.25
754.214	94.83
754.395	94.34
754.575	97.17
754.756	95.84
754.937	100.05
755.117	99.3
755.298	99.44
755.478	100.08
755.659	96.37
755.839	94.44
756.02	95.2
756.2	94.07
756.381	96.68
756.561	95.24
756.741	95.5
756.922	92.33
757.102	91.42
757.283	91.88
757.463	93.09
757.643	95.92
757.823	95.03
758.004	95.31
758.184	93.86
758.364	94.03
758.545	93.03
758.725	93.57
758.905	92.63
759.085	96.28
759.265	92.95
759.446	91.28
759.626	91.98
759.806	90.38
759.986	91.47
760.166	90.19
760.346	89.55
760.526	89.88
760.706	88.72
760.886	86.84
761.066	83.64
761.246	82.76
761.426	79.25
761.606	77.25
761.786	77.43
761.966	76.06
762.146	76.64
762.326	76.16
762.506	74.63
762.686	74.76
762.866	74.93
763.046	74.15
763.225	74.69
763.405	78.09
763.585	77.31
763.765	76.31
763.945	75.8
764.124	75.02
764.304	75.36
764.484	77.4
764.664	79.84
764.843	79.97
765.023	81.87
765.203	82.63
765.382	82.46
765.562	84.93
765.741	86.89
765.921	87.7
766.101	89.58
766.28	87.69
766.46	85.33
766.639	83.69
766.819	85.29
766.998	84.65
767.178	85.12
767.357	83.25
767.537	84.45
767.716	85.73
767.896	88.59
768.075	89.62
768.254	89.54
768.434	91.88
768.613	93.54
768.792	94.36
768.972	93.97
769.151	96.09
769.33	97.89
769.51	98.08
769.689	99.85
769.868	99.37
770.047	102.9
770.226	104.86
770.406	105.55
770.585	106.11
770.764	107.94
770.943	111.89
771.122	111.88
771.301	114.18
771.48	112.64
771.66	112.73
771.839	111.01
772.018	106.8
772.197	110.43
772.376	113.48
772.555	110.42
772.734	110.73
772.913	113.56
773.092	110.75
773.271	110.16
773.449	112.15
773.628	109.53
773.807	107.28
773.986	110.08
774.165	109.23
774.344	107.37
774.523	106.72
774.701	109.18
774.88	105.48
775.059	107.22
775.238	106.98
775.417	107.57
775.595	109.67
775.774	115.25
775.953	111
776.131	107.1
776.31	107.1
776.489	108.31
776.667	109.06
776.846	109.51
777.025	107.98
777.203	109.66
777.382	108.56
777.56	109.09
777.739	107.05
777.917	111.13
778.096	114.86
778.274	112.73
778.453	113.96
778.631	110.29
778.81	110.81
778.988	115.29
779.166	113.47
779.345	114.96
779.523	113.86
779.702	115.54
779.88	111.91
780.058	109.77
780.237	109.4
780.415	111.87
780.593	114.36
780.771	115.72
780.95	115.42
781.128	120
781.306	119.79
781.484	121.5
781.662	122.47
781.841	126.52
782.019	129.16
782.197	136.12
782.375	130.41
782.553	129.13
782.731	129.13
782.909	130.44
783.087	125.74
783.265	128.15
783.443	129.53
783.621	129.04
783.799	131.19
783.977	128.81
784.155	125.73
784.333	130.48
784.511	128.03
784.689	129.05
784.867	128.2
785.045	132.35
785.223	130.29
785.4	124.17
785.578	121.99
785.756	118.76
785.934	119.24
786.112	121.19
786.289	116.3
786.467	110.7
786.645	109.54
786.823	107.29
787	107.45
787.178	106.07
787.356	106.18
787.533	103.05
787.711	104.36
787.889	104.25
788.066	104.76
788.244	106.03
788.421	111.54
788.599	112.25
788.776	112.98
788.954	111.81
789.131	110.6
789.309	116.37
789.486	121.61
789.664	119.93
789.841	125.24
790.019	122.94
790.196	120.91
790.373	121.85
790.551	121.24
790.728	120.59
790.906	123.49
791.083	122
791.26	121.05
791.437	123.96
791.615	125.56
791.792	123.15
791.969	123.68
792.146	121.74
792.324	123
792.501	128.5
792.678	128.26
792.855	130.37
793.032	137.35
793.209	133.54
793.387	130.12
793.564	129.82
793.741	124.96
793.918	124.72
794.095	129.58
794.272	129.59
794.449	124.71
794.626	129.15
794.803	117.3
794.98	114.59
795.157	116.99
795.334	118.46
795.511	118.74
795.688	120.77
795.864	119.3
796.041	120.02
796.218	120.81
796.395	118.49
796.572	113.75
796.749	118.21
796.925	119.97
797.102	117.97
797.279	116.95
797.456	115.9
797.632	113.22
797.809	114.23
797.986	112.16
798.162	109.34
798.339	111.64
798.516	111.65
798.692	112.27
798.869	111.37
799.046	112.15
799.222	113.05
799.399	111.98
799.575	120.58
799.752	122.16
799.928	126
800.105	130.34
800.281	129.97
800.458	135.29
800.634	138.76
800.811	141.27
800.987	145.24
801.163	143.97
801.34	145.98
801.516	142.01
801.692	138.23
801.869	134.06
802.045	133.33
802.221	133.47
802.398	134.28
802.574	137.63
802.75	137.29
802.926	137.96
803.103	143.77
803.279	142.42
803.455	142.08
803.631	144.12
803.807	159.39
803.983	155.86
804.16	157.13
804.336	157.82
804.512	149.93
804.688	145.4
804.864	147.26
805.04	144.59
805.216	143.85
805.392	140.96
805.568	139.61
805.744	132.9
805.92	137.11
806.096	129.46
806.272	129.04
806.448	132.49
806.623	136.41
806.799	132.67
806.975	130.15
807.151	128.42
807.327	132.28
807.503	132.75
807.678	135.14
807.854	142.8
808.03	152.9
808.206	146.37
808.381	140.93
808.557	148.05
808.733	149.11
808.908	152.03
809.084	161.78
809.26	164.41
809.435	163.34
809.611	158.08
809.787	147.89
809.962	151.13
810.138	159.38
810.313	164.89
810.489	154.55
810.664	158.98
810.84	154.05
811.015	156.74
811.191	154.4
811.366	160.16
811.542	158.7
811.717	153.61
811.892	154.05
812.068	147.43
812.243	147.46
812.419	147.72
812.594	141.23
812.769	142.09
812.944	141.64
813.12	142.36
813.295	141.73
813.47	144.32
813.645	151.86
813.821	142.32
813.996	143.05
814.171	143.32
814.346	150.19
814.521	153.34
814.697	153.68
814.872	151.23
815.047	140.08
815.222	134.18
815.397	133.72
815.572	128.66
815.747	135.64
815.922	139.83
816.097	138.48
816.272	137.46
816.447	137.33
816.622	133.12
816.797	129.05
816.972	134.86
817.147	141.15
817.322	139.31
817.496	139.43
817.671	133.32
817.846	130.41
818.021	125.87
818.196	118.41
818.371	115.1
818.545	118.67
818.72	118.58
818.895	115.5
819.069	108.8
819.244	104.04
819.419	99.1
819.594	96.66
819.768	91.42
819.943	87.49
820.117	81.56
820.292	76.48
820.467	70.4
820.641	67.69
820.816	63.79
820.99	61.32
821.165	59.34
821.339	57.47
821.514	55.52
821.688	55
821.863	53.5
822.037	51.98
822.212	51.38
822.386	52.12
822.56	51.66
822.735	52.5
822.909	53.47
823.084	53.92
823.258	54.98
823.432	55.22
823.606	55.68
823.781	56.94
823.955	60.12
824.129	61.72
824.303	63.59
824.478	64.8
824.652	66.51
824.826	67.23
825	69.31
825.174	67.81
825.348	70
825.523	69.85
825.697	71.27
825.871	71.99
826.045	71.56
826.219	69.44
826.393	69.08
826.567	68.56
826.741	69.34
826.915	69.47
827.089	71.64
827.263	72.41
827.437	74.79
827.611	74.83
827.784	74.44
827.958	75.23
828.132	76.36
828.306	79.69
828.48	80.54
828.654	79.47
828.827	81.68
829.001	84.62
829.175	84.58
829.349	87.67
829.522	93.42
829.696	95.91
829.87	99.59
830.044	103.14
830.217	104.23
830.391	109.16
830.565	115.27
830.738	112.16
830.912	110.61
831.085	114.34
831.259	110.49
831.432	104.71
831.606	103.6
831.779	101.99
831.953	101.47
832.126	96.08
832.3	93.14
832.473	90.8
832.647	92.65
832.82	95.6
832.994	93.4
833.167	93.98
833.34	93.51
833.514	90.73
833.687	93.3
833.86	92.94
834.034	96.09
834.207	95.95
834.38	93.69
834.553	94.08
834.727	91.14
834.9	92.11
835.073	92.27
835.246	94.75
835.419	100.15
835.593	101.12
835.766	102.95
835.939	106.56
836.112	112.89
836.285	122.52
836.458	124.58
836.631	127.94
836.804	129.77
836.977	137.09
837.15	143.67
837.323	145.51
837.496	145.62
837.669	150.47
837.842	142.82
838.015	139.27
838.188	129.84
838.361	127.35
838.533	125.35
838.706	128.6
838.879	125.58
839.052	119.41
839.225	125.53
839.398	122.64
839.57	125.78
839.743	127.05
839.916	132.25
840.088	134.85
840.261	139.15
840.434	140.35
840.607	140.32
840.779	139.39
840.952	153.84
841.124	148.81
841.297	159.39
841.47	153.35
841.642	161.53
841.815	160.87
841.987	185.25
842.16	184.75
842.332	191.95
842.505	211.64
842.677	231.6
842.85	227.62
843.022	256.75
843.194	288.14
843.367	311.7
843.539	301.73
843.712	298.48
843.884	252.19
844.056	279.14
844.229	306.24
844.401	304.46
844.573	309.87
844.745	295.48
844.918	271.47
845.09	270.82
845.262	284.74
845.434	282.09
845.606	304.72
845.779	288.29
845.951	281.76
846.123	290.8
846.295	256.93
846.467	249.16
846.639	268.99
846.811	252.5
846.983	228.5
847.155	239.27
847.327	240.85
847.499	235.14
847.671	268.85
847.843	267.09
848.015	248.96
848.187	260.67
848.359	290.05
848.531	283.75
848.703	287.61
848.875	288.94
849.047	268.73
849.218	309.21
849.39	291.61
849.562	302.45
849.734	303.91
849.905	291.37
850.077	325.21
850.249	279.02
850.421	266.72
850.592	266.95
850.764	255.06
850.936	250.95
851.107	244.47
851.279	264.87
851.451	251.17
851.622	244.18
851.794	290.44
851.965	278.03
852.137	288.33
852.308	333.96
852.48	346.8
852.651	338.99
852.823	342.01
852.994	275.19
853.166	266.04
853.337	270.79
853.509	276.06
853.68	253.85
853.851	238.21
854.023	226.52
854.194	219.01
854.365	214.95
854.537	240.55
854.708	241.29
854.879	271.73
855.05	278.26
855.222	282.59
855.393	292.19
855.564	282.68
855.735	293.77
855.906	333.33
856.078	311.78
856.249	313.75
856.42	320.87
856.591	314.54
856.762	326.2
856.933	354.15
857.104	385.75
857.275	360.43
857.446	385.59
857.617	385.52
857.788	443.78
857.959	531.87
858.13	511.08
858.301	546.04
858.472	499.22
858.643	426.16
858.814	385.73
858.985	352.9
859.155	370.62
859.326	344.4
859.497	347.61
859.668	298.52
859.839	246.24
860.009	233.27
860.18	224
860.351	240.8
860.522	263.37
860.692	243.14
860.863	274.42
861.034	295.21
861.204	284.25
861.375	279.72
861.546	293.62
861.716	329.99
861.887	388.33
862.057	375.83
862.228	323.35
862.398	318.06
862.569	342.22
862.739	313.06
862.91	276.32
863.08	273.95
863.251	266.54
863.421	281.8
863.592	252.86
863.762	241.13
863.932	248.76
864.103	218.67
864.273	209.54
864.443	211.36
864.614	223.51
864.784	222.7
864.954	219.5
865.125	246.12
865.295	220.25
865.465	264.1
865.635	252.19
865.805	249.56
865.976	300.71
866.146	312.37
866.316	308.96
866.486	296.87
866.656	288.56
866.826	290.05
866.996	259.23
867.166	244.82
867.336	247.52
867.506	286.13
867.676	269.95
867.846	299.73
868.016	303.91
868.186	308.79
868.356	263.04
868.526	308.56
868.696	336.14
868.866	363.47
869.036	485.71
869.206	454.89
869.376	412.39
869.545	443.22
869.715	410.76
869.885	374.09
870.055	349.21
870.224	346.29
870.394	276.44
870.564	274.79
870.734	264.3
870.903	261.17
871.073	267.55
871.243	258.33
871.412	239.34
871.582	264.2
871.751	249.69
871.921	239.15
872.091	251.99
872.26	260.98
872.43	233.82
872.599	230.66
872.769	211.51
872.938	208.84
873.108	218.14
873.277	240.36
873.446	227.27
873.616	254.5
873.785	266.31
873.955	264.33
874.124	288.84
874.293	347.42
874.463	360.28
874.632	372.73
874.801	309.65
874.971	271.72
875.14	237.91
875.309	236.61
875.478	209.92
875.647	228.27
875.817	217.85
875.986	201.69
876.155	180.24
876.324	180.88
876.493	176.3
876.662	187.21
876.831	208.85
877	223.16
877.17	227.95
877.339	271.14
877.508	245.13
877.677	244.11
877.846	250.33
878.015	256.81
878.184	236.69
878.352	264.01
878.521	295.01
878.69	274.21
878.859	266.31
879.028	249.34
879.197	244.46
879.366	205.6
879.534	192.89
879.703	180.11
879.872	166.56
880.041	159.62
880.21	134.9
880.378	116.31
880.547	106.55
880.716	98.3
880.884	91.82
881.053	83.78
881.222	80.92
881.39	75.85
881.559	71.87
881.727	69.02
881.896	65.38
882.065	67.21
882.233	67.48
882.402	66.92
882.57	65.81
882.739	65.58
882.907	67.71
883.076	68.34
883.244	73.46
883.412	75.89
883.581	78.65
883.749	80.47
883.918	81.3
884.086	82.56
884.254	88.55
884.423	91.33
884.591	95.22
884.759	97.22
884.927	101.44
885.096	105.22
885.264	109.2
885.432	112.74
885.6	122.61
885.769	124.1
885.937	141.69
886.105	145.77
886.273	159.46
886.441	169.63
886.609	173.45
886.777	177.51
886.945	169.57
887.113	175.95
887.281	177.31
887.449	173.81
887.617	182.29
887.785	178.74
887.953	181.96
888.121	181.21
888.289	188.06
888.457	214.36
888.625	234.67
888.793	230.8
888.961	249.85
889.129	257.08
889.296	303.78
889.464	313.19
889.632	293.97
889.8	287.68
889.967	291.47
890.135	338.19
