Data from JASIL_3171_Reflection_2.txt Node
Date: Thu Nov 12 22:58:46 EST 2015
User: Geneva
Spectrometer: USB4E03002
Autoset integration time: false
Trigger mode: 4
Integration Time (sec): 1.000000E-1
Scans to average: 10
Electric dark correction enabled: true
Nonlinearity correction enabled: false
Boxcar width: 5
Stray light correction enabled: false
XAxis mode: Wavelengths
Stop averaging: false
Number of Pixels in Spectrum: 3648
>>>>>Begin Spectral Data<<<<<
177.575	-131.55
177.794	-62.05
178.014	-86.64
178.233	-655.26
178.452	-88.16
178.672	-112.24
178.891	29.5
179.11	39.58
179.33	195.4
179.549	144.75
179.768	-1415.79
179.987	-514.86
180.207	-475.18
180.426	-1376.08
180.645	1522.81
180.864	1121.2
181.084	771.62
181.303	3607.16
181.522	772.64
181.741	350.63
181.96	603.53
182.179	551.68
182.398	1475.37
182.618	1212.35
182.837	-399.7
183.056	-212.67
183.275	-82.8
183.494	-104.72
183.713	-127.71
183.932	-68.19
184.151	-56.59
184.37	-41.71
184.589	-74.38
184.808	-100.18
185.027	-80.35
185.246	-102.62
185.465	-111.71
185.684	-92.47
185.903	-35.27
186.122	-47.08
186.341	-61.12
186.56	-99.98
186.779	-1207.34
186.998	-525.63
187.216	-218.74
187.435	-414.58
187.654	-1288.59
187.873	-1086.5
188.092	790.26
188.311	1695.62
188.53	5790.51
188.748	-8012.17
188.967	-375.06
189.186	-87.9
189.405	-135.42
189.623	-98.37
189.842	-72.97
190.061	-40.96
190.28	-83.78
190.498	-54.31
190.717	-77.51
190.936	-127.98
191.154	-107.25
191.373	-391.8
191.592	-196.94
191.81	-229.37
192.029	-1430.55
192.248	-518.66
192.466	-423.5
192.685	-416.39
192.904	-496.54
193.122	-464.62
193.341	-322.98
193.559	-626.55
193.778	-213.32
193.996	-396.24
194.215	-149.64
194.433	-128.33
194.652	-272.36
194.87	-226.18
195.089	-359.5
195.307	-389.47
195.526	-1197.48
195.744	5601.52
195.963	603.77
196.181	231.46
196.399	191.6
196.618	143.9
196.836	185.92
197.055	342.12
197.273	289.44
197.491	280.87
197.71	210.36
197.928	180.39
198.146	288.04
198.365	834.19
198.583	1121.37
198.801	1307.37
199.019	-497.78
199.238	-108.42
199.456	-353.5
199.674	-196.13
199.892	-492.5
200.111	-415.78
200.329	-365.31
200.547	-201.77
200.765	-422.7
200.983	-190.39
201.202	-111
201.42	-174.23
201.638	-106.03
201.856	-132.96
202.074	-133.22
202.292	-37.43
202.51	-61.06
202.728	-79.39
202.946	-127.56
203.165	-99.08
203.383	-210.92
203.601	-146.3
203.819	-133.21
204.037	-153.8
204.255	-108.4
204.473	-154.75
204.691	-156.85
204.909	-104.84
205.127	-67.93
205.345	-63.58
205.562	-68.02
205.78	-34.76
205.998	-53.62
206.216	-72.66
206.434	-148.04
206.652	-196.57
206.87	-141.37
207.088	-5918.75
207.306	-761.03
207.523	979.29
207.741	816.24
207.959	-2602.27
208.177	-522.8
208.395	-610.42
208.612	-237.78
208.83	-79.42
209.048	-73.09
209.266	-71.35
209.483	-12.83
209.701	-21.08
209.919	-22.91
210.136	10.59
210.354	-1.43
210.572	-12.68
210.79	14.06
211.007	18.22
211.225	-16.66
211.442	-28.11
211.66	-42.91
211.878	-68.86
212.095	88.92
212.313	56.7
212.53	78.4
212.748	69.93
212.966	77.89
213.183	80.58
213.401	92.55
213.618	98.28
213.836	95.69
214.053	91.11
214.271	79.83
214.488	-5324.68
214.705	-1272.42
214.923	-1133.1
215.14	-528.12
215.358	-470.3
215.575	-354.72
215.793	-355.39
216.01	826.72
216.227	-47245.45
216.445	-264.26
216.662	-289.05
216.879	-399.64
217.097	-212.15
217.314	-163.18
217.531	-252.15
217.749	-170.08
217.966	-137.17
218.183	-169.52
218.4	-159.21
218.618	-122.36
218.835	-127.97
219.052	-115.24
219.269	-96.58
219.487	-80.02
219.704	-99.59
219.921	-87.85
220.138	-123.73
220.355	-215.97
220.572	-97.8
220.79	-33.89
221.007	-56.12
221.224	-92.62
221.441	-85.58
221.658	-59.23
221.875	-35.63
222.092	-55.23
222.309	-27.82
222.526	-35.29
222.743	-33.95
222.96	-35.24
223.177	-122.21
223.394	-174.55
223.611	-76.46
223.828	-86.39
224.045	-78.68
224.262	-124.94
224.479	-109.82
224.696	-86.03
224.913	-78.15
225.13	-107.37
225.347	-100.43
225.564	-49.25
225.781	-31.44
225.997	-35.38
226.214	-30.03
226.431	-40.11
226.648	-32.45
226.865	-27.01
227.082	-34.82
227.298	-24.11
227.515	-6.12
227.732	2.04
227.949	-4.18
228.165	-0.38
228.382	-1.22
228.599	-3.31
228.816	-11.41
229.032	-12.7
229.249	-26.02
229.466	-14.4
229.682	-29.4
229.899	-36.93
230.116	-36.9
230.332	-45.91
230.549	-49.69
230.765	-40.62
230.982	-36.1
231.199	-12.33
231.415	-14.02
231.632	8.44
231.848	-6.13
232.065	-1.18
232.281	-7.71
232.498	-17.68
232.714	-13.58
232.931	-24.18
233.147	-43.38
233.364	-44.21
233.58	-56.96
233.797	-59.56
234.013	-70.22
234.23	-58.19
234.446	-69.32
234.662	-70.72
234.879	-75.38
235.095	-72.8
235.312	-89.95
235.528	-65.44
235.744	-73.62
235.961	-91.97
236.177	-101.99
236.393	-109.35
236.61	-107.83
236.826	-91.01
237.042	-96.56
237.258	-88.54
237.475	-104.49
237.691	-82.48
237.907	-92.88
238.123	-83.57
238.339	-60.88
238.556	-63.35
238.772	-72.3
238.988	-43.97
239.204	-27.45
239.42	-24.41
239.636	-19.46
239.853	-10.45
240.069	-19.35
240.285	-12.23
240.501	-6.37
240.717	-4.83
240.933	2.1
241.149	9.35
241.365	1.35
241.581	-2.56
241.797	3.49
242.013	1.92
242.229	4.11
242.445	10.04
242.661	7.61
242.877	1.19
243.093	2.49
243.309	-3.47
243.525	-0.92
243.741	0.01
243.957	-5.81
244.173	-8.34
244.388	-14.67
244.604	-10.93
244.82	-16.73
245.036	-18.27
245.252	-13.4
245.468	-8.43
245.683	-7.47
245.899	-10.86
246.115	-8.1
246.331	-5.77
246.547	-9.23
246.762	-8.36
246.978	-10.41
247.194	-11.38
247.409	-10.85
247.625	-13.79
247.841	-17.48
248.057	-16.85
248.272	-12.64
248.488	-17.46
248.703	-15.75
248.919	-14.24
249.135	-10.75
249.35	-11.27
249.566	-4.57
249.782	-5.66
249.997	-0.96
250.213	-0.17
250.428	-5.52
250.644	-20.36
250.859	-20.06
251.075	-23.95
251.29	-18.57
251.506	-18.57
251.721	-18.05
251.937	-22.16
252.152	-21.57
252.368	-25.82
252.583	-36.47
252.798	-31.13
253.014	-24.28
253.229	-24.47
253.445	-28.4
253.66	-31.03
253.875	-35.98
254.091	-37.43
254.306	-28.85
254.521	-34.66
254.737	-28.51
254.952	-20.39
255.167	-22.29
255.383	-21.58
255.598	-26.58
255.813	-17.7
256.028	-20.13
256.244	-21.63
256.459	-22.99
256.674	-24.97
256.889	-23.53
257.104	-17.05
257.32	-13.44
257.535	-11.69
257.75	-14.07
257.965	-8.2
258.18	-12.01
258.395	-13.94
258.61	-9.85
258.826	-6.61
259.041	-7.2
259.256	-6.62
259.471	-8.79
259.686	-10.71
259.901	-8.37
260.116	-5.8
260.331	-3.7
260.546	-1.4
260.761	1.1
260.976	0.72
261.191	-0.68
261.406	0.89
261.621	-2.42
261.836	-3.32
262.05	-6.06
262.265	-10.84
262.48	-3.56
262.695	-7.09
262.91	-7.86
263.125	-7.91
263.34	-6.3
263.555	-4.26
263.769	-8.41
263.984	-1.21
264.199	-1.02
264.414	6.44
264.629	6.52
264.843	-7.21
265.058	-8.71
265.273	-7.59
265.488	-13.53
265.702	-14.79
265.917	-17.41
266.132	-18.79
266.346	-15.74
266.561	-19.25
266.776	-21.52
266.99	-22.06
267.205	-16.26
267.42	-18.49
267.634	-19.42
267.849	-17.92
268.063	-16.05
268.278	-17.17
268.492	-16.28
268.707	-17.66
268.922	-14.78
269.136	-9.76
269.351	-4.29
269.565	-5.91
269.78	-2.86
269.994	-3.41
270.209	1.16
270.423	0.9
270.637	3.12
270.852	4.65
271.066	3.46
271.281	1.42
271.495	-3.37
271.709	-9.28
271.924	-11.05
272.138	-15.54
272.353	-18.26
272.567	-23.54
272.781	-23.8
272.996	-23.99
273.21	-25.82
273.424	-24.41
273.638	-18.01
273.853	-12.99
274.067	-12.13
274.281	-12.71
274.495	-10.62
274.71	-4.7
274.924	-1.08
275.138	-0.02
275.352	-2.98
275.566	-4.99
275.781	-8.41
275.995	-8.72
276.209	-16.69
276.423	-19.09
276.637	-17.13
276.851	-11.7
277.065	-18.78
277.279	-24.64
277.493	-27.22
277.707	-25.9
277.921	-21.39
278.135	-20.46
278.349	-16.39
278.563	-13.65
278.777	-12.1
278.991	-11.43
279.205	-15.98
279.419	-11.93
279.633	-10.09
279.847	-7.33
280.061	-7.05
280.275	-5.89
280.489	-7.55
280.703	-16.84
280.917	-12.65
281.131	-9.63
281.344	-12
281.558	-10.42
281.772	-7.89
281.986	-7.34
282.2	-8.98
282.414	-7.94
282.627	-8.95
282.841	-8.95
283.055	-3.6
283.269	-4.56
283.482	-6.18
283.696	-5.18
283.91	-4.63
284.123	-8.94
284.337	-6.39
284.551	-5.61
284.764	-3.82
284.978	-0.83
285.192	2.29
285.405	1
285.619	1.07
285.833	3.1
286.046	4.6
286.26	5.17
286.473	7.23
286.687	5.99
286.9	5.79
287.114	4.23
287.327	0.6
287.541	0.4
287.754	1.82
287.968	-1.08
288.181	-4.94
288.395	-7.56
288.608	-5.62
288.822	-6.65
289.035	-6.9
289.248	-8.14
289.462	-6.38
289.675	-4.39
289.889	-6.5
290.102	-6.02
290.315	-3.58
290.529	-2.54
290.742	-3.09
290.955	-4.83
291.169	-2.3
291.382	-0.43
291.595	1.23
291.808	2.25
292.022	1.9
292.235	3.18
292.448	0.16
292.661	-0.12
292.875	-0.45
293.088	0.74
293.301	-1.05
293.514	-4.32
293.727	-7.52
293.94	-10
294.153	-12.68
294.367	-12.9
294.58	-11.8
294.793	-11.84
295.006	-14.34
295.219	-11.26
295.432	-8.71
295.645	-8.89
295.858	-7.37
296.071	-6.04
296.284	-3.32
296.497	-1.39
296.71	-1.61
296.923	-1.82
297.136	-2.99
297.349	-1.44
297.562	-1.07
297.775	-2
297.988	0.07
298.201	0.83
298.414	1.84
298.626	1.99
298.839	0.52
299.052	2.33
299.265	3.08
299.478	7.25
299.691	5.71
299.903	4.43
300.116	4.64
300.329	5.63
300.542	3.72
300.755	3.31
300.967	0.47
301.18	-0.69
301.393	-1.58
301.605	-2.06
301.818	-4.66
302.031	-3.27
302.243	-3.37
302.456	-3.17
302.669	-4.61
302.881	-6.36
303.094	-7.12
303.307	-6.73
303.519	-4.48
303.732	-6.46
303.944	-8.49
304.157	-9.75
304.37	-10.72
304.582	-10.19
304.795	-12.39
305.007	-13.88
305.22	-11.21
305.432	-9.48
305.645	-10.58
305.857	-9.91
306.069	-7.1
306.282	-5.73
306.494	-1.18
306.707	1.53
306.919	0.12
307.132	-0.86
307.344	-1.31
307.556	-3.23
307.769	-6.91
307.981	-4.69
308.193	-6.84
308.406	-9.65
308.618	-8.29
308.83	-9.57
309.043	-12.52
309.255	-10.15
309.467	-9.79
309.679	-6.85
309.892	-2.52
310.104	-0.7
310.316	-3.19
310.528	-0.99
310.74	-0.18
310.953	-1.58
311.165	-1.36
311.377	3.73
311.589	3.86
311.801	4.17
312.013	0.73
312.225	-0.88
312.437	-0.94
312.649	-0.21
312.862	-1.09
313.074	-1.26
313.286	0.64
313.498	0.16
313.71	-6.24
313.922	-10.11
314.134	-9.91
314.346	-9.82
314.558	-12.96
314.77	-11.28
314.982	-8.63
315.193	-13.04
315.405	-15.65
315.617	-14.52
315.829	-14.74
316.041	-11.36
316.253	-8.31
316.465	-6.91
316.677	-4.4
316.888	-2.5
317.1	-1.92
317.312	-1.68
317.524	1.05
317.736	2.04
317.947	-3.44
318.159	-3.28
318.371	-1
318.583	-0.32
318.794	1.24
319.006	3.26
319.218	3.38
319.43	2.8
319.641	0.73
319.853	2.67
320.064	5.21
320.276	8.58
320.488	6.67
320.699	5.3
320.911	6.63
321.123	1.43
321.334	-4.98
321.546	-3.52
321.757	-3.62
321.969	-0.66
322.18	-4.09
322.392	-4.11
322.603	-3.7
322.815	-1.21
323.026	-2.38
323.238	-5.35
323.449	-1.5
323.661	1.53
323.872	0.02
324.083	-0.35
324.295	1.72
324.506	3.71
324.718	2.05
324.929	3.08
325.14	2.56
325.352	3.12
325.563	5.98
325.774	6.91
325.986	7.58
326.197	9.73
326.408	11.04
326.62	10.03
326.831	10.4
327.042	11.77
327.253	12.24
327.464	13.3
327.676	13.02
327.887	11.52
328.098	11.08
328.309	12.94
328.52	12.19
328.732	10.62
328.943	8.04
329.154	8.03
329.365	7.16
329.576	5.85
329.787	7.99
329.998	6.88
330.209	9
330.42	8.98
330.631	6.79
330.842	6.97
331.053	7.31
331.264	11.33
331.475	10.84
331.686	11.73
331.897	11.86
332.108	8.09
332.319	11.64
332.53	10.03
332.741	9.91
332.952	11.24
333.163	9.64
333.374	11.48
333.585	7.84
333.795	7.88
334.006	8.27
334.217	8.47
334.428	12.55
334.639	9.71
334.849	10.77
335.06	12.22
335.271	11.76
335.482	11.95
335.692	9.13
335.903	10.57
336.114	10.96
336.325	12.05
336.535	14.41
336.746	9.55
336.957	11.53
337.167	11.88
337.378	8.94
337.589	9.32
337.799	11.15
338.01	13.22
338.22	15.92
338.431	17.17
338.642	14.2
338.852	13.02
339.063	14.46
339.273	12.59
339.484	12.11
339.694	13.36
339.905	12.16
340.115	9.32
340.326	8.08
340.536	7
340.746	5
340.957	8.84
341.167	8.02
341.378	7.96
341.588	11.34
341.799	11.67
342.009	10.63
342.219	11.84
342.43	14.25
342.64	15.81
342.85	14.09
343.061	14.26
343.271	11.79
343.481	12.49
343.691	13.81
343.902	13.29
344.112	13.08
344.322	15.35
344.532	13.73
344.743	14.49
344.953	14.36
345.163	15.48
345.373	16.79
345.583	17.73
345.793	16.28
346.004	16.13
346.214	16.23
346.424	17.88
346.634	17.49
346.844	17.58
347.054	19.02
347.264	18.99
347.474	18.98
347.684	18.37
347.894	18.18
348.104	18.93
348.314	18.43
348.524	18.84
348.734	17.21
348.944	17.67
349.154	19.04
349.364	17.17
349.574	16.29
349.784	16.03
349.994	16.4
350.204	16.87
350.413	16.81
350.623	15.28
350.833	14.27
351.043	14.53
351.253	13.54
351.463	13.33
351.672	13.89
351.882	15.25
352.092	14.46
352.302	14.29
352.511	12.32
352.721	10.42
352.931	13.04
353.141	14.18
353.35	13.23
353.56	13.22
353.77	11.14
353.979	9.95
354.189	8.51
354.399	9.21
354.608	8.4
354.818	10.45
355.027	12.93
355.237	12.63
355.447	8.97
355.656	9.9
355.866	10.04
356.075	11.68
356.285	11.67
356.494	12.46
356.704	12.33
356.913	12.46
357.123	11.24
357.332	10.89
357.542	9.9
357.751	11.99
357.96	11.64
358.17	12.67
358.379	14.32
358.589	14.43
358.798	13.96
359.007	14.43
359.217	15.66
359.426	17.02
359.635	16.59
359.845	17.16
360.054	17.56
360.263	17.73
360.472	18.12
360.682	17.14
360.891	17.57
361.1	18.42
361.309	18.97
361.519	18.35
361.728	18.46
361.937	18.66
362.146	18.75
362.355	18.92
362.564	19.08
362.774	18.56
362.983	17.91
363.192	18.15
363.401	17.9
363.61	16.63
363.819	14.77
364.028	13.64
364.237	13.71
364.446	13.4
364.655	11.74
364.864	11.76
365.073	12.76
365.282	13.46
365.491	12.55
365.7	11.96
365.909	12.64
366.118	15.18
366.327	15.86
366.536	15.83
366.745	16.04
366.954	15.8
367.162	14.48
367.371	13.67
367.58	12.5
367.789	13.7
367.998	14.06
368.207	13.35
368.415	11.33
368.624	11.22
368.833	10.08
369.042	10.53
369.25	11.76
369.459	12.03
369.668	11.13
369.877	12.35
370.085	12.66
370.294	11.76
370.503	11.69
370.711	13.34
370.92	11.78
371.129	13.42
371.337	12.57
371.546	12.29
371.754	12.85
371.963	12
372.171	12.35
372.38	11.32
372.589	10.19
372.797	10.3
373.006	8.44
373.214	9.35
373.423	8.22
373.631	8.24
373.84	8.52
374.048	8.09
374.256	9.65
374.465	8.02
374.673	8.34
374.882	8.87
375.09	9.07
375.298	10
375.507	12.01
375.715	12.35
375.923	13.13
376.132	13.04
376.34	13.88
376.548	13.08
376.757	12.17
376.965	11.62
377.173	11.87
377.381	12.04
377.59	12.32
377.798	11.16
378.006	11.68
378.214	11.79
378.423	12.07
378.631	13.17
378.839	12.52
379.047	15.05
379.255	15.43
379.463	17.14
379.671	15.44
379.879	15.21
380.088	15.53
380.296	16.35
380.504	16.58
380.712	17.61
380.92	16.18
381.128	18.09
381.336	17.61
381.544	17.24
381.752	15.06
381.96	17.43
382.168	18.18
382.376	17.91
382.584	16.12
382.791	14.46
382.999	13.64
383.207	13.58
383.415	12.65
383.623	12.16
383.831	12.59
384.039	12.43
384.247	11.36
384.454	11.11
384.662	11.18
384.87	13.42
385.078	14.5
385.285	13.91
385.493	13.87
385.701	14.73
385.909	15.16
386.116	16.22
386.324	16.12
386.532	16.48
386.739	16.35
386.947	14.7
387.155	12.35
387.362	11.3
387.57	10.91
387.778	10.84
387.985	10.33
388.193	9.87
388.4	7.8
388.608	8.99
388.816	8.36
389.023	7.98
389.231	8.59
389.438	9.31
389.646	9.56
389.853	10.01
390.061	10.1
390.268	8.6
390.475	9.82
390.683	10.01
390.89	10.63
391.098	11.5
391.305	11.66
391.512	12.28
391.72	11.46
391.927	11.96
392.135	11.62
392.342	11.83
392.549	13.43
392.756	13.18
392.964	14.48
393.171	12.91
393.378	12.11
393.586	11.81
393.793	11.86
394	12.3
394.207	13.11
394.414	13.08
394.622	12.85
394.829	12.38
395.036	11.64
395.243	10.24
395.45	11.71
395.657	12.34
395.864	12.14
396.072	11.95
396.279	12.74
396.486	11.07
396.693	10.86
396.9	10.59
397.107	9.55
397.314	9.98
397.521	10.9
397.728	10.12
397.935	9.21
398.142	8.75
398.349	8.48
398.556	8.54
398.763	9.54
398.97	10.1
399.177	10.69
399.383	12.44
399.59	12.62
399.797	11.75
400.004	12.56
400.211	13.58
400.418	15.19
400.625	14.66
400.831	14.54
401.038	14.62
401.245	13.44
401.452	13.13
401.658	11.87
401.865	11.49
402.072	11.25
402.279	10.88
402.485	9.32
402.692	8.5
402.899	7.32
403.105	7.69
403.312	7.94
403.519	8.37
403.725	8.96
403.932	9.47
404.138	9.56
404.345	9.92
404.552	10.1
404.758	10.57
404.965	9.81
405.171	11.43
405.378	10.51
405.584	9.87
405.791	10.64
405.997	9.43
406.204	9.22
406.41	7.75
406.617	8.28
406.823	7.52
407.029	8.25
407.236	8.7
407.442	7.43
407.649	6.99
407.855	7.46
408.061	7.26
408.268	9.14
408.474	9.8
408.68	11.41
408.887	12.04
409.093	12.25
409.299	12.37
409.505	13.2
409.712	14.53
409.918	15.54
410.124	15.89
410.33	15.98
410.537	15.74
410.743	15.05
410.949	15.16
411.155	15.05
411.361	15.65
411.567	14.99
411.773	15.57
411.98	16.15
412.186	15.78
412.392	16.26
412.598	16.61
412.804	15.96
413.01	15.11
413.216	15.18
413.422	15.09
413.628	14.82
413.834	14.87
414.04	14.4
414.246	14.15
414.452	14.17
414.658	13.6
414.864	12.85
415.07	12.75
415.275	13.89
415.481	14.35
415.687	13.49
415.893	13.14
416.099	13.91
416.305	13.64
416.511	14.19
416.716	14.54
416.922	14.06
417.128	14.46
417.334	14.53
417.539	14.01
417.745	13.41
417.951	14.02
418.157	14.21
418.362	13.86
418.568	13.8
418.774	13.09
418.979	12.76
419.185	12.84
419.391	12.99
419.596	12.89
419.802	13.61
420.008	13.83
420.213	14.49
420.419	14.81
420.624	15.23
420.83	15.48
421.035	16.05
421.241	16.44
421.446	16.51
421.652	16.37
421.857	16.27
422.063	15.56
422.268	15.18
422.474	14.29
422.679	14.29
422.885	13.96
423.09	13.68
423.295	13.83
423.501	13.26
423.706	13.42
423.911	13.64
424.117	13.77
424.322	13.84
424.527	13.93
424.733	13.99
424.938	13.64
425.143	13.52
425.349	13.93
425.554	13.16
425.759	13.7
425.964	13.76
426.169	13.65
426.375	13.86
426.58	14.78
426.785	14.71
426.99	14.4
427.195	14.02
427.4	14.2
427.605	13.47
427.811	13.99
428.016	13.42
428.221	12.72
428.426	11.94
428.631	11.27
428.836	10.47
429.041	10.98
429.246	11.28
429.451	11.51
429.656	12.15
429.861	12.55
430.066	12.47
430.271	12.59
430.476	12.89
430.681	13.57
430.886	14.03
431.09	13.9
431.295	13.5
431.5	13.5
431.705	13.73
431.91	12.94
432.115	13.36
432.32	12.62
432.524	13.09
432.729	12.84
432.934	12.86
433.139	12.91
433.343	13.32
433.548	13.18
433.753	12.93
433.958	12.98
434.162	13.07
434.367	12.95
434.572	13.14
434.776	13.12
434.981	13.57
435.186	13.88
435.39	13.84
435.595	13.77
435.799	14.02
436.004	14.06
436.209	15.17
436.413	15.23
436.618	14.94
436.822	15.27
437.027	14.18
437.231	14.63
437.436	13.93
437.64	13.59
437.845	13.57
438.049	13.94
438.253	14.3
438.458	13.45
438.662	13.13
438.867	13.27
439.071	13.16
439.275	13.74
439.48	13.24
439.684	13.26
439.888	13.73
440.093	13.58
440.297	13.38
440.501	13.55
440.706	13.19
440.91	13.46
441.114	13
441.318	12.83
441.523	12.59
441.727	12.77
441.931	13
442.135	13.22
442.339	12.78
442.543	12.89
442.748	12.69
442.952	12.98
443.156	12.64
443.36	12.92
443.564	13.17
443.768	13.37
443.972	12.5
444.176	13.04
444.38	12.85
444.584	13.7
444.788	13.55
444.992	13.43
445.196	13.57
445.4	13.72
445.604	14.12
445.808	14.07
446.012	14.27
446.216	14.69
446.42	14.08
446.624	13.85
446.828	13.13
447.032	13.38
447.235	13.48
447.439	13.28
447.643	13.13
447.847	12.34
448.051	11.94
448.254	11.49
448.458	12.18
448.662	12.33
448.866	12.6
449.069	12.75
449.273	12.36
449.477	12
449.681	11.77
449.884	11.66
450.088	11.84
450.292	12.69
450.495	13.34
450.699	12.77
450.902	13.17
451.106	13.49
451.31	13.92
451.513	13.66
451.717	14.4
451.92	14.89
452.124	15.43
452.327	15.52
452.531	14.71
452.734	14.37
452.938	14.43
453.141	14.03
453.345	13.53
453.548	13.43
453.752	13.29
453.955	12.19
454.158	12.16
454.362	11.74
454.565	12.11
454.769	12.72
454.972	12.11
455.175	11.97
455.379	11.91
455.582	11.36
455.785	11.19
455.988	11.23
456.192	11.64
456.395	11.19
456.598	11.81
456.801	11.74
457.005	11.22
457.208	11.93
457.411	11.82
457.614	11.88
457.817	12.21
458.021	12.15
458.224	12.56
458.427	13.09
458.63	12.72
458.833	12.43
459.036	12.12
459.239	12.32
459.442	12.1
459.645	12.31
459.848	12.29
460.051	12.26
460.254	12.55
460.457	12.24
460.66	11.8
460.863	12.55
461.066	12.49
461.269	12.51
461.472	12.34
461.675	12.45
461.878	12.61
462.081	13
462.284	12.86
462.486	12.66
462.689	12.1
462.892	11.6
463.095	11.23
463.298	10.84
463.5	11.14
463.703	11.3
463.906	11.62
464.109	11.13
464.311	10.42
464.514	10.41
464.717	10.31
464.92	11.42
465.122	11.89
465.325	12.09
465.528	12.68
465.73	13.01
465.933	13.36
466.135	12.91
466.338	13.62
466.541	14.03
466.743	14.43
466.946	14.75
467.148	14.91
467.351	15.3
467.553	15.2
467.756	14.89
467.958	14.63
468.161	15.25
468.363	15.82
468.566	14.86
468.768	14.35
468.971	14.5
469.173	14.52
469.375	14.66
469.578	14.22
469.78	13.85
469.983	14.2
470.185	13.78
470.387	13.24
470.59	13.53
470.792	13.55
470.994	13.2
471.196	12.38
471.399	11.89
471.601	11.63
471.803	12.01
472.005	12.8
472.208	12.66
472.41	12.84
472.612	12.42
472.814	11.23
473.016	11.26
473.218	11.84
473.421	12.35
473.623	12.53
473.825	12.45
474.027	12.26
474.229	11.84
474.431	11.74
474.633	12.04
474.835	12.15
475.037	12.66
475.239	12.79
475.441	13.35
475.643	13.6
475.845	13.23
476.047	13.23
476.249	13.2
476.451	13.71
476.653	13.97
476.855	13.98
477.057	13.84
477.258	14.1
477.46	14.14
477.662	13.81
477.864	13.87
478.066	14.28
478.268	14.74
478.469	14.71
478.671	14.21
478.873	13.94
479.075	14.02
479.276	14.33
479.478	14.44
479.68	14.39
479.882	14.6
480.083	14.5
480.285	14.66
480.487	14.41
480.688	14.55
480.89	14.45
481.091	14.38
481.293	14.26
481.495	14.35
481.696	14.15
481.898	14.56
482.099	14.55
482.301	14.75
482.502	14.78
482.704	14.72
482.905	14.79
483.107	15.05
483.308	15.27
483.51	15.38
483.711	15.46
483.913	15.46
484.114	15.27
484.315	15.29
484.517	15.28
484.718	15.23
484.92	15.33
485.121	15.2
485.322	15.1
485.524	15.15
485.725	15.05
485.926	14.92
486.127	15.24
486.329	15.51
486.53	15.52
486.731	15.16
486.932	15.31
487.134	15.32
487.335	15.5
487.536	15.6
487.737	15.59
487.938	15.62
488.139	15.44
488.341	15.29
488.542	15.05
488.743	14.95
488.944	15.16
489.145	15.08
489.346	14.64
489.547	14.52
489.748	14.3
489.949	14.16
490.15	14.29
490.351	14.69
490.552	14.57
490.753	14.55
490.954	14.46
491.155	14.65
491.356	14.67
491.557	15
491.758	14.98
491.959	15.12
492.159	15.04
492.36	15.08
492.561	14.96
492.762	14.91
492.963	15.01
493.164	15.22
493.364	15
493.565	14.8
493.766	14.65
493.967	14.65
494.167	14.37
494.368	14.81
494.569	14.02
494.769	13.77
494.97	13.72
495.171	13.76
495.371	13.22
495.572	13.23
495.773	13.58
495.973	13.81
496.174	13.33
496.375	13.55
496.575	13.66
496.776	14.33
496.976	14.27
497.177	14.56
497.377	14.49
497.578	15
497.778	14.92
497.979	14.58
498.179	14.76
498.38	15.29
498.58	15.04
498.78	14.82
498.981	14.7
499.181	14.81
499.382	14.65
499.582	14.82
499.782	14.7
499.983	14.91
500.183	15.23
500.383	15.14
500.584	15.19
500.784	15.2
500.984	15.24
501.184	14.89
501.385	15.34
501.585	15.8
501.785	15.79
501.985	16.23
502.185	16.37
502.386	16.24
502.586	16.12
502.786	16.1
502.986	16.22
503.186	15.94
503.386	16.13
503.586	15.67
503.786	15.61
503.987	15.93
504.187	15.57
504.387	15.59
504.587	16.09
504.787	16.22
504.987	16.51
505.187	16.96
505.387	17.65
505.587	17.88
505.786	17.99
505.986	17.99
506.186	17.21
506.386	17.49
506.586	17.57
506.786	17.28
506.986	17.48
507.186	17.72
507.386	17.35
507.585	16.95
507.785	17.15
507.985	17.7
508.185	17.68
508.384	18.16
508.584	18.13
508.784	18.19
508.984	18.27
509.183	18.16
509.383	18.13
509.583	18.15
509.782	18.85
509.982	18.93
510.182	18.82
510.381	19.12
510.581	19.3
510.781	19.52
510.98	19.53
511.18	19.23
511.379	19.59
511.579	19.46
511.778	19.91
511.978	19.42
512.177	19.72
512.377	19.4
512.576	19.64
512.776	19.79
512.975	19.69
513.175	19.93
513.374	20.47
513.573	20.19
513.773	20.17
513.972	20.04
514.172	20.27
514.371	20.21
514.57	20.69
514.77	20.06
514.969	20.65
515.168	21.15
515.367	21.08
515.567	21.49
515.766	21.93
515.965	22.05
516.164	22.37
516.364	22.26
516.563	22.29
516.762	22.63
516.961	23.5
517.16	23.34
517.359	23.53
517.559	23.49
517.758	23.35
517.957	23.36
518.156	23.68
518.355	24.26
518.554	24.51
518.753	24.41
518.952	24.43
519.151	24.07
519.35	23.87
519.549	23.5
519.748	23.92
519.947	23.84
520.146	23.68
520.345	23.42
520.544	22.69
520.743	23.15
520.942	23.68
521.141	23.49
521.339	23.62
521.538	24.03
521.737	24.47
521.936	24.62
522.135	25.02
522.333	25.55
522.532	25.94
522.731	26.54
522.93	26.35
523.129	26.24
523.327	26.69
523.526	27.01
523.725	27.11
523.923	27.17
524.122	27.04
524.321	27.24
524.519	27.65
524.718	27.85
524.917	27.54
525.115	27.72
525.314	27.59
525.512	27.82
525.711	27.85
525.909	28.17
526.108	28.28
526.306	28.4
526.505	28.64
526.703	28.41
526.902	28.45
527.1	28.69
527.299	28.59
527.497	29.03
527.696	29.15
527.894	29.22
528.092	29.11
528.291	29.16
528.489	29.24
528.688	29.22
528.886	29.39
529.084	29.35
529.283	29.46
529.481	29.65
529.679	29.46
529.877	29.2
530.076	29.31
530.274	29.59
530.472	29.63
530.67	29.61
530.869	29.51
531.067	29.57
531.265	29.88
531.463	29.91
531.661	30.01
531.859	30.41
532.057	30.63
532.255	30.69
532.454	30.7
532.652	30.71
532.85	30.9
533.048	31.16
533.246	31.31
533.444	31.13
533.642	31.03
533.84	30.94
534.038	30.65
534.236	31.02
534.434	31.11
534.632	31.13
534.83	31.31
535.027	31.52
535.225	31.4
535.423	31.32
535.621	31.58
535.819	32.05
536.017	32.44
536.215	32.62
536.412	32.31
536.61	32.26
536.808	32.33
537.006	32.24
537.203	32.13
537.401	31.84
537.599	32.08
537.797	32.32
537.994	32.58
538.192	32.22
538.39	32.33
538.587	32.35
538.785	32.33
538.983	32.43
539.18	32.58
539.378	32.85
539.575	33.16
539.773	32.94
539.97	32.95
540.168	32.61
540.366	32.87
540.563	32.99
540.761	33.09
540.958	33.1
541.155	33.19
541.353	33.41
541.55	33.35
541.748	33.63
541.945	33.73
542.143	33.78
542.34	33.9
542.537	34.04
542.735	33.91
542.932	34.11
543.129	34.51
543.327	34.53
543.524	34.32
543.721	34.29
543.919	34.18
544.116	33.9
544.313	33.6
544.51	33.65
544.708	33.47
544.905	33.52
545.102	33.36
545.299	33.24
545.496	33.15
545.693	33.19
545.891	33.02
546.088	32.87
546.285	33.48
546.482	33.52
546.679	33.58
546.876	33.41
547.073	33.7
547.27	33.72
547.467	33.47
547.664	33.15
547.861	33.26
548.058	33.67
548.255	33.56
548.452	33.4
548.649	34.2
548.846	34.22
549.043	34.67
549.24	34.33
549.437	34.8
549.633	35.24
549.83	35.6
550.027	35.63
550.224	35.93
550.421	36.63
550.618	36.56
550.814	35.94
551.011	36.45
551.208	36.57
551.405	36.62
551.601	35.82
551.798	35.59
551.995	35.65
552.191	35.78
552.388	34.99
552.585	34.87
552.781	34.95
552.978	35.37
553.175	34.78
553.371	34.8
553.568	35.37
553.764	35.74
553.961	36.08
554.157	35.95
554.354	36.13
554.55	37.03
554.747	37.21
554.943	36.95
555.14	36.28
555.336	36.5
555.533	36.3
555.729	35.66
555.926	35.78
556.122	35.35
556.318	35.88
556.515	35.91
556.711	35.4
556.907	34.66
557.104	34.99
557.3	35.68
557.496	36.28
557.693	36.43
557.889	36.71
558.085	37.17
558.281	37.21
558.478	36.67
558.674	36.64
558.87	37.24
559.066	37.81
559.262	37.84
559.459	37.83
559.655	37.66
559.851	37.53
560.047	37.72
560.243	37.27
560.439	37.45
560.635	38.02
560.831	38.26
561.027	38.25
561.223	38.46
561.419	39.01
561.615	38.74
561.811	37.85
562.007	37.99
562.203	38.13
562.399	38.19
562.595	38.55
562.791	38.23
562.987	38.61
563.183	38.85
563.379	38.74
563.575	38.15
563.771	38.97
563.966	40.05
564.162	40.09
564.358	40.13
564.554	40.74
564.75	40.86
564.945	41.41
565.141	41.21
565.337	41.1
565.533	40.96
565.728	41.27
565.924	40.85
566.12	40.79
566.315	40.76
566.511	41.1
566.707	40.62
566.902	40.45
567.098	40.21
567.293	39.77
567.489	39.79
567.684	39.72
567.88	39.3
568.076	39.26
568.271	39.26
568.467	39.84
568.662	39.67
568.858	39.78
569.053	40.26
569.248	40.03
569.444	40.4
569.639	40.72
569.835	40.76
570.03	41.31
570.225	41.47
570.421	41.79
570.616	41.88
570.812	41.68
571.007	42.26
571.202	42.05
571.397	42.49
571.593	42.33
571.788	42.39
571.983	42.77
572.178	42.58
572.374	42.43
572.569	41.58
572.764	41.28
572.959	41.58
573.154	41.08
573.35	41.12
573.545	41.29
573.74	41.98
573.935	41.89
574.13	41.56
574.325	41.73
574.52	42.08
574.715	42.68
574.91	42.98
575.105	42.52
575.3	42.95
575.495	42.98
575.69	42.52
575.885	42.15
576.08	42.02
576.275	43.19
576.47	43.58
576.665	44.05
576.86	43.5
577.055	43.08
577.25	43.97
577.444	44.24
577.639	43.88
577.834	44.27
578.029	44.29
578.224	44.04
578.418	43.09
578.613	42.85
578.808	42.96
579.003	43.48
579.197	44.07
579.392	44.17
579.587	43.65
579.781	44.36
579.976	44.26
580.171	44.58
580.365	44.93
580.56	45.48
580.755	45.44
580.949	45.15
581.144	45.86
581.338	45.69
581.533	45.12
581.727	45.2
581.922	45.05
582.116	44.71
582.311	45
582.505	44.91
582.7	44.55
582.894	44.3
583.089	44.41
583.283	43.71
583.478	43.38
583.672	43.36
583.866	42.6
584.061	42.11
584.255	42.77
584.449	42.66
584.644	41.88
584.838	42.02
585.032	42.66
585.226	42.84
585.421	43.09
585.615	43.52
585.809	43.88
586.003	44.89
586.198	45
586.392	45
586.586	44.4
586.78	45.33
586.974	44.38
587.168	43.89
587.363	43.77
587.557	43.86
587.751	43.74
587.945	43.43
588.139	43.68
588.333	43.75
588.527	44.16
588.721	44.45
588.915	44.46
589.109	45.15
589.303	44.75
589.497	44.83
589.691	44.91
589.885	45.17
590.079	45.61
590.273	45.18
590.466	45.16
590.66	44.62
590.854	44.33
591.048	44.55
591.242	45.02
591.436	45.93
591.629	45.56
591.823	45.64
592.017	45.13
592.211	44.84
592.404	45.37
592.598	45.35
592.792	45.32
592.986	46.38
593.179	46.48
593.373	46.68
593.567	46.6
593.76	46.68
593.954	47.19
594.147	47.21
594.341	47.8
594.535	47.53
594.728	47.37
594.922	47.79
595.115	47.46
595.309	47.44
595.502	47.03
595.696	46.06
595.889	46.08
596.083	45.41
596.276	46.06
596.47	45.1
596.663	45.3
596.856	46.39
597.05	45.5
597.243	45.19
597.437	44.58
597.63	44.64
597.823	45.3
598.017	45.98
598.21	46.63
598.403	46.38
598.596	47.14
598.79	46.99
598.983	46.27
599.176	47.06
599.369	47.26
599.563	47.97
599.756	48.18
599.949	48.74
600.142	47.79
600.335	47.37
600.528	47.65
600.722	47.65
600.915	47.77
601.108	47.98
601.301	48.61
601.494	48.73
601.687	48.34
601.88	48.15
602.073	47.57
602.266	47.77
602.459	48.21
602.652	47.7
602.845	47.71
603.038	48.2
603.231	48.18
603.424	47.15
603.617	46.62
603.809	46.64
604.002	46.7
604.195	47.23
604.388	47.42
604.581	47.05
604.774	47.01
604.966	46.95
605.159	46.96
605.352	46.87
605.545	47.05
605.737	47.86
605.93	48.44
606.123	48.56
606.316	48.05
606.508	47.98
606.701	48.37
606.894	49.03
607.086	48.8
607.279	47.33
607.471	47.77
607.664	48.54
607.857	47.51
608.049	47.68
608.242	47.64
608.434	49.04
608.627	49.3
608.819	49.19
609.012	49.19
609.204	49.88
609.397	50.39
609.589	50.34
609.782	50.03
609.974	50.44
610.166	50.09
610.359	49.86
610.551	49.01
610.743	48.77
610.936	48.52
611.128	48.29
611.32	47.59
611.513	47.92
611.705	47.89
611.897	48.03
612.09	48.62
612.282	48.76
612.474	48.84
612.666	48.65
612.858	48.09
613.051	47.98
613.243	47.62
613.435	47.61
613.627	47.3
613.819	46.92
614.011	46.52
614.203	45.4
614.395	44.72
614.588	43.98
614.78	43.95
614.972	44.64
615.164	44.42
615.356	44.94
615.548	45.72
615.74	45.82
615.932	45.87
616.124	45.77
616.315	46.94
616.507	47.67
616.699	48.65
616.891	48.6
617.083	48.4
617.275	48.25
617.467	47.38
617.659	46.82
617.85	46.25
618.042	45.52
618.234	46.27
618.426	45.82
618.618	44.96
618.809	44.52
619.001	44.41
619.193	44.07
619.384	45.1
619.576	45.9
619.768	46.6
619.959	46.85
620.151	47.52
620.343	47.73
620.534	47.47
620.726	48.45
620.917	49.18
621.109	48.92
621.301	49.31
621.492	49.22
621.684	48.25
621.875	48.32
622.067	49.09
622.258	49.46
622.45	48.48
622.641	49.09
622.832	48.42
623.024	47.88
623.215	48.09
623.407	48.54
623.598	48.63
623.789	49.9
623.981	48.63
624.172	48.19
624.363	48.23
624.555	48.04
624.746	47.44
624.937	48.16
625.129	48.06
625.32	48.53
625.511	48.28
625.702	48.55
625.893	47.31
626.085	48.39
626.276	48.24
626.467	48.22
626.658	48.79
626.849	48.42
627.04	48.55
627.231	48.85
627.422	48.23
627.614	47.9
627.805	47.5
627.996	48.42
628.187	48.09
628.378	48.78
628.569	48.62
628.76	49.01
628.951	49.88
629.142	50.06
629.332	49.42
629.523	50.91
629.714	51.16
629.905	50.75
630.096	51.16
630.287	51.06
630.478	50.8
630.669	50.66
630.859	50.19
631.05	50.42
631.241	50.43
631.432	50.86
631.623	49.76
631.813	49.27
632.004	49.62
632.195	49.29
632.385	50.47
632.576	49.62
632.767	50.95
632.957	52.05
633.148	51.33
633.339	51.23
633.529	51.24
633.72	52.29
633.91	53.62
634.101	53.81
634.292	54.47
634.482	53.5
634.673	54.35
634.863	52.72
635.054	51.35
635.244	51.91
635.435	51.62
635.625	51.59
635.815	51.64
636.006	50.53
636.196	50.32
636.387	49.45
636.577	49.69
636.767	50.01
636.958	50.99
637.148	52.43
637.338	51.71
637.529	52.08
637.719	52.66
637.909	51.94
638.099	52.28
638.29	53.32
638.48	53.16
638.67	52.73
638.86	53.07
639.05	53.68
639.241	52.35
639.431	53.71
639.621	54.09
639.811	54.79
640.001	54.4
640.191	56.01
640.381	55.29
640.571	55.81
640.761	55.7
640.951	55.66
641.141	54.44
641.331	55.6
641.521	54.87
641.711	54.79
641.901	53.84
642.091	53.88
642.281	53
642.471	53.03
642.661	52.77
642.851	54.23
643.041	53.96
643.231	54.39
643.42	54.38
643.61	53.83
643.8	53.41
643.99	53.11
644.18	53.5
644.369	52.88
644.559	52.95
644.749	51.66
644.939	50.85
645.128	50.68
645.318	51.07
645.508	50.75
645.697	51.88
645.887	52.82
646.076	53.29
646.266	51.93
646.456	52.57
646.645	51.79
646.835	53.68
647.024	53.59
647.214	52.72
647.403	52.44
647.593	53.31
647.782	53.45
647.972	51.8
648.161	51.04
648.351	52.44
648.54	52.24
648.73	52.36
648.919	52.72
649.108	52.38
649.298	53.47
649.487	53.34
649.677	52.79
649.866	52.63
650.055	53.64
650.244	55.24
650.434	55.23
650.623	55.17
650.812	54.86
651.002	54.31
651.191	54.65
651.38	54.41
651.569	53.84
651.758	53.44
651.947	53.61
652.137	53.33
652.326	52.88
652.515	52.96
652.704	51.81
652.893	52.74
653.082	52.67
653.271	51.84
653.46	52.63
653.649	52.57
653.838	52.51
654.027	51.27
654.216	50.59
654.405	50.72
654.594	50.72
654.783	52.19
654.972	52.06
655.161	52.34
655.35	52.85
655.539	52.96
655.728	52.82
655.916	53.52
656.105	54.22
656.294	54.05
656.483	53.45
656.672	53.63
656.86	54.45
657.049	52.86
657.238	52.46
657.427	52.54
657.615	51.95
657.804	52.37
657.993	51.6
658.181	50.77
658.37	52
658.559	51.73
658.747	50.89
658.936	49.65
659.125	51.62
659.313	51.36
659.502	51.15
659.69	51.19
659.879	51.53
660.067	52.08
660.256	54.09
660.444	52.96
660.633	53.54
660.821	52.86
661.01	53.03
661.198	51.42
661.387	52.26
661.575	53.27
661.763	52.79
661.952	53.25
662.14	52.47
662.328	51.28
662.517	51.93
662.705	51.85
662.893	53.81
663.082	53.86
663.27	54.94
663.458	54.2
663.646	53.26
663.834	53.38
664.023	51.77
664.211	51.78
664.399	52.33
664.587	52.43
664.775	53.2
664.963	53.37
665.152	53.26
665.34	54.08
665.528	54.99
665.716	54.14
665.904	54.61
666.092	56.82
666.28	57.58
666.468	56.13
666.656	55.44
666.844	54.8
667.032	53.83
667.22	54.82
667.408	53.57
667.596	52.46
667.784	55.07
667.971	55.1
668.159	54.2
668.347	53.45
668.535	53.51
668.723	55.43
668.911	55.08
669.098	55.23
669.286	54.11
669.474	54.72
669.662	55.05
669.849	53.81
670.037	52.08
670.225	52.35
670.413	53.16
670.6	53.99
670.788	52.62
670.976	53.23
671.163	53.66
671.351	53.57
671.538	53.28
671.726	54.49
671.913	54.12
672.101	55.18
672.289	56.43
672.476	57.25
672.664	57.55
672.851	57.93
673.039	57.86
673.226	57.41
673.413	58.32
673.601	57.82
673.788	57.15
673.976	57.24
674.163	57.77
674.35	56.11
674.538	54.53
674.725	54.2
674.912	53.97
675.1	52.51
675.287	53.29
675.474	52.07
675.662	51.6
675.849	50.7
676.036	50.74
676.223	50.17
676.411	50.72
676.598	50.9
676.785	50.35
676.972	50.32
677.159	51.56
677.346	51.27
677.533	52.16
677.721	53.68
677.908	54.51
678.095	54.2
678.282	54.61
678.469	53.23
678.656	52.58
678.843	52.67
679.03	52.55
679.217	52.01
679.404	52.41
679.591	52.6
679.778	52.42
679.964	53.27
680.151	53.45
680.338	53.22
680.525	53.48
680.712	53.5
680.899	55.17
681.086	55.02
681.272	55.22
681.459	53.37
681.646	53.6
681.833	52.54
682.02	51.01
682.206	51.37
682.393	51.18
682.58	52.4
682.766	53.99
682.953	52.4
683.14	53.18
683.326	53.7
683.513	54.52
683.7	54.26
683.886	54.7
684.073	54.81
684.259	53.53
684.446	54.61
684.632	54.01
684.819	52.82
685.005	52.38
685.192	52.85
685.378	52.17
685.565	52.19
685.751	51.79
685.938	51.76
686.124	51.91
686.31	52.94
686.497	53.05
686.683	52.92
686.87	52.92
687.056	54
687.242	53.6
687.429	53.93
687.615	54.24
687.801	54.92
687.987	55.38
688.174	56.8
688.36	55.63
688.546	54.99
688.732	54.96
688.918	55.62
689.105	54.94
689.291	54.76
689.477	54.39
689.663	54.95
689.849	54.87
690.035	55.41
690.221	54.1
690.407	55.77
690.593	55.58
690.779	56.62
690.965	55.6
691.151	55.28
691.337	55.26
691.523	56.02
691.709	56.75
691.895	56.63
692.081	56.22
692.267	55.1
692.453	54.28
692.639	54.71
692.825	53.43
693.011	53.74
693.196	53.18
693.382	52.53
693.568	50.95
693.754	48.85
693.94	48.56
694.125	48.45
694.311	49.51
694.497	49.03
694.682	49.68
694.868	49.4
695.054	49.81
695.239	50.44
695.425	51.89
695.611	52.36
695.796	52.78
695.982	52.55
696.168	52.82
696.353	52.34
696.539	53.86
696.724	52.81
696.91	53.37
697.095	51.69
697.281	52.74
697.466	53.03
697.652	53.4
697.837	54.05
698.023	54.62
698.208	54.35
698.393	54.36
698.579	53.54
698.764	53.36
698.949	53.21
699.135	54.95
699.32	55.09
699.505	54.83
699.691	53.86
699.876	53.83
700.061	53.97
700.246	54.19
700.432	55.69
700.617	56.17
700.802	55.89
700.987	56.77
701.172	55.84
701.358	55.85
701.543	53.89
701.728	56.97
701.913	54.96
702.098	53.16
702.283	52.13
702.468	49.21
702.653	49.68
702.838	50.89
703.023	48.98
703.208	49.59
703.393	50.39
703.578	51.38
703.763	49.31
703.948	52.29
704.133	53.01
704.318	52.25
704.503	55.17
704.688	54.29
704.873	53.92
705.057	55.42
705.242	54.92
705.427	52.93
705.612	52.22
705.797	53.66
705.981	53.09
706.166	51.95
706.351	53.26
706.536	53.08
706.72	52.92
706.905	52.47
707.09	51.99
707.274	53.73
707.459	54.25
707.644	54.78
707.828	52.82
708.013	52.84
708.197	55.08
708.382	56.03
708.567	54.93
708.751	54.81
708.936	55.86
709.12	55.36
709.305	55.53
709.489	55.65
709.673	55.62
709.858	56.38
710.042	55.44
710.227	54.06
710.411	54.08
710.596	53.86
710.78	53.46
710.964	54.14
711.149	55.71
711.333	54.71
711.517	55.21
711.702	54.91
711.886	53.55
712.07	53.7
712.254	55.63
712.438	55.02
712.623	55.23
712.807	56.17
712.991	55.37
713.175	55.24
713.359	53.94
713.544	51.83
713.728	50.76
713.912	52.47
714.096	53.2
714.28	53.05
714.464	51.88
714.648	51.69
714.832	52.04
715.016	52.91
715.2	52.37
715.384	54.06
715.568	55.27
715.752	58.26
715.936	58.93
716.12	58.54
716.304	57.1
716.488	59.24
716.671	58.43
716.855	57.39
717.039	56.95
717.223	56.42
717.407	56.47
717.59	57.21
717.774	57.05
717.958	55.79
718.142	54.78
718.325	55.04
718.509	53.51
718.693	56.6
718.877	57.42
719.06	55.16
719.244	56.24
719.428	58.17
719.611	56.3
719.795	54.63
719.978	54.68
720.162	57.79
720.345	57.73
720.529	58.22
720.713	57.28
720.896	57.99
721.08	59.28
721.263	57.01
721.446	55.92
721.63	56.09
721.813	57.71
721.997	58.18
722.18	56.66
722.364	55.64
722.547	55.82
722.73	55.67
722.914	54.71
723.097	55.42
723.28	58.18
723.464	58.01
723.647	59.87
723.83	57.61
724.013	57.23
724.197	56.74
724.38	58.59
724.563	56.81
724.746	56.12
724.929	56.09
725.112	55.34
725.296	56.35
725.479	55.09
725.662	53.99
725.845	54.93
726.028	55.9
726.211	55.32
726.394	53.15
726.577	53.14
726.76	54.09
726.943	52.91
727.126	53.72
727.309	53.21
727.492	52.98
727.675	52.38
727.858	49.8
728.041	47.79
728.224	46.43
728.407	47.88
728.589	48.24
728.772	47.69
728.955	46.99
729.138	46.86
729.321	43.46
729.503	43.28
729.686	43.86
729.869	45.55
730.052	47.83
730.234	50.04
730.417	50.56
730.6	50.98
730.782	47.87
730.965	48.71
731.148	47.37
731.33	50.49
731.513	51.2
731.695	51.18
731.878	50.98
732.061	48.41
732.243	47.99
732.426	47.23
732.608	48.27
732.791	49.56
732.973	50.35
733.156	51.98
733.338	50.94
733.52	50.82
733.703	50.51
733.885	49.37
734.068	52.33
734.25	51.48
734.432	51.97
734.615	52.23
734.797	54.49
734.979	56.02
735.162	54.94
735.344	53.6
735.526	51.62
735.708	52.8
735.891	54.94
736.073	53.64
736.255	55.33
736.437	54.66
736.619	55.52
736.802	53.06
736.984	50.11
737.166	50.79
737.348	51.52
737.53	52.99
737.712	50.49
737.894	50.02
738.076	49.19
738.258	48.9
738.44	51.14
738.622	47.33
738.804	50.51
738.986	53.66
739.168	51.36
739.35	49.04
739.532	46.88
739.714	48.64
739.896	49.32
740.078	50.65
740.259	50.16
740.441	49.95
740.623	51.56
740.805	51.02
740.987	49.75
741.168	51.41
741.35	52.89
741.532	57.07
741.714	56.39
741.895	56.95
742.077	58.06
742.259	59.13
742.44	55.62
742.622	57.12
742.804	55.49
742.985	54.65
743.167	56.35
743.348	56.1
743.53	55.5
743.711	55.49
743.893	55.89
744.075	52.81
744.256	53.74
744.438	54.67
744.619	54.19
744.8	53.85
744.982	56.09
745.163	54.27
745.345	55.9
745.526	52.73
745.707	54.25
745.889	52.31
746.07	52.54
746.252	51.88
746.433	52.21
746.614	51.4
746.795	50.97
746.977	46.32
747.158	43.13
747.339	42.46
747.52	46.67
747.702	47.19
747.883	47.68
748.064	50.26
748.245	50.77
748.426	51.17
748.607	50.01
748.788	50.54
748.97	54.61
749.151	56.07
749.332	57.97
749.513	56.34
749.694	54.71
749.875	52.47
750.056	50.12
750.237	48.16
750.418	49.22
750.599	52.76
750.78	51.06
750.96	49.99
751.141	50.96
751.322	48.92
751.503	47.61
751.684	48.35
751.865	50.92
752.046	50.32
752.226	50.74
752.407	46.07
752.588	43.66
752.769	47.4
752.949	49.07
753.13	50.44
753.311	52.55
753.492	53.5
753.672	56.36
753.853	55.48
754.034	55.83
754.214	54.71
754.395	58.38
754.575	59.55
754.756	58.53
754.937	55.79
755.117	54.43
755.298	56.03
755.478	57.63
755.659	55.94
755.839	58.33
756.02	57.33
756.2	54.87
756.381	55.75
756.561	54.37
756.741	56.1
756.922	56.68
757.102	58.52
757.283	54.87
757.463	51.54
757.643	49.82
757.823	46.78
758.004	49.93
758.184	52.24
758.364	51.98
758.545	53.01
758.725	50.71
758.905	50.59
759.085	50.86
759.265	51.22
759.446	54.47
759.626	51.74
759.806	51.67
759.986	50.49
760.166	49.67
760.346	47.55
760.526	49.39
760.706	50.69
760.886	51.44
761.066	50.72
761.246	48.71
761.426	47.17
761.606	51.23
761.786	52.37
761.966	51.14
762.146	50.49
762.326	50.61
762.506	48.87
762.686	48.15
762.866	48
763.046	46.84
763.225	47.57
763.405	47.2
763.585	47.32
763.765	46.16
763.945	47.05
764.124	47.47
764.304	46.61
764.484	45.52
764.664	45.68
764.843	46.82
765.023	46.36
765.203	48.36
765.382	48.58
765.562	46.59
765.741	49.7
765.921	48.98
766.101	48.38
766.28	52.97
766.46	52.29
766.639	51.66
766.819	49.37
766.998	49.77
767.178	49.76
767.357	51.85
767.537	52.51
767.716	52.76
767.896	52.84
768.075	52.42
768.254	49.25
768.434	50.33
768.613	48.1
768.792	44.96
768.972	46.55
769.151	45.38
769.33	45.86
769.51	47.44
769.689	43.27
769.868	43.91
770.047	45.64
770.226	44.65
770.406	45.9
770.585	47.81
770.764	51.86
770.943	53.23
771.122	50.77
771.301	49.81
771.48	48.03
771.66	46.55
771.839	48.43
772.018	47.15
772.197	51.42
772.376	51.93
772.555	51.77
772.734	50.52
772.913	50.12
773.092	49.8
773.271	47.74
773.449	50.41
773.628	52.31
773.807	52.36
773.986	54.86
774.165	53.51
774.344	54.4
774.523	51.34
774.701	51.4
774.88	51.62
775.059	56.5
775.238	57.51
775.417	54.21
775.595	55.14
775.774	51.85
775.953	49.2
776.131	46.4
776.31	46.53
776.489	46.79
776.667	45.79
776.846	42.7
777.025	40.75
777.203	39.14
777.382	41.92
777.56	41.59
777.739	38.82
777.917	39.21
778.096	35.06
778.274	35.92
778.453	40.82
778.631	44.08
778.81	44.17
778.988	43.91
779.166	48.39
779.345	47.82
779.523	49.38
779.702	53.78
779.88	57.32
780.058	63.46
780.237	62.02
780.415	63.98
780.593	66.21
780.771	68.46
780.95	70.06
781.128	63.6
781.306	67.84
781.484	67.31
781.662	67.5
781.841	61.86
782.019	58.97
782.197	57.82
782.375	54.2
782.553	51
782.731	53.74
782.909	49.77
783.087	53.15
783.265	51.17
783.443	53.07
783.621	51.82
783.799	54.15
783.977	55.89
784.155	53.74
784.333	52.44
784.511	52.24
784.689	48.95
784.867	50.43
785.045	47.38
785.223	43.58
785.4	45.65
785.578	51.1
785.756	49.82
785.934	49.36
786.112	49.13
786.289	51.15
786.467	51.81
786.645	51.5
786.823	57.04
787	58.44
787.178	61.21
787.356	59.35
787.533	52.54
787.711	54.63
787.889	51.21
788.066	53.24
788.244	54.74
788.421	53.14
788.599	55.11
788.776	49.68
788.954	49.32
789.131	44.19
789.309	39.35
789.486	38.42
789.664	39.65
789.841	46.6
790.019	47.79
790.196	48.98
790.373	50.35
790.551	49.68
790.728	56.59
790.906	58
791.083	66.41
791.26	66.68
791.437	65.49
791.615	62.96
791.792	60.94
791.969	61.19
792.146	60.6
792.324	61.38
792.501	52.47
792.678	46.83
792.855	45.11
793.032	41.15
793.209	41.65
793.387	45.16
793.564	50.76
793.741	51.67
793.918	49.16
794.095	50.86
794.272	51.44
794.449	58.01
794.626	59.52
794.803	61.27
794.98	61.83
795.157	63.2
795.334	66.1
795.511	56.74
795.688	53.49
795.864	56.02
796.041	50.4
796.218	47.4
796.395	48.91
796.572	51.44
796.749	51.3
796.925	47.41
797.102	45.28
797.279	41.54
797.456	43.49
797.632	47.78
797.809	46.14
797.986	45.55
798.162	47.25
798.339	42.08
798.516	38.19
798.692	37.71
798.869	45.09
799.046	50.27
799.222	52.07
799.399	52.74
799.575	45.15
799.752	41.9
799.928	43.8
800.105	44.83
800.281	50.34
800.458	52.75
800.634	52.85
800.811	49.61
800.987	47.73
801.163	46.87
801.34	45.42
801.516	45.48
801.692	46.69
801.869	49.3
802.045	47.88
802.221	44.74
802.398	42.58
802.574	35.2
802.75	32.64
802.926	33.9
803.103	30.1
803.279	32.79
803.455	38.94
803.631	40.05
803.807	38.45
803.983	32.8
804.16	31.84
804.336	33.93
804.512	42.51
804.688	46.55
804.864	42.02
805.04	48.27
805.216	45.87
805.392	44.13
805.568	49.61
805.744	50.23
805.92	53.94
806.096	49.46
806.272	39.89
806.448	35.28
806.623	37.7
806.799	35.91
806.975	29.23
807.151	32.55
807.327	38.23
807.503	33.29
807.678	32.11
807.854	32.43
808.03	36.03
808.206	41.39
808.381	40.73
808.557	34.18
808.733	40.71
808.908	46.89
809.084	43.31
809.26	41.23
809.435	40.86
809.611	39.76
809.787	44.86
809.962	47.26
810.138	43.25
810.313	44.38
810.489	49.74
810.664	48.33
810.84	51.38
811.015	53.14
811.191	49.88
811.366	52.67
811.542	58.23
811.717	52.01
811.892	50.15
812.068	56.08
812.243	54.42
812.419	48.86
812.594	38.37
812.769	32.18
812.944	30.93
813.12	32.28
813.295	27.77
813.47	27.73
813.645	21.02
813.821	24.93
813.996	27.75
814.171	26.2
814.346	29.14
814.521	38.85
814.697	36.01
814.872	36.85
815.047	30.79
815.222	33.76
815.397	34.28
815.572	41.09
815.747	37.49
815.922	40.31
816.097	43.88
816.272	47.43
816.447	46.85
816.622	44.25
816.797	50.85
816.972	55.25
817.147	52.96
817.322	51.11
817.496	46.98
817.671	42.01
817.846	36.22
818.021	37.54
818.196	35.82
818.371	33.93
818.545	35.98
818.72	29.37
818.895	27.89
819.069	33.03
819.244	32.94
819.419	35.91
819.594	36.29
819.768	35.98
819.943	33.12
820.117	32.82
820.292	34.61
820.467	36.73
820.641	37.22
820.816	38.8
820.99	38.18
821.165	38.89
821.339	38.47
821.514	39.79
821.688	39.11
821.863	40.71
822.037	40.14
822.212	38.93
822.386	38.31
822.56	39.04
822.735	39.62
822.909	39.91
823.084	39.88
823.258	39.93
823.432	40.12
823.606	40.82
823.781	39.08
823.955	39.5
824.129	39.8
824.303	40.18
824.478	39.57
824.652	35.6
824.826	33.49
825	32.19
825.174	32.87
825.348	32.82
825.523	33.7
825.697	33.11
825.871	34.78
826.045	36.3
826.219	36.95
826.393	35.64
826.567	39.99
826.741	41.62
826.915	42.26
827.089	41.05
827.263	37.99
827.437	37.91
827.611	38.41
827.784	33.81
827.958	32.57
828.132	33.26
828.306	33.1
828.48	29.09
828.654	29.17
828.827	29.07
829.001	31.99
829.175	36.76
829.349	35.04
829.522	34.89
829.696	37.28
829.87	37.69
830.044	38.3
830.217	37.36
830.391	31.02
830.565	29
830.738	24.94
830.912	20.38
831.085	19.66
831.259	17.09
831.432	20.78
831.606	22.67
831.779	23.53
831.953	20.16
832.126	26.55
832.3	33.02
832.473	33.71
832.647	35.97
832.82	39.85
832.994	34.82
833.167	36.85
833.34	36.7
833.514	38.01
833.687	39.21
833.86	38.59
834.034	36.69
834.207	34.09
834.38	34.05
834.553	36.54
834.727	34.9
834.9	37.18
835.073	40.48
835.246	41.28
835.419	39.2
835.593	37.92
835.766	39.42
835.939	37.31
836.112	41.13
836.285	41.97
836.458	41.74
836.631	43.45
836.804	43.95
836.977	36.32
837.15	33.53
837.323	34.02
837.496	31.51
837.669	23.75
837.842	21.59
838.015	20.94
838.188	22.89
838.361	13.88
838.533	7.06
838.706	17.01
838.879	25.79
839.052	14.78
839.225	12.4
839.398	18.26
839.57	26.24
839.743	27.95
839.916	30.38
840.088	25.63
840.261	32.97
840.434	41.38
840.607	43.41
840.779	41.49
840.952	49.84
841.124	48.34
841.297	45.28
841.47	48.07
841.642	49.67
841.815	41.2
841.987	42.83
842.16	35.86
842.332	22.91
842.505	16.05
842.677	17.78
842.85	19.47
843.022	16.04
843.194	11.76
843.367	0.64
843.539	2.31
843.712	19.7
843.884	9.75
844.056	9.67
844.229	4.31
844.401	-5.54
844.573	-5.37
844.745	-3.49
844.918	15.02
845.09	29.01
845.262	32.86
845.434	27.54
845.606	11.28
845.779	18.95
845.951	28.48
846.123	34.46
846.295	41.27
846.467	43.16
846.639	40.28
846.811	24.67
846.983	17.66
847.155	9
847.327	16.8
847.499	21.1
847.671	15.38
847.843	8.83
848.015	-0.28
848.187	-3.23
848.359	-25.95
848.531	-36.69
848.703	-16.79
848.875	-17.72
849.047	-15.96
849.218	-16.39
849.39	-42.5
849.562	-19.61
849.734	-24.14
849.905	-31.81
850.077	-23.26
850.249	-6.05
850.421	-14.8
850.592	-52.96
850.764	-63.08
850.936	-50.48
851.107	-66.72
851.279	-42.71
851.451	-20.93
851.622	-9.65
851.794	34.71
851.965	-8.49
852.137	2.25
852.308	26.31
852.48	36.51
852.651	9.47
852.823	3.34
852.994	-25.35
853.166	-28.62
853.337	-45.45
853.509	-41.54
853.68	-74.11
853.851	-34.4
854.023	-43.16
854.194	-42.23
854.365	-81.89
854.537	-23.82
854.708	-20.67
854.879	3.48
855.05	22.15
855.222	22.47
855.393	16.27
855.564	11.64
855.735	0.02
855.906	5.17
856.078	-8.63
856.249	13.72
856.42	-4.48
856.591	-6.24
856.762	-9.97
856.933	-6.69
857.104	-15.14
857.275	0.3
857.446	17.55
857.617	10.15
857.788	13.97
857.959	24.83
858.13	20.05
858.301	20.3
858.472	25.74
858.643	29.83
858.814	7.65
858.985	13.29
859.155	-9.65
859.326	-21.19
859.497	-8.83
859.668	-32.89
859.839	-34.22
860.009	-60.12
860.18	-67.47
860.351	-63.94
860.522	-45.83
860.692	-45.34
860.863	-62.85
861.034	-49.88
861.204	-84.95
861.375	-118.32
861.546	-15.45
861.716	-68.95
861.887	-20.95
862.057	3.67
862.228	25.88
862.398	9.99
862.569	22.72
862.739	-0.59
862.91	-1.3
863.08	-3.31
863.251	10.8
863.421	8.31
863.592	27.35
863.762	25.17
863.932	23.36
864.103	24
864.273	10.76
864.443	-16.23
864.614	12.08
864.784	28.18
864.954	45.53
865.125	12.24
865.295	-4.89
865.465	-29.59
865.635	-41.36
865.805	-31.95
865.976	-34.84
866.146	-26.04
866.316	-1.9
866.486	-15.86
866.656	-29.08
866.826	-45.77
866.996	-31.78
867.166	-56.89
867.336	-65.25
867.506	-44.97
867.676	-88.77
867.846	-136.45
868.016	-153.46
868.186	-215.92
868.356	-169.44
868.526	-238.71
868.696	-221.9
868.866	-508.63
869.036	-149.86
869.206	-166.76
869.376	-162.3
869.545	-55.26
869.715	-34.3
869.885	-11.46
870.055	-9.75
870.224	15.59
870.394	19.92
870.564	-1.05
870.734	21.04
870.903	4.53
871.073	31.05
871.243	16.41
871.412	12.46
871.582	7.61
871.751	-14.5
871.921	-7.07
872.091	-51.59
872.26	-62.06
872.43	-45.88
872.599	-32.9
872.769	-8.13
872.938	-26.82
873.108	-16.91
873.277	-29.03
873.446	-19.51
873.616	3.12
873.785	-1.92
873.955	3.08
874.124	1.07
874.293	14.04
874.463	7.27
874.632	-4.96
874.801	4.03
874.971	-16.8
875.14	-30.62
875.309	-40.06
875.478	-48.62
875.647	-39.33
875.817	-25.62
875.986	-12.11
876.155	-20.44
876.324	-5.98
876.493	-7.89
876.662	4.97
876.831	1.99
877	9.07
877.17	18.03
877.339	12.88
877.508	16.72
877.677	9.4
877.846	-3.57
878.015	-6.32
878.184	-23.75
878.352	-26.92
878.521	-57.79
878.69	-62.98
878.859	-42.42
879.028	-28.85
879.197	-28.66
879.366	-36.75
879.534	-36.43
879.703	-10.54
879.872	-12.26
880.041	-6.49
880.21	-0.49
880.378	13.01
880.547	21.07
880.716	22.24
880.884	19.47
881.053	21.24
881.222	22.6
881.39	23.7
881.559	25.32
881.727	28.04
881.896	28.7
882.065	28.93
882.233	27.88
882.402	26.31
882.57	22.89
882.739	23.13
882.907	24.03
883.076	24.22
883.244	26.33
883.412	23.37
883.581	21.3
883.749	20.05
883.918	16.96
884.086	10.87
884.254	12.56
884.423	18.62
884.591	15.86
884.759	16.44
884.927	8.03
885.096	6.25
885.264	2.1
885.432	-0.13
885.6	1.7
885.769	1.92
885.937	14.97
886.105	3.62
886.273	-3.64
886.441	-8.21
886.609	-27.98
886.777	-27.19
886.945	-38.83
887.113	-48.62
887.281	-57.33
887.449	-55.98
887.617	-30.43
887.785	-50.81
887.953	-32.58
888.121	-63.37
888.289	-84.13
888.457	-94.03
888.625	-65.48
888.793	-69.83
888.961	-34.06
889.129	-13.25
889.296	-9.9
889.464	-20.99
889.632	-3.62
889.8	-18.64
889.967	-1.27
890.135	4.54
