Data from JASIL_3233_Reflection_1.txt Node
Date: Mon Nov 16 20:09:52 EST 2015
User: Geneva
Spectrometer: USB4E03002
Autoset integration time: false
Trigger mode: 4
Integration Time (sec): 1.000000E-1
Scans to average: 10
Electric dark correction enabled: false
Nonlinearity correction enabled: false
Boxcar width: 5
Stray light correction enabled: false
XAxis mode: Wavelengths
Stop averaging: false
Number of Pixels in Spectrum: 3648
>>>>>Begin Spectral Data<<<<<
177.575	1348.04
177.794	2200
178.014	1304.55
178.233	1165.5
178.452	812.5
178.672	1465
178.891	1743.85
179.11	1468.79
179.33	1610.71
179.549	1009.82
179.768	1048.48
179.987	706.25
180.207	582.66
180.426	800.3
180.645	864.65
180.864	1000
181.084	687.1
181.303	884.26
181.522	982.73
181.741	780.59
181.96	687.09
182.179	867.68
182.398	1130.04
182.618	4438.24
182.837	3628.4
183.056	3326.97
183.275	1969.37
183.494	3997.33
183.713	1605.38
183.932	951.23
184.151	1336.32
184.37	1424.74
184.589	1230.14
184.808	1305.71
185.027	798.28
185.246	708.51
185.465	740.54
185.684	1319.35
185.903	944.27
186.122	1045.68
186.341	4270.31
186.56	1892
186.779	-3459.74
186.998	-2669.7
187.216	-1437.21
187.435	-6065.85
187.654	-3250.67
187.873	-4583.93
188.092	-6991.67
188.311	-23520
188.53	-2489.8
188.748	3643.24
188.967	-4439.34
189.186	3626.32
189.405	1704.71
189.623	1419.14
189.842	2691.43
190.061	3815.94
190.28	1459.04
190.498	1876.56
190.717	3455.88
190.936	2311.88
191.154	5460.47
191.373	2935.44
191.592	2523.33
191.81	2890.54
192.029	2479.35
192.248	-5643.59
192.466	-7064.71
192.685	-1025.33
192.904	-1477.12
193.122	-1075.35
193.341	-2484.44
193.559	-1348.7
193.778	-1846.49
193.996	4075.47
194.215	-4736.96
194.433	-1100
194.652	-1097.58
194.87	-1038.12
195.089	-1899.1
195.307	-1170.53
195.526	-1555.1
195.744	-1068.95
195.963	-828.47
196.181	-617.98
196.399	-409.49
196.618	-335.43
196.836	-746.25
197.055	-719.67
197.273	-39716.67
197.491	-7775.76
197.71	1905.8
197.928	6532.5
198.146	4204.76
198.365	1801.3
198.583	1022.18
198.801	750.27
199.019	483.45
199.238	646.75
199.456	614.29
199.674	916.89
199.892	791.71
200.111	846.39
200.329	636.51
200.547	833.75
200.765	1361
200.983	8944.83
201.202	-2429.81
201.42	-2040.48
201.638	-4334.43
201.856	10365.38
202.074	2433.64
202.292	5686.96
202.51	-4365.52
202.728	4576.36
202.946	2415.89
203.165	1283.84
203.383	1200.96
203.601	958.55
203.819	1707.43
204.037	3317.81
204.255	6970.59
204.473	-3835.48
204.691	-10372.73
204.909	-14223.53
205.127	-2085.83
205.345	5934.88
205.562	1764.86
205.78	1106.69
205.998	886.52
206.216	718.6
206.434	831.64
206.652	801.32
206.87	949.06
207.088	753.33
207.306	1039.12
207.523	1631.15
207.741	5122.81
207.959	17418.75
208.177	-7594.44
208.395	-1543.64
208.612	-2100.82
208.83	2393.04
209.048	2317.39
209.266	262400
209.483	-2479.61
209.701	13280
209.919	2084.13
210.136	909.87
210.354	667.58
210.572	531.06
210.79	424.47
211.007	416.23
211.225	488.27
211.442	492.86
211.66	373.62
211.878	402.91
212.095	339.65
212.313	343.79
212.53	444.05
212.748	496.92
212.966	611.03
213.183	793.27
213.401	722.79
213.618	798.08
213.836	684.14
214.053	817.28
214.271	502.73
214.488	567.65
214.705	635.36
214.923	513.77
215.14	933.58
215.358	690.48
215.575	935.86
215.793	833.33
216.01	508.26
216.227	611.97
216.445	587.1
216.662	749.71
216.879	821.94
217.097	509.36
217.314	488.51
217.531	405.9
217.749	440.92
217.966	410.21
218.183	470.13
218.4	979.92
218.618	716.05
218.835	623.86
219.052	564.2
219.269	613.57
219.487	1587.84
219.704	2266.02
219.921	1183.5
220.138	1040.27
220.355	603.36
220.572	1052.31
220.79	730.17
221.007	848.38
221.224	833
221.441	1424.86
221.658	1190.09
221.875	1058.85
222.092	1635.48
222.309	41133.33
222.526	2552.53
222.743	5792.86
222.96	1361.41
223.177	527.29
223.394	511.7
223.611	494.15
223.828	495.96
224.045	409.66
224.262	331.01
224.479	323.12
224.696	291.47
224.913	286.41
225.13	293.65
225.347	230.47
225.564	243.5
225.781	207.66
225.997	199.42
226.214	160.9
226.431	147.55
226.648	132.36
226.865	122.55
227.082	110.88
227.298	100.57
227.515	80.21
227.732	74.39
227.949	69.85
228.165	62
228.382	57.76
228.599	53.92
228.816	52.98
229.032	53.74
229.249	50.93
229.466	51.4
229.682	52.37
229.899	60.27
230.116	65.69
230.332	70.2
230.549	74.62
230.765	82.25
230.982	87.08
231.199	96.01
231.415	103.86
231.632	110.27
231.848	114.96
232.065	125.94
232.281	124.95
232.498	126.5
232.714	139.3
232.931	151.01
233.147	144.12
233.364	144.23
233.58	141.52
233.797	133.15
234.013	119.89
234.23	115.99
234.446	110
234.662	109.99
234.879	109.26
235.095	97.98
235.312	88.8
235.528	95.81
235.744	97.5
235.961	100.1
236.177	107.54
236.393	117.22
236.61	114.87
236.826	112.6
237.042	122.58
237.258	116.24
237.475	120.72
237.691	128.39
237.907	115.57
238.123	111.54
238.339	104.79
238.556	96.46
238.772	93.36
238.988	89.56
239.204	88.03
239.42	79.27
239.636	80.05
239.853	74.83
240.069	66.18
240.285	64.23
240.501	61.35
240.717	57.25
240.933	53.31
241.149	48.91
241.365	47.28
241.581	44.35
241.797	40.95
242.013	39.52
242.229	40.5
242.445	42.27
242.661	40.02
242.877	41.33
243.093	40.63
243.309	41.79
243.525	43.51
243.741	46.19
243.957	47.11
244.173	48.65
244.388	48.07
244.604	46.12
244.82	43.98
245.036	41.57
245.252	36.87
245.468	36.44
245.683	34.48
245.899	32.02
246.115	29.44
246.331	28.21
246.547	26.67
246.762	25.46
246.978	25
247.194	23.92
247.409	25.8
247.625	26.6
247.841	26.98
248.057	27.49
248.272	28.95
248.488	31.35
248.703	32.22
248.919	35.51
249.135	38.81
249.35	43.17
249.566	46.17
249.782	50.19
249.997	52.84
250.213	51.44
250.428	53.47
250.644	53.66
250.859	52.17
251.075	52.78
251.29	49.74
251.506	48.66
251.721	45.5
251.937	44.52
252.152	41.01
252.368	39.38
252.583	43.51
252.798	42.86
253.014	46.21
253.229	48.99
253.445	51.48
253.66	54.92
253.875	57.5
254.091	62
254.306	67.65
254.521	71.66
254.737	76.47
254.952	74.69
255.167	79.96
255.383	74.36
255.598	73.02
255.813	67.93
256.028	68.4
256.244	64.65
256.459	59.12
256.674	54.65
256.889	50.08
257.104	46.99
257.32	43.86
257.535	38.3
257.75	38.17
257.965	35.12
258.18	32.44
258.395	30.09
258.61	28.75
258.826	27.94
259.041	25.6
259.256	24.82
259.471	23.19
259.686	22.62
259.901	23.28
260.116	21.62
260.331	21.73
260.546	22.62
260.761	24.03
260.976	24.36
261.191	23.92
261.406	26.04
261.621	27.52
261.836	28.82
262.05	30.57
262.265	30.75
262.48	33.16
262.695	35.35
262.91	36.92
263.125	34.41
263.34	35.91
263.555	38.35
263.769	38.21
263.984	41
264.199	44.42
264.414	43.24
264.629	42.76
264.843	41.21
265.058	41.93
265.273	38.88
265.488	39.05
265.702	37.65
265.917	35.64
266.132	35.82
266.346	34.13
266.561	32.76
266.776	33.8
266.99	34.83
267.205	35.53
267.42	32.97
267.634	32.95
267.849	32.47
268.063	31.43
268.278	32.52
268.492	31.57
268.707	28.93
268.922	28.9
269.136	26.59
269.351	25.4
269.565	24.23
269.78	24.41
269.994	25.56
270.209	24.58
270.423	26.37
270.637	24.6
270.852	25.54
271.066	27.11
271.281	27.38
271.495	28.76
271.709	28.57
271.924	29.52
272.138	30.24
272.353	29.39
272.567	30.26
272.781	30.16
272.996	32.36
273.21	33.93
273.424	34.68
273.638	35.66
273.853	35.39
274.067	35.1
274.281	34.09
274.495	33.47
274.71	33.78
274.924	35.5
275.138	34.7
275.352	35.62
275.566	33.23
275.781	32.01
275.995	30.04
276.209	31.61
276.423	32.33
276.637	34.36
276.851	33.84
277.065	34.29
277.279	32.68
277.493	34.81
277.707	32.67
277.921	33.96
278.135	32.95
278.349	33.3
278.563	31.39
278.777	32.26
278.991	32.3
279.205	33.56
279.419	34.11
279.633	34.43
279.847	32.91
280.061	32.99
280.275	30.87
280.489	32.83
280.703	32.59
280.917	33.21
281.131	31.96
281.344	32.01
281.558	31.08
281.772	30.39
281.986	30.78
282.2	29.86
282.414	29.83
282.627	29.54
282.841	30.05
283.055	29.22
283.269	28.1
283.482	29.62
283.696	28.37
283.91	28.63
284.123	28.62
284.337	26.94
284.551	25.6
284.764	25.46
284.978	25.14
285.192	23.5
285.405	24.52
285.619	23.91
285.833	24.29
286.046	24.96
286.26	24.78
286.473	24.26
286.687	24.99
286.9	25.87
287.114	26.18
287.327	26.29
287.541	26.38
287.754	25.76
287.968	26.54
288.181	24.8
288.395	23.58
288.608	22.99
288.822	23.03
289.035	22.52
289.248	23.56
289.462	23.45
289.675	23.22
289.889	24.33
290.102	24.16
290.315	24.03
290.529	23.82
290.742	24.9
290.955	25.26
291.169	25.9
291.382	25.95
291.595	26.04
291.808	26.99
292.022	27.07
292.235	26.64
292.448	26.96
292.661	27.59
292.875	28.13
293.088	27.96
293.301	28.16
293.514	27.96
293.727	29.14
293.94	28.34
294.153	27.39
294.367	28.5
294.58	27.88
294.793	27.06
295.006	26.58
295.219	26
295.432	25.04
295.645	23.04
295.858	22.45
296.071	20.99
296.284	20.46
296.497	19.93
296.71	19.8
296.923	19.85
297.136	20.12
297.349	20.48
297.562	20.63
297.775	20.68
297.988	21.28
298.201	21.48
298.414	22.58
298.626	22.64
298.839	21.74
299.052	22.4
299.265	23.18
299.478	22.94
299.691	23.71
299.903	23.21
300.116	24.04
300.329	26.04
300.542	26.06
300.755	25.83
300.967	26.77
301.18	27.52
301.393	26.15
301.605	25.73
301.818	26.72
302.031	25.82
302.243	26.43
302.456	26.28
302.669	24.98
302.881	24.78
303.094	24.86
303.307	23.9
303.519	25.15
303.732	25.19
303.944	25.98
304.157	25.68
304.37	26.22
304.582	26.23
304.795	25.93
305.007	27.07
305.22	26.91
305.432	27.25
305.645	27.77
305.857	28.45
306.069	29.01
306.282	28.88
306.494	27.15
306.707	26.4
306.919	26.55
307.132	26.24
307.344	26.62
307.556	26.8
307.769	26.3
307.981	26.95
308.193	25.18
308.406	23.24
308.618	21.68
308.83	23.32
309.043	22.95
309.255	23.31
309.467	24.43
309.679	23.88
309.892	22.97
310.104	23.13
310.316	21.35
310.528	21.38
310.74	22.39
310.953	22.92
311.165	22.94
311.377	23.05
311.589	22.56
311.801	21.94
312.013	21.69
312.225	22.62
312.437	21.92
312.649	23.62
312.862	24.06
313.074	25.47
313.286	26.69
313.498	26.85
313.71	28.21
313.922	29.03
314.134	28.52
314.346	28.49
314.558	28.38
314.77	30.06
314.982	30.35
315.193	31.71
315.405	30.48
315.617	28.78
315.829	29.81
316.041	28.89
316.253	28.23
316.465	29.52
316.677	29.53
316.888	30.28
317.1	29.21
317.312	28.77
317.524	28.12
317.736	30.12
317.947	30.79
318.159	31.33
318.371	31.45
318.583	32.33
318.794	32.62
319.006	34.37
319.218	35.68
319.43	36.57
319.641	36.57
319.853	35.88
320.064	36.17
320.276	36.82
320.488	34.66
320.699	35
320.911	36.11
321.123	34.85
321.334	33.55
321.546	32.25
321.757	31.51
321.969	31.51
322.18	30.9
322.392	30.62
322.603	31.33
322.815	31.95
323.026	32.65
323.238	30.09
323.449	30.19
323.661	30.35
323.872	30.2
324.083	29.87
324.295	30.22
324.506	31.69
324.718	30.9
324.929	29.21
325.14	28.62
325.352	27.86
325.563	28.31
325.774	29.15
325.986	28.29
326.197	27.75
326.408	28.71
326.62	28.26
326.831	27.8
327.042	27.89
327.253	28.92
327.464	29.89
327.676	30.37
327.887	31.29
328.098	31.2
328.309	31.47
328.52	31.97
328.732	31.45
328.943	31.89
329.154	32.11
329.365	33.08
329.576	32.23
329.787	32.57
329.998	31.14
330.209	30.94
330.42	30.76
330.631	31.31
330.842	31.48
331.053	30.82
331.264	30.69
331.475	31.27
331.686	30.86
331.897	31.5
332.108	30.69
332.319	32.83
332.53	32.88
332.741	32.46
332.952	33.33
333.163	32.69
333.374	33.1
333.585	33.97
333.795	33.73
334.006	34.19
334.217	35.15
334.428	34.36
334.639	32.98
334.849	32.87
335.06	33.38
335.271	33.44
335.482	34.26
335.692	34.65
335.903	34.38
336.114	33.88
336.325	33.84
336.535	33.15
336.746	34.24
336.957	34.6
337.167	34.25
337.378	34.36
337.589	33.85
337.799	34.46
338.01	34.21
338.22	33.4
338.431	34.04
338.642	32.42
338.852	32.41
339.063	32.64
339.273	32.74
339.484	33.1
339.694	33.65
339.905	34.26
340.115	34.29
340.326	35.19
340.536	35.25
340.746	33.77
340.957	33.83
341.167	33.17
341.378	32.63
341.588	32.3
341.799	32.55
342.009	31.31
342.219	29.88
342.43	29.4
342.64	28.91
342.85	28.83
343.061	28.83
343.271	30.6
343.481	31.42
343.691	31.58
343.902	31.84
344.112	30.73
344.322	30.87
344.532	31.73
344.743	31.25
344.953	30.13
345.163	31.06
345.373	32.06
345.583	30.57
345.793	29.95
346.004	30.11
346.214	29.22
346.424	29.64
346.634	30.76
346.844	30.25
347.054	31.74
347.264	33.4
347.474	33.2
347.684	32.85
347.894	33.18
348.104	34.1
348.314	34.7
348.524	35.57
348.734	35.36
348.944	34.34
349.154	33.23
349.364	31.88
349.574	30.92
349.784	30.97
349.994	30.63
350.204	30.29
350.413	29.91
350.623	30.57
350.833	29.93
351.043	29.96
351.253	29.22
351.463	30.55
351.672	31.52
351.882	30.9
352.092	30.12
352.302	31.93
352.511	31.27
352.721	30.14
352.931	29.27
353.141	29.83
353.35	29.58
353.56	29.77
353.77	28.59
353.979	27.91
354.189	28.08
354.399	28.41
354.608	25.96
354.818	26.7
355.027	27.29
355.237	26.95
355.447	26.99
355.656	27.01
355.866	26.18
356.075	25.87
356.285	25.38
356.494	25.63
356.704	25.75
356.913	27.23
357.123	27.18
357.332	26.64
357.542	26.21
357.751	25.69
357.96	25.9
358.17	26.67
358.379	27.92
358.589	28.14
358.798	27.34
359.007	26.53
359.217	25.41
359.426	25.09
359.635	24.8
359.845	24.65
360.054	24.66
360.263	24.18
360.472	23.7
360.682	23.37
360.891	22.93
361.1	23.24
361.309	23.27
361.519	22.77
361.728	22.92
361.937	23.7
362.146	22.83
362.355	22.74
362.564	23.24
362.774	23.41
362.983	23.81
363.192	23.94
363.401	23.35
363.61	23.8
363.819	24.44
364.028	24.33
364.237	24
364.446	25.33
364.655	24.82
364.864	25.06
365.073	25.46
365.282	24.77
365.491	24.36
365.7	24.86
365.909	25.31
366.118	26.34
366.327	26.18
366.536	25.62
366.745	26.18
366.954	26.77
367.162	26.1
367.371	25.72
367.58	26.25
367.789	27.87
367.998	28.63
368.207	27.81
368.415	26.83
368.624	27.09
368.833	28.22
369.042	27.4
369.25	27.37
369.459	27.77
369.668	28.96
369.877	28.03
370.085	26.99
370.294	26.19
370.503	26.45
370.711	26.78
370.92	26.39
371.129	25.97
371.337	26.08
371.546	24.97
371.754	24.59
371.963	23.84
372.171	24.05
372.38	23.87
372.589	24.04
372.797	24.08
373.006	23.24
373.214	23.56
373.423	23.99
373.631	23.44
373.84	24.9
374.048	25.56
374.256	25.21
374.465	24.86
374.673	25.03
374.882	24.76
375.09	25.22
375.298	25.42
375.507	25.22
375.715	24.83
375.923	24.6
376.132	24.24
376.34	23.71
376.548	23.55
376.757	24.7
376.965	25.11
377.173	25.56
377.381	24.67
377.59	25.42
377.798	25.41
378.006	24.93
378.214	25.43
378.423	25.64
378.631	25.2
378.839	25.23
379.047	24.77
379.255	24.24
379.463	24.79
379.671	25.49
379.879	24.68
380.088	25.15
380.296	24.79
380.504	25.24
380.712	25.77
380.92	25.88
381.128	26.11
381.336	25.74
381.544	26.06
381.752	25.29
381.96	24.99
382.168	25.4
382.376	25.66
382.584	26.27
382.791	26.47
382.999	26.2
383.207	26.6
383.415	26.33
383.623	26.75
383.831	26.34
384.039	26.48
384.247	25.97
384.454	25.94
384.662	25.6
384.87	25.8
385.078	25.45
385.285	24.8
385.493	24.96
385.701	24.56
385.909	23.85
386.116	24.11
386.324	24.84
386.532	25.29
386.739	24.66
386.947	24.97
387.155	25.12
387.362	25.37
387.57	26.24
387.778	26.46
387.985	27.1
388.193	28.28
388.4	27.99
388.608	27.31
388.816	27.33
389.023	27.83
389.231	27.04
389.438	26.51
389.646	25.91
389.853	24.93
390.061	24.17
390.268	23.01
390.475	21.72
390.683	21.99
390.89	21.91
391.098	21.82
391.305	22.12
391.512	22.3
391.72	22.03
391.927	22.14
392.135	22.34
392.342	22.45
392.549	23.65
392.756	23.64
392.964	23.23
393.171	23.73
393.378	23.13
393.586	23.09
393.793	22.78
394	23.42
394.207	23.53
394.414	23.39
394.622	23.57
394.829	23.16
395.036	23.76
395.243	24.62
395.45	24.46
395.657	24.79
395.864	25
396.072	25.63
396.279	25.35
396.486	24.71
396.693	25.5
396.9	25.43
397.107	26.12
397.314	25.73
397.521	25.09
397.728	24.74
397.935	25.36
398.142	24.81
398.349	24.35
398.556	24.36
398.763	25.63
398.97	24.6
399.177	24.79
399.383	24.86
399.59	25.38
399.797	25.12
400.004	24.67
400.211	24.44
400.418	24.68
400.625	24.7
400.831	24.37
401.038	23.55
401.245	23.73
401.452	23.56
401.658	23.57
401.865	23.72
402.072	24.41
402.279	24.3
402.485	24.05
402.692	24
402.899	24.21
403.105	24.19
403.312	24.48
403.519	24.43
403.725	23.94
403.932	23.48
404.138	22.89
404.345	22.49
404.552	22.79
404.758	23.12
404.965	23.64
405.171	23.24
405.378	23.31
405.584	23.38
405.791	23.86
405.997	24.48
406.204	24.9
406.41	25.2
406.617	25.46
406.823	25.57
407.029	25.17
407.236	25.13
407.442	25.35
407.649	26.16
407.855	25.51
408.061	25.64
408.268	25.77
408.474	25.08
408.68	25.17
408.887	25.08
409.093	25.28
409.299	26
409.505	24.91
409.712	24.91
409.918	24.4
410.124	24.47
410.33	24.28
410.537	24.5
410.743	24.85
410.949	25.18
411.155	24.85
411.361	24.17
411.567	23.47
411.773	24.04
411.98	24.07
412.186	24.75
412.392	24.69
412.598	24.62
412.804	23.92
413.01	23.84
413.216	23.52
413.422	23.85
413.628	24.05
413.834	24.38
414.04	24.56
414.246	24.93
414.452	24.2
414.658	24.77
414.864	25.16
415.07	25.03
415.275	24.97
415.481	24.46
415.687	24.73
415.893	24.83
416.099	24.24
416.305	23.61
416.511	23.25
416.716	23.03
416.922	22.62
417.128	22.22
417.334	22.24
417.539	21.54
417.745	21.61
417.951	21.08
418.157	20.9
418.362	21.14
418.568	21.17
418.774	20.87
418.979	20.52
419.185	20.5
419.391	20.44
419.596	20.34
419.802	20.61
420.008	20.13
420.213	19.92
420.419	20.12
420.624	19.98
420.83	19.93
421.035	20.2
421.241	20.47
421.446	20.02
421.652	20.11
421.857	20.14
422.063	20.22
422.268	20.45
422.474	20.61
422.679	20.77
422.885	20.87
423.09	20.79
423.295	20.62
423.501	20.4
423.706	21.12
423.911	20.9
424.117	20.91
424.322	20.96
424.527	21.18
424.733	21.22
424.938	21
425.143	20.89
425.349	20.91
425.554	20.98
425.759	21.19
425.964	21.04
426.169	21.26
426.375	21.24
426.58	21.21
426.785	21.29
426.99	21.33
427.195	21.68
427.4	22.28
427.605	22.72
427.811	22.82
428.016	22.96
428.221	23.2
428.426	23.43
428.631	24.05
428.836	24.03
429.041	24.38
429.246	24.38
429.451	24.23
429.656	23.65
429.861	23.5
430.066	23.87
430.271	23.97
430.476	23.61
430.681	23.22
430.886	22.54
431.09	22.49
431.295	22.23
431.5	22.55
431.705	22.31
431.91	22.33
432.115	22.28
432.32	21.97
432.524	21.63
432.729	21.26
432.934	21.41
433.139	21.57
433.343	21.56
433.548	21.14
433.753	21
433.958	21.11
434.162	21.28
434.367	21.44
434.572	21.52
434.776	21.75
434.981	22.01
435.186	21.95
435.39	22.04
435.595	22.36
435.799	22.4
436.004	22.73
436.209	22.72
436.413	23.02
436.618	23
436.822	22.62
437.027	22.54
437.231	22.57
437.436	22.34
437.64	22.3
437.845	22.06
438.049	22.13
438.253	21.8
438.458	21.65
438.662	21.35
438.867	21.36
439.071	21.41
439.275	21.42
439.48	21.54
439.684	21.61
439.888	21.52
440.093	21.7
440.297	21.74
440.501	21.74
440.706	21.97
440.91	21.67
441.114	21.42
441.318	21.45
441.523	21.42
441.727	21.33
441.931	21.48
442.135	21.61
442.339	21.44
442.543	21.52
442.748	21.72
442.952	21.76
443.156	21.66
443.36	21.82
443.564	22.02
443.768	22.08
443.972	22.08
444.176	22.1
444.38	21.91
444.584	21.9
444.788	22.04
444.992	21.47
445.196	21.35
445.4	21.59
445.604	21.42
445.808	21.4
446.012	21.36
446.216	21.19
446.42	21.2
446.624	21.13
446.828	21.12
447.032	20.84
447.235	21.06
447.439	21.04
447.643	21.09
447.847	21.61
448.051	21.73
448.254	21.83
448.458	21.99
448.662	22.21
448.866	22.41
449.069	22.32
449.273	22.85
449.477	23.11
449.681	23.09
449.884	23.24
450.088	22.79
450.292	22.6
450.495	22.82
450.699	22.83
450.902	22.57
451.106	22.59
451.31	22.81
451.513	22.24
451.717	21.98
451.92	22.18
452.124	22.12
452.327	21.99
452.531	21.87
452.734	21.87
452.938	22.09
453.141	22.05
453.345	22.09
453.548	22.04
453.752	22.44
453.955	22.58
454.158	22.35
454.362	22.4
454.565	22.76
454.769	22.79
454.972	22.63
455.175	22.35
455.379	22.47
455.582	22.59
455.785	22.58
455.988	22.65
456.192	22.57
456.395	22.37
456.598	22.16
456.801	21.97
457.005	22.47
457.208	22.46
457.411	22.41
457.614	22.42
457.817	22.21
458.021	21.97
458.224	21.66
458.427	21.62
458.63	21.72
458.833	21.82
459.036	21.71
459.239	21.4
459.442	21.2
459.645	21.21
459.848	20.84
460.051	20.88
460.254	20.94
460.457	21.05
460.66	20.76
460.863	20.97
461.066	20.95
461.269	20.86
461.472	20.95
461.675	21.14
461.878	21.22
462.081	21.79
462.284	21.79
462.486	21.97
462.689	21.91
462.892	22.55
463.095	22.38
463.298	22.4
463.5	23.09
463.703	23.06
463.906	22.74
464.109	22.67
464.311	22.96
464.514	22.99
464.717	23
464.92	22.92
465.122	22.75
465.325	22.83
465.528	23.05
465.73	23.24
465.933	22.85
466.135	23.35
466.338	23.59
466.541	23.42
466.743	23.4
466.946	23.28
467.148	23.59
467.351	23.31
467.553	23.36
467.756	23.34
467.958	22.71
468.161	23.05
468.363	22.97
468.566	22.82
468.768	22.63
468.971	22.66
469.173	23.05
469.375	22.94
469.578	23.49
469.78	23.4
469.983	23.36
470.185	23.39
470.387	23.25
470.59	23.29
470.792	23.33
470.994	23.5
471.196	23.41
471.399	23.18
471.601	23.26
471.803	22.77
472.005	22.77
472.208	22.62
472.41	22.67
472.612	22.77
472.814	22.62
473.016	23.07
473.218	22.86
473.421	22.75
473.623	22.3
473.825	22.19
474.027	22.72
474.229	22.62
474.431	22.71
474.633	22.75
474.835	22.71
475.037	22.84
475.239	22.44
475.441	22.52
475.643	22.81
475.845	23.12
476.047	22.72
476.249	22.23
476.451	22.24
476.653	21.97
476.855	21.87
477.057	22.14
477.258	22
477.46	21.99
477.662	21.81
477.864	21.32
478.066	21.36
478.268	21.55
478.469	21.85
478.671	21.66
478.873	21.77
479.075	21.88
479.276	21.46
479.478	21.59
479.68	21.2
479.882	21.15
480.083	21.31
480.285	21.24
480.487	21.16
480.688	21.08
480.89	21.35
481.091	21.11
481.293	20.87
481.495	20.87
481.696	20.61
481.898	20.37
482.099	20.23
482.301	19.95
482.502	19.62
482.704	19.38
482.905	19.15
483.107	18.8
483.308	18.71
483.51	18.59
483.711	18.62
483.913	18.51
484.114	18.5
484.315	18.44
484.517	18.41
484.718	18.41
484.92	18.47
485.121	18.46
485.322	18.63
485.524	18.62
485.725	18.65
485.926	18.5
486.127	18.51
486.329	18.46
486.53	18.51
486.731	18.58
486.932	18.64
487.134	18.77
487.335	18.83
487.536	18.64
487.737	18.82
487.938	18.96
488.139	18.96
488.341	19.06
488.542	19.2
488.743	19.23
488.944	19.15
489.145	19.29
489.346	19.19
489.547	19.26
489.748	19.59
489.949	19.52
490.15	19.23
490.351	19.22
490.552	19.25
490.753	19.31
490.954	19.22
491.155	19.42
491.356	19.36
491.557	19.47
491.758	19.41
491.959	19.27
492.159	19.25
492.36	19.39
492.561	19.5
492.762	19.56
492.963	19.74
493.164	20
493.364	20.27
493.565	20.32
493.766	20.25
493.967	20.44
494.167	20.69
494.368	20.88
494.569	21.23
494.769	21.14
494.97	21.19
495.171	21.04
495.371	21.03
495.572	21.1
495.773	21.39
495.973	21.81
496.174	21.58
496.375	21.55
496.575	21.5
496.776	21.37
496.976	21.78
497.177	21.55
497.377	21.67
497.578	21.65
497.778	21.67
497.979	21.45
498.179	21.22
498.38	21.51
498.58	21.57
498.78	21.82
498.981	22.1
499.181	22.01
499.382	22.39
499.582	22.46
499.782	22.58
499.983	22.46
500.183	22.88
500.383	23.08
500.584	23.05
500.784	23.25
500.984	23.25
501.184	22.94
501.385	22.76
501.585	22.87
501.785	22.93
501.985	22.79
502.185	23.03
502.386	22.89
502.586	22.87
502.786	22.99
502.986	23
503.186	22.97
503.386	23.11
503.586	23.5
503.786	23.58
503.987	23.6
504.187	23.56
504.387	23.45
504.587	23.52
504.787	23.34
504.987	23.41
505.187	23.36
505.387	23.54
505.587	23.87
505.786	23.85
505.986	23.63
506.186	23.61
506.386	23.83
506.586	23.92
506.786	23.85
506.986	24.04
507.186	24.27
507.386	24.22
507.585	23.96
507.785	23.68
507.985	23.49
508.185	23.81
508.384	23.67
508.584	23.55
508.784	23.38
508.984	23.52
509.183	23.39
509.383	23.18
509.583	23.39
509.782	23.58
509.982	23.81
510.182	23.75
510.381	23.39
510.581	23.55
510.781	23.86
510.98	24.11
511.18	24.24
511.379	24.42
511.579	24.46
511.778	24.25
511.978	24.42
512.177	24.35
512.377	24.6
512.576	24.74
512.776	24.9
512.975	24.69
513.175	24.51
513.374	24.58
513.573	24.67
513.773	24.81
513.972	25.03
514.172	24.93
514.371	25.09
514.57	25.03
514.77	25.11
514.969	24.93
515.168	25.02
515.367	25.46
515.567	25.19
515.766	25.11
515.965	25.1
516.164	25.01
516.364	25.05
516.563	25
516.762	24.92
516.961	25
517.16	24.91
517.359	24.9
517.559	24.56
517.758	24.58
517.957	24.74
518.156	24.8
518.355	24.94
518.554	24.99
518.753	24.8
518.952	25.04
519.151	25.13
519.35	25.5
519.549	25.56
519.748	25.55
519.947	25.47
520.146	25.25
520.345	25.32
520.544	25.28
520.743	25.2
520.942	25.57
521.141	25.53
521.339	25.43
521.538	25.09
521.737	25.27
521.936	25.3
522.135	25.47
522.333	25.74
522.532	25.69
522.731	25.88
522.93	26.16
523.129	26.1
523.327	26.22
523.526	26.49
523.725	26.83
523.923	26.87
524.122	27.01
524.321	27.16
524.519	26.94
524.718	27
524.917	26.92
525.115	26.81
525.314	26.73
525.512	26.57
525.711	26.43
525.909	26.45
526.108	26.27
526.306	26.29
526.505	26.27
526.703	26.31
526.902	26.12
527.1	26.14
527.299	26.02
527.497	25.89
527.696	25.78
527.894	25.67
528.092	25.59
528.291	25.61
528.489	25.59
528.688	25.53
528.886	25.47
529.084	25.55
529.283	25.58
529.481	25.66
529.679	25.8
529.877	25.98
530.076	26.1
530.274	26.16
530.472	26.26
530.67	26.33
530.869	26.47
531.067	26.88
531.265	26.98
531.463	26.88
531.661	27.07
531.859	27.31
532.057	27.42
532.255	27.53
532.454	27.46
532.652	27.41
532.85	27.39
533.048	27.56
533.246	27.29
533.444	27.27
533.642	27.42
533.84	27.31
534.038	27.23
534.236	27.16
534.434	27.3
534.632	27.4
534.83	27.54
535.027	27.85
535.225	27.86
535.423	28.3
535.621	28.4
535.819	28.45
536.017	28.54
536.215	28.45
536.412	28.61
536.61	28.69
536.808	28.83
537.006	29.03
537.203	29.03
537.401	28.99
537.599	28.9
537.797	29.02
537.994	29.32
538.192	29.57
538.39	30.03
538.587	30.11
538.785	30.17
538.983	30.23
539.18	30.17
539.378	30.13
539.575	30.46
539.773	30.52
539.97	30.48
540.168	30.23
540.366	30.22
540.563	30.08
540.761	29.99
540.958	30.04
541.155	30.04
541.353	30.04
541.55	30.1
541.748	29.94
541.945	29.89
542.143	29.84
542.34	29.98
542.537	30.13
542.735	30.09
542.932	30.35
543.129	30.31
543.327	30.52
543.524	30.63
543.721	30.62
543.919	30.75
544.116	30.91
544.313	31.35
544.51	31.56
544.708	31.49
544.905	31.86
545.102	32.09
545.299	32.15
545.496	32.4
545.693	32.41
545.891	32.57
546.088	32.73
546.285	33.04
546.482	32.93
546.679	32.89
546.876	33.02
547.073	33.02
547.27	33
547.467	33.24
547.664	33.19
547.861	33.62
548.058	33.66
548.255	33.88
548.452	33.99
548.649	34.3
548.846	34.41
549.043	34.59
549.24	34.72
549.437	34.91
549.633	35.18
549.83	35.4
550.027	35.52
550.224	36.02
550.421	36.1
550.618	36.22
550.814	36.47
551.011	36.47
551.208	36.54
551.405	36.61
551.601	36.92
551.798	36.72
551.995	36.51
552.191	36.7
552.388	36.71
552.585	36.6
552.781	36.55
552.978	36.49
553.175	36.86
553.371	37.12
553.568	37.25
553.764	37.43
553.961	37.93
554.157	38.35
554.354	38.55
554.55	38.8
554.747	39.47
554.943	39.52
555.14	39.42
555.336	39.67
555.533	39.91
555.729	40.15
555.926	39.79
556.122	39.61
556.318	39.37
556.515	39.27
556.711	39.38
556.907	39.36
557.104	39.71
557.3	40.13
557.496	40.03
557.693	40.14
557.889	40.27
558.085	40.43
558.281	40.8
558.478	41.3
558.674	41.14
558.87	41.1
559.066	41.37
559.262	41.07
559.459	40.75
559.655	40.99
559.851	41.21
560.047	41.45
560.243	41.77
560.439	41.73
560.635	41.6
560.831	41.63
561.027	41.88
561.223	41.49
561.419	41.83
561.615	42.02
561.811	42.24
562.007	42.31
562.203	41.68
562.399	41.64
562.595	41.84
562.791	41.95
562.987	42.47
563.183	42.16
563.379	42.01
563.575	42.08
563.771	42.44
563.966	42.27
564.162	42.42
564.358	42.8
564.554	42.72
564.75	42.36
564.945	42.24
565.141	41.96
565.337	42.13
565.533	42.41
565.728	42.31
565.924	41.95
566.12	42.06
566.315	41.86
566.511	41.79
566.707	41.92
566.902	41.92
567.098	42.15
567.293	42.19
567.489	42.3
567.684	41.9
567.88	42.22
568.076	42.58
568.271	42.61
568.467	42.62
568.662	42.91
568.858	42.91
569.053	42.92
569.248	42.62
569.444	42.67
569.639	42.79
569.835	43.26
570.03	42.94
570.225	42.9
570.421	42.79
570.616	42.61
570.812	42.35
571.007	42.28
571.202	42.73
571.397	43.02
571.593	43.17
571.788	43.23
571.983	43.2
572.178	43.65
572.374	43.75
572.569	43.87
572.764	44.13
572.959	44.03
573.154	44.04
573.35	43.79
573.545	44.01
573.74	44.02
573.935	43.82
574.13	43.69
574.325	43.36
574.52	43.3
574.715	43.52
574.91	43.34
575.105	43.62
575.3	43.83
575.495	44.31
575.69	44.19
575.885	44.29
576.08	44.7
576.275	44.89
576.47	45.18
576.665	45.27
576.86	45.27
577.055	45.53
577.25	45.89
577.444	45.89
577.639	45.64
577.834	45.6
578.029	45.24
578.224	44.85
578.418	45.12
578.613	45.38
578.808	45.64
579.003	45.28
579.197	45.47
579.392	45.24
579.587	45.3
579.781	45.47
579.976	45.67
580.171	46.1
580.365	46.17
580.56	46.03
580.755	45.85
580.949	45.71
581.144	45.93
581.338	45.84
581.533	46.28
581.727	46.18
581.922	46.48
582.116	46.82
582.311	46.73
582.505	47.14
582.7	47.2
582.894	47.4
583.089	47.84
583.283	48.21
583.478	48.31
583.672	48.35
583.866	48.58
584.061	48.29
584.255	48
584.449	48.37
584.644	48.3
584.838	48.46
585.032	48.35
585.226	48.12
585.421	48.08
585.615	48.5
585.809	48.57
586.003	48.83
586.198	48.94
586.392	48.84
586.586	48.99
586.78	49.09
586.974	49.1
587.168	48.94
587.363	48.79
587.557	48.29
587.751	48.02
587.945	47.88
588.139	47.89
588.333	47.5
588.527	47.36
588.721	46.94
588.915	46.78
589.109	46.98
589.303	47.12
589.497	47.29
589.691	47.95
589.885	48.04
590.079	48.24
590.273	47.99
590.466	48.72
590.66	48.97
590.854	49.44
591.048	49.59
591.242	49.11
591.436	49.35
591.629	49.34
591.823	49.51
592.017	49.1
592.211	48.62
592.404	48.55
592.598	48.01
592.792	47.89
592.986	47.9
593.179	48.09
593.373	48.64
593.567	48.23
593.76	48.2
593.954	48.12
594.147	48.79
594.341	48.99
594.535	49.4
594.728	49.72
594.922	49.68
595.115	49.53
595.309	49.51
595.502	49.14
595.696	49.24
595.889	49.01
596.083	48.6
596.276	48.31
596.47	48.6
596.663	48.54
596.856	48.48
597.05	48.67
597.243	48.62
597.437	48.09
597.63	48.4
597.823	48.48
598.017	48.78
598.21	48.93
598.403	48.68
598.596	48.51
598.79	48.4
598.983	48.54
599.176	48.35
599.369	48.71
599.563	49.46
599.756	49.74
599.949	49.78
600.142	50
600.335	50.1
600.528	50.72
600.722	50.64
600.915	51.27
601.108	51.14
601.301	51.34
601.494	50.53
601.687	50.43
601.88	50.16
602.073	50.42
602.266	50.1
602.459	49.9
602.652	49.11
602.845	48.75
603.038	48.34
603.231	48.29
603.424	48.23
603.617	48.48
603.809	48.52
604.002	48.19
604.195	48.19
604.388	48.41
604.581	48.4
604.774	48.88
604.966	49.3
605.159	49.18
605.352	49.13
605.545	49.27
605.737	49.78
605.93	49.63
606.123	50.16
606.316	50.17
606.508	50.1
606.701	50.53
606.894	50.83
607.086	51.02
607.279	51.08
607.471	51.62
607.664	51.17
607.857	50.71
608.049	50.73
608.242	50.4
608.434	49.93
608.627	50.15
608.819	49.86
609.012	49.42
609.204	49.7
609.397	49.92
609.589	49.52
609.782	49.97
609.974	50.29
610.166	50.51
610.359	50.48
610.551	51.02
610.743	50.95
610.936	51.46
611.128	52.06
611.32	52.02
611.513	52.01
611.705	52.72
611.897	52.63
612.09	53.04
612.282	53.28
612.474	53.73
612.666	54.44
612.858	54.67
613.051	55.04
613.243	54.82
613.435	54.72
613.627	54.87
613.819	55.05
614.011	56.6
614.203	56.58
614.395	56.09
614.588	56.25
614.78	55.13
614.972	55.1
615.164	54.56
615.356	54.46
615.548	54.48
615.74	54.69
615.932	54.73
616.124	53.27
616.315	53.71
616.507	54.28
616.699	54.26
616.891	54.28
617.083	54.36
617.275	54.45
617.467	54.92
617.659	55.22
617.85	55.27
618.042	55.24
618.234	55.62
618.426	54.92
618.618	54.48
618.809	54.49
619.001	54.63
619.193	54.85
619.384	54.97
619.576	54.67
619.768	54.56
619.959	54.45
620.151	53.6
620.343	53.31
620.534	53.86
620.726	53.81
620.917	54.28
621.109	54.83
621.301	55.04
621.492	55.13
621.684	55.55
621.875	55.47
622.067	54.8
622.258	55.46
622.45	56.12
622.641	54.94
622.832	54.72
623.024	54.3
623.215	54.44
623.407	54
623.598	54.06
623.789	54.04
623.981	53.85
624.172	54.74
624.363	54.2
624.555	53.54
624.746	54.02
624.937	54.63
625.129	54.59
625.32	53.58
625.511	53.65
625.702	53.53
625.893	53.33
626.085	53.78
626.276	53.07
626.467	53.72
626.658	54.01
626.849	53.71
627.04	53.64
627.231	53.6
627.422	54.39
627.614	54.38
627.805	54.11
627.996	54.02
628.187	53.44
628.378	54.02
628.569	53.85
628.76	53.77
628.951	54.13
629.142	54.54
629.332	54.24
629.523	53.36
629.714	53.35
629.905	53.34
630.096	53.43
630.287	53.71
630.478	53.59
630.669	52.87
630.859	53.31
631.05	53.66
631.241	53.59
631.432	53.69
631.623	54.69
631.813	55.15
632.004	54.86
632.195	54.7
632.385	55.1
632.576	55.22
632.767	56.7
632.957	56.15
633.148	56.49
633.339	56.02
633.529	55.98
633.72	55.27
633.91	55.18
634.101	55.57
634.292	55.44
634.482	55.02
634.673	55.43
634.863	54.25
635.054	54.75
635.244	54.27
635.435	54.76
635.625	54.93
635.815	56.06
636.006	55.95
636.196	56.52
636.387	56.1
636.577	56.29
636.767	56.21
636.958	55.83
637.148	56.04
637.338	56.34
637.529	55.93
637.719	56.39
637.909	55.71
638.099	55.47
638.29	55.01
638.48	56.18
638.67	56.32
638.86	56.27
639.05	57.61
639.241	58.07
639.431	58.19
639.621	57.98
639.811	58.12
640.001	58.13
640.191	58.29
640.381	58.75
640.571	58.47
640.761	58.95
640.951	59.08
641.141	59.09
641.331	57.59
641.521	57.39
641.711	58.31
641.901	57.97
642.091	58.05
642.281	58.64
642.471	58.98
642.661	59.85
642.851	59.56
643.041	59.08
643.231	59.17
643.42	60.19
643.61	60.87
643.8	60.94
643.99	61.35
644.18	62.16
644.369	61.8
644.559	60.88
644.749	60.14
644.939	60.22
645.128	60.09
645.318	59.12
645.508	58.28
645.697	58.4
645.887	57.5
646.076	58.02
646.266	57.57
646.456	57.58
646.645	58.35
646.835	58.44
647.024	58.55
647.214	58.86
647.403	59.28
647.593	59.54
647.782	58.56
647.972	59.61
648.161	58.81
648.351	58.61
648.54	58.62
648.73	58.26
648.919	58.1
649.108	57.49
649.298	57.96
649.487	57.93
649.677	58.5
649.866	58.95
650.055	58.6
650.244	59.09
650.434	59.58
650.623	59.13
650.812	59.47
651.002	59.23
651.191	59.43
651.38	59.3
651.569	59.51
651.758	59.27
651.947	58.7
652.137	58.7
652.326	57.96
652.515	57.8
652.704	57.6
652.893	57.35
653.082	57.15
653.271	57.73
653.46	56.8
653.649	56.85
653.838	56.3
654.027	57.4
654.216	57.27
654.405	57.26
654.594	57.09
654.783	58.53
654.972	59.48
655.161	60.37
655.35	59.97
655.539	60.57
655.728	61.35
655.916	61.96
656.105	61.64
656.294	61.85
656.483	61.77
656.672	61.87
656.86	61.05
657.049	59.56
657.238	59.29
657.427	59.07
657.615	58.67
657.804	57.13
657.993	56.71
658.181	56.08
658.37	55.78
658.559	55.45
658.747	55.03
658.936	55.41
659.125	55.54
659.313	55.72
659.502	55.72
659.69	55.85
659.879	55.68
660.067	55.92
660.256	56.3
660.444	56.39
660.633	56.68
660.821	57.33
661.01	56.71
661.198	57.18
661.387	57.34
661.575	57.53
661.763	57.95
661.952	59.04
662.14	60.39
662.328	60.18
662.517	60.74
662.705	62.01
662.893	61.83
663.082	62.32
663.27	63.27
663.458	62.82
663.646	62.81
663.834	63.02
664.023	63.6
664.211	63.08
664.399	63.23
664.587	62.95
664.775	62.04
664.963	62.02
665.152	61.96
665.34	61.77
665.528	61.82
665.716	61.64
665.904	61.33
666.092	60.62
666.28	60.07
666.468	60.61
666.656	60.83
666.844	61.94
667.032	61.91
667.22	62.03
667.408	61.45
667.596	62.34
667.784	62.62
667.971	63.48
668.159	63.81
668.347	63.84
668.535	63.03
668.723	62.34
668.911	61.39
669.098	61.51
669.286	61.85
669.474	61.75
669.662	60.76
669.849	61.55
670.037	61.23
670.225	61.29
670.413	61.85
670.6	62.37
670.788	62.83
670.976	62.97
671.163	62.9
671.351	62.81
671.538	62.71
671.726	62.96
671.913	62.11
672.101	62.29
672.289	62.48
672.476	62.15
672.664	62.8
672.851	63.07
673.039	64.13
673.226	64.8
673.413	65.09
673.601	65.64
673.788	66.37
673.976	66.85
674.163	66.19
674.35	65.38
674.538	65.01
674.725	64.19
674.912	63.55
675.1	63.13
675.287	63.45
675.474	63.36
675.662	63.46
675.849	61.89
676.036	61.07
676.223	61.66
676.411	62.53
676.598	61.98
676.785	62.54
676.972	62.84
677.159	62.96
677.346	62.02
677.533	61.78
677.721	62.02
677.908	63.24
678.095	64.28
678.282	64.02
678.469	63.28
678.656	63.8
678.843	62.72
679.03	63.07
679.217	62.93
679.404	63.03
679.591	63.05
679.778	62.3
679.964	62.69
680.151	61.44
680.338	61.25
680.525	61.53
680.712	62.37
680.899	62.4
681.086	62.15
681.272	62.37
681.459	62.59
681.646	62.84
681.833	62.8
682.02	61.85
682.206	63.1
682.393	63.27
682.58	63.78
682.766	62.95
682.953	64.49
683.14	64.95
683.326	65.66
683.513	65.49
683.7	65.22
683.886	66.37
684.073	67.35
684.259	66.85
684.446	68.04
684.632	67.8
684.819	67.84
685.005	66.66
685.192	66.39
685.378	65.45
685.565	65.73
685.751	64.99
685.938	63.93
686.124	63.39
686.31	63.16
686.497	61.71
686.683	60.84
686.87	61.4
687.056	62.06
687.242	62.56
687.429	62.15
687.615	61.28
687.801	62.5
687.987	63.16
688.174	62.99
688.36	63.91
688.546	64.67
688.732	66.28
688.918	66.39
689.105	66.28
689.291	66.12
689.477	66.09
689.663	66.61
689.849	66.58
690.035	67.05
690.221	68.26
690.407	68.35
690.593	68.2
690.779	67.03
690.965	66.8
691.151	67.62
691.337	67.45
691.523	68.72
691.709	69.46
691.895	69.19
692.081	68.83
692.267	68.45
692.453	67.51
692.639	68.14
692.825	68.3
693.011	68.57
693.196	68.27
693.382	68.41
693.568	67.76
693.754	67.92
693.94	69.03
694.125	69.33
694.311	70.23
694.497	70.28
694.682	70.02
694.868	70.6
695.054	69.99
695.239	69.08
695.425	68.15
695.611	66.76
695.796	66.65
695.982	65.24
696.168	64.58
696.353	63.07
696.539	63.41
696.724	63.58
696.91	63.46
697.095	63.21
697.281	62.48
697.466	62.78
697.652	63.36
697.837	62.8
698.023	62.66
698.208	62.14
698.393	62.07
698.579	61.58
698.764	60.61
698.949	60.33
699.135	60.78
699.32	61.78
699.505	61.92
699.691	62.68
699.876	62.79
700.061	63.05
700.246	63.31
700.432	63.64
700.617	64.55
700.802	65.82
700.987	66.67
701.172	66.96
701.358	66.93
701.543	68.54
701.728	67.63
701.913	67.16
702.098	67.94
702.283	70.41
702.468	70.37
702.653	70.63
702.838	71.28
703.023	70.93
703.208	70.08
703.393	70.68
703.578	70.95
703.763	72.33
703.948	74.4
704.133	74.47
704.318	72.91
704.503	73.65
704.688	74.77
704.873	74.6
705.057	74.52
705.242	76.29
705.427	75.87
705.612	75.5
705.797	75.53
705.981	74.68
706.166	74.66
706.351	75.11
706.536	74.21
706.72	72.44
706.905	72.37
707.09	72.28
707.274	71.57
707.459	72.38
707.644	72.53
707.828	72.18
708.013	71.44
708.197	70.03
708.382	69.25
708.567	69.49
708.751	69.74
708.936	67.91
709.12	68.53
709.305	68.56
709.489	68.47
709.673	68.24
709.858	69.03
710.042	68.72
710.227	69.63
710.411	69.94
710.596	69.5
710.78	69.87
710.964	72.29
711.149	72.11
711.333	72.2
711.517	72.3
711.702	71.33
711.886	70.23
712.07	70.77
712.254	71.07
712.438	70.83
712.623	70.4
712.807	69.91
712.991	69.22
713.175	69.71
713.359	70.6
713.544	70.79
713.728	71.07
713.912	70.43
714.096	69.64
714.28	69.58
714.464	70.16
714.648	70.73
714.832	71.69
715.016	72.07
715.2	71.95
715.384	70.71
715.568	69.94
715.752	69.78
715.936	70.47
716.12	72.21
716.304	73.58
716.488	73.71
716.671	73.95
716.855	73.61
717.039	73.04
717.223	72.71
717.407	73.25
717.59	73.23
717.774	73.8
717.958	73.93
718.142	74.22
718.325	74.05
718.509	73.4
718.693	75.67
718.877	75.83
719.06	76.39
719.244	77.27
719.428	77.46
719.611	78.9
719.795	78.7
719.978	78.89
720.162	79.18
720.345	80.14
720.529	81.53
720.713	80.91
720.896	80.55
721.08	78.9
721.263	78.81
721.446	78.22
721.63	78.12
721.813	79.04
721.997	78.67
722.18	78.09
722.364	77.03
722.547	77.58
722.73	78.39
722.914	78.31
723.097	80.31
723.28	80.95
723.464	82.64
723.647	83.09
723.83	83.59
724.013	84.29
724.197	85.29
724.38	84.06
724.563	82.33
724.746	81.84
724.929	83.55
725.112	83.9
725.296	83.64
725.479	81.92
725.662	79.97
725.845	80.12
726.028	79.79
726.211	79.23
726.394	80.54
726.577	81.11
726.76	79.55
726.943	78.48
727.126	77.49
727.309	77.52
727.492	78.19
727.675	78.51
727.858	77.65
728.041	77.87
728.224	78.41
728.407	76.96
728.589	76.73
728.772	76.92
728.955	77.74
729.138	76.12
729.321	75.24
729.503	75.28
729.686	75.87
729.869	75.55
730.052	75.47
730.234	75.29
730.417	76.58
730.6	75.84
730.782	76.36
730.965	75.39
731.148	77.94
731.33	77.74
731.513	77.47
731.695	75.44
731.878	76.05
732.061	75.75
732.243	75.25
732.426	75.51
732.608	74.98
732.791	75.18
732.973	76.33
733.156	74.13
733.338	74.67
733.52	74.69
733.703	75.46
733.885	76.08
734.068	76.19
734.25	77.73
734.432	76.96
734.615	78.67
734.797	79.27
734.979	78.37
735.162	78.43
735.344	78.67
735.526	79.54
735.708	81.48
735.891	80.42
736.073	81.76
736.255	80.79
736.437	79.87
736.619	79.94
736.802	78.02
736.984	78.88
737.166	81.52
737.348	82.04
737.53	82.5
737.712	80.91
737.894	81.24
738.076	80.62
738.258	77.85
738.44	78.33
738.622	76.8
738.804	78.71
738.986	78.53
739.168	77.09
739.35	76.59
739.532	76.46
739.714	79.29
739.896	78.18
740.078	80.66
740.259	83.58
740.441	85.73
740.623	87.92
740.805	87.86
740.987	87.76
741.168	89.38
741.35	89.6
741.532	88.48
741.714	86.61
741.895	86.89
742.077	86.77
742.259	88.11
742.44	86.02
742.622	85.06
742.804	86.32
742.985	87.16
743.167	87.73
743.348	90.09
743.53	91.25
743.711	90.9
743.893	92.99
744.075	90.66
744.256	88.92
744.438	91.65
744.619	94.5
744.8	91.9
744.982	91.6
745.163	91.73
745.345	88.55
745.526	88.42
745.707	90.5
745.889	90.84
746.07	92.23
746.252	93.89
746.433	90.37
746.614	89.82
746.795	90.79
746.977	92.24
747.158	89.01
747.339	90.02
747.52	91.42
747.702	90.17
747.883	90.42
748.064	88.98
748.245	87.43
748.426	88.62
748.607	85.41
748.788	85.67
748.97	85.3
749.151	87.63
749.332	88.62
749.513	87.31
749.694	86.92
749.875	85.33
750.056	87.21
750.237	90.32
750.418	94.11
750.599	97.25
750.78	95.98
750.96	95.36
751.141	96.55
751.322	97.54
751.503	97.46
751.684	99.17
751.865	98.44
752.046	97.49
752.226	93.78
752.407	91
752.588	91
752.769	93.19
752.949	91.61
753.13	90.58
753.311	88.6
753.492	89.55
753.672	89.36
753.853	91.54
754.034	91.56
754.214	93.11
754.395	91.65
754.575	94.16
754.756	94.05
754.937	97.8
755.117	97.17
755.298	98.79
755.478	97.48
755.659	96.07
755.839	95.39
756.02	94.16
756.2	92.25
756.381	94.01
756.561	91.73
756.741	91.04
756.922	89.07
757.102	91.46
757.283	90.27
757.463	90.52
757.643	91.92
757.823	92.87
758.004	93.26
758.184	94.51
758.364	94.23
758.545	94.46
758.725	94.14
758.905	91.65
759.085	90.54
759.265	90.54
759.446	90.16
759.626	89.46
759.806	89.05
759.986	89.21
760.166	91.21
760.346	91.74
760.526	90.54
760.706	91.25
760.886	90.93
761.066	91.59
761.246	90.36
761.426	88.74
761.606	86.32
761.786	84.69
761.966	83.72
762.146	80.51
762.326	78.23
762.506	76.23
762.686	74.99
762.866	75.51
763.046	72.08
763.225	72.44
763.405	73.35
763.585	72.63
763.765	71.77
763.945	71.63
764.124	72.63
764.304	73.66
764.484	75.05
764.664	75.97
764.843	77.3
765.023	80.71
765.203	80.83
765.382	82.35
765.562	85.13
765.741	86.61
765.921	89.04
766.101	88.47
766.28	88.66
766.46	91.17
766.639	89.97
766.819	89.44
766.998	89.83
767.178	89.79
767.357	89.68
767.537	90.73
767.716	95.2
767.896	95.75
768.075	98.87
768.254	100.3
768.434	98.53
768.613	104.36
768.792	103.74
768.972	104.9
769.151	106.42
769.33	106.34
769.51	107.25
769.689	105.8
769.868	106.82
770.047	104.98
770.226	104.67
770.406	106.29
770.585	106.24
770.764	107.41
770.943	105.26
771.122	107.53
771.301	105.22
771.48	107.48
771.66	107.5
771.839	107.32
772.018	109.6
772.197	108.33
772.376	107.81
772.555	106.06
772.734	108.54
772.913	110.49
773.092	111.08
773.271	113.03
773.449	113.6
773.628	108.49
773.807	109.35
773.986	110.51
774.165	113.18
774.344	115.65
774.523	114.33
774.701	113.5
774.88	115.78
775.059	117.36
775.238	119.67
775.417	114.07
775.595	122.21
775.774	122.54
775.953	120.29
776.131	117.24
776.31	114.68
776.489	119.43
776.667	119.27
776.846	117.62
777.025	115.51
777.203	113.52
777.382	114.21
777.56	110.73
777.739	108.08
777.917	113.78
778.096	119.06
778.274	122.65
778.453	116.94
778.631	117.39
778.81	115.13
778.988	114.39
779.166	117.69
779.345	119.04
779.523	119.71
779.702	117.54
779.88	113.2
780.058	107.28
780.237	106.77
780.415	107.51
780.593	108.21
780.771	111.07
780.95	114.13
781.128	114.91
781.306	118.11
781.484	120.38
781.662	134.7
781.841	132.54
782.019	137.37
782.197	133.96
782.375	133.84
782.553	131.49
782.731	132.08
782.909	126.65
783.087	127.67
783.265	129.65
783.443	127.7
783.621	116.75
783.799	121.78
783.977	124.33
784.155	129.77
784.333	131.85
784.511	133.07
784.689	132.1
784.867	135.24
785.045	130.65
785.223	132.21
785.4	130.09
785.578	130.72
785.756	127.97
785.934	124.29
786.112	125.9
786.289	127.79
786.467	125.04
786.645	122.56
786.823	119.95
787	121.27
787.178	117.42
787.356	114.88
787.533	116.72
787.711	114.64
787.889	114.71
788.066	107.8
788.244	104.4
788.421	105.55
788.599	102.94
788.776	103.07
788.954	101.1
789.131	96.97
789.309	98.38
789.486	95.43
789.664	96.28
789.841	94.77
790.019	97.55
790.196	102.62
790.373	105.28
790.551	116.04
790.728	115.46
790.906	114.64
791.083	118.9
791.26	121.11
791.437	123.57
791.615	125.35
791.792	128.03
791.969	127.64
792.146	117.63
792.324	114.19
792.501	109.62
792.678	111.33
792.855	111.08
793.032	116.41
793.209	115.58
793.387	113.99
793.564	114.18
793.741	116.87
793.918	114.17
794.095	120.73
794.272	124.32
794.449	117.42
794.626	121.24
794.803	120.9
794.98	117.53
795.157	113.86
795.334	114.18
795.511	109.63
795.688	109.1
795.864	110.55
796.041	107.5
796.218	107.01
796.395	111.45
796.572	109.75
796.749	117.8
796.925	118.29
797.102	122.32
797.279	124.54
797.456	128.85
797.632	127.53
797.809	131.13
797.986	135.57
798.162	136.68
798.339	135.87
798.516	135.64
798.692	129.96
798.869	122.52
799.046	123.82
799.222	124.75
799.399	127.98
799.575	131.54
799.752	128.52
799.928	124.45
800.105	118.87
800.281	123.5
800.458	124.27
800.634	123.87
800.811	138.91
800.987	146.28
801.163	151.4
801.34	147.38
801.516	150.37
801.692	163.03
801.869	166.91
802.045	183.53
802.221	172.2
802.398	171.31
802.574	170.65
802.75	159.78
802.926	158.1
803.103	151.38
803.279	149.55
803.455	146.26
803.631	140.48
803.807	137.43
803.983	133.95
804.16	143.52
804.336	143.42
804.512	146.16
804.688	141.39
804.864	134.05
805.04	139.91
805.216	144.1
805.392	142.99
805.568	152.84
805.744	150.65
805.92	160.51
806.096	149.66
806.272	155.7
806.448	157.49
806.623	169.81
806.799	169.37
806.975	170.52
807.151	170.68
807.327	177.25
807.503	163.99
807.678	174.77
807.854	163.85
808.03	168.23
808.206	161.1
808.381	158.59
808.557	146.58
808.733	145.53
808.908	145.94
809.084	149.73
809.26	141.84
809.435	146.38
809.611	145.15
809.787	142.06
809.962	148.12
810.138	148.11
810.313	143.07
810.489	147.79
810.664	153.25
810.84	157.3
811.015	153.71
811.191	163.44
811.366	159.96
811.542	154
811.717	152.51
811.892	143.84
812.068	150.07
812.243	151.91
812.419	152.87
812.594	153.15
812.769	146.38
812.944	142.94
813.12	139.71
813.295	143.56
813.47	146.55
813.645	157.87
813.821	158.06
813.996	149.78
814.171	155.92
814.346	153.33
814.521	152.24
814.697	150.3
814.872	150.25
815.047	151.1
815.222	150.12
815.397	152.55
815.572	142.69
815.747	146.45
815.922	151.58
816.097	150.82
816.272	153.19
816.447	147.99
816.622	149.47
816.797	153.36
816.972	152.13
817.147	149.68
817.322	145.23
817.496	148.99
817.671	143.63
817.846	142.2
818.021	135.57
818.196	132.9
818.371	127.78
818.545	124.15
818.72	125.85
818.895	122.42
819.069	118.6
819.244	116.36
819.419	110.62
819.594	111.33
819.768	105.17
819.943	100.17
820.117	94.12
820.292	90.45
820.467	84
820.641	77.78
820.816	74.17
820.99	72.77
821.165	69.07
821.339	66.66
821.514	65.95
821.688	64.22
821.863	63.79
822.037	62.58
822.212	61.16
822.386	60.43
822.56	59.41
822.735	59.05
822.909	58.24
823.084	58.12
823.258	58.51
823.432	58.11
823.606	59.14
823.781	58.5
823.955	59.99
824.129	63.8
824.303	68.49
824.478	71.36
824.652	72.77
824.826	74.82
825	78.45
825.174	81.9
825.348	80.74
825.523	83.11
825.697	86.19
825.871	86.49
826.045	82.31
826.219	80.81
826.393	81.82
826.567	83.3
826.741	85.4
826.915	82.23
827.089	81.34
827.263	80.72
827.437	78.81
827.611	78.25
827.784	77.75
827.958	81.85
828.132	83.53
828.306	84.68
828.48	86.66
828.654	83.89
828.827	88.04
829.001	88.78
829.175	92.2
829.349	94.8
829.522	99.93
829.696	103.02
829.87	102.95
830.044	104.58
830.217	106.65
830.391	106.16
830.565	111.76
830.738	115.61
830.912	119.99
831.085	125.51
831.259	132.87
831.432	127.97
831.606	130.89
831.779	127.56
831.953	121.36
832.126	117.46
832.3	114.39
832.473	106.63
832.647	105.84
832.82	102.54
832.994	98.63
833.167	97.12
833.34	94.26
833.514	89.89
833.687	90.31
833.86	92.97
834.034	92.55
834.207	95.45
834.38	97.84
834.553	94.71
834.727	95.45
834.9	97.87
835.073	100.79
835.246	107.95
835.419	115.92
835.593	117.73
835.766	117.14
835.939	121.24
836.112	120.71
836.285	128.45
836.458	143.44
836.631	152.12
836.804	154.85
836.977	150.78
837.15	155.47
837.323	161.92
837.496	162.19
837.669	158.3
837.842	157.15
838.015	167.87
838.188	169.37
838.361	165.36
838.533	160.13
838.706	169.02
838.879	172.69
839.052	165.86
839.225	162.97
839.398	170.02
839.57	177.75
839.743	182.83
839.916	173.71
840.088	170.36
840.261	170.68
840.434	165.08
840.607	166.1
840.779	167.66
840.952	164.84
841.124	181.29
841.297	206.19
841.47	219.91
841.642	222.78
841.815	237.31
841.987	245.09
842.16	237.98
842.332	284.47
842.505	287.99
842.677	269.84
842.85	251.19
843.022	235.57
843.194	224.2
843.367	258.41
843.539	244.47
843.712	249.77
843.884	259.55
844.056	280.22
844.229	263.83
844.401	248.82
844.573	279.14
844.745	346.59
844.918	377.3
845.09	342.87
845.262	304.19
845.434	329.31
845.606	335.27
845.779	417.89
845.951	412.24
846.123	546.09
846.295	525.64
846.467	433.74
846.639	465.37
846.811	418.15
846.983	409.1
847.155	380.11
847.327	413.16
847.499	423.56
847.671	405.45
847.843	390.97
848.015	321.39
848.187	413.28
848.359	409.08
848.531	356.31
848.703	300.1
848.875	350.49
849.047	302.13
849.218	299.89
849.39	302.66
849.562	246.52
849.734	242.49
849.905	288.9
850.077	256.58
850.249	278.02
850.421	291.48
850.592	304.59
850.764	307.95
850.936	347.93
851.107	343.28
851.279	320.04
851.451	427.24
851.622	400.12
851.794	353.18
851.965	366.74
852.137	352.12
852.308	338.37
852.48	392.15
852.651	317.24
852.823	322.57
852.994	321.71
853.166	330.02
853.337	306.73
853.509	324.61
853.68	363.01
853.851	307.7
854.023	279.48
854.194	252.46
854.365	236.44
854.537	268.89
854.708	268.8
854.879	287.66
855.05	295.24
855.222	256.66
855.393	245.38
855.564	218.89
855.735	240.49
855.906	280.32
856.078	377.16
856.249	390.07
856.42	382.83
856.591	386.63
856.762	398.26
856.933	356.29
857.104	442.41
857.275	448.87
857.446	502.77
857.617	443.68
857.788	399.51
857.959	296.37
858.13	298.5
858.301	285.47
858.472	261
858.643	227.97
858.814	246.64
858.985	244.08
859.155	279.18
859.326	307.11
859.497	491.67
859.668	893.61
859.839	982.05
860.009	1000
860.18	4980.56
860.351	-6062.5
860.522	6228.57
860.692	-11010.53
860.863	3464.52
861.034	1379.88
861.204	951.2
861.375	483.87
861.546	372.39
861.716	394.81
861.887	354.45
862.057	354.06
862.228	346.23
862.398	388.09
862.569	339.03
862.739	357.19
862.91	349.53
863.08	325.29
863.251	376.38
863.421	450.25
863.592	611.29
863.762	1283.82
863.932	831.65
864.103	728.91
864.273	658.93
864.443	776.44
864.614	973.08
864.784	525.92
864.954	460.18
865.125	375.88
865.295	364.29
865.465	288.54
865.635	260.81
865.805	252.21
865.976	267.35
866.146	271.15
866.316	280.97
866.486	245.13
866.656	309.57
866.826	332.52
866.996	328.91
867.166	279.55
867.336	318.13
867.506	278.51
867.676	291.54
867.846	296.47
868.016	297.64
868.186	284.97
868.356	291.85
868.526	267.85
868.696	291.37
868.866	302.62
869.036	383.26
869.206	361.67
869.376	411.56
869.545	347.67
869.715	346.15
869.885	316.75
870.055	290.19
870.224	304.62
870.394	331.58
870.564	304.31
870.734	337.98
870.903	324.16
871.073	318.54
871.243	284.52
871.412	350.11
871.582	323.42
871.751	362.37
871.921	448.41
872.091	438.2
872.26	416.11
872.43	442.77
872.599	397.39
872.769	327.28
872.938	397.02
873.108	487.52
873.277	457.4
873.446	437.11
873.616	416.81
873.785	384.22
873.955	409.65
874.124	313.66
874.293	315.32
874.463	311.25
874.632	288.14
874.801	278.24
874.971	315.7
875.14	327.81
875.309	305.56
875.478	320.68
875.647	312.28
875.817	284.31
875.986	363.57
876.155	333.69
876.324	376.24
876.493	477.01
876.662	353.3
876.831	288.14
877	287.98
877.17	331.84
877.339	338.04
877.508	370.45
877.677	391.32
877.846	322.94
878.015	364.28
878.184	366.54
878.352	328.19
878.521	354.31
878.69	372.95
878.859	352.16
879.028	316.17
879.197	314.73
879.366	355.13
879.534	325.88
879.703	301.02
879.872	271.05
880.041	226.89
880.21	214.22
880.378	204.03
880.547	184.47
880.716	156.58
880.884	149.78
881.053	135.01
881.222	117.47
881.39	111.06
881.559	108.77
881.727	101.75
881.896	98.13
882.065	93.1
882.233	94.86
882.402	93.6
882.57	94.23
882.739	90.18
882.907	88.58
883.076	87.28
883.244	88.73
883.412	91.58
883.581	96.86
883.749	100.67
883.918	107.09
884.086	110.49
884.254	114.57
884.423	114.87
884.591	122.64
884.759	132.01
884.927	143.38
885.096	154.06
885.264	163.43
885.432	171.15
885.6	185.32
885.769	212.77
885.937	218.55
886.105	237.48
886.273	255.86
886.441	285.65
886.609	308.99
886.777	311.85
886.945	329.71
887.113	367.49
887.281	402.27
887.449	374.28
887.617	322.2
887.785	314.08
887.953	347.2
888.121	426.99
888.289	370.42
888.457	321.54
888.625	327.15
888.793	388.33
888.961	361.81
889.129	363.72
889.296	337.18
889.464	333.38
889.632	365.91
889.8	314.9
889.967	289.33
890.135	290.61
