Data from JASIL_3002_Reflection_02.txt Node
Date: Mon Nov 09 10:08:57 EST 2015
User: Geneva
Spectrometer: USB4E03002
Autoset integration time: false
Trigger mode: 4
Integration Time (sec): 1.000000E-1
Scans to average: 10
Electric dark correction enabled: false
Nonlinearity correction enabled: false
Boxcar width: 5
Stray light correction enabled: false
XAxis mode: Wavelengths
Stop averaging: false
Number of Pixels in Spectrum: 3648
>>>>>Begin Spectral Data<<<<<
177.575	-1327.27
177.794	6300
178.014	-1444.44
178.233	2652.63
178.452	546.09
178.672	2809.09
178.891	-2356.52
179.11	-330.19
179.33	2575
179.549	-274.24
179.768	205.3
179.987	149.52
180.207	103.19
180.426	60.13
180.645	124.1
180.864	91.49
181.084	156.48
181.303	106.78
181.522	93.5
181.741	2400
181.96	260
182.179	-109.68
182.398	3750
182.618	75.24
182.837	101.84
183.056	158.93
183.275	170.64
183.494	157.86
183.713	252.82
183.932	111.66
184.151	363.41
184.37	123.38
184.589	62.37
184.808	67.27
185.027	101.69
185.246	-106.93
185.465	1173.68
185.684	-63.3
185.903	93.52
186.122	87.35
186.341	25.36
186.56	155.17
186.779	-51.01
186.998	-310.39
187.216	-182.01
187.435	-102.2
187.654	-59.62
187.873	26.53
188.092	82.42
188.311	267.74
188.53	-147.06
188.748	325
188.967	112.15
189.186	-282.05
189.405	129.82
189.623	121.31
189.842	109.16
190.061	21.76
190.28	-72.66
190.498	-15.38
190.717	12.93
190.936	14.57
191.154	-18.01
191.373	-31.6
191.592	-6.41
191.81	-46.72
192.029	-21.72
192.248	-42.55
192.466	-55.11
192.685	-50.31
192.904	-63.93
193.122	-87.5
193.341	-200.54
193.559	-150.94
193.778	-84.72
193.996	118.29
194.215	23.81
194.433	-56.55
194.652	-594.74
194.87	-331.25
195.089	-35.98
195.307	-57.05
195.526	-787.5
195.744	189.44
195.963	318.29
196.181	48.61
196.399	67.14
196.618	-52.6
196.836	2005
197.055	615
197.273	380.52
197.491	-241.86
197.71	-216.67
197.928	-260
198.146	525.93
198.365	-46.96
198.583	66.13
198.801	300
199.019	469.57
199.238	132.4
199.456	142.68
199.674	73.48
199.892	10.32
200.111	82.52
200.329	71.58
200.547	-80
200.765	47.25
200.983	142
201.202	148.86
201.42	88.27
201.638	-248.98
201.856	312.5
202.074	-3190.91
202.292	1202.5
202.51	-257.58
202.728	-106.27
202.946	-321.9
203.165	-743.4
203.383	-92.92
203.601	-7.32
203.819	28.6
204.037	50.95
204.255	108.43
204.473	189.41
204.691	525.58
204.909	2208.33
205.127	-2184.62
205.345	-1516.22
205.562	-3814.29
205.78	-1178.79
205.998	409.57
206.216	254.05
206.434	454.67
206.652	81.05
206.87	103.7
207.088	-5.44
207.306	-2.5
207.523	101.67
207.741	55.36
207.959	2.57
208.177	-1.85
208.395	15.27
208.612	33.98
208.83	54.82
209.048	38.4
209.266	40.14
209.483	47.29
209.701	66.08
209.919	80.89
210.136	99.53
210.354	418.84
210.572	-170.07
210.79	-94.22
211.007	5.96
211.225	13.56
211.442	9.87
211.66	2.17
211.878	47.46
212.095	-154.75
212.313	-90.89
212.53	-85.71
212.748	-182.96
212.966	-191.17
213.183	-439.29
213.401	-1217.33
213.618	1586.67
213.836	708.33
214.053	-1686.21
214.271	-955.45
214.488	-166.67
214.705	240
214.923	-369.77
215.14	-100
215.358	268.29
215.575	-113.16
215.793	-222.73
216.01	-932
216.227	-793.75
216.445	163.64
216.662	82.3
216.879	55.21
217.097	71.59
217.314	67.58
217.531	52.27
217.749	64.85
217.966	84.77
218.183	54.84
218.4	41.67
218.618	50.96
218.835	30.6
219.052	128.12
219.269	225.64
219.487	383.91
219.704	258.78
219.921	90.45
220.138	93.4
220.355	59.43
220.572	76.09
220.79	51.23
221.007	50.74
221.224	67.13
221.441	12.16
221.658	20.4
221.875	26.05
222.092	49.9
222.309	96.27
222.526	64.47
222.743	93.06
222.96	102.74
223.177	1025
223.394	-140.68
223.611	32.2
223.828	146.08
224.045	108.86
224.262	42.92
224.479	13.26
224.696	29.51
224.913	49.58
225.13	44.5
225.347	63.39
225.564	41.6
225.781	33.42
225.997	29.46
226.214	26.28
226.431	35.66
226.648	25.33
226.865	18.25
227.082	18.91
227.298	16.9
227.515	11.83
227.732	8.03
227.949	22.59
228.165	26.98
228.382	31.72
228.599	34.71
228.816	30.42
229.032	31.75
229.249	34.49
229.466	32.36
229.682	32.28
229.899	31.9
230.116	31
230.332	25.52
230.549	26.13
230.765	7.35
230.982	6.03
231.199	4.9
231.415	15.18
231.632	16.72
231.848	8.41
232.065	1.93
232.281	19.06
232.498	18.94
232.714	11.49
232.931	3.3
233.147	8.97
233.364	2.53
233.58	3.81
233.797	-25.63
234.013	-22.55
234.23	-12.94
234.446	-25.59
234.662	-28.87
234.879	-23.04
235.095	-20.5
235.312	-17.86
235.528	16.53
235.744	12.18
235.961	8.34
236.177	15.58
236.393	9.98
236.61	6.6
236.826	11.98
237.042	11.01
237.258	5.98
237.475	-8.54
237.691	-7.23
237.907	-32.79
238.123	-27.21
238.339	-24.42
238.556	-1.27
238.772	-9.11
238.988	-7.88
239.204	-5.14
239.42	-8.8
239.636	-10.59
239.853	-0.97
240.069	-4.25
240.285	-5.74
240.501	-0.52
240.717	-1.1
240.933	-6.29
241.149	-2.22
241.365	-3.19
241.581	-0.49
241.797	4.05
242.013	5.9
242.229	2.27
242.445	-0.68
242.661	2.93
242.877	-0.41
243.093	-4.69
243.309	-2.3
243.525	-5.32
243.741	-4.21
243.957	-2.59
244.173	-6.05
244.388	-5.43
244.604	-4.12
244.82	0.34
245.036	1.01
245.252	-0.59
245.468	1
245.683	2.58
245.899	3.64
246.115	3.05
246.331	-0.59
246.547	-0.84
246.762	0.77
246.978	1.97
247.194	3.18
247.409	1.98
247.625	4.36
247.841	3.22
248.057	2.33
248.272	1.29
248.488	4.15
248.703	10.22
248.919	12.58
249.135	12.15
249.35	11.54
249.566	8.57
249.782	9.17
249.997	8.73
250.213	10.99
250.428	14.35
250.644	13.64
250.859	11.35
251.075	7.62
251.29	4.86
251.506	4.94
251.721	7.31
251.937	7.33
252.152	4.99
252.368	2.66
252.583	0.4
252.798	-3.09
253.014	-7.19
253.229	-4.61
253.445	-1.08
253.66	1.77
253.875	-1.47
254.091	-6.84
254.306	-0.27
254.521	14.76
254.737	10.69
254.952	12.37
255.167	2.13
255.383	3.94
255.598	-4.82
255.813	2.51
256.028	-0.07
256.244	-0.2
256.459	0.74
256.674	-1.67
256.889	-5.39
257.104	0.19
257.32	-1.33
257.535	2.28
257.75	3.86
257.965	6.5
258.18	5.11
258.395	4.26
258.61	3.35
258.826	3.74
259.041	4.01
259.256	5.29
259.471	5.94
259.686	7.24
259.901	7.92
260.116	7.17
260.331	5.85
260.546	4.35
260.761	6.06
260.976	5.06
261.191	2.76
261.406	1.21
261.621	-0.67
261.836	-3.55
262.05	-2.23
262.265	-4.22
262.48	-3.78
262.695	0.05
262.91	0.83
263.125	-1.61
263.34	4.45
263.555	10.38
263.769	14.88
263.984	15.91
264.199	15.41
264.414	13.91
264.629	16.55
264.843	17.7
265.058	15.55
265.273	14.64
265.488	16.77
265.702	13.61
265.917	8.81
266.132	2.72
266.346	-0.37
266.561	-1.2
266.776	-4.76
266.99	-12.41
267.205	-14.42
267.42	-16.02
267.634	-15.59
267.849	-16.33
268.063	-16.88
268.278	-15.37
268.492	-12.04
268.707	-9.59
268.922	-9.41
269.136	-7.95
269.351	-3.92
269.565	-1.98
269.78	0.17
269.994	-1.45
270.209	-1.95
270.423	-1.97
270.637	-0.45
270.852	0.34
271.066	-0.56
271.281	0.88
271.495	-0.44
271.709	-2.52
271.924	-4.25
272.138	-5.41
272.353	-4.13
272.567	-3.7
272.781	-4.32
272.996	-2.71
273.21	1.38
273.424	2.31
273.638	3.39
273.853	3.96
274.067	6.98
274.281	7.27
274.495	9.02
274.71	8.72
274.924	8.17
275.138	10
275.352	8.16
275.566	0.73
275.781	2.09
275.995	1.55
276.209	0.13
276.423	-0.58
276.637	-2.12
276.851	-0.53
277.065	0.45
277.279	0.4
277.493	1.24
277.707	2.18
277.921	10.3
278.135	5.42
278.349	7.16
278.563	7.63
278.777	7.72
278.991	11.85
279.205	10.34
279.419	10.37
279.633	10.49
279.847	6.16
280.061	5.1
280.275	1.04
280.489	4.32
280.703	1.42
280.917	1.57
281.131	-1.08
281.344	-4.17
281.558	-5.71
281.772	-5.4
281.986	-8.55
282.2	-6.42
282.414	-6.41
282.627	-6.43
282.841	-6.09
283.055	-4.54
283.269	-3.97
283.482	-2.1
283.696	-0.85
283.91	1.17
284.123	-1.07
284.337	-0.19
284.551	1.27
284.764	0.95
284.978	1.04
285.192	0.75
285.405	-0.17
285.619	1.42
285.833	0.84
286.046	1.44
286.26	-1.83
286.473	-0.91
286.687	-0.69
286.9	-2.17
287.114	-1.1
287.327	-0.89
287.541	-0.79
287.754	-2.2
287.968	-3.22
288.181	-3.96
288.395	-4.35
288.608	-3.24
288.822	-1.99
289.035	-4.84
289.248	-3.16
289.462	-3.31
289.675	-3.33
289.889	-2.31
290.102	0.45
290.315	-1.18
290.529	-0.15
290.742	-1.59
290.955	-0.21
291.169	-0.03
291.382	3.41
291.595	3.93
291.808	4.28
292.022	7.31
292.235	4.75
292.448	3.82
292.661	5.09
292.875	7.67
293.088	7.31
293.301	6.34
293.514	7.86
293.727	8.91
293.94	7.3
294.153	4.83
294.367	4.38
294.58	4.87
294.793	6.55
295.006	7.22
295.219	5.79
295.432	6.63
295.645	7.21
295.858	6.3
296.071	4.51
296.284	5.17
296.497	6.63
296.71	6.14
296.923	5.41
297.136	3.25
297.349	3.69
297.562	2.47
297.775	3.98
297.988	3.2
298.201	1.84
298.414	3.31
298.626	4.05
298.839	3.86
299.052	3.77
299.265	5.29
299.478	5.72
299.691	4.09
299.903	3.26
300.116	1.41
300.329	3.05
300.542	5.53
300.755	3.25
300.967	1.87
301.18	3.18
301.393	4.01
301.605	6.07
301.818	5.72
302.031	4.37
302.243	6.41
302.456	6.3
302.669	4.94
302.881	3.79
303.094	4.63
303.307	2.59
303.519	2.44
303.732	-1.39
303.944	-3.1
304.157	-2.44
304.37	-1.49
304.582	-1.36
304.795	-0.41
305.007	-1.4
305.22	-1.84
305.432	0.76
305.645	1.52
305.857	2.5
306.069	2.42
306.282	3.44
306.494	2.94
306.707	5.19
306.919	3.85
307.132	4.37
307.344	5.2
307.556	3.78
307.769	2.23
307.981	5.32
308.193	2.88
308.406	6.38
308.618	5.44
308.83	5.52
309.043	6.88
309.255	6.74
309.467	6.58
309.679	7.39
309.892	9.86
310.104	10.86
310.316	11.69
310.528	11.6
310.74	10.79
310.953	9.81
311.165	10.1
311.377	7.91
311.589	8.53
311.801	8.58
312.013	7.7
312.225	6.42
312.437	3.8
312.649	1.17
312.862	3.62
313.074	2.81
313.286	3.05
313.498	3.49
313.71	4.68
313.922	5.22
314.134	3.91
314.346	7.03
314.558	6.43
314.77	10.9
314.982	11.37
315.193	8.68
315.405	7.6
315.617	9.87
315.829	7.11
316.041	5.26
316.253	3.34
316.465	3.96
316.677	0.19
316.888	-0.93
317.1	-4.65
317.312	-4.72
317.524	-3.01
317.736	-3.33
317.947	-2.61
318.159	3.77
318.371	3.24
318.583	7.89
318.794	5.59
319.006	6.54
319.218	7.93
319.43	7.96
319.641	6.54
319.853	5.45
320.064	8.49
320.276	5.75
320.488	2.58
320.699	6.59
320.911	6.66
321.123	9.84
321.334	10.68
321.546	9.92
321.757	10.23
321.969	10.85
322.18	11.55
322.392	8.86
322.603	9.42
322.815	8.97
323.026	6.32
323.238	4.27
323.449	1.74
323.661	1.6
323.872	2.49
324.083	3.8
324.295	4.07
324.506	4.01
324.718	7.36
324.929	7.01
325.14	8.99
325.352	10.46
325.563	9.2
325.774	11.38
325.986	12.59
326.197	13.77
326.408	12.91
326.62	12.66
326.831	12.01
327.042	8.84
327.253	11.09
327.464	8.69
327.676	7.01
327.887	6.9
328.098	8.26
328.309	5.19
328.52	7.28
328.732	7.1
328.943	6.26
329.154	8.06
329.365	9.79
329.576	7.09
329.787	8.9
329.998	8.78
330.209	13.55
330.42	12.34
330.631	15.15
330.842	12.48
331.053	11.22
331.264	11.24
331.475	7.29
331.686	5.97
331.897	6.5
332.108	6.49
332.319	6.47
332.53	4.77
332.741	2.1
332.952	-2.09
333.163	-3.03
333.374	-1.32
333.585	-1.25
333.795	1.87
334.006	1.4
334.217	1.1
334.428	1.04
334.639	3.59
334.849	0.43
335.06	4.23
335.271	3.87
335.482	5.42
335.692	7.56
335.903	9.65
336.114	8.42
336.325	11.13
336.535	13.22
336.746	8.5
336.957	6.88
337.167	8.58
337.378	7.56
337.589	7.69
337.799	3.71
338.01	-1.14
338.22	-2.39
338.431	-0.95
338.642	-2.98
338.852	-4.34
339.063	0.33
339.273	1.43
339.484	3.24
339.694	1.42
339.905	4.99
340.115	10.32
340.326	12.78
340.536	13.25
340.746	12.16
340.957	12.05
341.167	10.47
341.378	10.48
341.588	10.49
341.799	9.04
342.009	9.62
342.219	7.89
342.43	7.17
342.64	6.89
342.85	9.38
343.061	10.53
343.271	10.92
343.481	10.57
343.691	9.22
343.902	10.37
344.112	8.12
344.322	7.6
344.532	8.67
344.743	7.07
344.953	7.06
345.163	3.87
345.373	4.29
345.583	3.58
345.793	5.25
346.004	7.13
346.214	5.83
346.424	7.88
346.634	10.65
346.844	9.94
347.054	10.76
347.264	11.25
347.474	11.16
347.684	10.7
347.894	11.34
348.104	10.27
348.314	10.43
348.524	9.89
348.734	9.28
348.944	7.23
349.154	6.2
349.364	8.51
349.574	7.24
349.784	7.67
349.994	7.81
350.204	6.78
350.413	6.54
350.623	6.06
350.833	4.83
351.043	7.26
351.253	8.63
351.463	10.47
351.672	7.61
351.882	8.88
352.092	7.43
352.302	6.47
352.511	6.87
352.721	6.89
352.931	6.92
353.141	7.08
353.35	4.3
353.56	4.53
353.77	5.07
353.979	6.29
354.189	6.71
354.399	7.44
354.608	7.13
354.818	8.14
355.027	7.88
355.237	6.52
355.447	7.41
355.656	7.43
355.866	5.98
356.075	3.94
356.285	4.04
356.494	3.63
356.704	3.13
356.913	2.53
357.123	1.08
357.332	1.9
357.542	2.65
357.751	2.62
357.96	3.02
358.17	2.78
358.379	3.48
358.589	2.48
358.798	3.69
359.007	5.38
359.217	6.08
359.426	5.74
359.635	3.48
359.845	4.32
360.054	4.56
360.263	4.38
360.472	5.18
360.682	5.82
360.891	6.44
361.1	4.86
361.309	3.96
361.519	3.38
361.728	4.48
361.937	5.75
362.146	5.53
362.355	6.75
362.564	7.67
362.774	8.33
362.983	7.88
363.192	7.77
363.401	9.55
363.61	11.3
363.819	12.14
364.028	12.56
364.237	13
364.446	12.59
364.655	8.99
364.864	8.44
365.073	7.13
365.282	7.86
365.491	7.62
365.7	4.85
365.909	4.96
366.118	4.67
366.327	3.15
366.536	3.98
366.745	3.97
366.954	5.4
367.162	6.89
367.371	8.61
367.58	8.59
367.789	9.47
367.998	11.3
368.207	9.31
368.415	9.83
368.624	11.41
368.833	9.64
369.042	10.56
369.25	12.24
369.459	12.47
369.668	11.03
369.877	10.78
370.085	10.51
370.294	10.23
370.503	9.85
370.711	10.12
370.92	9.95
371.129	11.71
371.337	10.35
371.546	8.18
371.754	6.11
371.963	6.94
372.171	6.17
372.38	5.17
372.589	3.36
372.797	5.3
373.006	3.29
373.214	3.93
373.423	3.05
373.631	3.25
373.84	5.08
374.048	6.77
374.256	5.49
374.465	6
374.673	7.23
374.882	9.1
375.09	8.42
375.298	8.96
375.507	8.17
375.715	8.05
375.923	8.53
376.132	10.12
376.34	9.05
376.548	8.7
376.757	7.97
376.965	7.48
377.173	8.24
377.381	7.88
377.59	7.22
377.798	6.91
378.006	7.56
378.214	8.09
378.423	6.93
378.631	6.25
378.839	6.53
379.047	7.28
379.255	7.74
379.463	6.02
379.671	7.38
379.879	8.57
380.088	9.14
380.296	6.99
380.504	6.85
380.712	5.36
380.92	6.53
381.128	8.1
381.336	8.98
381.544	9.06
381.752	10.75
381.96	10.27
382.168	9.48
382.376	9.05
382.584	10.53
382.791	10.1
382.999	9.61
383.207	8.31
383.415	6.67
383.623	5.29
383.831	4.35
384.039	3.03
384.247	1.51
384.454	2.81
384.662	3.15
384.87	3.33
385.078	3.58
385.285	3.73
385.493	5.35
385.701	5.83
385.909	6.68
386.116	7.14
386.324	7.44
386.532	8
386.739	6.08
386.947	6.9
387.155	6.69
387.362	5.75
387.57	5.88
387.778	3.73
387.985	4.36
388.193	3.9
388.4	2.93
388.608	3.04
388.816	3.19
389.023	5.63
389.231	4.55
389.438	5.79
389.646	6.48
389.853	6.57
390.061	7.62
390.268	8.33
390.475	8.89
390.683	9.56
390.89	10.9
391.098	10.57
391.305	11.01
391.512	11.07
391.72	9.8
391.927	9.99
392.135	9.95
392.342	9.51
392.549	7.92
392.756	7.47
392.964	6.5
393.171	5.83
393.378	5.61
393.586	4.62
393.793	5.24
394	5.94
394.207	5.38
394.414	5.12
394.622	5.08
394.829	6.85
395.036	7.17
395.243	8.83
395.45	8.58
395.657	9.33
395.864	9.39
396.072	9.15
396.279	9.18
396.486	8.9
396.693	10.16
396.9	11.61
397.107	10.05
397.314	9.36
397.521	9.43
397.728	9.75
397.935	11.03
398.142	11.06
398.349	9.32
398.556	9.67
398.763	10.21
398.97	9.58
399.177	8.87
399.383	10.34
399.59	10.39
399.797	9.56
400.004	9.66
400.211	7.63
400.418	8.03
400.625	10.71
400.831	10.05
401.038	9.91
401.245	10.5
401.452	10.12
401.658	8.43
401.865	9.3
402.072	9.49
402.279	8.86
402.485	8.97
402.692	8.33
402.899	6.73
403.105	7.22
403.312	7.61
403.519	7.46
403.725	7.94
403.932	9.73
404.138	10.02
404.345	10.28
404.552	10.5
404.758	10.95
404.965	11.84
405.171	11.93
405.378	11.28
405.584	11.34
405.791	11.21
405.997	10.54
406.204	9.54
406.41	8.33
406.617	8.03
406.823	8.77
407.029	8.81
407.236	7.43
407.442	8.27
407.649	9.19
407.855	9.15
408.061	9.11
408.268	10.85
408.474	10.53
408.68	10.95
408.887	9.85
409.093	8.33
409.299	8.34
409.505	8.71
409.712	8.19
409.918	7.66
410.124	7.57
410.33	7.11
410.537	5.39
410.743	5.76
410.949	4.9
411.155	6.04
411.361	6.49
411.567	7.04
411.773	6.68
411.98	6.76
412.186	6.51
412.392	5.85
412.598	6.71
412.804	6.82
413.01	7.23
413.216	7.77
413.422	8.75
413.628	8.75
413.834	7.88
414.04	8.62
414.246	9.69
414.452	9.1
414.658	9.77
414.864	10.21
415.07	10.53
415.275	10.73
415.481	10.71
415.687	10
415.893	9.73
416.099	9.91
416.305	10.07
416.511	9.68
416.716	9.95
416.922	10.25
417.128	9.76
417.334	10.26
417.539	9.83
417.745	9.95
417.951	10.22
418.157	10.64
418.362	11.14
418.568	11.36
418.774	11.52
418.979	11.37
419.185	10.7
419.391	10.88
419.596	10.35
419.802	10.44
420.008	10.5
420.213	10.75
420.419	10.7
420.624	10.17
420.83	10
421.035	9.56
421.241	10.05
421.446	10.49
421.652	10.3
421.857	10.51
422.063	10.15
422.268	9.93
422.474	9.33
422.679	9.18
422.885	9.38
423.09	8.84
423.295	9.34
423.501	9
423.706	9.03
423.911	8.84
424.117	8.88
424.322	9.32
424.527	9.58
424.733	9.75
424.938	9.95
425.143	10.43
425.349	10.95
425.554	10.25
425.759	10.41
425.964	10.32
426.169	10.58
426.375	10.73
426.58	10.38
426.785	10.03
426.99	10.4
427.195	10.38
427.4	10.06
427.605	10.48
427.811	11.13
428.016	11.46
428.221	10.66
428.426	10.98
428.631	10.38
428.836	10.29
429.041	10.58
429.246	9.74
429.451	10.39
429.656	9.85
429.861	9.56
430.066	9.66
430.271	9.72
430.476	10.79
430.681	10.14
430.886	10.31
431.09	11.07
431.295	11.75
431.5	12.29
431.705	12.2
431.91	12.3
432.115	12.34
432.32	11.85
432.524	11.08
432.729	10.79
432.934	10.74
433.139	10.69
433.343	10.55
433.548	9.91
433.753	9.93
433.958	9.46
434.162	9.68
434.367	9.42
434.572	10.16
434.776	10.66
434.981	11.31
435.186	11.61
435.39	11.53
435.595	11.03
435.799	10.83
436.004	11.14
436.209	11.34
436.413	11.09
436.618	11.53
436.822	11.1
437.027	11.49
437.231	10.47
437.436	10.7
437.64	11.16
437.845	10.87
438.049	10.96
438.253	10.59
438.458	10.76
438.662	11.1
438.867	10.61
439.071	10.38
439.275	9.89
439.48	10.3
439.684	9.74
439.888	10.33
440.093	10.48
440.297	10.56
440.501	10.58
440.706	10.3
440.91	10.07
441.114	10.4
441.318	10.97
441.523	11.47
441.727	11.21
441.931	11.52
442.135	10.64
442.339	11.41
442.543	11.31
442.748	11.22
442.952	11.29
443.156	11.59
443.36	11.67
443.564	11.53
443.768	10.87
443.972	10.96
444.176	11.02
444.38	11.06
444.584	10.29
444.788	10.7
444.992	10.47
445.196	10.32
445.4	10.41
445.604	9.95
445.808	9.62
446.012	9.73
446.216	9.76
446.42	9.94
446.624	10.12
446.828	9.97
447.032	9.8
447.235	10.05
447.439	10.37
447.643	9.8
447.847	10.25
448.051	10.15
448.254	10.77
448.458	11.12
448.662	11.18
448.866	10.8
449.069	11.28
449.273	11.25
449.477	11.02
449.681	11.26
449.884	11.2
450.088	10.33
450.292	10.25
450.495	9.55
450.699	9.22
450.902	9.08
451.106	9.16
451.31	9.05
451.513	9.42
451.717	9.71
451.92	9.45
452.124	9.53
452.327	9.92
452.531	9.61
452.734	9.9
452.938	10.11
453.141	9.8
453.345	9.83
453.548	9.95
453.752	9.86
453.955	9.7
454.158	9.49
454.362	9.89
454.565	9.04
454.769	9.73
454.972	9.19
455.175	9.36
455.379	9.55
455.582	9.85
455.785	9.57
455.988	8.33
456.192	8.69
456.395	7.63
456.598	7.91
456.801	8.88
457.005	8.5
457.208	8.66
457.411	8.37
457.614	8.41
457.817	8.18
458.021	8.41
458.224	8.96
458.427	8.89
458.63	9.41
458.833	8.91
459.036	8.52
459.239	8.67
459.442	8.94
459.645	9.14
459.848	9.31
460.051	9.28
460.254	9.29
460.457	9.39
460.66	9.54
460.863	9.8
461.066	9.91
461.269	10.41
461.472	10.17
461.675	10.19
461.878	9.97
462.081	9.62
462.284	9.7
462.486	10.12
462.689	10.07
462.892	10.23
463.095	10.26
463.298	10.47
463.5	10.85
463.703	11.43
463.906	11.27
464.109	11.23
464.311	11.31
464.514	11.73
464.717	11.12
464.92	11.15
465.122	10.42
465.325	9.82
465.528	10.28
465.73	9.59
465.933	9.25
466.135	9.51
466.338	9.8
466.541	10.07
466.743	9.87
466.946	10.01
467.148	10.07
467.351	10.6
467.553	11.76
467.756	11.62
467.958	11.86
468.161	12.78
468.363	13.17
468.566	12.7
468.768	12.85
468.971	12.98
469.173	13.85
469.375	13.96
469.578	13.83
469.78	12.98
469.983	12.67
470.185	13.3
470.387	12.57
470.59	12.27
470.792	12.47
470.994	11.87
471.196	11.9
471.399	11.67
471.601	11.7
471.803	11.92
472.005	11.92
472.208	11.51
472.41	11.25
472.612	11.28
472.814	10.98
473.016	11.13
473.218	11.46
473.421	11.14
473.623	10.44
473.825	10.42
474.027	10.29
474.229	10.99
474.431	11.37
474.633	10.65
474.835	10.85
475.037	11.03
475.239	11.23
475.441	10.96
475.643	11.6
475.845	12.09
476.047	12.58
476.249	12.4
476.451	11.91
476.653	11.56
476.855	11.82
477.057	11.92
477.258	11.87
477.46	11.97
477.662	12.44
477.864	11.98
478.066	12.13
478.268	11.39
478.469	11.24
478.671	11.27
478.873	11.64
479.075	11.87
479.276	11.92
479.478	11.8
479.68	11.69
479.882	10.98
480.083	11.23
480.285	11.07
480.487	11.13
480.688	11.15
480.89	10.88
481.091	11.15
481.293	11.15
481.495	10.61
481.696	10.4
481.898	10.07
482.099	10.2
482.301	9.99
482.502	9.61
482.704	9.59
482.905	9.63
483.107	9.6
483.308	9.39
483.51	9.09
483.711	9.12
483.913	9.16
484.114	9.29
484.315	9.39
484.517	9.46
484.718	9.88
484.92	9.72
485.121	9.81
485.322	9.92
485.524	9.91
485.725	10.32
485.926	10.41
486.127	10.45
486.329	10.38
486.53	10.38
486.731	10.14
486.932	10.02
487.134	10.14
487.335	10.1
487.536	10
487.737	10.06
487.938	9.95
488.139	10.27
488.341	10.25
488.542	10.28
488.743	9.86
488.944	9.72
489.145	9.56
489.346	9.86
489.547	9.69
489.748	9.77
489.949	10.12
490.15	10.19
490.351	10.1
490.552	10.17
490.753	10.24
490.954	10.65
491.155	11.27
491.356	11.55
491.557	11.52
491.758	11.81
491.959	11.98
492.159	11.63
492.36	11.8
492.561	11.82
492.762	11.93
492.963	12.09
493.164	12
493.364	11.74
493.565	11.71
493.766	11.63
493.967	11.47
494.167	11.84
494.368	11.65
494.569	11.36
494.769	11.25
494.97	10.95
495.171	10.66
495.371	10.92
495.572	10.78
495.773	10.74
495.973	10.76
496.174	10.97
496.375	10.84
496.575	11.23
496.776	11.63
496.976	11.38
497.177	11.83
497.377	11.97
497.578	12.06
497.778	12.28
497.979	12.17
498.179	12.6
498.38	12.58
498.58	12.82
498.78	12.52
498.981	12.36
499.181	13.05
499.382	13.21
499.582	13.16
499.782	12.67
499.983	12.82
500.183	13.4
500.383	13.41
500.584	13.35
500.784	12.94
500.984	13.3
501.184	13.07
501.385	12.89
501.585	12.82
501.785	12.91
501.985	13.21
502.185	12.94
502.386	13.23
502.586	12.99
502.786	13.03
502.986	13.25
503.186	13.26
503.386	13.9
503.586	13.59
503.786	13.55
503.987	13.94
504.187	14.6
504.387	14.75
504.587	14.43
504.787	14.42
504.987	15.06
505.187	14.83
505.387	14.84
505.587	14.5
505.786	14.66
505.986	14.76
506.186	14.3
506.386	13.73
506.586	13.46
506.786	12.99
506.986	12.8
507.186	12.08
507.386	12.26
507.585	12.35
507.785	12.71
507.985	12.49
508.185	12.95
508.384	13.05
508.584	13.2
508.784	13.87
508.984	14.41
509.183	14.59
509.383	14.31
509.583	14.37
509.782	14.53
509.982	14.18
510.182	14.03
510.381	13.89
510.581	14.26
510.781	13.92
510.98	13.52
511.18	13.31
511.379	12.67
511.579	12.99
511.778	12.65
511.978	12.57
512.177	12.7
512.377	13.06
512.576	12.8
512.776	12.99
512.975	13.51
513.175	13.42
513.374	13.53
513.573	14.44
513.773	15.12
513.972	15.63
514.172	15.76
514.371	15.54
514.57	15.48
514.77	15.2
514.969	14.59
515.168	14.73
515.367	14.56
515.567	14.3
515.766	14.38
515.965	14.12
516.164	14.09
516.364	13.83
516.563	13.87
516.762	13.93
516.961	14.02
517.16	14.07
517.359	13.97
517.559	14.41
517.758	14.77
517.957	14.69
518.156	14.62
518.355	14.42
518.554	14.58
518.753	14.87
518.952	15.07
519.151	15.14
519.35	15.46
519.549	15.24
519.748	15.23
519.947	15.11
520.146	15.9
520.345	16.26
520.544	16.36
520.743	16.48
520.942	16.65
521.141	16.87
521.339	17.18
521.538	17.62
521.737	17.95
521.936	18.06
522.135	18.16
522.333	17.61
522.532	17.59
522.731	17.71
522.93	18.02
523.129	18.01
523.327	17.95
523.526	18.01
523.725	17.2
523.923	17.15
524.122	16.85
524.321	16.77
524.519	16.54
524.718	16.07
524.917	16.04
525.115	15.72
525.314	15.53
525.512	15.65
525.711	15.61
525.909	16.04
526.108	15.98
526.306	16.28
526.505	16.41
526.703	16.31
526.902	16.33
527.1	16.39
527.299	16.39
527.497	16.47
527.696	16.42
527.894	16.32
528.092	16.25
528.291	16.4
528.489	16.37
528.688	16.34
528.886	16.78
529.084	17.02
529.283	17.18
529.481	17.4
529.679	17.6
529.877	17.83
530.076	17.91
530.274	18.28
530.472	18.22
530.67	18.2
530.869	18.3
531.067	18.16
531.265	18.51
531.463	18.42
531.661	18.39
531.859	18.51
532.057	18.63
532.255	18.76
532.454	18.87
532.652	18.94
532.85	19.06
533.048	19.2
533.246	19.3
533.444	19.32
533.642	19.42
533.84	19.71
534.038	19.66
534.236	19.7
534.434	19.69
534.632	19.51
534.83	19.71
535.027	20.14
535.225	20.16
535.423	20.13
535.621	20.14
535.819	20.56
536.017	20.6
536.215	20.57
536.412	20.51
536.61	20.96
536.808	21.36
537.006	21.55
537.203	21.22
537.401	21.34
537.599	21.06
537.797	21.04
537.994	20.93
538.192	21.13
538.39	21.5
538.587	21.38
538.785	21.36
538.983	21.24
539.18	21.08
539.378	21.27
539.575	21.61
539.773	21.75
539.97	21.56
540.168	21.79
540.366	21.78
540.563	21.46
540.761	21.69
540.958	21.94
541.155	22.06
541.353	22.06
541.55	22.12
541.748	21.71
541.945	21.9
542.143	22.19
542.34	21.99
542.537	22.37
542.735	22.54
542.932	22.32
543.129	22.09
543.327	21.76
543.524	22.42
543.721	22.66
543.919	23.17
544.116	23.34
544.313	23.29
544.51	23.32
544.708	23.03
544.905	23.36
545.102	23.87
545.299	24.14
545.496	24.61
545.693	24.35
545.891	24.37
546.088	24.25
546.285	24.71
546.482	25.22
546.679	25.41
546.876	25.38
547.073	25.77
547.27	25.43
547.467	25.57
547.664	25.38
547.861	25.38
548.058	25.79
548.255	26.74
548.452	26.33
548.649	26.22
548.846	26.83
549.043	27.17
549.24	27.33
549.437	28.09
549.633	28.64
549.83	29.23
550.027	29.39
550.224	28.76
550.421	27.93
550.618	28.06
550.814	28.04
551.011	27.58
551.208	27.87
551.405	27.94
551.601	27.96
551.798	27.65
551.995	27.19
552.191	27.24
552.388	28.1
552.585	28.35
552.781	28.75
552.978	28.73
553.175	29.49
553.371	29.69
553.568	29.82
553.764	30.08
553.961	30.44
554.157	31.18
554.354	31.5
554.55	31.59
554.747	31.67
554.943	32.11
555.14	32.12
555.336	31.67
555.533	31.56
555.729	31.54
555.926	31.82
556.122	31.84
556.318	31.95
556.515	31.75
556.711	31.87
556.907	31.41
557.104	31.53
557.3	31.39
557.496	31.35
557.693	31.22
557.889	31.25
558.085	31.53
558.281	31.1
558.478	30.56
558.674	30.8
558.87	30.63
559.066	31.35
559.262	31.01
559.459	31.57
559.655	31.69
559.851	31.63
560.047	31.99
560.243	31.25
560.439	31.53
560.635	32.17
560.831	32.15
561.027	32.05
561.223	32.08
561.419	31.19
561.615	31.77
561.811	32.16
562.007	32.3
562.203	32.22
562.399	32.36
562.595	32.12
562.791	32.56
562.987	32.86
563.183	32.67
563.379	32.42
563.575	33.86
563.771	33.24
563.966	33.25
564.162	33.63
564.358	33.57
564.554	33.61
564.75	34.13
564.945	33.18
565.141	32.72
565.337	32.5
565.533	32.91
565.728	31.75
565.924	31.35
566.12	31.84
566.315	31.62
566.511	30.91
566.707	30.64
566.902	30.37
567.098	31.19
567.293	32.17
567.489	32.56
567.684	32.46
567.88	33.55
568.076	33.91
568.271	33.77
568.467	34.39
568.662	35
568.858	35.58
569.053	35.91
569.248	35.15
569.444	34.4
569.639	33.96
569.835	33.22
570.03	32.79
570.225	33.3
570.421	32.61
570.616	32.02
570.812	32.45
571.007	32.21
571.202	31.72
571.397	32.05
571.593	32.49
571.788	33.33
571.983	34.32
572.178	34.12
572.374	34.11
572.569	34.08
572.764	34.21
572.959	33.11
573.154	33.25
573.35	33.68
573.545	33.68
573.74	33.8
573.935	32.42
574.13	31.94
574.325	32.13
574.52	32.26
574.715	32.9
574.91	32.97
575.105	34.53
575.3	34.71
575.495	34.64
575.69	34.98
575.885	34.95
576.08	35.34
576.275	35.88
576.47	36.31
576.665	35.58
576.86	35.22
577.055	35.83
577.25	34.98
577.444	34.77
577.639	34.79
577.834	35.07
578.029	35.29
578.224	35.93
578.418	36.04
578.613	36.3
578.808	37.3
579.003	37.38
579.197	36.71
579.392	37.02
579.587	37.04
579.781	37.21
579.976	37.16
580.171	37.31
580.365	37.66
580.56	37.81
580.755	37.23
580.949	37.79
581.144	39.03
581.338	39.74
581.533	40.32
581.727	40.62
581.922	41.06
582.116	41.18
582.311	41.49
582.505	41.75
582.7	41.59
582.894	42.43
583.089	42.22
583.283	40.98
583.478	41.04
583.672	40.11
583.866	40.41
584.061	40.46
584.255	40.66
584.449	40.38
584.644	40.5
584.838	40.71
585.032	40.27
585.226	39.73
585.421	40.19
585.615	39.63
585.809	39.76
586.003	40.12
586.198	39.82
586.392	39.14
586.586	38.81
586.78	37.57
586.974	36.83
587.168	36.48
587.363	36.48
587.557	36.06
587.751	36.21
587.945	36.68
588.139	35.54
588.333	34.45
588.527	35.43
588.721	35.39
588.915	36.51
589.109	36.93
589.303	37.26
589.497	36.88
589.691	36.92
589.885	37.69
590.079	37.35
590.273	38.5
590.466	39.54
590.66	39.22
590.854	38.9
591.048	38.46
591.242	39.29
591.436	39.3
591.629	39.5
591.823	40.53
592.017	39.99
592.211	40.29
592.404	39.68
592.598	39.37
592.792	39.38
592.986	39.44
593.179	39.4
593.373	39.34
593.567	39.09
593.76	39.25
593.954	39.08
594.147	38.87
594.341	39.03
594.535	39.17
594.728	39.3
594.922	38.76
595.115	39.39
595.309	39.33
595.502	38.98
595.696	38.83
595.889	39.24
596.083	39.11
596.276	39.15
596.47	39.25
596.663	39.31
596.856	39.77
597.05	40.46
597.243	40.48
597.437	41.06
597.63	41.56
597.823	41.89
598.017	41.97
598.21	41.73
598.403	41.86
598.596	41.7
598.79	41.48
598.983	42.02
599.176	41.92
599.369	41.78
599.563	42.49
599.756	41.49
599.949	42.24
600.142	42.3
600.335	42.97
600.528	43.65
600.722	43.42
600.915	43.75
601.108	42.74
601.301	43.06
601.494	42.5
601.687	42.02
601.88	42.51
602.073	42.46
602.266	42.31
602.459	41.64
602.652	40.51
602.845	39.8
603.038	39.64
603.231	40.11
603.424	39.99
603.617	40.43
603.809	40.59
604.002	40.67
604.195	40.74
604.388	40.64
604.581	41.16
604.774	41.93
604.966	42.59
605.159	42.69
605.352	42.58
605.545	43.13
605.737	43.34
605.93	43.17
606.123	42.77
606.316	42.72
606.508	42.75
606.701	42.51
606.894	41.98
607.086	41.57
607.279	41.83
607.471	41.71
607.664	41.11
607.857	40.98
608.049	40.62
608.242	41.38
608.434	41.11
608.627	40.87
608.819	40.83
609.012	41.72
609.204	42.5
609.397	42.41
609.589	43.07
609.782	42.85
609.974	42.85
610.166	43.44
610.359	42.42
610.551	42.4
610.743	43.33
610.936	43.7
611.128	42.7
611.32	43.41
611.513	43.55
611.705	42.81
611.897	43.17
612.09	43.28
612.282	43.41
612.474	44.79
612.666	45
612.858	44.95
613.051	45.17
613.243	46.28
613.435	46.52
613.627	46.66
613.819	46.9
614.011	47.38
614.203	48.09
614.395	47.64
614.588	46.38
614.78	46.53
614.972	46.08
615.164	46.04
615.356	45.87
615.548	44.95
615.74	45.28
615.932	44.94
616.124	45.31
616.315	45.29
616.507	45.49
616.699	45.77
616.891	46.28
617.083	45.97
617.275	46.79
617.467	47.27
617.659	46.56
617.85	46.9
618.042	46.55
618.234	46.64
618.426	46.71
618.618	46.49
618.809	46.53
619.001	47.33
619.193	47.39
619.384	47.19
619.576	46.27
619.768	46.41
619.959	45.71
620.151	47.83
620.343	47.54
620.534	47.09
620.726	47.43
620.917	47.22
621.109	46.39
621.301	46.83
621.492	46.47
621.684	47.36
621.875	47.89
622.067	48.09
622.258	46.67
622.45	45.64
622.641	45.74
622.832	46.37
623.024	47.31
623.215	47.36
623.407	48.15
623.598	47.65
623.789	46.79
623.981	46.42
624.172	46.6
624.363	47.69
624.555	48.97
624.746	49.27
624.937	49.18
625.129	48.61
625.32	48.09
625.511	46.96
625.702	46.83
625.893	46.67
626.085	47.49
626.276	48.18
626.467	47.84
626.658	46.86
626.849	46.58
627.04	46
627.231	46.36
627.422	46.43
627.614	46.96
627.805	47.58
627.996	47.98
628.187	48.47
628.378	47.77
628.569	47.4
628.76	47.52
628.951	47.4
629.142	48.02
629.332	48.56
629.523	48.88
629.714	48.37
629.905	48.63
630.096	48.86
630.287	48.47
630.478	48.08
630.669	48.52
630.859	48.34
631.05	48.8
631.241	48.44
631.432	48.38
631.623	48.76
631.813	50.03
632.004	49.37
632.195	50.21
632.385	50.43
632.576	49.7
632.767	49.45
632.957	50.42
633.148	50.79
633.339	51.23
633.529	50.97
633.72	51.1
633.91	50.65
634.101	50.29
634.292	49.64
634.482	49.09
634.673	50.13
634.863	50.88
635.054	50.28
635.244	50.11
635.435	49.79
635.625	49.82
635.815	49.61
636.006	49.91
636.196	50.2
636.387	50.62
636.577	50.97
636.767	51.97
636.958	50.59
637.148	50.85
637.338	51.86
637.529	51.84
637.719	52.01
637.909	51.6
638.099	51.96
638.29	52.66
638.48	51.75
638.67	50.76
638.86	50.82
639.05	51.9
639.241	52.68
639.431	52
639.621	52.47
639.811	53.3
640.001	53.34
640.191	54.08
640.381	54.45
640.571	55.12
640.761	56.49
640.951	56.61
641.141	56.51
641.331	57
641.521	55.96
641.711	55.38
641.901	54.65
642.091	54.44
642.281	53.36
642.471	52.96
642.661	52.3
642.851	52.32
643.041	51.81
643.231	50.96
643.42	50.34
643.61	50.41
643.8	50.99
643.99	50.64
644.18	51.46
644.369	50.97
644.559	50.22
644.749	49.65
644.939	49.23
645.128	49.69
645.318	50.81
645.508	50.34
645.697	50.08
645.887	49.3
646.076	49.9
646.266	48.92
646.456	48.12
646.645	47.99
646.835	49.03
647.024	48.84
647.214	48.31
647.403	46.64
647.593	47.8
647.782	49.17
647.972	50.53
648.161	49.52
648.351	50.49
648.54	50.99
648.73	52.49
648.919	52.43
649.108	52.4
649.298	51.97
649.487	53.41
649.677	52.08
649.866	51.04
650.055	50.53
650.244	51.49
650.434	50.44
650.623	51.51
650.812	50.64
651.002	52.05
651.191	52.28
651.38	52.74
651.569	53.13
651.758	53.73
651.947	54.41
652.137	55.59
652.326	54.75
652.515	56.13
652.704	56.35
652.893	56.68
653.082	55.11
653.271	53.72
653.46	53.35
653.649	52.29
653.838	51.51
654.027	50.25
654.216	49.2
654.405	50.62
654.594	50.54
654.783	49.21
654.972	49.28
655.161	49.09
655.35	50.2
655.539	49.91
655.728	49.33
655.916	49.82
656.105	50.56
656.294	49.47
656.483	47.09
656.672	45.97
656.86	45.46
657.049	44.67
657.238	45.21
657.427	45.09
657.615	45.78
657.804	45.96
657.993	45.95
658.181	46.02
658.37	47.29
658.559	48.49
658.747	49.73
658.936	51.98
659.125	49.88
659.313	50.21
659.502	50.86
659.69	50.29
659.879	51.63
660.067	51.63
660.256	50.86
660.444	51.57
660.633	52.2
660.821	51.3
661.01	49.21
661.198	53.4
661.387	54.46
661.575	53.98
661.763	55.58
661.952	55.31
662.14	56.07
662.328	56.73
662.517	55.02
662.705	54.86
662.893	55.08
663.082	57.21
663.27	57.74
663.458	56.78
663.646	56.43
663.834	55.42
664.023	56.16
664.211	55.72
664.399	57.29
664.587	56.96
664.775	56.29
664.963	56.5
665.152	55.35
665.34	52.03
665.528	52.08
665.716	53.68
665.904	54.54
666.092	53.7
666.28	54.55
666.468	52.4
666.656	53.19
666.844	54.34
667.032	54.6
667.22	54.11
667.408	55.46
667.596	57.04
667.784	57.47
667.971	55.69
668.159	55.66
668.347	55.3
668.535	56.46
668.723	56.04
668.911	56.19
669.098	56.34
669.286	57.51
669.474	57.39
669.662	56.54
669.849	55.97
670.037	57.71
670.225	59.23
670.413	59.28
670.6	59.69
670.788	60.99
670.976	60.71
671.163	61
671.351	60.61
671.538	62.72
671.726	61.52
671.913	59.64
672.101	57.22
672.289	55.81
672.476	57.05
672.664	57.93
672.851	58.68
673.039	58.39
673.226	58.47
673.413	57.37
673.601	56.16
673.788	56.76
673.976	58.74
674.163	60.2
674.35	60.96
674.538	58.22
674.725	56.88
674.912	55.05
675.1	53.96
675.287	54.82
675.474	56.57
675.662	57
675.849	56.19
676.036	54.54
676.223	54.51
676.411	54.01
676.598	54.28
676.785	53.64
676.972	55.58
677.159	57.05
677.346	55.26
677.533	54.51
677.721	54.47
677.908	53.97
678.095	54.77
678.282	55.01
678.469	54.11
678.656	55.62
678.843	55.31
679.03	54.15
679.217	54.19
679.404	53.89
679.591	53.6
679.778	53.16
679.964	53.47
680.151	53.18
680.338	52.33
680.525	53.77
680.712	53.11
680.899	53.09
681.086	51.57
681.272	50.31
681.459	51.41
681.646	51.77
681.833	52.36
682.02	52.51
682.206	53.36
682.393	54.83
682.58	53.05
682.766	53.44
682.953	55.91
683.14	56.87
683.326	57.47
683.513	57.49
683.7	57.45
683.886	56.08
684.073	55.86
684.259	55.53
684.446	55.45
684.632	55.08
684.819	54.46
685.005	53.34
685.192	53.17
685.378	53.67
685.565	52.91
685.751	52.47
685.938	53.43
686.124	54.05
686.31	53.45
686.497	53.33
686.683	54.11
686.87	53.93
687.056	52.76
687.242	53.21
687.429	53.04
687.615	52.01
687.801	50.24
687.987	49.2
688.174	48.25
688.36	47.95
688.546	47.75
688.732	47.55
688.918	47.22
689.105	47.51
689.291	47.73
689.477	48.04
689.663	48.54
689.849	50.7
690.035	51.87
690.221	52.39
690.407	52.98
690.593	52.67
690.779	53.09
690.965	53.73
691.151	54.83
691.337	54.32
691.523	53.42
691.709	54.28
691.895	54.02
692.081	53.15
692.267	54.29
692.453	53.84
692.639	52.62
692.825	52.39
693.011	50.95
693.196	52.13
693.382	52.25
693.568	52.77
693.754	52.97
693.94	53.47
694.125	54.25
694.311	52.81
694.497	53.97
694.682	54.26
694.868	54.45
695.054	55.42
695.239	53.57
695.425	55.31
695.611	54.13
695.796	54.39
695.982	53.3
696.168	54.36
696.353	53.79
696.539	50.53
696.724	51.06
696.91	51.45
697.095	50.42
697.281	50.46
697.466	49.43
697.652	49.62
697.837	48.97
698.023	49.65
698.208	48.01
698.393	48.5
698.579	50.58
698.764	51.05
698.949	50.08
699.135	51.31
699.32	52.24
699.505	52.15
699.691	51.63
699.876	51.76
700.061	51.47
700.246	52.21
700.432	52.17
700.617	52.45
700.802	51.79
700.987	53.48
701.172	53.69
701.358	52.55
701.543	53.52
701.728	55.09
701.913	56.46
702.098	57.59
702.283	58.49
702.468	57.1
702.653	57.14
702.838	56.4
703.023	58.27
703.208	58.79
703.393	59.65
703.578	60.24
703.763	61.3
703.948	61.2
704.133	61.87
704.318	61.71
704.503	65.4
704.688	65.5
704.873	69.05
705.057	67
705.242	66.02
705.427	65.41
705.612	64.45
705.797	62.82
705.981	63.4
706.166	63.13
706.351	63.51
706.536	63.14
706.72	60.8
706.905	57.31
707.09	56.47
707.274	56.24
707.459	57.38
707.644	56.45
707.828	58.26
708.013	57
708.197	55.5
708.382	54.51
708.567	53.6
708.751	56.48
708.936	58.25
709.12	61.2
709.305	61.59
709.489	63.07
709.673	64.26
709.858	62.98
710.042	64
710.227	64.41
710.411	65.93
710.596	66.42
710.78	67.35
710.964	67.04
711.149	64.97
711.333	65.78
711.517	63.26
711.702	63.03
711.886	65
712.07	63.74
712.254	63.4
712.438	61.55
712.623	60.5
712.807	60.03
712.991	59.39
713.175	60.03
713.359	58.17
713.544	57.78
713.728	56.32
713.912	53.71
714.096	52.92
714.28	52.81
714.464	52.78
714.648	53.18
714.832	51.38
715.016	52.33
715.2	50.4
715.384	51.28
715.568	52.97
715.752	52.4
715.936	50.83
716.12	51.99
716.304	51.15
716.488	51.75
716.671	51.99
716.855	51.91
717.039	52.11
717.223	54.12
717.407	54.35
717.59	53.61
717.774	54.83
717.958	56.18
718.142	55.83
718.325	56.65
718.509	57.31
718.693	56.55
718.877	55.81
719.06	55.73
719.244	55.09
719.428	52.2
719.611	52.21
719.795	52.64
719.978	55.29
720.162	54.88
720.345	55.41
720.529	54.73
720.713	54.45
720.896	54.27
721.08	54.9
721.263	55.21
721.446	56.41
721.63	58.19
721.813	60.01
721.997	58.05
722.18	57.29
722.364	57.2
722.547	56.25
722.73	55.85
722.914	57.11
723.097	57.06
723.28	55.73
723.464	56.47
723.647	54.08
723.83	52.33
724.013	52.46
724.197	52.25
724.38	50.19
724.563	49.63
724.746	49.87
724.929	50.46
725.112	48.83
725.296	51.82
725.479	52.79
725.662	51.87
725.845	52.33
726.028	53.35
726.211	53.07
726.394	56.35
726.577	57.92
726.76	58.09
726.943	57.67
727.126	57.68
727.309	58.09
727.492	57.43
727.675	58.14
727.858	56.55
728.041	55.01
728.224	54.19
728.407	51.41
728.589	50.81
728.772	49.17
728.955	50.4
729.138	48.88
729.321	45.25
729.503	46.35
729.686	46.94
729.869	47.82
730.052	48.5
730.234	51.15
730.417	54.88
730.6	55.1
730.782	58.19
730.965	60.21
731.148	61.48
731.33	63.69
731.513	65.32
731.695	62.52
731.878	63.95
732.061	64.38
732.243	62.53
732.426	63.07
732.608	61.53
732.791	60.77
732.973	57.78
733.156	59.68
733.338	63.12
733.52	61.05
733.703	63.92
733.885	64.78
734.068	64.2
734.25	67.64
734.432	65.2
734.615	68.44
734.797	69.75
734.979	72.29
735.162	73.12
735.344	69.65
735.526	71.66
735.708	74.15
735.891	75.95
736.073	76.99
736.255	77.36
736.437	80.09
736.619	77.98
736.802	77.34
736.984	74.26
737.166	69.38
737.348	69.2
737.53	68.72
737.712	64.35
737.894	65.87
738.076	67.56
738.258	69.42
738.44	67.66
738.622	69.17
738.804	71.99
738.986	73.3
739.168	76.06
739.35	78.23
739.532	78.91
739.714	84.99
739.896	80.41
740.078	80.52
740.259	80.12
740.441	82.24
740.623	81.17
740.805	79.63
740.987	82.69
741.168	82.15
741.35	81.36
741.532	82.26
741.714	79.84
741.895	81.67
742.077	83.17
742.259	77.62
742.44	75.27
742.622	76.11
742.804	75.08
742.985	72.83
743.167	75.62
743.348	77.08
743.53	75.61
743.711	76.57
743.893	84.03
744.075	82.01
744.256	90.93
744.438	95.92
744.619	94.73
744.8	91.02
744.982	92.88
745.163	94.02
745.345	90.31
745.526	94.19
745.707	92.58
745.889	86.15
746.07	86.57
746.252	84.73
746.433	85.19
746.614	88.57
746.795	93.63
746.977	92.64
747.158	92.38
747.339	95.52
747.52	89.66
747.702	90.85
747.883	87.82
748.064	91.83
748.245	91.27
748.426	86.65
748.607	86.15
748.788	87.74
748.97	89.45
749.151	86.31
749.332	87.65
749.513	88.71
749.694	88.99
749.875	91.25
750.056	82.8
750.237	80.94
750.418	81.55
750.599	82.39
750.78	82.4
750.96	79.98
751.141	80.22
751.322	79.48
751.503	80.78
751.684	82.35
751.865	81.25
752.046	89.53
752.226	93.27
752.407	99.62
752.588	96.31
752.769	92.16
752.949	89.83
753.13	96.75
753.311	98.64
753.492	94.46
753.672	93.29
753.853	92.88
754.034	94.99
754.214	94.54
754.395	91.72
754.575	94.78
754.756	96.77
754.937	101.02
755.117	93.41
755.298	92.47
755.478	96.59
755.659	93.77
755.839	95.66
756.02	88.4
756.2	84.72
756.381	80.55
756.561	79.92
756.741	80.21
756.922	75.42
757.102	77.95
757.283	72.31
757.463	68.72
757.643	66.64
757.823	64.94
758.004	61.19
758.184	60.42
758.364	60.91
758.545	53.32
758.725	49.14
758.905	50.25
759.085	47.13
759.265	48.57
759.446	48.59
759.626	51.62
759.806	47.71
759.986	48.35
760.166	46.14
760.346	48.05
760.526	51
760.706	51.53
760.886	48.84
761.066	48.79
761.246	45.99
761.426	45.58
761.606	41.84
761.786	44.31
761.966	45.74
762.146	46.46
762.326	44.03
762.506	46.02
762.686	46.9
762.866	51.22
763.046	49.05
763.225	49.91
763.405	49.37
763.585	50.45
763.765	52.68
763.945	55.88
764.124	58.29
764.304	60.17
764.484	59.29
764.664	54.91
764.843	51.53
765.023	56.24
765.203	60.51
765.382	63.55
765.562	67.64
765.741	66.99
765.921	67.7
766.101	70.94
766.28	71.76
766.46	76.58
766.639	84.6
766.819	86.39
766.998	90.92
767.178	88.48
767.357	89.73
767.537	92.86
767.716	96.07
767.896	97.38
768.075	97.93
768.254	100.84
768.434	97.27
768.613	108.28
768.792	108.26
768.972	105.88
769.151	105.24
769.33	106.84
769.51	107.43
769.689	109.76
769.868	103.08
770.047	100.98
770.226	96.09
770.406	102.32
770.585	95.36
770.764	99.23
770.943	103.84
771.122	110.77
771.301	115.1
771.48	111.6
771.66	105.67
771.839	108.18
772.018	104.11
772.197	110.32
772.376	102.97
772.555	96.91
772.734	92.17
772.913	90.1
773.092	92.96
773.271	91.29
773.449	91.8
773.628	90.44
773.807	91.35
773.986	100.88
774.165	97.89
774.344	100.18
774.523	100.55
774.701	105.13
774.88	105.3
775.059	101.53
775.238	101.02
775.417	101.29
775.595	101.43
775.774	100.11
775.953	100.43
776.131	101.93
776.31	101.56
776.489	99.08
776.667	98.21
776.846	99.39
777.025	102.84
777.203	104.86
777.382	104.54
777.56	106.71
777.739	107.97
777.917	105.03
778.096	97.2
778.274	97.75
778.453	105.79
778.631	105.44
778.81	102.25
778.988	103.56
779.166	103.79
779.345	108.85
779.523	109.76
779.702	112.68
779.88	121.8
780.058	127.73
780.237	118.77
780.415	121
780.593	120.95
780.771	119.9
780.95	111.16
781.128	110.26
781.306	104.81
781.484	101.84
781.662	102.5
781.841	95.41
782.019	99.46
782.197	107.32
782.375	103.9
782.553	104.17
782.731	110.14
782.909	108.64
783.087	107.86
783.265	109.7
783.443	121.15
783.621	118.69
783.799	122.5
783.977	123.2
784.155	122.49
784.333	123.3
784.511	120.59
784.689	114.72
784.867	117.7
785.045	113.5
785.223	112.81
785.4	102.83
785.578	104.21
785.756	98.71
785.934	90.61
786.112	92.52
786.289	84.3
786.467	92.21
786.645	87.92
786.823	88.78
787	86.2
787.178	83.33
787.356	81.9
787.533	78.92
787.711	80.38
787.889	79.83
788.066	81.54
788.244	84.05
788.421	80.6
788.599	87.37
788.776	86.77
788.954	93.46
789.131	93.55
789.309	89.99
789.486	90.91
789.664	82.63
789.841	81.1
790.019	79.68
790.196	78.87
790.373	74.29
790.551	70.41
790.728	72.23
790.906	60.8
791.083	72.26
791.26	77.43
791.437	77.77
791.615	85.11
791.792	90.78
791.969	89.03
792.146	83.44
792.324	88.95
792.501	89.88
792.678	89.64
792.855	97.96
793.032	86.38
793.209	87.03
793.387	88.6
793.564	93.55
793.741	90.85
793.918	86.61
794.095	87.81
794.272	89.52
794.449	92.03
794.626	83.55
794.803	81.13
794.98	86.42
795.157	79.04
795.334	73
795.511	66.72
795.688	69.29
795.864	68.23
796.041	70.8
796.218	67.5
796.395	58.91
796.572	67.54
796.749	73.51
796.925	73.38
797.102	76.45
797.279	82.11
797.456	80.09
797.632	81.7
797.809	85.71
797.986	89.35
798.162	79.89
798.339	84.48
798.516	91.91
798.692	89.04
798.869	85.55
799.046	87.48
799.222	94.43
799.399	92.81
799.575	96.83
799.752	112.59
799.928	125.55
800.105	144.97
800.281	138.41
800.458	120.82
800.634	126.26
800.811	124.26
800.987	129.71
801.163	116.08
801.34	122.99
801.516	115.81
801.692	102.2
801.869	96.43
802.045	94.86
802.221	98.74
802.398	93.91
802.574	80.23
802.75	88.26
802.926	94.29
803.103	95.29
803.279	88.65
803.455	85.79
803.631	93.37
803.807	93.48
803.983	88.36
804.16	93.04
804.336	91.17
804.512	104.93
804.688	87.35
804.864	84.02
805.04	86.12
805.216	81.4
805.392	84.77
805.568	72.94
805.744	59.01
805.92	60.69
806.096	51.5
806.272	68.65
806.448	57.13
806.623	64.78
806.799	52.28
806.975	38.58
807.151	44.07
807.327	46.36
807.503	57.76
807.678	59.91
807.854	64.47
808.03	62.88
808.206	50.71
808.381	55.91
808.557	61.55
808.733	62.6
808.908	71.85
809.084	71.62
809.26	66.48
809.435	62.9
809.611	61.37
809.787	53.82
809.962	60.58
810.138	61.54
810.313	56.14
810.489	51.35
810.664	54.53
810.84	50.03
811.015	65.36
811.191	67.25
811.366	54.19
811.542	62.91
811.717	66.71
811.892	51.25
812.068	55.2
812.243	61.31
812.419	66.33
812.594	61.57
812.769	72.43
812.944	61.7
813.12	58.65
813.295	72.87
813.47	73.29
813.645	72.04
813.821	77.54
813.996	82.68
814.171	66.06
814.346	62.93
814.521	70.59
814.697	61.5
814.872	65.53
815.047	60.27
815.222	60.67
815.397	66.63
815.572	63.06
815.747	70.97
815.922	73.46
816.097	86.53
816.272	92.74
816.447	82.39
816.622	88.28
816.797	78.38
816.972	81.72
817.147	67.12
817.322	63.15
817.496	66.9
817.671	61.85
817.846	56.95
818.021	49.92
818.196	44.89
818.371	47.08
818.545	49.09
818.72	49.37
818.895	52.54
819.069	56.62
819.244	57.16
819.419	56.93
819.594	54.23
819.768	53.44
819.943	55.19
820.117	53.73
820.292	52.53
820.467	49.61
820.641	48.27
820.816	46.43
820.99	43.89
821.165	41.16
821.339	40.83
821.514	41.3
821.688	40.68
821.863	39.99
822.037	40.36
822.212	40.42
822.386	40.97
822.56	41.21
822.735	42.04
822.909	42.62
823.084	46.16
823.258	46.44
823.432	46.24
823.606	49.36
823.781	51.72
823.955	50.25
824.129	50.13
824.303	47.07
824.478	46.86
824.652	44.93
824.826	49.02
825	40.85
825.174	38.83
825.348	38.8
825.523	34.87
825.697	32.09
825.871	32.36
826.045	32.35
826.219	34.99
826.393	32.51
826.567	32.78
826.741	32.06
826.915	34.79
827.089	37.73
827.263	37.84
827.437	37.95
827.611	40.17
827.784	38.29
827.958	37.75
828.132	33.62
828.306	38.38
828.48	39.04
828.654	35.64
828.827	38.71
829.001	35.41
829.175	37.18
829.349	42.29
829.522	34.98
829.696	33.41
829.87	37.52
830.044	36.09
830.217	43.6
830.391	50.59
830.565	54.43
830.738	57.7
830.912	64.4
831.085	62.31
831.259	57.41
831.432	61.58
831.606	73.34
831.779	64.24
831.953	63.21
832.126	50.12
832.3	45.53
832.473	44.4
832.647	42.75
832.82	40.19
832.994	38.64
833.167	37.71
833.34	40.35
833.514	35.43
833.687	41.53
833.86	45.43
834.034	49.2
834.207	51.84
834.38	50.16
834.553	57.44
834.727	57.41
834.9	66.67
835.073	73.88
835.246	76.16
835.419	82.99
835.593	83.73
835.766	93.93
835.939	89.75
836.112	87.12
836.285	96.98
836.458	92.35
836.631	80.95
836.804	80.58
836.977	71.44
837.15	74.85
837.323	83.62
837.496	83.75
837.669	89.88
837.842	104.23
838.015	115.95
838.188	116.15
838.361	102.26
838.533	142.95
838.706	118.46
838.879	116.24
839.052	114.15
839.225	99.1
839.398	85.1
839.57	82.45
839.743	75.36
839.916	83.72
840.088	71.6
840.261	78.89
840.434	78.96
840.607	98.24
840.779	101.26
840.952	103.16
841.124	117.3
841.297	105.74
841.47	113.27
841.642	125.95
841.815	102.65
841.987	142.44
842.16	190.91
842.332	122.97
842.505	112.44
842.677	101.99
842.85	105.28
843.022	83.24
843.194	100.54
843.367	89.89
843.539	151.28
843.712	185.07
843.884	175
844.056	140.27
844.229	156.14
844.401	141.25
844.573	211.57
844.745	124.56
844.918	181.55
845.09	239.71
845.262	162.68
845.434	105.45
845.606	86.51
845.779	83.78
845.951	103.66
846.123	149.35
846.295	122.18
846.467	109.41
846.639	156.34
846.811	135.91
846.983	140.22
847.155	140.68
847.327	122.36
847.499	146.33
847.671	147.1
847.843	177.14
848.015	157
848.187	197.2
848.359	182.8
848.531	153.85
848.703	140.3
848.875	118.19
849.047	111.48
849.218	119.28
849.39	110.87
849.562	116.46
849.734	84.38
849.905	72.87
850.077	70.54
850.249	63.15
850.421	66.39
850.592	65.54
850.764	78.07
850.936	78.2
851.107	59.5
851.279	46.45
851.451	44.75
851.622	61.81
851.794	74.75
851.965	48.82
852.137	70.18
852.308	69.33
852.48	88.17
852.651	87.03
852.823	106
852.994	96.09
853.166	118
853.337	137.57
853.509	127.73
853.68	149.38
853.851	247.14
854.023	157.58
854.194	49.68
854.365	45.67
854.537	93.48
854.708	66.14
854.879	193.4
855.05	125.57
855.222	75.95
855.393	75.28
855.564	89.71
855.735	173.48
855.906	160.17
856.078	142.63
856.249	191.48
856.42	125.89
856.591	142.78
856.762	139.83
856.933	128.34
857.104	112.71
857.275	150.79
857.446	150.7
857.617	114.86
857.788	108.9
857.959	147.53
858.13	103.18
858.301	133.45
858.472	147.84
858.643	109.75
858.814	97.18
858.985	134.68
859.155	91.01
859.326	72.04
859.497	73.56
859.668	65.56
859.839	53.59
860.009	56.61
860.18	46.2
860.351	42.17
860.522	42.2
860.692	54.52
860.863	42.1
861.034	67.78
861.204	117.55
861.375	288.1
861.546	1865.22
861.716	540.91
861.887	312.85
862.057	257.66
862.228	172.36
862.398	112.96
862.569	113.44
862.739	180.46
862.91	161.3
863.08	233.84
863.251	176.98
863.421	137.44
863.592	140.98
863.762	119.61
863.932	113.24
864.103	172.02
864.273	269.96
864.443	455.81
864.614	209.65
864.784	223.24
864.954	139.82
865.125	168.68
865.295	192.12
865.465	221.08
865.635	459.89
865.805	264.05
865.976	214.8
866.146	207.97
866.316	138.67
866.486	149.67
866.656	212.75
866.826	327.78
866.996	190.91
867.166	201.94
867.336	290
867.506	227.39
867.676	251.95
867.846	338.96
868.016	660.42
868.186	265.45
868.356	477.78
868.526	239.29
868.696	-268.27
868.866	-195.42
869.036	-1180.95
869.206	-218.18
869.376	152.26
869.545	136.16
869.715	136.44
869.885	85.94
870.055	161.69
870.224	121.72
870.394	98.01
870.564	70.9
870.734	47.86
870.903	51.92
871.073	53.47
871.243	55.91
871.412	51.18
871.582	49.35
871.751	73.09
871.921	55.41
872.091	57.67
872.26	59.62
872.43	55.72
872.599	45.95
872.769	87.43
872.938	56.05
873.108	53.78
873.277	64.88
873.446	64.65
873.616	49.74
873.785	72.75
873.955	68.43
874.124	70.49
874.293	62.52
874.463	61.52
874.632	58.04
874.801	70.27
874.971	84.96
875.14	103.97
875.309	149.87
875.478	153.27
875.647	197.79
875.817	206.27
875.986	188.57
876.155	221.24
876.324	289.25
876.493	239.58
876.662	399.54
876.831	220.21
877	208.88
877.17	156.8
877.339	117.98
877.508	107.45
877.677	95.43
877.846	103.33
878.015	87.92
878.184	81.75
878.352	73.17
878.521	64.2
878.69	80.84
878.859	69.31
879.028	78
879.197	77.76
879.366	72.02
879.534	49.59
879.703	27.59
879.872	37.92
880.041	40.93
880.21	40.13
880.378	44.69
880.547	39.17
880.716	40.64
880.884	39.81
881.053	39.37
881.222	43.21
881.39	40.96
881.559	49.02
881.727	50.65
881.896	48.12
882.065	50.46
882.233	42.57
882.402	44.24
882.57	53.85
882.739	55.24
882.907	58.51
883.076	54.55
883.244	75.8
883.412	77.56
883.581	66.44
883.749	62.06
883.918	66.09
884.086	80.19
884.254	72.91
884.423	56.95
884.591	54.7
884.759	44.2
884.927	46.1
885.096	46.8
885.264	35.57
885.432	28.72
885.6	39.94
885.769	36.85
885.937	33.17
886.105	52.54
886.273	70.72
886.441	57.89
886.609	72.07
886.777	64.71
886.945	59.01
887.113	189.25
887.281	114.11
887.449	88.92
887.617	84.05
887.785	125.94
887.953	-0.94
888.121	111.7
888.289	42.13
888.457	56.68
888.625	11.59
888.793	-5.43
888.961	-14.81
889.129	-182.26
889.296	2100
889.464	-148.72
889.632	155.56
889.8	109.46
889.967	143.5
890.135	93.41
