Data from JASIL_3025_Reflection_01.txt Node
Date: Mon Nov 09 10:49:04 EST 2015
User: Geneva
Spectrometer: USB4E03002
Autoset integration time: false
Trigger mode: 4
Integration Time (sec): 1.000000E-1
Scans to average: 10
Electric dark correction enabled: false
Nonlinearity correction enabled: false
Boxcar width: 5
Stray light correction enabled: false
XAxis mode: Wavelengths
Stop averaging: false
Number of Pixels in Spectrum: 3648
>>>>>Begin Spectral Data<<<<<
177.575	167.31
177.794	144.44
178.014	106.22
178.233	138.78
178.452	161.84
178.672	352.63
178.891	334.78
179.11	273.17
179.33	3045.45
179.549	389.1
179.768	283.94
179.987	802.78
180.207	-705
180.426	-620.9
180.645	-85.81
180.864	-37.89
181.084	4.55
181.303	7.87
181.522	17.4
181.741	66.67
181.96	54.04
182.179	95.82
182.398	83.64
182.618	92.02
182.837	51.94
183.056	-83.16
183.275	201.48
183.494	-476.67
183.713	-1617.5
183.932	-758.51
184.151	-2357.58
184.37	-278.01
184.589	-4116.67
184.808	479.8
185.027	398.18
185.246	243.82
185.465	206.86
185.684	396.53
185.903	140.58
186.122	92.82
186.341	71.55
186.56	42.8
186.779	285.71
186.998	-94.51
187.216	24
187.435	-27.08
187.654	-71.97
187.873	-45.83
188.092	-33.33
188.311	-74.19
188.53	-134.87
188.748	-156.09
188.967	-497.28
189.186	984.95
189.405	471.91
189.623	789.72
189.842	1328.57
190.061	-12340
190.28	-423.4
190.498	-378.1
190.717	-87.62
190.936	-29.89
191.154	-3.06
191.373	-13.07
191.592	93.71
191.81	23.14
192.029	65.08
192.248	41.13
192.466	94.25
192.685	77.83
192.904	-208.7
193.122	288.41
193.341	-3540
193.559	2050
193.778	123.86
193.996	264.29
194.215	143.62
194.433	266.97
194.652	186.71
194.87	173.21
195.089	232.11
195.307	386.67
195.526	321.6
195.744	346.83
195.963	545.59
196.181	-1672.34
196.399	-455.42
196.618	-493.43
196.836	-254.79
197.055	-227.57
197.273	-238.35
197.491	-229
197.71	-220.75
197.928	-180.49
198.146	-157.14
198.365	-207.98
198.583	-6655.56
198.801	307.08
199.019	262.93
199.238	187.89
199.456	314.69
199.674	377.59
199.892	447.22
200.111	414
200.329	646.43
200.547	-3100
200.765	309.09
200.983	-60.93
201.202	-50
201.42	-61.61
201.638	18.51
201.856	-19.26
202.074	-156.57
202.292	-84.13
202.51	-198.61
202.728	275
202.946	40.15
203.165	268.42
203.383	-48.08
203.601	-350
203.819	224.42
204.037	173.75
204.255	73
204.473	118.8
204.691	39.22
204.909	-171.43
205.127	-493.94
205.345	-362.75
205.562	655.56
205.78	-864
205.998	-704.35
206.216	-695.28
206.434	-916.85
206.652	-11814.29
206.87	1527.12
207.088	573.33
207.306	554.78
207.523	690.15
207.741	965.93
207.959	382.88
208.177	252.98
208.395	383.78
208.612	274.48
208.83	251.68
209.048	236.91
209.266	458.82
209.483	985.25
209.701	-2337.93
209.919	24300
210.136	954.55
210.354	4866.67
210.572	-1293.62
210.79	-1313.89
211.007	316.79
211.225	217.54
211.442	936.84
211.66	-158.2
211.878	-218.42
212.095	-337.74
212.313	-7366.67
212.53	-31.15
212.748	18.96
212.966	-117.07
213.183	-8200
213.401	13.27
213.618	2.59
213.836	-7.97
214.053	-15.02
214.271	-20.13
214.488	65.75
214.705	14.57
214.923	-86.15
215.14	-181.89
215.358	-118.99
215.575	-25.18
215.793	-456.06
216.01	-1295.83
216.227	-505.56
216.445	212.32
216.662	540.82
216.879	242.64
217.097	321.6
217.314	470.16
217.531	979.31
217.749	-197.21
217.966	-295.38
218.183	-48.84
218.4	-38.44
218.618	-30.11
218.835	-16.04
219.052	11.63
219.269	-40.79
219.487	-4.09
219.704	-7.73
219.921	-21.38
220.138	-69.14
220.355	-62.94
220.572	-11066.67
220.79	299.07
221.007	352.94
221.224	523.96
221.441	407.38
221.658	-225.59
221.875	-194.03
222.092	-95.1
222.309	-50.64
222.526	-30.61
222.743	-45.61
222.96	-53.86
223.177	-33.51
223.394	-13.86
223.611	-11.01
223.828	-8.01
224.045	0.48
224.262	-11.18
224.479	-27.11
224.696	-31.02
224.913	-42.09
225.13	-33.55
225.347	-11.98
225.564	-21.12
225.781	-26.44
225.997	-11.71
226.214	-13.48
226.431	-13.66
226.648	-3.68
226.865	2.67
227.082	7.25
227.298	7.33
227.515	5.5
227.732	3.14
227.949	2.74
228.165	2.66
228.382	1.61
228.599	1.84
228.816	2.88
229.032	-1.36
229.249	-13.41
229.466	-13.32
229.682	-16.2
229.899	-13.86
230.116	-16.44
230.332	-15.65
230.549	-18.12
230.765	-29.53
230.982	-20.77
231.199	-16.72
231.415	-21.34
231.632	-12.63
231.848	-22.45
232.065	-11.22
232.281	-21.69
232.498	-22.08
232.714	-19.09
232.931	-14.05
233.147	-13.46
233.364	-23.82
233.58	-33.69
233.797	-19.55
234.013	-16.67
234.23	-17.11
234.446	-19.06
234.662	-5
234.879	-1.45
235.095	7.18
235.312	11.95
235.528	6.64
235.744	11.24
235.961	21.38
236.177	6.95
236.393	11.42
236.61	4.2
236.826	0.31
237.042	-4.17
237.258	-6.73
237.475	-18.37
237.691	-23.81
237.907	-10.57
238.123	-12.79
238.339	-11.94
238.556	0.92
238.772	-2.72
238.988	-2.35
239.204	2.53
239.42	3.06
239.636	1.02
239.853	5.22
240.069	2.82
240.285	-1.57
240.501	2.66
240.717	7.21
240.933	7.63
241.149	7.04
241.365	5.1
241.581	4.68
241.797	8.04
242.013	12.13
242.229	8.5
242.445	11.14
242.661	13.21
242.877	8.48
243.093	1.52
243.309	-1.03
243.525	-5.46
243.741	3.73
243.957	1.42
244.173	-0.82
244.388	-2.04
244.604	1.43
244.82	2.24
245.036	5.75
245.252	6.63
245.468	7.05
245.683	6.94
245.899	8.59
246.115	7.91
246.331	8.07
246.547	6.42
246.762	4.83
246.978	5.18
247.194	5.16
247.409	0.89
247.625	-1.46
247.841	-0.85
248.057	-0.32
248.272	-0.89
248.488	-2.24
248.703	-2.5
248.919	0.41
249.135	0.06
249.35	-2.28
249.566	-1.78
249.782	-1.01
249.997	2.81
250.213	0.65
250.428	1.54
250.644	3.55
250.859	2.13
251.075	0.96
251.29	-0.34
251.506	3.42
251.721	1.94
251.937	1.08
252.152	3.68
252.368	1.83
252.583	3.26
252.798	1.67
253.014	-3.64
253.229	-2.02
253.445	-6.05
253.66	-8.9
253.875	-15.45
254.091	-12.26
254.306	-9.01
254.521	-7.27
254.737	-12.6
254.952	-9.75
255.167	-10.04
255.383	-6.55
255.598	-6.68
255.813	-1.04
256.028	-3.03
256.244	3.91
256.459	1.64
256.674	1.21
256.889	-2.29
257.104	4.39
257.32	0.09
257.535	-0.7
257.75	0.57
257.965	2.25
258.18	2.11
258.395	2.44
258.61	1.56
258.826	1.78
259.041	0.34
259.256	0.27
259.471	-1.57
259.686	-0.14
259.901	-0.34
260.116	-4.01
260.331	-5.56
260.546	-7.07
260.761	-4.69
260.976	-5.35
261.191	-7.07
261.406	-8.1
261.621	-4.14
261.836	0.73
262.05	-2.39
262.265	-0.79
262.48	4
262.695	4.22
262.91	7.87
263.125	2.9
263.34	1.55
263.555	0.86
263.769	3.08
263.984	1.89
264.199	-2.54
264.414	-1.86
264.629	-4.17
264.843	-8.16
265.058	-11.04
265.273	-12.73
265.488	-10.68
265.702	-13.09
265.917	-10.8
266.132	-8.74
266.346	-8.36
266.561	-7.6
266.776	-6.73
266.99	-6.08
267.205	-2.54
267.42	-2.27
267.634	-3.37
267.849	-1.69
268.063	-0.32
268.278	0.52
268.492	1.83
268.707	-1.74
268.922	-1.26
269.136	0
269.351	0.9
269.565	2.54
269.78	2.44
269.994	3.92
270.209	2.07
270.423	4.82
270.637	2.82
270.852	4.38
271.066	7.56
271.281	5.2
271.495	6.89
271.709	6.25
271.924	2.83
272.138	4.2
272.353	2.36
272.567	1.67
272.781	-0.13
272.996	1.1
273.21	-3.57
273.424	-4.93
273.638	-3.51
273.853	-7.56
274.067	-8.57
274.281	-6.16
274.495	-5.1
274.71	-5.58
274.924	-4.58
275.138	-3.28
275.352	-4.37
275.566	-2.52
275.781	-3.1
275.995	-3.6
276.209	-4.78
276.423	-5.8
276.637	-7.64
276.851	-6.69
277.065	-3.75
277.279	-5.02
277.493	-4.25
277.707	-4.47
277.921	-3.73
278.135	-4.44
278.349	-3.63
278.563	-5.67
278.777	-3.38
278.991	-2.63
279.205	-4.87
279.419	-6.76
279.633	-3.53
279.847	-3.76
280.061	-3.83
280.275	-7.98
280.489	-7.18
280.703	-10.72
280.917	-7.5
281.131	-6.85
281.344	-8.55
281.558	-8.87
281.772	-8.92
281.986	-9.68
282.2	-12.52
282.414	-12.21
282.627	-10.43
282.841	-12.66
283.055	-9.25
283.269	-8.95
283.482	-9.71
283.696	-7.78
283.91	-6.78
284.123	-6.28
284.337	-5.94
284.551	-5.37
284.764	-4.9
284.978	-3.97
285.192	-1.19
285.405	-2.02
285.619	-2.22
285.833	-3.27
286.046	-4.38
286.26	-6.3
286.473	-6.08
286.687	-8.25
286.9	-8.79
287.114	-9.29
287.327	-10.85
287.541	-14.29
287.754	-12.26
287.968	-8.94
288.181	-7.48
288.395	-6.4
288.608	-3.46
288.822	-2.76
289.035	-0.19
289.248	1.41
289.462	2.58
289.675	2.28
289.889	3.66
290.102	1.84
290.315	-0.19
290.529	1.83
290.742	2.98
290.955	0.57
291.169	-1.8
291.382	-2.84
291.595	-2.77
291.808	-2.87
292.022	-4.34
292.235	-5.05
292.448	-3.96
292.661	-4.18
292.875	-5.85
293.088	-8.91
293.301	-6.85
293.514	-7.55
293.727	-8.62
293.94	-9.58
294.153	-7.72
294.367	-5.68
294.58	-5.91
294.793	-3.64
295.006	-1.64
295.219	-1.7
295.432	0.66
295.645	1.88
295.858	4.18
296.071	5.2
296.284	6.02
296.497	5.82
296.71	4.81
296.923	4.96
297.136	2.36
297.349	1
297.562	-0.2
297.775	0.23
297.988	-2.87
298.201	-3.68
298.414	-5.84
298.626	-6.27
298.839	-7.79
299.052	-3.91
299.265	-3.24
299.478	-1.58
299.691	-0.19
299.903	-0.14
300.116	-1.98
300.329	-0.7
300.542	0.27
300.755	1.5
300.967	2.28
301.18	0.83
301.393	0.78
301.605	-1.14
301.818	-0.91
302.031	-2.33
302.243	0.16
302.456	1.12
302.669	0.48
302.881	0.69
303.094	-0.3
303.307	-3.11
303.519	-2.85
303.732	-7.19
303.944	-6.18
304.157	-5.13
304.37	-4.76
304.582	-6.4
304.795	-8.43
305.007	-7.07
305.22	-6.48
305.432	-5.45
305.645	-2.23
305.857	-4.07
306.069	-1.1
306.282	-1.51
306.494	-2.3
306.707	-4.02
306.919	-1.27
307.132	1.14
307.344	1.51
307.556	-0.28
307.769	0.04
307.981	-1.01
308.193	1.93
308.406	1.64
308.618	0.68
308.83	1.54
309.043	3.55
309.255	2.28
309.467	0.75
309.679	1.11
309.892	-0.4
310.104	0.81
310.316	0.29
310.528	-1.89
310.74	-1.15
310.953	0.65
311.165	-1.19
311.377	-0.61
311.589	-2.43
311.801	-1.55
312.013	-3.06
312.225	-1.29
312.437	-2.25
312.649	-3.31
312.862	-1.06
313.074	-3.88
313.286	-2.85
313.498	-2.01
313.71	-3.18
313.922	-0.46
314.134	-2.75
314.346	-2.96
314.558	-2.72
314.77	-4.39
314.982	-2.06
315.193	-0.44
315.405	2.82
315.617	3.38
315.829	5.64
316.041	6.13
316.253	6.5
316.465	9.28
316.677	9.38
316.888	8.85
317.1	11.54
317.312	11.22
317.524	10.62
317.736	9.94
317.947	7.78
318.159	6.81
318.371	8.52
318.583	6.31
318.794	7.67
319.006	7.32
319.218	8.26
319.43	6.65
319.641	6.7
319.853	5.96
320.064	5.53
320.276	6.45
320.488	6.91
320.699	6.4
320.911	8.76
321.123	7.77
321.334	8.68
321.546	9.2
321.757	9.53
321.969	10.47
322.18	11.67
322.392	12.06
322.603	13
322.815	11.71
323.026	9.98
323.238	11.01
323.449	7.84
323.661	7.82
323.872	7.02
324.083	5.1
324.295	3.18
324.506	0.96
324.718	0.19
324.929	-1.95
325.14	-1.85
325.352	-2.92
325.563	-6.04
325.774	-3.95
325.986	-4.02
326.197	-3.4
326.408	-1.72
326.62	-0.16
326.831	0.99
327.042	2.17
327.253	4.08
327.464	4.27
327.676	4.45
327.887	5.07
328.098	5.69
328.309	4.48
328.52	4.63
328.732	5.13
328.943	4.17
329.154	4.43
329.365	3.47
329.576	3.79
329.787	3.4
329.998	2.43
330.209	2.62
330.42	2.52
330.631	5.6
330.842	2.72
331.053	4.68
331.264	6.13
331.475	5.15
331.686	4.26
331.897	5.54
332.108	1.74
332.319	3.92
332.53	3.74
332.741	4.19
332.952	2.98
333.163	4.35
333.374	2.3
333.585	1.87
333.795	3.12
334.006	5.72
334.217	5.45
334.428	8.25
334.639	6.94
334.849	5.57
335.06	4.17
335.271	5.96
335.482	5.37
335.692	6.74
335.903	6.08
336.114	4.1
336.325	2.32
336.535	1.76
336.746	2.37
336.957	3.72
337.167	5.27
337.378	4.31
337.589	2.42
337.799	2.33
338.01	1.69
338.22	6.86
338.431	7.57
338.642	7.17
338.852	6.47
339.063	6.44
339.273	4.59
339.484	4.5
339.694	4.7
339.905	3.48
340.115	4.53
340.326	3.63
340.536	-1.59
340.746	-1.88
340.957	-1.37
341.167	-1.32
341.378	-0.64
341.588	-0.66
341.799	-1.48
342.009	-0.73
342.219	0.06
342.43	1.21
342.64	1.06
342.85	1.25
343.061	2.07
343.271	3.21
343.481	1.99
343.691	0.84
343.902	0.5
344.112	2.4
344.322	1.06
344.532	2.85
344.743	1.53
344.953	1.51
345.163	3.65
345.373	3.76
345.583	3.17
345.793	4.29
346.004	4.98
346.214	6.56
346.424	3.78
346.634	4.71
346.844	5.11
347.054	6.04
347.264	5.63
347.474	4.45
347.684	4.59
347.894	2.76
348.104	3.68
348.314	2.86
348.524	1.77
348.734	4.41
348.944	4.28
349.154	4.35
349.364	5.32
349.574	5.69
349.784	3.62
349.994	3.1
350.204	5.91
350.413	3.85
350.623	3.55
350.833	2.06
351.043	-0.32
351.253	0.93
351.463	-1.08
351.672	-2.03
351.882	-0.01
352.092	2.27
352.302	2.15
352.511	1.08
352.721	3.16
352.931	3.38
353.141	5.67
353.35	8.19
353.56	7.96
353.77	7.25
353.979	6.11
354.189	5.3
354.399	6.69
354.608	9.29
354.818	8.01
355.027	5.95
355.237	6.19
355.447	7.18
355.656	5.39
355.866	5.11
356.075	4.32
356.285	4.51
356.494	5.43
356.704	4.51
356.913	2.16
357.123	3.8
357.332	5.03
357.542	5.84
357.751	4.44
357.96	4.71
358.17	4.83
358.379	5.65
358.589	6.71
358.798	5.16
359.007	5.38
359.217	6.84
359.426	7.11
359.635	6.58
359.845	6.95
360.054	7.81
360.263	8.11
360.472	8.36
360.682	9.37
360.891	8.78
361.1	9.39
361.309	9.29
361.519	7.78
361.728	6.42
361.937	7.34
362.146	6.95
362.355	6.44
362.564	6.7
362.774	7.72
362.983	6.46
363.192	6.39
363.401	5.43
363.61	4.94
363.819	5.51
364.028	5.6
364.237	5.31
364.446	4.53
364.655	3.83
364.864	5.47
365.073	4.31
365.282	4.9
365.491	6.22
365.7	8.84
365.909	9.29
366.118	10.66
366.327	11.57
366.536	12.23
366.745	13.42
366.954	14.56
367.162	12.51
367.371	13.71
367.58	13.78
367.789	12.53
367.998	9.08
368.207	9.53
368.415	7.18
368.624	7.57
368.833	6.48
369.042	5.25
369.25	5.15
369.459	5.81
369.668	4.73
369.877	4.39
370.085	5.21
370.294	7.89
370.503	7.04
370.711	8.36
370.92	7.69
371.129	6.08
371.337	6.47
371.546	6.81
371.754	6.12
371.963	7.17
372.171	7.83
372.38	7.04
372.589	4.7
372.797	4.24
373.006	4.26
373.214	4.44
373.423	6.38
373.631	6.9
373.84	6.23
374.048	6.19
374.256	5.57
374.465	6.01
374.673	6
374.882	6.78
375.09	8.14
375.298	5.44
375.507	5.67
375.715	5.84
375.923	6.23
376.132	6.02
376.34	5.72
376.548	5.25
376.757	5.36
376.965	6.17
377.173	6.39
377.381	6.92
377.59	9.2
377.798	8.16
378.006	7.23
378.214	5.3
378.423	6.26
378.631	7.97
378.839	7.98
379.047	7.76
379.255	8.33
379.463	7.19
379.671	5.93
379.879	6.44
380.088	6.95
380.296	7.93
380.504	8.4
380.712	8.35
380.92	6.67
381.128	6.2
381.336	6.04
381.544	4.18
381.752	4.97
381.96	5.54
382.168	4.45
382.376	6.29
382.584	5.72
382.791	6.96
382.999	5.56
383.207	7.45
383.415	7.15
383.623	6.96
383.831	6.7
384.039	8.07
384.247	8.22
384.454	6.93
384.662	5.71
384.87	6.56
385.078	6.27
385.285	7.11
385.493	5.09
385.701	6.13
385.909	6.67
386.116	7.28
386.324	5.83
386.532	4.96
386.739	6.14
386.947	7.39
387.155	7.1
387.362	6.13
387.57	5.68
387.778	5.77
387.985	5.16
388.193	3.99
388.4	3.74
388.608	4.19
388.816	4.94
389.023	4.43
389.231	3.49
389.438	2.9
389.646	2.26
389.853	2.55
390.061	2.66
390.268	3.36
390.475	3.73
390.683	3.84
390.89	2.53
391.098	2.19
391.305	3.25
391.512	3.3
391.72	4.54
391.927	6.04
392.135	6.16
392.342	6.87
392.549	4.98
392.756	5.39
392.964	6.35
393.171	6.87
393.378	7.44
393.586	7.01
393.793	6.36
394	5.99
394.207	6.53
394.414	6.45
394.622	6.43
394.829	7.28
395.036	7.37
395.243	7.29
395.45	7.44
395.657	6.6
395.864	6.51
396.072	7.04
396.279	7.44
396.486	7.42
396.693	7.11
396.9	7.08
397.107	7.69
397.314	7.22
397.521	6
397.728	6.02
397.935	6.2
398.142	6.83
398.349	7.08
398.556	5.49
398.763	3.38
398.97	3.47
399.177	2.78
399.383	3.42
399.59	2.96
399.797	3.26
400.004	3.35
400.211	3.22
400.418	2.23
400.625	1.17
400.831	1.4
401.038	2.64
401.245	3.5
401.452	3.47
401.658	3.2
401.865	4.3
402.072	4.13
402.279	5.22
402.485	4.39
402.692	5.15
402.899	5.76
403.105	6.51
403.312	6.75
403.519	6.88
403.725	7.38
403.932	7.03
404.138	7.45
404.345	7.44
404.552	6.7
404.758	7.87
404.965	6.66
405.171	7.4
405.378	7.14
405.584	5.75
405.791	4.23
405.997	4.53
406.204	4.85
406.41	4.55
406.617	5.68
406.823	5.81
407.029	6.26
407.236	7.67
407.442	6.82
407.649	6.95
407.855	7.85
408.061	8.62
408.268	7.92
408.474	7.32
408.68	6.33
408.887	5.56
409.093	5.96
409.299	3.99
409.505	2.97
409.712	3.63
409.918	3.61
410.124	4.17
410.33	3.91
410.537	4.51
410.743	5.01
410.949	5.64
411.155	6.54
411.361	6.28
411.567	7.91
411.773	9.54
411.98	9.19
412.186	8.77
412.392	8.66
412.598	8.56
412.804	7.78
413.01	7.81
413.216	7.85
413.422	8.5
413.628	8.46
413.834	8.05
414.04	7.9
414.246	7.43
414.452	7.35
414.658	7.83
414.864	7.43
415.07	7.1
415.275	6
415.481	5.95
415.687	4.95
415.893	4.36
416.099	4.93
416.305	4.45
416.511	4.59
416.716	4.69
416.922	4.16
417.128	4.44
417.334	4.96
417.539	5.25
417.745	5.43
417.951	5.71
418.157	6.47
418.362	6.11
418.568	5.99
418.774	6.14
418.979	5.78
419.185	6.45
419.391	6.82
419.596	7.11
419.802	7.05
420.008	6.15
420.213	5.76
420.419	5.29
420.624	5.14
420.83	5.22
421.035	4.74
421.241	5.46
421.446	4.79
421.652	4.66
421.857	4.23
422.063	4.43
422.268	4.83
422.474	4.56
422.679	4.32
422.885	4.61
423.09	4.64
423.295	4.83
423.501	4.67
423.706	4.75
423.911	4.55
424.117	4.41
424.322	4.44
424.527	4.79
424.733	5.02
424.938	5.57
425.143	5.47
425.349	5.21
425.554	5.28
425.759	5.73
425.964	6.16
426.169	6.67
426.375	6.71
426.58	6.8
426.785	6.27
426.99	6.2
427.195	5.84
427.4	6.19
427.605	6.58
427.811	6.69
428.016	5.9
428.221	5.69
428.426	4.42
428.631	4.25
428.836	4.5
429.041	4.33
429.246	5
429.451	4.81
429.656	4.18
429.861	4.31
430.066	4.59
430.271	4.54
430.476	4.38
430.681	4.86
430.886	5.4
431.09	5.34
431.295	5.64
431.5	4.75
431.705	4.98
431.91	4.95
432.115	5.02
432.32	4.24
432.524	4.81
432.729	5.26
432.934	5.48
433.139	5.52
433.343	5.16
433.548	5.43
433.753	5.69
433.958	5.47
434.162	5.19
434.367	4.91
434.572	4.71
434.776	4.72
434.981	4.03
435.186	3.21
435.39	2.83
435.595	3.4
435.799	2.96
436.004	3.61
436.209	3.51
436.413	3.59
436.618	2.92
436.822	4.17
437.027	3.25
437.231	4.08
437.436	4.95
437.64	4.91
437.845	5.39
438.049	5.54
438.253	5.56
438.458	6.12
438.662	6.07
438.867	6.44
439.071	5.72
439.275	5.89
439.48	4.93
439.684	5.02
439.888	5.47
440.093	4.78
440.297	4.48
440.501	4.05
440.706	3.86
440.91	4.2
441.114	4.03
441.318	4.02
441.523	3.05
441.727	3.53
441.931	3.15
442.135	2.88
442.339	3.76
442.543	4.05
442.748	4.09
442.952	3.8
443.156	3.72
443.36	4.24
443.564	4.82
443.768	5.49
443.972	5.42
444.176	5.09
444.38	5.18
444.584	5.21
444.788	5.77
444.992	5.73
445.196	6.09
445.4	5.96
445.604	5.67
445.808	5.16
446.012	5.25
446.216	4.86
446.42	5.24
446.624	5.33
446.828	4.36
447.032	3.84
447.235	3.84
447.439	3.43
447.643	3.96
447.847	4.21
448.051	4.67
448.254	4.67
448.458	5.25
448.662	5.66
448.866	5.26
449.069	5.75
449.273	5.5
449.477	5.8
449.681	6.23
449.884	6.21
450.088	5.87
450.292	6.26
450.495	7.1
450.699	6.29
450.902	5.61
451.106	5.22
451.31	5
451.513	5.05
451.717	4.69
451.92	4.3
452.124	3.63
452.327	3.92
452.531	3.14
452.734	2.68
452.938	2.82
453.141	2.84
453.345	3.19
453.548	3.29
453.752	3.57
453.955	3.6
454.158	3.66
454.362	4.03
454.565	4.41
454.769	4.58
454.972	4.78
455.175	4.66
455.379	4.88
455.582	5.35
455.785	5.58
455.988	5.57
456.192	5.79
456.395	6.31
456.598	6.38
456.801	5.17
457.005	5.83
457.208	5.46
457.411	5.87
457.614	6.1
457.817	5.89
458.021	5.81
458.224	5.85
458.427	5.95
458.63	6.2
458.833	6.11
459.036	6.61
459.239	6.1
459.442	5.85
459.645	6.03
459.848	5.95
460.051	5.73
460.254	5.88
460.457	5.85
460.66	5.72
460.863	4.99
461.066	4.52
461.269	4.95
461.472	4.56
461.675	4.93
461.878	4.43
462.081	4.33
462.284	4.43
462.486	3.73
462.689	3.31
462.892	4.12
463.095	4.41
463.298	4.87
463.5	4.37
463.703	4.65
463.906	5.06
464.109	5.35
464.311	4.88
464.514	4.85
464.717	5.12
464.92	5.47
465.122	4.6
465.325	4.78
465.528	5.71
465.73	5.72
465.933	5.93
466.135	5.57
466.338	5.35
466.541	5.24
466.743	5.27
466.946	5.73
467.148	5.41
467.351	5.79
467.553	5.75
467.756	4.1
467.958	3.62
468.161	3.82
468.363	4.34
468.566	4.83
468.768	5.32
468.971	5.16
469.173	4.89
469.375	5.19
469.578	5.24
469.78	4.71
469.983	5.59
470.185	6.28
470.387	6.31
470.59	5.55
470.792	5.09
470.994	4.63
471.196	4.84
471.399	5.56
471.601	5.44
471.803	5.22
472.005	5.04
472.208	4.6
472.41	4.27
472.612	3.85
472.814	4.43
473.016	5.05
473.218	5.38
473.421	5.04
473.623	4.53
473.825	4.63
474.027	4.67
474.229	5.37
474.431	5.31
474.633	5.41
474.835	5.43
475.037	5.01
475.239	4.55
475.441	4.43
475.643	4.18
475.845	3.9
476.047	4.29
476.249	3.86
476.451	3.28
476.653	3.78
476.855	3.63
477.057	3.84
477.258	3.69
477.46	3.71
477.662	3.83
477.864	4.54
478.066	5.08
478.268	4.34
478.469	4.64
478.671	5.12
478.873	4.37
479.075	4.62
479.276	5.15
479.478	5.05
479.68	5.2
479.882	5.56
480.083	5.05
480.285	5.15
480.487	5.39
480.688	5.07
480.89	5.03
481.091	5.31
481.293	5.37
481.495	5.01
481.696	5.44
481.898	5.54
482.099	5.21
482.301	5.32
482.502	5.14
482.704	5.24
482.905	5.47
483.107	5.48
483.308	5.55
483.51	5.4
483.711	5.42
483.913	5.16
484.114	5.03
484.315	5.09
484.517	5.23
484.718	4.98
484.92	4.85
485.121	4.65
485.322	4.64
485.524	4.62
485.725	4.86
485.926	5.02
486.127	5.1
486.329	5.06
486.53	5.16
486.731	5.43
486.932	5.81
487.134	5.83
487.335	5.71
487.536	5.89
487.737	5.89
487.938	5.83
488.139	5.74
488.341	6.02
488.542	5.99
488.743	6.04
488.944	5.73
489.145	5.48
489.346	5.45
489.547	5.67
489.748	5.39
489.949	5.39
490.15	5.28
490.351	5.24
490.552	5.15
490.753	5.12
490.954	4.88
491.155	4.74
491.356	4.56
491.557	4.65
491.758	4.66
491.959	4.73
492.159	4.69
492.36	4.69
492.561	4.71
492.762	4.37
492.963	4.41
493.164	5.12
493.364	5.1
493.565	5.37
493.766	5.27
493.967	5.15
494.167	4.87
494.368	4.83
494.569	4.66
494.769	4.75
494.97	4.55
495.171	5.37
495.371	5.31
495.572	5.17
495.773	5.38
495.973	5.75
496.174	6.18
496.375	6.06
496.575	5.85
496.776	6.26
496.976	5.79
497.177	6
497.377	5.41
497.578	4.52
497.778	4.8
497.979	4.44
498.179	4.35
498.38	4.1
498.58	4.14
498.78	4.27
498.981	3.8
499.181	3.83
499.382	4.09
499.582	4
499.782	4.39
499.983	4.3
500.183	4.38
500.383	4.2
500.584	4.29
500.784	4.42
500.984	4.5
501.184	4.7
501.385	5.03
501.585	5.29
501.785	4.93
501.985	5.19
502.185	5.32
502.386	5.23
502.586	5.55
502.786	5.32
502.986	5.39
503.186	5.68
503.386	6.01
503.586	5.64
503.786	5.3
503.987	5.47
504.187	5.18
504.387	5.16
504.587	5.37
504.787	4.72
504.987	4.91
505.187	5.19
505.387	5.05
505.587	4.92
505.786	5.52
505.986	5.32
506.186	5.61
506.386	5.52
506.586	5.22
506.786	5.4
506.986	5.41
507.186	5.67
507.386	5.5
507.585	5.85
507.785	6.1
507.985	6.16
508.185	6.65
508.384	6.92
508.584	7.21
508.784	7.49
508.984	7.59
509.183	8.14
509.383	7.28
509.583	7.15
509.782	7.09
509.982	6.83
510.182	6.37
510.381	6.01
510.581	5.98
510.781	6.19
510.98	6.27
511.18	5.79
511.379	5.54
511.579	5.7
511.778	5.93
511.978	5.92
512.177	6.17
512.377	6.32
512.576	6.99
512.776	6.66
512.975	7.04
513.175	6.57
513.374	6.96
513.573	6.95
513.773	6.86
513.972	6.81
514.172	6.58
514.371	6.11
514.57	5.86
514.77	5.38
514.969	5.58
515.168	4.93
515.367	5.53
515.567	5.14
515.766	4.94
515.965	5.48
516.164	5.72
516.364	6.03
516.563	6.19
516.762	6.62
516.961	6.6
517.16	6.28
517.359	6.46
517.559	6.32
517.758	6.65
517.957	6.87
518.156	7.03
518.355	7.09
518.554	6.98
518.753	7
518.952	6.64
519.151	6.5
519.35	6.71
519.549	7.1
519.748	7.39
519.947	7.32
520.146	7.21
520.345	7.33
520.544	7.11
520.743	7.06
520.942	6.9
521.141	7.41
521.339	7.67
521.538	8.34
521.737	8.63
521.936	8.72
522.135	8.73
522.333	8.88
522.532	8.81
522.731	8.75
522.93	8.69
523.129	8.7
523.327	8.93
523.526	9.06
523.725	8.47
523.923	8.01
524.122	7.94
524.321	8.24
524.519	8.4
524.718	8.11
524.917	8.04
525.115	8.23
525.314	8.33
525.512	8.18
525.711	8.2
525.909	8.4
526.108	8.41
526.306	8.42
526.505	8.48
526.703	8.27
526.902	8.33
527.1	8.54
527.299	8.76
527.497	8.82
527.696	9
527.894	9
528.092	9.12
528.291	9.03
528.489	9.22
528.688	9.13
528.886	9.3
529.084	9.44
529.283	9.45
529.481	9.23
529.679	9.46
529.877	9.33
530.076	9.57
530.274	9.55
530.472	9.65
530.67	9.33
530.869	9.3
531.067	9.41
531.265	9.7
531.463	9.8
531.661	10.23
531.859	10.09
532.057	10.07
532.255	9.89
532.454	9.82
532.652	9.85
532.85	9.82
533.048	9.79
533.246	9.79
533.444	9.5
533.642	9.41
533.84	8.94
534.038	8.76
534.236	8.62
534.434	8.84
534.632	8.95
534.83	8.97
535.027	9.3
535.225	9.36
535.423	9.62
535.621	9.97
535.819	10.24
536.017	10.17
536.215	10.57
536.412	10.82
536.61	10.71
536.808	10.93
537.006	10.95
537.203	10.71
537.401	10.57
537.599	10.35
537.797	10.27
537.994	10.33
538.192	10.52
538.39	10.39
538.587	10.51
538.785	10.46
538.983	10.34
539.18	10.41
539.378	10.58
539.575	10.96
539.773	10.63
539.97	10.48
540.168	10.33
540.366	10.23
540.563	10.22
540.761	10.44
540.958	10.43
541.155	10.45
541.353	10.92
541.55	10.99
541.748	10.81
541.945	11.36
542.143	11.52
542.34	11.9
542.537	12.45
542.735	12.46
542.932	12.13
543.129	12.2
543.327	12.39
543.524	11.75
543.721	11.77
543.919	11.98
544.116	11.72
544.313	11.65
544.51	11.43
544.708	11.18
544.905	11.15
545.102	11.21
545.299	11.27
545.496	11.02
545.693	11.31
545.891	11.11
546.088	11.12
546.285	11.27
546.482	11.53
546.679	11.15
546.876	11.08
547.073	11.61
547.27	11.23
547.467	10.66
547.664	10.5
547.861	10.18
548.058	10.22
548.255	10.29
548.452	9.97
548.649	9.58
548.846	10.01
549.043	9.58
549.24	8.55
549.437	9.11
549.633	9.56
549.83	9.55
550.027	9.93
550.224	10.06
550.421	10.16
550.618	10.42
550.814	10.62
551.011	11.09
551.208	11.38
551.405	12.41
551.601	11.97
551.798	12.72
551.995	12.32
552.191	11.83
552.388	12.09
552.585	11.71
552.781	12.33
552.978	12.11
553.175	11.72
553.371	12.07
553.568	11.69
553.764	12.25
553.961	12.02
554.157	12.36
554.354	12.99
554.55	13.09
554.747	13.44
554.943	12.53
555.14	12.61
555.336	12.49
555.533	12.2
555.729	12.18
555.926	11.6
556.122	11.83
556.318	12.66
556.515	12.9
556.711	12.85
556.907	13.24
557.104	13.64
557.3	14.4
557.496	14.28
557.693	14.05
557.889	14.25
558.085	14.83
558.281	14.45
558.478	14.39
558.674	14.24
558.87	14.57
559.066	14.2
559.262	13.96
559.459	13.32
559.655	13.52
559.851	12.94
560.047	13.22
560.243	12.69
560.439	12.49
560.635	12.44
560.831	12.78
561.027	12.37
561.223	12.03
561.419	12.07
561.615	12.28
561.811	12.16
562.007	13.43
562.203	13
562.399	13.55
562.595	13.57
562.791	13.29
562.987	12.33
563.183	12.36
563.379	12.96
563.575	12.41
563.771	12.94
563.966	12.66
564.162	12.33
564.358	12.45
564.554	12.45
564.75	12.7
564.945	12.79
565.141	13.28
565.337	13.24
565.533	13.37
565.728	14.05
565.924	13.22
566.12	13.48
566.315	13.28
566.511	13.57
566.707	13.68
566.902	14.04
567.098	13.97
567.293	14.27
567.489	14.16
567.684	14.15
567.88	14
568.076	14.21
568.271	14.31
568.467	14.85
568.662	14.09
568.858	13.94
569.053	13.7
569.248	14.14
569.444	13.91
569.639	14.49
569.835	14.17
570.03	14.35
570.225	14.32
570.421	14.21
570.616	13.49
570.812	13.64
571.007	13.49
571.202	13.57
571.397	13.07
571.593	13
571.788	13.06
571.983	12.88
572.178	13.33
572.374	13.51
572.569	13.43
572.764	14.48
572.959	14.86
573.154	14.93
573.35	13.79
573.545	14.47
573.74	14.77
573.935	14.18
574.13	14.84
574.325	14.63
574.52	15.27
574.715	15.54
574.91	14.96
575.105	14.79
575.3	15.09
575.495	15.75
575.69	15.58
575.885	15.27
576.08	15.68
576.275	15.53
576.47	15.17
576.665	14.83
576.86	15.61
577.055	15.63
577.25	15.52
577.444	15.09
577.639	15.33
577.834	15.54
578.029	15.09
578.224	14.58
578.418	14.46
578.613	13.65
578.808	13.28
579.003	12.07
579.197	12.5
579.392	12.56
579.587	12.59
579.781	12.97
579.976	12.06
580.171	11.97
580.365	12.18
580.56	12.25
580.755	13.28
580.949	13.7
581.144	13.8
581.338	12.88
581.533	13.07
581.727	14.13
581.922	14.17
582.116	14.14
582.311	14.54
582.505	14.2
582.7	14.85
582.894	15.33
583.089	15.55
583.283	15.3
583.478	15.72
583.672	15.73
583.866	15.08
584.061	14.91
584.255	15.36
584.449	15.58
584.644	16.81
584.838	16.53
585.032	15.59
585.226	14.98
585.421	15.16
585.615	15.4
585.809	15.5
586.003	15.45
586.198	15.2
586.392	15.14
586.586	14.93
586.78	14.14
586.974	13.61
587.168	14.38
587.363	14.13
587.557	14.15
587.751	14.27
587.945	14.17
588.139	14.61
588.333	14.13
588.527	14.1
588.721	13.76
588.915	13.59
589.109	13.17
589.303	12.95
589.497	12.76
589.691	13.31
589.885	12.69
590.079	13.29
590.273	12.35
590.466	13.39
590.66	12.87
590.854	13.4
591.048	13.96
591.242	14.84
591.436	14.39
591.629	14.82
591.823	14.94
592.017	15.23
592.211	15.5
592.404	16.16
592.598	15.53
592.792	16.36
592.986	16.5
593.179	15.88
593.373	15
593.567	15.81
593.76	16.16
593.954	15.76
594.147	15.77
594.341	15.42
594.535	15.2
594.728	15.2
594.922	15.37
595.115	15.44
595.309	16.32
595.502	16.76
595.696	16.24
595.889	16.29
596.083	16.55
596.276	16.75
596.47	16.38
596.663	16.66
596.856	17.17
597.05	16.9
597.243	17.04
597.437	16.39
597.63	16.35
597.823	16.53
598.017	16.48
598.21	16.81
598.403	17.12
598.596	17.36
598.79	17.32
598.983	16.87
599.176	16.71
599.369	17.29
599.563	17.45
599.756	17.56
599.949	17.21
600.142	16.62
600.335	15.5
600.528	15.55
600.722	16.49
600.915	16.38
601.108	16.27
601.301	17.19
601.494	16.65
601.687	16.97
601.88	16.05
602.073	16.29
602.266	16.96
602.459	17.56
602.652	17.31
602.845	16.59
603.038	16.92
603.231	16.93
603.424	15.9
603.617	15.04
603.809	14.46
604.002	14.52
604.195	14.96
604.388	14.61
604.581	14.63
604.774	14.44
604.966	13.64
605.159	13.38
605.352	13.1
605.545	13.27
605.737	14.38
605.93	14.92
606.123	16.11
606.316	15.22
606.508	15.6
606.701	14.73
606.894	15.21
607.086	15.43
607.279	15.3
607.471	15.9
607.664	16.17
607.857	16.41
608.049	16.44
608.242	16.39
608.434	16.75
608.627	16.12
608.819	16.73
609.012	17.22
609.204	17.41
609.397	17.39
609.589	17.54
609.782	17.85
609.974	17.26
610.166	17.3
610.359	16.73
610.551	17.58
610.743	17.95
610.936	17.76
611.128	15.99
611.32	16.82
611.513	16.3
611.705	15.73
611.897	14.98
612.09	15.18
612.282	15.75
612.474	16.28
612.666	16.19
612.858	17.12
613.051	17.65
613.243	18.32
613.435	17.42
613.627	18.48
613.819	18.58
614.011	18.93
614.203	18.64
614.395	18.42
614.588	18.16
614.78	18.01
614.972	16.9
615.164	16.77
615.356	16.9
615.548	17.56
615.74	16.62
615.932	16.47
616.124	17
616.315	17.14
616.507	16.78
616.699	16.34
616.891	15.93
617.083	16.53
617.275	16.32
617.467	16.21
617.659	14.72
617.85	15.06
618.042	15.21
618.234	14.13
618.426	13.85
618.618	13.84
618.809	14.05
619.001	13.78
619.193	13.74
619.384	13.4
619.576	14.46
619.768	15.35
619.959	14.24
620.151	15.12
620.343	15.35
620.534	15.11
620.726	15.15
620.917	15.38
621.109	14.58
621.301	13.85
621.492	15.07
621.684	15.77
621.875	16.45
622.067	17.72
622.258	16.89
622.45	17.86
622.641	18.02
622.832	17.85
623.024	18.77
623.215	19.43
623.407	19.32
623.598	17.96
623.789	16.52
623.981	15.9
624.172	15.57
624.363	15.63
624.555	15.4
624.746	16.47
624.937	16.25
625.129	15.12
625.32	14.99
625.511	15.1
625.702	15.87
625.893	15.79
626.085	16.5
626.276	16.83
626.467	17.35
626.658	17.51
626.849	16.43
627.04	16.6
627.231	16.59
627.422	16.66
627.614	16.23
627.805	16.11
627.996	16.36
628.187	15.47
628.378	14.89
628.569	14.26
628.76	14.13
628.951	14.07
629.142	13.81
629.332	13.97
629.523	13.92
629.714	14.69
629.905	15.39
630.096	15.19
630.287	15.87
630.478	17.15
630.669	17.97
630.859	17.89
631.05	18.55
631.241	18.62
631.432	18.82
631.623	19.77
631.813	20.32
632.004	19.48
632.195	19.62
632.385	18.99
632.576	18.04
632.767	16.68
632.957	15.76
633.148	15.94
633.339	16.53
633.529	17.35
633.72	16.73
633.91	16.27
634.101	16.61
634.292	15.78
634.482	16.69
634.673	16.2
634.863	17.23
635.054	18.35
635.244	17.74
635.435	17.39
635.625	15.87
635.815	15.98
636.006	16.16
636.196	14.68
636.387	14.95
636.577	15.02
636.767	16.3
636.958	16.12
637.148	15.49
637.338	14.93
637.529	15.32
637.719	16.45
637.909	16.45
638.099	15.89
638.29	17.04
638.48	17.02
638.67	16.71
638.86	16.3
639.05	16.54
639.241	16.02
639.431	16.63
639.621	15.84
639.811	15.47
640.001	15.69
640.191	16.42
640.381	17.19
640.571	17.27
640.761	16.77
640.951	17.3
641.141	17.47
641.331	17.12
641.521	18.2
641.711	17.9
641.901	17.55
642.091	17.37
642.281	17.42
642.471	15.49
642.661	15.19
642.851	15.62
643.041	15.08
643.231	15.25
643.42	16.57
643.61	15.94
643.8	16.15
643.99	15.64
644.18	15.07
644.369	14.45
644.559	15.82
644.749	15.97
644.939	15.88
645.128	16.23
645.318	15.59
645.508	15.8
645.697	16.08
645.887	15.63
646.076	17.02
646.266	17.32
646.456	17.35
646.645	17.95
646.835	19.06
647.024	19.26
647.214	18.91
647.403	19.19
647.593	19.81
647.782	18.21
647.972	19.11
648.161	19.13
648.351	19.64
648.54	20.03
648.73	18.48
648.919	17.52
649.108	16.75
649.298	16.94
649.487	15.97
649.677	15.06
649.866	16.1
650.055	15.84
650.244	15.19
650.434	14.72
650.623	15.17
650.812	17.05
651.002	18.43
651.191	17.95
651.38	17.03
651.569	17.42
651.758	17.87
651.947	17.36
652.137	16.84
652.326	16.97
652.515	17.17
652.704	16.88
652.893	16.08
653.082	14.88
653.271	16.29
653.46	16.91
653.649	17.82
653.838	17.82
654.027	18.87
654.216	18.8
654.405	18.8
654.594	19.02
654.783	18.85
654.972	18.3
655.161	19.68
655.35	19.1
655.539	19.02
655.728	19.57
655.916	18.16
656.105	18.25
656.294	18.78
656.483	17.64
656.672	17.02
656.86	16.89
657.049	16.89
657.238	15.83
657.427	16.01
657.615	16.08
657.804	15.71
657.993	16.84
658.181	16.53
658.37	16.27
658.559	17.55
658.747	17.77
658.936	17.46
659.125	17.32
659.313	17.95
659.502	17.93
659.69	18.17
659.879	17.28
660.067	16.63
660.256	16.62
660.444	17.42
660.633	17.29
660.821	16.65
661.01	17.52
661.198	17.69
661.387	17.44
661.575	17.33
661.763	17.44
661.952	16.85
662.14	18.1
662.328	18.01
662.517	18.64
662.705	18.24
662.893	19.53
663.082	19.6
663.27	18.74
663.458	19.35
663.646	19.03
663.834	18.86
664.023	19.95
664.211	18.16
664.399	19.51
664.587	18.56
664.775	18.83
664.963	17.31
665.152	15.76
665.34	16.39
665.528	15.52
665.716	16.08
665.904	16.45
666.092	17.05
666.28	18.4
666.468	16.79
666.656	16.09
666.844	15.56
667.032	14.73
667.22	16.46
667.408	17.58
667.596	17.58
667.784	16.56
667.971	15.56
668.159	14.84
668.347	14.71
668.535	15.38
668.723	15.97
668.911	16.18
669.098	16.99
669.286	14.89
669.474	14.37
669.662	13.64
669.849	13.52
670.037	14.36
670.225	14.35
670.413	14.84
670.6	14.39
670.788	14.22
670.976	11.95
671.163	13.94
671.351	14.64
671.538	13.35
671.726	12.83
671.913	13.14
672.101	12.15
672.289	11.69
672.476	9.99
672.664	10.43
672.851	11.18
673.039	12.6
673.226	11.29
673.413	11.94
673.601	14.61
673.788	14.45
673.976	13.91
674.163	14.51
674.35	15.85
674.538	16.15
674.725	15.94
674.912	14.88
675.1	15.57
675.287	14.66
675.474	13.84
675.662	11.27
675.849	11.51
676.036	11.69
676.223	10.75
676.411	10.89
676.598	11.37
676.785	11.18
676.972	10.44
677.159	9.72
677.346	10.06
677.533	11.02
677.721	12.55
677.908	13.59
678.095	13.94
678.282	14.01
678.469	14.75
678.656	15.32
678.843	14.88
679.03	15.25
679.217	17.05
679.404	17.38
679.591	17.54
679.778	17.55
679.964	17.68
680.151	18.86
680.338	20.29
680.525	18.31
680.712	18.44
680.899	18.26
681.086	20.54
681.272	20.91
681.459	21.04
681.646	21.46
681.833	20.59
682.02	19.31
682.206	19.22
682.393	18.58
682.58	19.46
682.766	18.55
682.953	20.24
683.14	17.08
683.326	16.39
683.513	15.87
683.7	14.83
683.886	15.14
684.073	14.38
684.259	13.24
684.446	12.72
684.632	13.56
684.819	15.49
685.005	13.63
685.192	14.32
685.378	14.58
685.565	15.61
685.751	17.25
685.938	18.13
686.124	19.98
686.31	21.17
686.497	21.05
686.683	20.06
686.87	17.54
687.056	17.7
687.242	17.21
687.429	14.2
687.615	13.52
687.801	12.2
687.987	10.95
688.174	9.84
688.36	8.69
688.546	9.78
688.732	9.46
688.918	8.97
689.105	10.2
689.291	10.05
689.477	11.01
689.663	11.45
689.849	12.03
690.035	11.18
690.221	12.55
690.407	14.03
690.593	13.34
690.779	14.61
690.965	16.53
691.151	16.22
691.337	18.96
691.523	19.28
691.709	20.4
691.895	20.9
692.081	23.01
692.267	20.53
692.453	20.15
692.639	19.97
692.825	17.94
693.011	18.11
693.196	20.54
693.382	18.51
693.568	19.09
693.754	16.83
693.94	17.26
694.125	15.48
694.311	16.74
694.497	16.92
694.682	17.86
694.868	18.68
695.054	17.24
695.239	13.03
695.425	12.75
695.611	12.61
695.796	12.7
695.982	11.76
696.168	13
696.353	13.66
696.539	14.16
696.724	14.75
696.91	15.17
697.095	14.75
697.281	15.64
697.466	15.85
697.652	16.18
697.837	16.28
698.023	16.09
698.208	16.2
698.393	16.7
698.579	16.19
698.764	16.34
698.949	16.36
699.135	16.86
699.32	16.11
699.505	14.51
699.691	13.45
699.876	15.77
700.061	15.36
700.246	14.95
700.432	14.61
700.617	14.49
700.802	11.72
700.987	10.48
701.172	10.51
701.358	11.32
701.543	14.56
701.728	14.79
701.913	13.71
702.098	14.84
702.283	13.52
702.468	12.77
702.653	13.53
702.838	12.77
703.023	13.35
703.208	13.46
703.393	13.51
703.578	13.19
703.763	13.29
703.948	10.58
704.133	10.87
704.318	13.06
704.503	10.51
704.688	9.39
704.873	11.44
705.057	11.41
705.242	11.51
705.427	12.41
705.612	11.89
705.797	13.31
705.981	13.98
706.166	15.48
706.351	16.03
706.536	17.81
706.72	17.67
706.905	16.39
707.09	17.88
707.274	18.84
707.459	18.44
707.644	19.86
707.828	19.98
708.013	19.87
708.197	18.59
708.382	18.76
708.567	20.72
708.751	20.87
708.936	23.53
709.12	22.89
709.305	23.55
709.489	23.5
709.673	23.35
709.858	23.06
710.042	26.1
710.227	24.35
710.411	22.05
710.596	21.24
710.78	21.31
710.964	21.88
711.149	22.2
711.333	21.91
711.517	23.4
711.702	23.94
711.886	24.55
712.07	23.51
712.254	23.8
712.438	25.19
712.623	22.34
712.807	23.62
712.991	21.44
713.175	21.76
713.359	21.59
713.544	20.27
713.728	19.73
713.912	18.69
714.096	19.18
714.28	19.06
714.464	18.1
714.648	18.53
714.832	16.01
715.016	16.91
715.2	15.73
715.384	13.13
715.568	14.36
715.752	14.81
715.936	15.16
716.12	12.67
716.304	14.03
716.488	16.1
716.671	17.34
716.855	19.34
717.039	18.51
717.223	18.4
717.407	20.95
717.59	20.6
717.774	18.84
717.958	19.34
718.142	21.69
718.325	20.63
718.509	17.11
718.693	18.85
718.877	19.17
719.06	17.01
719.244	15.38
719.428	15.37
719.611	11.65
719.795	12.31
719.978	13.03
720.162	9.29
720.345	7.9
720.529	8.78
720.713	7.29
720.896	6.54
721.08	11.86
721.263	11.08
721.446	8.76
721.63	9.22
721.813	6.15
721.997	2.93
722.18	6.36
722.364	5.81
722.547	6.05
722.73	6.27
722.914	6.66
723.097	5.11
723.28	5.35
723.464	6.31
723.647	9.19
723.83	8.46
724.013	11.06
724.197	10.85
724.38	11.33
724.563	11.28
724.746	12.12
724.929	11.42
725.112	8.55
725.296	10.08
725.479	8.69
725.662	7.01
725.845	8.86
726.028	10.36
726.211	8.76
726.394	11.06
726.577	12.29
726.76	13.09
726.943	12.16
727.126	13.15
727.309	14.07
727.492	17.25
727.675	20.31
727.858	21.69
728.041	19.75
728.224	19.41
728.407	17.63
728.589	18.83
728.772	16.2
728.955	15.42
729.138	15.7
729.321	15.68
729.503	14.3
729.686	11.74
729.869	11.02
730.052	12.63
730.234	14.64
730.417	15.15
730.6	13.99
730.782	13.51
730.965	16.09
731.148	16.06
731.33	15.77
731.513	14.49
731.695	14.79
731.878	16.74
732.061	16.61
732.243	15.43
732.426	14.53
732.608	13.19
732.791	15.15
732.973	14.84
733.156	14.12
733.338	13.49
733.52	16.47
733.703	15.36
733.885	15.76
734.068	16.61
734.25	17.79
734.432	21.24
734.615	21.86
734.797	24.65
734.979	25.07
735.162	30.28
735.344	31.8
735.526	31.86
735.708	33.77
735.891	33.03
736.073	33.33
736.255	34.57
736.437	33.98
736.619	34.41
736.802	30.5
736.984	30.79
737.166	26.31
737.348	26.31
737.53	23.74
737.712	22.79
737.894	22.16
738.076	19.93
738.258	16.05
738.44	16.39
738.622	15.12
738.804	16.24
738.986	13.61
739.168	16.47
739.35	14.97
739.532	15.47
739.714	15.93
739.896	14.03
740.078	13.25
740.259	13.94
740.441	12.29
740.623	12.15
740.805	11.68
740.987	12.82
741.168	9.01
741.35	13.2
741.532	14.63
741.714	12.64
741.895	12.76
742.077	8.89
742.259	9.89
742.44	12.75
742.622	11.66
742.804	16.84
742.985	15.18
743.167	17.24
743.348	13.98
743.53	12.65
743.711	16.54
743.893	18.85
744.075	21.27
744.256	20.58
744.438	18.66
744.619	19.84
744.8	15.91
744.982	20.65
745.163	20.19
745.345	14.62
745.526	15.55
745.707	17.08
745.889	14.96
746.07	15.09
746.252	15.41
746.433	14.89
746.614	16.13
746.795	16.89
746.977	12.19
747.158	10.42
747.339	16.08
747.52	14.91
747.702	12.59
747.883	14.3
748.064	14.44
748.245	14.71
748.426	12.16
748.607	11.56
748.788	12.49
748.97	11.32
749.151	11.91
749.332	8.07
749.513	7.82
749.694	6.19
749.875	4.53
750.056	4.28
750.237	3.64
750.418	4.35
750.599	4.48
750.78	2.79
750.96	8.4
751.141	3.74
751.322	1.97
751.503	6.69
751.684	6.98
751.865	7.82
752.046	9.6
752.226	6.6
752.407	7.34
752.588	7.46
752.769	10.11
752.949	4.71
753.13	10.45
753.311	18.39
753.492	17.72
753.672	19.74
753.853	18
754.034	17.44
754.214	19.03
754.395	23.83
754.575	24.7
754.756	23.43
754.937	25.59
755.117	25.01
755.298	23.01
755.478	19.2
755.659	21.77
755.839	24.16
756.02	25.66
756.2	26.13
756.381	22.68
756.561	19.82
756.741	19.74
756.922	16.45
757.102	13.47
757.283	12.27
757.463	11.03
757.643	6.25
757.823	9.57
758.004	6.4
758.184	10.5
758.364	7.69
758.545	14.09
758.725	13.19
758.905	15.63
759.085	14.97
759.265	11.95
759.446	8.82
759.626	8.82
759.806	-1.32
759.986	1.25
760.166	-5.31
760.346	-1.17
760.526	-3.91
760.706	2.89
760.886	6.38
761.066	10
761.246	10.12
761.426	13.55
761.606	16.28
761.786	19.91
761.966	17.46
762.146	16.77
762.326	15.68
762.506	14.36
762.686	11.01
762.866	7.9
763.046	7.94
763.225	9.73
763.405	12.7
763.585	10.86
763.765	10.92
763.945	12.6
764.124	14.08
764.304	14.77
764.484	14.73
764.664	15.35
764.843	19.11
765.023	20.21
765.203	21.69
765.382	18.89
765.562	14.36
765.741	16.3
765.921	16.05
766.101	19.18
766.28	16.16
766.46	18.93
766.639	16.27
766.819	11.97
766.998	11.44
767.178	9.34
767.357	7.91
767.537	8.53
767.716	10.11
767.896	9.48
768.075	7.63
768.254	9.51
768.434	7.93
768.613	12.05
768.792	13.25
768.972	12.58
769.151	10.75
769.33	9.2
769.51	15.22
769.689	10.65
769.868	9.48
770.047	8.93
770.226	13.86
770.406	15.98
770.585	15.44
770.764	13.03
770.943	11.32
771.122	15.95
771.301	19.69
771.48	16.93
771.66	11.11
771.839	9.57
772.018	2.08
772.197	-3.04
772.376	-10.54
772.555	-12.62
772.734	-13.62
772.913	-16.73
773.092	-22.67
773.271	-20.93
773.449	-28.34
773.628	-19.79
773.807	-21.81
773.986	-6.93
774.165	-2.51
774.344	9.39
774.523	8.74
774.701	16.71
774.88	19.05
775.059	24.32
775.238	19.46
775.417	29.61
775.595	28.35
775.774	34.43
775.953	32.49
776.131	36.66
776.31	33.1
776.489	33.52
776.667	31.92
776.846	28.9
777.025	26.1
777.203	29.34
777.382	24.3
777.56	31.95
777.739	28.98
777.917	28.29
778.096	21.09
778.274	23.64
778.453	22.58
778.631	18.69
778.81	20.17
778.988	18.41
779.166	15.21
779.345	10.63
779.523	4.56
779.702	11.77
779.88	8.53
780.058	8.75
780.237	11.69
780.415	18.45
780.593	17.33
780.771	19.34
780.95	18.43
781.128	23.7
781.306	30.35
781.484	37
781.662	34.03
781.841	34.22
782.019	34.62
782.197	28.42
782.375	24.85
782.553	29.61
782.731	33.08
782.909	36.66
783.087	27.78
783.265	19.26
783.443	17.66
783.621	15.8
783.799	20.43
783.977	11.33
784.155	15.65
784.333	15.2
784.511	16.42
784.689	15.43
784.867	17.78
785.045	19.86
785.223	22.91
785.4	13.46
785.578	13.4
785.756	14.11
785.934	18.88
786.112	19.73
786.289	24.48
786.467	27.2
786.645	26.86
786.823	24.52
787	17.24
787.178	14.52
787.356	18.2
787.533	17.24
787.711	14.84
787.889	13.23
788.066	14.12
788.244	13.46
788.421	14.28
788.599	14.81
788.776	13.18
788.954	16.53
789.131	17.19
789.309	19.34
789.486	17.45
789.664	13.24
789.841	8.94
790.019	4.44
790.196	3.03
790.373	-3.3
790.551	-13.57
790.728	-24.29
790.906	-15.22
791.083	-9.62
791.26	-17.59
791.437	-19.1
791.615	-21.24
791.792	-15.86
791.969	-10.77
792.146	-22.54
792.324	-25.78
792.501	-20.58
792.678	3.68
792.855	3.5
793.032	8.08
793.209	14.68
793.387	14.91
793.564	15.97
793.741	26.12
793.918	28.88
794.095	37.83
794.272	31.9
794.449	30.08
794.626	29.29
794.803	26.8
794.98	22.24
795.157	25.86
795.334	30.38
795.511	29.71
795.688	33.3
795.864	34.06
796.041	18.34
796.218	27.15
796.395	25.87
796.572	23.44
796.749	19.45
796.925	27.67
797.102	21.49
797.279	13.11
797.456	13.61
797.632	5.15
797.809	7.68
797.986	18.07
798.162	15.9
798.339	16.98
798.516	21.51
798.692	33.46
798.869	26.65
799.046	27.84
799.222	37.68
799.399	40.03
799.575	38.42
799.752	35.52
799.928	31.04
800.105	26.94
800.281	33.56
800.458	35.49
800.634	30.4
800.811	24.97
800.987	24.34
801.163	17.7
801.34	-0.51
801.516	4.53
801.692	-0.49
801.869	14.4
802.045	12.96
802.221	8.78
802.398	0.41
802.574	4.28
802.75	6.87
802.926	4.18
803.103	11.85
803.279	27.34
803.455	26.07
803.631	26.24
803.807	12.4
803.983	14.02
804.16	18.03
804.336	13.62
804.512	12.89
804.688	2.92
804.864	8.77
805.04	-8.05
805.216	-4.86
805.392	9.03
805.568	11.01
805.744	3.79
805.92	8.28
806.096	-0.64
806.272	8.05
806.448	2.62
806.623	9.56
806.799	11.83
806.975	19.04
807.151	14.82
807.327	21
807.503	17.03
807.678	30.89
807.854	28.37
808.03	29.15
808.206	23.26
808.381	32.97
808.557	34.65
808.733	30.09
808.908	41.26
809.084	40.15
809.26	24.86
809.435	21.96
809.611	-3.75
809.787	3.73
809.962	13.88
810.138	2.3
810.313	-30.66
810.489	-25.54
810.664	-37.34
810.84	-51.78
811.015	-42.92
811.191	-54.63
811.366	-57.47
811.542	-41.03
811.717	-34.32
811.892	-53.68
812.068	-39.97
812.243	-32.44
812.419	-43.41
812.594	-14.89
812.769	-22.27
812.944	-20
813.12	-9.69
813.295	0.34
813.47	-12.02
813.645	-28.34
813.821	-13.37
813.996	0.78
814.171	10.24
814.346	35.74
814.521	24.95
814.697	12.37
814.872	-3.89
815.047	7.05
815.222	-0.75
815.397	-4.22
815.572	-0.39
815.747	-18.45
815.922	-28.08
816.097	-32.92
816.272	-33.31
816.447	-35.96
816.622	-22.75
816.797	-17.36
816.972	-17.48
817.147	-12.29
817.322	-0.82
817.496	-4.63
817.671	-4.99
817.846	3.29
818.021	12.15
818.196	13.03
818.371	25.53
818.545	20.56
818.72	16.87
818.895	14.33
819.069	5
819.244	1.25
819.419	9.39
819.594	14.23
819.768	12.76
819.943	8.34
820.117	7.4
820.292	6.21
820.467	7.65
820.641	8.66
820.816	9.87
820.99	10.9
821.165	12.9
821.339	11.36
821.514	9.97
821.688	8.09
821.863	7.2
822.037	6.73
822.212	7.16
822.386	8.37
822.56	8.65
822.735	7.7
822.909	8.66
823.084	8.98
823.258	8.67
823.432	9.57
823.606	14.01
823.781	16.55
823.955	17.15
824.129	18.06
824.303	18.38
824.478	19.83
824.652	18.43
824.826	17.47
825	17.44
825.174	14.01
825.348	13.58
825.523	14.85
825.697	15.66
825.871	14.44
826.045	12.28
826.219	10.36
826.393	10.03
826.567	8.7
826.741	9.78
826.915	5.65
827.089	11.38
827.263	10.12
827.437	5.19
827.611	9.44
827.784	11.04
827.958	14.48
828.132	20.33
828.306	15.42
828.48	20.46
828.654	26.77
828.827	22.53
829.001	26.6
829.175	32.89
829.349	27.65
829.522	31.71
829.696	30.58
829.87	23.86
830.044	1.86
830.217	17.31
830.391	13.09
830.565	7.07
830.738	13.79
830.912	8.26
831.085	3.66
831.259	10.21
831.432	-3.5
831.606	-3.94
831.779	0.17
831.953	9.49
832.126	14.81
832.3	19.86
832.473	21.08
832.647	22.44
832.82	23.32
832.994	23.81
833.167	22.41
833.34	21.87
833.514	22.6
833.687	26.43
833.86	26.77
834.034	22.07
834.207	18.76
834.38	16.24
834.553	16.72
834.727	17.46
834.9	17.98
835.073	30.24
835.246	28.54
835.419	23.71
835.593	11.3
835.766	14.63
835.939	-0.82
836.112	-18.46
836.285	-13.99
836.458	1.87
836.631	-18.32
836.804	-12.21
836.977	-25.15
837.15	-16.34
837.323	-6.49
837.496	-7.25
837.669	0.61
837.842	20.41
838.015	28.84
838.188	20.86
838.361	20.48
838.533	13.1
838.706	2.62
838.879	-2.1
839.052	-9.13
839.225	-1.33
839.398	3.16
839.57	5.43
839.743	2.98
839.916	4.19
840.088	-4.61
840.261	-8.35
840.434	-12.84
840.607	-13.44
840.779	-23.23
840.952	-22.18
841.124	-24.83
841.297	-10.01
841.47	-75.88
841.642	-20.28
841.815	-14.29
841.987	2.84
842.16	-14.72
842.332	21.8
842.505	8.03
842.677	20.65
842.85	20.37
843.022	9.96
843.194	-35.76
843.367	-14.12
843.539	-61.79
843.712	-85.84
843.884	-81.5
844.056	-63.56
844.229	-104.65
844.401	-88.54
844.573	-138.03
844.745	-81.56
844.918	-165.84
845.09	-92.27
845.262	-11.08
845.434	18.3
845.606	-6.25
845.779	34.09
845.951	675
846.123	-335.29
846.295	140.82
846.467	-389.47
846.639	-204.35
846.811	156.82
846.983	46.67
847.155	-91.25
847.327	-28.3
847.499	18.25
847.671	33.64
847.843	-23.18
848.015	-13.04
848.187	61.22
848.359	37.9
848.531	5.54
848.703	-51
848.875	-124.2
849.047	-382.5
849.218	-1825
849.39	449.38
849.562	-4140
849.734	335.71
849.905	-328.57
850.077	409.46
850.249	298.57
850.421	-453.97
850.592	-60.16
850.764	-54.62
850.936	-52.37
851.107	-103.9
851.279	-32.63
851.451	-109.97
851.622	-286.03
851.794	-177.82
851.965	-347.24
852.137	-335.4
852.308	-5400
852.48	640.74
852.651	300
852.823	398.41
852.994	803.7
853.166	-2987.5
853.337	677.78
853.509	-49.25
853.68	-8975
853.851	-204.44
854.023	-96.5
854.194	-183.9
854.365	5.66
854.537	45.82
854.708	45.98
854.879	-25
855.05	-9.54
855.222	22.65
855.393	42.31
855.564	46.92
855.735	70.87
855.906	58.98
856.078	23.68
856.249	-17.75
856.42	-93.59
856.591	-152.07
856.762	1810.53
856.933	1453.85
857.104	617.33
857.275	-8550
857.446	-483.08
857.617	7666.67
857.788	-22350
857.959	-220.57
858.13	-777.55
858.301	-217.44
858.472	-225.56
858.643	-120.65
858.814	-152.44
858.985	-188.73
859.155	-406.77
859.326	-861.39
859.497	-306.87
859.668	-348.68
859.839	-612.5
860.009	-453.57
860.18	-322.87
860.351	-210.4
860.522	-96.18
860.692	-112.25
860.863	-137.46
861.034	-157.31
861.204	-125.82
861.375	-488.37
861.546	-204.24
861.716	-154.42
861.887	-111.9
862.057	-561.76
862.228	-1257.14
862.398	274.56
862.569	1260.78
862.739	1400
862.91	-444.57
863.08	-5828.57
863.251	1223.81
863.421	330.67
863.592	4250
863.762	481.82
863.932	-600
864.103	317.78
864.273	-108.42
864.443	-90.48
864.614	9.77
864.784	12.37
864.954	8.64
865.125	-38.63
865.295	-26.89
865.465	-44.25
865.635	-45.29
865.805	-61.25
865.976	-37.62
866.146	-31.43
866.316	-28.9
866.486	-15.23
866.656	-24.86
866.826	-7.01
866.996	28.02
867.166	-0.79
867.336	7.97
867.506	18.91
867.676	2.21
867.846	-7.32
868.016	20.65
868.186	4.24
868.356	-122.89
868.526	-202.02
868.696	2858.82
868.866	946.27
869.036	1629.63
869.206	-1429.73
869.376	2174.07
869.545	-2084
869.715	-2433.33
869.885	986.76
870.055	641.03
870.224	-226.29
870.394	-231.19
870.564	-212.4
870.734	-142.86
870.903	-69.44
871.073	-16.2
871.243	61.29
871.412	112.39
871.582	-2.17
871.751	359.09
871.921	64.56
872.091	64.11
872.26	22.12
872.43	60.89
872.599	98.91
872.769	101.54
872.938	179.2
873.108	182.59
873.277	449.19
873.446	-1984.62
873.616	179.57
873.785	26.46
873.955	78.21
874.124	33.47
874.293	49.48
874.463	-32.43
874.632	115.94
874.801	-10
874.971	63.09
875.14	65.57
875.309	75.56
875.478	174.73
875.647	136.63
875.817	256.02
875.986	247.22
876.155	-43400
876.324	-291.67
876.493	-140.57
876.662	-205.44
876.831	-5.76
877	10.06
877.17	35.91
877.339	88.13
877.508	138.38
877.677	0
877.846	-475
878.015	-150
878.184	-121.19
878.352	-1366.67
878.521	129.41
878.69	-10.46
878.859	-0.97
879.028	15.21
879.197	12.81
879.366	5.03
879.534	-6.78
879.703	1.31
879.872	1.91
880.041	-0.13
880.21	5.16
880.378	8.23
880.547	5.57
880.716	4.01
880.884	-5.08
881.053	-9.7
881.222	-11.02
881.39	-9.31
881.559	-3.93
881.727	1.24
881.896	1.96
882.065	-3.83
882.233	-6.13
882.402	-10.04
882.57	-12.22
882.739	-6.49
882.907	-8.56
883.076	-3.49
883.244	-10.06
883.412	-21.55
883.581	-22.88
883.749	-36.75
883.918	-43.25
884.086	-35.76
884.254	-33.92
884.423	-33.89
884.591	-10.01
884.759	4.01
884.927	8.28
885.096	14.09
885.264	19.7
885.432	0
885.6	26.37
885.769	32.21
885.937	16.34
886.105	12.32
886.273	25.97
886.441	9.63
886.609	8.04
886.777	6.82
886.945	8.07
887.113	5.32
887.281	4.71
887.449	8.89
887.617	-21.4
887.785	-32.33
887.953	-25.85
888.121	-115.87
888.289	-197.5
888.457	-488.46
888.625	-340.48
888.793	671.05
888.961	-696.88
889.129	-1550
889.296	-342.19
889.464	-169.23
889.632	-60
889.8	-23.15
889.967	-7.08
890.135	15.68
