Data from JASIL_2998_Reflection_02.txt Node
Date: Mon Nov 09 09:57:56 EST 2015
User: Geneva
Spectrometer: USB4E03002
Autoset integration time: false
Trigger mode: 4
Integration Time (sec): 1.000000E-1
Scans to average: 10
Electric dark correction enabled: false
Nonlinearity correction enabled: false
Boxcar width: 5
Stray light correction enabled: false
XAxis mode: Wavelengths
Stop averaging: false
Number of Pixels in Spectrum: 3648
>>>>>Begin Spectral Data<<<<<
177.575	54.76
177.794	42.65
178.014	40.34
178.233	25.03
178.452	24.71
178.672	22.93
178.891	13.23
179.11	-8.97
179.33	-39.15
179.549	-62.61
179.768	-106.9
179.987	-46.01
180.207	-11.04
180.426	-22.55
180.645	-17.29
180.864	-1.41
181.084	20.97
181.303	6.39
181.522	-13
181.741	-2.93
181.96	5.87
182.179	24.7
182.398	1.88
182.618	22.75
182.837	32.31
183.056	55.19
183.275	21.75
183.494	23.9
183.713	35.82
183.932	47.52
184.151	54.27
184.37	21.36
184.589	4.4
184.808	7.22
185.027	-16.55
185.246	-49.73
185.465	-43.62
185.684	-13.38
185.903	-39.77
186.122	-33.33
186.341	-63.9
186.56	-170.48
186.779	-70.5
186.998	-44.34
187.216	-31.28
187.435	-27.21
187.654	-6.37
187.873	-8.58
188.092	-41.18
188.311	-33.22
188.53	-104.34
188.748	-36.38
188.967	-45.21
189.186	-47.83
189.405	-63.44
189.623	-47.35
189.842	-40.71
190.061	-56.41
190.28	-122.55
190.498	-161.35
190.717	-122.63
190.936	-74.55
191.154	-163.93
191.373	-10.93
191.592	-74.72
191.81	-25.84
192.029	-168.28
192.248	-321.62
192.466	-144.8
192.685	-113.33
192.904	-51.1
193.122	-90.23
193.341	-170.04
193.559	-258.94
193.778	-372.19
193.996	-175.29
194.215	-191.29
194.433	-130.13
194.652	-72.36
194.87	-107.22
195.089	-146.56
195.307	-231.75
195.526	-148.2
195.744	-126.55
195.963	-62.22
196.181	-86.26
196.399	-115.58
196.618	-138.16
196.836	-156.81
197.055	-156.38
197.273	-119.08
197.491	-112.99
197.71	-68.32
197.928	-74.83
198.146	-82.23
198.365	-165.16
198.583	-92
198.801	-101.6
199.019	-107.59
199.238	-120.6
199.456	-139.2
199.674	-132.27
199.892	-87.96
200.111	-178.46
200.329	-204.26
200.547	-112.61
200.765	-80.17
200.983	-145.9
201.202	-231.3
201.42	-259.66
201.638	-119.4
201.856	-271.83
202.074	321.62
202.292	-43.9
202.51	67
202.728	44.84
202.946	77.27
203.165	43.68
203.383	22.58
203.601	-41.96
203.819	13.37
204.037	-8.2
204.255	-2.41
204.473	-43.82
204.691	-66.94
204.909	-102.8
205.127	-41.28
205.345	-74.67
205.562	-351.69
205.78	-79.69
205.998	-22.87
206.216	-25.93
206.434	-77.44
206.652	-87.54
206.87	-51.05
207.088	-134.82
207.306	-133.87
207.523	-218.68
207.741	-88.96
207.959	-27.2
208.177	-106.72
208.395	-72.79
208.612	-61.82
208.83	-19.64
209.048	22.82
209.266	-7.29
209.483	26.21
209.701	68.38
209.919	47.84
210.136	-61.79
210.354	-57.1
210.572	-46.44
210.79	-59.59
211.007	-8.79
211.225	10.26
211.442	4.02
211.66	18.59
211.878	7.63
212.095	58.62
212.313	67.12
212.53	66.78
212.748	74.77
212.966	73.46
213.183	67.77
213.401	55.68
213.618	50.28
213.836	48.31
214.053	41.21
214.271	38.69
214.488	9.12
214.705	8.45
214.923	2.22
215.14	-18.48
215.358	-37.14
215.575	-15.37
215.793	-19.15
216.01	-4.39
216.227	0.67
216.445	15.12
216.662	10.89
216.879	-18.68
217.097	-37.63
217.314	-13.51
217.531	-68.02
217.749	-51.11
217.966	-42.91
218.183	-56.39
218.4	-226.51
218.618	-196
218.835	-147.25
219.052	-465.71
219.269	-1017.54
219.487	-411.11
219.704	-1200
219.921	1259.65
220.138	1684.62
220.355	1093.15
220.572	0
220.79	-2248.48
221.007	-440.91
221.224	-355.15
221.441	-109.75
221.658	-146.03
221.875	-99.6
222.092	-41.96
222.309	-19.76
222.526	3.66
222.743	7.88
222.96	16.55
223.177	-4.28
223.394	-29.86
223.611	-59.96
223.828	-127.74
224.045	-81.86
224.262	-42.54
224.479	-66.67
224.696	-70.47
224.913	-99.37
225.13	-117.35
225.347	-116.53
225.564	-75.04
225.781	-57.42
225.997	-45.05
226.214	-32.79
226.431	-31.9
226.648	-53.42
226.865	-38.58
227.082	-38.68
227.298	-43.03
227.515	-37.43
227.732	-38.95
227.949	-42.55
228.165	-32.88
228.382	-24.5
228.599	-25.65
228.816	-25.69
229.032	-31.13
229.249	-24.51
229.466	-24.69
229.682	-25.69
229.899	-21.58
230.116	-20.41
230.332	-16.5
230.549	-23.43
230.765	-70.53
230.982	-46.82
231.199	-29.17
231.415	7.16
231.632	-11.26
231.848	-13.53
232.065	6.4
232.281	-1.75
232.498	10.7
232.714	13.19
232.931	15.37
233.147	28.9
233.364	28.64
233.58	9.73
233.797	-8.47
234.013	-15.43
234.23	-14.67
234.446	-5.8
234.662	5.51
234.879	-3.18
235.095	-3.51
235.312	-8.67
235.528	-28.2
235.744	-29.48
235.961	-23.55
236.177	-20.18
236.393	-12.27
236.61	-14.85
236.826	-24.43
237.042	-17.84
237.258	-16.97
237.475	-9.43
237.691	-9.73
237.907	3.75
238.123	-11.6
238.339	-16.46
238.556	-17.4
238.772	-23.25
238.988	-10.37
239.204	-12.91
239.42	-20.31
239.636	-4.77
239.853	-2.38
240.069	-3.1
240.285	-4.24
240.501	5.78
240.717	6.55
240.933	11.67
241.149	9.48
241.365	7.76
241.581	5.92
241.797	7.04
242.013	1.95
242.229	-0.09
242.445	3.93
242.661	6.06
242.877	1.83
243.093	-5.03
243.309	-9.71
243.525	-13.56
243.741	-12.57
243.957	-7.25
244.173	-8.72
244.388	-6.09
244.604	-6.65
244.82	-5.47
245.036	-4.7
245.252	-2.25
245.468	2.61
245.683	1.39
245.899	5.15
246.115	3.04
246.331	0.91
246.547	-0.05
246.762	1.62
246.978	1.25
247.194	-2
247.409	-2.43
247.625	-5.76
247.841	-7.5
248.057	-8.1
248.272	-6.78
248.488	1.88
248.703	5.06
248.919	5.88
249.135	-2.43
249.35	1.44
249.566	6.85
249.782	6.37
249.997	12.55
250.213	12.66
250.428	12.72
250.644	8
250.859	3.47
251.075	3.73
251.29	0.76
251.506	7.07
251.721	2.33
251.937	1.48
252.152	0.76
252.368	1.88
252.583	5.04
252.798	9.88
253.014	20.06
253.229	21.59
253.445	21.03
253.66	19.87
253.875	11.28
254.091	17.34
254.306	15.32
254.521	21.87
254.737	21.27
254.952	16.18
255.167	8.87
255.383	4.37
255.598	2.25
255.813	6.61
256.028	7.57
256.244	8.58
256.459	7.15
256.674	7.46
256.889	5.36
257.104	1.14
257.32	3.89
257.535	6.76
257.75	5.27
257.965	5.43
258.18	5.48
258.395	5.91
258.61	6.07
258.826	5.61
259.041	6.57
259.256	3.34
259.471	5.11
259.686	6.63
259.901	4.52
260.116	5.93
260.331	6.15
260.546	6.12
260.761	6.61
260.976	6.83
261.191	6.82
261.406	2.91
261.621	6.33
261.836	2.86
262.05	-3.03
262.265	0.5
262.48	-1.49
262.695	-2.61
262.91	-3.8
263.125	-3.09
263.34	-3.74
263.555	-2.34
263.769	0.26
263.984	2.7
264.199	1.02
264.414	2.6
264.629	3.27
264.843	3.79
265.058	2
265.273	0.75
265.488	1.23
265.702	1.31
265.917	1.77
266.132	1.56
266.346	-1.75
266.561	1.76
266.776	2.52
266.99	1.54
267.205	2.14
267.42	4.12
267.634	2.19
267.849	-0.02
268.063	5.76
268.278	2.58
268.492	3.46
268.707	5.16
268.922	7.67
269.136	2.53
269.351	-0.51
269.565	-2.3
269.78	-0.55
269.994	1.62
270.209	4.04
270.423	-2.54
270.637	-1.7
270.852	-1.26
271.066	2.08
271.281	-1.1
271.495	1.29
271.709	2.79
271.924	1.96
272.138	3.35
272.353	2.59
272.567	0.5
272.781	2.89
272.996	5.05
273.21	4.3
273.424	-0.26
273.638	-4.41
273.853	-2.54
274.067	-0.53
274.281	-0.4
274.495	-4.71
274.71	-4.47
274.924	-2.96
275.138	-1.68
275.352	-3.38
275.566	-5.46
275.781	-4.13
275.995	2.47
276.209	1.6
276.423	-0.08
276.637	0.96
276.851	0.66
277.065	-0.6
277.279	-1.99
277.493	-3.25
277.707	-3.96
277.921	-2.78
278.135	-3.3
278.349	-8.99
278.563	-10.01
278.777	-11.34
278.991	-9.59
279.205	-7.59
279.419	-9.59
279.633	-9.41
279.847	-11.68
280.061	-12.71
280.275	-9.19
280.489	-7.94
280.703	-7.98
280.917	-5.82
281.131	-3.66
281.344	-2.68
281.558	-3.22
281.772	0.42
281.986	1.38
282.2	2.74
282.414	4.29
282.627	2.6
282.841	2.64
283.055	4.34
283.269	4.52
283.482	2.85
283.696	2.17
283.91	2.52
284.123	-0.74
284.337	1.34
284.551	2.83
284.764	4.53
284.978	7.85
285.192	8.38
285.405	9.3
285.619	6.69
285.833	8.95
286.046	7.33
286.26	5.89
286.473	9.63
286.687	7.01
286.9	8.44
287.114	6.16
287.327	2.53
287.541	0.05
287.754	-1.51
287.968	1.41
288.181	-2.64
288.395	-3.1
288.608	-3.61
288.822	-2.58
289.035	-2.33
289.248	-3.88
289.462	-5.93
289.675	-5.49
289.889	-7.14
290.102	-3.59
290.315	-2.31
290.529	-2.18
290.742	0.1
290.955	2.15
291.169	0.86
291.382	-0.16
291.595	-2.05
291.808	1.15
292.022	2.64
292.235	7
292.448	5.91
292.661	4.77
292.875	4.34
293.088	3.99
293.301	6.77
293.514	4.49
293.727	4.54
293.94	4.69
294.153	3.44
294.367	0.6
294.58	0.15
294.793	-2.66
295.006	-5.43
295.219	-0.65
295.432	-2.03
295.645	-3.22
295.858	-2.09
296.071	-2.01
296.284	-1.38
296.497	-0.94
296.71	1.22
296.923	0.23
297.136	2.47
297.349	5.07
297.562	4.26
297.775	5.14
297.988	6.01
298.201	6.92
298.414	8.33
298.626	10.25
298.839	9.5
299.052	9.33
299.265	12.32
299.478	11.03
299.691	10.18
299.903	10.26
300.116	7.63
300.329	5.79
300.542	5.49
300.755	5.3
300.967	3.23
301.18	2.88
301.393	0.46
301.605	-1.29
301.818	-3.15
302.031	-1.55
302.243	-2.32
302.456	0.35
302.669	2.35
302.881	1.75
303.094	0.88
303.307	1.67
303.519	0.99
303.732	3.23
303.944	-0.15
304.157	2.39
304.37	-0.09
304.582	-2.66
304.795	-2.37
305.007	-2.76
305.22	-2.37
305.432	-2.75
305.645	-3.08
305.857	-0.66
306.069	-0.52
306.282	4.26
306.494	4.43
306.707	3.79
306.919	6.63
307.132	5.24
307.344	2.23
307.556	-0.17
307.769	1.22
307.981	1.27
308.193	-0.05
308.406	-0.86
308.618	-0.07
308.83	3.32
309.043	8.32
309.255	9.2
309.467	10.26
309.679	11.46
309.892	14.63
310.104	16.2
310.316	16.9
310.528	19.5
310.74	18.86
310.953	18.03
311.165	16.33
311.377	12.55
311.589	11.4
311.801	11.78
312.013	11.75
312.225	10.98
312.437	9.74
312.649	7.54
312.862	5.91
313.074	5.01
313.286	5.67
313.498	4.31
313.71	4.07
313.922	5.78
314.134	6.31
314.346	6.98
314.558	5.61
314.77	5.38
314.982	7.92
315.193	8.56
315.405	8.36
315.617	7.34
315.829	8.13
316.041	8.23
316.253	6.69
316.465	1.91
316.677	0.81
316.888	2.03
317.1	-0.54
317.312	0.14
317.524	-0.15
317.736	4.46
317.947	4.65
318.159	0.76
318.371	2.07
318.583	-1.6
318.794	0.11
319.006	-0.1
319.218	-0.98
319.43	2.14
319.641	1.66
319.853	-1.46
320.064	-5.42
320.276	-7.01
320.488	-3.64
320.699	-4.2
320.911	0.43
321.123	4.57
321.334	2.64
321.546	0.06
321.757	-2.85
321.969	-3.58
322.18	0.35
322.392	3.82
322.603	2.87
322.815	5.75
323.026	8.12
323.238	5.96
323.449	3.07
323.661	4.28
323.872	5.9
324.083	8.1
324.295	8.34
324.506	7.36
324.718	6.71
324.929	6.28
325.14	3.8
325.352	2.42
325.563	4.35
325.774	6.59
325.986	7.32
326.197	8
326.408	4.21
326.62	1.4
326.831	3.74
327.042	1.81
327.253	4.93
327.464	5.35
327.676	6.73
327.887	5.37
328.098	4.34
328.309	6.38
328.52	5.76
328.732	8.97
328.943	10.62
329.154	6.31
329.365	4.19
329.576	2.46
329.787	4.76
329.998	3.99
330.209	4.16
330.42	3.6
330.631	-0.51
330.842	1.74
331.053	3.66
331.264	6.51
331.475	9.64
331.686	12.74
331.897	15.26
332.108	13.7
332.319	13.92
332.53	13.51
332.741	14.07
332.952	16.69
333.163	15.77
333.374	15.42
333.585	13.27
333.795	13.71
334.006	15.82
334.217	15.89
334.428	17.24
334.639	16.15
334.849	17.14
335.06	19.23
335.271	18.89
335.482	18.71
335.692	18.43
335.903	20.12
336.114	18.86
336.325	18.53
336.535	16.33
336.746	16.36
336.957	16.21
337.167	16.81
337.378	15.43
337.589	18.01
337.799	17.45
338.01	16.5
338.22	15.05
338.431	13.01
338.642	11.12
338.852	10.47
339.063	9.65
339.273	15.35
339.484	14.53
339.694	13.17
339.905	9.94
340.115	12.17
340.326	10.48
340.536	9.85
340.746	12.32
340.957	12.7
341.167	14.97
341.378	14
341.588	10.07
341.799	10.99
342.009	13.28
342.219	12.45
342.43	11.61
342.64	13.41
342.85	15.78
343.061	15.31
343.271	15.78
343.481	14.3
343.691	13.73
343.902	14.65
344.112	12.79
344.322	10.54
344.532	11.69
344.743	11.08
344.953	11.32
345.163	8.35
345.373	9.27
345.583	8.06
345.793	7.12
346.004	8.67
346.214	8.97
346.424	9.61
346.634	11.08
346.844	11.95
347.054	11.68
347.264	11.83
347.474	13.03
347.684	13.35
347.894	16.21
348.104	19.48
348.314	20.79
348.524	18.32
348.734	19.08
348.944	18.12
349.154	17.51
349.364	18.73
349.574	17.74
349.784	17.64
349.994	18.84
350.204	16.1
350.413	14.1
350.623	14.51
350.833	15.86
351.043	13.83
351.253	15.14
351.463	14.43
351.672	14.24
351.882	15.56
352.092	15.17
352.302	12.62
352.511	14.18
352.721	14.91
352.931	13.54
353.141	11.27
353.35	14.62
353.56	14.71
353.77	12.76
353.979	13.31
354.189	14.97
354.399	16.27
354.608	18
354.818	16.22
355.027	15.82
355.237	16.15
355.447	18.85
355.656	16.73
355.866	15.48
356.075	16.38
356.285	15.58
356.494	11.43
356.704	11.2
356.913	8.82
357.123	9.2
357.332	9.55
357.542	8.54
357.751	8.03
357.96	9.05
358.17	10.2
358.379	10.94
358.589	11.03
358.798	12.41
359.007	13.57
359.217	13.06
359.426	13.87
359.635	12.44
359.845	13.08
360.054	11.7
360.263	11.96
360.472	12.25
360.682	12.16
360.891	12.53
361.1	13.78
361.309	11.83
361.519	12.68
361.728	12.56
361.937	13.99
362.146	14.71
362.355	16.23
362.564	14.58
362.774	14.06
362.983	14.89
363.192	14.83
363.401	14.85
363.61	16.17
363.819	16.28
364.028	15.07
364.237	14.62
364.446	14.64
364.655	13.16
364.864	15.49
365.073	15.24
365.282	13.53
365.491	14.41
365.7	14.71
365.909	13.5
366.118	13.04
366.327	13.59
366.536	14.23
366.745	13.98
366.954	14.87
367.162	14.62
367.371	13.32
367.58	15.26
367.789	13.32
367.998	12.72
368.207	15.25
368.415	16.04
368.624	14.94
368.833	15.2
369.042	13.71
369.25	14.42
369.459	14.05
369.668	15.52
369.877	14.82
370.085	14.39
370.294	14.23
370.503	11.98
370.711	12.68
370.92	13.58
371.129	14.22
371.337	13.69
371.546	13.58
371.754	13.68
371.963	12.97
372.171	13.11
372.38	14.55
372.589	13.19
372.797	12.2
373.006	11.49
373.214	11.68
373.423	11.3
373.631	12.73
373.84	11.67
374.048	11.37
374.256	12.17
374.465	12.43
374.673	11.5
374.882	13.23
375.09	15.03
375.298	14.59
375.507	15.74
375.715	15.06
375.923	14.72
376.132	13.97
376.34	13.66
376.548	14.38
376.757	13.61
376.965	13.38
377.173	13.56
377.381	12.48
377.59	13.62
377.798	12.92
378.006	12
378.214	11.16
378.423	13.56
378.631	14.1
378.839	12.75
379.047	12.79
379.255	13.38
379.463	13.03
379.671	12.4
379.879	11
380.088	10.69
380.296	9.01
380.504	10.04
380.712	8.11
380.92	7.93
381.128	8.1
381.336	8.64
381.544	9.68
381.752	9.02
381.96	10.22
382.168	11.56
382.376	11.42
382.584	12.99
382.791	12.72
382.999	13.85
383.207	14.19
383.415	13.88
383.623	13.45
383.831	13.72
384.039	13.19
384.247	13.52
384.454	12.33
384.662	12.77
384.87	12.98
385.078	12.61
385.285	12.51
385.493	10.82
385.701	11.08
385.909	11.26
386.116	10.61
386.324	11.22
386.532	11.27
386.739	11.58
386.947	11.17
387.155	11.75
387.362	13.02
387.57	11.74
387.778	13.42
387.985	13.45
388.193	12.64
388.4	12.02
388.608	12.77
388.816	11.96
389.023	11.72
389.231	12.09
389.438	12.63
389.646	12.68
389.853	13.65
390.061	12.83
390.268	12.24
390.475	12.85
390.683	11.91
390.89	12.16
391.098	12.85
391.305	13.51
391.512	13.53
391.72	13.2
391.927	11.36
392.135	11.03
392.342	12.04
392.549	13
392.756	12.99
392.964	13.82
393.171	13.1
393.378	12.14
393.586	11.58
393.793	11.37
394	10.92
394.207	12.69
394.414	12.83
394.622	11.57
394.829	10.5
395.036	10.01
395.243	10.54
395.45	11.79
395.657	11.59
395.864	10.9
396.072	10.75
396.279	11.49
396.486	9.82
396.693	10.19
396.9	10.66
397.107	11.93
397.314	12.47
397.521	12.35
397.728	11.08
397.935	11.41
398.142	12.93
398.349	12.13
398.556	10.79
398.763	11.65
398.97	10.97
399.177	11.16
399.383	11.16
399.59	10.66
399.797	9.61
400.004	9.88
400.211	9.89
400.418	8.66
400.625	9.8
400.831	10.74
401.038	9.6
401.245	8.94
401.452	9.05
401.658	9.35
401.865	10.17
402.072	11.19
402.279	9.84
402.485	9.86
402.692	9.44
402.899	9.94
403.105	9.08
403.312	9.71
403.519	10.11
403.725	10.95
403.932	10.32
404.138	11.22
404.345	10.88
404.552	12.17
404.758	13.01
404.965	14.16
405.171	13.55
405.378	14.75
405.584	15.66
405.791	16.54
405.997	16.09
406.204	15.46
406.41	13.5
406.617	13.41
406.823	12.37
407.029	12.6
407.236	11.82
407.442	12.65
407.649	12.12
407.855	11.34
408.061	11.22
408.268	11.31
408.474	11.33
408.68	13.1
408.887	13.22
409.093	14.6
409.299	14.72
409.505	15.17
409.712	14.54
409.918	14.33
410.124	15.06
410.33	15.26
410.537	15.5
410.743	15.68
410.949	14.57
411.155	15.05
411.361	15.34
411.567	14.66
411.773	14.98
411.98	15.44
412.186	16.58
412.392	15.37
412.598	14.92
412.804	13.5
413.01	14.44
413.216	15.52
413.422	14.87
413.628	13.84
413.834	13.99
414.04	13.9
414.246	13.99
414.452	13.13
414.658	13.75
414.864	14.4
415.07	14.7
415.275	14.54
415.481	14.92
415.687	14.95
415.893	15.16
416.099	15.1
416.305	14.85
416.511	14.33
416.716	14.13
416.922	14.65
417.128	14.02
417.334	13.96
417.539	14.06
417.745	13.69
417.951	13.45
418.157	13.77
418.362	13.73
418.568	13.03
418.774	13.05
418.979	13.51
419.185	13.05
419.391	13.01
419.596	13.39
419.802	13.34
420.008	13.02
420.213	8.97
420.419	8.79
420.624	8.09
420.83	8.55
421.035	8.75
421.241	8.31
421.446	7.91
421.652	7.7
421.857	7.13
422.063	6.92
422.268	6.76
422.474	10.5
422.679	10.17
422.885	10.29
423.09	10.45
423.295	10.59
423.501	10.35
423.706	10.31
423.911	10.44
424.117	10.68
424.322	11.14
424.527	10.89
424.733	11.08
424.938	10.88
425.143	11.09
425.349	10.75
425.554	10.48
425.759	10.47
425.964	10.91
426.169	10.5
426.375	10.36
426.58	9.52
426.785	9.03
426.99	8.73
427.195	9.61
427.4	10.27
427.605	10.32
427.811	10.46
428.016	10.5
428.221	10.92
428.426	11.67
428.631	11.99
428.836	12.35
429.041	13.44
429.246	14.39
429.451	13.76
429.656	13.29
429.861	13.34
430.066	12.65
430.271	13.61
430.476	13.29
430.681	13.21
430.886	13.58
431.09	13.25
431.295	12.67
431.5	12.42
431.705	12.79
431.91	13.2
432.115	12.94
432.32	13.59
432.524	13.05
432.729	13.17
432.934	12.76
433.139	12.35
433.343	12.4
433.548	13.06
433.753	13.15
433.958	12.85
434.162	13.18
434.367	13.15
434.572	12.42
434.776	12.42
434.981	11.67
435.186	11.32
435.39	11.52
435.595	11.84
435.799	11.1
436.004	11.64
436.209	12.27
436.413	11.52
436.618	11.84
436.822	11.96
437.027	11.76
437.231	11.66
437.436	12.69
437.64	12.23
437.845	11.8
438.049	12.36
438.253	11.95
438.458	11.22
438.662	11.14
438.867	11.07
439.071	10.76
439.275	10.91
439.48	11.04
439.684	10.49
439.888	10.88
440.093	10.93
440.297	10.6
440.501	10.73
440.706	10.78
440.91	10.69
441.114	10.46
441.318	11.02
441.523	10.9
441.727	11.24
441.931	11.41
442.135	11.22
442.339	11.02
442.543	11.77
442.748	11.3
442.952	11.42
443.156	11.26
443.36	11.72
443.564	11.7
443.768	11.69
443.972	10.99
444.176	11.26
444.38	11
444.584	11.56
444.788	10.92
444.992	11.48
445.196	11.43
445.4	11.99
445.604	11.96
445.808	11.64
446.012	12
446.216	12.65
446.42	12.44
446.624	12.47
446.828	12.23
447.032	12.63
447.235	12.34
447.439	12.37
447.643	12.36
447.847	12.23
448.051	12.21
448.254	12.29
448.458	12.3
448.662	12.85
448.866	13.04
449.069	13.39
449.273	12.83
449.477	13.1
449.681	13.48
449.884	13.11
450.088	12.78
450.292	13.49
450.495	13.7
450.699	13.79
450.902	13.84
451.106	14.09
451.31	13.92
451.513	14.29
451.717	14.08
451.92	13.57
452.124	13.71
452.327	14.06
452.531	13.35
452.734	12.67
452.938	12.82
453.141	12.02
453.345	11.48
453.548	11.12
453.752	11.32
453.955	10.94
454.158	10.87
454.362	11.21
454.565	11.49
454.769	12.31
454.972	12.35
455.175	11.46
455.379	11.56
455.582	12.04
455.785	12.6
455.988	11.26
456.192	11.52
456.395	11.69
456.598	11.16
456.801	10.3
457.005	10.38
457.208	9.76
457.411	9.98
457.614	9.72
457.817	9.41
458.021	9.04
458.224	9.91
458.427	9.53
458.63	9.94
458.833	10.1
459.036	10.39
459.239	9.84
459.442	10.61
459.645	10.94
459.848	11.17
460.051	11.35
460.254	11.9
460.457	11.74
460.66	12.11
460.863	11.67
461.066	11.89
461.269	11.97
461.472	12.7
461.675	11.98
461.878	12.06
462.081	12.13
462.284	11.94
462.486	11.65
462.689	11.65
462.892	11.75
463.095	12.48
463.298	12.28
463.5	12.61
463.703	12.57
463.906	13.22
464.109	13.48
464.311	13.57
464.514	13.47
464.717	13.18
464.92	13.46
465.122	13.18
465.325	12.72
465.528	12.52
465.73	12.5
465.933	11.88
466.135	11.1
466.338	10.37
466.541	11.2
466.743	11.97
466.946	12.12
467.148	11.67
467.351	12.56
467.553	12.15
467.756	12.3
467.958	11.96
468.161	12.3
468.363	12.44
468.566	12.15
468.768	11.02
468.971	11
469.173	10.96
469.375	10.96
469.578	10.24
469.78	10.79
469.983	10.48
470.185	10.19
470.387	9.78
470.59	10.26
470.792	10.72
470.994	11.09
471.196	10.85
471.399	10.86
471.601	11.79
471.803	11.88
472.005	11.67
472.208	11.93
472.41	12.48
472.612	13.46
472.814	12.99
473.016	12.9
473.218	12.96
473.421	13.13
473.623	12.59
473.825	12.27
474.027	11.93
474.229	11.41
474.431	11.48
474.633	10.66
474.835	10.23
475.037	11.31
475.239	11.21
475.441	11.1
475.643	10.44
475.845	10.78
476.047	10.69
476.249	11.32
476.451	11.66
476.653	11.35
476.855	12.47
477.057	12.22
477.258	11.98
477.46	12.85
477.662	12.88
477.864	13.63
478.066	13.68
478.268	13.5
478.469	13.69
478.671	14.17
478.873	14.35
479.075	13.65
479.276	13.64
479.478	13.33
479.68	12.89
479.882	12.98
480.083	12.47
480.285	12.71
480.487	12.61
480.688	11.75
480.89	11.22
481.091	11.23
481.293	11.24
481.495	11.03
481.696	11.14
481.898	10.9
482.099	10.8
482.301	10.92
482.502	10.7
482.704	10.79
482.905	11.03
483.107	11.18
483.308	11.2
483.51	11.19
483.711	11.31
483.913	11.32
484.114	11.4
484.315	11.33
484.517	11.16
484.718	11.22
484.92	10.96
485.121	10.78
485.322	10.64
485.524	10.85
485.725	10.71
485.926	10.65
486.127	10.52
486.329	10.39
486.53	10.64
486.731	10.76
486.932	10.94
487.134	11.18
487.335	11.27
487.536	11.34
487.737	11.09
487.938	11.24
488.139	11.48
488.341	11.47
488.542	11.82
488.743	11.63
488.944	11.42
489.145	11.18
489.346	11.18
489.547	11.28
489.748	11.52
489.949	11.55
490.15	11.64
490.351	11.48
490.552	11.56
490.753	11.41
490.954	11.17
491.155	11.45
491.356	11.55
491.557	11.61
491.758	11.76
491.959	11.46
492.159	11.37
492.36	11.39
492.561	11.54
492.762	11.79
492.963	11.83
493.164	12.52
493.364	13.02
493.565	13.4
493.766	13.29
493.967	13.21
494.167	13.36
494.368	13.84
494.569	14.19
494.769	13.97
494.97	13.8
495.171	14.07
495.371	13.43
495.572	12.69
495.773	12.43
495.973	12.57
496.174	12.72
496.375	12.76
496.575	12.77
496.776	12.71
496.976	13.07
497.177	12.87
497.377	12.79
497.578	12.81
497.778	12.73
497.979	12.69
498.179	12.43
498.38	12.38
498.58	12.34
498.78	12.36
498.981	11.7
499.181	11.37
499.382	11.45
499.582	11.19
499.782	11.75
499.983	12.11
500.183	12.05
500.383	12.31
500.584	12.07
500.784	12.42
500.984	11.86
501.184	12.56
501.385	12.59
501.585	12.74
501.785	12.9
501.985	12.64
502.185	12.56
502.386	12.78
502.586	13.16
502.786	13.23
502.986	13.28
503.186	13.62
503.386	13.56
503.586	13.71
503.786	13.76
503.987	13.99
504.187	14.41
504.387	14.64
504.587	14.23
504.787	14.1
504.987	14.19
505.187	14.05
505.387	13.84
505.587	13.14
505.786	12.91
505.986	13.31
506.186	13.18
506.386	12.65
506.586	12.97
506.786	13.76
506.986	14.05
507.186	14.36
507.386	14.53
507.585	15.23
507.785	15.74
507.985	16.38
508.185	16.17
508.384	16.14
508.584	16.61
508.784	16.36
508.984	16.19
509.183	15.7
509.383	15.06
509.583	15.49
509.782	14.85
509.982	15.12
510.182	14.73
510.381	14.51
510.581	14.96
510.781	14.83
510.98	14.89
511.18	15
511.379	14.96
511.579	15.04
511.778	14.72
511.978	15.47
512.177	15.66
512.377	15.79
512.576	16.29
512.776	16.34
512.975	16.6
513.175	16.65
513.374	16.66
513.573	17.35
513.773	18.17
513.972	18.13
514.172	18.01
514.371	17.69
514.57	17.54
514.77	17.61
514.969	16.82
515.168	16.8
515.367	16.9
515.567	16.94
515.766	16.36
515.965	16.16
516.164	16.28
516.364	16.33
516.563	16.4
516.762	16.65
516.961	16.71
517.16	17.52
517.359	17.41
517.559	17.49
517.758	17.73
517.957	18.02
518.156	17.99
518.355	17.91
518.554	17.59
518.753	17.75
518.952	18.03
519.151	17.88
519.35	17.43
519.549	17.54
519.748	17.65
519.947	17.57
520.146	17.53
520.345	17.69
520.544	18
520.743	17.82
520.942	17.76
521.141	17.69
521.339	18.01
521.538	18.14
521.737	18.38
521.936	18.31
522.135	18.27
522.333	18.24
522.532	18.44
522.731	18.37
522.93	19.19
523.129	19.19
523.327	19.27
523.526	18.61
523.725	18.63
523.923	18.61
524.122	18.81
524.321	19.08
524.519	19.22
524.718	19.26
524.917	19.12
525.115	18.72
525.314	18.69
525.512	18.83
525.711	19.26
525.909	19.47
526.108	19.61
526.306	19.38
526.505	19.2
526.703	19.1
526.902	18.94
527.1	19.04
527.299	19.17
527.497	19.4
527.696	19.13
527.894	19.15
528.092	19.02
528.291	18.86
528.489	19.1
528.688	19.23
528.886	19.37
529.084	19.5
529.283	19.45
529.481	19.52
529.679	19.26
529.877	19.72
530.076	19.96
530.274	20.24
530.472	20.48
530.67	20.52
530.869	20.62
531.067	20.37
531.265	20.47
531.463	20.57
531.661	20.48
531.859	20.76
532.057	20.65
532.255	20.19
532.454	20.21
532.652	20.44
532.85	20.21
533.048	20.14
533.246	20.44
533.444	20.61
533.642	20.68
533.84	20.97
534.038	21.26
534.236	21.11
534.434	21.54
534.632	21.5
534.83	21.39
535.027	21.66
535.225	21.56
535.423	21.69
535.621	21.46
535.819	21.46
536.017	21.43
536.215	21.33
536.412	21.11
536.61	21.7
536.808	21.84
537.006	22.01
537.203	21.81
537.401	22.29
537.599	22.11
537.797	22.46
537.994	22.91
538.192	22.77
538.39	22.7
538.587	23.18
538.785	22.68
538.983	22.89
539.18	22.73
539.378	22.63
539.575	22.33
539.773	22.46
539.97	22.36
540.168	22.19
540.366	22.26
540.563	22.09
540.761	22.08
540.958	22.04
541.155	21.74
541.353	21.58
541.55	22.07
541.748	22.19
541.945	22.18
542.143	22.13
542.34	22.28
542.537	22.24
542.735	22.45
542.932	22.64
543.129	22.57
543.327	22.92
543.524	23.41
543.721	23.09
543.919	23
544.116	23.28
544.313	23.32
544.51	23.22
544.708	23.3
544.905	23.43
545.102	23.42
545.299	23.73
545.496	24.25
545.693	24.33
545.891	24.54
546.088	24.69
546.285	24.67
546.482	24.96
546.679	25.21
546.876	25.54
547.073	25.29
547.27	25.52
547.467	26.01
547.664	25.61
547.861	25.26
548.058	25.14
548.255	25.21
548.452	24.97
548.649	25.16
548.846	25.36
549.043	25.89
549.24	26.65
549.437	26.64
549.633	26.46
549.83	26.26
550.027	26.77
550.224	27.27
550.421	27.48
550.618	28.02
550.814	27.26
551.011	27.07
551.208	26.59
551.405	26.29
551.601	26.96
551.798	26.64
551.995	27.02
552.191	26.67
552.388	25.88
552.585	26.19
552.781	25.65
552.978	26.31
553.175	26.62
553.371	26.85
553.568	27.79
553.764	27.24
553.961	27.84
554.157	27.68
554.354	27.93
554.55	28.63
554.747	28.57
554.943	29.5
555.14	29.82
555.336	29.58
555.533	29.22
555.729	28.53
555.926	28.16
556.122	28.28
556.318	28.2
556.515	28.8
556.711	28.74
556.907	28.63
557.104	28.65
557.3	28.54
557.496	28.87
557.693	29.93
557.889	30.06
558.085	30.57
558.281	30.62
558.478	30.79
558.674	30.91
558.87	31.86
559.066	31.72
559.262	31.25
559.459	31.07
559.655	31.72
559.851	30.78
560.047	31
560.243	30.59
560.439	29.98
560.635	29.88
560.831	29.45
561.027	28.63
561.223	29.05
561.419	29.48
561.615	29.88
561.811	29.92
562.007	30.19
562.203	29.75
562.399	30.67
562.595	31.08
562.791	31.55
562.987	31.73
563.183	32.32
563.379	32.58
563.575	32.19
563.771	32.1
563.966	31.48
564.162	31.48
564.358	31.78
564.554	31.76
564.75	31.74
564.945	31.46
565.141	31.58
565.337	31.42
565.533	31.16
565.728	31.02
565.924	30.6
566.12	30.34
566.315	30.68
566.511	30.85
566.707	30.49
566.902	30.1
567.098	29.95
567.293	30.29
567.489	30.09
567.684	30.19
567.88	30.63
568.076	31.57
568.271	32.14
568.467	32.38
568.662	32.45
568.858	32.77
569.053	33.2
569.248	33.65
569.444	32.84
569.639	32.79
569.835	32.85
570.03	33.06
570.225	32.98
570.421	32.39
570.616	31.74
570.812	30.78
571.007	30.62
571.202	30.35
571.397	30.63
571.593	31.58
571.788	31.65
571.983	31.56
572.178	31.58
572.374	31.44
572.569	31.97
572.764	32.68
572.959	33.18
573.154	33.57
573.35	34.17
573.545	33.59
573.74	33.14
573.935	33.18
574.13	33.61
574.325	34.05
574.52	34.45
574.715	34.21
574.91	34.25
575.105	34.18
575.3	33.61
575.495	33.54
575.69	33.9
575.885	34.01
576.08	34.05
576.275	33.53
576.47	33.37
576.665	33.43
576.86	34.16
577.055	33.66
577.25	34.18
577.444	34.93
577.639	35.43
577.834	35.92
578.029	36.06
578.224	35.93
578.418	36.26
578.613	36.55
578.808	35.7
579.003	35.13
579.197	35.5
579.392	36.18
579.587	36.34
579.781	35.89
579.976	35.29
580.171	35
580.365	35.5
580.56	35.95
580.755	35.98
580.949	36.61
581.144	37.04
581.338	38.16
581.533	37.76
581.727	37.17
581.922	37.1
582.116	37.19
582.311	38.4
582.505	38.55
582.7	38.58
582.894	38.36
583.089	38.88
583.283	38.15
583.478	37.43
583.672	37.28
583.866	37.54
584.061	37.47
584.255	37.95
584.449	37.08
584.644	37.21
584.838	37.27
585.032	37.73
585.226	37.35
585.421	38
585.615	37.81
585.809	37.71
586.003	37.39
586.198	37.81
586.392	37.47
586.586	37.48
586.78	37.14
586.974	36.57
587.168	36.75
587.363	36.41
587.557	36.64
587.751	36.5
587.945	36.52
588.139	36.4
588.333	36.04
588.527	36.57
588.721	36.73
588.915	36.47
589.109	36.68
589.303	35.71
589.497	34.97
589.691	34.2
589.885	34.21
590.079	34.92
590.273	35.07
590.466	35.06
590.66	34.59
590.854	34.69
591.048	34.83
591.242	34.62
591.436	34.96
591.629	36.3
591.823	37.46
592.017	37.15
592.211	36.48
592.404	36.83
592.598	36.63
592.792	36.35
592.986	36.08
593.179	36.23
593.373	36.16
593.567	36.07
593.76	35.26
593.954	34.58
594.147	35.49
594.341	35.98
594.535	35.77
594.728	36.34
594.922	36.61
595.115	36.58
595.309	36.89
595.502	36.81
595.696	35.8
595.889	36.41
596.083	36.16
596.276	35.53
596.47	35.2
596.663	34.95
596.856	35.41
597.05	35.66
597.243	35.73
597.437	35.47
597.63	35.43
597.823	36.83
598.017	36.6
598.21	37.39
598.403	37.39
598.596	37.8
598.79	38.61
598.983	37.7
599.176	37.9
599.369	37.88
599.563	38.27
599.756	39.02
599.949	38.97
600.142	38.67
600.335	37.97
600.528	38.23
600.722	38.25
600.915	38.54
601.108	38.79
601.301	38.3
601.494	38.07
601.687	37.84
601.88	37.15
602.073	36.6
602.266	37.16
602.459	37.45
602.652	37.53
602.845	37.15
603.038	36.19
603.231	35.92
603.424	35.39
603.617	36.2
603.809	36.01
604.002	35.69
604.195	35.66
604.388	35.46
604.581	35.41
604.774	35.62
604.966	36.04
605.159	36.96
605.352	37.45
605.545	37.68
605.737	37.68
605.93	37.87
606.123	38.72
606.316	39.71
606.508	39.14
606.701	39.01
606.894	38.91
607.086	38.48
607.279	38.14
607.471	38.04
607.664	38.89
607.857	37.56
608.049	37.77
608.242	37.81
608.434	37.19
608.627	37.54
608.819	37.75
609.012	37.82
609.204	38.22
609.397	37.99
609.589	37.84
609.782	37.43
609.974	37.59
610.166	37.95
610.359	38.16
610.551	38.2
610.743	39
610.936	39.28
611.128	38.71
611.32	37.95
611.513	38.21
611.705	38.78
611.897	38.93
612.09	40.09
612.282	39.64
612.474	39.99
612.666	41.1
612.858	40.61
613.051	40.93
613.243	41.88
613.435	42.38
613.627	41.5
613.819	41.84
614.011	41.9
614.203	41.62
614.395	42.15
614.588	41.67
614.78	40.21
614.972	40.64
615.164	39.9
615.356	39.09
615.548	39.97
615.74	40.92
615.932	40.38
616.124	40.87
616.315	40.84
616.507	40.54
616.699	39.83
616.891	40.38
617.083	40.11
617.275	40.68
617.467	41.17
617.659	40.85
617.85	41.74
618.042	42.51
618.234	42.06
618.426	41.72
618.618	42.2
618.809	43.74
619.001	44.3
619.193	43.59
619.384	43.86
619.576	44.63
619.768	44.85
619.959	44.14
620.151	43.05
620.343	42.53
620.534	43.84
620.726	43.11
620.917	42.85
621.109	42.84
621.301	43.52
621.492	43.71
621.684	42.62
621.875	41.61
622.067	41.43
622.258	42.2
622.45	43.21
622.641	41.98
622.832	42.78
623.024	43.1
623.215	43.5
623.407	43.03
623.598	42.29
623.789	41.55
623.981	41.66
624.172	41.67
624.363	40.92
624.555	39.93
624.746	39.95
624.937	38.65
625.129	38.08
625.32	37.36
625.511	36.83
625.702	37.61
625.893	38.41
626.085	39.64
626.276	40.15
626.467	40.77
626.658	41.59
626.849	41.56
627.04	41.82
627.231	42.42
627.422	42.98
627.614	43.98
627.805	43.19
627.996	43.57
628.187	43.21
628.378	42.99
628.569	43.49
628.76	43.02
628.951	44.09
629.142	44.62
629.332	43.75
629.523	43.98
629.714	43.74
629.905	44.06
630.096	44
630.287	43.7
630.478	42.85
630.669	42.14
630.859	43.61
631.05	42.55
631.241	42.27
631.432	41.88
631.623	40.65
631.813	40.34
632.004	40.29
632.195	39.93
632.385	38.96
632.576	39.18
632.767	38.88
632.957	37.72
633.148	38.65
633.339	39.52
633.529	40.9
633.72	41.66
633.91	41.99
634.101	42.53
634.292	42.64
634.482	44.04
634.673	45.04
634.863	45.67
635.054	47.03
635.244	46.6
635.435	46.12
635.625	45.03
635.815	45.18
636.006	44.99
636.196	44.72
636.387	45.23
636.577	45.29
636.767	44.59
636.958	43.45
637.148	42.28
637.338	42.97
637.529	43.67
637.719	44.4
637.909	43.93
638.099	43.77
638.29	43.4
638.48	44.47
638.67	43.12
638.86	43.69
639.05	45.58
639.241	45.11
639.431	42.78
639.621	40.96
639.811	40.39
640.001	40.2
640.191	40.23
640.381	39.59
640.571	37.98
640.761	40.1
640.951	41.52
641.141	40.93
641.331	41.6
641.521	42.38
641.711	42.9
641.901	43.3
642.091	43.38
642.281	43.62
642.471	44.7
642.661	44.77
642.851	43.42
643.041	41.45
643.231	40.87
643.42	41.45
643.61	41.13
643.8	42.33
643.99	42.08
644.18	42.38
644.369	42.48
644.559	40.79
644.749	40.51
644.939	41.13
645.128	41.09
645.318	40.82
645.508	39.33
645.697	40.13
645.887	39.25
646.076	39.89
646.266	40.05
646.456	41.13
646.645	42.29
646.835	42.97
647.024	43.28
647.214	44.5
647.403	45.45
647.593	46.96
647.782	47.83
647.972	47.88
648.161	46.88
648.351	46.96
648.54	46.09
648.73	46.4
648.919	46.62
649.108	45.56
649.298	44.19
649.487	43.57
649.677	42.91
649.866	41.53
650.055	41.73
650.244	42.23
650.434	42.22
650.623	42.69
650.812	42.84
651.002	42.2
651.191	42.65
651.38	42.84
651.569	44.53
651.758	44.14
651.947	45.25
652.137	45.61
652.326	45.39
652.515	44.81
652.704	43.68
652.893	43.27
653.082	44.07
653.271	43.19
653.46	43.12
653.649	41.81
653.838	42.56
654.027	42.48
654.216	41.95
654.405	41.85
654.594	43.42
654.783	43.34
654.972	42.93
655.161	41.74
655.35	42.61
655.539	43.32
655.728	42.97
655.916	42.18
656.105	41.91
656.294	42.63
656.483	42.9
656.672	41.51
656.86	41.62
657.049	42.71
657.238	43.36
657.427	44.17
657.615	43.7
657.804	44.22
657.993	44.54
658.181	44.25
658.37	43.42
658.559	44.02
658.747	44.45
658.936	45.39
659.125	42.71
659.313	42.79
659.502	42.27
659.69	41.37
659.879	41.13
660.067	41.54
660.256	42.31
660.444	43.24
660.633	43.65
660.821	43.78
661.01	43.32
661.198	45.31
661.387	46.23
661.575	46.43
661.763	48.12
661.952	49.02
662.14	49.55
662.328	50.19
662.517	49.61
662.705	48.49
662.893	49.37
663.082	49.15
663.27	51.2
663.458	48.86
663.646	48.26
663.834	47.97
664.023	46.36
664.211	45.25
664.399	44.12
664.587	44.73
664.775	44.88
664.963	44.25
665.152	46.41
665.34	45.3
665.528	47.27
665.716	47.67
665.904	48.25
666.092	48.95
666.28	48.26
666.468	48.37
666.656	49.09
666.844	49.63
667.032	49.4
667.22	49.65
667.408	48.91
667.596	48.33
667.784	47.21
667.971	46.34
668.159	46.03
668.347	46.54
668.535	46.66
668.723	44.75
668.911	44.26
669.098	44.57
669.286	43.69
669.474	45.25
669.662	44.7
669.849	46.07
670.037	46.64
670.225	46.48
670.413	46.52
670.6	46.47
670.788	46.92
670.976	46.78
671.163	45.47
671.351	44.14
671.538	44.24
671.726	44.12
671.913	43.12
672.101	43.02
672.289	43.73
672.476	42.64
672.664	41.79
672.851	40.66
673.039	41.06
673.226	42.56
673.413	43.56
673.601	41.17
673.788	41.9
673.976	41.87
674.163	42.87
674.35	42.12
674.538	44.77
674.725	45.36
674.912	48.09
675.1	48.17
675.287	46.6
675.474	46.12
675.662	47.27
675.849	48.38
676.036	49.63
676.223	47.75
676.411	47.36
676.598	45.96
676.785	46.64
676.972	45.22
677.159	44.07
677.346	44.52
677.533	43.17
677.721	42.58
677.908	41.94
678.095	41.5
678.282	41.11
678.469	41.4
678.656	42.22
678.843	41.49
679.03	42.41
679.217	43.02
679.404	41.9
679.591	43.69
679.778	44.03
679.964	44.54
680.151	43.83
680.338	44.48
680.525	43.57
680.712	43.02
680.899	43.44
681.086	43.3
681.272	44.53
681.459	45.84
681.646	44.08
681.833	45.29
682.02	43.69
682.206	44.76
682.393	45.99
682.58	47.04
682.766	47.04
682.953	47.33
683.14	47.41
683.326	46.11
683.513	45.62
683.7	45.23
683.886	44.27
684.073	44.11
684.259	43.34
684.446	41.4
684.632	40.32
684.819	40.59
685.005	39.08
685.192	38.53
685.378	39.3
685.565	39.54
685.751	40.8
685.938	40.66
686.124	41.66
686.31	41.89
686.497	44.01
686.683	44.43
686.87	43.47
687.056	44.21
687.242	43.66
687.429	42.18
687.615	42.94
687.801	43.5
687.987	44.03
688.174	44.91
688.36	44.53
688.546	42.22
688.732	43
688.918	42.64
689.105	42.03
689.291	43.73
689.477	43.88
689.663	42.89
689.849	43.08
690.035	43.37
690.221	42.87
690.407	43.59
690.593	44.13
690.779	43.49
690.965	44.9
691.151	43.87
691.337	42.95
691.523	43.38
691.709	43.9
691.895	44.92
692.081	45.27
692.267	44.71
692.453	45.06
692.639	45.37
692.825	45.63
693.011	44.37
693.196	45.09
693.382	43.38
693.568	43.41
693.754	42.51
693.94	41.42
694.125	39.2
694.311	38.4
694.497	38.64
694.682	38.17
694.868	36.63
695.054	38.42
695.239	39.57
695.425	40.88
695.611	41.41
695.796	42.19
695.982	41.24
696.168	42.06
696.353	40.79
696.539	39.32
696.724	39.67
696.91	41.84
697.095	40.75
697.281	39.68
697.466	39
697.652	38.69
697.837	38.54
698.023	38.51
698.208	37.84
698.393	38.93
698.579	39.18
698.764	38.55
698.949	37.64
699.135	37.32
699.32	36.79
699.505	37.36
699.691	37.77
699.876	38.03
700.061	38.85
700.246	40.29
700.432	41.94
700.617	43.54
700.802	45.58
700.987	45.97
701.172	46.12
701.358	48.87
701.543	48.79
701.728	49.18
701.913	50.88
702.098	50.53
702.283	49.57
702.468	48.02
702.653	46.81
702.838	45.98
703.023	47.46
703.208	50.79
703.393	49.52
703.578	51.59
703.763	49.32
703.948	48.56
704.133	49.37
704.318	48.74
704.503	48.56
704.688	49.24
704.873	47.89
705.057	44.74
705.242	45.05
705.427	46.01
705.612	44.44
705.797	45.79
705.981	44.97
706.166	44.04
706.351	46.93
706.536	48.29
706.72	47.95
706.905	50.03
707.09	51.52
707.274	49.58
707.459	49.81
707.644	50.28
707.828	50.73
708.013	51.52
708.197	51.7
708.382	49.5
708.567	48.77
708.751	49.38
708.936	47.81
709.12	47.59
709.305	48.25
709.489	47.98
709.673	47.03
709.858	48.04
710.042	45.92
710.227	45.51
710.411	46.42
710.596	45.45
710.78	46.32
710.964	46.91
711.149	47.88
711.333	47.63
711.517	48.18
711.702	50.13
711.886	48.14
712.07	48.76
712.254	48.43
712.438	47.77
712.623	47.79
712.807	47.5
712.991	47.45
713.175	48.59
713.359	47.45
713.544	46.92
713.728	43.71
713.912	42.6
714.096	42.5
714.28	43.9
714.464	42.75
714.648	42.31
714.832	40.58
715.016	39.54
715.2	35.24
715.384	35.27
715.568	34.95
715.752	36.85
715.936	38.41
716.12	37.89
716.304	35.47
716.488	35.81
716.671	37.37
716.855	36.32
717.039	37.64
717.223	39.12
717.407	36.61
717.59	36.21
717.774	37.56
717.958	36.66
718.142	37.19
718.325	38.52
718.509	40.55
718.693	39.21
718.877	39.73
719.06	41.15
719.244	42.81
719.428	46
719.611	44.52
719.795	42.11
719.978	43.52
720.162	45.01
720.345	44.4
720.529	42.72
720.713	44.59
720.896	43.96
721.08	42.1
721.263	41.19
721.446	39.71
721.63	42.25
721.813	42.34
721.997	41.97
722.18	41.57
722.364	43.35
722.547	45.19
722.73	43.83
722.914	44.37
723.097	46.11
723.28	45.03
723.464	47.29
723.647	46.78
723.83	47.76
724.013	48.04
724.197	46.67
724.38	45.4
724.563	44.31
724.746	43.5
724.929	42.63
725.112	40.83
725.296	42.32
725.479	39
725.662	37.65
725.845	34.38
726.028	35.77
726.211	37.1
726.394	38.52
726.577	38.15
726.76	38.25
726.943	36.74
727.126	35.63
727.309	36.13
727.492	38.61
727.675	39.17
727.858	39.38
728.041	35.45
728.224	33.83
728.407	31.21
728.589	30.19
728.772	31.32
728.955	33.88
729.138	36.34
729.321	34.4
729.503	33.51
729.686	33.31
729.869	35.62
730.052	38.1
730.234	37.41
730.417	38.36
730.6	40.6
730.782	39.88
730.965	39.79
731.148	39.1
731.33	40.68
731.513	39.89
731.695	41.07
731.878	42.06
732.061	39.65
732.243	41.9
732.426	42.63
732.608	40.98
732.791	42.11
732.973	45
733.156	44.92
733.338	45.57
733.52	48.08
733.703	47.7
733.885	45.19
734.068	50.45
734.25	49.86
734.432	50.02
734.615	50.78
734.797	51.8
734.979	49.92
735.162	50.51
735.344	51.32
735.526	51.11
735.708	50.81
735.891	54.8
736.073	53.48
736.255	53.49
736.437	53.8
736.619	53.96
736.802	53.29
736.984	54
737.166	51.72
737.348	49.91
737.53	51.1
737.712	53.31
737.894	51.08
738.076	52.69
738.258	51.79
738.44	51.02
738.622	49.59
738.804	49.69
738.986	50.06
739.168	52.72
739.35	53.25
739.532	49.99
739.714	46.22
739.896	48.03
740.078	47.85
740.259	51.37
740.441	52.07
740.623	54.51
740.805	54.51
740.987	55.98
741.168	56.41
741.35	56.64
741.532	58.86
741.714	62.71
741.895	63.96
742.077	61.79
742.259	60.47
742.44	63.48
742.622	62.59
742.804	60.51
742.985	58.09
743.167	55.24
743.348	54.68
743.53	57.79
743.711	55.52
743.893	53.75
744.075	55.19
744.256	54.33
744.438	53.64
744.619	56.72
744.8	58.88
744.982	58.83
745.163	60.6
745.345	62.5
745.526	60.35
745.707	66.14
745.889	66.6
746.07	66.2
746.252	68.5
746.433	68.61
746.614	73.71
746.795	79.29
746.977	76.99
747.158	79.72
747.339	81.38
747.52	81.88
747.702	79.55
747.883	77.4
748.064	80.31
748.245	77.63
748.426	73.37
748.607	67.27
748.788	65.26
748.97	68.56
749.151	68.89
749.332	67.03
749.513	63.56
749.694	61.48
749.875	59.48
750.056	56.91
750.237	57.55
750.418	61.02
750.599	59.23
750.78	54.49
750.96	54.41
751.141	53.32
751.322	51.45
751.503	51.62
751.684	52.24
751.865	55.29
752.046	53.23
752.226	54.04
752.407	51.74
752.588	53.7
752.769	56.99
752.949	56.83
753.13	54.94
753.311	53.13
753.492	57.52
753.672	58.67
753.853	56.45
754.034	60.13
754.214	61.76
754.395	63.24
754.575	65.49
754.756	65.99
754.937	67.22
755.117	70.43
755.298	70.05
755.478	66.11
755.659	65.56
755.839	70.54
756.02	70.59
756.2	72.24
756.381	70.38
756.561	65.71
756.741	62.97
756.922	57.16
757.102	51.48
757.283	52.37
757.463	51.2
757.643	49.92
757.823	46.8
758.004	39.55
758.184	33.09
758.364	30.56
758.545	27.54
758.725	25.73
758.905	24.97
759.085	28.45
759.265	26.98
759.446	27.3
759.626	26.09
759.806	26.24
759.986	30.42
760.166	33.51
760.346	33.2
760.526	35.95
760.706	35.32
760.886	38.56
761.066	36.93
761.246	34.39
761.426	34.72
761.606	36.92
761.786	34.89
761.966	35.48
762.146	37.15
762.326	38.18
762.506	39.11
762.686	39.76
762.866	38.95
763.046	39.97
763.225	44.69
763.405	45.22
763.585	46.51
763.765	45.16
763.945	46.15
764.124	42.14
764.304	44.33
764.484	45.45
764.664	49.2
764.843	53.12
765.023	51.66
765.203	49.27
765.382	49.95
765.562	47.87
765.741	53.87
765.921	52.89
766.101	56.35
766.28	57.26
766.46	59.08
766.639	56.58
766.819	56.3
766.998	60.23
767.178	64.43
767.357	62.05
767.537	65.97
767.716	67.17
767.896	65.23
768.075	69.59
768.254	67.22
768.434	63.47
768.613	65.11
768.792	64.8
768.972	63.28
769.151	56.27
769.33	56.97
769.51	55.55
769.689	52.57
769.868	55.08
770.047	52.19
770.226	56.3
770.406	58.65
770.585	57.62
770.764	58.34
770.943	56.61
771.122	62.53
771.301	65.12
771.48	65.16
771.66	68.5
771.839	72.91
772.018	71.94
772.197	70.18
772.376	71.1
772.555	77.69
772.734	69.79
772.913	76.69
773.092	78.3
773.271	80.29
773.449	84.7
773.628	79.9
773.807	77.24
773.986	80.66
774.165	82.51
774.344	82.58
774.523	75.35
774.701	83.35
774.88	76.51
775.059	71.89
775.238	64.08
775.417	64.65
775.595	68.21
775.774	68.92
775.953	65.46
776.131	66.72
776.31	61.8
776.489	62.01
776.667	61.6
776.846	67.99
777.025	72.21
777.203	79.11
777.382	75.94
777.56	74.44
777.739	72.99
777.917	76.72
778.096	77.09
778.274	80.32
778.453	85.5
778.631	87.76
778.81	80.6
778.988	83.72
779.166	82.82
779.345	74.38
779.523	77.69
779.702	75.13
779.88	70.93
780.058	63.98
780.237	67.6
780.415	64.65
780.593	64.87
780.771	66.1
780.95	64.44
781.128	65.15
781.306	77.62
781.484	77.88
781.662	83.38
781.841	81.1
782.019	85.18
782.197	78.32
782.375	78.37
782.553	77.99
782.731	76.33
782.909	77.69
783.087	77.75
783.265	71.6
783.443	71.74
783.621	67.84
783.799	70.46
783.977	67.46
784.155	63.08
784.333	59.79
784.511	62.96
784.689	62.4
784.867	56.81
785.045	50.83
785.223	54.06
785.4	58.93
785.578	62.59
785.756	66.05
785.934	70.02
786.112	70.24
786.289	67.42
786.467	57.12
786.645	55.73
786.823	58.23
787	63.52
787.178	64.05
787.356	61.89
787.533	59.23
787.711	59.88
787.889	57.85
788.066	70.16
788.244	73.9
788.421	72.31
788.599	74.75
788.776	73.19
788.954	66.85
789.131	60.9
789.309	56.59
789.486	55.19
789.664	49.02
789.841	47.96
790.019	40.69
790.196	39.25
790.373	42.79
790.551	38.46
790.728	40.68
790.906	45.94
791.083	63.42
791.26	64.39
791.437	65.68
791.615	65.63
791.792	67
791.969	64.54
792.146	65.85
792.324	64.96
792.501	72.27
792.678	68.8
792.855	65.1
793.032	48.58
793.209	44.37
793.387	44.8
793.564	48.4
793.741	45.06
793.918	48.57
794.095	43.76
794.272	48.05
794.449	44.54
794.626	50.55
794.803	49.61
794.98	49.04
795.157	50.78
795.334	59.61
795.511	55.92
795.688	59.23
795.864	59.23
796.041	63.93
796.218	55.13
796.395	59.52
796.572	55.02
796.749	64.27
796.925	67.71
797.102	73.54
797.279	63.66
797.456	69.83
797.632	71.55
797.809	78.25
797.986	81.4
798.162	82.34
798.339	80.01
798.516	76.44
798.692	59.86
798.869	53.4
799.046	45.92
799.222	41.92
799.399	47.11
799.575	50.73
799.752	39.42
799.928	38.24
800.105	38.08
800.281	44.46
800.458	50.48
800.634	54.14
800.811	49.65
800.987	61.33
801.163	65.59
801.34	53.39
801.516	46.77
801.692	47.11
801.869	55.48
802.045	71.95
802.221	66.75
802.398	63.2
802.574	62.46
802.75	66.71
802.926	58.54
803.103	56.2
803.279	58.07
803.455	59.85
803.631	63.92
803.807	55.13
803.983	42.31
804.16	42.39
804.336	47.11
804.512	51.22
804.688	50.11
804.864	45.23
805.04	42.7
805.216	40.31
805.392	41.76
805.568	41.33
805.744	46.42
805.92	53.12
806.096	56.71
806.272	54.77
806.448	60.16
806.623	67.45
806.799	72.34
806.975	83.21
807.151	85.07
807.327	78.43
807.503	76.89
807.678	74.08
807.854	63.45
808.03	59.1
808.206	51.05
808.381	52.02
808.557	51.22
808.733	49.97
808.908	43.46
809.084	48.8
809.26	56.64
809.435	48.67
809.611	40.82
809.787	50.91
809.962	54.94
810.138	57.44
810.313	50.63
810.489	47.29
810.664	36.76
810.84	50.07
811.015	41.99
811.191	37.01
811.366	50.59
811.542	54.5
811.717	62.19
811.892	63.94
812.068	57.54
812.243	54.74
812.419	58.28
812.594	54.36
812.769	52.09
812.944	47.62
813.12	45.72
813.295	38.67
813.47	40.17
813.645	38.99
813.821	44.19
813.996	45.92
814.171	36.3
814.346	37.12
814.521	50.07
814.697	41.99
814.872	50.29
815.047	46.15
815.222	46.01
815.397	49.76
815.572	36.95
815.747	23.92
815.922	24.53
816.097	28.03
816.272	25.05
816.447	19.73
816.622	24.06
816.797	27.76
816.972	29.29
817.147	36.22
817.322	34.2
817.496	36.4
817.671	41.03
817.846	43.23
818.021	45.36
818.196	47
818.371	55.41
818.545	55.17
818.72	54.48
818.895	57.12
819.069	54.56
819.244	49.7
819.419	47.65
819.594	42.83
819.768	36.83
819.943	37.74
820.117	34.45
820.292	32.34
820.467	28.82
820.641	27.84
820.816	27.88
820.99	28.46
821.165	27.74
821.339	26.33
821.514	27.55
821.688	27.35
821.863	26.84
822.037	28.26
822.212	28.73
822.386	30.19
822.56	29.21
822.735	27.6
822.909	24.55
823.084	26.8
823.258	29.92
823.432	28.48
823.606	33.52
823.781	34.45
823.955	33.28
824.129	30.38
824.303	30.99
824.478	33.02
824.652	34.39
824.826	36.44
825	36.76
825.174	38.43
825.348	36.06
825.523	35.24
825.697	36.81
825.871	37.4
826.045	40.02
826.219	38.62
826.393	39.04
826.567	38.29
826.741	37.78
826.915	37.2
827.089	34.64
827.263	35.88
827.437	33.7
827.611	30.22
827.784	26.16
827.958	20.99
828.132	23.12
828.306	22.33
828.48	17.41
828.654	26.72
828.827	27.86
829.001	26.6
829.175	23.89
829.349	30.14
829.522	28.55
829.696	29.52
829.87	33.15
830.044	25.97
830.217	31.11
830.391	38.72
830.565	22.85
830.738	14.13
830.912	5.93
831.085	10.14
831.259	11.38
831.432	31.87
831.606	33.47
831.779	38.31
831.953	37.45
832.126	42.15
832.3	38.92
832.473	38.34
832.647	40.59
832.82	42.47
832.994	48.3
833.167	42.75
833.34	31.5
833.514	32.41
833.687	27.79
833.86	32.13
834.034	30.72
834.207	33.14
834.38	33.82
834.553	34.76
834.727	36.92
834.9	30.35
835.073	31.42
835.246	40.79
835.419	38.13
835.593	40.73
835.766	38.38
835.939	26.27
836.112	16.01
836.285	21.82
836.458	20.72
836.631	27.29
836.804	34.84
836.977	34.73
837.15	35.16
837.323	32.65
837.496	25.08
837.669	28.07
837.842	38.21
838.015	60.13
838.188	58.78
838.361	69.88
838.533	50.84
838.706	58.21
838.879	62.67
839.052	54.26
839.225	73.08
839.398	78.04
839.57	80.01
839.743	69.25
839.916	72.28
840.088	85.9
840.261	74.16
840.434	70.99
840.607	63.75
840.779	56.12
840.952	43.42
841.124	27.98
841.297	28.63
841.47	23.03
841.642	40.03
841.815	16.74
841.987	5.37
842.16	10.19
842.332	21.07
842.505	18.75
842.677	9.2
842.85	23.29
843.022	17.72
843.194	8.75
843.367	-1.28
843.539	-2.56
843.712	21.24
843.884	19.62
844.056	14.57
844.229	17.03
844.401	19.15
844.573	44.75
844.745	33.39
844.918	50.96
845.09	57.37
845.262	56.56
845.434	59.97
845.606	43.22
845.779	49.25
845.951	69.73
846.123	64.33
846.295	67.17
846.467	39.58
846.639	31.64
846.811	-6.25
846.983	3.87
847.155	46.05
847.327	33.83
847.499	43.73
847.671	40.85
847.843	6.93
848.015	3.59
848.187	8.07
848.359	5.62
848.531	-155.56
848.703	-49.28
848.875	-118.55
849.047	-161.44
849.218	-270.34
849.39	-56.81
849.562	-216.35
849.734	-32.78
849.905	21.16
850.077	5.88
850.249	24.39
850.421	38.02
850.592	26.94
850.764	44.83
850.936	58.24
851.107	52.63
851.279	13.57
851.451	10.98
851.622	25.19
851.794	19.25
851.965	24.39
852.137	21.22
852.308	6.11
852.48	0.69
852.651	11.36
852.823	-0.17
852.994	31.51
853.166	69.97
853.337	85.29
853.509	64.77
853.68	46.38
853.851	34.52
854.023	43.71
854.194	62.86
854.365	77.65
854.537	55.32
854.708	51.93
854.879	55.74
855.05	50.11
855.222	67.98
855.393	74.53
855.564	84.55
855.735	80.68
855.906	80.71
856.078	80.86
856.249	40.92
856.42	102.51
856.591	89.78
856.762	29.7
856.933	46.37
857.104	12.41
857.275	-62.79
857.446	-61.57
857.617	-59.64
857.788	-46.71
857.959	-5.51
858.13	4.78
858.301	-26.81
858.472	-3.93
858.643	-6.81
858.814	-13.75
858.985	-0.45
859.155	16.2
859.326	29.98
859.497	27.45
859.668	50.27
859.839	20.52
860.009	17.83
860.18	24.8
860.351	39.87
860.522	38.45
860.692	25.42
860.863	-20.12
861.034	10.18
861.204	-20.34
861.375	-19.49
861.546	-83.17
861.716	-70.4
861.887	-61.23
862.057	-78.43
862.228	-78.17
862.398	-40.48
862.569	-44.33
862.739	-21.21
862.91	-23.05
863.08	24.13
863.251	24.94
863.421	40.3
863.592	30.59
863.762	33.13
863.932	51.23
864.103	39.27
864.273	35.32
864.443	42.9
864.614	53.33
864.784	51.21
864.954	37.54
865.125	35.66
865.295	36.45
865.465	47.21
865.635	46.02
865.805	36.94
865.976	37.47
866.146	39.26
866.316	31.68
866.486	30.81
866.656	33.64
866.826	49.85
866.996	55.1
867.166	61.04
867.336	42.97
867.506	49.57
867.676	56.59
867.846	58
868.016	54.91
868.186	89.32
868.356	52.4
868.526	93.75
868.696	-5000
868.866	91.76
869.036	-177.98
869.206	-341.94
869.376	-402.44
869.545	-57.78
869.715	-73.47
869.885	-1.46
870.055	7.01
870.224	5.52
870.394	-14.85
870.564	-39.28
870.734	-55.53
870.903	-113.36
871.073	-11.62
871.243	-10
871.412	-38.84
871.582	31.09
871.751	-31.78
871.921	-16.25
872.091	-16.96
872.26	4.87
872.43	1.69
872.599	13.96
872.769	38.75
872.938	45.78
873.108	38.86
873.277	36.13
873.446	11.53
873.616	13.82
873.785	13.12
873.955	24.82
874.124	15.54
874.293	18.18
874.463	18.54
874.632	3.49
874.801	-3.29
874.971	-6.87
875.14	-22.53
875.309	-21.11
875.478	-20.67
875.647	-14.49
875.817	-14.46
875.986	-6.16
876.155	-20
876.324	-6.83
876.493	-0.54
876.662	-8.85
876.831	2.08
877	17.11
877.17	2.24
877.339	22.16
877.508	14.39
877.677	21.92
877.846	21.76
878.015	40.04
878.184	31.94
878.352	40.27
878.521	48.59
878.69	40.8
878.859	40
879.028	52.57
879.197	26.74
879.366	30.91
879.534	31.63
879.703	21.3
879.872	21.77
880.041	18.74
880.21	12.7
880.378	12.86
880.547	15.74
880.716	17.78
880.884	13.26
881.053	20.01
881.222	16.77
881.39	11.35
881.559	12.14
881.727	11.02
881.896	13.81
882.065	16.91
882.233	13.66
882.402	10.79
882.57	8.26
882.739	10.21
882.907	9.14
883.076	4.78
883.244	19.25
883.412	32.88
883.581	35.7
883.749	24.68
883.918	16.3
884.086	15.44
884.254	11.79
884.423	21.91
884.591	43.66
884.759	31.15
884.927	52.72
885.096	24.28
885.264	-17.76
885.432	-2.93
885.6	27.39
885.769	41.91
885.937	50.94
886.105	50.27
886.273	30.85
886.441	-8.14
886.609	23.31
886.777	0.15
886.945	-3.76
887.113	-1.89
887.281	2.43
887.449	-5.44
887.617	4.39
887.785	26.53
887.953	37.28
888.121	35.57
888.289	30.55
888.457	25.78
888.625	36.3
888.793	45.73
888.961	48.48
889.129	43.86
889.296	50.78
889.464	40.57
889.632	12.57
889.8	2.56
889.967	21.43
890.135	46.85
