Data from JASIL_3109_Reflection_1.txt Node
Date: Thu Nov 12 19:57:12 EST 2015
User: Geneva
Spectrometer: USB4E03002
Autoset integration time: false
Trigger mode: 4
Integration Time (sec): 1.000000E-1
Scans to average: 10
Electric dark correction enabled: true
Nonlinearity correction enabled: false
Boxcar width: 5
Stray light correction enabled: false
XAxis mode: Wavelengths
Stop averaging: false
Number of Pixels in Spectrum: 3648
>>>>>Begin Spectral Data<<<<<
177.575	-85.02
177.794	2.37
178.014	-84.02
178.233	-18.64
178.452	72.97
178.672	65.64
178.891	113.09
179.11	459.7
179.33	193.63
179.549	226.63
179.768	187.37
179.987	161.61
180.207	121.21
180.426	149.9
180.645	414.73
180.864	-211.41
181.084	-34.36
181.303	-60.22
181.522	-533.99
181.741	-231.76
181.96	-114.02
182.179	-112.67
182.398	-53.53
182.618	-234.83
182.837	-251.4
183.056	-5345.89
183.275	2946.6
183.494	838.93
183.713	396.3
183.932	-2903.26
184.151	-1349.53
184.37	1672.42
184.589	1902.67
184.808	564.39
185.027	1111.02
185.246	-151.78
185.465	-245.96
185.684	-158.9
185.903	-314.42
186.122	-256.39
186.341	-760.31
186.56	-1288.81
186.779	-433.37
186.998	14757.33
187.216	960.52
187.435	1372.59
187.654	334.85
187.873	319.06
188.092	493.37
188.311	-2561.02
188.53	598.79
188.748	1907.33
188.967	-827.17
189.186	263.01
189.405	821.28
189.623	6504.39
189.842	-324.42
190.061	-309.67
190.28	-353.67
190.498	-348.23
190.717	917.35
190.936	-1207.2
191.154	817.94
191.373	470.47
191.592	-4066.67
191.81	1480
192.029	-919.16
192.248	-281.77
192.466	-237.41
192.685	-524.44
192.904	1151.8
193.122	470.14
193.341	180.48
193.559	271.5
193.778	207.58
193.996	273.82
194.215	1486.92
194.433	396.73
194.652	242.99
194.87	330.38
195.089	614.23
195.307	-3180.3
195.526	3353.67
195.744	-1599.22
195.963	587.89
196.181	1067.59
196.399	995.17
196.618	792.4
196.836	450.41
197.055	710.96
197.273	291.87
197.491	153.39
197.71	155.83
197.928	157.95
198.146	134.16
198.365	186.48
198.583	102.22
198.801	105.49
199.019	80.13
199.238	91.06
199.456	68.98
199.674	47.65
199.892	24.69
200.111	69.2
200.329	180
200.547	2.01
200.765	92.03
200.983	-6.05
201.202	-1.1
201.42	-13.21
201.638	-43.33
201.856	-33.26
202.074	-17.04
202.292	-138.78
202.51	-444.66
202.728	-401.47
202.946	-481.3
203.165	4450.62
203.383	1662.45
203.601	670.91
203.819	2423.46
204.037	-3664.64
204.255	-919.84
204.473	6096.59
204.691	-376.62
204.909	-527.89
205.127	-1108.5
205.345	345.56
205.562	351.68
205.78	209.21
205.998	499.32
206.216	182.85
206.434	157.11
206.652	121.24
206.87	84.73
207.088	83.27
207.306	108.5
207.523	79.16
207.741	57.2
207.959	432.3
208.177	33330
208.395	396.57
208.612	401.42
208.83	-481.18
209.048	-928.79
209.266	-998.69
209.483	-311.17
209.701	-186.38
209.919	-217.24
210.136	-145.78
210.354	-98.87
210.572	-43.31
210.79	-30.53
211.007	-24.78
211.225	-7.56
211.442	30.97
211.66	55.6
211.878	29
212.095	27.29
212.313	12.24
212.53	18.07
212.748	-2.62
212.966	-32.24
213.183	19.99
213.401	89.72
213.618	5.84
213.836	-76.91
214.053	-183.94
214.271	326.29
214.488	222
214.705	538.04
214.923	-352.09
215.14	-6762.96
215.358	1087.54
215.575	-15396.36
215.793	-406.33
216.01	-1392.03
216.227	2255.97
216.445	1118.14
216.662	-465.62
216.879	-5193.98
217.097	391.5
217.314	301.75
217.531	497.06
217.749	422.59
217.966	466.25
218.183	456.06
218.4	198.06
218.618	447.07
218.835	-87.75
219.052	146.97
219.269	89.87
219.487	133.52
219.704	110.46
219.921	67.7
220.138	111.09
220.355	134.95
220.572	161.66
220.79	241.77
221.007	129.26
221.224	137.73
221.441	225.52
221.658	511.92
221.875	475.93
222.092	759.39
222.309	843.69
222.526	1987.41
222.743	2097.58
222.96	619.01
223.177	-2539.68
223.394	-708.71
223.611	-393.15
223.828	-4891.78
224.045	1472.23
224.262	-644.45
224.479	-1035.7
224.696	-190.17
224.913	-256.76
225.13	-83.94
225.347	-61.45
225.564	-62.73
225.781	-46.51
225.997	-54.64
226.214	-42.66
226.431	-47.79
226.648	-67.03
226.865	-44.59
227.082	-28.3
227.298	-28.41
227.515	-39.67
227.732	-44.46
227.949	-41.84
228.165	-42.51
228.382	-51.47
228.599	-43.25
228.816	-30.6
229.032	-18.56
229.249	-15.14
229.466	-24.1
229.682	-21.29
229.899	-21.62
230.116	-10.87
230.332	-22.26
230.549	-27.43
230.765	-22.66
230.982	-19.35
231.199	-14.58
231.415	-39.86
231.632	-46.08
231.848	-44.22
232.065	-59.49
232.281	-58.84
232.498	-82.95
232.714	-58.15
232.931	-34.26
233.147	-29.62
233.364	-47.04
233.58	-55.2
233.797	-29.01
234.013	-33.43
234.23	-34.51
234.446	-34.45
234.662	-27.93
234.879	-40.2
235.095	-54.36
235.312	-68.51
235.528	-52.58
235.744	-45.42
235.961	-64.03
236.177	-68.08
236.393	-49.34
236.61	-30.75
236.826	-14.79
237.042	-31.15
237.258	-32.55
237.475	-14.65
237.691	-0.64
237.907	-13.93
238.123	-13.47
238.339	-21.5
238.556	-26.2
238.772	-50.5
238.988	-59.11
239.204	-67.03
239.42	-53.36
239.636	-36.2
239.853	-42.94
240.069	-45.69
240.285	-40.13
240.501	-33.77
240.717	-23.84
240.933	-18.25
241.149	-11.31
241.365	-10.1
241.581	-12.45
241.797	-9.09
242.013	-9.25
242.229	-5.09
242.445	-4.15
242.661	-2.16
242.877	-3.07
243.093	-2.51
243.309	-4.6
243.525	-6.76
243.741	-13.01
243.957	-10.15
244.173	-7.39
244.388	-4.16
244.604	-1
244.82	0.37
245.036	1.06
245.252	1.16
245.468	-2.12
245.683	-3.28
245.899	-2.21
246.115	-0.89
246.331	-0.29
246.547	0.26
246.762	-1.94
246.978	-1.05
247.194	-2.01
247.409	-2.82
247.625	-6.8
247.841	-5.06
248.057	-3.43
248.272	-0.93
248.488	-0.55
248.703	-2.82
248.919	-6.38
249.135	-2.96
249.35	-9.21
249.566	-14.54
249.782	-20.54
249.997	-13.04
250.213	-16.62
250.428	-16.55
250.644	-18.97
250.859	-14.55
251.075	-8.9
251.29	-0.54
251.506	-1.38
251.721	1.21
251.937	4.88
252.152	5.72
252.368	7.51
252.583	10.99
252.798	11.12
253.014	7.54
253.229	8.68
253.445	2.09
253.66	-7.02
253.875	-10.77
254.091	-17.91
254.306	-14.52
254.521	-12.23
254.737	-19.07
254.952	-22.68
255.167	-22.34
255.383	-20.95
255.598	-22.63
255.813	-16.37
256.028	-14.7
256.244	-13.55
256.459	-8.92
256.674	-6.24
256.889	-9.6
257.104	-8.09
257.32	-8.14
257.535	-10.88
257.75	-9.56
257.965	-8.49
258.18	-8.68
258.395	-6.93
258.61	-6.9
258.826	-5.95
259.041	-9.86
259.256	-6.77
259.471	-7.34
259.686	-7.88
259.901	-7.66
260.116	-6.81
260.331	-6.01
260.546	-4.3
260.761	-4.8
260.976	-5.63
261.191	-9.89
261.406	-7.33
261.621	-8.1
261.836	-9.16
262.05	-5.62
262.265	-9.15
262.48	-17.02
262.695	-19.23
262.91	-25.75
263.125	-26.15
263.34	-22.74
263.555	-22.01
263.769	-20.28
263.984	-20.75
264.199	-14.77
264.414	-13.84
264.629	-6.94
264.843	-4.24
265.058	-9.5
265.273	-7.23
265.488	-9.15
265.702	-9.33
265.917	-5.21
266.132	-9.87
266.346	-13.51
266.561	-12.26
266.776	-14.21
266.99	-13.53
267.205	-10.19
267.42	-5.49
267.634	-2.64
267.849	-1.6
268.063	0.47
268.278	-0.88
268.492	-0.95
268.707	1.44
268.922	-1.25
269.136	-2.56
269.351	-3.59
269.565	-5.49
269.78	-6.78
269.994	-10.1
270.209	-8.93
270.423	-10.25
270.637	-9.45
270.852	-8.4
271.066	-8.72
271.281	-5.08
271.495	-2.16
271.709	-4.37
271.924	-2.72
272.138	-1.62
272.353	-4.34
272.567	-4.94
272.781	-5.3
272.996	-5.58
273.21	-4.43
273.424	-5.83
273.638	-9.3
273.853	-10.57
274.067	-8.34
274.281	-8.24
274.495	-9.4
274.71	-2.52
274.924	-3.38
275.138	-0.92
275.352	-4.59
275.566	-3.9
275.781	-1.91
275.995	-0.42
276.209	3.04
276.423	4
276.637	3.95
276.851	4.12
277.065	-2.19
277.279	-0.67
277.493	0.07
277.707	2.51
277.921	2.41
278.135	2.8
278.349	4.02
278.563	-1.65
278.777	-2.28
278.991	-0.71
279.205	-0.08
279.419	6.05
279.633	3.04
279.847	0.79
280.061	-0.01
280.275	0.42
280.489	-1.97
280.703	-0.51
280.917	-1.57
281.131	-0.92
281.344	-2.6
281.558	-4.4
281.772	-9.48
281.986	-9.05
282.2	-7.26
282.414	-4.88
282.627	-5.04
282.841	-2.01
283.055	-5.55
283.269	-1.65
283.482	-3.63
283.696	-5.63
283.91	-2.9
284.123	-0.61
284.337	2.24
284.551	0.86
284.764	-1.53
284.978	-1.07
285.192	-2.02
285.405	-3.08
285.619	-3.49
285.833	-2.12
286.046	-1.1
286.26	-3.4
286.473	-3.69
286.687	-3.93
286.9	-5.89
287.114	-4.59
287.327	-4.01
287.541	-1.55
287.754	-1.03
287.968	-2.47
288.181	-3.06
288.395	-4.84
288.608	-2.91
288.822	-2.34
289.035	-3.75
289.248	-2.7
289.462	-2.03
289.675	-4.73
289.889	-5.98
290.102	-4.44
290.315	-5.78
290.529	-5.48
290.742	-1.27
290.955	-0.99
291.169	-2.19
291.382	-1.9
291.595	-1.43
291.808	-0.54
292.022	-0.3
292.235	-2.5
292.448	-1.91
292.661	1
292.875	0.87
293.088	-2.59
293.301	-3.22
293.514	-3.18
293.727	-2.56
293.94	-1.86
294.153	-5.75
294.367	-6.17
294.58	-5.5
294.793	-6.23
295.006	-6.67
295.219	-4.61
295.432	-3.68
295.645	-4.8
295.858	-5.79
296.071	-4.73
296.284	-4.29
296.497	-2.16
296.71	0.42
296.923	1.88
297.136	2.49
297.349	2.93
297.562	1.72
297.775	2.55
297.988	2.02
298.201	3.26
298.414	2.85
298.626	0.79
298.839	0.43
299.052	-0.5
299.265	-0.56
299.478	-2.15
299.691	-3.42
299.903	-1.31
300.116	-0.94
300.329	2.41
300.542	2.95
300.755	1.76
300.967	4.93
301.18	5.25
301.393	4.7
301.605	3.28
301.818	4.81
302.031	4.58
302.243	3.56
302.456	-1.87
302.669	-1.37
302.881	-0.79
303.094	-0.02
303.307	-2.03
303.519	-0.13
303.732	1.19
303.944	1.6
304.157	0.93
304.37	1.76
304.582	1.9
304.795	6.79
305.007	4.12
305.22	4.76
305.432	3.57
305.645	3.6
305.857	2.36
306.069	2.43
306.282	-0.45
306.494	-0.36
306.707	0.77
306.919	-2.77
307.132	-3.16
307.344	-3.83
307.556	-4.88
307.769	-3.9
307.981	-3.25
308.193	-3.97
308.406	-4.26
308.618	0.82
308.83	1.61
309.043	1.34
309.255	2.99
309.467	2.98
309.679	3.17
309.892	3.84
310.104	2.52
310.316	3.18
310.528	2.52
310.74	1.39
310.953	-1.1
311.165	0.86
311.377	1.29
311.589	0.6
311.801	1.27
312.013	4.16
312.225	4.11
312.437	4.09
312.649	5.48
312.862	6.48
313.074	6.19
313.286	6.06
313.498	2.45
313.71	1.45
313.922	3.24
314.134	2.04
314.346	-1.53
314.558	-4.16
314.77	-0.91
314.982	-4.16
315.193	-0.07
315.405	0.97
315.617	1.57
315.829	0.73
316.041	0.13
316.253	0.19
316.465	-0.4
316.677	-0.88
316.888	1.78
317.1	2.7
317.312	4.88
317.524	-0.21
317.736	-0.27
317.947	0.13
318.159	2.41
318.371	2.42
318.583	0.3
318.794	2.83
319.006	6.01
319.218	5.37
319.43	2.36
319.641	-0.23
319.853	2.05
320.064	2.45
320.276	3.35
320.488	1.47
320.699	4.12
320.911	4.13
321.123	1.54
321.334	0.72
321.546	1.79
321.757	3.41
321.969	4.43
322.18	4.11
322.392	4.09
322.603	6.46
322.815	5.8
323.026	2.81
323.238	2.9
323.449	4.67
323.661	6.32
323.872	3.23
324.083	3.14
324.295	3.86
324.506	5.15
324.718	6.66
324.929	6.63
325.14	9.01
325.352	10.27
325.563	12.69
325.774	12.82
325.986	11.42
326.197	13.54
326.408	13.87
326.62	14.88
326.831	15.01
327.042	13.75
327.253	12.32
327.464	12.69
327.676	12.54
327.887	11.96
328.098	12.45
328.309	11.87
328.52	12.29
328.732	12.48
328.943	12.07
329.154	12.9
329.365	15.19
329.576	16.18
329.787	16.68
329.998	16.08
330.209	15.5
330.42	12.58
330.631	13.33
330.842	13.81
331.053	14.13
331.264	12.1
331.475	10.46
331.686	8.98
331.897	7.33
332.108	6.17
332.319	7.42
332.53	9.34
332.741	11.54
332.952	10.95
333.163	11.83
333.374	12.83
333.585	14.39
333.795	14.65
334.006	14.08
334.217	14.17
334.428	15.13
334.639	15.16
334.849	13.79
335.06	14.47
335.271	16.22
335.482	12.36
335.692	10.82
335.903	9.87
336.114	9.98
336.325	11.04
336.535	11.5
336.746	10.86
336.957	11.82
337.167	12.61
337.378	12.19
337.589	12.58
337.799	15.8
338.01	15.4
338.22	17.43
338.431	17.09
338.642	17.66
338.852	16.11
339.063	16.99
339.273	16.6
339.484	14.38
339.694	13.12
339.905	12.5
340.115	12.41
340.326	13.79
340.536	10.65
340.746	9.99
340.957	7.59
341.167	7.84
341.378	6.67
341.588	6.06
341.799	8.89
342.009	9.76
342.219	9.77
342.43	9.93
342.64	9.46
342.85	12.48
343.061	12.91
343.271	13.44
343.481	12.36
343.691	12.49
343.902	13.5
344.112	12.93
344.322	9.67
344.532	9.17
344.743	8.1
344.953	6.92
345.163	5.67
345.373	7.05
345.583	7.62
345.793	9.73
346.004	10.09
346.214	10.48
346.424	11.14
346.634	14.42
346.844	15.54
347.054	16.03
347.264	17.95
347.474	18.75
347.684	17.75
347.894	18.54
348.104	20.18
348.314	21.45
348.524	21.25
348.734	21.01
348.944	22.34
349.154	21.63
349.364	21.95
349.574	20.93
349.784	19.36
349.994	20.12
350.204	19.83
350.413	19.67
350.623	19.55
350.833	19.06
351.043	18.52
351.253	17.68
351.463	16.66
351.672	16.83
351.882	19.41
352.092	20.11
352.302	19.22
352.511	19.41
352.721	18.31
352.931	17.96
353.141	18.24
353.35	17.56
353.56	15.55
353.77	14.69
353.979	14.39
354.189	12.88
354.399	14.86
354.608	14.95
354.818	15.13
355.027	13.58
355.237	12.42
355.447	11.49
355.656	11.47
355.866	11.63
356.075	12.83
356.285	12.34
356.494	11.16
356.704	11.39
356.913	13.36
357.123	12.15
357.332	12.71
357.542	12.97
357.751	13.7
357.96	15.11
358.17	16.33
358.379	16.96
358.589	17.57
358.798	18.02
359.007	16.36
359.217	13.23
359.426	14.17
359.635	13.8
359.845	13.57
360.054	13.89
360.263	13.44
360.472	13.82
360.682	14.3
360.891	13.56
361.1	13.9
361.309	13.79
361.519	15.81
361.728	15.32
361.937	16.39
362.146	17.48
362.355	18.21
362.564	18.05
362.774	17.94
362.983	18.03
363.192	18.25
363.401	18.86
363.61	19.7
363.819	19.11
364.028	18.98
364.237	17.97
364.446	17.63
364.655	16.15
364.864	16.18
365.073	13.46
365.282	12.44
365.491	13.01
365.7	12.4
365.909	11.99
366.118	11.81
366.327	13.78
366.536	13.95
366.745	12.07
366.954	12.62
367.162	13.48
367.371	15.23
367.58	15.68
367.789	14.89
367.998	14.25
368.207	14.43
368.415	13.25
368.624	11.7
368.833	11.91
369.042	13.35
369.25	13.77
369.459	13.26
369.668	14
369.877	12.55
370.085	14.06
370.294	15.75
370.503	16.19
370.711	16.94
370.92	16.82
371.129	16.64
371.337	15.99
371.546	14.57
371.754	13.34
371.963	12.63
372.171	13.28
372.38	11.97
372.589	11.19
372.797	10.41
373.006	9.95
373.214	9.67
373.423	10.28
373.631	11.49
373.84	12.12
374.048	13.21
374.256	13.7
374.465	13.91
374.673	13.91
374.882	12.46
375.09	13.26
375.298	13.94
375.507	14.26
375.715	14.54
375.923	13.78
376.132	13.8
376.34	13.87
376.548	13.33
376.757	13.39
376.965	14.7
377.173	15.96
377.381	14.99
377.59	14.01
377.798	13.94
378.006	14.6
378.214	16.1
378.423	16.85
378.631	16.59
378.839	18.09
379.047	17.64
379.255	16.03
379.463	16.25
379.671	16.84
379.879	16.9
380.088	17.91
380.296	17.01
380.504	15.36
380.712	15.05
380.92	16.26
381.128	16.04
381.336	16.06
381.544	16.46
381.752	16.13
381.96	17.06
382.168	16.67
382.376	14.28
382.584	13.46
382.791	14.38
382.999	13.55
383.207	13.1
383.415	12.35
383.623	12.33
383.831	12.45
384.039	11.22
384.247	10.34
384.454	11.58
384.662	13.3
384.87	14.9
385.078	13.75
385.285	14.73
385.493	14.65
385.701	14.46
385.909	13.95
386.116	13.14
386.324	13.76
386.532	13.75
386.739	13.58
386.947	13.65
387.155	12.58
387.362	13.97
387.57	14.08
387.778	13.83
387.985	12.98
388.193	12.8
388.4	13.31
388.608	13.07
388.816	13.47
389.023	14.22
389.231	14.72
389.438	14.88
389.646	16.23
389.853	15.67
390.061	14.7
390.268	15.38
390.475	16.13
390.683	16.59
390.89	16.98
391.098	17.09
391.305	16.06
391.512	15.01
391.72	15.19
391.927	13.1
392.135	12.89
392.342	13.92
392.549	14.74
392.756	15.87
392.964	15.45
393.171	15.62
393.378	15.4
393.586	15.8
393.793	16.35
394	15.53
394.207	16.89
394.414	17.15
394.622	16.26
394.829	15.83
395.036	15.08
395.243	15.28
395.45	15.74
395.657	15.5
395.864	16.05
396.072	15.34
396.279	16.37
396.486	15.1
396.693	14.64
396.9	14.31
397.107	14.95
397.314	14.78
397.521	15.38
397.728	14.99
397.935	15.44
398.142	14.86
398.349	14.7
398.556	14.55
398.763	14.92
398.97	15.36
399.177	16.72
399.383	16.41
399.59	16.68
399.797	15.93
400.004	16.38
400.211	15.57
400.418	16.04
400.625	17.05
400.831	16.8
401.038	16.44
401.245	16.87
401.452	16.64
401.658	16.5
401.865	17.34
402.072	17.23
402.279	16.64
402.485	16.76
402.692	16.84
402.899	16.66
403.105	16.81
403.312	16.85
403.519	16.94
403.725	15.93
403.932	16.69
404.138	16.03
404.345	15.89
404.552	16.02
404.758	16.5
404.965	15.75
405.171	15.8
405.378	16.2
405.584	15.46
405.791	15.76
405.997	16.01
406.204	15.94
406.41	14.71
406.617	15.55
406.823	15.92
407.029	15.64
407.236	16.4
407.442	16.42
407.649	16.68
407.855	17.65
408.061	17.08
408.268	17.75
408.474	16.93
408.68	18.21
408.887	17.84
409.093	18.03
409.299	17.74
409.505	17.37
409.712	17.76
409.918	17.28
410.124	17.26
410.33	16.83
410.537	17.27
410.743	16.89
410.949	15.02
411.155	15.56
411.361	14.33
411.567	14.86
411.773	14.45
411.98	14.14
412.186	14.16
412.392	13.95
412.598	14.73
412.804	15.13
413.01	15.34
413.216	16.4
413.422	16.1
413.628	17.19
413.834	16.89
414.04	17.85
414.246	17.5
414.452	17.37
414.658	18.24
414.864	18.58
415.07	18.2
415.275	18.27
415.481	18.62
415.687	18.1
415.893	17.02
416.099	16.74
416.305	17.2
416.511	17.24
416.716	17.34
416.922	17.35
417.128	16.74
417.334	16.8
417.539	16.34
417.745	16.55
417.951	16.86
418.157	17.28
418.362	17.04
418.568	16.8
418.774	16.94
418.979	16.51
419.185	16.37
419.391	16.27
419.596	15.95
419.802	16.37
420.008	16.22
420.213	16.1
420.419	15.81
420.624	16.52
420.83	16.35
421.035	16.53
421.241	17.02
421.446	16.85
421.652	17.14
421.857	16.93
422.063	17.21
422.268	17.32
422.474	17.18
422.679	18.07
422.885	18.11
423.09	18.4
423.295	18.22
423.501	18.05
423.706	17.99
423.911	18.13
424.117	18.17
424.322	18.38
424.527	18.89
424.733	19.18
424.938	19.24
425.143	19.18
425.349	18.65
425.554	18.3
425.759	18.18
425.964	18.39
426.169	17.85
426.375	18.12
426.58	17.36
426.785	16.38
426.99	16.72
427.195	15.56
427.4	15.01
427.605	15.11
427.811	15.65
428.016	15.82
428.221	14.84
428.426	15.13
428.631	15.18
428.836	15.27
429.041	16.42
429.246	16.31
429.451	16.47
429.656	15.74
429.861	15.49
430.066	15.45
430.271	15.88
430.476	16.5
430.681	16.4
430.886	16.5
431.09	16.87
431.295	16.06
431.5	16
431.705	15.89
431.91	17.05
432.115	17.23
432.32	16.93
432.524	17.03
432.729	17.18
432.934	17.4
433.139	17.65
433.343	17.37
433.548	17.83
433.753	17.14
433.958	18.03
434.162	18.16
434.367	18.32
434.572	18.6
434.776	18.24
434.981	18.01
435.186	17.78
435.39	16.97
435.595	16.43
435.799	15.74
436.004	16.45
436.209	16.38
436.413	16.02
436.618	16.29
436.822	16.19
437.027	16.23
437.231	16.95
437.436	17.1
437.64	17.39
437.845	17.84
438.049	18.87
438.253	18.57
438.458	18.14
438.662	18.33
438.867	17.93
439.071	17.73
439.275	17.54
439.48	17.36
439.684	18.07
439.888	18.22
440.093	18.12
440.297	17.63
440.501	17.49
440.706	17.65
440.91	17.57
441.114	17.35
441.318	17.42
441.523	17.64
441.727	17.43
441.931	16.73
442.135	16.89
442.339	17.07
442.543	17.03
442.748	17.15
442.952	16.56
443.156	16.65
443.36	17.12
443.564	17.07
443.768	17.24
443.972	17.08
444.176	16.72
444.38	16.46
444.584	16.08
444.788	16.2
444.992	15.95
445.196	16.23
445.4	16.16
445.604	16.48
445.808	16.44
446.012	16.27
446.216	16.44
446.42	16.71
446.624	16.81
446.828	17.56
447.032	17.17
447.235	17.76
447.439	17.65
447.643	17.38
447.847	17.14
448.051	17.06
448.254	16.7
448.458	16.63
448.662	16.54
448.866	16.37
449.069	15.24
449.273	15.4
449.477	15.27
449.681	15.24
449.884	15.66
450.088	15.23
450.292	15.9
450.495	16.53
450.699	16.11
450.902	15.75
451.106	16.18
451.31	17.37
451.513	17.42
451.717	17.35
451.92	17.49
452.124	17.2
452.327	16.95
452.531	16.75
452.734	16.69
452.938	16.75
453.141	17.13
453.345	16.92
453.548	16.78
453.752	17
453.955	16.95
454.158	17.07
454.362	17.31
454.565	18.07
454.769	18.08
454.972	17.42
455.175	17.53
455.379	17.08
455.582	16.68
455.785	16.47
455.988	16.54
456.192	16.83
456.395	16.37
456.598	15.91
456.801	15.57
457.005	15.52
457.208	16.15
457.411	16.67
457.614	16.91
457.817	16.98
458.021	17.15
458.224	17.37
458.427	17.2
458.63	17.55
458.833	17.59
459.036	17.54
459.239	17.39
459.442	17.34
459.645	16.99
459.848	16.97
460.051	17.14
460.254	16.84
460.457	16.2
460.66	16.28
460.863	16.29
461.066	16.21
461.269	16.43
461.472	16.46
461.675	16.16
461.878	16.34
462.081	16.13
462.284	15.88
462.486	16
462.689	16.04
462.892	15.5
463.095	15.5
463.298	15.83
463.5	15.42
463.703	15.41
463.906	15.7
464.109	15.41
464.311	15.15
464.514	14.73
464.717	14.72
464.92	15.14
465.122	15.57
465.325	15.68
465.528	15.81
465.73	15.96
465.933	16.34
466.135	16.15
466.338	16.31
466.541	17.05
466.743	17.57
466.946	17.79
467.148	17.63
467.351	17.48
467.553	17.17
467.756	16.6
467.958	16.23
468.161	16.21
468.363	16.48
468.566	16.8
468.768	16.28
468.971	16.07
469.173	16.18
469.375	15.96
469.578	15.95
469.78	15.97
469.983	16.79
470.185	17.78
470.387	17.59
470.59	17.85
470.792	17.45
470.994	17.81
471.196	17.7
471.399	17.55
471.601	18.18
471.803	18.23
472.005	18.5
472.208	17.72
472.41	17.35
472.612	17.59
472.814	17
473.016	16.77
473.218	16.69
473.421	17.34
473.623	17
473.825	16.33
474.027	16.35
474.229	16.12
474.431	16.21
474.633	15.97
474.835	15.93
475.037	16.01
475.239	16.23
475.441	16.14
475.643	15.4
475.845	15.4
476.047	16.2
476.249	16.74
476.451	17.28
476.653	18.05
476.855	18.57
477.057	18.91
477.258	19
477.46	19.14
477.662	19.37
477.864	19.56
478.066	19.83
478.268	19.27
478.469	18.7
478.671	18.46
478.873	18.02
479.075	17.47
479.276	16.94
479.478	16.9
479.68	16.99
479.882	17.07
480.083	17.39
480.285	16.82
480.487	16.84
480.688	16.93
480.89	16.77
481.091	16.65
481.293	16.94
481.495	17.16
481.696	16.93
481.898	17.05
482.099	16.98
482.301	17.02
482.502	17.17
482.704	17.22
482.905	17.38
483.107	17.42
483.308	17.57
483.51	17.43
483.711	17.33
483.913	17.69
484.114	17.63
484.315	17.86
484.517	17.85
484.718	18.05
484.92	18.23
485.121	18.27
485.322	18.42
485.524	18.5
485.725	18.56
485.926	18.63
486.127	18.45
486.329	18.27
486.53	17.99
486.731	18.03
486.932	17.91
487.134	17.97
487.335	18.01
487.536	17.8
487.737	17.63
487.938	17.64
488.139	17.62
488.341	17.54
488.542	17.77
488.743	17.88
488.944	17.62
489.145	17.65
489.346	17.48
489.547	17.27
489.748	17.38
489.949	17.46
490.15	17.63
490.351	17.73
490.552	17.74
490.753	17.66
490.954	17.46
491.155	17.74
491.356	17.61
491.557	17.68
491.758	17.67
491.959	17.71
492.159	17.61
492.36	17.51
492.561	17.47
492.762	17.59
492.963	17.68
493.164	17.74
493.364	17.49
493.565	17.74
493.766	17.6
493.967	17.41
494.167	17.53
494.368	17.81
494.569	17.9
494.769	17.4
494.97	17.34
495.171	16.91
495.371	17.25
495.572	17.49
495.773	17.36
495.973	17.26
496.174	17.47
496.375	17.09
496.575	17.06
496.776	17.03
496.976	17.5
497.177	17.43
497.377	17.94
497.578	17.5
497.778	17.67
497.979	17.81
498.179	17.87
498.38	18.06
498.58	18.04
498.78	17.82
498.981	18.03
499.181	18.13
499.382	18.24
499.582	17.84
499.782	18
499.983	18.06
500.183	17.88
500.383	18.46
500.584	18.39
500.784	18.58
500.984	18.94
501.184	18.4
501.385	18.15
501.585	17.82
501.785	18.29
501.985	18.18
502.185	17.75
502.386	18.22
502.586	17.52
502.786	17.63
502.986	17.93
503.186	17.75
503.386	18.14
503.586	18.13
503.786	18.24
503.987	17.74
504.187	18.09
504.387	18.17
504.587	17.93
504.787	17.82
504.987	17.07
505.187	16.87
505.387	16.3
505.587	15.93
505.786	16.35
505.986	16.86
506.186	17.35
506.386	16.98
506.586	16.89
506.786	16.98
506.986	16.98
507.186	17.74
507.386	17.96
507.585	18.09
507.785	18.38
507.985	18.39
508.185	18.09
508.384	18.38
508.584	18.79
508.784	19.09
508.984	18.92
509.183	18.96
509.383	18.73
509.583	18.71
509.782	19.23
509.982	19.14
510.182	18.91
510.381	19.08
510.581	18.95
510.781	18.77
510.98	18.87
511.18	19.17
511.379	19.33
511.579	19.13
511.778	19.16
511.978	19.44
512.177	19.96
512.377	19.67
512.576	19.34
512.776	19
512.975	19.07
513.175	18.95
513.374	19.27
513.573	19.48
513.773	20.5
513.972	20.69
514.172	20.3
514.371	19.66
514.57	19.88
514.77	20.46
514.969	20.35
515.168	20.35
515.367	20.45
515.567	20.25
515.766	20
515.965	19.2
516.164	19.15
516.364	19.48
516.563	19.45
516.762	19.71
516.961	19.59
517.16	20.04
517.359	20.47
517.559	20.5
517.758	20.13
517.957	20.05
518.156	20.5
518.355	20.41
518.554	19.92
518.753	20.18
518.952	19.78
519.151	19.87
519.35	19.81
519.549	19.69
519.748	19.73
519.947	19.69
520.146	20.01
520.345	19.82
520.544	19.73
520.743	20.3
520.942	20.05
521.141	20.52
521.339	20.28
521.538	20.3
521.737	20.21
521.936	19.93
522.135	20.41
522.333	20.22
522.532	19.85
522.731	19.74
522.93	19.44
523.129	19.81
523.327	19.82
523.526	20.08
523.725	19.93
523.923	19.96
524.122	20.28
524.321	20.25
524.519	20.29
524.718	20.3
524.917	20.7
525.115	20.95
525.314	21.25
525.512	21.52
525.711	21.48
525.909	21.64
526.108	22.01
526.306	22.02
526.505	22.14
526.703	22.43
526.902	22.7
527.1	22.74
527.299	22.88
527.497	22.87
527.696	22.78
527.894	22.89
528.092	23.03
528.291	22.89
528.489	22.96
528.688	22.84
528.886	22.74
529.084	22.79
529.283	22.62
529.481	22.48
529.679	22.34
529.877	22.38
530.076	22.55
530.274	22.56
530.472	22.86
530.67	23.17
530.869	23.31
531.067	23.6
531.265	23.62
531.463	23.93
531.661	24.19
531.859	24.56
532.057	24.55
532.255	24.41
532.454	24.35
532.652	23.97
532.85	23.78
533.048	24.06
533.246	24
533.444	24.02
533.642	24.03
533.84	24.1
534.038	24.09
534.236	24.26
534.434	24.28
534.632	24.34
534.83	24.86
535.027	24.74
535.225	24.64
535.423	24.49
535.621	24.48
535.819	24.81
536.017	24.63
536.215	24.19
536.412	24.15
536.61	24.3
536.808	24.25
537.006	24.11
537.203	24.2
537.401	24.53
537.599	24.76
537.797	24.95
537.994	24.45
538.192	24.92
538.39	25.28
538.587	25.25
538.785	24.91
538.983	25.08
539.18	24.97
539.378	25.32
539.575	25.07
539.773	25.15
539.97	25.02
540.168	25.46
540.366	25.31
540.563	25.43
540.761	25.47
540.958	25.63
541.155	25.61
541.353	25.74
541.55	25.77
541.748	25.72
541.945	25.87
542.143	25.97
542.34	25.86
542.537	26.12
542.735	26.1
542.932	25.94
543.129	26.14
543.327	26.47
543.524	26.55
543.721	26.3
543.919	26.29
544.116	26.03
544.313	26.33
544.51	26.65
544.708	26.6
544.905	26.61
545.102	27.26
545.299	27.39
545.496	27.08
545.693	27.4
545.891	27.89
546.088	28.07
546.285	28.35
546.482	28.5
546.679	28.17
546.876	28.22
547.073	28.46
547.27	28.69
547.467	28.51
547.664	28.75
547.861	28.41
548.058	27.75
548.255	28.08
548.452	28.31
548.649	28.36
548.846	28.87
549.043	28.89
549.24	28.53
549.437	27.83
549.633	28.02
549.83	27.64
550.027	27.71
550.224	28.05
550.421	28.01
550.618	27.3
550.814	27.18
551.011	27.44
551.208	27.33
551.405	27.62
551.601	27.64
551.798	28.03
551.995	28.29
552.191	28.25
552.388	27.85
552.585	28.01
552.781	28.68
552.978	28.91
553.175	28.24
553.371	28.23
553.568	28.21
553.764	28
553.961	28.15
554.157	27.88
554.354	27.68
554.55	28.18
554.747	28.21
554.943	28.21
555.14	28.31
555.336	28.46
555.533	28.32
555.729	28.36
555.926	29.44
556.122	29.09
556.318	29.23
556.515	29.51
556.711	30.23
556.907	29.89
557.104	29.57
557.3	29.06
557.496	28.99
557.693	29.54
557.889	29.78
558.085	29.17
558.281	29.18
558.478	29.98
558.674	30.16
558.87	29.39
559.066	29.72
559.262	29.92
559.459	30.16
559.655	30.65
559.851	30.38
560.047	30
560.243	30.38
560.439	30.49
560.635	29.88
560.831	30.24
561.027	30.61
561.223	31.19
561.419	31.25
561.615	31.12
561.811	31.25
562.007	31.1
562.203	31.56
562.399	31.62
562.595	31.38
562.791	32.04
562.987	32.27
563.183	32.86
563.379	32.57
563.575	32.71
563.771	32.24
563.966	32.13
564.162	32.77
564.358	32.48
564.554	32.27
564.75	32.48
564.945	32.44
565.141	32.54
565.337	31.88
565.533	31.54
565.728	32.07
565.924	32.59
566.12	33.39
566.315	33.54
566.511	33.71
566.707	34.35
566.902	33.9
567.098	33.58
567.293	33.22
567.489	33.68
567.684	34.2
567.88	33.86
568.076	34.59
568.271	34.29
568.467	33.72
568.662	34.04
568.858	33.98
569.053	35.28
569.248	36.01
569.444	35.97
569.639	36
569.835	35.83
570.03	36.11
570.225	35.65
570.421	35.06
570.616	35.52
570.812	35.4
571.007	35.49
571.202	35.17
571.397	34.95
571.593	35.11
571.788	35.27
571.983	35.62
572.178	35.46
572.374	35.62
572.569	36.04
572.764	35.7
572.959	36.23
573.154	36.61
573.35	36.35
573.545	36.23
573.74	36.51
573.935	36.31
574.13	36.09
574.325	36.36
574.52	36.76
574.715	36.7
574.91	37.07
575.105	36.46
575.3	35.91
575.495	36.27
575.69	36.58
575.885	36.48
576.08	36.61
576.275	36.7
576.47	35.99
576.665	35.85
576.86	35.98
577.055	35.95
577.25	36.85
577.444	36.87
577.639	36.89
577.834	36.32
578.029	36.17
578.224	36.08
578.418	35.86
578.613	37.39
578.808	37.58
579.003	37.96
579.197	38.01
579.392	37.82
579.587	38.09
579.781	37.71
579.976	38.74
580.171	38.82
580.365	38.92
580.56	39.28
580.755	38.57
580.949	37.64
581.144	37.83
581.338	37.76
581.533	37.09
581.727	36.93
581.922	36.82
582.116	37.05
582.311	37.15
582.505	37.17
582.7	36.99
582.894	36.97
583.089	37.06
583.283	37.15
583.478	37.35
583.672	38.11
583.866	38.36
584.061	38.41
584.255	38.2
584.449	37.93
584.644	37.86
584.838	38.45
585.032	38.91
585.226	39.58
585.421	38.89
585.615	38.84
585.809	38.64
586.003	38.65
586.198	39.75
586.392	38.8
586.586	38.89
586.78	39.47
586.974	40.04
587.168	39.22
587.363	39.09
587.557	39.14
587.751	39.45
587.945	39.23
588.139	39.31
588.333	38.51
588.527	38.78
588.721	39.07
588.915	39.34
589.109	38.75
589.303	39.34
589.497	38.94
589.691	38.8
589.885	38.34
590.079	38.62
590.273	38
590.466	37.96
590.66	38.28
590.854	38.62
591.048	38.25
591.242	37.68
591.436	37.81
591.629	38.18
591.823	38.71
592.017	39.4
592.211	39.53
592.404	40.48
592.598	40.65
592.792	40.41
592.986	40.32
593.179	40.34
593.373	40.76
593.567	40.44
593.76	41.18
593.954	41.14
594.147	40.41
594.341	39.94
594.535	39.58
594.728	39.21
594.922	39.33
595.115	39.26
595.309	39.34
595.502	39.29
595.696	39.25
595.889	39.1
596.083	38.94
596.276	39.45
596.47	39.94
596.663	40.12
596.856	40.12
597.05	40.56
597.243	40.55
597.437	40.48
597.63	40.96
597.823	40.76
598.017	40.53
598.21	41.07
598.403	41.24
598.596	40.94
598.79	41.07
598.983	42.32
599.176	42.21
599.369	42.57
599.563	42.61
599.756	42.66
599.949	43.52
600.142	43.11
600.335	43.33
600.528	43.84
600.722	44.37
600.915	44.64
601.108	43.51
601.301	43.71
601.494	42.86
601.687	42.99
601.88	42.9
602.073	42.54
602.266	42.85
602.459	42.22
602.652	41.86
602.845	41.55
603.038	41.64
603.231	41.94
603.424	41.95
603.617	42.08
603.809	41.6
604.002	41.36
604.195	41.59
604.388	41.73
604.581	41.81
604.774	41.3
604.966	41.77
605.159	41.65
605.352	41.52
605.545	41.44
605.737	42.07
605.93	42.7
606.123	42.83
606.316	41.83
606.508	41.9
606.701	41.72
606.894	42.03
607.086	41.31
607.279	40.71
607.471	40.87
607.664	40.66
607.857	40.56
608.049	40.5
608.242	39.99
608.434	40.3
608.627	40.78
608.819	40.93
609.012	40.73
609.204	40.64
609.397	40.72
609.589	40.68
609.782	40.55
609.974	40.51
610.166	39.4
610.359	40.01
610.551	39.89
610.743	38.93
610.936	38.82
611.128	38.77
611.32	39.07
611.513	38.43
611.705	37.99
611.897	37.63
612.09	37.59
612.282	39.12
612.474	39.21
612.666	40.62
612.858	41.22
613.051	40.83
613.243	41.65
613.435	41.78
613.627	42.51
613.819	43.93
614.011	43.63
614.203	43.35
614.395	43.07
614.588	42.95
614.78	42.34
614.972	41.55
615.164	42.66
615.356	42.44
615.548	42.58
615.74	43.75
615.932	43.66
616.124	44.58
616.315	45.07
616.507	45.14
616.699	44.09
616.891	43.54
617.083	43.92
617.275	43.05
617.467	43.15
617.659	42.77
617.85	41.91
618.042	41.91
618.234	42.45
618.426	42.3
618.618	42.19
618.809	43.54
619.001	43.75
619.193	43.52
619.384	43.66
619.576	43.98
619.768	44.42
619.959	43.9
620.151	43.46
620.343	42.82
620.534	43.14
620.726	43.81
620.917	43.11
621.109	43.41
621.301	44.79
621.492	45.3
621.684	45.2
621.875	45.4
622.067	46.34
622.258	45.97
622.45	46.62
622.641	46.85
622.832	46.27
623.024	46.58
623.215	45.65
623.407	45.03
623.598	44.68
623.789	44.18
623.981	43.73
624.172	43.55
624.363	43.96
624.555	43.27
624.746	42.23
624.937	42.69
625.129	42.94
625.32	43.92
625.511	43.35
625.702	43.91
625.893	44.3
626.085	44.98
626.276	45.39
626.467	45.06
626.658	45.03
626.849	46.07
627.04	45.41
627.231	45.15
627.422	45.41
627.614	45.65
627.805	44.86
627.996	44.73
628.187	43.78
628.378	43.05
628.569	43.68
628.76	43.97
628.951	42.93
629.142	44.16
629.332	44.33
629.523	43.89
629.714	44.72
629.905	44.68
630.096	45.01
630.287	45.22
630.478	44.26
630.669	44.38
630.859	43.91
631.05	44.14
631.241	43.26
631.432	43.41
631.623	42.99
631.813	42.39
632.004	43.47
632.195	42.87
632.385	42.96
632.576	43.94
632.767	43.19
632.957	43.89
633.148	44.72
633.339	45.11
633.529	44.86
633.72	46.1
633.91	46.3
634.101	45.92
634.292	46.66
634.482	46.03
634.673	45.08
634.863	45.03
635.054	45.14
635.244	43.84
635.435	43.76
635.625	43.77
635.815	43.04
636.006	42.07
636.196	41.69
636.387	40.81
636.577	41.14
636.767	42
636.958	42.39
637.148	42.24
637.338	42.8
637.529	43.43
637.719	43.94
637.909	43.09
638.099	44.26
638.29	44.49
638.48	44.52
638.67	45.13
638.86	45.43
639.05	45.38
639.241	45.91
639.431	46.05
639.621	44.81
639.811	43.44
640.001	43.61
640.191	43.16
640.381	43.01
640.571	43.71
640.761	42.89
640.951	42.73
641.141	42.7
641.331	41.83
641.521	41.32
641.711	41.24
641.901	42.42
642.091	43.58
642.281	43.22
642.471	43.1
642.661	42.74
642.851	44.16
643.041	43.82
643.231	44.09
643.42	44.7
643.61	45.52
643.8	45.51
643.99	45.43
644.18	44.17
644.369	43.78
644.559	44.93
644.749	44.7
644.939	43.47
645.128	44.11
645.318	43.55
645.508	44.01
645.697	43.29
645.887	43.46
646.076	43.17
646.266	44.03
646.456	44.83
646.645	44.5
646.835	45.1
647.024	46.29
647.214	46.2
647.403	47.11
647.593	47.02
647.782	47.27
647.972	46.85
648.161	46.35
648.351	45.81
648.54	46.35
648.73	46.63
648.919	46.11
649.108	44.33
649.298	44.28
649.487	43.05
649.677	42.64
649.866	42.42
650.055	42.17
650.244	41.89
650.434	41.7
650.623	40.93
650.812	41.02
651.002	41.85
651.191	42.28
651.38	41.97
651.569	43.38
651.758	43.09
651.947	43.86
652.137	44.44
652.326	45.32
652.515	45.88
652.704	46.09
652.893	44.48
653.082	43.44
653.271	43.64
653.46	43.74
653.649	43.85
653.838	43.42
654.027	42.31
654.216	43.16
654.405	44.72
654.594	45.68
654.783	45.89
654.972	46.68
655.161	46.35
655.35	46.48
655.539	45.86
655.728	44.76
655.916	44.67
656.105	45.47
656.294	44.66
656.483	43.46
656.672	41.77
656.86	41.17
657.049	41.23
657.238	40.73
657.427	41.3
657.615	41.94
657.804	41.91
657.993	42.96
658.181	43.19
658.37	43.34
658.559	42.5
658.747	42.76
658.936	42.41
659.125	42.2
659.313	43.53
659.502	43.23
659.69	43.07
659.879	44.29
660.067	43.51
660.256	43.49
660.444	43.18
660.633	44.08
660.821	44.7
661.01	46.17
661.198	46.71
661.387	45.6
661.575	46.27
661.763	47.29
661.952	45.68
662.14	45.01
662.328	44.67
662.517	45.03
662.705	45.62
662.893	46.15
663.082	45.93
663.27	45.25
663.458	46.09
663.646	46.43
663.834	46.16
664.023	46.1
664.211	47
664.399	47.19
664.587	47.31
664.775	47.17
664.963	46.71
665.152	47.54
665.34	48.26
665.528	48.3
665.716	48.48
665.904	47.78
666.092	48.59
666.28	48.92
666.468	48.85
666.656	49.59
666.844	47.62
667.032	48.01
667.22	45.28
667.408	45.62
667.596	45.13
667.784	43.53
667.971	43.61
668.159	43.32
668.347	43.85
668.535	44.13
668.723	43.73
668.911	45.67
669.098	45.19
669.286	45.63
669.474	44.66
669.662	44.6
669.849	44.56
670.037	45.4
670.225	46.42
670.413	45.75
670.6	45.51
670.788	46.23
670.976	45.27
671.163	45.28
671.351	46.63
671.538	48.03
671.726	48.4
671.913	49.75
672.101	48.08
672.289	47.37
672.476	47.84
672.664	47.79
672.851	45.89
673.039	46.8
673.226	47.43
673.413	47.67
673.601	45.63
673.788	45.11
673.976	44.61
674.163	45.36
674.35	46.06
674.538	46.21
674.725	46.1
674.912	46.52
675.1	46.33
675.287	46.42
675.474	46.64
675.662	47.53
675.849	48.11
676.036	47.79
676.223	48
676.411	46.75
676.598	44.68
676.785	44.24
676.972	44.25
677.159	43.62
677.346	44.25
677.533	44.31
677.721	44.33
677.908	44.62
678.095	43.92
678.282	43.6
678.469	43.5
678.656	45.39
678.843	45.44
679.03	45.86
679.217	46.58
679.404	45.1
679.591	45.26
679.778	44.66
679.964	44.32
680.151	45.15
680.338	44.91
680.525	46.35
680.712	45.39
680.899	46.63
681.086	45.96
681.272	46.17
681.459	46.32
681.646	46.05
681.833	47.16
682.02	46.63
682.206	47.7
682.393	49.09
682.58	47.63
682.766	47.71
682.953	46.95
683.14	47.79
683.326	47.26
683.513	46.86
683.7	46.5
683.886	45.8
684.073	45.61
684.259	44.23
684.446	43.17
684.632	42.81
684.819	43
685.005	43.59
685.192	44.18
685.378	42.31
685.565	44.09
685.751	44.63
685.938	44.5
686.124	45.71
686.31	45.98
686.497	47.07
686.683	49.6
686.87	49.68
687.056	49.22
687.242	48.6
687.429	49.69
687.615	49.72
687.801	50.36
687.987	49.54
688.174	47.95
688.36	48.38
688.546	46.78
688.732	44.1
688.918	43.32
689.105	42.85
689.291	43.3
689.477	42.5
689.663	41.58
689.849	39.04
690.035	41.64
690.221	42.63
690.407	42.65
690.593	44.08
690.779	44.15
690.965	44.71
691.151	44.01
691.337	43.92
691.523	46.54
691.709	46.92
691.895	47.3
692.081	45.58
692.267	45.11
692.453	44.01
692.639	44.12
692.825	45.61
693.011	46.5
693.196	46.59
693.382	45.31
693.568	43.3
693.754	41.71
693.94	42.52
694.125	42.33
694.311	42.47
694.497	42.23
694.682	40.31
694.868	39.8
695.054	39.86
695.239	39.19
695.425	39.28
695.611	40.17
695.796	42.04
695.982	41.61
696.168	42.03
696.353	41.38
696.539	41.88
696.724	42.22
696.91	42.38
697.095	41.74
697.281	43.87
697.466	44.69
697.652	43.73
697.837	42.86
698.023	43.15
698.208	43.3
698.393	43.73
698.579	43.09
698.764	42.58
698.949	43.32
699.135	42.94
699.32	42.11
699.505	42.04
699.691	42.94
699.876	43.76
700.061	43.84
700.246	43.65
700.432	43.88
700.617	43.51
700.802	43.71
700.987	41.9
701.172	44.11
701.358	45.08
701.543	45.71
701.728	45.36
701.913	44.96
702.098	45.44
702.283	45.89
702.468	44.64
702.653	46.92
702.838	48.26
703.023	47.15
703.208	46.33
703.393	45.31
703.578	44.12
703.763	44.6
703.948	45.14
704.133	42.46
704.318	42.89
704.503	45.24
704.688	44.81
704.873	45.16
705.057	47.21
705.242	46.24
705.427	45.87
705.612	45.65
705.797	45.27
705.981	43.69
706.166	46.54
706.351	46.38
706.536	46.57
706.72	45.48
706.905	47.92
707.09	48.1
707.274	48.79
707.459	46.43
707.644	47.2
707.828	48.02
708.013	47.95
708.197	46.61
708.382	47.22
708.567	47.83
708.751	48.39
708.936	45.98
709.12	45.89
709.305	45.06
709.489	47.86
709.673	47.13
709.858	45.19
710.042	44.88
710.227	46.62
710.411	45.06
710.596	44.89
710.78	43.63
710.964	42.85
711.149	42.65
711.333	42.65
711.517	41.93
711.702	41.08
711.886	42.02
712.07	45.06
712.254	43.18
712.438	43.01
712.623	40.99
712.807	41.17
712.991	42.67
713.175	42.51
713.359	41.54
713.544	41.04
713.728	43.05
713.912	42.51
714.096	41.38
714.28	42.83
714.464	43.32
714.648	43.61
714.832	44.86
715.016	45.24
715.2	45.24
715.384	47.74
715.568	47.39
715.752	46.02
715.936	45.65
716.12	45.5
716.304	46.18
716.488	48.77
716.671	49.94
716.855	49.15
717.039	47.37
717.223	47.41
717.407	45.58
717.59	47.48
717.774	46.55
717.958	49.04
718.142	47.65
718.325	45.64
718.509	42.5
718.693	41.17
718.877	40.26
719.06	41.78
719.244	42.84
719.428	42.7
719.611	41.77
719.795	43.1
719.978	40.99
720.162	40.45
720.345	41.79
720.529	41.5
720.713	44.4
720.896	45.32
721.08	42.38
721.263	41.03
721.446	42.13
721.63	40.57
721.813	41.04
721.997	40.6
722.18	39.61
722.364	38.63
722.547	37.71
722.73	36.82
722.914	40.48
723.097	41.69
723.28	40.74
723.464	39.66
723.647	41.05
723.83	41.34
724.013	43.99
724.197	45.98
724.38	45.63
724.563	47.92
724.746	46.48
724.929	43.44
725.112	39.85
725.296	41.79
725.479	42.21
725.662	44.46
725.845	43.67
726.028	40.56
726.211	41.13
726.394	41.19
726.577	40.6
726.76	39.2
726.943	39.96
727.126	44.39
727.309	42.33
727.492	41.37
727.675	39.17
727.858	41.07
728.041	42.3
728.224	42.53
728.407	43.71
728.589	44.52
728.772	44.76
728.955	45.2
729.138	44.51
729.321	44.36
729.503	45.94
729.686	45.55
729.869	42.34
730.052	41.71
730.234	39.94
730.417	41.29
730.6	43.17
730.782	43.81
730.965	44.22
731.148	45.59
731.33	47.5
731.513	44.51
731.695	45.38
731.878	46.5
732.061	46.27
732.243	47.06
732.426	45.12
732.608	42.56
732.791	43.07
732.973	41.77
733.156	40.19
733.338	39.23
733.52	41.89
733.703	42.4
733.885	43.33
734.068	44.46
734.25	45.31
734.432	47.14
734.615	46.12
734.797	46.15
734.979	47.9
735.162	48.89
735.344	49.98
735.526	48.36
735.708	46.47
735.891	48.72
736.073	47.23
736.255	47.46
736.437	44.21
736.619	45.51
736.802	45.47
736.984	42.8
737.166	42.9
737.348	43.27
737.53	44.63
737.712	43.97
737.894	42.34
738.076	44.9
738.258	42.79
738.44	44.05
738.622	41.95
738.804	41.23
738.986	42.14
739.168	42.11
739.35	41.67
739.532	40.9
739.714	44.92
739.896	44.39
740.078	46.05
740.259	45.37
740.441	45.42
740.623	46.53
740.805	44.4
740.987	46.26
741.168	45.96
741.35	46.95
741.532	46.51
741.714	43.88
741.895	42.1
742.077	41.33
742.259	46.22
742.44	45.91
742.622	46.36
742.804	49.94
742.985	48.51
743.167	47.52
743.348	45.12
743.53	43.07
743.711	41.15
743.893	42.11
744.075	38.75
744.256	33.94
744.438	35.65
744.619	34.77
744.8	33.63
744.982	30.99
745.163	29.88
745.345	31
745.526	36.77
745.707	36.28
745.889	34.96
746.07	35.9
746.252	34.22
746.433	31.14
746.614	31.92
746.795	31.08
746.977	30.75
747.158	30.93
747.339	31.47
747.52	30.08
747.702	32.18
747.883	37.15
748.064	36.73
748.245	37.56
748.426	39.35
748.607	40.07
748.788	39.07
748.97	41
749.151	44.03
749.332	41.82
749.513	41.5
749.694	39.69
749.875	32.16
750.056	31.59
750.237	33.96
750.418	34.38
750.599	32.75
750.78	35.63
750.96	36.77
751.141	35.06
751.322	37.65
751.503	39.44
751.684	38.12
751.865	42.55
752.046	44.66
752.226	45.21
752.407	44.95
752.588	46.39
752.769	46.56
752.949	43.83
753.13	44.42
753.311	44.12
753.492	43.52
753.672	44.71
753.853	34.42
754.034	30.92
754.214	29.04
754.395	28.58
754.575	30.23
754.756	34.24
754.937	37.31
755.117	33.79
755.298	28.36
755.478	26.59
755.659	28.15
755.839	37.42
756.02	39.86
756.2	41.27
756.381	41.99
756.561	37.58
756.741	31.36
756.922	32.22
757.102	32.27
757.283	34.51
757.463	33.56
757.643	36.73
757.823	36.73
758.004	34.81
758.184	33.09
758.364	28.36
758.545	33.52
758.725	32.57
758.905	28.68
759.085	31.91
759.265	31.86
759.446	31.72
759.626	33.26
759.806	33.98
759.986	36.49
760.166	35.22
760.346	37.32
760.526	37.98
760.706	44.09
760.886	44.93
761.066	43.85
761.246	42.77
761.426	44.12
761.606	41.58
761.786	44.74
761.966	44.04
762.146	43.99
762.326	44.68
762.506	41.79
762.686	42.95
762.866	45.14
763.046	43.63
763.225	45.2
763.405	44.91
763.585	46.27
763.765	44.44
763.945	45.95
764.124	48.38
764.304	47.3
764.484	47.06
764.664	45.76
764.843	45.33
765.023	47.57
765.203	47.73
765.382	46.06
765.562	43.1
765.741	44.22
765.921	42.69
766.101	39.62
766.28	39.25
766.46	40.81
766.639	37.51
766.819	37.95
766.998	37.73
767.178	35.55
767.357	38.53
767.537	41.64
767.716	36.43
767.896	34.61
768.075	39.68
768.254	40.28
768.434	39.28
768.613	40.16
768.792	38.28
768.972	36.46
769.151	35.8
769.33	37.28
769.51	28.79
769.689	30.47
769.868	26.76
770.047	22.07
770.226	24.18
770.406	25.72
770.585	32
770.764	33.22
770.943	36.77
771.122	39.26
771.301	37.37
771.48	44.39
771.66	47.72
771.839	53.95
772.018	53.64
772.197	49.14
772.376	46.42
772.555	43.32
772.734	43.79
772.913	44.4
773.092	48.78
773.271	51.49
773.449	50.64
773.628	44.06
773.807	38.71
773.986	40.8
774.165	47.51
774.344	45.88
774.523	45.84
774.701	46.59
774.88	42.56
775.059	38.9
775.238	37.13
775.417	36.15
775.595	36.78
775.774	42
775.953	39.83
776.131	34.49
776.31	32.18
776.489	30.73
776.667	26.71
776.846	29.42
777.025	32.28
777.203	29.84
777.382	30.3
777.56	32.01
777.739	29.97
777.917	33.1
778.096	36.42
778.274	39.23
778.453	42.63
778.631	41.05
778.81	42.47
778.988	39.08
779.166	41.22
779.345	42.45
779.523	39.68
779.702	40.57
779.88	40.48
780.058	37.74
780.237	39.26
780.415	32.2
780.593	33.75
780.771	29.97
780.95	30.93
781.128	35.13
781.306	32.06
781.484	33.29
781.662	29.98
781.841	32.38
782.019	32.26
782.197	35.42
782.375	41.82
782.553	44.78
782.731	45.67
782.909	49.04
783.087	44.79
783.265	47.91
783.443	51.34
783.621	55.31
783.799	49.07
783.977	47.71
784.155	45.17
784.333	44.66
784.511	39.43
784.689	39.96
784.867	35.76
785.045	33.02
785.223	31.16
785.4	30.28
785.578	31.24
785.756	32.62
785.934	34.63
786.112	29.14
786.289	25.6
786.467	28.76
786.645	23.76
786.823	25.35
787	22.66
787.178	22.27
787.356	22.31
787.533	23.5
787.711	20.66
787.889	20.48
788.066	25.13
788.244	27.55
788.421	24.38
788.599	29.86
788.776	30.3
788.954	34.24
789.131	34.58
789.309	37.26
789.486	26.59
789.664	30.05
789.841	29.76
790.019	30.93
790.196	22.94
790.373	25.41
790.551	23.57
790.728	16.15
790.906	12.92
791.083	12.11
791.26	8.96
791.437	20.99
791.615	22.24
791.792	24.07
791.969	21.25
792.146	24.31
792.324	27.72
792.501	28.01
792.678	33.67
792.855	33.1
793.032	34.84
793.209	40.6
793.387	43.2
793.564	39.49
793.741	33.56
793.918	34.43
794.095	33.09
794.272	34.03
794.449	40.01
794.626	35.56
794.803	41.58
794.98	44.51
795.157	41.75
795.334	36.43
795.511	36.07
795.688	43.11
795.864	42.73
796.041	46.53
796.218	47.72
796.395	43.34
796.572	49.7
796.749	46.91
796.925	45.28
797.102	45.58
797.279	53.75
797.456	53.61
797.632	49.82
797.809	47.66
797.986	45.35
798.162	45.33
798.339	45.67
798.516	44.43
798.692	46.73
798.869	45.57
799.046	46.32
799.222	41.26
799.399	41.96
799.575	41.58
799.752	44.28
799.928	43.76
800.105	39.96
800.281	40.32
800.458	38.22
800.634	34.96
800.811	35.79
800.987	31.56
801.163	34.09
801.34	35.21
801.516	34.51
801.692	37.03
801.869	39.57
802.045	43.45
802.221	41.57
802.398	39.55
802.574	41.44
802.75	43.03
802.926	44.56
803.103	37.7
803.279	35.01
803.455	36.57
803.631	34.54
803.807	35.35
803.983	28.72
804.16	29.69
804.336	28.55
804.512	26.23
804.688	28.99
804.864	26.31
805.04	29.31
805.216	31.2
805.392	30.84
805.568	32.34
805.744	25.94
805.92	27.25
806.096	33.12
806.272	33.36
806.448	24.94
806.623	18.37
806.799	25.26
806.975	12.91
807.151	6.87
807.327	8.78
807.503	5.9
807.678	10.62
807.854	23.3
808.03	18.7
808.206	25.47
808.381	31.67
808.557	33.5
808.733	26.93
808.908	38.67
809.084	34.2
809.26	33.95
809.435	31.13
809.611	33.13
809.787	27.91
809.962	20.98
810.138	20.25
810.313	24.23
810.489	25.41
810.664	28.33
810.84	24.84
811.015	28.3
811.191	28.38
811.366	34.43
811.542	36.73
811.717	41.28
811.892	39.49
812.068	40.02
812.243	36.2
812.419	28.83
812.594	30.68
812.769	28.96
812.944	27.29
813.12	22.74
813.295	19.02
813.47	20.8
813.645	10.48
813.821	27.55
813.996	24.2
814.171	30.63
814.346	31.5
814.521	30.55
814.697	31.03
814.872	31.96
815.047	32.28
815.222	34.57
815.397	25.21
815.572	22.67
815.747	17.24
815.922	16.1
816.097	15.82
816.272	19.42
816.447	13.53
816.622	11.78
816.797	13.77
816.972	14.58
817.147	9.81
817.322	12.76
817.496	10.37
817.671	8.07
817.846	10.35
818.021	17.09
818.196	14.9
818.371	16.99
818.545	16.01
818.72	17.46
818.895	15.79
819.069	17.54
819.244	22.56
819.419	30.1
819.594	30.59
819.768	34.79
819.943	33.16
820.117	37.79
820.292	39.55
820.467	40.96
820.641	39.39
820.816	40.96
820.99	41.14
821.165	42.92
821.339	42.82
821.514	43.35
821.688	43.11
821.863	41.33
822.037	40.73
822.212	40.43
822.386	40.23
822.56	41.2
822.735	41.15
822.909	41.48
823.084	40.91
823.258	40.57
823.432	40.61
823.606	40.65
823.781	41.42
823.955	42.53
824.129	44.01
824.303	43.87
824.478	42.78
824.652	42.69
824.826	44.47
825	44.01
825.174	45.57
825.348	44.83
825.523	43.75
825.697	44.25
825.871	42.16
826.045	39.48
826.219	40.07
826.393	39.52
826.567	39.05
826.741	36.71
826.915	36.35
827.089	34.38
827.263	34.32
827.437	34.93
827.611	33.61
827.784	34.98
827.958	36.24
828.132	34.61
828.306	34.84
828.48	33.88
828.654	32.5
828.827	34.81
829.001	33.06
829.175	37.38
829.349	37.27
829.522	32.13
829.696	27.71
829.87	22.71
830.044	25.94
830.217	28.33
830.391	30.04
830.565	29.07
830.738	21.91
830.912	21.36
831.085	14.29
831.259	14.29
831.432	26.87
831.606	34.36
831.779	35.8
831.953	36.73
832.126	37.83
832.3	35
832.473	41.25
832.647	42.54
832.82	46.77
832.994	49.68
833.167	49.6
833.34	47.29
833.514	44.84
833.687	50.41
833.86	45.92
834.034	45.75
834.207	48.2
834.38	46.15
834.553	48.58
834.727	46.15
834.9	46.99
835.073	49.14
835.246	53.46
835.419	49
835.593	40.29
835.766	43.85
835.939	43.44
836.112	37.77
836.285	32.33
836.458	26.59
836.631	26.28
836.804	20.23
836.977	9.5
837.15	-0.55
837.323	7.24
837.496	9.95
837.669	3.28
837.842	-13.13
838.015	-6.43
838.188	0.48
838.361	-6.72
838.533	-4.52
838.706	-6.87
838.879	-1.04
839.052	-6.71
839.225	-8.93
839.398	-1.39
839.57	4.13
839.743	12.12
839.916	12.1
840.088	15.91
840.261	18.8
840.434	25.75
840.607	14.94
840.779	8.57
840.952	13.24
841.124	12.02
841.297	10.41
841.47	0.61
841.642	-0.8
841.815	-6.58
841.987	-9.62
842.16	6.63
842.332	-0.12
842.505	14.07
842.677	12.72
842.85	29.23
843.022	14.15
843.194	14.73
843.367	25.86
843.539	32.74
843.712	37.77
843.884	40.63
844.056	24.3
844.229	23.45
844.401	25.23
844.573	39.61
844.745	28.01
844.918	52.17
845.09	43.28
845.262	40.54
845.434	38.93
845.606	53.06
845.779	57.58
845.951	70.35
846.123	62.39
846.295	65.23
846.467	36.1
846.639	24.04
846.811	20.42
846.983	19.66
847.155	-102.41
847.327	-138.58
847.499	-311.92
847.671	-107.42
847.843	-129.66
848.015	-219.88
848.187	-134.18
848.359	-105.75
848.531	-66.57
848.703	-38.79
848.875	-59.1
849.047	-13.5
849.218	-3
849.39	-24.77
849.562	-46.16
849.734	-48.04
849.905	-14.16
850.077	10.25
850.249	7.07
850.421	15.24
850.592	9.32
850.764	29.75
850.936	23.23
851.107	15.37
851.279	41.2
851.451	40.09
851.622	50.92
851.794	45.19
851.965	32.5
852.137	37.43
852.308	37.65
852.48	36.13
852.651	23.69
852.823	25.33
852.994	23.59
853.166	18.13
853.337	14.93
853.509	10.24
853.68	0.16
853.851	-4.95
854.023	-7.03
854.194	-37.08
854.365	-44.31
854.537	-40.4
854.708	-34.03
854.879	-27.32
855.05	-25.3
855.222	-32.37
855.393	-20.45
855.564	-10.98
855.735	-23.8
855.906	-26.85
856.078	-6.34
856.249	11.05
856.42	5.26
856.591	1.92
856.762	13.5
856.933	6.61
857.104	19.1
857.275	21.61
857.446	17.64
857.617	25.96
857.788	21.03
857.959	21.7
858.13	8.47
858.301	21.62
858.472	20.43
858.643	37.16
858.814	42.63
858.985	16.49
859.155	-7.82
859.326	6.15
859.497	-7.28
859.668	-6.32
859.839	-1.09
860.009	-5.38
860.18	-29.21
860.351	-9.08
860.522	-8.12
860.692	-20.95
860.863	-2.48
861.034	-15.38
861.204	-45.66
861.375	-37.15
861.546	-30.41
861.716	-23.26
861.887	-11.4
862.057	-27.86
862.228	-36.45
862.398	-77.01
862.569	-171.69
862.739	-263.11
862.91	-206.36
863.08	-138.44
863.251	-185.67
863.421	-213.72
863.592	-206.14
863.762	-225.88
863.932	-221.13
864.103	-222.27
864.273	-307.88
864.443	-187.64
864.614	-93.3
864.784	-76.23
864.954	-73.3
865.125	-6.84
865.295	13.97
865.465	17.87
865.635	29.93
865.805	13.56
865.976	42.72
866.146	8.26
866.316	9.24
866.486	-153.54
866.656	42.59
866.826	121.19
866.996	137.74
867.166	126.67
867.336	148.5
867.506	410.42
867.676	-731.13
867.846	-133.78
868.016	-145.27
868.186	-80.17
868.356	-40.31
868.526	-1.99
868.696	9.27
868.866	24.63
869.036	17.42
869.206	11.94
869.376	19.62
869.545	28.15
869.715	15.99
869.885	23.66
870.055	28.87
870.224	23.17
870.394	39.46
870.564	55.08
870.734	52.78
870.903	84.11
871.073	95.36
871.243	69.89
871.412	95.03
871.582	126.56
871.751	132.88
871.921	97.9
872.091	109.27
872.26	102.24
872.43	76.67
872.599	64.41
872.769	41.28
872.938	27.02
873.108	63.08
873.277	44.92
873.446	12.3
873.616	-14.7
873.785	-29.03
873.955	-26.91
874.124	-31.38
874.293	-30.35
874.463	-18.01
874.632	-11.85
874.801	-25.93
874.971	-68.78
875.14	-120.24
875.309	-75.78
875.478	-72.5
875.647	-83.3
875.817	-54.15
875.986	-36.11
876.155	-31.12
876.324	-21.78
876.493	-41.54
876.662	-2.95
876.831	22.07
877	24.59
877.17	-58.71
877.339	-64
877.508	-22.01
877.677	684.02
877.846	-17.58
878.015	-48.28
878.184	-46.13
878.352	-35.96
878.521	-41.21
878.69	-28.63
878.859	-5.74
879.028	-0.54
879.197	-13.66
879.366	-10.89
879.534	-2.35
879.703	3.33
879.872	14.71
880.041	10.21
880.21	13.55
880.378	16.84
880.547	19.51
880.716	19.23
880.884	24.47
881.053	33.34
881.222	35.71
881.39	36.29
881.559	35.93
881.727	37.3
881.896	39.77
882.065	39.35
882.233	38.67
882.402	36.74
882.57	38.73
882.739	40.21
882.907	38.69
883.076	40.74
883.244	38.18
883.412	35.75
883.581	32.62
883.749	34.22
883.918	32.93
884.086	29.6
884.254	26.15
884.423	25.14
884.591	20.6
884.759	11.15
884.927	4.52
885.096	8.87
885.264	8.01
885.432	6.48
885.6	2.61
885.769	5.24
885.937	5.44
886.105	19.07
886.273	17.25
886.441	1.49
886.609	3.44
886.777	3.34
886.945	-17.13
887.113	-21.31
887.281	-2.56
887.449	-9.02
887.617	-7.76
887.785	-11.69
887.953	0.06
888.121	-18.39
888.289	-11.82
888.457	-21.84
888.625	-27.14
888.793	-21.68
888.961	-13.87
889.129	-29.22
889.296	-82.6
889.464	-143.46
889.632	-83.66
889.8	-247.75
889.967	-117.19
890.135	-97.05
