Data from JASIL_3000_Reflection_01.txt Node
Date: Mon Nov 09 10:00:34 EST 2015
User: Geneva
Spectrometer: USB4E03002
Autoset integration time: false
Trigger mode: 4
Integration Time (sec): 1.000000E-1
Scans to average: 10
Electric dark correction enabled: false
Nonlinearity correction enabled: false
Boxcar width: 5
Stray light correction enabled: false
XAxis mode: Wavelengths
Stop averaging: false
Number of Pixels in Spectrum: 3648
>>>>>Begin Spectral Data<<<<<
177.575	90.9
177.794	101.62
178.014	90.64
178.233	76.87
178.452	69.03
178.672	65.77
178.891	66.02
179.11	62.5
179.33	47.31
179.549	62.39
179.768	56.32
179.987	64.32
180.207	62.46
180.426	74.51
180.645	102.05
180.864	109.15
181.084	142.46
181.303	109.03
181.522	95.67
181.741	99.69
181.96	93.13
182.179	124.7
182.398	119.62
182.618	111.38
182.837	108.84
183.056	95.64
183.275	80.35
183.494	70.68
183.713	109.29
183.932	132.01
184.151	101.3
184.37	85.71
184.589	55.19
184.808	52.89
185.027	45.28
185.246	24.77
185.465	11.3
185.684	37.43
185.903	15.98
186.122	-15.36
186.341	-61.55
186.56	-83.43
186.779	-25.59
186.998	-5.43
187.216	-9.24
187.435	-8.83
187.654	2.43
187.873	21.76
188.092	-5.26
188.311	32.53
188.53	65.04
188.748	62.75
188.967	31.47
189.186	28.42
189.405	34.98
189.623	74.9
189.842	115
190.061	188.28
190.28	161.09
190.498	157.77
190.717	156.57
190.936	154.91
191.154	236.89
191.373	142.4
191.592	149.43
191.81	105.17
192.029	164.83
192.248	-66.89
192.466	-32.66
192.685	-53.04
192.904	-1.97
193.122	-32.76
193.341	-117.3
193.559	-117.87
193.778	-171.52
193.996	-93.54
194.215	-47.74
194.433	-22.67
194.652	32.21
194.87	37.11
195.089	44.26
195.307	53.17
195.526	66.24
195.744	66.25
195.963	63.24
196.181	54.05
196.399	41.56
196.618	53.48
196.836	-6.96
197.055	-3.46
197.273	-38.73
197.491	-10.17
197.71	-30.23
197.928	-69.75
198.146	-71.73
198.365	-110.11
198.583	-46.48
198.801	-20.74
199.019	-38.15
199.238	24.07
199.456	20.27
199.674	44.16
199.892	52.97
200.111	87.38
200.329	117.73
200.547	150.92
200.765	167.54
200.983	271.27
201.202	535.65
201.42	594.96
201.638	277.11
201.856	660.56
202.074	-1032.43
202.292	-980.49
202.51	290.64
202.728	252.78
202.946	302.6
203.165	107.28
203.383	67.38
203.601	68.88
203.819	56.98
204.037	37.7
204.255	66.67
204.473	53.48
204.691	93.89
204.909	54.55
205.127	37.37
205.345	52.4
205.562	207.87
205.78	103.91
205.998	104.88
206.216	89.17
206.434	111.45
206.652	116.84
206.87	215.19
207.088	128.57
207.306	52.4
207.523	60.7
207.741	96.32
207.959	92.27
208.177	91.7
208.395	96.11
208.612	80.91
208.83	52.55
209.048	55.56
209.266	11.72
209.483	36.12
209.701	99.66
209.919	77.59
210.136	-8.31
210.354	-3.98
210.572	24.01
210.79	-9.88
211.007	11.88
211.225	61.35
211.442	26.96
211.66	46.47
211.878	39.92
212.095	17.99
212.313	15.36
212.53	23.08
212.748	24.36
212.966	28.44
213.183	30.3
213.401	27.68
213.618	25.81
213.836	32.52
214.053	28.44
214.271	26.39
214.488	47.09
214.705	50.61
214.923	64.1
215.14	80.22
215.358	63.14
215.575	67.51
215.793	88.22
216.01	87.97
216.227	110.22
216.445	143.5
216.662	113.86
216.879	97.99
217.097	95.2
217.314	91
217.531	88.37
217.749	83.23
217.966	113.36
218.183	126.21
218.4	132.56
218.618	56
218.835	30.96
219.052	-17.86
219.269	-180.7
219.487	-29.24
219.704	-366.67
219.921	466.67
220.138	-102.56
220.355	106.85
220.572	0
220.79	-824.24
221.007	13.64
221.224	58.82
221.441	70.47
221.658	106.95
221.875	100.8
222.092	68.48
222.309	50.74
222.526	33.11
222.743	18.34
222.96	47.47
223.177	55.01
223.394	37.41
223.611	31.57
223.828	-42.58
224.045	-65.44
224.262	-26.59
224.479	-25.48
224.696	-33.07
224.913	-63.58
225.13	-74.78
225.347	-71.57
225.564	-56.17
225.781	-43.31
225.997	-42.8
226.214	-16.07
226.431	-2.98
226.648	1.04
226.865	8.41
227.082	8.6
227.298	-2.05
227.515	-0.54
227.732	0.3
227.949	-0.83
228.165	2.19
228.382	11.91
228.599	11.24
228.816	10.82
229.032	2.09
229.249	-1.93
229.466	-2.59
229.682	3.11
229.899	3.45
230.116	-1.85
230.332	-6.05
230.549	-11.97
230.765	-41.07
230.982	-29.25
231.199	-22.29
231.415	11.25
231.632	8.85
231.848	12.84
232.065	25.32
232.281	27.44
232.498	39.13
232.714	49.71
232.931	39.38
233.147	45.93
233.364	48.35
233.58	38.49
233.797	23.22
234.013	25.15
234.23	14.51
234.446	20.4
234.662	28.91
234.879	19.84
235.095	20.17
235.312	27.01
235.528	16.85
235.744	8.08
235.961	19.62
236.177	20.8
236.393	22.69
236.61	28.46
236.826	27.97
237.042	24.91
237.258	27.72
237.475	28.99
237.691	33.3
237.907	39.24
238.123	39.47
238.339	38.41
238.556	43.98
238.772	27.64
238.988	31.88
239.204	24.4
239.42	23.95
239.636	22.06
239.853	25.49
240.069	18.06
240.285	16.01
240.501	21.43
240.717	19.73
240.933	16.23
241.149	21.59
241.365	20.48
241.581	16.07
241.797	16.57
242.013	17.78
242.229	12.01
242.445	15.1
242.661	15.8
242.877	10.94
243.093	10
243.309	14.68
243.525	13.56
243.741	15.92
243.957	21.18
244.173	20.3
244.388	14.83
244.604	14.6
244.82	12.9
245.036	12.36
245.252	12.31
245.468	13.91
245.683	10.26
245.899	11.07
246.115	9.08
246.331	9.41
246.547	8.6
246.762	11.44
246.978	12.93
247.194	11.61
247.409	12.4
247.625	11.29
247.841	11
248.057	15.06
248.272	17.3
248.488	19.77
248.703	18.92
248.919	18.49
249.135	11.53
249.35	8.7
249.566	10.96
249.782	6.63
249.997	8.91
250.213	3.17
250.428	3.15
250.644	-1.63
250.859	0.63
251.075	-0.42
251.29	0.95
251.506	6.64
251.721	6.96
251.937	8.78
252.152	12.98
252.368	15.41
252.583	20.62
252.798	26.95
253.014	32.44
253.229	30.56
253.445	29.07
253.66	26.4
253.875	20.8
254.091	16.92
254.306	20.8
254.521	27.71
254.737	24.53
254.952	25.57
255.167	13.39
255.383	6.92
255.598	1.37
255.813	7.25
256.028	7.7
256.244	6.29
256.459	6.8
256.674	8.68
256.889	5.53
257.104	7.56
257.32	7.61
257.535	11.9
257.75	12.52
257.965	13.33
258.18	13.05
258.395	13.63
258.61	14.66
258.826	13.85
259.041	11.69
259.256	7.63
259.471	7.1
259.686	7.08
259.901	6.35
260.116	5.39
260.331	3.38
260.546	5.2
260.761	2.84
260.976	1.08
261.191	4.14
261.406	4.65
261.621	11.92
261.836	12.65
262.05	8.25
262.265	9.84
262.48	10.25
262.695	11.07
262.91	7.04
263.125	7.33
263.34	4.84
263.555	4.7
263.769	7.16
263.984	7.26
264.199	5.47
264.414	9.61
264.629	11.35
264.843	12.74
265.058	12.87
265.273	11.03
265.488	14.11
265.702	15.22
265.917	17.21
266.132	10.9
266.346	9.49
266.561	11.53
266.776	12.53
266.99	9.87
267.205	15.03
267.42	16.93
267.634	21.06
267.849	19.59
268.063	20.79
268.278	15.72
268.492	22.12
268.707	23.25
268.922	21.87
269.136	18.87
269.351	13.35
269.565	12.72
269.78	9.85
269.994	9.56
270.209	11.29
270.423	9.99
270.637	12.22
270.852	11.96
271.066	11.24
271.281	11.92
271.495	14.15
271.709	17.63
271.924	13.15
272.138	16.16
272.353	15.28
272.567	12.86
272.781	15.79
272.996	17.13
273.21	12.95
273.424	9.24
273.638	5.95
273.853	5.22
274.067	7.98
274.281	6.55
274.495	3.8
274.71	3.26
274.924	5.4
275.138	5.87
275.352	1.86
275.566	2.08
275.781	4.54
275.995	8.14
276.209	9.43
276.423	5.56
276.637	7.89
276.851	9.99
277.065	8.63
277.279	8.31
277.493	4.7
277.707	5.8
277.921	7.39
278.135	9.49
278.349	4.26
278.563	0.55
278.777	2.49
278.991	0.69
279.205	-1.61
279.419	-0.26
279.633	-3.66
279.847	-6.05
280.061	-6.09
280.275	-2.08
280.489	-1.79
280.703	-0.02
280.917	1.23
281.131	2.3
281.344	8.38
281.558	8.25
281.772	6.98
281.986	8.37
282.2	10.67
282.414	9.39
282.627	8.48
282.841	6.65
283.055	7.69
283.269	10.09
283.482	9.38
283.696	8.05
283.91	7.68
284.123	6.94
284.337	8.08
284.551	10.5
284.764	13.36
284.978	14.41
285.192	14.77
285.405	15.09
285.619	12.43
285.833	11.44
286.046	9.2
286.26	9.19
286.473	9.71
286.687	8.13
286.9	5.19
287.114	1.94
287.327	0.42
287.541	0.32
287.754	-3.08
287.968	-1.55
288.181	-3.21
288.395	-5.09
288.608	-4.81
288.822	-2.01
289.035	-1.13
289.248	-1.54
289.462	-0.31
289.675	0.18
289.889	0.82
290.102	3.7
290.315	4.69
290.529	5.41
290.742	7.73
290.955	7.38
291.169	4.2
291.382	3.09
291.595	1.31
291.808	2.25
292.022	2.62
292.235	2.45
292.448	3.24
292.661	0.98
292.875	1.19
293.088	0.89
293.301	1.84
293.514	3.35
293.727	4.76
293.94	5.29
294.153	5.05
294.367	3.63
294.58	2.69
294.793	0.92
295.006	0.99
295.219	3.91
295.432	2.21
295.645	3.57
295.858	3.56
296.071	3.24
296.284	6.09
296.497	4.21
296.71	4.16
296.923	5.82
297.136	6.64
297.349	8.16
297.562	8.13
297.775	8.98
297.988	10.25
298.201	10.52
298.414	11.32
298.626	11.45
298.839	11.88
299.052	12.87
299.265	14.58
299.478	14.58
299.691	13.36
299.903	15.14
300.116	15.84
300.329	13.68
300.542	14.48
300.755	13.69
300.967	12.03
301.18	13.83
301.393	11.57
301.605	10.11
301.818	7.41
302.031	8.58
302.243	4.8
302.456	3.61
302.669	6.01
302.881	7.02
303.094	4.84
303.307	6.66
303.519	2.44
303.732	4.26
303.944	0.9
304.157	3.81
304.37	1.91
304.582	0.81
304.795	6.11
305.007	3.61
305.22	0.29
305.432	2.67
305.645	-0.2
305.857	5.01
306.069	3.4
306.282	7.74
306.494	8.37
306.707	5.78
306.919	5.39
307.132	2.01
307.344	0.89
307.556	0.37
307.769	0.73
307.981	1.85
308.193	1
308.406	3.57
308.618	3.07
308.83	5.29
309.043	8.44
309.255	9.74
309.467	8.54
309.679	9.59
309.892	11.44
310.104	12.13
310.316	11.17
310.528	13.2
310.74	11.68
310.953	11.16
311.165	9.8
311.377	8.63
311.589	5.99
311.801	6.67
312.013	5.54
312.225	4.82
312.437	3.9
312.649	3.62
312.862	0.1
313.074	-0.2
313.286	-0.2
313.498	-0.43
313.71	-0.8
313.922	3.27
314.134	5.12
314.346	6.84
314.558	6.93
314.77	7.87
314.982	9.56
315.193	12.15
315.405	11.99
315.617	11.41
315.829	10.19
316.041	11.13
316.253	10.39
316.465	8.33
316.677	8.43
316.888	11.07
317.1	9.96
317.312	7.86
317.524	7.25
317.736	10.25
317.947	10.22
318.159	10.31
318.371	12.86
318.583	8.79
318.794	10.48
319.006	12.5
319.218	9.48
319.43	11.23
319.641	14.16
319.853	13.88
320.064	8.73
320.276	8.59
320.488	7.09
320.699	3.91
320.911	7.84
321.123	9.28
321.334	6.12
321.546	4.08
321.757	1.2
321.969	-2.24
322.18	-0.89
322.392	0.86
322.603	-0.8
322.815	3.23
323.026	8.1
323.238	10.19
323.449	8.11
323.661	8.86
323.872	8.85
324.083	11.22
324.295	12.85
324.506	12.14
324.718	14.32
324.929	17.2
325.14	16.23
325.352	13.97
325.563	13.8
325.774	13.11
325.986	11.65
326.197	14.24
326.408	13.37
326.62	12.3
326.831	15.53
327.042	13.37
327.253	11.15
327.464	10.99
327.676	9.84
327.887	9.18
328.098	10.31
328.309	12.03
328.52	8.97
328.732	9.38
328.943	8.68
329.154	2.62
329.365	1.55
329.576	4.67
329.787	4.35
329.998	3.08
330.209	0.64
330.42	0.22
330.631	-3.44
330.842	-2.14
331.053	-1.3
331.264	0.94
331.475	5.23
331.686	9.16
331.897	8.71
332.108	8.34
332.319	10.43
332.53	10.92
332.741	10.93
332.952	14.64
333.163	16.99
333.374	16.79
333.585	14.41
333.795	12.34
334.006	14.05
334.217	11.64
334.428	11.6
334.639	9.48
334.849	9.29
335.06	10.09
335.271	9.31
335.482	8.25
335.692	6.72
335.903	9.96
336.114	11.01
336.325	8.2
336.535	8.49
336.746	8.75
336.957	11.81
337.167	11.95
337.378	11.59
337.589	12
337.799	12.9
338.01	12.53
338.22	12.88
338.431	8.26
338.642	7.64
338.852	7.15
339.063	6.47
339.273	8.39
339.484	9.2
339.694	8.66
339.905	8.56
340.115	9.84
340.326	8.12
340.536	6.84
340.746	10.35
340.957	11.59
341.167	13.04
341.378	11.56
341.588	7.76
341.799	7.43
342.009	7.84
342.219	5.9
342.43	3.96
342.64	6.64
342.85	8
343.061	8.21
343.271	7.32
343.481	6.18
343.691	8.41
343.902	9.91
344.112	9.76
344.322	7.48
344.532	7.87
344.743	7.75
344.953	5.5
345.163	4.73
345.373	3.65
345.583	2.99
345.793	2.64
346.004	1.98
346.214	-1.19
346.424	-3
346.634	-1.47
346.844	0.19
347.054	0.51
347.264	-0.05
347.474	0.97
347.684	3.34
347.894	5.57
348.104	7.63
348.314	8.95
348.524	11.65
348.734	15.19
348.944	14.54
349.154	13.5
349.364	11.69
349.574	15.17
349.784	13.41
349.994	15.12
350.204	14.44
350.413	14.58
350.623	13.94
350.833	13.19
351.043	10.69
351.253	12.49
351.463	13.02
351.672	14.49
351.882	13.91
352.092	14.83
352.302	13.9
352.511	12.78
352.721	12.08
352.931	11.86
353.141	11.49
353.35	13.77
353.56	13.24
353.77	9.84
353.979	10.4
354.189	9.44
354.399	7.31
354.608	6.43
354.818	7.59
355.027	6.53
355.237	7.66
355.447	8.67
355.656	5.33
355.866	4.78
356.075	8.55
356.285	9.35
356.494	8.85
356.704	8.95
356.913	7.98
357.123	7.9
357.332	8.32
357.542	7.27
357.751	7.69
357.96	8.74
358.17	9.53
358.379	8.21
358.589	6.66
358.798	6.94
359.007	7.98
359.217	7.97
359.426	6.89
359.635	5.56
359.845	4.2
360.054	0.75
360.263	2.14
360.472	3.31
360.682	2.19
360.891	3.89
361.1	3.94
361.309	2.93
361.519	3.61
361.728	3.4
361.937	4.68
362.146	6.35
362.355	9.21
362.564	7.33
362.774	5.79
362.983	6.8
363.192	5.13
363.401	5.71
363.61	7.01
363.819	6.65
364.028	5.89
364.237	4.85
364.446	4.01
364.655	3.1
364.864	6.01
365.073	5.65
365.282	6.01
365.491	6.9
365.7	7.78
365.909	7.4
366.118	6.89
366.327	7.12
366.536	8.96
366.745	9.69
366.954	9.21
367.162	8.28
367.371	7.72
367.58	8.57
367.789	8.61
367.998	8.95
368.207	10.61
368.415	10.16
368.624	10.52
368.833	9.4
369.042	8.22
369.25	7.62
369.459	6.66
369.668	7.19
369.877	7.25
370.085	6.4
370.294	5.84
370.503	3.13
370.711	4.72
370.92	4.77
371.129	6.32
371.337	7.13
371.546	8.97
371.754	10.28
371.963	9.99
372.171	8.84
372.38	9
372.589	7.94
372.797	7.88
373.006	6.54
373.214	5.96
373.423	5.34
373.631	4.76
373.84	4.48
374.048	4.11
374.256	4.22
374.465	4.2
374.673	3.73
374.882	2.71
375.09	3.57
375.298	3.74
375.507	5.55
375.715	5.43
375.923	4.67
376.132	4.99
376.34	4.67
376.548	6.07
376.757	6.18
376.965	6.47
377.173	8.39
377.381	8.17
377.59	8.97
377.798	9.43
378.006	7.41
378.214	9.19
378.423	8.52
378.631	9.17
378.839	8.39
379.047	9.22
379.255	9.1
379.463	9.5
379.671	10.24
379.879	8.88
380.088	7.71
380.296	8.66
380.504	7.4
380.712	7.34
380.92	6.78
381.128	7.33
381.336	6.2
381.544	7.32
381.752	7.21
381.96	7.38
382.168	7.66
382.376	7.25
382.584	6.96
382.791	8.46
382.999	9.31
383.207	9.27
383.415	8.13
383.623	8.35
383.831	7.5
384.039	6.08
384.247	5.53
384.454	5.6
384.662	5.93
384.87	6.7
385.078	5.21
385.285	4.63
385.493	4.99
385.701	5.25
385.909	5.01
386.116	6.44
386.324	7.47
386.532	6.79
386.739	6.76
386.947	6.07
387.155	6.42
387.362	6.7
387.57	5.82
387.778	6.62
387.985	6.13
388.193	7.06
388.4	5.69
388.608	4.6
388.816	5.32
389.023	5.54
389.231	6.12
389.438	6.12
389.646	6.55
389.853	7.43
390.061	4.3
390.268	4.59
390.475	4.63
390.683	4.33
390.89	4.95
391.098	4.93
391.305	6.22
391.512	7.37
391.72	7.11
391.927	6.45
392.135	5.75
392.342	7.72
392.549	7.65
392.756	7.21
392.964	7.74
393.171	7.47
393.378	7.43
393.586	7.02
393.793	5.34
394	5.76
394.207	7.35
394.414	8.12
394.622	7.79
394.829	8.34
395.036	8.11
395.243	8.71
395.45	10.41
395.657	10.18
395.864	8.76
396.072	9.15
396.279	9.44
396.486	8.12
396.693	7.95
396.9	8.18
397.107	8.86
397.314	8.73
397.521	7
397.728	5.69
397.935	6.14
398.142	6.51
398.349	5.73
398.556	5.07
398.763	5.15
398.97	4.46
399.177	4.25
399.383	4.09
399.59	3.55
399.797	4.2
400.004	4.66
400.211	4.83
400.418	4.81
400.625	6.27
400.831	6.89
401.038	6.94
401.245	6.1
401.452	6.18
401.658	6.33
401.865	7.84
402.072	8.78
402.279	7.57
402.485	7.32
402.692	7.86
402.899	8.57
403.105	7.79
403.312	7.29
403.519	7.62
403.725	8.12
403.932	7.71
404.138	6.49
404.345	5.34
404.552	5.5
404.758	5.17
404.965	5.54
405.171	5.66
405.378	6.21
405.584	6.87
405.791	8.45
405.997	7.79
406.204	7.38
406.41	7.39
406.617	7.68
406.823	6.66
407.029	7.56
407.236	6.89
407.442	7.23
407.649	7.5
407.855	7.09
408.061	6.19
408.268	6.81
408.474	6.69
408.68	7.64
408.887	7.66
409.093	8.67
409.299	8.79
409.505	9.51
409.712	7.48
409.918	6.51
410.124	6.62
410.33	6.81
410.537	7.46
410.743	7.98
410.949	7.9
411.155	7.92
411.361	9.23
411.567	8.15
411.773	7.44
411.98	7.79
412.186	8.83
412.392	8.74
412.598	8.55
412.804	6.72
413.01	5.71
413.216	5.09
413.422	6.27
413.628	4.9
413.834	5.89
414.04	5.12
414.246	5.13
414.452	5.04
414.658	3.99
414.864	4.03
415.07	4.39
415.275	5.33
415.481	6.1
415.687	4.66
415.893	5.36
416.099	4.07
416.305	5.37
416.511	4.86
416.716	4.53
416.922	5.19
417.128	4.88
417.334	4.57
417.539	4.66
417.745	4.79
417.951	4.92
418.157	4.67
418.362	5.76
418.568	5.33
418.774	5.84
418.979	5.78
419.185	5.86
419.391	5.6
419.596	5.81
419.802	5.73
420.008	5.36
420.213	5.73
420.419	5.89
420.624	4.99
420.83	5.17
421.035	5.61
421.241	5.32
421.446	5.18
421.652	5.5
421.857	5.55
422.063	5.01
422.268	4.86
422.474	4.32
422.679	4.15
422.885	4.39
423.09	3.98
423.295	3.53
423.501	3.78
423.706	3.62
423.911	3.54
424.117	3.34
424.322	3.9
424.527	4.05
424.733	4.08
424.938	3.53
425.143	3.43
425.349	3.8
425.554	4.42
425.759	4.21
425.964	4.9
426.169	5.61
426.375	5.69
426.58	5.91
426.785	6.25
426.99	6.55
427.195	7.43
427.4	8.05
427.605	7.78
427.811	7.03
428.016	6.97
428.221	7.02
428.426	6.32
428.631	6.82
428.836	6.07
429.041	5.26
429.246	5.22
429.451	4.97
429.656	4.48
429.861	4.6
430.066	4.05
430.271	4.54
430.476	3.92
430.681	3.56
430.886	3.44
431.09	3.9
431.295	4.78
431.5	5.4
431.705	5.46
431.91	5.84
432.115	6.02
432.32	6.97
432.524	6.6
432.729	6.83
432.934	6.92
433.139	6.84
433.343	6.81
433.548	7.34
433.753	6.56
433.958	6.83
434.162	6.76
434.367	6.26
434.572	5.63
434.776	6.26
434.981	5.33
435.186	5.23
435.39	5.13
435.595	5.44
435.799	4.09
436.004	4.94
436.209	5.24
436.413	4.95
436.618	5.79
436.822	5.34
437.027	4.85
437.231	5.68
437.436	5.81
437.64	6.09
437.845	5.06
438.049	5.55
438.253	5.15
438.458	3.98
438.662	4.18
438.867	3.91
439.071	4.02
439.275	4.11
439.48	4.38
439.684	4.45
439.888	4.22
440.093	4.8
440.297	4.68
440.501	4.94
440.706	5.38
440.91	5.35
441.114	5.69
441.318	6.14
441.523	6.31
441.727	6.09
441.931	6
442.135	6.46
442.339	6.84
442.543	7.04
442.748	7.22
442.952	7.03
443.156	6.86
443.36	6.57
443.564	5.92
443.768	5.19
443.972	4.59
444.176	4.3
444.38	3.81
444.584	3.4
444.788	2.72
444.992	2.83
445.196	2.8
445.4	3.42
445.604	3.52
445.808	3.9
446.012	4.31
446.216	4.77
446.42	5.51
446.624	5.43
446.828	5.38
447.032	5.72
447.235	5.15
447.439	5.28
447.643	4.72
447.847	4.23
448.051	3.82
448.254	3.87
448.458	4
448.662	3.96
448.866	4.05
449.069	4.17
449.273	4.05
449.477	3.98
449.681	4.84
449.884	5.07
450.088	4.89
450.292	5.41
450.495	5.3
450.699	5.87
450.902	5.55
451.106	6.19
451.31	6.14
451.513	6.28
451.717	6.76
451.92	5.94
452.124	5.39
452.327	5.58
452.531	5.52
452.734	5.28
452.938	4.43
453.141	4.14
453.345	3.7
453.548	3.67
453.752	3.7
453.955	4.09
454.158	3.87
454.362	5
454.565	5.4
454.769	5.48
454.972	5.86
455.175	5.53
455.379	5.08
455.582	5.55
455.785	5.41
455.988	4.23
456.192	3.41
456.395	4.06
456.598	3.41
456.801	2.65
457.005	2.46
457.208	2.17
457.411	2.69
457.614	3.28
457.817	3.06
458.021	2.73
458.224	3.44
458.427	3.02
458.63	3.08
458.833	2.77
459.036	2.89
459.239	2.71
459.442	2.88
459.645	2.91
459.848	2.8
460.051	2.45
460.254	3.37
460.457	3.63
460.66	4.23
460.863	4.01
461.066	4.72
461.269	4.64
461.472	5.33
461.675	5.53
461.878	5.26
462.081	5.04
462.284	5.2
462.486	4.64
462.689	4.51
462.892	4.51
463.095	4.53
463.298	3.87
463.5	4.47
463.703	3.66
463.906	3.93
464.109	4.38
464.311	4.65
464.514	4.8
464.717	4.66
464.92	4.77
465.122	4.23
465.325	4.63
465.528	5.16
465.73	4.39
465.933	4.78
466.135	4.03
466.338	3.4
466.541	3.7
466.743	3.97
466.946	4.44
467.148	4.17
467.351	5.12
467.553	4.46
467.756	4.16
467.958	4.97
468.161	4.97
468.363	5.24
468.566	5.44
468.768	5.03
468.971	4.61
469.173	4.23
469.375	4.09
469.578	3.71
469.78	3.91
469.983	3.28
470.185	2.99
470.387	2.76
470.59	3.13
470.792	3.2
470.994	2.97
471.196	2.91
471.399	3.44
471.601	4.11
471.803	3.73
472.005	3.51
472.208	3.95
472.41	4.01
472.612	4.47
472.814	4.08
473.016	4.05
473.218	4.81
473.421	4.81
473.623	3.87
473.825	3.18
474.027	2.91
474.229	3.48
474.431	3.73
474.633	3.53
474.835	3.28
475.037	3.96
475.239	4.1
475.441	3.73
475.643	4.63
475.845	5.26
476.047	5.8
476.249	5.79
476.451	5.01
476.653	4.98
476.855	5.45
477.057	5.21
477.258	4.64
477.46	5.29
477.662	5.46
477.864	5.12
478.066	4.68
478.268	4.31
478.469	4.85
478.671	5.1
478.873	4.94
479.075	4.17
479.276	4.88
479.478	4.94
479.68	4.11
479.882	3.85
480.083	3.85
480.285	3.83
480.487	3.93
480.688	3.5
480.89	3.49
481.091	3.24
481.293	3.42
481.495	3.15
481.696	3.37
481.898	3.33
482.099	3.35
482.301	3.22
482.502	3.29
482.704	3.29
482.905	3.47
483.107	3.57
483.308	3.87
483.51	3.92
483.711	3.9
483.913	3.86
484.114	3.9
484.315	3.77
484.517	3.91
484.718	3.9
484.92	3.64
485.121	3.43
485.322	3.47
485.524	3.45
485.725	3.34
485.926	3.33
486.127	3.07
486.329	3.07
486.53	3.37
486.731	3.27
486.932	3.37
487.134	3.64
487.335	3.73
487.536	3.57
487.737	3.44
487.938	3.64
488.139	3.62
488.341	3.82
488.542	4.03
488.743	3.88
488.944	3.85
489.145	3.76
489.346	3.67
489.547	3.7
489.748	3.79
489.949	3.8
490.15	3.72
490.351	3.91
490.552	3.83
490.753	3.88
490.954	3.65
491.155	3.56
491.356	3.61
491.557	3.78
491.758	3.93
491.959	4.02
492.159	4.03
492.36	4.15
492.561	4.21
492.762	4.31
492.963	4.14
493.164	4.6
493.364	4.83
493.565	4.86
493.766	4.83
493.967	4.89
494.167	4.83
494.368	4.9
494.569	5.12
494.769	4.94
494.97	5.18
495.171	5.19
495.371	5.22
495.572	4.72
495.773	5.24
495.973	5.21
496.174	5.58
496.375	5.08
496.575	5.16
496.776	5.07
496.976	5.31
497.177	5.19
497.377	5.57
497.578	5.24
497.778	6.22
497.979	5.48
498.179	5.52
498.38	4.79
498.58	5.26
498.78	5.43
498.981	5.64
499.181	5.19
499.382	4.96
499.582	4.4
499.782	4.43
499.983	3.91
500.183	4.26
500.383	3.72
500.584	4.04
500.784	4.35
500.984	4.26
501.184	3.72
501.385	4.16
501.585	4.06
501.785	4.29
501.985	4.49
502.185	4.45
502.386	3.91
502.586	4.1
502.786	3.91
502.986	3.68
503.186	3.63
503.386	4.17
503.586	3.81
503.786	4.26
503.987	3.98
504.187	4.19
504.387	4.4
504.587	4.78
504.787	5.6
504.987	5.72
505.187	5.53
505.387	4.96
505.587	4.35
505.786	3.99
505.986	3.78
506.186	3.83
506.386	3.72
506.586	3.74
506.786	4.38
506.986	4.04
507.186	4.25
507.386	4.79
507.585	5.52
507.785	5.39
507.985	6.02
508.185	6.29
508.384	6.23
508.584	6.3
508.784	5.88
508.984	5.48
509.183	4.99
509.383	4.54
509.583	4.09
509.782	3.92
509.982	4.17
510.182	4.09
510.381	3.93
510.581	4.49
510.781	4.44
510.98	4.61
511.18	4.68
511.379	5.44
511.579	5.71
511.778	6.32
511.978	6.46
512.177	6.67
512.377	6.43
512.576	6.77
512.776	6.54
512.975	6.47
513.175	6.58
513.374	6.41
513.573	6.62
513.773	6.6
513.972	6.22
514.172	6.06
514.371	5.56
514.57	5.62
514.77	5.66
514.969	5.7
515.168	5.75
515.367	6.27
515.567	6.28
515.766	5.52
515.965	5.8
516.164	5.87
516.364	5.96
516.563	6.35
516.762	6.57
516.961	6.51
517.16	7.09
517.359	7.16
517.559	7.14
517.758	7.62
517.957	7.89
518.156	7.61
518.355	7.84
518.554	7.6
518.753	7.7
518.952	7.48
519.151	7.09
519.35	6.52
519.549	6.45
519.748	6.44
519.947	6.12
520.146	6.48
520.345	7.09
520.544	7.01
520.743	6.99
520.942	7.32
521.141	8.2
521.339	8.92
521.538	9.14
521.737	9.44
521.936	9.45
522.135	9.79
522.333	9.47
522.532	9.26
522.731	9.27
522.93	9.38
523.129	9.15
523.327	8.8
523.526	8.29
523.725	7.88
523.923	7.55
524.122	7.35
524.321	7.31
524.519	7.05
524.718	6.76
524.917	6.83
525.115	7.07
525.314	7
525.512	6.91
525.711	7.02
525.909	7.56
526.108	7.9
526.306	8.02
526.505	7.66
526.703	7.91
526.902	8.11
527.1	8.23
527.299	8.38
527.497	8.51
527.696	8.46
527.894	8.66
528.092	8.43
528.291	8.55
528.489	8.57
528.688	8.81
528.886	8.75
529.084	8.97
529.283	8.96
529.481	8.81
529.679	8.62
529.877	8.85
530.076	8.47
530.274	8.68
530.472	8.55
530.67	8.79
530.869	8.8
531.067	8.93
531.265	8.94
531.463	8.68
531.661	8.86
531.859	8.8
532.057	8.78
532.255	8.61
532.454	8.64
532.652	8.74
532.85	8.62
533.048	8.84
533.246	8.93
533.444	8.81
533.642	9.09
533.84	9.03
534.038	9.42
534.236	9.4
534.434	9.81
534.632	9.41
534.83	9.27
535.027	9.13
535.225	9.25
535.423	9.23
535.621	9.15
535.819	8.94
536.017	8.77
536.215	8.99
536.412	8.96
536.61	9.49
536.808	9.93
537.006	10.07
537.203	10.27
537.401	10.16
537.599	10.27
537.797	10.42
537.994	10.66
538.192	10.91
538.39	10.81
538.587	10.82
538.785	10.6
538.983	10.9
539.18	10.86
539.378	10.76
539.575	10.7
539.773	10.63
539.97	10.66
540.168	10.63
540.366	10.49
540.563	10.44
540.761	10.2
540.958	10.1
541.155	9.94
541.353	9.9
541.55	10.1
541.748	10.17
541.945	10.25
542.143	10.17
542.34	10.3
542.537	10.01
542.735	9.89
542.932	10.44
543.129	10.8
543.327	11
543.524	11.34
543.721	11.55
543.919	11.28
544.116	11.49
544.313	11.74
544.51	11.67
544.708	12.08
544.905	12.29
545.102	12.05
545.299	12.17
545.496	12.54
545.693	12.78
545.891	12.57
546.088	12.57
546.285	12.59
546.482	12.46
546.679	12.84
546.876	13.04
547.073	13.32
547.27	13.84
547.467	13.83
547.664	13.77
547.861	12.75
548.058	12.56
548.255	12.65
548.452	12.56
548.649	13.1
548.846	12.69
549.043	13.25
549.24	12.99
549.437	13.41
549.633	12.97
549.83	12.83
550.027	13.48
550.224	13.61
550.421	13.77
550.618	14.08
550.814	13.4
551.011	13.51
551.208	13.8
551.405	13.82
551.601	13.74
551.798	13.72
551.995	13.69
552.191	13.93
552.388	13.34
552.585	13.53
552.781	12.81
552.978	12.82
553.175	13.16
553.371	12.89
553.568	12.74
553.764	12.48
553.961	13.2
554.157	13.31
554.354	13.22
554.55	14.2
554.747	14.03
554.943	14.21
555.14	14.9
555.336	15.01
555.533	14.43
555.729	14.76
555.926	14.58
556.122	14.03
556.318	14.04
556.515	13.94
556.711	13.48
556.907	13.31
557.104	13.86
557.3	13.96
557.496	14.43
557.693	15
557.889	14.76
558.085	15.21
558.281	15.38
558.478	15
558.674	14.78
558.87	15.6
559.066	15.69
559.262	15.04
559.459	14.79
559.655	14.61
559.851	14.56
560.047	14.68
560.243	14.48
560.439	14.31
560.635	14.41
560.831	14.65
561.027	14.04
561.223	14.33
561.419	15.33
561.615	15.41
561.811	15.77
562.007	15.19
562.203	15.36
562.399	14.63
562.595	14.6
562.791	14.58
562.987	14.29
563.183	14.89
563.379	14.8
563.575	14.13
563.771	14.59
563.966	13.52
564.162	14.34
564.358	14.14
564.554	14.56
564.75	15
564.945	15.25
565.141	15.64
565.337	15.43
565.533	15.71
565.728	15.73
565.924	15.11
566.12	14.91
566.315	14.65
566.511	14.91
566.707	14.89
566.902	14.18
567.098	13.85
567.293	13.59
567.489	13.35
567.684	13.14
567.88	13.2
568.076	13.11
568.271	13.54
568.467	13.33
568.662	12.97
568.858	13.3
569.053	13.86
569.248	13.73
569.444	13.67
569.639	14.01
569.835	14.16
570.03	14.38
570.225	14.8
570.421	14.67
570.616	14.66
570.812	14.37
571.007	14.53
571.202	14.59
571.397	14.97
571.593	15.25
571.788	15.38
571.983	15.69
572.178	15.71
572.374	15.6
572.569	15.74
572.764	16.24
572.959	16.24
573.154	16.1
573.35	15.95
573.545	15.38
573.74	16.08
573.935	16.08
574.13	15.82
574.325	15.84
574.52	15.71
574.715	15.77
574.91	15.4
575.105	16.22
575.3	15.8
575.495	15.57
575.69	16.16
575.885	15.65
576.08	15.29
576.275	15.41
576.47	15.82
576.665	16.58
576.86	17.1
577.055	16.63
577.25	16.53
577.444	16.64
577.639	17.31
577.834	17.16
578.029	17.27
578.224	17.25
578.418	17.56
578.613	17.39
578.808	16.76
579.003	16.76
579.197	17.34
579.392	17.44
579.587	17.83
579.781	17.32
579.976	17.36
580.171	16.63
580.365	16.71
580.56	16.29
580.755	17.04
580.949	16.72
581.144	16.28
581.338	16.99
581.533	16.92
581.727	16.66
581.922	17.19
582.116	17.36
582.311	17.83
582.505	18.03
582.7	19.09
582.894	17.69
583.089	18.38
583.283	18.58
583.478	17.68
583.672	17.31
583.866	17.1
584.061	17.04
584.255	16.45
584.449	16.14
584.644	16.04
584.838	14.92
585.032	15.62
585.226	15.13
585.421	15.55
585.615	15.91
585.809	16
586.003	17.05
586.198	17.05
586.392	17.29
586.586	17.86
586.78	17.76
586.974	17.92
587.168	18.31
587.363	18.23
587.557	17.88
587.751	17.45
587.945	17.22
588.139	15.78
588.333	15.35
588.527	15.49
588.721	14.92
588.915	14.58
589.109	14.95
589.303	13.94
589.497	14.23
589.691	14.06
589.885	14.74
590.079	15.59
590.273	16.3
590.466	16.39
590.66	15.93
590.854	16.5
591.048	17.14
591.242	16.8
591.436	17.27
591.629	17.24
591.823	17.89
592.017	16.93
592.211	16.36
592.404	16.05
592.598	16.09
592.792	16.26
592.986	16.34
593.179	15.71
593.373	15.77
593.567	15.52
593.76	15.51
593.954	15.44
594.147	15.9
594.341	16.21
594.535	16.21
594.728	17.27
594.922	17.68
595.115	17.07
595.309	17.38
595.502	16.74
595.696	16.1
595.889	16.07
596.083	15.84
596.276	15.92
596.47	15.43
596.663	15.71
596.856	14.87
597.05	15.04
597.243	15.83
597.437	15.79
597.63	15.79
597.823	16.86
598.017	16.62
598.21	17.2
598.403	17.16
598.596	17.87
598.79	18.14
598.983	18.24
599.176	18.24
599.369	17.68
599.563	17.27
599.756	18.31
599.949	18.85
600.142	19.09
600.335	18.22
600.528	18.56
600.722	18.23
600.915	18.91
601.108	18.71
601.301	18.15
601.494	18.97
601.687	20.19
601.88	19.57
602.073	19.01
602.266	19.11
602.459	19.05
602.652	18.79
602.845	18.83
603.038	17.91
603.231	17.54
603.424	17.4
603.617	16.83
603.809	16.23
604.002	16.18
604.195	15.34
604.388	14.59
604.581	14.56
604.774	14.37
604.966	14.57
605.159	15.13
605.352	15.42
605.545	15.58
605.737	15.75
605.93	15.55
606.123	16.19
606.316	17.55
606.508	19.01
606.701	19.04
606.894	18.97
607.086	18.15
607.279	17.81
607.471	17.63
607.664	17.82
607.857	17.25
608.049	17.34
608.242	16.19
608.434	16.12
608.627	15.55
608.819	15.14
609.012	15.63
609.204	16.57
609.397	15.74
609.589	15.54
609.782	15.67
609.974	14.99
610.166	14.76
610.359	15.98
610.551	16.22
610.743	16.24
610.936	16.4
611.128	16.2
611.32	15.69
611.513	15.75
611.705	16.59
611.897	15.82
612.09	16.54
612.282	17.27
612.474	17.21
612.666	16.65
612.858	16.24
613.051	16.93
613.243	17.29
613.435	16.71
613.627	17.67
613.819	17.58
614.011	18.49
614.203	17.69
614.395	16.62
614.588	16.15
614.78	15.52
614.972	15.66
615.164	15.36
615.356	15.12
615.548	16.07
615.74	17.27
615.932	16.69
616.124	16.52
616.315	18.26
616.507	18.49
616.699	18.55
616.891	18.6
617.083	18.98
617.275	18.23
617.467	18.15
617.659	17.97
617.85	17.64
618.042	17.71
618.234	17.61
618.426	17.52
618.618	18.28
618.809	19.31
619.001	19.62
619.193	18.3
619.384	19.93
619.576	20.13
619.768	19.55
619.959	18.45
620.151	19.15
620.343	19.17
620.534	19.04
620.726	18.9
620.917	17.99
621.109	18.21
621.301	18.8
621.492	18.4
621.684	17.89
621.875	18.48
622.067	18.51
622.258	18.32
622.45	19.28
622.641	19.34
622.832	18.34
623.024	18.76
623.215	18.28
623.407	18.6
623.598	18.09
623.789	18.21
623.981	18.05
624.172	18.14
624.363	18.11
624.555	17.68
624.746	17.99
624.937	18.5
625.129	17.45
625.32	17.23
625.511	16.59
625.702	17.15
625.893	17.04
626.085	17.57
626.276	17.57
626.467	17.39
626.658	17.02
626.849	16.03
627.04	16.45
627.231	16.35
627.422	17.32
627.614	18.22
627.805	17.41
627.996	17.97
628.187	17.14
628.378	17.57
628.569	18.3
628.76	17.27
628.951	17.52
629.142	17.69
629.332	18.17
629.523	17.65
629.714	16.79
629.905	17.17
630.096	16.24
630.287	16.11
630.478	15.28
630.669	15.05
630.859	17.27
631.05	17.3
631.241	16.62
631.432	16.12
631.623	16.8
631.813	17.63
632.004	17.34
632.195	18.75
632.385	18.09
632.576	19.01
632.767	17.49
632.957	16.97
633.148	17.4
633.339	17.41
633.529	18.14
633.72	17.53
633.91	16.98
634.101	18.01
634.292	16.99
634.482	17.44
634.673	17.86
634.863	18.84
635.054	18.95
635.244	19.28
635.435	18.51
635.625	18.63
635.815	18.59
636.006	18.83
636.196	18.74
636.387	18.52
636.577	19.19
636.767	18.83
636.958	18.55
637.148	18.95
637.338	19.42
637.529	20.2
637.719	20.06
637.909	19.69
638.099	19.76
638.29	19.82
638.48	20.83
638.67	21.44
638.86	20.47
639.05	20.35
639.241	19.69
639.431	18.95
639.621	17.5
639.811	17.68
640.001	19.07
640.191	18.87
640.381	18.21
640.571	16.95
640.761	16.42
640.951	17.26
641.141	17.74
641.331	17.58
641.521	17.58
641.711	18.99
641.901	18.95
642.091	17.33
642.281	18.6
642.471	18.28
642.661	19.59
642.851	17.99
643.041	17.25
643.231	17.55
643.42	18.6
643.61	17.37
643.8	18.2
643.99	18.73
644.18	19.29
644.369	17.82
644.559	17.71
644.749	16.87
644.939	18.15
645.128	18.41
645.318	17.95
645.508	16.3
645.697	16.83
645.887	16.8
646.076	16.89
646.266	17.73
646.456	17.97
646.645	17.73
646.835	18.7
647.024	18.35
647.214	18.86
647.403	18.99
647.593	19.85
647.782	19.72
647.972	19.37
648.161	18.18
648.351	18.04
648.54	18.09
648.73	17.45
648.919	17.04
649.108	16.58
649.298	16.37
649.487	16.44
649.677	15.86
649.866	16.87
650.055	17.15
650.244	17.69
650.434	17.97
650.623	17.9
650.812	19.15
651.002	19.31
651.191	20.19
651.38	19.73
651.569	20.87
651.758	21.17
651.947	21
652.137	21.03
652.326	20.86
652.515	19.13
652.704	19.5
652.893	18.9
653.082	18.62
653.271	17.77
653.46	18.73
653.649	17.26
653.838	17.87
654.027	17.78
654.216	17.31
654.405	17.31
654.594	19.29
654.783	19.02
654.972	18.86
655.161	17.48
655.35	17.81
655.539	17.78
655.728	17.89
655.916	16.61
656.105	15.31
656.294	16.73
656.483	17.28
656.672	15.82
656.86	15.01
657.049	15.02
657.238	15.6
657.427	17.03
657.615	16.81
657.804	17.66
657.993	17.81
658.181	19.37
658.37	17.44
658.559	17.87
658.747	19.45
658.936	20.57
659.125	20.21
659.313	20.7
659.502	19.89
659.69	19.56
659.879	18.13
660.067	18.91
660.256	19.23
660.444	20.92
660.633	20.4
660.821	19.26
661.01	19.42
661.198	19.35
661.387	19.97
661.575	20.16
661.763	19.96
661.952	22.82
662.14	22.69
662.328	21.52
662.517	21.5
662.705	20.15
662.893	22.28
663.082	21.62
663.27	22.61
663.458	21.28
663.646	20.47
663.834	21.71
664.023	18.66
664.211	17
664.399	16.52
664.587	16.35
664.775	18.57
664.963	15.69
665.152	16.52
665.34	16.77
665.528	17.43
665.716	18.47
665.904	17.98
666.092	19.2
666.28	19.91
666.468	19.76
666.656	19.82
666.844	19.24
667.032	20.72
667.22	20.25
667.408	21.09
667.596	21.43
667.784	21.37
667.971	21.38
668.159	21.05
668.347	21.54
668.535	21.85
668.723	21.63
668.911	21.6
669.098	21.83
669.286	22.05
669.474	21.15
669.662	20.23
669.849	19.86
670.037	20.14
670.225	19.77
670.413	20.25
670.6	20.37
670.788	19.96
670.976	19.19
671.163	17.61
671.351	16.86
671.538	17.89
671.726	19.07
671.913	19.81
672.101	18.78
672.289	19.87
672.476	19.66
672.664	20.55
672.851	20.44
673.039	20.66
673.226	20.67
673.413	21.68
673.601	19.47
673.788	17.45
673.976	16.86
674.163	17.81
674.35	18.11
674.538	18.19
674.725	17.21
674.912	18.28
675.1	18.52
675.287	18.3
675.474	17.59
675.662	19.1
675.849	20.22
676.036	19.75
676.223	20.43
676.411	19.82
676.598	19.2
676.785	20.26
676.972	19.93
677.159	19.91
677.346	19.9
677.533	20.13
677.721	19.76
677.908	20.78
678.095	21.4
678.282	20.34
678.469	20.71
678.656	21.1
678.843	20.4
679.03	20.15
679.217	20.43
679.404	21.3
679.591	22.46
679.778	21.76
679.964	21.29
680.151	20.86
680.338	21.09
680.525	19.97
680.712	19.81
680.899	20.25
681.086	20.37
681.272	19.86
681.459	19.62
681.646	18.46
681.833	20.27
682.02	19.6
682.206	20.09
682.393	20.6
682.58	21
682.766	21.09
682.953	22.21
683.14	22.16
683.326	22.48
683.513	23.12
683.7	21.92
683.886	21.34
684.073	20.93
684.259	21.19
684.446	21.42
684.632	20.76
684.819	21.17
685.005	18.26
685.192	18.5
685.378	19.62
685.565	19.58
685.751	20.3
685.938	19.95
686.124	20.46
686.31	20.07
686.497	19.04
686.683	20.53
686.87	20.06
687.056	21.82
687.242	22
687.429	20.88
687.615	19.85
687.801	20.04
687.987	19.79
688.174	20.71
688.36	20.58
688.546	20.05
688.732	20.26
688.918	20.12
689.105	19.72
689.291	20.3
689.477	21.23
689.663	22.02
689.849	22.62
690.035	24.66
690.221	23.95
690.407	21.93
690.593	23.04
690.779	21.37
690.965	19.96
691.151	19.62
691.337	18.71
691.523	18.18
691.709	18.4
691.895	18.38
692.081	17.1
692.267	18.1
692.453	19.3
692.639	19.81
692.825	20.11
693.011	21.43
693.196	19.01
693.382	17.77
693.568	16.89
693.754	14.73
693.94	15.8
694.125	14.88
694.311	13.62
694.497	15.33
694.682	13.9
694.868	14.09
695.054	13.96
695.239	17.61
695.425	20.37
695.611	22.13
695.796	23.94
695.982	22.83
696.168	23.05
696.353	22.92
696.539	21.76
696.724	20.81
696.91	22.31
697.095	22.18
697.281	20.63
697.466	18.87
697.652	17.95
697.837	16.67
698.023	17.64
698.208	17.5
698.393	17.52
698.579	17.51
698.764	18.04
698.949	16.43
699.135	16.9
699.32	17.26
699.505	17.37
699.691	17.83
699.876	19.71
700.061	18.75
700.246	19.57
700.432	20.87
700.617	22.4
700.802	24.67
700.987	25.05
701.172	23.24
701.358	23.93
701.543	23.7
701.728	22.35
701.913	20.55
702.098	20.89
702.283	20.88
702.468	18.45
702.653	17.4
702.838	15.66
703.023	15.44
703.208	17.66
703.393	18.15
703.578	18.84
703.763	20.59
703.948	21.46
704.133	20.5
704.318	16.97
704.503	19.66
704.688	18.9
704.873	17.15
705.057	17.39
705.242	18.14
705.427	20.28
705.612	19.76
705.797	18.01
705.981	15.73
706.166	15.01
706.351	16.96
706.536	16.05
706.72	16.62
706.905	19.1
707.09	20.46
707.274	20
707.459	17.51
707.644	18.61
707.828	19.39
708.013	21.38
708.197	21.35
708.382	19.81
708.567	20.56
708.751	21.22
708.936	21.15
709.12	20.8
709.305	21.26
709.489	20.23
709.673	21.83
709.858	21.87
710.042	22.98
710.227	23.16
710.411	25.05
710.596	25.42
710.78	24.89
710.964	23.07
711.149	21.95
711.333	21.52
711.517	23.01
711.702	22.82
711.886	22.69
712.07	23.64
712.254	25.65
712.438	25.86
712.623	23.33
712.807	24.13
712.991	25.57
713.175	27.88
713.359	27.45
713.544	27.58
713.728	25.3
713.912	25.21
714.096	23.84
714.28	21.84
714.464	21.18
714.648	21.91
714.832	21.6
715.016	19.15
715.2	16.57
715.384	16.37
715.568	15.29
715.752	16.43
715.936	16.22
716.12	17.34
716.304	17.37
716.488	16.74
716.671	17.21
716.855	17.13
717.039	20.98
717.223	21.4
717.407	22.19
717.59	24.67
717.774	24.13
717.958	23.46
718.142	21.49
718.325	21.35
718.509	23.56
718.693	23.63
718.877	23.02
719.06	20.69
719.244	23.74
719.428	23.77
719.611	19.64
719.795	19.26
719.978	19.36
720.162	19.83
720.345	22.73
720.529	21.82
720.713	22.19
720.896	20.26
721.08	21.81
721.263	19.86
721.446	17.47
721.63	17.34
721.813	17.02
721.997	16.21
722.18	13.56
722.364	11.93
722.547	14.22
722.73	12.32
722.914	15.99
723.097	17.32
723.28	15.79
723.464	18.09
723.647	20.7
723.83	21.73
724.013	21.95
724.197	23.65
724.38	24.2
724.563	20.22
724.746	22.13
724.929	20.68
725.112	16.54
725.296	19.08
725.479	16.73
725.662	15.09
725.845	14.41
726.028	16.35
726.211	16.62
726.394	17.13
726.577	19.21
726.76	17.94
726.943	19.23
727.126	19.38
727.309	18.26
727.492	19.85
727.675	19
727.858	18.85
728.041	16.3
728.224	17.15
728.407	15.55
728.589	12.83
728.772	11.09
728.955	8.7
729.138	9.82
729.321	9.8
729.503	8.57
729.686	10.58
729.869	10.7
730.052	13.78
730.234	11.72
730.417	11.11
730.6	12.52
730.782	15.42
730.965	14.62
731.148	13.25
731.33	10.47
731.513	9.66
731.695	8.42
731.878	9.57
732.061	8.06
732.243	7.99
732.426	8.56
732.608	10.64
732.791	9.88
732.973	13.7
733.156	14.68
733.338	19.48
733.52	24.9
733.703	24.54
733.885	23.54
734.068	26.37
734.25	26.67
734.432	27.94
734.615	26.72
734.797	26.65
734.979	23.85
735.162	26.69
735.344	23.94
735.526	19.74
735.708	21.8
735.891	25.11
736.073	24.73
736.255	26.2
736.437	26.68
736.619	26.8
736.802	26.69
736.984	26.67
737.166	27.91
737.348	28.28
737.53	31.56
737.712	31.95
737.894	29.1
738.076	28.86
738.258	26.39
738.44	25.73
738.622	23.25
738.804	22.15
738.986	23.77
739.168	22.73
739.35	24.14
739.532	20.08
739.714	19.6
739.896	19.06
740.078	18.73
740.259	23.3
740.441	25.54
740.623	26.64
740.805	30.05
740.987	31.56
741.168	31.48
741.35	30.78
741.532	30.91
741.714	28.18
741.895	28.96
742.077	26.28
742.259	26.5
742.44	24.55
742.622	24.18
742.804	24.35
742.985	20.64
743.167	16.6
743.348	16.14
743.53	18.48
743.711	20.92
743.893	18.96
744.075	25.56
744.256	22.63
744.438	22.4
744.619	27.56
744.8	27.63
744.982	27.8
745.163	26.59
745.345	26.2
745.526	24.69
745.707	25.04
745.889	26.23
746.07	19.13
746.252	24.07
746.433	24.83
746.614	24.67
746.795	23.82
746.977	24.69
747.158	28.6
747.339	30.63
747.52	32.7
747.702	28.69
747.883	31.76
748.064	34.56
748.245	30.34
748.426	26.68
748.607	26.63
748.788	25.45
748.97	23.9
749.151	25.98
749.332	23.79
749.513	22.88
749.694	26.79
749.875	22.51
750.056	22.39
750.237	23.19
750.418	25.85
750.599	21.19
750.78	22.56
750.96	26.94
751.141	24.87
751.322	25.92
751.503	23.01
751.684	23.07
751.865	22.96
752.046	20.48
752.226	20.91
752.407	26.19
752.588	29.97
752.769	29.93
752.949	27.11
753.13	26.42
753.311	27
753.492	28.3
753.672	29.81
753.853	31.18
754.034	35.4
754.214	36.81
754.395	31.93
754.575	34.56
754.756	34.8
754.937	35.92
755.117	40.18
755.298	40.57
755.478	38.95
755.659	35.87
755.839	37.21
756.02	34.27
756.2	35.41
756.381	29.46
756.561	23.48
756.741	21.63
756.922	17.95
757.102	13.94
757.283	13.13
757.463	12.24
757.643	9.5
757.823	7.2
758.004	10.69
758.184	9.42
758.364	18.96
758.545	20.83
758.725	23.83
758.905	25.23
759.085	27.08
759.265	28.13
759.446	32.02
759.626	32.01
759.806	34.4
759.986	31.22
760.166	29.15
760.346	22.17
760.526	20.3
760.706	20.91
760.886	20.23
761.066	16.53
761.246	12.7
761.426	13.85
761.606	14.53
761.786	10.63
761.966	11.9
762.146	12.97
762.326	14.24
762.506	17.62
762.686	16.88
762.866	17.33
763.046	19.26
763.225	22.14
763.405	20.8
763.585	21.49
763.765	21.33
763.945	22.5
764.124	22.08
764.304	22.77
764.484	21.43
764.664	21.83
764.843	25.08
765.023	25.49
765.203	27
765.382	24.95
765.562	25.24
765.741	28.32
765.921	24.3
766.101	26.83
766.28	29.45
766.46	29.01
766.639	26.38
766.819	20.85
766.998	17.24
767.178	16.2
767.357	17.38
767.537	18.55
767.716	19.84
767.896	23.79
768.075	23.34
768.254	25.05
768.434	25.69
768.613	22.58
768.792	27.13
768.972	30.2
769.151	26.74
769.33	30.34
769.51	27.65
769.689	27.11
769.868	28.44
770.047	27.43
770.226	26.61
770.406	28.99
770.585	35.53
770.764	36.74
770.943	38.87
771.122	42.69
771.301	42.58
771.48	45.15
771.66	47.11
771.839	45.3
772.018	45.1
772.197	43.48
772.376	41.18
772.555	41.18
772.734	38.17
772.913	37.31
773.092	40.32
773.271	36.16
773.449	35.16
773.628	35.94
773.807	41.5
773.986	43.2
774.165	41.9
774.344	42.17
774.523	35.35
774.701	40.82
774.88	43.24
775.059	39.56
775.238	42.21
775.417	45.55
775.595	36.42
775.774	34.32
775.953	24.53
776.131	27.64
776.31	26.31
776.489	31.96
776.667	24.82
776.846	28.06
777.025	27.69
777.203	27.54
777.382	27.69
777.56	34.39
777.739	32.31
777.917	42.25
778.096	45.74
778.274	47.25
778.453	48.45
778.631	50.8
778.81	41.49
778.988	44.83
779.166	47.27
779.345	45.73
779.523	44.36
779.702	46.55
779.88	44.23
780.058	40.2
780.237	38.9
780.415	34.71
780.593	36.91
780.771	46.03
780.95	43.52
781.128	44
781.306	44.52
781.484	42.98
781.662	41.54
781.841	37.52
782.019	39.23
782.197	37.25
782.375	39.67
782.553	40.86
782.731	36.4
782.909	36.7
783.087	32.12
783.265	25.37
783.443	27.89
783.621	34.11
783.799	33.31
783.977	25.16
784.155	26.59
784.333	26.29
784.511	25.59
784.689	24.63
784.867	26.36
785.045	29.97
785.223	38.89
785.4	42.56
785.578	39.49
785.756	48.7
785.934	54.46
786.112	50.52
786.289	51.27
786.467	50.97
786.645	50.46
786.823	50.83
787	48.08
787.178	44.62
787.356	39.59
787.533	34.02
787.711	30.24
787.889	24.21
788.066	32.39
788.244	30.06
788.421	33.52
788.599	31.63
788.776	32.77
788.954	30.49
789.131	29.34
789.309	29.85
789.486	36.26
789.664	34.05
789.841	37.39
790.019	38.25
790.196	38.27
790.373	33.77
790.551	35.1
790.728	38.5
790.906	45.23
791.083	52.96
791.26	56.78
791.437	51.48
791.615	53.9
791.792	54.53
791.969	49.52
792.146	49.12
792.324	45
792.501	46.39
792.678	30.95
792.855	30.35
793.032	31.35
793.209	27.97
793.387	31.18
793.564	32.48
793.741	29.31
793.918	27.6
794.095	25.79
794.272	29.47
794.449	30.57
794.626	37.76
794.803	34.87
794.98	31.07
795.157	25.37
795.334	28.79
795.511	27.63
795.688	30.25
795.864	32.74
796.041	35.03
796.218	37.02
796.395	38.59
796.572	40.06
796.749	42.73
796.925	45.97
797.102	51.77
797.279	46.04
797.456	39.58
797.632	40.14
797.809	42.2
797.986	43.1
798.162	41.29
798.339	35.46
798.516	27.69
798.692	24.15
798.869	16.76
799.046	22.66
799.222	18.38
799.399	24.27
799.575	31.81
799.752	34.9
799.928	36.54
800.105	33.89
800.281	36.27
800.458	37.31
800.634	41.74
800.811	36.72
800.987	32.81
801.163	37.93
801.34	42.26
801.516	34.19
801.692	38.65
801.869	42.65
802.045	51.88
802.221	54.78
802.398	62.29
802.574	55.32
802.75	55.68
802.926	57.02
803.103	55.73
803.279	54.52
803.455	56.09
803.631	45.33
803.807	38.53
803.983	31.47
804.16	32.8
804.336	27.29
804.512	27.96
804.688	31.48
804.864	25.97
805.04	23.24
805.216	23.37
805.392	15.08
805.568	29.04
805.744	29.09
805.92	28.47
806.096	29.99
806.272	30.11
806.448	37.33
806.623	39.45
806.799	44.85
806.975	56.47
807.151	48.61
807.327	58.99
807.503	58.45
807.678	64.21
807.854	58.37
808.03	55.08
808.206	49.54
808.381	44.95
808.557	39.25
808.733	39.9
808.908	31.03
809.084	34.38
809.26	26.13
809.435	15.93
809.611	4.93
809.787	5.64
809.962	-0.56
810.138	0.41
810.313	-5.26
810.489	8.48
810.664	1.61
810.84	6.05
811.015	1.12
811.191	8.36
811.366	18.47
811.542	25.45
811.717	42.38
811.892	48.66
812.068	47.65
812.243	56.17
812.419	55.42
812.594	40.67
812.769	45.65
812.944	51.01
813.12	53.82
813.295	49.09
813.47	48.93
813.645	41.9
813.821	48.3
813.996	51.1
814.171	46.31
814.346	49.78
814.521	62.87
814.697	58.73
814.872	61.75
815.047	61.39
815.222	60.35
815.397	62.21
815.572	56.75
815.747	45.59
815.922	47.76
816.097	45.61
816.272	47.78
816.447	42.07
816.622	46.51
816.797	41.75
816.972	39.45
817.147	45.21
817.322	43.69
817.496	46.91
817.671	50.25
817.846	50.18
818.021	49.5
818.196	42.72
818.371	44.22
818.545	36.62
818.72	32.38
818.895	34.31
819.069	29.72
819.244	27.04
819.419	19.07
819.594	12.51
819.768	10.02
819.943	13.28
820.117	15.33
820.292	15.34
820.467	9.42
820.641	11.47
820.816	9.37
820.99	9.59
821.165	9.05
821.339	10.23
821.514	12.35
821.688	13.52
821.863	12.31
822.037	12.78
822.212	15.78
822.386	19.76
822.56	19.27
822.735	18.43
822.909	17.83
823.084	18.57
823.258	19.66
823.432	18.69
823.606	20.92
823.781	19.92
823.955	18.69
824.129	13.35
824.303	13.4
824.478	15.53
824.652	21.28
824.826	22.33
825	23.43
825.174	23.46
825.348	24.32
825.523	21.79
825.697	22.02
825.871	18.67
826.045	21.75
826.219	21.79
826.393	19.04
826.567	18.4
826.741	20.01
826.915	19.88
827.089	19.98
827.263	24.45
827.437	24.51
827.611	24.15
827.784	28.82
827.958	25.3
828.132	31.29
828.306	34.04
828.48	28.95
828.654	33.01
828.827	30.75
829.001	29.64
829.175	20.3
829.349	29.74
829.522	32.57
829.696	30.14
829.87	36.87
830.044	28.94
830.217	31.52
830.391	33.05
830.565	24.8
830.738	23.78
830.912	34.65
831.085	26.95
831.259	19.18
831.432	28.46
831.606	28.04
831.779	30.05
831.953	31.62
832.126	30.37
832.3	31.45
832.473	34.62
832.647	41.99
832.82	29.97
832.994	35.54
833.167	29.95
833.34	26.77
833.514	30.29
833.687	28.5
833.86	25.13
834.034	28.18
834.207	35.06
834.38	27.96
834.553	20.71
834.727	28.39
834.9	26.51
835.073	33.4
835.246	34.13
835.419	34.29
835.593	34.95
835.766	35.86
835.939	36.07
836.112	18.45
836.285	26.29
836.458	38.27
836.631	45.27
836.804	39.08
836.977	38.85
837.15	48.39
837.323	37.4
837.496	25.81
837.669	55.78
837.842	45.52
838.015	76.36
838.188	75.92
838.361	59.84
838.533	58.3
838.706	52.4
838.879	48.46
839.052	38.43
839.225	52.62
839.398	59.68
839.57	53
839.743	53.95
839.916	47.42
840.088	57.32
840.261	59.97
840.434	66.03
840.607	71.11
840.779	70.5
840.952	75.78
841.124	64.76
841.297	50.46
841.47	51.53
841.642	49.02
841.815	30.28
841.987	24.41
842.16	23.89
842.332	19.97
842.505	24.68
842.677	27.59
842.85	27
843.022	24.4
843.194	31.22
843.367	17.79
843.539	33.72
843.712	48.01
843.884	40.93
844.056	35.4
844.229	34.06
844.401	36.94
844.573	23.84
844.745	20.78
844.918	22.69
845.09	22.98
845.262	20.28
845.434	-3.32
845.606	9.51
845.779	15.2
845.951	16.08
846.123	-8.32
846.295	15.58
846.467	5.93
846.639	-4.3
846.811	-17.05
846.983	-81.29
847.155	-42.11
847.327	-9.38
847.499	-82.37
847.671	-25
847.843	-25
848.015	-4.14
848.187	18.6
848.359	-38.2
848.531	-128.4
848.703	5.8
848.875	104.84
849.047	87.58
849.218	124.58
849.39	112.06
849.562	218.27
849.734	75.5
849.905	64.42
850.077	15.69
850.249	38.42
850.421	43.66
850.592	40.99
850.764	18.68
850.936	32.96
851.107	33.5
851.279	38.16
851.451	49.52
851.622	43.48
851.794	46.37
851.965	45.93
852.137	46.25
852.308	38.3
852.48	30.87
852.651	65.4
852.823	44.46
852.994	59.66
853.166	43.34
853.337	28.89
853.509	44.56
853.68	36.72
853.851	45.82
854.023	49.6
854.194	65.34
854.365	78.01
854.537	58.1
854.708	52.72
854.879	48.9
855.05	50.11
855.222	48.86
855.393	35.24
855.564	43.36
855.735	22.96
855.906	3.98
856.078	-33.77
856.249	-130.35
856.42	-69.92
856.591	-3.56
856.762	-33.25
856.933	-14.29
857.104	33.74
857.275	29.46
857.446	6.04
857.617	39.46
857.788	69.63
857.959	61.79
858.13	61.36
858.301	33.22
858.472	15.04
858.643	26.81
858.814	27.65
858.985	17.38
859.155	12.54
859.326	29.66
859.497	37.08
859.668	23.78
859.839	38.44
860.009	60.49
860.18	73.89
860.351	61.94
860.522	61.22
860.692	45.05
860.863	53.59
861.034	92.76
861.204	69.92
861.375	48.62
861.546	20.98
861.716	-14.95
861.887	0.47
862.057	17.53
862.228	60.48
862.398	50.46
862.569	66.2
862.739	18.29
862.91	12.46
863.08	34.16
863.251	50
863.421	62.76
863.592	57.41
863.762	60.29
863.932	66.07
864.103	57.38
864.273	40.3
864.443	43.74
864.614	61.35
864.784	65.68
864.954	59.14
865.125	42.66
865.295	48.28
865.465	68.02
865.635	60.41
865.805	37.79
865.976	48.37
866.146	66.22
866.316	61.18
866.486	71.78
866.656	70.61
866.826	72.34
866.996	88.44
867.166	91.35
867.336	62.1
867.506	60.71
867.676	97.5
867.846	65.38
868.016	65.4
868.186	66.99
868.356	-4.33
868.526	-68.75
868.696	-1700
868.866	118.82
869.036	33.94
869.206	190.32
869.376	582.93
869.545	121.67
869.715	221.09
869.885	268.61
870.055	190.04
870.224	173.05
870.394	161.52
870.564	111.81
870.734	91.91
870.903	121.12
871.073	139.9
871.243	155.88
871.412	216.96
871.582	118.48
871.751	146.12
871.921	123.83
872.091	94.15
872.26	65.64
872.43	89.59
872.599	85.71
872.769	78.25
872.938	76.68
873.108	55.72
873.277	62.25
873.446	66.61
873.616	42.59
873.785	28.24
873.955	33.95
874.124	43.19
874.293	24.51
874.463	5.75
874.632	-15.4
874.801	-4.66
874.971	7.68
875.14	14.53
875.309	43.17
875.478	60.33
875.647	56.05
875.817	70.52
875.986	80.31
876.155	82.4
876.324	123.17
876.493	134.23
876.662	110.49
876.831	122.16
877	95.45
877.17	61.35
877.339	56.57
877.508	65.32
877.677	65.65
877.846	51.84
878.015	71.36
878.184	61.52
878.352	53.53
878.521	65.37
878.69	61.78
878.859	38.82
879.028	57.24
879.197	52.51
879.366	56.45
879.534	41.85
879.703	42.06
879.872	31.86
880.041	31.7
880.21	23.48
880.378	22.62
880.547	19.66
880.716	31.3
880.884	24.78
881.053	25.74
881.222	23.91
881.39	27.46
881.559	27.43
881.727	25.72
881.896	26.36
882.065	33.63
882.233	33.86
882.402	33.84
882.57	36.42
882.739	31.34
882.907	23.83
883.076	21.38
883.244	21.13
883.412	27.48
883.581	30.77
883.749	16.83
883.918	18.87
884.086	10.46
884.254	-5.99
884.423	-14.68
884.591	-0
884.759	-6.71
884.927	1.53
885.096	-10.13
885.264	-9.94
885.432	-25.96
885.6	-1.24
885.769	26.9
885.937	51.57
886.105	45.37
886.273	40.85
886.441	34.86
886.609	51.61
886.777	36.56
886.945	31.21
887.113	26.05
887.281	26.05
887.449	28.35
887.617	-0.18
887.785	-4.93
887.953	44.43
888.121	41.08
888.289	28.24
888.457	22.77
888.625	36.87
888.793	45.15
888.961	43.67
889.129	65.01
889.296	75.23
889.464	82.96
889.632	82.04
889.8	62.62
889.967	61.76
890.135	102.76
