Data from JASIL_3138_Reflection_2.txt Node
Date: Thu Nov 12 20:50:18 EST 2015
User: Geneva
Spectrometer: USB4E03002
Autoset integration time: false
Trigger mode: 4
Integration Time (sec): 1.000000E-1
Scans to average: 10
Electric dark correction enabled: true
Nonlinearity correction enabled: false
Boxcar width: 5
Stray light correction enabled: false
XAxis mode: Wavelengths
Stop averaging: false
Number of Pixels in Spectrum: 3648
>>>>>Begin Spectral Data<<<<<
177.575	234.13
177.794	192.81
178.014	301.97
178.233	-2.97
178.452	-12.23
178.672	-827.35
178.891	207.03
179.11	33.23
179.33	21.22
179.549	-84.72
179.768	-208.46
179.987	150.35
180.207	-10476.92
180.426	242.71
180.645	202.77
180.864	192.37
181.084	100.85
181.303	98.27
181.522	82.53
181.741	33.49
181.96	-148.12
182.179	-196.8
182.398	-121.45
182.618	-52.53
182.837	-60.17
183.056	-60.52
183.275	526.15
183.494	-91.07
183.713	45.32
183.932	57.65
184.151	130.82
184.37	194.67
184.589	160.72
184.808	179.95
185.027	308.89
185.246	112.22
185.465	-156.48
185.684	148.93
185.903	-45.51
186.122	-7.01
186.341	-71.22
186.56	8.59
186.779	35.71
186.998	53.73
187.216	66.77
187.435	71.81
187.654	75.07
187.873	6673.08
188.092	172.39
188.311	-92.03
188.53	501.4
188.748	370.87
188.967	148.36
189.186	217.69
189.405	-175.88
189.623	59.08
189.842	196.43
190.061	100.15
190.28	54.06
190.498	81.66
190.717	66.56
190.936	77.63
191.154	27.29
191.373	-0.5
191.592	12.72
191.81	-0.58
192.029	37.15
192.248	-288.87
192.466	883
192.685	5188.46
192.904	1591.88
193.122	133.43
193.341	121.27
193.559	43.23
193.778	32.37
193.996	90.01
194.215	88.81
194.433	132.4
194.652	29.39
194.87	38.46
195.089	32.51
195.307	45.23
195.526	97.96
195.744	240.13
195.963	-1750.23
196.181	367.77
196.399	80.96
196.618	-9.15
196.836	-75.11
197.055	-9.27
197.273	32.95
197.491	30.37
197.71	49.59
197.928	53.91
198.146	47.6
198.365	67.59
198.583	83.13
198.801	98.73
199.019	130.07
199.238	144.29
199.456	156.8
199.674	150.66
199.892	125.22
200.111	120.54
200.329	103.4
200.547	107.42
200.765	100.79
200.983	75.46
201.202	74.34
201.42	52.51
201.638	28.09
201.856	-6.22
202.074	-161.76
202.292	-938.01
202.51	136.33
202.728	88.26
202.946	108.09
203.165	166.61
203.383	161.59
203.601	191.8
203.819	196.19
204.037	300.13
204.255	349.99
204.473	499.66
204.691	1123.21
204.909	-255.18
205.127	-137.31
205.345	-227.2
205.562	-226.74
205.78	-2197.93
205.998	3690.38
206.216	-767.77
206.434	385.21
206.652	197.58
206.87	174.89
207.088	193.13
207.306	220.56
207.523	678.49
207.741	-483.15
207.959	268.52
208.177	21353.85
208.395	267.27
208.612	113.23
208.83	138.81
209.048	124.62
209.266	115.08
209.483	103.28
209.701	76.29
209.919	62.22
210.136	42.01
210.354	35.97
210.572	30.04
210.79	37.75
211.007	93.47
211.225	76.27
211.442	150.02
211.66	724.28
211.878	-1385.13
212.095	-710.93
212.313	-656.21
212.53	-853.48
212.748	-1441.63
212.966	-1145.58
213.183	-711.16
213.401	-364.92
213.618	-318.1
213.836	-339.04
214.053	-454.88
214.271	-426.92
214.488	157.17
214.705	235.82
214.923	1328.85
215.14	-85.51
215.358	-6.92
215.575	7.5
215.793	-6.91
216.01	-112.64
216.227	-204.38
216.445	1.31
216.662	30.36
216.879	55.55
217.097	65.89
217.314	-6.41
217.531	1.64
217.749	1.36
217.966	30.79
218.183	-11.26
218.4	-1160.58
218.618	72.81
218.835	72.65
219.052	68.3
219.269	60.51
219.487	52.63
219.704	46.2
219.921	39.08
220.138	29.66
220.355	44.21
220.572	49.06
220.79	40.56
221.007	83
221.224	52.43
221.441	37.69
221.658	62.11
221.875	57
222.092	76.83
222.309	63.65
222.526	80.91
222.743	86.88
222.96	67.5
223.177	54.72
223.394	37.09
223.611	33.74
223.828	-4746.15
224.045	52.76
224.262	-371.3
224.479	109.17
224.696	919.53
224.913	-37.73
225.13	-39.96
225.347	-23.72
225.564	-211.3
225.781	-359.56
225.997	-294.44
226.214	-224.93
226.431	-44.32
226.648	-51.97
226.865	-44.92
227.082	-44.01
227.298	-59.45
227.515	-40.58
227.732	-31.45
227.949	-12.62
228.165	-10.46
228.382	-16.62
228.599	-21.19
228.816	-20.54
229.032	-32.23
229.249	-29.32
229.466	-28.68
229.682	-29.5
229.899	-42.7
230.116	-40.29
230.332	-29.18
230.549	-32.03
230.765	-10.22
230.982	-13.28
231.199	-40.63
231.415	-9.98
231.632	7.07
231.848	12.95
232.065	27.11
232.281	31.75
232.498	43.26
232.714	40.94
232.931	52.38
233.147	48.81
233.364	47.95
233.58	69.73
233.797	65.03
234.013	62.3
234.23	66.2
234.446	85.03
234.662	75.95
234.879	47.14
235.095	38.32
235.312	29.39
235.528	11.57
235.744	27.54
235.961	28.42
236.177	-8.2
236.393	-63.83
236.61	-61.28
236.826	-104.25
237.042	-89.96
237.258	-60.59
237.475	-71.17
237.691	-87.38
237.907	-46.76
238.123	-56.37
238.339	-72.96
238.556	-34.92
238.772	-9.31
238.988	-2.03
239.204	8.86
239.42	8.7
239.636	-11.27
239.853	12.28
240.069	10.68
240.285	16.19
240.501	15.51
240.717	4.68
240.933	2.59
241.149	4.17
241.365	5.83
241.581	1.48
241.797	4.19
242.013	10.57
242.229	8.57
242.445	8.02
242.661	1.44
242.877	4.32
243.093	14.79
243.309	15.01
243.525	18.14
243.741	15.07
243.957	15.39
244.173	13.66
244.388	11.64
244.604	11.37
244.82	15.51
245.036	17.88
245.252	9.65
245.468	5.25
245.683	-0.86
245.899	-2.43
246.115	-1.9
246.331	0.73
246.547	0.65
246.762	2.33
246.978	0.54
247.194	-1.84
247.409	-2.87
247.625	2.41
247.841	5.55
248.057	10.7
248.272	10.51
248.488	14.07
248.703	14.21
248.919	13.12
249.135	8.94
249.35	13.2
249.566	12.94
249.782	13.64
249.997	17.2
250.213	19.92
250.428	15.47
250.644	15.74
250.859	21.99
251.075	21.89
251.29	18.52
251.506	19.31
251.721	18.32
251.937	19.41
252.152	19.48
252.368	17.24
252.583	10.78
252.798	12.87
253.014	12.23
253.229	1.79
253.445	4.61
253.66	13.15
253.875	12.76
254.091	8.66
254.306	10.95
254.521	12.78
254.737	4.41
254.952	5.8
255.167	7.02
255.383	1.05
255.598	6.14
255.813	2.2
256.028	0.07
256.244	-3.42
256.459	1.08
256.674	-7.83
256.889	-10.15
257.104	-5.68
257.32	-4.9
257.535	-1.58
257.75	5.69
257.965	7.47
258.18	7.35
258.395	6.81
258.61	8.53
258.826	7.13
259.041	9.15
259.256	8.2
259.471	7.78
259.686	7.21
259.901	3.62
260.116	4.77
260.331	6.09
260.546	4.89
260.761	6.04
260.976	5.64
261.191	6.67
261.406	5.73
261.621	8.56
261.836	13.93
262.05	15.05
262.265	19.79
262.48	11.93
262.695	4.85
262.91	12.8
263.125	13.52
263.34	14.42
263.555	18.98
263.769	16.87
263.984	16.47
264.199	11.7
264.414	11.77
264.629	10.3
264.843	10.37
265.058	10.25
265.273	5.84
265.488	8.24
265.702	8.14
265.917	5.9
266.132	6.54
266.346	4.61
266.561	3.33
266.776	6.88
266.99	9.11
267.205	9.23
267.42	7.33
267.634	6.51
267.849	5.37
268.063	7.03
268.278	6.61
268.492	6.66
268.707	9.32
268.922	12.02
269.136	12.68
269.351	10.57
269.565	10.86
269.78	12.02
269.994	11.44
270.209	8.16
270.423	7.6
270.637	9.9
270.852	8.64
271.066	6.53
271.281	8.69
271.495	6.21
271.709	6.44
271.924	8.69
272.138	10.41
272.353	12.89
272.567	12.3
272.781	12.38
272.996	9.31
273.21	10.41
273.424	13.92
273.638	13.8
273.853	13.82
274.067	13.43
274.281	12.32
274.495	10.46
274.71	8.66
274.924	12.6
275.138	11.83
275.352	11.43
275.566	12.6
275.781	8.03
275.995	5.98
276.209	4.32
276.423	5.66
276.637	4.96
276.851	5.12
277.065	6.77
277.279	5.87
277.493	7.52
277.707	9.63
277.921	5.27
278.135	3.76
278.349	0.5
278.563	3.82
278.777	3.33
278.991	1.81
279.205	-1.54
279.419	-2.08
279.633	-7.3
279.847	-10.04
280.061	-10.51
280.275	-10.29
280.489	-7.75
280.703	-5.28
280.917	-6.99
281.131	-5.75
281.344	-3.11
281.558	-3.02
281.772	-4.8
281.986	0.26
282.2	2.56
282.414	-0.24
282.627	3.53
282.841	4.14
283.055	4.56
283.269	3.98
283.482	2.74
283.696	0.98
283.91	1.3
284.123	-0.44
284.337	-1.84
284.551	-3.17
284.764	-1.1
284.978	-0.66
285.192	-1.27
285.405	-3.55
285.619	-4.37
285.833	-1.8
286.046	-0.93
286.26	3.29
286.473	6.29
286.687	5.59
286.9	5.33
287.114	6.8
287.327	6.8
287.541	4.27
287.754	5.57
287.968	5.97
288.181	2.36
288.395	1.96
288.608	-1.61
288.822	-2.76
289.035	-0.12
289.248	-0.31
289.462	0.53
289.675	-1.25
289.889	1.86
290.102	2
290.315	5.93
290.529	9.23
290.742	9.35
290.955	10.75
291.169	10.48
291.382	10.19
291.595	10.25
291.808	9.3
292.022	13.6
292.235	14.69
292.448	16.17
292.661	12.27
292.875	8.4
293.088	6.78
293.301	6.17
293.514	7.49
293.727	6.72
293.94	8.88
294.153	7.51
294.367	3.85
294.58	2.21
294.793	3.13
295.006	3.81
295.219	3.84
295.432	4.56
295.645	4.41
295.858	4.95
296.071	4.77
296.284	2.93
296.497	2.42
296.71	2.97
296.923	3.76
297.136	3.32
297.349	4.02
297.562	6.26
297.775	6.83
297.988	6.91
298.201	6.23
298.414	5.68
298.626	7.65
298.839	8.03
299.052	9.04
299.265	10.86
299.478	10.45
299.691	10.96
299.903	8.3
300.116	8.01
300.329	10.37
300.542	12.6
300.755	12.8
300.967	11.49
301.18	12.61
301.393	10.72
301.605	8.97
301.818	8.7
302.031	6.42
302.243	9.44
302.456	9.5
302.669	7.83
302.881	6.41
303.094	7.28
303.307	8.82
303.519	8.48
303.732	8.81
303.944	6.51
304.157	9.16
304.37	11.31
304.582	12.13
304.795	11.17
305.007	11.33
305.22	8.53
305.432	7.32
305.645	5.66
305.857	5.54
306.069	5.92
306.282	7.55
306.494	6.52
306.707	4.36
306.919	2.6
307.132	6.29
307.344	3.74
307.556	6.1
307.769	7.63
307.981	7.29
308.193	8.51
308.406	10.21
308.618	11.86
308.83	13.18
309.043	13.8
309.255	16.55
309.467	14.52
309.679	18.04
309.892	17.02
310.104	18.42
310.316	17.5
310.528	15.68
310.74	15.92
310.953	16.99
311.165	16.12
311.377	16.33
311.589	14.47
311.801	17.15
312.013	17.25
312.225	17.14
312.437	17.01
312.649	18.98
312.862	23.32
313.074	22.03
313.286	22.32
313.498	21.42
313.71	22.27
313.922	21.24
314.134	21.04
314.346	19.73
314.558	22.4
314.77	21.58
314.982	21.76
315.193	19.05
315.405	18.98
315.617	17.04
315.829	16.74
316.041	14.71
316.253	15.72
316.465	13.1
316.677	11.69
316.888	8.39
317.1	8.75
317.312	8.38
317.524	7.86
317.736	9.36
317.947	9.09
318.159	9.61
318.371	12.96
318.583	11.53
318.794	13.34
319.006	13.49
319.218	14
319.43	15.24
319.641	17.68
319.853	17.05
320.064	16.54
320.276	15.68
320.488	15.15
320.699	13.63
320.911	13.7
321.123	14.28
321.334	14.65
321.546	16.51
321.757	14.7
321.969	14.3
322.18	15.05
322.392	16.41
322.603	17.67
322.815	16.98
323.026	16.04
323.238	16.22
323.449	13.61
323.661	14.51
323.872	12.38
324.083	12.57
324.295	12.53
324.506	12.28
324.718	10.75
324.929	9.66
325.14	9.43
325.352	11.02
325.563	12.51
325.774	14.96
325.986	17.06
326.197	16.4
326.408	15.4
326.62	14.54
326.831	15.04
327.042	15.61
327.253	15.82
327.464	15.75
327.676	15.91
327.887	14.19
328.098	13.58
328.309	11.17
328.52	14.9
328.732	14.1
328.943	14.39
329.154	13.67
329.365	14.01
329.576	17.01
329.787	17.53
329.998	16.82
330.209	17.17
330.42	16.91
330.631	17.91
330.842	16.88
331.053	17.85
331.264	16.53
331.475	18.19
331.686	17.07
331.897	14.56
332.108	14.1
332.319	10.94
332.53	14.57
332.741	15.17
332.952	15.62
333.163	15.66
333.374	15.85
333.585	17.2
333.795	15.96
334.006	16.53
334.217	14.65
334.428	17.14
334.639	19.18
334.849	16.44
335.06	14.37
335.271	12.83
335.482	11.35
335.692	12.14
335.903	13.72
336.114	14.96
336.325	13.96
336.535	17.19
336.746	14.85
336.957	15.39
337.167	15.38
337.378	17.5
337.589	16.81
337.799	18.27
338.01	17.59
338.22	14.68
338.431	14.11
338.642	13.32
338.852	12.84
339.063	15.7
339.273	16.05
339.484	18.57
339.694	17.59
339.905	17.54
340.115	18.42
340.326	17.64
340.536	19.08
340.746	21.32
340.957	21.22
341.167	21.45
341.378	19.71
341.588	16.96
341.799	15.7
342.009	14.59
342.219	15.79
342.43	13.49
342.64	15.5
342.85	14.05
343.061	9.86
343.271	10.88
343.481	9.84
343.691	8.94
343.902	11.07
344.112	10.23
344.322	10.87
344.532	9.5
344.743	11.77
344.953	11.52
345.163	12.67
345.373	13.83
345.583	16
345.793	16.89
346.004	17.36
346.214	18.56
346.424	17.53
346.634	16.98
346.844	19.41
347.054	17.24
347.264	16.28
347.474	16.41
347.684	15.96
347.894	13.33
348.104	12.28
348.314	12.73
348.524	10.53
348.734	9.25
348.944	9.67
349.154	7.75
349.364	9.89
349.574	10.69
349.784	9.92
349.994	12.19
350.204	11.86
350.413	12.27
350.623	14.68
350.833	15.46
351.043	17.43
351.253	17.92
351.463	18.73
351.672	16.46
351.882	15.67
352.092	15.85
352.302	15.18
352.511	16.13
352.721	17.28
352.931	15.95
353.141	16.49
353.35	17.29
353.56	15.63
353.77	14.46
353.979	14.9
354.189	15.93
354.399	14.68
354.608	14.31
354.818	16.18
355.027	14.81
355.237	12.86
355.447	13.01
355.656	11.21
355.866	13.64
356.075	15.2
356.285	15.26
356.494	15.19
356.704	17.64
356.913	17.53
357.123	17.18
357.332	18.04
357.542	18.36
357.751	18.19
357.96	18.5
358.17	17.96
358.379	16.86
358.589	17.45
358.798	17.17
359.007	16.2
359.217	15.56
359.426	14.52
359.635	14.07
359.845	13.84
360.054	13.95
360.263	14.23
360.472	14.43
360.682	14.27
360.891	13.22
361.1	12.84
361.309	12.64
361.519	13.6
361.728	13.59
361.937	12.45
362.146	13.19
362.355	11.9
362.564	12.39
362.774	11.21
362.983	12.54
363.192	12.8
363.401	12.84
363.61	11.94
363.819	12.51
364.028	13.32
364.237	14.26
364.446	14.78
364.655	15.78
364.864	16.34
365.073	16.65
365.282	15.62
365.491	17.37
365.7	17.6
365.909	18.35
366.118	16.79
366.327	15.63
366.536	15.5
366.745	14.74
366.954	16.54
367.162	16.4
367.371	17.2
367.58	16.62
367.789	14.84
367.998	14.39
368.207	14.92
368.415	15.84
368.624	15.39
368.833	16.01
369.042	16.72
369.25	15.33
369.459	14.52
369.668	13.54
369.877	13.35
370.085	13.88
370.294	14.86
370.503	15.55
370.711	15.7
370.92	15.35
371.129	16.2
371.337	16.42
371.546	16.19
371.754	16.17
371.963	16.65
372.171	17.4
372.38	17.71
372.589	18.87
372.797	18.5
373.006	17.61
373.214	17.77
373.423	16.7
373.631	17.5
373.84	16.81
374.048	17.84
374.256	17.45
374.465	18.34
374.673	18.55
374.882	16.25
375.09	16.13
375.298	15.84
375.507	16.84
375.715	16.45
375.923	14.23
376.132	14.83
376.34	13.37
376.548	13.76
376.757	11.83
376.965	10.89
377.173	11.22
377.381	11.08
377.59	11.18
377.798	10.62
378.006	10.57
378.214	12.7
378.423	11.96
378.631	12.32
378.839	12.49
379.047	14.47
379.255	14.43
379.463	13.87
379.671	12.65
379.879	11.93
380.088	12.05
380.296	12.46
380.504	11.07
380.712	11.66
380.92	11.63
381.128	12.02
381.336	11.36
381.544	12.45
381.752	13.45
381.96	14.62
382.168	15.42
382.376	15.91
382.584	15.63
382.791	15.96
382.999	15.92
383.207	15.88
383.415	14.96
383.623	14.02
383.831	13.61
384.039	14.12
384.247	12.83
384.454	13.1
384.662	13.39
384.87	13.83
385.078	13.16
385.285	11.97
385.493	12.52
385.701	12.25
385.909	12.84
386.116	13.72
386.324	13.86
386.532	14.89
386.739	14.41
386.947	13.2
387.155	13.47
387.362	15.55
387.57	17.4
387.778	18.01
387.985	17.34
388.193	17.86
388.4	16.54
388.608	14.05
388.816	14.57
389.023	13.51
389.231	14.01
389.438	12.86
389.646	11.94
389.853	10.6
390.061	10.05
390.268	11.42
390.475	11.65
390.683	12.72
390.89	13.69
391.098	13.21
391.305	14.7
391.512	14.92
391.72	15.09
391.927	14.61
392.135	15.33
392.342	14.59
392.549	14.85
392.756	14.21
392.964	14.33
393.171	14.72
393.378	15.12
393.586	15.03
393.793	14.61
394	14.6
394.207	14.9
394.414	14.75
394.622	14.77
394.829	15.22
395.036	15.04
395.243	14.2
395.45	13.72
395.657	12.65
395.864	12.33
396.072	12.14
396.279	13.24
396.486	12.78
396.693	12.36
396.9	12.19
397.107	11.65
397.314	12.4
397.521	12.36
397.728	12.39
397.935	12.31
398.142	12.06
398.349	13.81
398.556	13.97
398.763	13.9
398.97	13.81
399.177	15.03
399.383	15.08
399.59	14.01
399.797	13.33
400.004	13.9
400.211	14.63
400.418	13.23
400.625	12.26
400.831	11.25
401.038	11.81
401.245	13.24
401.452	12.99
401.658	13.14
401.865	14.95
402.072	16.55
402.279	17.13
402.485	17.36
402.692	18.7
402.899	18.23
403.105	18.42
403.312	18.23
403.519	16.89
403.725	15.56
403.932	14.85
404.138	14.6
404.345	14.48
404.552	14.56
404.758	15.27
404.965	15.58
405.171	15.84
405.378	15.45
405.584	15.49
405.791	16.2
405.997	18.02
406.204	19.56
406.41	19.16
406.617	19.27
406.823	19.07
407.029	18.01
407.236	19.04
407.442	19.13
407.649	20.55
407.855	20.27
408.061	20.12
408.268	20.02
408.474	19.4
408.68	19.68
408.887	19.14
409.093	19.26
409.299	19.74
409.505	18.14
409.712	18.18
409.918	17.2
410.124	17.64
410.33	17.76
410.537	17.08
410.743	16.99
410.949	16.56
411.155	16.37
411.361	14.68
411.567	15.15
411.773	15.94
411.98	16.13
412.186	16.18
412.392	16.56
412.598	17.17
412.804	17.63
413.01	17.87
413.216	18.47
413.422	19.63
413.628	21.11
413.834	21.08
414.04	21.6
414.246	21.59
414.452	21.7
414.658	20.95
414.864	21.03
415.07	20.99
415.275	20.69
415.481	20.47
415.687	19.4
415.893	18.91
416.099	17.82
416.305	17.37
416.511	17.53
416.716	17.91
416.922	18.56
417.128	18.69
417.334	19.06
417.539	18.93
417.745	19.18
417.951	19.66
418.157	20.27
418.362	21.17
418.568	21.49
418.774	21.5
418.979	21.4
419.185	21.24
419.391	20.78
419.596	21.22
419.802	20.98
420.008	20.95
420.213	20.3
420.419	19.95
420.624	19.51
420.83	18.89
421.035	18.72
421.241	18.89
421.446	19.12
421.652	19.05
421.857	18.27
422.063	18.34
422.268	18.25
422.474	18.49
422.679	18.42
422.885	18.04
423.09	18.51
423.295	18.49
423.501	18.6
423.706	18.15
423.911	18.21
424.117	18.53
424.322	18.75
424.527	18.77
424.733	18.87
424.938	19.43
425.143	20.15
425.349	20
425.554	20.59
425.759	19.79
425.964	20.12
426.169	20.58
426.375	20.18
426.58	20.17
426.785	20.45
426.99	20.66
427.195	20.25
427.4	20.25
427.605	21.12
427.811	20.4
428.016	20.94
428.221	21.09
428.426	20.58
428.631	20.83
428.836	20.73
429.041	20.2
429.246	20.43
429.451	20.7
429.656	20.8
429.861	20.12
430.066	19.94
430.271	19.99
430.476	19.16
430.681	19.71
430.886	19.85
431.09	20.05
431.295	19.98
431.5	19.94
431.705	19.84
431.91	19.6
432.115	19.75
432.32	20.26
432.524	20.13
432.729	20.9
432.934	20.61
433.139	21.1
433.343	21.45
433.548	21.42
433.753	21.25
433.958	21.19
434.162	21.34
434.367	21.24
434.572	21.07
434.776	21.46
434.981	21.29
435.186	21.03
435.39	20.54
435.595	20.47
435.799	20.59
436.004	20.6
436.209	20.49
436.413	20.4
436.618	20.18
436.822	20.51
437.027	20.46
437.231	20.24
437.436	20.27
437.64	20.74
437.845	20.22
438.049	20.43
438.253	20.97
438.458	21.2
438.662	20.72
438.867	20.74
439.071	20.21
439.275	20.66
439.48	20.8
439.684	20.76
439.888	20.33
440.093	20.31
440.297	20.1
440.501	19.93
440.706	19.26
440.91	19.62
441.114	19.44
441.318	19.72
441.523	19.16
441.727	18.68
441.931	18.6
442.135	18.76
442.339	19.06
442.543	19.2
442.748	18.98
442.952	18.93
443.156	19.12
443.36	19.43
443.564	19.57
443.768	19.67
443.972	19.86
444.176	20.16
444.38	19.88
444.584	19.74
444.788	19.35
444.992	19.25
445.196	19.7
445.4	19.68
445.604	19.82
445.808	19.29
446.012	19.16
446.216	19.12
446.42	19.01
446.624	19.09
446.828	19.04
447.032	19.19
447.235	19.22
447.439	18.77
447.643	18.64
447.847	18.28
448.051	18.28
448.254	17.88
448.458	17.68
448.662	18.03
448.866	17.71
449.069	18.07
449.273	18.35
449.477	18.2
449.681	18.6
449.884	18.54
450.088	18.48
450.292	18.42
450.495	19.29
450.699	19.52
450.902	19.31
451.106	19.18
451.31	18.65
451.513	18.42
451.717	18.09
451.92	17.67
452.124	17.64
452.327	18.17
452.531	18.39
452.734	17.71
452.938	18.04
453.141	18.28
453.345	18.5
453.548	18.33
453.752	19.13
453.955	19.56
454.158	19.9
454.362	19.52
454.565	19.59
454.769	19.68
454.972	20.22
455.175	20.21
455.379	19.4
455.582	20.08
455.785	20.32
455.988	18.96
456.192	18.97
456.395	19
456.598	19.19
456.801	18.47
457.005	18.8
457.208	18.92
457.411	18.37
457.614	18.41
457.817	17.86
458.021	18.2
458.224	18.71
458.427	18.6
458.63	18.63
458.833	18.89
459.036	18.93
459.239	18.96
459.442	18.52
459.645	19.08
459.848	19.39
460.051	19.4
460.254	19.37
460.457	19.35
460.66	19.35
460.863	19.67
461.066	19.66
461.269	19.7
461.472	19.56
461.675	19.29
461.878	19.36
462.081	18.89
462.284	18.88
462.486	18.8
462.689	18.43
462.892	18.63
463.095	18.03
463.298	18.18
463.5	18.16
463.703	18.24
463.906	19.12
464.109	18.38
464.311	18.79
464.514	19.19
464.717	19.09
464.92	19.49
465.122	19.57
465.325	20.32
465.528	19.82
465.73	20.38
465.933	20.13
466.135	19.15
466.338	19.78
466.541	19.85
466.743	19.3
466.946	19.81
467.148	19.85
467.351	19.57
467.553	18.96
467.756	18.88
467.958	18.34
468.161	18.39
468.363	19.58
468.566	19
468.768	18.78
468.971	18.94
469.173	18.43
469.375	18.61
469.578	18.27
469.78	18.73
469.983	18.92
470.185	19.32
470.387	19.88
470.59	19.23
470.792	19.96
470.994	19.87
471.196	20.3
471.399	20.42
471.601	20.42
471.803	20.88
472.005	20.7
472.208	20.88
472.41	20.72
472.612	19.83
472.814	19.96
473.016	19.55
473.218	19.76
473.421	20
473.623	19.27
473.825	19.11
474.027	18.92
474.229	18.82
474.431	18.43
474.633	18.57
474.835	19.26
475.037	19.62
475.239	19.87
475.441	19.9
475.643	19.68
475.845	19.91
476.047	19.68
476.249	20.2
476.451	20.1
476.653	20.24
476.855	20.26
477.057	20.7
477.258	20.69
477.46	20.18
477.662	20.25
477.864	19.91
478.066	20.34
478.268	20.22
478.469	20.05
478.671	20.45
478.873	20.47
479.075	20.41
479.276	19.9
479.478	20
479.68	20.21
479.882	20.38
480.083	20.37
480.285	20.11
480.487	20.49
480.688	20.28
480.89	20.13
481.091	20.01
481.293	19.8
481.495	19.45
481.696	19.12
481.898	19.1
482.099	18.84
482.301	18.76
482.502	18.87
482.704	18.64
482.905	18.48
483.107	18.22
483.308	18.19
483.51	18.29
483.711	18.31
483.913	18.43
484.114	18.35
484.315	18.31
484.517	18.47
484.718	18.31
484.92	18.48
485.121	18.54
485.322	18.9
485.524	19.08
485.725	19.01
485.926	19.05
486.127	18.85
486.329	18.88
486.53	18.83
486.731	18.68
486.932	18.53
487.134	18.38
487.335	18.36
487.536	18.26
487.737	18.1
487.938	17.97
488.139	17.93
488.341	18
488.542	17.85
488.743	18.01
488.944	18.3
489.145	18.65
489.346	18.61
489.547	18.83
489.748	18.71
489.949	18.82
490.15	19.16
490.351	19.3
490.552	19.22
490.753	19.2
490.954	19.11
491.155	18.76
491.356	18.54
491.557	18.56
491.758	18.59
491.959	18.65
492.159	18.59
492.36	18.45
492.561	18.54
492.762	18.74
492.963	19.02
493.164	19
493.364	19.24
493.565	19.41
493.766	20.08
493.967	20.31
494.167	20.47
494.368	20.86
494.569	20.65
494.769	20.3
494.97	20.17
495.171	20.41
495.371	20.68
495.572	20.7
495.773	20.61
495.973	20.22
496.174	19.88
496.375	19.74
496.575	19.47
496.776	19.62
496.976	19.46
497.177	19.23
497.377	18.83
497.578	18.35
497.778	18.44
497.979	19.02
498.179	18.8
498.38	18.95
498.58	18.77
498.78	19.13
498.981	19.2
499.181	19.93
499.382	19.81
499.582	19.76
499.782	20.19
499.983	19.88
500.183	19.23
500.383	19.7
500.584	19.17
500.784	19.57
500.984	19.22
501.184	19.05
501.385	18.65
501.585	18.71
501.785	19.29
501.985	19.38
502.185	19.74
502.386	20.26
502.586	20.21
502.786	20.51
502.986	20.44
503.186	20.39
503.386	20.97
503.586	20.57
503.786	20.85
503.987	21.08
504.187	20.92
504.387	21.23
504.587	20.91
504.787	20.75
504.987	20.9
505.187	20.77
505.387	20.98
505.587	20.12
505.786	20.45
505.986	20.56
506.186	20.29
506.386	20.13
506.586	20.06
506.786	20.16
506.986	20
507.186	19.66
507.386	20.02
507.585	19.89
507.785	20.27
507.985	20.39
508.185	20.47
508.384	20.28
508.584	20.67
508.784	20.17
508.984	20.33
509.183	20.59
509.383	21.06
509.583	21.03
509.782	21.32
509.982	21.67
510.182	21.75
510.381	21.84
510.581	22.21
510.781	22.21
510.98	22.3
511.18	22.42
511.379	22.69
511.579	22.74
511.778	22.93
511.978	22.47
512.177	22.42
512.377	22.56
512.576	22.59
512.776	22.44
512.975	22.53
513.175	22.37
513.374	22.17
513.573	22.22
513.773	21.8
513.972	21.79
514.172	22.01
514.371	22.2
514.57	22.49
514.77	22.5
514.969	22.53
515.168	22.7
515.367	23.19
515.567	23.07
515.766	22.62
515.965	23.62
516.164	23.41
516.364	23.73
516.563	23.59
516.762	23.46
516.961	23.77
517.16	23.79
517.359	23.98
517.559	24.03
517.758	24.41
517.957	24.56
518.156	24.35
518.355	24.44
518.554	24.37
518.753	24.52
518.952	24.47
519.151	24.23
519.35	24.08
519.549	23.64
519.748	23.79
519.947	23.58
520.146	23.72
520.345	23.54
520.544	23.6
520.743	23.78
520.942	23.83
521.141	24.18
521.339	24.54
521.538	24.94
521.737	25.21
521.936	25.23
522.135	25.64
522.333	25.88
522.532	25.97
522.731	25.8
522.93	26.12
523.129	26.01
523.327	25.86
523.526	25.68
523.725	25.93
523.923	26
524.122	26.06
524.321	26.36
524.519	26.44
524.718	26.52
524.917	26.95
525.115	27.08
525.314	27.23
525.512	27.39
525.711	27.63
525.909	27.66
526.108	27.68
526.306	27.76
526.505	27.64
526.703	27.52
526.902	27.74
527.1	27.71
527.299	27.61
527.497	27.51
527.696	27.46
527.894	27.41
528.092	27.27
528.291	27.48
528.489	27.32
528.688	27.53
528.886	27.56
529.084	27.51
529.283	27.68
529.481	27.67
529.679	27.86
529.877	28.05
530.076	28.25
530.274	28.59
530.472	28.64
530.67	29.19
530.869	29.09
531.067	29.54
531.265	29.66
531.463	29.59
531.661	29.85
531.859	29.83
532.057	29.87
532.255	29.86
532.454	29.87
532.652	29.9
532.85	30.07
533.048	29.65
533.246	29.66
533.444	29.75
533.642	29.87
533.84	29.95
534.038	30.2
534.236	30.27
534.434	30.31
534.632	30.4
534.83	30.77
535.027	30.54
535.225	31.02
535.423	31.21
535.621	31
535.819	30.89
536.017	30.84
536.215	30.68
536.412	30.61
536.61	30.89
536.808	30.99
537.006	30.6
537.203	30.65
537.401	30.82
537.599	30.64
537.797	31.09
537.994	31.44
538.192	31.38
538.39	31.44
538.587	31.68
538.785	31.57
538.983	31.7
539.18	31.93
539.378	31.89
539.575	31.84
539.773	31.94
539.97	31.8
540.168	32.01
540.366	32.15
540.563	32.35
540.761	32.5
540.958	32.52
541.155	32.42
541.353	32.6
541.55	32.7
541.748	32.96
541.945	32.93
542.143	33.28
542.34	33.36
542.537	33.34
542.735	33.41
542.932	33.11
543.129	33.29
543.327	33.32
543.524	33.47
543.721	33.68
543.919	33.4
544.116	33.63
544.313	33.64
544.51	33.18
544.708	33.41
544.905	33.64
545.102	34.17
545.299	34.12
545.496	34.07
545.693	34.17
545.891	34.24
546.088	34.27
546.285	33.86
546.482	33.94
546.679	34.24
546.876	34.27
547.073	34.37
547.27	34.17
547.467	34.55
547.664	34.94
547.861	34.56
548.058	34.66
548.255	34.78
548.452	35.34
548.649	35.71
548.846	35.96
549.043	35.54
549.24	35.19
549.437	35.58
549.633	35.51
549.83	35.53
550.027	35.25
550.224	35.08
550.421	35.23
550.618	35.45
550.814	35.05
551.011	35.24
551.208	35.5
551.405	35.83
551.601	35.64
551.798	35.7
551.995	35.36
552.191	36.22
552.388	36.71
552.585	36.98
552.781	36.84
552.978	36.86
553.175	36.76
553.371	37.41
553.568	37.16
553.764	36.9
553.961	36.4
554.157	36.86
554.354	35.81
554.55	35.17
554.747	34.81
554.943	34.79
555.14	34.51
555.336	34.75
555.533	34.55
555.729	34.53
555.926	34.91
556.122	35.33
556.318	35.47
556.515	35.9
556.711	36.21
556.907	36.49
557.104	36.82
557.3	37.31
557.496	37.39
557.693	36.97
557.889	37.85
558.085	37.9
558.281	38.23
558.478	37.56
558.674	37.83
558.87	37.95
559.066	37.99
559.262	37.97
559.459	38.31
559.655	38.12
559.851	38.59
560.047	37.88
560.243	38.14
560.439	37.63
560.635	38.5
560.831	38.61
561.027	38.55
561.223	38.64
561.419	38.54
561.615	38.01
561.811	38.21
562.007	38.18
562.203	38.36
562.399	38.56
562.595	39.56
562.791	39.51
562.987	39.5
563.183	40.09
563.379	40.49
563.575	40.74
563.771	41.16
563.966	40.71
564.162	41.26
564.358	41.76
564.554	41.57
564.75	40.61
564.945	41.09
565.141	40.93
565.337	40.17
565.533	39.95
565.728	40.22
565.924	40.26
566.12	40.61
566.315	40.3
566.511	40
566.707	39.98
566.902	40.26
567.098	39.46
567.293	40.04
567.489	41.22
567.684	41.65
567.88	41.27
568.076	40.93
568.271	40.93
568.467	40.82
568.662	40.62
568.858	40.54
569.053	40.83
569.248	41.31
569.444	41.15
569.639	40.22
569.835	39.98
570.03	40.22
570.225	40.34
570.421	40.04
570.616	40.3
570.812	40.8
571.007	41.17
571.202	41.28
571.397	41.39
571.593	41.5
571.788	41.75
571.983	41.54
572.178	41.73
572.374	41.78
572.569	41.87
572.764	41.73
572.959	41.63
573.154	41.25
573.35	41.5
573.545	41.23
573.74	41.34
573.935	41.56
574.13	41.37
574.325	40.96
574.52	41.07
574.715	41.73
574.91	41.98
575.105	42.16
575.3	42.4
575.495	42.26
575.69	42.47
575.885	42.4
576.08	42.41
576.275	43.29
576.47	43.49
576.665	43.37
576.86	42.66
577.055	41.8
577.25	42.01
577.444	42.5
577.639	41.67
577.834	41.42
578.029	41.11
578.224	40.9
578.418	40.85
578.613	40.67
578.808	40.93
579.003	40.68
579.197	41.48
579.392	40.89
579.587	40.28
579.781	41.71
579.976	42.36
580.171	42.85
580.365	42.6
580.56	42.72
580.755	42.9
580.949	43.32
581.144	44.04
581.338	44.29
581.533	44.28
581.727	44.58
581.922	44.7
582.116	44.43
582.311	44.08
582.505	44.06
582.7	43
582.894	43.03
583.089	43.44
583.283	43.48
583.478	43.26
583.672	42.6
583.866	42.86
584.061	42.29
584.255	42.56
584.449	42.59
584.644	43.55
584.838	44.12
585.032	44.46
585.226	43.95
585.421	44.2
585.615	44.48
585.809	45.64
586.003	45.54
586.198	46.16
586.392	45.49
586.586	45.82
586.78	45.2
586.974	45.74
587.168	45.75
587.363	44.79
587.557	44.25
587.751	43.73
587.945	43.94
588.139	43.97
588.333	43.78
588.527	44.36
588.721	44.33
588.915	43.56
589.109	43.09
589.303	42.69
589.497	43.17
589.691	43.27
589.885	43.3
590.079	42.58
590.273	42.61
590.466	41.47
590.66	41.73
590.854	41.9
591.048	42.94
591.242	43.1
591.436	43.13
591.629	43.02
591.823	43.28
592.017	43.71
592.211	44.4
592.404	44.26
592.598	44.69
592.792	44.01
592.986	43.57
593.179	43.52
593.373	43.03
593.567	43.34
593.76	43.79
593.954	44.26
594.147	44.61
594.341	44.45
594.535	44.48
594.728	44.4
594.922	45.14
595.115	45.34
595.309	45.57
595.502	45.81
595.696	45.95
595.889	45.6
596.083	44.73
596.276	44.89
596.47	44.72
596.663	45.1
596.856	45.13
597.05	44.43
597.243	44.24
597.437	43.99
597.63	44.05
597.823	43.62
598.017	44.55
598.21	45.18
598.403	44.85
598.596	45.33
598.79	44.66
598.983	45.13
599.176	46.28
599.369	45.94
599.563	45.94
599.756	45.85
599.949	46.61
600.142	45.98
600.335	45.81
600.528	45.77
600.722	45.23
600.915	45.24
601.108	45.46
601.301	45.06
601.494	45.89
601.687	46.27
601.88	46.67
602.073	46.17
602.266	45.71
602.459	45.43
602.652	45.09
602.845	45.37
603.038	44.84
603.231	44.83
603.424	45.06
603.617	45.05
603.809	44.48
604.002	43.96
604.195	44.63
604.388	45.23
604.581	45.29
604.774	45.83
604.966	45.54
605.159	46.2
605.352	45.77
605.545	44.67
605.737	43.97
605.93	44.42
606.123	44.69
606.316	43.4
606.508	43.2
606.701	43.72
606.894	44.02
607.086	44.51
607.279	44.06
607.471	44.77
607.664	45.64
607.857	46.3
608.049	46.52
608.242	46.42
608.434	47.08
608.627	46.9
608.819	46.84
609.012	46.17
609.204	46.36
609.397	46.81
609.589	46.67
609.782	47.43
609.974	47.96
610.166	47.42
610.359	47.61
610.551	47.44
610.743	47.8
610.936	47.41
611.128	47.11
611.32	47.15
611.513	47.14
611.705	46.84
611.897	45.7
612.09	45.03
612.282	45.2
612.474	45.47
612.666	46.99
612.858	46.87
613.051	47.96
613.243	47.77
613.435	48.02
613.627	48.77
613.819	49.25
614.011	49.97
614.203	49.84
614.395	50.46
614.588	51.3
614.78	49.78
614.972	50.21
615.164	49.68
615.356	50.73
615.548	49.89
615.74	49.47
615.932	48.75
616.124	48.72
616.315	49.03
616.507	48.63
616.699	47.25
616.891	47.59
617.083	47.85
617.275	48.54
617.467	48.23
617.659	48.23
617.85	47.47
618.042	47.7
618.234	47.38
618.426	46.92
618.618	47.35
618.809	47.66
619.001	47.21
619.193	46.44
619.384	45.63
619.576	46.13
619.768	45.87
619.959	46.85
620.151	48.06
620.343	48.59
620.534	48.91
620.726	47.9
620.917	48.1
621.109	48.91
621.301	49.04
621.492	49.25
621.684	49.15
621.875	49.81
622.067	49.6
622.258	49.4
622.45	49.16
622.641	49.17
622.832	51.25
623.024	50.9
623.215	50.58
623.407	50.43
623.598	51.42
623.789	51.65
623.981	52.12
624.172	51.91
624.363	51.17
624.555	51.44
624.746	51.58
624.937	50.19
625.129	50.99
625.32	50.98
625.511	51.19
625.702	49.97
625.893	49.11
626.085	48.4
626.276	48.67
626.467	48.51
626.658	48.39
626.849	48.11
627.04	48.77
627.231	48
627.422	47.72
627.614	47.54
627.805	48.06
627.996	48.15
628.187	47.75
628.378	47.57
628.569	47.52
628.76	47.32
628.951	46.76
629.142	46.16
629.332	46.14
629.523	47.01
629.714	46.6
629.905	47.15
630.096	47.25
630.287	47.32
630.478	47.53
630.669	48.42
630.859	48
631.05	48.8
631.241	49.17
631.432	49.62
631.623	48.91
631.813	49.32
632.004	47.94
632.195	47.28
632.385	47.93
632.576	47.6
632.767	47.62
632.957	47.26
633.148	47.06
633.339	46.49
633.529	46.56
633.72	46.84
633.91	46.55
634.101	47.16
634.292	48.11
634.482	48.04
634.673	48.18
634.863	48.03
635.054	48.79
635.244	48.27
635.435	49.7
635.625	49.21
635.815	49.73
636.006	50.92
636.196	50.01
636.387	49.73
636.577	50.68
636.767	50.3
636.958	49.8
637.148	49.48
637.338	49.72
637.529	48.45
637.719	49.79
637.909	48.83
638.099	48.23
638.29	49.67
638.48	49.92
638.67	49.78
638.86	50.63
639.05	50.89
639.241	50.91
639.431	52.12
639.621	52.07
639.811	52.23
640.001	53.27
640.191	52.64
640.381	52.29
640.571	52.22
640.761	50.59
640.951	50.11
641.141	50.36
641.331	49.99
641.521	49.48
641.711	49.42
641.901	47.22
642.091	46.2
642.281	45.73
642.471	45.03
642.661	44.28
642.851	44.72
643.041	45.04
643.231	44.09
643.42	45.1
643.61	43.98
643.8	44.93
643.99	46.48
644.18	46.85
644.369	47.49
644.559	48.05
644.749	49.38
644.939	48.79
645.128	48.1
645.318	48.63
645.508	47.93
645.697	48.83
645.887	47.57
646.076	47.22
646.266	47.14
646.456	47.74
646.645	47.97
646.835	46.81
647.024	47.58
647.214	47.61
647.403	46.72
647.593	47.13
647.782	46.74
647.972	47.94
648.161	49.02
648.351	48.8
648.54	48.58
648.73	49.46
648.919	50.62
649.108	50.52
649.298	50.93
649.487	52.13
649.677	52.37
649.866	52.35
650.055	51.72
650.244	50.76
650.434	51.69
650.623	51.77
650.812	49.89
651.002	49.95
651.191	49.92
651.38	49.73
651.569	49.78
651.758	49.38
651.947	49.81
652.137	50.2
652.326	49.77
652.515	48.28
652.704	47.47
652.893	47.96
653.082	47.07
653.271	47.14
653.46	47.3
653.649	46.83
653.838	46.67
654.027	46.12
654.216	45.93
654.405	46.42
654.594	47.82
654.783	48.48
654.972	49.17
655.161	49.66
655.35	50.79
655.539	50.21
655.728	50.43
655.916	50.7
656.105	51.01
656.294	50.97
656.483	50.64
656.672	50.62
656.86	50.5
657.049	49.56
657.238	50.51
657.427	49.62
657.615	50.25
657.804	50.54
657.993	50.02
658.181	50.65
658.37	50.12
658.559	50.27
658.747	49.16
658.936	48.82
659.125	49.55
659.313	48.38
659.502	48.58
659.69	48.8
659.879	48.52
660.067	49.79
660.256	49.3
660.444	50.9
660.633	50.87
660.821	52.04
661.01	52.24
661.198	51.87
661.387	53.11
661.575	52.27
661.763	51.55
661.952	51.2
662.14	50.9
662.328	50.85
662.517	49.45
662.705	50.74
662.893	50.08
663.082	51.35
663.27	52.13
663.458	50.37
663.646	51.21
663.834	52.05
664.023	52.91
664.211	53.23
664.399	53.35
664.587	53.07
664.775	51.71
664.963	52.87
665.152	51.86
665.34	51.58
665.528	52.54
665.716	52.45
665.904	52.03
666.092	52.39
666.28	49.9
666.468	50.78
666.656	51.91
666.844	51.43
667.032	51.27
667.22	51.19
667.408	51.55
667.596	51.94
667.784	51.94
667.971	51.67
668.159	50.18
668.347	52
668.535	50.9
668.723	50.5
668.911	50.59
669.098	49.29
669.286	49.86
669.474	49.72
669.662	49.54
669.849	49.19
670.037	49.61
670.225	50.31
670.413	49.61
670.6	50.24
670.788	50.76
670.976	51.67
671.163	52.55
671.351	52.88
671.538	51.98
671.726	52.54
671.913	52.25
672.101	52.59
672.289	51.56
672.476	51.84
672.664	52.67
672.851	53.8
673.039	54.53
673.226	54.55
673.413	54.16
673.601	56.46
673.788	55.84
673.976	57.18
674.163	56.9
674.35	58.73
674.538	59.04
674.725	59.43
674.912	56.98
675.1	55.2
675.287	55.52
675.474	55.47
675.662	54.18
675.849	54.51
676.036	54.56
676.223	54
676.411	53.4
676.598	52.84
676.785	51.04
676.972	52.56
677.159	53.69
677.346	53.5
677.533	53.68
677.721	53.79
677.908	53.1
678.095	52.45
678.282	53.3
678.469	52.46
678.656	52.67
678.843	52.56
679.03	51.54
679.217	51.64
679.404	51.84
679.591	51.44
679.778	51.43
679.964	51.48
680.151	50.87
680.338	51.13
680.525	52.04
680.712	52.63
680.899	53.02
681.086	53.03
681.272	51.65
681.459	49.93
681.646	49.78
681.833	48.72
682.02	48.41
682.206	49.57
682.393	47.91
682.58	48.16
682.766	45.95
682.953	46.06
683.14	48.05
683.326	49.1
683.513	50.9
683.7	51.52
683.886	52.94
684.073	53.83
684.259	53.5
684.446	54.5
684.632	52.92
684.819	55.44
685.005	55.31
685.192	55.14
685.378	55.92
685.565	55.64
685.751	54.72
685.938	54.79
686.124	55.41
686.31	55.81
686.497	55.67
686.683	56.66
686.87	57.1
687.056	55.34
687.242	53.67
687.429	52.42
687.615	52.58
687.801	52.95
687.987	52.5
688.174	51.14
688.36	50.91
688.546	50.84
688.732	50.7
688.918	49.74
689.105	53.02
689.291	53.22
689.477	53.6
689.663	52.22
689.849	51.93
690.035	49.44
690.221	51.9
690.407	51.27
690.593	50.74
690.779	50.91
690.965	50.23
691.151	49.43
691.337	50.43
691.523	51.18
691.709	53.76
691.895	53.17
692.081	54.97
692.267	51.68
692.453	50.78
692.639	51.83
692.825	50.58
693.011	49.92
693.196	48.62
693.382	47.87
693.568	47.94
693.754	45.84
693.94	45.95
694.125	45.93
694.311	47.98
694.497	49.59
694.682	48.9
694.868	49.2
695.054	49.76
695.239	49.72
695.425	49.19
695.611	48.86
695.796	48.43
695.982	49.25
696.168	49.79
696.353	49.19
696.539	49.58
696.724	48.81
696.91	49.38
697.095	49.78
697.281	50.48
697.466	51.2
697.652	50.49
697.837	51.29
698.023	51.31
698.208	50.61
698.393	50.85
698.579	50.94
698.764	51.15
698.949	51.51
699.135	51.79
699.32	51.27
699.505	49.49
699.691	49.09
699.876	48.53
700.061	48.01
700.246	47.89
700.432	48.45
700.617	47.13
700.802	49.1
700.987	48.21
701.172	47.89
701.358	48.29
701.543	50
701.728	51.77
701.913	51.72
702.098	51.17
702.283	50.7
702.468	50.3
702.653	51.75
702.838	51.92
703.023	53.9
703.208	53.36
703.393	54.38
703.578	52.56
703.763	50.72
703.948	51.85
704.133	52.56
704.318	53.44
704.503	55.63
704.688	54.62
704.873	53.88
705.057	52.63
705.242	53.64
705.427	51.95
705.612	52.77
705.797	54.55
705.981	53.43
706.166	54.45
706.351	54.42
706.536	51.44
706.72	49.31
706.905	50.05
707.09	49.2
707.274	49.77
707.459	48.94
707.644	50.51
707.828	48.61
708.013	50.67
708.197	50.27
708.382	51.27
708.567	52.68
708.751	53.12
708.936	54.02
709.12	55.18
709.305	53.32
709.489	54.93
709.673	54.56
709.858	54.69
710.042	54
710.227	52.36
710.411	49.79
710.596	47.91
710.78	48.79
710.964	47.71
711.149	48.49
711.333	49.42
711.517	49.79
711.702	49.04
711.886	51.27
712.07	51.3
712.254	53.33
712.438	55.8
712.623	56.76
712.807	57.23
712.991	57.88
713.175	56.13
713.359	57.08
713.544	56.3
713.728	56.84
713.912	56.66
714.096	57.27
714.28	55.95
714.464	55.39
714.648	54.38
714.832	54.45
715.016	53.25
715.2	52.84
715.384	54
715.568	54.31
715.752	53.35
715.936	51.97
716.12	53.52
716.304	54.21
716.488	55.41
716.671	56.53
716.855	56.43
717.039	56.69
717.223	58.23
717.407	55.87
717.59	53.77
717.774	55.91
717.958	56.9
718.142	53.62
718.325	52.1
718.509	51.87
718.693	52.92
718.877	51.2
719.06	50.4
719.244	50.67
719.428	51.28
719.611	52.44
719.795	50.31
719.978	51.45
720.162	52.7
720.345	53.13
720.529	51.92
720.713	50.61
720.896	51.67
721.08	51.68
721.263	48.3
721.446	47.4
721.63	49.23
721.813	51.22
721.997	49.18
722.18	47.52
722.364	48.12
722.547	48.86
722.73	47.83
722.914	50.06
723.097	51.84
723.28	55.26
723.464	57.22
723.647	56.96
723.83	54.27
724.013	53.74
724.197	53.22
724.38	54.03
724.563	53.09
724.746	55.91
724.929	54.54
725.112	54.6
725.296	56
725.479	54.62
725.662	56.75
725.845	57.79
726.028	60.54
726.211	63.13
726.394	61.31
726.577	61.06
726.76	61.12
726.943	63.02
727.126	62.49
727.309	61.49
727.492	59.61
727.675	57.88
727.858	58.2
728.041	58.41
728.224	57.31
728.407	58.8
728.589	61.69
728.772	60
728.955	59.17
729.138	58.6
729.321	56.49
729.503	56.68
729.686	55.71
729.869	56.77
730.052	55.62
730.234	54.38
730.417	54.02
730.6	51.2
730.782	49.09
730.965	47.49
731.148	46.47
731.33	48.38
731.513	50.1
731.695	48.99
731.878	46.69
732.061	46.71
732.243	47.18
732.426	46.3
732.608	48.9
732.791	50.99
732.973	50.78
733.156	51.4
733.338	50.43
733.52	49.3
733.703	51.02
733.885	51.95
734.068	50.08
734.25	51.37
734.432	51.87
734.615	50.37
734.797	51.09
734.979	53.15
735.162	54.09
735.344	53.18
735.526	53.94
735.708	53.62
735.891	56.25
736.073	57.6
736.255	56.12
736.437	56.82
736.619	54.99
736.802	53.28
736.984	50.53
737.166	49.67
737.348	50.5
737.53	49.63
737.712	50.42
737.894	50.73
738.076	50.76
738.258	50.87
738.44	48.91
738.622	50.13
738.804	52.28
738.986	53.77
739.168	55.92
739.35	55.9
739.532	56.29
739.714	57.19
739.896	56.11
740.078	54.27
740.259	53.56
740.441	56.1
740.623	58.09
740.805	57.55
740.987	58.41
741.168	54.3
741.35	54.78
741.532	53.15
741.714	52.12
741.895	50.98
742.077	53.92
742.259	57.25
742.44	52.55
742.622	47.94
742.804	46.23
742.985	46.24
743.167	48.59
743.348	50.45
743.53	51.94
743.711	54.21
743.893	52.97
744.075	50.48
744.256	47.56
744.438	52.25
744.619	53.87
744.8	57.89
744.982	58.46
745.163	59.43
745.345	57.09
745.526	60.65
745.707	55.47
745.889	57.92
746.07	60.92
746.252	61.81
746.433	59.87
746.614	61.1
746.795	59.77
746.977	55.9
747.158	54.72
747.339	53.74
747.52	50.81
747.702	52.7
747.883	51.67
748.064	49.53
748.245	48.99
748.426	49.69
748.607	48
748.788	47.5
748.97	50.33
749.151	49.94
749.332	49.7
749.513	50.28
749.694	52.14
749.875	52.86
750.056	52.02
750.237	54.29
750.418	54.52
750.599	55.97
750.78	56.31
750.96	57.45
751.141	55.48
751.322	54.72
751.503	56.86
751.684	53.75
751.865	50.18
752.046	54.63
752.226	50.55
752.407	47.87
752.588	44.62
752.769	44.91
752.949	43.39
753.13	44.58
753.311	48.36
753.492	44.66
753.672	45.51
753.853	48.56
754.034	45.54
754.214	45.33
754.395	46.5
754.575	49.33
754.756	48.05
754.937	49.06
755.117	46.89
755.298	46.2
755.478	48.14
755.659	47.99
755.839	46.68
756.02	47.13
756.2	48.85
756.381	49.28
756.561	46.95
756.741	49.56
756.922	49.1
757.102	52.16
757.283	49.33
757.463	51.27
757.643	48.31
757.823	49.07
758.004	46.73
758.184	45.19
758.364	43.95
758.545	46.37
758.725	44.91
758.905	46.54
759.085	49.36
759.265	47.61
759.446	47.34
759.626	49.19
759.806	49.32
759.986	52.58
760.166	55.03
760.346	57.51
760.526	56.16
760.706	56.15
760.886	56.41
761.066	56.17
761.246	59.81
761.426	58.62
761.606	56.63
761.786	56.94
761.966	56.62
762.146	57.84
762.326	58.15
762.506	59.09
762.686	59.39
762.866	57.92
763.046	57.15
763.225	56.95
763.405	58.41
763.585	60.04
763.765	60.39
763.945	59.85
764.124	57.05
764.304	55.68
764.484	54.93
764.664	54.1
764.843	53.76
765.023	51.93
765.203	49.01
765.382	47.06
765.562	47.64
765.741	46.25
765.921	44.8
766.101	48.29
766.28	49.6
766.46	49.21
766.639	49.5
766.819	49.29
766.998	52.37
767.178	54.55
767.357	51.45
767.537	52.9
767.716	54.88
767.896	55.91
768.075	54.34
768.254	51.79
768.434	54.17
768.613	50.68
768.792	49.89
768.972	51.1
769.151	54.69
769.33	59.97
769.51	58.43
769.689	58.74
769.868	58.57
770.047	58.89
770.226	61.95
770.406	63
770.585	68.08
770.764	68.97
770.943	65.89
771.122	61.97
771.301	62.76
771.48	60.52
771.66	60.9
771.839	64.67
772.018	64.6
772.197	62.86
772.376	59.9
772.555	56.72
772.734	60.08
772.913	65.82
773.092	66.63
773.271	65.36
773.449	64.55
773.628	58.16
773.807	58.66
773.986	54.67
774.165	57.17
774.344	60.96
774.523	59.93
774.701	57.86
774.88	55.92
775.059	55.8
775.238	54.04
775.417	55.65
775.595	59.1
775.774	53.55
775.953	56.16
776.131	53.52
776.31	48.57
776.489	46.5
776.667	47.2
776.846	48.23
777.025	48.07
777.203	50.07
777.382	54.33
777.56	55.97
777.739	55.47
777.917	54.45
778.096	54.02
778.274	58.78
778.453	62.1
778.631	62.36
778.81	59.06
778.988	58.33
779.166	54.74
779.345	50.36
779.523	48.98
779.702	53.39
779.88	55.35
780.058	56.23
780.237	52.99
780.415	57.41
780.593	57.36
780.771	59.66
780.95	58.48
781.128	62.92
781.306	62.71
781.484	65.01
781.662	61
781.841	61.1
782.019	62.6
782.197	59.89
782.375	54.41
782.553	51.84
782.731	49.71
782.909	54.97
783.087	52.1
783.265	49.47
783.443	45.35
783.621	49.66
783.799	45.34
783.977	37.09
784.155	40.97
784.333	45.25
784.511	50.35
784.689	50.43
784.867	47.47
785.045	52.21
785.223	54.5
785.4	58.77
785.578	52.29
785.756	56.82
785.934	58.22
786.112	56.44
786.289	54.5
786.467	50.76
786.645	50.65
786.823	50.98
787	50.34
787.178	48.56
787.356	44.2
787.533	44.67
787.711	40.46
787.889	45.16
788.066	51.14
788.244	52.49
788.421	52.49
788.599	52.87
788.776	54.66
788.954	53.56
789.131	59.77
789.309	62.17
789.486	65.92
789.664	73.2
789.841	74.76
790.019	68.2
790.196	68.43
790.373	68.53
790.551	74.68
790.728	73.42
790.906	70.12
791.083	79.49
791.26	81.63
791.437	80.48
791.615	73.03
791.792	68.47
791.969	69.24
792.146	72.6
792.324	68.58
792.501	64.68
792.678	63.79
792.855	61.65
793.032	49.5
793.209	47.53
793.387	43.84
793.564	46.74
793.741	45.59
793.918	47.63
794.095	44.7
794.272	50
794.449	49.26
794.626	47.12
794.803	50.52
794.98	48.64
795.157	54.18
795.334	61.83
795.511	55.61
795.688	57.96
795.864	60.47
796.041	53.13
796.218	55.95
796.395	53.65
796.572	53.26
796.749	58.3
796.925	51.38
797.102	41.04
797.279	40.62
797.456	46.45
797.632	42.41
797.809	41.86
797.986	45.54
798.162	41.09
798.339	42.93
798.516	41.66
798.692	43.95
798.869	49.36
799.046	57.39
799.222	57.14
799.399	56.06
799.575	62.49
799.752	60.67
799.928	62.13
800.105	64.12
800.281	66.2
800.458	69.39
800.634	65.02
800.811	62.78
800.987	60.29
801.163	57.63
801.34	52.1
801.516	49.8
801.692	50.75
801.869	53.01
802.045	57.17
802.221	62.08
802.398	61.91
802.574	60.3
802.75	60.42
802.926	58.59
803.103	62.71
803.279	65.8
803.455	74.44
803.631	72.97
803.807	73.53
803.983	77.33
804.16	77.21
804.336	83.89
804.512	74.44
804.688	72.68
804.864	84.3
805.04	76.34
805.216	76.3
805.392	71.35
805.568	67.47
805.744	72.32
805.92	70.18
806.096	64.2
806.272	67.6
806.448	90.42
806.623	85.83
806.799	72.8
806.975	75.71
807.151	78.41
807.327	69.98
807.503	70.88
807.678	59.26
807.854	55
808.03	52.5
808.206	48.27
808.381	34.68
808.557	49.28
808.733	52.15
808.908	48.99
809.084	37.74
809.26	35.5
809.435	41.63
809.611	47.8
809.787	44.3
809.962	50.59
810.138	42.89
810.313	49.25
810.489	41.38
810.664	32.45
810.84	35.45
811.015	47.66
811.191	46.18
811.366	42.34
811.542	39.72
811.717	42.84
811.892	46.47
812.068	45.17
812.243	45.82
812.419	42.73
812.594	53.79
812.769	57.91
812.944	52.54
813.12	52.34
813.295	53.72
813.47	54.46
813.645	55.4
813.821	46.53
813.996	58.38
814.171	56.02
814.346	59.68
814.521	61.3
814.697	61.31
814.872	66.96
815.047	76.79
815.222	70.13
815.397	62.02
815.572	63.68
815.747	63.33
815.922	59.02
816.097	59.13
816.272	58.06
816.447	50.71
816.622	47.18
816.797	38.93
816.972	33.95
817.147	40.61
817.322	45.07
817.496	36.53
817.671	35.55
817.846	40.8
818.021	40.69
818.196	47.48
818.371	46.43
818.545	52.85
818.72	55.09
818.895	52.17
819.069	50.59
819.244	46.85
819.419	47.7
819.594	49.66
819.768	47.71
819.943	47.47
820.117	46.09
820.292	47.82
820.467	45.87
820.641	46.86
820.816	49.52
820.99	50.83
821.165	51.75
821.339	52.79
821.514	50.26
821.688	50.04
821.863	49.58
822.037	50.46
822.212	50.85
822.386	50.12
822.56	49.69
822.735	49.03
822.909	48.58
823.084	48.91
823.258	48.6
823.432	50.19
823.606	50.18
823.781	51.32
823.955	50.98
824.129	50.64
824.303	50.88
824.478	50.56
824.652	49.18
824.826	47.55
825	47.78
825.174	46.8
825.348	47.64
825.523	46.64
825.697	44.44
825.871	42.52
826.045	42.16
826.219	44.2
826.393	46.56
826.567	47.04
826.741	49.35
826.915	49.06
827.089	50.41
827.263	50.82
827.437	51.29
827.611	55.06
827.784	56.33
827.958	55.66
828.132	55.48
828.306	54
828.48	55.34
828.654	55.36
828.827	53.41
829.001	51.46
829.175	48.07
829.349	49.22
829.522	45.14
829.696	42.77
829.87	38.54
830.044	34.23
830.217	34.38
830.391	32.7
830.565	28.87
830.738	36.9
830.912	34.47
831.085	37.39
831.259	38.77
831.432	35.22
831.606	41.1
831.779	47.32
831.953	50
832.126	47.29
832.3	46.33
832.473	49.18
832.647	46.64
832.82	52.54
832.994	54.91
833.167	53.06
833.34	56
833.514	54.4
833.687	52.46
833.86	52.09
834.034	53.08
834.207	56.2
834.38	53.38
834.553	52.68
834.727	51.04
834.9	50.37
835.073	49.83
835.246	51.28
835.419	49.58
835.593	54.12
835.766	50.38
835.939	48.17
836.112	47.45
836.285	44.43
836.458	43.24
836.631	40.25
836.804	42.26
836.977	53.45
837.15	54.4
837.323	57.33
837.496	53.89
837.669	62.66
837.842	62.51
838.015	64.12
838.188	62.92
838.361	71.49
838.533	75.67
838.706	63.2
838.879	63.74
839.052	48
839.225	41.02
839.398	38.56
839.57	32.01
839.743	42.62
839.916	39.87
840.088	38.05
840.261	29.52
840.434	30.45
840.607	40.29
840.779	34.27
840.952	44.55
841.124	46.96
841.297	39.91
841.47	39.51
841.642	23.2
841.815	34.27
841.987	56.84
842.16	69.55
842.332	63.25
842.505	51.81
842.677	41.13
842.85	41.82
843.022	57.71
843.194	68.37
843.367	78.11
843.539	103.51
843.712	92.44
843.884	63.36
844.056	49.09
844.229	42.46
844.401	53.52
844.573	73.83
844.745	84.01
844.918	1.38
845.09	8.4
845.262	41.79
845.434	-113.81
845.606	5.18
845.779	-27.93
845.951	-10.56
846.123	31.12
846.295	39.53
846.467	19.59
846.639	6.07
846.811	49.73
846.983	29.13
847.155	-9.9
847.327	30.25
847.499	45.5
847.671	108.68
847.843	53.49
848.015	26.33
848.187	-8.73
848.359	-2.68
848.531	-5.61
848.703	-82.04
848.875	-39.58
849.047	21.12
849.218	-30.4
849.39	-65.23
849.562	-17.09
849.734	-8.75
849.905	-5.61
850.077	55.45
850.249	144.25
850.421	58.66
850.592	85.77
850.764	97.09
850.936	87.27
851.107	111.26
851.279	91.28
851.451	51.25
851.622	72.3
851.794	68.38
851.965	82.67
852.137	70.09
852.308	90.13
852.48	103.26
852.651	107.42
852.823	110.96
852.994	152.08
853.166	115.73
853.337	210.05
853.509	108.87
853.68	115
853.851	111.51
854.023	113.83
854.194	86.25
854.365	74.66
854.537	57.83
854.708	46.39
854.879	29.18
855.05	23
855.222	23.96
855.393	32.7
855.564	10.83
855.735	-31.92
855.906	-60.65
856.078	-6.61
856.249	5.01
856.42	11.45
856.591	-4.35
856.762	39.12
856.933	47.14
857.104	33.01
857.275	38.08
857.446	44.45
857.617	64.46
857.788	85.18
857.959	110.11
858.13	102.68
858.301	92.94
858.472	122.44
858.643	107.72
858.814	93.67
858.985	88.32
859.155	86.81
859.326	108.31
859.497	93.95
859.668	112.27
859.839	93.72
860.009	88.28
860.18	79.39
860.351	67.97
860.522	72.11
860.692	65.85
860.863	66.18
861.034	73.98
861.204	73.43
861.375	70.52
861.546	39.33
861.716	39.61
861.887	47.41
862.057	36.66
862.228	35.48
862.398	24
862.569	39.21
862.739	38.48
862.91	38.94
863.08	10.3
863.251	21.5
863.421	48.58
863.592	60.78
863.762	41.14
863.932	57.58
864.103	45.59
864.273	64.47
864.443	31.75
864.614	25.2
864.784	28.03
864.954	78.7
865.125	43.14
865.295	1.21
865.465	8.08
865.635	28.31
865.805	44.91
865.976	109.57
866.146	83.17
866.316	51.96
866.486	109.44
866.656	152.72
866.826	41.79
866.996	33.45
867.166	63.64
867.336	74.74
867.506	88.29
867.676	64.33
867.846	69.52
868.016	82.73
868.186	85.3
868.356	76.1
868.526	83.8
868.696	99.19
868.866	110.37
869.036	103.38
869.206	86.82
869.376	64.77
869.545	156.74
869.715	140.22
869.885	106.98
870.055	151.97
870.224	135.34
870.394	81.49
870.564	80.26
870.734	108.93
870.903	155.38
871.073	216.01
871.243	151.98
871.412	75.6
871.582	83.76
871.751	77.3
871.921	66.45
872.091	77.61
872.26	69.55
872.43	59.58
872.599	49.59
872.769	21.66
872.938	19.29
873.108	-6.54
873.277	-60.7
873.446	-17.6
873.616	-7.96
873.785	-18.55
873.955	15.74
874.124	36.76
874.293	20.46
874.463	15.93
874.632	31.07
874.801	0.4
874.971	24.43
875.14	19.1
875.309	27.22
875.478	21.09
875.647	32.27
875.817	38.2
875.986	50.27
876.155	72.81
876.324	48.4
876.493	17.42
876.662	38.86
876.831	80.85
877	95.15
877.17	141.22
877.339	99.34
877.508	28.23
877.677	17.9
877.846	13.7
878.015	15.11
878.184	91.88
878.352	69.45
878.521	70.87
878.69	13.23
878.859	43.62
879.028	48.4
879.197	43.85
879.366	35.2
879.534	28.95
879.703	33.3
879.872	30.57
880.041	25.46
880.21	36.61
880.378	38.64
880.547	41.02
880.716	38.73
880.884	30.22
881.053	37.14
881.222	41.32
881.39	44.98
881.559	41.82
881.727	44.23
881.896	44.18
882.065	45.64
882.233	47.16
882.402	49.21
882.57	49.39
882.739	51.74
882.907	50.08
883.076	46.54
883.244	45.44
883.412	45.4
883.581	45.64
883.749	45.25
883.918	43.62
884.086	44.89
884.254	39.31
884.423	35.45
884.591	34.08
884.759	33.62
884.927	41.32
885.096	38.52
885.264	36.87
885.432	30.28
885.6	30.8
885.769	38.44
885.937	32.59
886.105	42.33
886.273	46.62
886.441	54.2
886.609	55.83
886.777	43.82
886.945	51.63
887.113	67.87
887.281	81.93
887.449	91.16
887.617	66.41
887.785	91.6
887.953	103.93
888.121	114.91
888.289	104.12
888.457	123.61
888.625	148.05
888.793	146.9
888.961	191
889.129	111.61
889.296	74.23
889.464	111.56
889.632	51.2
889.8	56.24
889.967	58.67
890.135	56.47
