Data from JASIL_3239_Reflection_1.txt Node
Date: Mon Nov 16 20:25:02 EST 2015
User: Geneva
Spectrometer: USB4E03002
Autoset integration time: false
Trigger mode: 4
Integration Time (sec): 1.000000E-1
Scans to average: 10
Electric dark correction enabled: false
Nonlinearity correction enabled: false
Boxcar width: 5
Stray light correction enabled: false
XAxis mode: Wavelengths
Stop averaging: false
Number of Pixels in Spectrum: 3648
>>>>>Begin Spectral Data<<<<<
177.575	-24.79
177.794	-84.29
178.014	-85.54
178.233	-123.36
178.452	-220.48
178.672	-130.3
178.891	-139.62
179.11	329.73
179.33	87.5
179.549	-645.45
179.768	152.54
179.987	125.81
180.207	102.58
180.426	60.98
180.645	53.29
180.864	-17.53
181.084	42.16
181.303	31.02
181.522	96.82
181.741	395.77
181.96	112.54
182.179	105.2
182.398	125.33
182.618	88.14
182.837	114.71
183.056	51.98
183.275	77.96
183.494	76.74
183.713	107.9
183.932	68.79
184.151	23.85
184.37	-27.02
184.589	14.55
184.808	29.51
185.027	10.27
185.246	25.3
185.465	66.99
185.684	47.66
185.903	-144.83
186.122	-65.47
186.341	-71.91
186.56	25
186.779	89.12
186.998	33.85
187.216	74.8
187.435	82.04
187.654	-55.68
187.873	-9.67
188.092	-3.17
188.311	27.08
188.53	21.31
188.748	0.31
188.967	-16
189.186	8.05
189.405	11.69
189.623	-18.98
189.842	41.15
190.061	24.88
190.28	98.72
190.498	41.25
190.717	122.22
190.936	-110.17
191.154	-87.5
191.373	-2616.67
191.592	-481.82
191.81	-16.09
192.029	47.33
192.248	58.56
192.466	27.78
192.685	-2.62
192.904	-35.9
193.122	11.73
193.341	-44.86
193.559	3.05
193.778	26.67
193.996	-27.48
194.215	3225
194.433	-595.24
194.652	138.92
194.87	123.38
195.089	-0.44
195.307	-15.79
195.526	-330.51
195.744	-128.07
195.963	-40.66
196.181	-2212.5
196.399	238.46
196.618	-2115
196.836	-9600
197.055	397.54
197.273	746.55
197.491	382.22
197.71	535.29
197.928	-197.5
198.146	-597.62
198.365	2100
198.583	1.3
198.801	-2.92
199.019	259.74
199.238	-290.48
199.456	181.13
199.674	38.98
199.892	50.6
200.111	30.38
200.329	21.13
200.547	51.27
200.765	68.32
200.983	38.55
201.202	16.67
201.42	-23.62
201.638	49.76
201.856	6.82
202.074	104.13
202.292	69.7
202.51	32.65
202.728	97.94
202.946	-95
203.165	445.45
203.383	-151.55
203.601	-329.07
203.819	656
204.037	1900
204.255	374.23
204.473	111.68
204.691	140
204.909	173.88
205.127	150.7
205.345	85.23
205.562	11.39
205.78	20.13
205.998	-11.02
206.216	26.43
206.434	61.82
206.652	65.15
206.87	68.1
207.088	68.5
207.306	52.9
207.523	67.93
207.741	78.73
207.959	80.33
208.177	61.09
208.395	60.14
208.612	35.75
208.83	46.53
209.048	26.78
209.266	69.76
209.483	67.76
209.701	96.84
209.919	123.59
210.136	138.15
210.354	307
210.572	376.47
210.79	579.26
211.007	365.94
211.225	411.63
211.442	-2304.76
211.66	-406.94
211.878	-49.31
212.095	116
212.313	109.64
212.53	133.43
212.748	90.36
212.966	86.2
213.183	90.17
213.401	92.36
213.618	92.71
213.836	105.71
214.053	97.7
214.271	114.42
214.488	267.23
214.705	104.13
214.923	93.55
215.14	88.26
215.358	52.31
215.575	92.45
215.793	110.05
216.01	228.83
216.227	90.85
216.445	79.63
216.662	87.48
216.879	56.54
217.097	64.23
217.314	32.65
217.531	8.22
217.749	7.69
217.966	-94.33
218.183	-45.45
218.4	-68.73
218.618	-95.28
218.835	-64.88
219.052	7.71
219.269	33.92
219.487	67.01
219.704	96.52
219.921	79.8
220.138	75.23
220.355	97.95
220.572	97.71
220.79	90.82
221.007	112
221.224	115.2
221.441	73.62
221.658	81.54
221.875	64.32
222.092	31.83
222.309	48.91
222.526	-25.4
222.743	-24.49
222.96	-92.45
223.177	-29.09
223.394	-56.54
223.611	-30.93
223.828	-18.51
224.045	-59.59
224.262	-112.93
224.479	-63.18
224.696	-31.31
224.913	-36.42
225.13	-23.28
225.347	-13.41
225.564	-10.34
225.781	0.29
225.997	4.7
226.214	-8.88
226.431	0.93
226.648	-2.8
226.865	0.04
227.082	-1.96
227.298	-2.28
227.515	-3.93
227.732	-5.3
227.949	-6.49
228.165	-7.28
228.382	-6.97
228.599	-6.13
228.816	-7.03
229.032	-4.41
229.249	-5.23
229.466	-5.04
229.682	-5.36
229.899	-7.3
230.116	-6.21
230.332	-2.47
230.549	6.13
230.765	4.44
230.982	9.26
231.199	13.28
231.415	16.14
231.632	15.63
231.848	22.03
232.065	27.04
232.281	26.71
232.498	32.09
232.714	33.86
232.931	20.6
233.147	23.29
233.364	16.28
233.58	4.09
233.797	11.45
234.013	8.32
234.23	2.47
234.446	1.09
234.662	2.86
234.879	2.66
235.095	-3.14
235.312	4.76
235.528	2.67
235.744	9.3
235.961	20.69
236.177	14.22
236.393	18.96
236.61	15.85
236.826	14.96
237.042	11.29
237.258	1.71
237.475	-0.56
237.691	-5.7
237.907	-4
238.123	-7.92
238.339	-11.3
238.556	-11.27
238.772	-10.17
238.988	-8.88
239.204	-6.15
239.42	5.29
239.636	7.75
239.853	10.01
240.069	6.35
240.285	10.31
240.501	12.76
240.717	14.51
240.933	13.93
241.149	12.77
241.365	12.88
241.581	12.93
241.797	9.12
242.013	10.39
242.229	9.98
242.445	9.38
242.661	8.19
242.877	6.14
243.093	6.92
243.309	7.6
243.525	8.22
243.741	8.71
243.957	8.64
244.173	7.5
244.388	6.27
244.604	7.35
244.82	10.7
245.036	10.06
245.252	8.97
245.468	6.34
245.683	6.07
245.899	6.15
246.115	5.19
246.331	5.67
246.547	6.22
246.762	5.85
246.978	6.16
247.194	6.47
247.409	4.81
247.625	6.58
247.841	7.93
248.057	8.26
248.272	8.31
248.488	9.75
248.703	10.65
248.919	11.44
249.135	11.86
249.35	9.15
249.566	8.23
249.782	9.83
249.997	6.66
250.213	4
250.428	0.63
250.644	0.76
250.859	-0.59
251.075	-5.52
251.29	-3.43
251.506	-1.91
251.721	0
251.937	-0.07
252.152	1.54
252.368	2.01
252.583	1.52
252.798	2.38
253.014	0.94
253.229	0.69
253.445	2.7
253.66	1.75
253.875	0.3
254.091	2.66
254.306	1.58
254.521	0.85
254.737	1.1
254.952	9.6
255.167	11.02
255.383	11.21
255.598	11.39
255.813	12.31
256.028	11.02
256.244	13.83
256.459	10.16
256.674	11.31
256.889	8.5
257.104	8.75
257.32	5.37
257.535	3.38
257.75	4.91
257.965	5.87
258.18	6.01
258.395	4.97
258.61	3.88
258.826	4.19
259.041	4.64
259.256	5.55
259.471	5.08
259.686	4.74
259.901	5.51
260.116	5.41
260.331	5.01
260.546	4.46
260.761	5.81
260.976	6.34
261.191	7.05
261.406	8.06
261.621	8.49
261.836	10.5
262.05	11.27
262.265	11.5
262.48	10.81
262.695	10.4
262.91	9.68
263.125	8.42
263.34	7.24
263.555	6.59
263.769	4.98
263.984	4.55
264.199	3.36
264.414	2.95
264.629	2.59
264.843	2.2
265.058	2.3
265.273	2.97
265.488	3.33
265.702	4.74
265.917	6.15
266.132	3.76
266.346	4.04
266.561	3.28
266.776	2.54
266.99	2.91
267.205	3.79
267.42	4.29
267.634	6.42
267.849	6.42
268.063	7.81
268.278	7.25
268.492	9.94
268.707	10.08
268.922	10.2
269.136	9.94
269.351	8.23
269.565	7.02
269.78	5.85
269.994	6.1
270.209	4.93
270.423	2.86
270.637	2.25
270.852	-0.14
271.066	-0.26
271.281	2.66
271.495	2.8
271.709	3.62
271.924	4.88
272.138	6.55
272.353	6.02
272.567	6.04
272.781	5.65
272.996	5.62
273.21	6.77
273.424	6.63
273.638	5.35
273.853	6.97
274.067	6.99
274.281	6.74
274.495	5.53
274.71	4.2
274.924	3.26
275.138	3.66
275.352	3.25
275.566	2.93
275.781	1.45
275.995	0.26
276.209	-0.67
276.423	2.1
276.637	1.92
276.851	4.19
277.065	5.18
277.279	7.38
277.493	6.83
277.707	5.91
277.921	5.15
278.135	4.49
278.349	4
278.563	3.94
278.777	2.41
278.991	2.13
279.205	1.56
279.419	0.04
279.633	0.13
279.847	1.59
280.061	2.73
280.275	4.18
280.489	6.12
280.703	5.93
280.917	6.15
281.131	5.08
281.344	6.71
281.558	7.32
281.772	6.89
281.986	6.8
282.2	6.31
282.414	5.91
282.627	6.12
282.841	4.1
283.055	5.88
283.269	6.58
283.482	6.6
283.696	5.87
283.91	4.73
284.123	5.62
284.337	5.7
284.551	5.8
284.764	5.72
284.978	5.01
285.192	6.45
285.405	5.85
285.619	4.29
285.833	5.41
286.046	5.01
286.26	4.81
286.473	4.65
286.687	3.98
286.9	4.46
287.114	5.11
287.327	6.3
287.541	5.58
287.754	4.69
287.968	5.42
288.181	4.9
288.395	4.8
288.608	5.7
288.822	6.6
289.035	6.58
289.248	5.85
289.462	5.87
289.675	5.64
289.889	6.62
290.102	6.32
290.315	7.44
290.529	6.47
290.742	6.32
290.955	6.07
291.169	6.46
291.382	7.16
291.595	8.7
291.808	8.25
292.022	7.83
292.235	7.38
292.448	7.4
292.661	6.01
292.875	8.45
293.088	8.44
293.301	7.06
293.514	4.75
293.727	4.57
293.94	3.16
294.153	4.08
294.367	4.75
294.58	3.86
294.793	4.57
295.006	5.3
295.219	4.18
295.432	5.09
295.645	4.96
295.858	6.14
296.071	6.48
296.284	6.87
296.497	5.68
296.71	5.87
296.923	7.28
297.136	6.7
297.349	5.86
297.562	6.29
297.775	6.03
297.988	5.99
298.201	5.95
298.414	4.91
298.626	5.26
298.839	5.56
299.052	3.45
299.265	1.64
299.478	2.17
299.691	3.02
299.903	2.75
300.116	2.73
300.329	3.14
300.542	1.93
300.755	2.33
300.967	2.23
301.18	2.54
301.393	5.29
301.605	6.41
301.818	5.41
302.031	6.45
302.243	6.82
302.456	6.95
302.669	8.67
302.881	9.75
303.094	9.15
303.307	7.74
303.519	8.6
303.732	7.83
303.944	7.7
304.157	7.99
304.37	7
304.582	7.17
304.795	6.7
305.007	4.78
305.22	4.01
305.432	4.66
305.645	5.63
305.857	5.78
306.069	4.95
306.282	5
306.494	4.15
306.707	4.34
306.919	2.83
307.132	1.84
307.344	4.2
307.556	4.86
307.769	5.51
307.981	5.72
308.193	4.07
308.406	4.61
308.618	4.91
308.83	6.15
309.043	5.36
309.255	6.92
309.467	7.24
309.679	5.43
309.892	5.63
310.104	4.83
310.316	4.43
310.528	4.96
310.74	3.48
310.953	3.37
311.165	3.68
311.377	3.69
311.589	2.65
311.801	2.81
312.013	3.21
312.225	3.59
312.437	3.9
312.649	4.18
312.862	4.47
313.074	5.44
313.286	6.92
313.498	7.03
313.71	6.74
313.922	7.11
314.134	7.53
314.346	7.81
314.558	6.85
314.77	6.21
314.982	6.59
315.193	7.1
315.405	8.42
315.617	6.69
315.829	8.13
316.041	8.62
316.253	9.43
316.465	8.58
316.677	7.75
316.888	8.38
317.1	8.18
317.312	7.7
317.524	6.63
317.736	6.73
317.947	7.92
318.159	6.11
318.371	6.34
318.583	5.62
318.794	6.79
319.006	7.16
319.218	6.31
319.43	7.02
319.641	7.33
319.853	7.25
320.064	7.01
320.276	6.06
320.488	6.31
320.699	6.15
320.911	7.15
321.123	6.49
321.334	7.29
321.546	8.26
321.757	8.54
321.969	9.35
322.18	8.27
322.392	7.82
322.603	8
322.815	7.41
323.026	6.86
323.238	7.28
323.449	8.05
323.661	8.09
323.872	8.17
324.083	8.9
324.295	7.63
324.506	8.69
324.718	7.92
324.929	7.8
325.14	8.27
325.352	10.44
325.563	10.33
325.774	9.43
325.986	8.29
326.197	7.87
326.408	7.91
326.62	9.04
326.831	8.84
327.042	9.09
327.253	9.82
327.464	10.96
327.676	10.31
327.887	9.72
328.098	9.39
328.309	10.4
328.52	11.67
328.732	11.69
328.943	11.49
329.154	12.59
329.365	13.9
329.576	14.25
329.787	13.1
329.998	12.84
330.209	11.95
330.42	13.05
330.631	14.05
330.842	12.86
331.053	13.04
331.264	13.13
331.475	12.38
331.686	11.96
331.897	10.97
332.108	11.59
332.319	11.09
332.53	11.77
332.741	11.56
332.952	11.57
333.163	11.98
333.374	10.58
333.585	9.74
333.795	10.34
334.006	9.99
334.217	10.15
334.428	9.46
334.639	8.78
334.849	7.8
335.06	9.11
335.271	8.43
335.482	9.03
335.692	8.75
335.903	10
336.114	10.09
336.325	10.17
336.535	9.56
336.746	11.39
336.957	12
337.167	12.47
337.378	12.22
337.589	11.28
337.799	10.22
338.01	11.27
338.22	10.81
338.431	10.71
338.642	9.53
338.852	9.72
339.063	8.79
339.273	9.62
339.484	11.1
339.694	10.98
339.905	12.53
340.115	12.71
340.326	13.37
340.536	13.71
340.746	14.15
340.957	15.64
341.167	15.38
341.378	14.58
341.588	12.7
341.799	12.31
342.009	11.39
342.219	11.6
342.43	11.64
342.64	11.38
342.85	9.83
343.061	10.34
343.271	9.43
343.481	9.47
343.691	9.4
343.902	11.03
344.112	9.75
344.322	9.42
344.532	8.89
344.743	9.74
344.953	9.18
345.163	10.16
345.373	9.54
345.583	10.8
345.793	11.41
346.004	12.08
346.214	12.57
346.424	12.99
346.634	12.87
346.844	12.76
347.054	12.96
347.264	12.75
347.474	14.36
347.684	13.79
347.894	12.3
348.104	12.76
348.314	12.49
348.524	11.33
348.734	11.79
348.944	12.56
349.154	12.89
349.364	12.51
349.574	12.68
349.784	11.85
349.994	12.67
350.204	13.66
350.413	12.79
350.623	13.16
350.833	13.72
351.043	12.92
351.253	13.86
351.463	13.33
351.672	12.64
351.882	13.35
352.092	12.79
352.302	12.16
352.511	11.98
352.721	12.76
352.931	11.99
353.141	11.12
353.35	10.97
353.56	11.03
353.77	12.33
353.979	13.37
354.189	12.42
354.399	11.82
354.608	12.39
354.818	11.44
355.027	10.66
355.237	10.4
355.447	11.09
355.656	11.85
355.866	11.62
356.075	10.78
356.285	10.08
356.494	10.25
356.704	10.57
356.913	10.18
357.123	11.25
357.332	11.21
357.542	11.74
357.751	11.07
357.96	11.51
358.17	10.56
358.379	10.48
358.589	10.57
358.798	10.92
359.007	10.97
359.217	10.42
359.426	10.47
359.635	10.96
359.845	9.8
360.054	10.7
360.263	10.5
360.472	10.62
360.682	11.2
360.891	11.21
361.1	10.92
361.309	10.5
361.519	11.02
361.728	11.02
361.937	10.58
362.146	10.9
362.355	10.94
362.564	10.77
362.774	10.96
362.983	10.29
363.192	10.31
363.401	10.45
363.61	10.49
363.819	11.3
364.028	11.07
364.237	11.43
364.446	11.42
364.655	11.39
364.864	11.27
365.073	11.51
365.282	11.67
365.491	11.6
365.7	12.19
365.909	12.61
366.118	11.69
366.327	12.15
366.536	12.26
366.745	13.34
366.954	13.41
367.162	13.94
367.371	13.27
367.58	13.23
367.789	13.49
367.998	13.03
368.207	12.57
368.415	12.94
368.624	12.63
368.833	12.71
369.042	11.78
369.25	11.67
369.459	10.88
369.668	11.46
369.877	11.67
370.085	11.37
370.294	10.91
370.503	10.98
370.711	10.9
370.92	10.47
371.129	10.62
371.337	10.44
371.546	9.39
371.754	9.2
371.963	8.43
372.171	8.67
372.38	8.06
372.589	9.09
372.797	9.18
373.006	9.16
373.214	10.1
373.423	9.53
373.631	10.35
373.84	11
374.048	10.54
374.256	11.77
374.465	11.28
374.673	11.99
374.882	10.78
375.09	10.6
375.298	10.69
375.507	9.48
375.715	9.07
375.923	8.18
376.132	8.34
376.34	9.34
376.548	9.52
376.757	9.74
376.965	9.69
377.173	10.78
377.381	10.99
377.59	10.49
377.798	10.97
378.006	11.96
378.214	12.62
378.423	12.53
378.631	12.27
378.839	10.79
379.047	11.06
379.255	11.01
379.463	10.25
379.671	9.94
379.879	9.44
380.088	9.54
380.296	9.07
380.504	9.5
380.712	9.43
380.92	9.62
381.128	9.88
381.336	9.51
381.544	9.01
381.752	8.71
381.96	9.45
382.168	10.33
382.376	9.49
382.584	8.79
382.791	8.18
382.999	8.39
383.207	7.87
383.415	8.55
383.623	7.92
383.831	7.73
384.039	7.62
384.247	7.57
384.454	7.84
384.662	8.43
384.87	8.3
385.078	8.28
385.285	7.72
385.493	8.27
385.701	8.27
385.909	8.3
386.116	9
386.324	9.32
386.532	9.4
386.739	9.05
386.947	9.07
387.155	10.13
387.362	10.17
387.57	10.51
387.778	10.88
387.985	10.87
388.193	11.31
388.4	10.89
388.608	10.95
388.816	10.22
389.023	10.49
389.231	10.04
389.438	9.76
389.646	9.64
389.853	9.34
390.061	8.8
390.268	8.36
390.475	8.15
390.683	7.82
390.89	7.72
391.098	7.94
391.305	8.04
391.512	7.99
391.72	7.13
391.927	7.03
392.135	7.56
392.342	7.34
392.549	7.86
392.756	8.32
392.964	9.03
393.171	9.15
393.378	9.55
393.586	9.12
393.793	9.07
394	10.27
394.207	10.45
394.414	9.98
394.622	10.19
394.829	10.34
395.036	10.14
395.243	9.59
395.45	10
395.657	10.41
395.864	10.15
396.072	10.3
396.279	9.67
396.486	9.42
396.693	9.77
396.9	9.93
397.107	9.62
397.314	9.65
397.521	9.83
397.728	9.56
397.935	8.85
398.142	9.16
398.349	9.38
398.556	9.19
398.763	9.14
398.97	8.96
399.177	9.05
399.383	9.04
399.59	9.56
399.797	9.76
400.004	9.13
400.211	9.16
400.418	9
400.625	9.33
400.831	9.66
401.038	9.74
401.245	9.95
401.452	9.64
401.658	9.51
401.865	9.24
402.072	9.07
402.279	9.25
402.485	8.91
402.692	8.41
402.899	7.8
403.105	7.68
403.312	8.46
403.519	8.12
403.725	7.92
403.932	7.99
404.138	7.71
404.345	7.82
404.552	8.26
404.758	8.59
404.965	9.04
405.171	9.5
405.378	9.97
405.584	9.3
405.791	9.56
405.997	9.71
406.204	9.78
406.41	9.9
406.617	9.6
406.823	9.79
407.029	9.69
407.236	9.56
407.442	9.4
407.649	8.95
407.855	9.1
408.061	9.05
408.268	9.05
408.474	9.04
408.68	8.44
408.887	8.55
409.093	7.96
409.299	8.17
409.505	8.46
409.712	8.13
409.918	8.13
410.124	8.03
410.33	7.61
410.537	7.34
410.743	6.92
410.949	7.71
411.155	7.4
411.361	7.95
411.567	7.74
411.773	7.72
411.98	7.54
412.186	7.45
412.392	7.11
412.598	7.03
412.804	7.14
413.01	6.91
413.216	6.68
413.422	7.11
413.628	6.83
413.834	6.31
414.04	6.48
414.246	7.24
414.452	7.72
414.658	8.3
414.864	9.12
415.07	9.6
415.275	10.09
415.481	9.91
415.687	9.7
415.893	9.74
416.099	10.2
416.305	9.99
416.511	9.73
416.716	9.19
416.922	8.94
417.128	8.82
417.334	8.62
417.539	8.51
417.745	8.73
417.951	8.55
418.157	8.29
418.362	8.16
418.568	7.74
418.774	7.45
418.979	7.58
419.185	7.47
419.391	7.62
419.596	7.82
419.802	7.93
420.008	7.34
420.213	9.48
420.419	9.51
420.624	9.34
420.83	9.7
421.035	9.9
421.241	9.76
421.446	9.76
421.652	9.4
421.857	9.03
422.063	8.97
422.268	9.49
422.474	7.67
422.679	7.54
422.885	7.58
423.09	7.44
423.295	7.31
423.501	7.25
423.706	7.11
423.911	6.99
424.117	6.96
424.322	6.67
424.527	6.21
424.733	6.07
424.938	6.37
425.143	6.25
425.349	5.79
425.554	5.91
425.759	6.05
425.964	6.02
426.169	5.99
426.375	5.95
426.58	5.97
426.785	6.13
426.99	6.08
427.195	5.75
427.4	5.73
427.605	6.43
427.811	6.13
428.016	6.09
428.221	6.67
428.426	7.04
428.631	7.32
428.836	7.44
429.041	7.83
429.246	8.33
429.451	8.67
429.656	8.97
429.861	8.54
430.066	8.55
430.271	8.85
430.476	8.36
430.681	8.26
430.886	8.29
431.09	8.15
431.295	7.84
431.5	7.56
431.705	7.39
431.91	7.3
432.115	7.71
432.32	8.03
432.524	7.67
432.729	7.74
432.934	7.44
433.139	7.13
433.343	7.35
433.548	7.32
433.753	7.17
433.958	7.36
434.162	7
434.367	7.01
434.572	6.6
434.776	6.92
434.981	6.92
435.186	7.06
435.39	7.33
435.595	7.48
435.799	7.28
436.004	7.06
436.209	6.8
436.413	6.98
436.618	6.96
436.822	7.38
437.027	6.75
437.231	6.63
437.436	6.44
437.64	6.32
437.845	6.12
438.049	5.95
438.253	6.13
438.458	5.88
438.662	6.24
438.867	5.87
439.071	5.65
439.275	5.88
439.48	5.99
439.684	6.32
439.888	6.26
440.093	6.59
440.297	6.67
440.501	6.72
440.706	7.22
440.91	7.1
441.114	7.19
441.318	7.79
441.523	7.9
441.727	7.85
441.931	7.74
442.135	7.83
442.339	7.41
442.543	7.85
442.748	8.32
442.952	7.94
443.156	7.68
443.36	7.72
443.564	7.28
443.768	6.92
443.972	7.15
444.176	6.67
444.38	6.62
444.584	6.75
444.788	6.41
444.992	5.88
445.196	5.93
445.4	6.12
445.604	6.32
445.808	6.26
446.012	6.54
446.216	6.31
446.42	6.72
446.624	6.97
446.828	6.73
447.032	6.9
447.235	7.07
447.439	6.89
447.643	6.83
447.847	6.63
448.051	6.64
448.254	6.6
448.458	6.61
448.662	6.39
448.866	6.51
449.069	6.8
449.273	6.81
449.477	6.31
449.681	6.52
449.884	6.41
450.088	6.79
450.292	6.86
450.495	6.53
450.699	6.51
450.902	6.83
451.106	6.74
451.31	6.8
451.513	6.89
451.717	7.56
451.92	7.91
452.124	8.03
452.327	7.74
452.531	7.51
452.734	7.54
452.938	7.44
453.141	7
453.345	6.59
453.548	6.31
453.752	6.43
453.955	6.23
454.158	5.72
454.362	5.65
454.565	5.62
454.769	6.03
454.972	6.6
455.175	6.53
455.379	7.1
455.582	7
455.785	7.23
455.988	6.86
456.192	6.49
456.395	6.6
456.598	6.89
456.801	7.12
457.005	6.71
457.208	6.3
457.411	6.79
457.614	6.77
457.817	7.21
458.021	7.18
458.224	7.23
458.427	7.44
458.63	7.73
458.833	7.38
459.036	7.05
459.239	7.19
459.442	7.25
459.645	7.28
459.848	7.18
460.051	6.86
460.254	6.83
460.457	6.77
460.66	6.67
460.863	6.36
461.066	6.59
461.269	7.11
461.472	6.77
461.675	6.87
461.878	6.56
462.081	6.58
462.284	6.7
462.486	6.6
462.689	6.75
462.892	6.98
463.095	6.94
463.298	6.98
463.5	6.64
463.703	6.77
463.906	6.57
464.109	6.74
464.311	6.97
464.514	7.05
464.717	7.31
464.92	7.25
465.122	7.21
465.325	7.23
465.528	6.96
465.73	6.49
465.933	6.76
466.135	6.82
466.338	6.56
466.541	6.01
466.743	6.06
466.946	5.85
467.148	5.93
467.351	6.05
467.553	6.02
467.756	6.39
467.958	6.85
468.161	6.71
468.363	6.98
468.566	7.04
468.768	7.4
468.971	7.66
469.173	7.53
469.375	7.58
469.578	7.41
469.78	7.42
469.983	6.98
470.185	7.05
470.387	7.52
470.59	7.41
470.792	7.68
470.994	7.49
471.196	7.4
471.399	7.64
471.601	7.56
471.803	7.27
472.005	7.06
472.208	7.04
472.41	6.64
472.612	6.36
472.814	6.33
473.016	5.97
473.218	5.85
473.421	5.7
473.623	5.68
473.825	5.39
474.027	5.87
474.229	6.53
474.431	6.66
474.633	6.87
474.835	7.09
475.037	6.94
475.239	6.99
475.441	7.32
475.643	7.36
475.845	7.15
476.047	7.44
476.249	7.22
476.451	6.34
476.653	6.35
476.855	6.4
477.057	6.02
477.258	5.82
477.46	6.14
477.662	6.17
477.864	5.94
478.066	6.08
478.268	6.11
478.469	5.9
478.671	6.33
478.873	6.79
479.075	6.79
479.276	6.73
479.478	6.82
479.68	6.59
479.882	6.47
480.083	6.51
480.285	6.55
480.487	6.67
480.688	7.02
480.89	7.07
481.091	6.73
481.293	6.58
481.495	6.67
481.696	6.89
481.898	6.84
482.099	6.71
482.301	6.67
482.502	6.73
482.704	6.6
482.905	6.52
483.107	6.5
483.308	6.5
483.51	6.49
483.711	6.58
483.913	6.49
484.114	6.53
484.315	6.53
484.517	6.5
484.718	6.47
484.92	6.55
485.121	6.51
485.322	6.57
485.524	6.49
485.725	6.5
485.926	6.3
486.127	6.31
486.329	6.3
486.53	6.4
486.731	6.4
486.932	6.31
487.134	6.24
487.335	6.3
487.536	6.19
487.737	6.27
487.938	6.33
488.139	6.43
488.341	6.3
488.542	6.32
488.743	6.34
488.944	6.38
489.145	6.38
489.346	6.44
489.547	6.41
489.748	6.48
489.949	6.37
490.15	6.47
490.351	6.43
490.552	6.66
490.753	6.64
490.954	6.56
491.155	6.67
491.356	6.78
491.557	6.79
491.758	6.72
491.959	6.62
492.159	6.79
492.36	6.78
492.561	6.89
492.762	6.88
492.963	6.72
493.164	6.78
493.364	6.52
493.565	6.37
493.766	6.35
493.967	6.38
494.167	6.53
494.368	6.34
494.569	5.99
494.769	5.88
494.97	6.06
495.171	6.56
495.371	6.6
495.572	6.94
495.773	7.13
495.973	7.16
496.174	7.21
496.375	7.15
496.575	7.23
496.776	7.16
496.976	6.92
497.177	6.73
497.377	6.74
497.578	6.64
497.778	6.69
497.979	6.68
498.179	6.56
498.38	6.52
498.58	6.57
498.78	6.55
498.981	6.7
499.181	7.12
499.382	7.05
499.582	6.92
499.782	6.93
499.983	6.71
500.183	6.6
500.383	6.48
500.584	6.58
500.784	6.56
500.984	6.42
501.184	6.45
501.385	6.21
501.585	6.23
501.785	6.18
501.985	6.28
502.185	6.66
502.386	6.75
502.586	6.98
502.786	6.83
502.986	6.74
503.186	7.25
503.386	7.32
503.586	7.4
503.786	7.64
503.987	7.47
504.187	7.55
504.387	7.31
504.587	7.2
504.787	7.32
504.987	7.6
505.187	7.99
505.387	7.85
505.587	7.97
505.786	8.1
505.986	8.12
506.186	8.17
506.386	8.18
506.586	8.23
506.786	8.25
506.986	8.19
507.186	8.37
507.386	8.17
507.585	8.23
507.785	8.15
507.985	8.21
508.185	8.17
508.384	8.39
508.584	8.4
508.784	8.39
508.984	8.56
509.183	8.57
509.383	8.46
509.583	8.4
509.782	8.47
509.982	8.68
510.182	8.6
510.381	8.61
510.581	8.66
510.781	8.6
510.98	8.7
511.18	8.69
511.379	8.68
511.579	8.63
511.778	8.76
511.978	8.95
512.177	9.07
512.377	9.03
512.576	8.99
512.776	8.92
512.975	9.06
513.175	9.16
513.374	9.23
513.573	9.08
513.773	9.38
513.972	9.52
514.172	9.41
514.371	9.21
514.57	9.5
514.77	9.65
514.969	9.79
515.168	9.88
515.367	9.91
515.567	10.17
515.766	10.36
515.965	10.23
516.164	10.32
516.364	10.23
516.563	10.65
516.762	10.58
516.961	10.69
517.16	10.77
517.359	10.77
517.559	10.83
517.758	11
517.957	11.19
518.156	11.35
518.355	11.3
518.554	11.49
518.753	11.28
518.952	11.24
519.151	11.28
519.35	11.49
519.549	11.45
519.748	11.69
519.947	11.6
520.146	11.74
520.345	11.63
520.544	11.75
520.743	11.78
520.942	11.86
521.141	12.11
521.339	12.25
521.538	12.18
521.737	12.37
521.936	11.86
522.135	11.73
522.333	11.82
522.532	12.05
522.731	12.06
522.93	12.13
523.129	11.97
523.327	12.08
523.526	12.3
523.725	12.34
523.923	12.48
524.122	12.55
524.321	12.75
524.519	12.74
524.718	12.68
524.917	12.84
525.115	12.77
525.314	13.19
525.512	13.07
525.711	12.94
525.909	13.04
526.108	13.01
526.306	13.38
526.505	13.43
526.703	13.31
526.902	13.42
527.1	13.32
527.299	13.4
527.497	13.33
527.696	13.41
527.894	13.5
528.092	13.6
528.291	13.66
528.489	13.62
528.688	13.59
528.886	13.6
529.084	13.57
529.283	13.67
529.481	13.67
529.679	13.68
529.877	13.69
530.076	13.71
530.274	13.62
530.472	13.73
530.67	13.71
530.869	13.86
531.067	13.99
531.265	14.08
531.463	14.19
531.661	14.35
531.859	14.46
532.057	14.54
532.255	14.51
532.454	14.35
532.652	14.29
532.85	14.4
533.048	14.32
533.246	14.34
533.444	14.54
533.642	14.54
533.84	14.54
534.038	14.38
534.236	14.52
534.434	14.4
534.632	14.53
534.83	14.62
535.027	14.66
535.225	14.75
535.423	15.12
535.621	15.02
535.819	15.03
536.017	14.94
536.215	15.19
536.412	15.26
536.61	15.62
536.808	15.78
537.006	15.83
537.203	15.96
537.401	15.99
537.599	15.95
537.797	16.13
537.994	16.16
538.192	16.25
538.39	16.36
538.587	16.33
538.785	16.22
538.983	16.22
539.18	16.3
539.378	16.05
539.575	16.05
539.773	16
539.97	15.95
540.168	16.01
540.366	16.22
540.563	16.29
540.761	16.38
540.958	16.6
541.155	16.72
541.353	16.79
541.55	16.94
541.748	17.11
541.945	17.22
542.143	17.33
542.34	17.41
542.537	17.31
542.735	17.3
542.932	17.32
543.129	17.21
543.327	17.04
543.524	16.99
543.721	17.1
543.919	17.13
544.116	17.23
544.313	17.12
544.51	17.2
544.708	17.61
544.905	17.88
545.102	18.07
545.299	18.22
545.496	18.45
545.693	18.47
545.891	18.62
546.088	18.72
546.285	18.75
546.482	18.8
546.679	18.87
546.876	18.84
547.073	18.83
547.27	18.62
547.467	18.61
547.664	18.66
547.861	18.87
548.058	18.74
548.255	18.89
548.452	18.87
548.649	19.13
548.846	18.93
549.043	18.77
549.24	18.86
549.437	19.08
549.633	19.04
549.83	18.92
550.027	18.91
550.224	19.07
550.421	19.19
550.618	19.08
550.814	18.85
551.011	19.37
551.208	19.3
551.405	19.45
551.601	19.47
551.798	19.75
551.995	19.83
552.191	20.16
552.388	20.37
552.585	20.2
552.781	20.21
552.978	20.87
553.175	20.87
553.371	21
553.568	20.8
553.764	20.73
553.961	20.76
554.157	20.86
554.354	20.76
554.55	20.51
554.747	20.25
554.943	20.1
555.14	19.69
555.336	19.85
555.533	20.15
555.729	20.17
555.926	20.83
556.122	20.74
556.318	21.04
556.515	20.96
556.711	21.19
556.907	21.49
557.104	21.61
557.3	21.99
557.496	21.78
557.693	21.83
557.889	22.37
558.085	22.31
558.281	22.77
558.478	22.76
558.674	22.99
558.87	22.87
559.066	22.94
559.262	23.14
559.459	23.06
559.655	23.49
559.851	23.5
560.047	23.37
560.243	23.46
560.439	23.24
560.635	23.32
560.831	23.51
561.027	23.77
561.223	24.09
561.419	24.69
561.615	24.94
561.811	24.53
562.007	24.83
562.203	25.05
562.399	24.8
562.595	24.83
562.791	24.69
562.987	24.74
563.183	24.82
563.379	24.74
563.575	24.5
563.771	24.3
563.966	24.55
564.162	24.22
564.358	24.24
564.554	24.42
564.75	24.83
564.945	24.97
565.141	24.6
565.337	24.58
565.533	24.56
565.728	24.71
565.924	24.71
566.12	24.8
566.315	25.05
566.511	24.41
566.707	24.55
566.902	24.23
567.098	24.46
567.293	24.75
567.489	24.79
567.684	24.86
567.88	24.59
568.076	24.58
568.271	24.71
568.467	24.73
568.662	25.23
568.858	25.28
569.053	25.28
569.248	25.23
569.444	25.4
569.639	25.72
569.835	25.81
570.03	25.9
570.225	26.01
570.421	25.92
570.616	25.71
570.812	25.97
571.007	25.9
571.202	26.03
571.397	26.01
571.593	26.05
571.788	26.01
571.983	26.02
572.178	26.2
572.374	26.3
572.569	26.45
572.764	26.68
572.959	26.8
573.154	27.04
573.35	27.41
573.545	27.57
573.74	27.57
573.935	27.53
574.13	27.79
574.325	27.97
574.52	27.65
574.715	27.81
574.91	27.8
575.105	27.74
575.3	27.73
575.495	27.11
575.69	27.03
575.885	27.44
576.08	27.64
576.275	27.44
576.47	27.43
576.665	27.92
576.86	27.48
577.055	27.39
577.25	27.19
577.444	26.84
577.639	27.37
577.834	27.74
578.029	27.14
578.224	27.07
578.418	26.79
578.613	26.76
578.808	26.88
579.003	27.39
579.197	27.93
579.392	28.4
579.587	28.76
579.781	28.91
579.976	29.14
580.171	29.4
580.365	29.34
580.56	29.51
580.755	29.7
580.949	29.47
581.144	29.32
581.338	29.15
581.533	29.11
581.727	29
581.922	28.6
582.116	28.44
582.311	28.32
582.505	28.45
582.7	28.36
582.894	28.29
583.089	28.39
583.283	28.47
583.478	28.43
583.672	28.33
583.866	28.24
584.061	28.37
584.255	28.14
584.449	28.3
584.644	28.04
584.838	28.69
585.032	29.16
585.226	29.41
585.421	29.53
585.615	29.76
585.809	29.9
586.003	30.1
586.198	30.05
586.392	30.42
586.586	30.39
586.78	31.09
586.974	31
587.168	30.09
587.363	30.12
587.557	30.13
587.751	30.06
587.945	29.93
588.139	30.23
588.333	30.47
588.527	30.12
588.721	30.29
588.915	30.02
589.109	29.56
589.303	30.08
589.497	29.67
589.691	29.87
589.885	29.44
590.079	29.62
590.273	29.49
590.466	29.61
590.66	30.12
590.854	30.26
591.048	30.06
591.242	30.54
591.436	30.46
591.629	31.15
591.823	30.85
592.017	31.23
592.211	31.14
592.404	30.95
592.598	30.56
592.792	29.7
592.986	29.76
593.179	29.92
593.373	29.68
593.567	29.92
593.76	29.45
593.954	29.73
594.147	29.82
594.341	30.09
594.535	30.1
594.728	30.24
594.922	30.54
595.115	30.7
595.309	30.88
595.502	31.54
595.696	31.61
595.889	32.22
596.083	31.99
596.276	31.97
596.47	32.04
596.663	32.2
596.856	32.28
597.05	32.14
597.243	31.59
597.437	31.9
597.63	31.37
597.823	31.45
598.017	31.09
598.21	31.07
598.403	31.33
598.596	31.31
598.79	31.17
598.983	31.3
599.176	31.8
599.369	32.07
599.563	31.53
599.756	31.71
599.949	31.4
600.142	31.49
600.335	31.47
600.528	31.62
600.722	31.4
600.915	31.4
601.108	31.47
601.301	31.28
601.494	31.48
601.687	31.22
601.88	31.6
602.073	31.88
602.266	31.63
602.459	31.99
602.652	31.67
602.845	31.7
603.038	31.71
603.231	32.03
603.424	32.17
603.617	32.13
603.809	32.24
604.002	32.06
604.195	31.89
604.388	32.08
604.581	31.93
604.774	32.21
604.966	31.91
605.159	32.14
605.352	31.77
605.545	31.82
605.737	31.95
605.93	32.3
606.123	32.29
606.316	32.25
606.508	31.84
606.701	32.04
606.894	31.98
607.086	32.33
607.279	32.24
607.471	32.42
607.664	32.53
607.857	32.56
608.049	32.2
608.242	32.73
608.434	32.9
608.627	33.04
608.819	32.6
609.012	32.63
609.204	32.35
609.397	32.44
609.589	32.42
609.782	32.09
609.974	31.97
610.166	32.03
610.359	31.31
610.551	31.39
610.743	31.96
610.936	31.96
611.128	31.41
611.32	31.79
611.513	31.68
611.705	31.82
611.897	32.18
612.09	32.14
612.282	32.82
612.474	33.03
612.666	32.75
612.858	32.6
613.051	32.56
613.243	33.04
613.435	32.95
613.627	33.12
613.819	32.88
614.011	32.68
614.203	33.26
614.395	32.88
614.588	32.81
614.78	33.22
614.972	33.77
615.164	35.1
615.356	35.01
615.548	35.06
615.74	34.8
615.932	35.03
616.124	35.08
616.315	34.79
616.507	35.05
616.699	35.26
616.891	35.42
617.083	34.53
617.275	33.82
617.467	33.82
617.659	34.29
617.85	34.74
618.042	34.57
618.234	34.66
618.426	34.5
618.618	34.05
618.809	33.97
619.001	33.83
619.193	33.93
619.384	34.35
619.576	34.43
619.768	34.21
619.959	33.84
620.151	33.58
620.343	33.68
620.534	34.11
620.726	33.63
620.917	33.65
621.109	33.14
621.301	33.25
621.492	32.96
621.684	33.15
621.875	33.58
622.067	33.6
622.258	33.45
622.45	33.57
622.641	33.28
622.832	33.45
623.024	33.41
623.215	32.88
623.407	32.19
623.598	32.55
623.789	32.4
623.981	32.51
624.172	32.31
624.363	32.62
624.555	32.63
624.746	32.18
624.937	32.54
625.129	32.87
625.32	33.65
625.511	34.35
625.702	34.04
625.893	34.16
626.085	33.59
626.276	33.98
626.467	33.35
626.658	33.61
626.849	33.91
627.04	34.33
627.231	33.39
627.422	33.44
627.614	33.77
627.805	33.54
627.996	33.49
628.187	33.28
628.378	33.3
628.569	34.28
628.76	34
628.951	33.83
629.142	33.71
629.332	33.88
629.523	33.35
629.714	33.32
629.905	33.8
630.096	33.4
630.287	33.99
630.478	33.96
630.669	34.07
630.859	34.4
631.05	35.03
631.241	34.89
631.432	35.83
631.623	36.47
631.813	36.16
632.004	35.62
632.195	35.98
632.385	35.95
632.576	36.18
632.767	35.85
632.957	35.57
633.148	35.35
633.339	35.32
633.529	34.88
633.72	34.76
633.91	34.61
634.101	34.93
634.292	35.09
634.482	34.8
634.673	34.47
634.863	34.58
635.054	34.72
635.244	35.14
635.435	35.02
635.625	35.5
635.815	35
636.006	35.3
636.196	35.49
636.387	35.07
636.577	34.91
636.767	34.69
636.958	34.48
637.148	33.86
637.338	33.66
637.529	33.65
637.719	33.27
637.909	33.88
638.099	34
638.29	33.69
638.48	34.59
638.67	34.63
638.86	35.01
639.05	34.61
639.241	34.96
639.431	34.63
639.621	35.31
639.811	35.38
640.001	35.62
640.191	34.93
640.381	35.03
640.571	34.41
640.761	34.49
640.951	34.62
641.141	35.15
641.331	35.46
641.521	35.87
641.711	35.99
641.901	35.88
642.091	35.56
642.281	35.36
642.471	35.46
642.661	35.26
642.851	35.37
643.041	35.61
643.231	35.83
643.42	35.29
643.61	35.18
643.8	34.69
643.99	34.6
644.18	35.15
644.369	35.49
644.559	35.74
644.749	36.23
644.939	36.62
645.128	36.1
645.318	36.04
645.508	36.37
645.697	36.82
645.887	35.99
646.076	36.15
646.266	35.46
646.456	35.21
646.645	35.02
646.835	34.12
647.024	33.72
647.214	33.83
647.403	33.58
647.593	33.29
647.782	32.56
647.972	33.27
648.161	33.6
648.351	34.26
648.54	35.04
648.73	34.72
648.919	35.19
649.108	34.94
649.298	35.38
649.487	35.33
649.677	35.72
649.866	35.85
650.055	35.74
650.244	35.23
650.434	34.22
650.623	34.31
650.812	34.65
651.002	34.87
651.191	35.4
651.38	34.53
651.569	35.08
651.758	35.56
651.947	35.61
652.137	35.49
652.326	35.49
652.515	36
652.704	35.6
652.893	35.42
653.082	35.37
653.271	34.86
653.46	35.63
653.649	35.72
653.838	34.93
654.027	34.75
654.216	35.2
654.405	35.54
654.594	35.99
654.783	36.31
654.972	36.36
655.161	36.37
655.35	36.77
655.539	36.29
655.728	35.88
655.916	35.8
656.105	36.03
656.294	34.97
656.483	35.26
656.672	34.6
656.86	33.99
657.049	34.52
657.238	33.87
657.427	34.37
657.615	34.15
657.804	33.67
657.993	33.5
658.181	32.76
658.37	33.88
658.559	33.96
658.747	33.97
658.936	34.15
659.125	34.24
659.313	35.38
659.502	35.38
659.69	35.91
659.879	36.38
660.067	36.49
660.256	37.7
660.444	37.24
660.633	37.16
660.821	37.35
661.01	37.59
661.198	36.95
661.387	36.33
661.575	35.94
661.763	35.26
661.952	35.34
662.14	36.29
662.328	35.74
662.517	35.85
662.705	35.38
662.893	35.67
663.082	36.01
663.27	36.29
663.458	35.74
663.646	36.25
663.834	36.77
664.023	37.2
664.211	36.34
664.399	36.35
664.587	35.83
664.775	35.87
664.963	36.2
665.152	35.62
665.34	35.32
665.528	35.67
665.716	35.41
665.904	35.99
666.092	35.49
666.28	35.8
666.468	35.5
666.656	36.45
666.844	36.6
667.032	35.87
667.22	35.87
667.408	35.98
667.596	35.77
667.784	36.04
667.971	35.62
668.159	35.12
668.347	35.45
668.535	34.97
668.723	34.61
668.911	34.96
669.098	35.45
669.286	35.14
669.474	35.92
669.662	36.19
669.849	36.81
670.037	37.03
670.225	37.67
670.413	37.6
670.6	39.03
670.788	38.87
670.976	38.78
671.163	38.38
671.351	38.61
671.538	37.69
671.726	38.37
671.913	37.35
672.101	36.22
672.289	36.43
672.476	35.4
672.664	34.29
672.851	34.29
673.039	34.79
673.226	34.77
673.413	35.4
673.601	36.28
673.788	37.07
673.976	36.64
674.163	37.71
674.35	37.84
674.538	38.33
674.725	38.98
674.912	40.07
675.1	39.67
675.287	39.69
675.474	39.24
675.662	38.69
675.849	37.93
676.036	37.62
676.223	37.37
676.411	37
676.598	37.24
676.785	37.84
676.972	37.33
677.159	37.15
677.346	37.61
677.533	37.68
677.721	37.25
677.908	37.55
678.095	38.56
678.282	38.15
678.469	38.08
678.656	38.16
678.843	37.74
679.03	37.28
679.217	37.38
679.404	37.28
679.591	37.45
679.778	38.06
679.964	37.42
680.151	37.23
680.338	37.37
680.525	37.65
680.712	38.16
680.899	37.33
681.086	37.5
681.272	37.86
681.459	37.83
681.646	38.16
681.833	36.79
682.02	37.13
682.206	37.58
682.393	38.39
682.58	38.68
682.766	37.78
682.953	38.64
683.14	38.93
683.326	38.47
683.513	38.16
683.7	37.04
683.886	38.65
684.073	37.89
684.259	36.65
684.446	36.82
684.632	36.76
684.819	37.73
685.005	38.31
685.192	38.32
685.378	38.91
685.565	39.56
685.751	40.23
685.938	39.92
686.124	40.54
686.31	40.97
686.497	40.7
686.683	40.11
686.87	39.88
687.056	38.62
687.242	38.78
687.429	37.91
687.615	36.67
687.801	36.61
687.987	37.06
688.174	37.21
688.36	38.12
688.546	36.86
688.732	36.86
688.918	36.38
689.105	37.61
689.291	37.33
689.477	38.65
689.663	40.28
689.849	40.69
690.035	40.11
690.221	39.7
690.407	39.59
690.593	40.28
690.779	40.71
690.965	40.12
691.151	39.48
691.337	39.98
691.523	39.39
691.709	38.1
691.895	37.75
692.081	38.1
692.267	38.97
692.453	38.61
692.639	38.8
692.825	38.29
693.011	38.73
693.196	39.66
693.382	39.57
693.568	39.76
693.754	40.38
693.94	40.41
694.125	40.65
694.311	39.83
694.497	39.34
694.682	39.38
694.868	39.93
695.054	41.34
695.239	40.84
695.425	40.3
695.611	39.28
695.796	39.19
695.982	39.35
696.168	38.66
696.353	39.6
696.539	39.88
696.724	40.5
696.91	40.68
697.095	39.47
697.281	38.32
697.466	38.55
697.652	39.08
697.837	39.07
698.023	39.45
698.208	38.67
698.393	37.85
698.579	37.42
698.764	37
698.949	36.2
699.135	36.58
699.32	37.1
699.505	36.9
699.691	36.24
699.876	35.95
700.061	35.17
700.246	35.73
700.432	35.8
700.617	36.98
700.802	37.06
700.987	38.51
701.172	37.1
701.358	37.78
701.543	37.87
701.728	38.93
701.913	39.73
702.098	39.18
702.283	39.28
702.468	39.33
702.653	38.48
702.838	38.03
703.023	36.49
703.208	36.71
703.393	36.54
703.578	37.84
703.763	37.6
703.948	37.53
704.133	39.61
704.318	41.21
704.503	41.04
704.688	40.62
704.873	40.15
705.057	41.22
705.242	41.69
705.427	41.33
705.612	41.15
705.797	40.45
705.981	40.62
706.166	39.16
706.351	38.16
706.536	39.63
706.72	39.66
706.905	40.35
707.09	40.51
707.274	42.31
707.459	41.73
707.644	39.86
707.828	41.47
708.013	40.67
708.197	41.34
708.382	42.08
708.567	40.72
708.751	40.52
708.936	40.58
709.12	38.82
709.305	37.87
709.489	38.42
709.673	39.2
709.858	39.04
710.042	39.88
710.227	38.97
710.411	38.23
710.596	38.74
710.78	38.84
710.964	37.54
711.149	38.57
711.333	39.07
711.517	39.23
711.702	38.28
711.886	37.61
712.07	38.51
712.254	38.73
712.438	38.9
712.623	39.54
712.807	39.33
712.991	40.2
713.175	40.05
713.359	39.69
713.544	39.25
713.728	40.63
713.912	39.6
714.096	39.74
714.28	39.56
714.464	39.81
714.648	38.54
714.832	39.3
715.016	38.8
715.2	39.23
715.384	39.45
715.568	39.71
715.752	39.91
715.936	40.08
716.12	38.47
716.304	38.72
716.488	38.01
716.671	38.88
716.855	39.18
717.039	39.44
717.223	38.93
717.407	39
717.59	38.76
717.774	38.32
717.958	39.99
718.142	40.75
718.325	40.85
718.509	41.76
718.693	41.76
718.877	41.38
719.06	42.63
719.244	43.46
719.428	44.15
719.611	46.02
719.795	45.78
719.978	44.55
720.162	43.33
720.345	43.95
720.529	43.19
720.713	42.63
720.896	42.23
721.08	41.68
721.263	41.62
721.446	41.54
721.63	41.26
721.813	41.18
721.997	42.04
722.18	42.57
722.364	41.77
722.547	41.39
722.73	42
722.914	42.1
723.097	43.04
723.28	45.04
723.464	45.75
723.647	44.3
723.83	44.69
724.013	44.59
724.197	45.43
724.38	45.45
724.563	45.39
724.746	45.8
724.929	46.81
725.112	46.13
725.296	43.07
725.479	41.48
725.662	40.83
725.845	41.08
726.028	41.54
726.211	40.49
726.394	40.56
726.577	40.79
726.76	39.87
726.943	38.5
727.126	37.68
727.309	38.06
727.492	39.94
727.675	40.84
727.858	41.18
728.041	40
728.224	38.85
728.407	39.37
728.589	39.65
728.772	39.46
728.955	39.6
729.138	41.08
729.321	41.71
729.503	40.36
729.686	39.45
729.869	39.27
730.052	39.81
730.234	41.17
730.417	40.09
730.6	40.03
730.782	40.21
730.965	39.54
731.148	37.99
731.33	37.28
731.513	37.98
731.695	39.5
731.878	39.07
732.061	38.23
732.243	38.45
732.426	38.78
732.608	39.17
732.791	40.01
732.973	40.23
733.156	41.13
733.338	42.02
733.52	42.04
733.703	40.93
733.885	39.63
734.068	40.34
734.25	39.62
734.432	40.21
734.615	39.47
734.797	37.76
734.979	39.07
735.162	38.35
735.344	38.62
735.526	36.16
735.708	35.58
735.891	35.71
736.073	35.44
736.255	36.03
736.437	36.22
736.619	37.97
736.802	37.79
736.984	37.81
737.166	38.21
737.348	37.46
737.53	39.79
737.712	40.46
737.894	41.32
738.076	40.63
738.258	40.34
738.44	39.63
738.622	38.85
738.804	39.76
738.986	38.21
739.168	39.22
739.35	38.73
739.532	36.97
739.714	36.95
739.896	36.04
740.078	37.69
740.259	37.93
740.441	39.33
740.623	38.72
740.805	38.53
740.987	38.97
741.168	37.76
741.35	37.67
741.532	39.24
741.714	38.97
741.895	39.81
742.077	37.67
742.259	37.22
742.44	36.06
742.622	35.95
742.804	38.02
742.985	38.25
743.167	41.09
743.348	42.58
743.53	40.83
743.711	41.64
743.893	42.42
744.075	45.93
744.256	45.99
744.438	44.82
744.619	46.08
744.8	45.39
744.982	47.85
745.163	48.18
745.345	46.43
745.526	47.4
745.707	47.49
745.889	46.65
746.07	46.01
746.252	46.67
746.433	46.65
746.614	46.42
746.795	44.89
746.977	44.06
747.158	42.07
747.339	41.66
747.52	41.07
747.702	40.95
747.883	41.55
748.064	40.95
748.245	41.8
748.426	42.7
748.607	41.37
748.788	42.15
748.97	41.31
749.151	41.3
749.332	42.11
749.513	43.88
749.694	44.38
749.875	45.4
750.056	44.62
750.237	44.87
750.418	45.81
750.599	45.62
750.78	44.95
750.96	46.32
751.141	44.98
751.322	46.66
751.503	41.31
751.684	40.15
751.865	37.43
752.046	36.87
752.226	36.42
752.407	35.92
752.588	37.31
752.769	37.8
752.949	36.5
753.13	36.37
753.311	35.27
753.492	38.86
753.672	40.31
753.853	41.12
754.034	40.53
754.214	40.98
754.395	39.68
754.575	39.77
754.756	38.44
754.937	41.13
755.117	42.07
755.298	42.92
755.478	43.56
755.659	41.16
755.839	43.21
756.02	45.77
756.2	44.62
756.381	43.68
756.561	40.76
756.741	41.07
756.922	40.22
757.102	40.81
757.283	40.64
757.463	40.38
757.643	40.72
757.823	38.25
758.004	35.74
758.184	35.32
758.364	35.03
758.545	35.67
758.725	35.88
758.905	34.24
759.085	33.52
759.265	32.93
759.446	33.11
759.626	35.53
759.806	36.1
759.986	36.88
760.166	37.75
760.346	40.9
760.526	40.2
760.706	40.65
760.886	40.16
761.066	40.46
761.246	39.85
761.426	39.9
761.606	40.47
761.786	39.33
761.966	39.39
762.146	39.11
762.326	38
762.506	39.23
762.686	39.02
762.866	39.88
763.046	38.72
763.225	38.39
763.405	38.28
763.585	36.75
763.765	38.31
763.945	37.9
764.124	38.31
764.304	39.59
764.484	38.05
764.664	37.55
764.843	37.85
765.023	39.12
765.203	39.01
765.382	38.38
765.562	37.94
765.741	36.88
765.921	37.1
766.101	37.28
766.28	35.61
766.46	38.49
766.639	39.31
766.819	36.88
766.998	36.69
767.178	36.99
767.357	37.35
767.537	40.7
767.716	40.78
767.896	43.08
768.075	40.71
768.254	42.16
768.434	41.14
768.613	39.69
768.792	40.75
768.972	39.38
769.151	41.25
769.33	42.95
769.51	38.84
769.689	39.89
769.868	38.23
770.047	38.01
770.226	35.5
770.406	35.06
770.585	37
770.764	36.76
770.943	40.14
771.122	38.9
771.301	36.95
771.48	39.86
771.66	41.6
771.839	42.22
772.018	44.63
772.197	48.6
772.376	49.5
772.555	49.99
772.734	52.41
772.913	49.07
773.092	45.11
773.271	46.03
773.449	45.56
773.628	44.03
773.807	39.6
773.986	38.96
774.165	37.57
774.344	38.79
774.523	37.76
774.701	37.67
774.88	41.66
775.059	46.32
775.238	47.52
775.417	47.48
775.595	46.34
775.774	50.07
775.953	49.67
776.131	48.76
776.31	46.25
776.489	45.79
776.667	44.37
776.846	39.64
777.025	41.65
777.203	40.63
777.382	38.89
777.56	38.3
777.739	39.64
777.917	40.32
778.096	40.8
778.274	42.28
778.453	40.69
778.631	39.27
778.81	41.96
778.988	39.73
779.166	40.04
779.345	42.35
779.523	45.32
779.702	47.32
779.88	48.18
780.058	47.97
780.237	47.25
780.415	51.92
780.593	54.48
780.771	54.9
780.95	54.11
781.128	54.91
781.306	49.91
781.484	47.06
781.662	46.39
781.841	47.09
782.019	48.99
782.197	49.83
782.375	45.72
782.553	42.35
782.731	42.4
782.909	45.07
783.087	43.45
783.265	44.97
783.443	47.63
783.621	46.21
783.799	42.31
783.977	40.9
784.155	40.53
784.333	39.13
784.511	40.28
784.689	36.25
784.867	33.98
785.045	38.3
785.223	42.87
785.4	39.05
785.578	38.68
785.756	41.32
785.934	38.04
786.112	40.45
786.289	45.84
786.467	47.65
786.645	50.63
786.823	51.82
787	46.95
787.178	48.83
787.356	49.03
787.533	50.12
787.711	49.17
787.889	52.36
788.066	50.22
788.244	51.38
788.421	52.22
788.599	51.69
788.776	52.74
788.954	56.5
789.131	48.11
789.309	49.3
789.486	45.2
789.664	45.36
789.841	42.64
790.019	44.22
790.196	37.72
790.373	35.82
790.551	29.72
790.728	28.28
790.906	25.85
791.083	31.45
791.26	27.2
791.437	32.09
791.615	30.46
791.792	26.62
791.969	21.4
792.146	28.47
792.324	27.74
792.501	33.84
792.678	33.02
792.855	32.35
793.032	34.16
793.209	34.77
793.387	33.38
793.564	36.21
793.741	39.75
793.918	43.01
794.095	41.24
794.272	41.9
794.449	40.94
794.626	44.61
794.803	43.34
794.98	40.65
795.157	43.29
795.334	40.64
795.511	38.96
795.688	34.32
795.864	36.58
796.041	37.76
796.218	38.92
796.395	39.47
796.572	37.22
796.749	37.6
796.925	40.83
797.102	41.27
797.279	41.64
797.456	44.63
797.632	48.65
797.809	49.15
797.986	50.34
798.162	48.81
798.339	52.57
798.516	52.27
798.692	49.84
798.869	45
799.046	42.6
799.222	44.96
799.399	43.89
799.575	44.93
799.752	43.31
799.928	41.03
800.105	43.98
800.281	41.98
800.458	42.65
800.634	39.87
800.811	43.37
800.987	46.83
801.163	46.19
801.34	43.91
801.516	46.6
801.692	44.73
801.869	47.4
802.045	44.32
802.221	42.81
802.398	42.37
802.574	46.96
802.75	46.14
802.926	45.6
803.103	49.26
803.279	48.14
803.455	42.95
803.631	45.11
803.807	43.15
803.983	43.3
804.16	45.89
804.336	45.02
804.512	46.94
804.688	45.32
804.864	41.76
805.04	39.75
805.216	44.28
805.392	46.19
805.568	44.79
805.744	44.39
805.92	42.43
806.096	45.78
806.272	50.54
806.448	47
806.623	47.81
806.799	50.47
806.975	46.66
807.151	44.78
807.327	45.73
807.503	44.8
807.678	45.64
807.854	48.14
808.03	44.91
808.206	39.84
808.381	42.17
808.557	41.08
808.733	42.3
808.908	46.07
809.084	45.88
809.26	45.96
809.435	47.99
809.611	47.82
809.787	46.49
809.962	49.11
810.138	50.14
810.313	53.7
810.489	54.76
810.664	53.65
810.84	50.47
811.015	51.76
811.191	53.92
811.366	55.79
811.542	58.62
811.717	56.1
811.892	52.25
812.068	51.76
812.243	48.5
812.419	52.18
812.594	52.6
812.769	53.59
812.944	61.99
813.12	60.32
813.295	65.84
813.47	59.27
813.645	63.96
813.821	70.14
813.996	77.56
814.171	76.15
814.346	78.7
814.521	74.54
814.697	77.24
814.872	62.91
815.047	60.59
815.222	50.69
815.397	52.12
815.572	54.62
815.747	47.78
815.922	38.39
816.097	39.02
816.272	33.76
816.447	34.62
816.622	33.31
816.797	37.65
816.972	39.5
817.147	37.91
817.322	37.13
817.496	36.54
817.671	37.93
817.846	42.89
818.021	42.28
818.196	41.78
818.371	44.83
818.545	43.2
818.72	39.06
818.895	40.15
819.069	44.08
819.244	43.2
819.419	43.61
819.594	39.35
819.768	38.73
819.943	38.38
820.117	37.91
820.292	37.17
820.467	38.64
820.641	42.35
820.816	40.06
820.99	39.9
821.165	39.26
821.339	39.27
821.514	40.46
821.688	40.01
821.863	39.5
822.037	39.54
822.212	39.25
822.386	39.32
822.56	38.28
822.735	38.35
822.909	37.67
823.084	37.93
823.258	37.55
823.432	37.59
823.606	37.32
823.781	37.87
823.955	38.13
824.129	37.64
824.303	37.41
824.478	37.3
824.652	37.4
824.826	38.06
825	38.27
825.174	37.44
825.348	36.09
825.523	35.5
825.697	35.11
825.871	33.19
826.045	33.02
826.219	33.19
826.393	33.1
826.567	31.9
826.741	33.32
826.915	34.31
827.089	35.66
827.263	35.98
827.437	38.49
827.611	37.99
827.784	40.09
827.958	42.6
828.132	42.39
828.306	43
828.48	45.54
828.654	43.58
828.827	42.9
829.001	41.21
829.175	40.74
829.349	39.14
829.522	41.11
829.696	41.12
829.87	39.62
830.044	43.98
830.217	45.37
830.391	46.9
830.565	44.06
830.738	41.37
830.912	42.81
831.085	46.75
831.259	43.14
831.432	44.63
831.606	45.36
831.779	41.62
831.953	37.39
832.126	33.41
832.3	33.18
832.473	34.05
832.647	38.49
832.82	36.19
832.994	33.13
833.167	34.11
833.34	33.07
833.514	32.44
833.687	33.87
833.86	32.02
834.034	33.22
834.207	31.79
834.38	34.13
834.553	32.69
834.727	33.31
834.9	36.67
835.073	41.42
835.246	40.45
835.419	39.99
835.593	39.98
835.766	41.88
835.939	44.64
836.112	45.89
836.285	42.99
836.458	44.83
836.631	48.88
836.804	48.41
836.977	39.77
837.15	38.96
837.323	40.43
837.496	41.13
837.669	43.79
837.842	42.46
838.015	39.23
838.188	42.38
838.361	40.13
838.533	36.01
838.706	29.38
838.879	38.8
839.052	39.24
839.225	40.51
839.398	43.54
839.57	46.2
839.743	46
839.916	55.04
840.088	49.8
840.261	48.15
840.434	51.72
840.607	51.93
840.779	54.53
840.952	59.26
841.124	51.38
841.297	51.41
841.47	40.06
841.642	36.34
841.815	30.83
841.987	30.63
842.16	35.37
842.332	37.4
842.505	40.18
842.677	27.8
842.85	30.57
843.022	45
843.194	45.87
843.367	50.25
843.539	46.7
843.712	39.29
843.884	55.33
844.056	58.09
844.229	42.75
844.401	47.01
844.573	57.49
844.745	48.85
844.918	43.95
845.09	28.4
845.262	36.74
845.434	49.45
845.606	57.81
845.779	54.85
845.951	59.89
846.123	75.22
846.295	69.63
846.467	61.11
846.639	63.29
846.811	66.35
846.983	85.81
847.155	82.35
847.327	68.54
847.499	70.71
847.671	67.46
847.843	54.89
848.015	51.09
848.187	71.47
848.359	75.43
848.531	82.78
848.703	93.54
848.875	113.99
849.047	120.92
849.218	152.75
849.39	127.2
849.562	111.4
849.734	105.09
849.905	90.95
850.077	74.29
850.249	81.84
850.421	63.09
850.592	55.45
850.764	34.95
850.936	7.04
851.107	36.93
851.279	63.22
851.451	78.22
851.622	80.35
851.794	73.18
851.965	81.88
852.137	72.98
852.308	61.91
852.48	48.45
852.651	33.54
852.823	39.62
852.994	38.11
853.166	46.13
853.337	41.88
853.509	41.85
853.68	38.66
853.851	32.46
854.023	63.89
854.194	90.49
854.365	110.34
854.537	120.96
854.708	163.07
854.879	209.74
855.05	135.48
855.222	117.79
855.393	95.26
855.564	98.16
855.735	80.6
855.906	52.11
856.078	40.36
856.249	52.2
856.42	51.1
856.591	60.92
856.762	56.8
856.933	91.06
857.104	101.28
857.275	108.6
857.446	75.44
857.617	80.88
857.788	78.14
857.959	68.69
858.13	52.61
858.301	61.47
858.472	75.88
858.643	80.45
858.814	66.49
858.985	67.19
859.155	35.94
859.326	31.6
859.497	42.09
859.668	31.14
859.839	62.59
860.009	96.8
860.18	95.27
860.351	67.83
860.522	67.21
860.692	52.69
860.863	44.13
861.034	66.56
861.204	71.35
861.375	59.88
861.546	64.37
861.716	63.43
861.887	50.7
862.057	51.18
862.228	43.56
862.398	43.44
862.569	54.58
862.739	45.87
862.91	34.89
863.08	31.85
863.251	43.5
863.421	18.44
863.592	21.94
863.762	40.07
863.932	35.9
864.103	28.97
864.273	27.49
864.443	11.79
864.614	21.28
864.784	13.25
864.954	27.4
865.125	40.74
865.295	52.03
865.465	48.9
865.635	33.18
865.805	29.92
865.976	45.72
866.146	38.73
866.316	35.43
866.486	75.24
866.656	85.8
866.826	84.84
866.996	75.51
867.166	78.57
867.336	65.19
867.506	54.74
867.676	66.42
867.846	57.75
868.016	75.7
868.186	74.58
868.356	56.5
868.526	60.33
868.696	62.55
868.866	67.14
869.036	93
869.206	96.8
869.376	129.17
869.545	99.6
869.715	119.69
869.885	116.13
870.055	144.71
870.224	185.86
870.394	226.47
870.564	169.05
870.734	148.44
870.903	93.66
871.073	105.21
871.243	100.56
871.412	105.7
871.582	87.07
871.751	97.36
871.921	74.07
872.091	67.26
872.26	64.5
872.43	43.61
872.599	69.76
872.769	74.45
872.938	72.18
873.108	66.35
873.277	76.15
873.446	80.11
873.616	60.85
873.785	62.15
873.955	87.94
874.124	83.33
874.293	170.26
874.463	112.57
874.632	103.03
874.801	115.97
874.971	47.45
875.14	80.05
875.309	75.73
875.478	78.87
875.647	80.11
875.817	75.17
875.986	78.01
876.155	91.66
876.324	88.15
876.493	94.5
876.662	91.15
876.831	116.81
877	109.22
877.17	111.03
877.339	108.36
877.508	88.81
877.677	97.85
877.846	100.89
878.015	88.21
878.184	76.21
878.352	55.33
878.521	57.77
878.69	43.88
878.859	36.35
879.028	50.2
879.197	61.29
879.366	74.48
879.534	45.72
879.703	43.52
879.872	34.67
880.041	33.68
880.21	41.34
880.378	39.52
880.547	43.09
880.716	46.33
880.884	43.98
881.053	41.52
881.222	39.39
881.39	44.14
881.559	41.36
881.727	43.46
881.896	47.08
882.065	47.89
882.233	48.93
882.402	46.91
882.57	47.64
882.739	45.46
882.907	44.73
883.076	44.94
883.244	49.57
883.412	53.71
883.581	53.01
883.749	51.27
883.918	53.59
884.086	49.5
884.254	52.19
884.423	51.09
884.591	54.74
884.759	54.96
884.927	54.22
885.096	46.78
885.264	43.95
885.432	49.75
885.6	49.87
885.769	49.66
885.937	52.2
886.105	50.41
886.273	51.16
886.441	45.15
886.609	46.18
886.777	55.21
886.945	62.86
887.113	62
887.281	53.59
887.449	49.45
887.617	36.46
887.785	37.51
887.953	29.52
888.121	21.52
888.289	41.56
888.457	40.68
888.625	-1.23
888.793	2.54
888.961	-9.25
889.129	16.22
889.296	37.47
889.464	51.46
889.632	53.72
889.8	72.69
889.967	83.28
890.135	68.65
