Data from JASIL_2912_Reflection_1.txt Node
Date: Sat Nov 07 20:32:35 EST 2015
User: Geneva
Spectrometer: USB4E03002
Autoset integration time: false
Trigger mode: 4
Integration Time (sec): 1.000000E-1
Scans to average: 10
Electric dark correction enabled: true
Nonlinearity correction enabled: false
Boxcar width: 5
Stray light correction enabled: false
XAxis mode: Wavelengths
Stop averaging: false
Number of Pixels in Spectrum: 3648
>>>>>Begin Spectral Data<<<<<
177.575	137.98
177.794	165.77
178.014	96.33
178.233	131.33
178.452	117.98
178.672	119.78
178.891	-29.07
179.11	116.03
179.33	114.5
179.549	141.52
179.768	159.26
179.987	140.1
180.207	145.27
180.426	117.52
180.645	132.6
180.864	128.76
181.084	128.6
181.303	142.59
181.522	146.21
181.741	153.66
181.96	123.93
182.179	124.31
182.398	139.87
182.618	137.13
182.837	137.98
183.056	114.97
183.275	127.91
183.494	99.87
183.713	81.39
183.932	77.74
184.151	82.18
184.37	99.8
184.589	99.34
184.808	91.96
185.027	94.52
185.246	93.64
185.465	102.06
185.684	95.19
185.903	114.9
186.122	132.71
186.341	127.61
186.56	125.25
186.779	139.79
186.998	133.72
187.216	133.99
187.435	122.68
187.654	123.23
187.873	124.98
188.092	123.77
188.311	111.35
188.53	104.68
188.748	98.69
188.967	96.01
189.186	93.6
189.405	98.88
189.623	103.82
189.842	110.04
190.061	106.02
190.28	106.01
190.498	101.57
190.717	109.68
190.936	114.34
191.154	113.26
191.373	113.68
191.592	107.22
191.81	103.12
192.029	95.47
192.248	84.41
192.466	84.63
192.685	83.9
192.904	84.96
193.122	80.75
193.341	75.34
193.559	76.51
193.778	74.55
193.996	70.54
194.215	72.12
194.433	71.07
194.652	71.51
194.87	70.28
195.089	71.44
195.307	80.85
195.526	73.7
195.744	73.38
195.963	78.08
196.181	76.46
196.399	79.17
196.618	81.33
196.836	86.03
197.055	91.16
197.273	97.93
197.491	98.84
197.71	95.94
197.928	93.98
198.146	94.26
198.365	85.58
198.583	87.06
198.801	88.22
199.019	78.44
199.238	69.56
199.456	68.39
199.674	64.79
199.892	59.27
200.111	65.05
200.329	76.39
200.547	73.16
200.765	76.52
200.983	72.16
201.202	74.36
201.42	81.6
201.638	86.72
201.856	86.62
202.074	73.85
202.292	76.39
202.51	73.35
202.728	76.83
202.946	85.16
203.165	82.46
203.383	82.53
203.601	76.37
203.819	72.13
204.037	71.57
204.255	64.56
204.473	71.47
204.691	71.45
204.909	64.03
205.127	62.22
205.345	46.93
205.562	53
205.78	57.17
205.998	63.54
206.216	69.19
206.434	69.34
206.652	77.85
206.87	84.3
207.088	83.02
207.306	85.73
207.523	82.85
207.741	95.15
207.959	95.82
208.177	100.69
208.395	98.35
208.612	98.7
208.83	96.24
209.048	91.6
209.266	87.9
209.483	91.1
209.701	93.04
209.919	98.48
210.136	85.61
210.354	84.03
210.572	75.34
210.79	78.58
211.007	76.44
211.225	77.43
211.442	72.73
211.66	72.66
211.878	69.83
212.095	119.01
212.313	116.47
212.53	121.11
212.748	117.58
212.966	120.53
213.183	117.02
213.401	114.14
213.618	108.15
213.836	121.84
214.053	122.42
214.271	118.83
214.488	64.07
214.705	64.67
214.923	68.14
215.14	65.79
215.358	72.11
215.575	74.11
215.793	73.64
216.01	80.98
216.227	77.49
216.445	78.46
216.662	79.13
216.879	80.97
217.097	80.92
217.314	74.89
217.531	77.33
217.749	70.15
217.966	73.55
218.183	70.8
218.4	61.74
218.618	59.71
218.835	53.6
219.052	50.27
219.269	50.45
219.487	51.05
219.704	49.12
219.921	45.95
220.138	44.29
220.355	35.9
220.572	38.78
220.79	40.73
221.007	38.82
221.224	38.92
221.441	42.66
221.658	46.03
221.875	41.84
222.092	42.13
222.309	41.02
222.526	42.76
222.743	46.4
222.96	46.56
223.177	44.26
223.394	44.71
223.611	45.6
223.828	42.66
224.045	39.72
224.262	41.04
224.479	37.71
224.696	37.77
224.913	34.25
225.13	31.22
225.347	29.97
225.564	30.58
225.781	28.23
225.997	26.44
226.214	25.28
226.431	22.7
226.648	21.9
226.865	22.51
227.082	21.63
227.298	21.38
227.515	21.09
227.732	20.87
227.949	20.74
228.165	20.56
228.382	20.08
228.599	19.73
228.816	20.11
229.032	20.08
229.249	19.9
229.466	19.88
229.682	19.99
229.899	20.22
230.116	19.9
230.332	19.37
230.549	20.18
230.765	21.59
230.982	21.1
231.199	21.88
231.415	21.76
231.632	21.75
231.848	21.82
232.065	21.3
232.281	21.07
232.498	21.45
232.714	21.74
232.931	21.46
233.147	20.01
233.364	20.04
233.58	19.2
233.797	19.84
234.013	20.03
234.23	19.67
234.446	19.29
234.662	18.77
234.879	18.38
235.095	17.96
235.312	17.75
235.528	19.02
235.744	19.7
235.961	20.3
236.177	18.56
236.393	18.87
236.61	19.77
236.826	21.02
237.042	21.7
237.258	22.43
237.475	22.81
237.691	22.44
237.907	20.86
238.123	20.86
238.339	20.29
238.556	21.41
238.772	20.56
238.988	20.34
239.204	19.66
239.42	19.26
239.636	18.43
239.853	17.7
240.069	17.61
240.285	17.5
240.501	16.96
240.717	16.66
240.933	16.18
241.149	15.93
241.365	15.65
241.581	15.66
241.797	15.46
242.013	15.35
242.229	15.79
242.445	15.61
242.661	15.38
242.877	15.74
243.093	15.78
243.309	15.51
243.525	15.52
243.741	15.7
243.957	15.32
244.173	15.57
244.388	15.6
244.604	14.56
244.82	14.25
245.036	14.07
245.252	13.92
245.468	13.9
245.683	13.98
245.899	13.58
246.115	13.44
246.331	13.29
246.547	13.02
246.762	12.85
246.978	13.04
247.194	12.97
247.409	13.04
247.625	12.86
247.841	12.82
248.057	13.02
248.272	13.3
248.488	13.14
248.703	13.17
248.919	13.66
249.135	14.17
249.35	14.25
249.566	14.71
249.782	14.9
249.997	14.91
250.213	14.85
250.428	14.24
250.644	14.67
250.859	14.56
251.075	14.59
251.29	13.83
251.506	13.61
251.721	13.24
251.937	13.25
252.152	12.91
252.368	13.15
252.583	13.24
252.798	13.69
253.014	13.48
253.229	13.4
253.445	13.55
253.66	14.78
253.875	14.49
254.091	15.1
254.306	14.51
254.521	14.88
254.737	15.01
254.952	14.4
255.167	14
255.383	13.51
255.598	14.12
255.813	13.64
256.028	13.23
256.244	13.15
256.459	12.95
256.674	12.54
256.889	11.84
257.104	11.17
257.32	11.43
257.535	11.32
257.75	10.92
257.965	10.72
258.18	10.91
258.395	10.51
258.61	10.42
258.826	10.2
259.041	10.39
259.256	10.48
259.471	10.46
259.686	10.28
259.901	10.2
260.116	10.39
260.331	10.18
260.546	10.06
260.761	10.12
260.976	10.18
261.191	10.07
261.406	9.82
261.621	10.02
261.836	10.17
262.05	10.18
262.265	10.18
262.48	10.11
262.695	10.29
262.91	10.56
263.125	10.88
263.34	11.03
263.555	11.87
263.769	11.94
263.984	11.79
264.199	11.64
264.414	11.66
264.629	11.93
264.843	12.11
265.058	12.11
265.273	11.5
265.488	11.11
265.702	10.8
265.917	10.55
266.132	10.44
266.346	10.4
266.561	10.5
266.776	10.7
266.99	10.2
267.205	10.15
267.42	10.02
267.634	10.11
267.849	10.42
268.063	10.54
268.278	10.51
268.492	10.65
268.707	10.5
268.922	10.59
269.136	10.23
269.351	10.15
269.565	9.98
269.78	10.19
269.994	10.21
270.209	10.15
270.423	10.19
270.637	9.93
270.852	9.9
271.066	9.94
271.281	9.86
271.495	9.86
271.709	10.05
271.924	10.16
272.138	10.04
272.353	10.09
272.567	9.82
272.781	9.77
272.996	9.95
273.21	9.96
273.424	10
273.638	9.88
273.853	9.96
274.067	10.02
274.281	10.13
274.495	10.27
274.71	10.2
274.924	10.25
275.138	10.21
275.352	10.13
275.566	10.25
275.781	10.39
275.995	10.7
276.209	11
276.423	10.9
276.637	10.45
276.851	10.28
277.065	10.19
277.279	10.4
277.493	10.26
277.707	10.49
277.921	10.35
278.135	9.89
278.349	9.48
278.563	9.01
278.777	8.94
278.991	9.29
279.205	9.3
279.419	9.37
279.633	9.53
279.847	9.64
280.061	9.48
280.275	9.35
280.489	9.71
280.703	9.69
280.917	9.82
281.131	9.87
281.344	9.49
281.558	9.32
281.772	9.13
281.986	8.94
282.2	8.9
282.414	9
282.627	9.04
282.841	9.01
283.055	9.25
283.269	9.15
283.482	9.16
283.696	9.29
283.91	9.1
284.123	9.19
284.337	9.02
284.551	8.72
284.764	8.63
284.978	8.47
285.192	8.4
285.405	8.09
285.619	8.1
285.833	8.15
286.046	8.12
286.26	8.36
286.473	8.34
286.687	8.43
286.9	8.85
287.114	8.8
287.327	8.86
287.541	8.74
287.754	8.84
287.968	8.9
288.181	8.75
288.395	8.73
288.608	8.66
288.822	8.57
289.035	8.51
289.248	8.42
289.462	8.64
289.675	8.76
289.889	8.82
290.102	8.82
290.315	8.94
290.529	8.93
290.742	9
290.955	9.12
291.169	9.3
291.382	9.33
291.595	9.39
291.808	9.2
292.022	9.13
292.235	9.17
292.448	9.3
292.661	9.02
292.875	8.97
293.088	8.94
293.301	9.02
293.514	8.81
293.727	8.78
293.94	8.82
294.153	8.65
294.367	8.72
294.58	8.63
294.793	8.6
295.006	8.56
295.219	8.66
295.432	8.63
295.645	8.58
295.858	8.48
296.071	8.5
296.284	8.39
296.497	8.52
296.71	8.42
296.923	8.59
297.136	8.44
297.349	8.71
297.562	8.68
297.775	8.69
297.988	8.73
298.201	8.92
298.414	9.08
298.626	9.04
298.839	8.94
299.052	9.08
299.265	9.09
299.478	9.27
299.691	9.23
299.903	9.11
300.116	9.22
300.329	9.06
300.542	9.03
300.755	9
300.967	8.88
301.18	8.82
301.393	8.8
301.605	8.64
301.818	8.65
302.031	8.49
302.243	8.8
302.456	8.84
302.669	9.03
302.881	9.34
303.094	9.11
303.307	9.18
303.519	9.32
303.732	9.27
303.944	9.39
304.157	9.48
304.37	9.68
304.582	9.58
304.795	9.4
305.007	9.46
305.22	9.39
305.432	9.56
305.645	9.69
305.857	9.77
306.069	9.62
306.282	9.45
306.494	9.53
306.707	9.43
306.919	9.44
307.132	9.39
307.344	9.16
307.556	9.09
307.769	9.35
307.981	9.32
308.193	9.29
308.406	9.4
308.618	9.33
308.83	9.2
309.043	9.08
309.255	9.1
309.467	9.24
309.679	9.42
309.892	9.23
310.104	8.95
310.316	8.94
310.528	8.94
310.74	8.99
310.953	9.13
311.165	9.21
311.377	9.32
311.589	9.32
311.801	9.33
312.013	9.34
312.225	9.67
312.437	9.94
312.649	10.31
312.862	10.2
313.074	10.16
313.286	10.21
313.498	10.37
313.71	10.53
313.922	10.58
314.134	10.57
314.346	10.48
314.558	10.54
314.77	10.74
314.982	10.62
315.193	10.72
315.405	10.88
315.617	10.78
315.829	10.72
316.041	10.88
316.253	11.09
316.465	11.26
316.677	11.5
316.888	11.45
317.1	11.43
317.312	11.41
317.524	11.64
317.736	11.92
317.947	12.31
318.159	12.37
318.371	12.07
318.583	12.12
318.794	12.19
319.006	12.42
319.218	12.46
319.43	12.36
319.641	12.63
319.853	12.96
320.064	13.12
320.276	13.17
320.488	13.37
320.699	13.78
320.911	14.11
321.123	14.41
321.334	14.6
321.546	15.11
321.757	15.56
321.969	15.78
322.18	15.97
322.392	16.06
322.603	16.38
322.815	16.83
323.026	17.03
323.238	17.05
323.449	17.16
323.661	17.47
323.872	17.92
324.083	18.39
324.295	18.91
324.506	19.37
324.718	19.89
324.929	20.4
325.14	20.87
325.352	21.44
325.563	22.23
325.774	22.96
325.986	23.44
326.197	23.89
326.408	24.43
326.62	24.85
326.831	25.34
327.042	25.99
327.253	26.54
327.464	27.11
327.676	27.82
327.887	28.34
328.098	28.91
328.309	29.65
328.52	30.2
328.732	30.81
328.943	31.64
329.154	32.31
329.365	32.9
329.576	33.53
329.787	34.01
329.998	34.47
330.209	34.88
330.42	35.15
330.631	35.59
330.842	36.1
331.053	36.36
331.264	36.66
331.475	37.18
331.686	37.3
331.897	37.67
332.108	37.86
332.319	37.9
332.53	38.3
332.741	38.63
332.952	38.86
333.163	38.83
333.374	39.05
333.585	39.01
333.795	39
334.006	39.15
334.217	39.16
334.428	39.45
334.639	39.7
334.849	39.33
335.06	39.39
335.271	39.29
335.482	39.42
335.692	39.35
335.903	39.49
336.114	39.65
336.325	39.8
336.535	39.97
336.746	40.12
336.957	40.2
337.167	40.6
337.378	40.73
337.589	40.92
337.799	41
338.01	41.1
338.22	41.08
338.431	40.87
338.642	40.87
338.852	40.76
339.063	40.37
339.273	40.26
339.484	40.18
339.694	40.25
339.905	40.16
340.115	40.05
340.326	40.03
340.536	39.87
340.746	39.84
340.957	39.77
341.167	39.77
341.378	39.93
341.588	39.96
341.799	39.93
342.009	39.69
342.219	39.46
342.43	39.42
342.64	39.32
342.85	39.23
343.061	38.96
343.271	38.95
343.481	38.64
343.691	38.37
343.902	38.43
344.112	38.24
344.322	38.29
344.532	38.31
344.743	38.14
344.953	38.05
345.163	38.17
345.373	38.48
345.583	38.49
345.793	38.57
346.004	38.65
346.214	38.43
346.424	38.51
346.634	38.43
346.844	38.41
347.054	38.6
347.264	38.73
347.474	38.7
347.684	38.4
347.894	38.31
348.104	38.23
348.314	38.34
348.524	38.19
348.734	37.94
348.944	37.82
349.154	37.77
349.364	37.54
349.574	37.37
349.784	37.2
349.994	37.15
350.204	36.97
350.413	36.91
350.623	36.66
350.833	36.58
351.043	36.54
351.253	36.54
351.463	36.39
351.672	36.58
351.882	36.54
352.092	36.45
352.302	36.48
352.511	36.49
352.721	36.56
352.931	36.58
353.141	36.78
353.35	36.93
353.56	36.77
353.77	36.76
353.979	36.53
354.189	36.52
354.399	36.51
354.608	36.27
354.818	36.13
355.027	36.01
355.237	35.97
355.447	35.83
355.656	35.82
355.866	35.69
356.075	35.81
356.285	35.77
356.494	35.62
356.704	35.59
356.913	35.68
357.123	35.59
357.332	35.4
357.542	35.31
357.751	35.22
357.96	35.06
358.17	35.13
358.379	34.99
358.589	35
358.798	34.86
359.007	34.87
359.217	34.86
359.426	34.79
359.635	34.82
359.845	34.86
360.054	34.83
360.263	34.74
360.472	34.72
360.682	34.64
360.891	34.47
361.1	34.49
361.309	34.42
361.519	34.28
361.728	34.38
361.937	34.37
362.146	34.29
362.355	34.26
362.564	34.2
362.774	34.17
362.983	34.15
363.192	34.23
363.401	34.23
363.61	34.11
363.819	34.19
364.028	34.16
364.237	34.1
364.446	33.97
364.655	33.98
364.864	33.94
365.073	33.96
365.282	33.87
365.491	33.71
365.7	33.74
365.909	33.83
366.118	33.71
366.327	33.62
366.536	33.57
366.745	33.63
366.954	33.6
367.162	33.62
367.371	33.47
367.58	33.53
367.789	33.6
367.998	33.54
368.207	33.47
368.415	33.45
368.624	33.36
368.833	33.46
369.042	33.38
369.25	33.32
369.459	33.42
369.668	33.4
369.877	33.34
370.085	33.27
370.294	33.11
370.503	33.05
370.711	33.11
370.92	33.18
371.129	33.1
371.337	33.01
371.546	32.96
371.754	32.92
371.963	32.84
372.171	32.8
372.38	32.77
372.589	32.78
372.797	32.87
373.006	32.66
373.214	32.52
373.423	32.45
373.631	32.58
373.84	32.56
374.048	32.48
374.256	32.41
374.465	32.42
374.673	32.36
374.882	32.44
375.09	32.32
375.298	32.39
375.507	32.38
375.715	32.34
375.923	32.22
376.132	32.25
376.34	32.2
376.548	32.24
376.757	32.21
376.965	32.23
377.173	32.2
377.381	32.27
377.59	32.36
377.798	32.41
378.006	32.37
378.214	32.42
378.423	32.25
378.631	32.15
378.839	32.16
379.047	32.04
379.255	32.02
379.463	31.93
379.671	31.77
379.879	31.69
380.088	31.69
380.296	31.77
380.504	31.79
380.712	31.9
380.92	31.96
381.128	31.94
381.336	31.87
381.544	31.82
381.752	31.81
381.96	31.83
382.168	31.69
382.376	31.63
382.584	31.67
382.791	31.62
382.999	31.74
383.207	31.67
383.415	31.69
383.623	31.81
383.831	31.83
384.039	31.82
384.247	31.75
384.454	31.82
384.662	31.66
384.87	31.47
385.078	31.42
385.285	31.13
385.493	31.09
385.701	31
385.909	30.84
386.116	30.77
386.324	30.84
386.532	30.78
386.739	30.73
386.947	30.75
387.155	30.71
387.362	30.62
387.57	30.59
387.778	30.6
387.985	30.5
388.193	30.68
388.4	30.77
388.608	30.72
388.816	30.76
389.023	30.72
389.231	30.73
389.438	30.78
389.646	30.8
389.853	30.83
390.061	30.82
390.268	30.92
390.475	30.74
390.683	30.64
390.89	30.56
391.098	30.52
391.305	30.5
391.512	30.54
391.72	30.57
391.927	30.54
392.135	30.62
392.342	30.54
392.549	30.53
392.756	30.58
392.964	30.67
393.171	30.6
393.378	30.65
393.586	30.63
393.793	30.55
394	30.43
394.207	30.37
394.414	30.25
394.622	30.25
394.829	30.13
395.036	30.08
395.243	29.89
395.45	29.83
395.657	29.75
395.864	29.69
396.072	29.65
396.279	29.67
396.486	29.59
396.693	29.52
396.9	29.48
397.107	29.49
397.314	29.58
397.521	29.54
397.728	29.65
397.935	29.74
398.142	29.68
398.349	29.68
398.556	29.65
398.763	29.72
398.97	29.75
399.177	29.77
399.383	29.78
399.59	29.63
399.797	29.69
400.004	29.57
400.211	29.47
400.418	29.57
400.625	29.52
400.831	29.6
401.038	29.51
401.245	29.58
401.452	29.52
401.658	29.43
401.865	29.42
402.072	29.46
402.279	29.46
402.485	29.36
402.692	29.24
402.899	29.22
403.105	29.15
403.312	29.23
403.519	29.14
403.725	29.18
403.932	29.21
404.138	29.13
404.345	28.99
404.552	28.99
404.758	29.06
404.965	29.07
405.171	29.09
405.378	29.03
405.584	29
405.791	28.92
405.997	28.86
406.204	28.86
406.41	28.91
406.617	29
406.823	29
407.029	29.1
407.236	29.15
407.442	29.19
407.649	29.2
407.855	29.09
408.061	29.23
408.268	29.29
408.474	29.26
408.68	29.28
408.887	29.29
409.093	29.26
409.299	29.11
409.505	28.97
409.712	28.9
409.918	28.89
410.124	28.92
410.33	28.92
410.537	28.87
410.743	28.87
410.949	28.84
411.155	28.84
411.361	28.86
411.567	28.86
411.773	29
411.98	29.06
412.186	29.18
412.392	29.27
412.598	29.2
412.804	29.17
413.01	29.17
413.216	29.19
413.422	29.24
413.628	29.26
413.834	29.2
414.04	29.08
414.246	29.03
414.452	28.82
414.658	28.83
414.864	28.75
415.07	28.69
415.275	28.66
415.481	28.58
415.687	28.5
415.893	28.47
416.099	28.51
416.305	28.44
416.511	28.45
416.716	28.51
416.922	28.44
417.128	28.49
417.334	28.52
417.539	28.43
417.745	28.43
417.951	28.35
418.157	28.35
418.362	28.31
418.568	28.36
418.774	28.34
418.979	28.35
419.185	28.34
419.391	28.32
419.596	28.32
419.802	28.37
420.008	28.37
420.213	28.22
420.419	28.23
420.624	28.19
420.83	28.22
421.035	28.22
421.241	28.2
421.446	28.23
421.652	28.24
421.857	28.27
422.063	28.2
422.268	28.21
422.474	28.38
422.679	28.36
422.885	28.45
423.09	28.44
423.295	28.41
423.501	28.47
423.706	28.41
423.911	28.42
424.117	28.41
424.322	28.49
424.527	28.51
424.733	28.52
424.938	28.56
425.143	28.52
425.349	28.52
425.554	28.59
425.759	28.52
425.964	28.58
426.169	28.62
426.375	28.61
426.58	28.61
426.785	28.64
426.99	28.69
427.195	28.76
427.4	28.77
427.605	28.82
427.811	28.83
428.016	28.9
428.221	28.92
428.426	28.9
428.631	28.97
428.836	28.96
429.041	28.93
429.246	28.93
429.451	28.86
429.656	28.92
429.861	28.86
430.066	28.86
430.271	28.86
430.476	28.87
430.681	28.86
430.886	28.9
431.09	28.93
431.295	28.96
431.5	28.97
431.705	28.91
431.91	28.91
432.115	28.96
432.32	28.98
432.524	29
432.729	28.98
432.934	28.96
433.139	28.93
433.343	28.96
433.548	28.99
433.753	28.99
433.958	29.08
434.162	29.13
434.367	29.11
434.572	29.11
434.776	29.09
434.981	29.16
435.186	29.2
435.39	29.22
435.595	29.16
435.799	29.13
436.004	29.19
436.209	29.18
436.413	29.1
436.618	29.09
436.822	29.07
437.027	29.06
437.231	29.03
437.436	29.01
437.64	28.99
437.845	29.05
438.049	29.05
438.253	28.96
438.458	28.91
438.662	28.95
438.867	29.01
439.071	29.03
439.275	29.09
439.48	29.1
439.684	29.14
439.888	29.16
440.093	29.13
440.297	29.12
440.501	29.15
440.706	29.19
440.91	29.19
441.114	29.14
441.318	29.15
441.523	29.16
441.727	29.15
441.931	29.14
442.135	29.16
442.339	29.19
442.543	29.25
442.748	29.28
442.952	29.24
443.156	29.21
443.36	29.27
443.564	29.26
443.768	29.15
443.972	29.14
444.176	29.15
444.38	29.09
444.584	29.03
444.788	28.96
444.992	28.91
445.196	28.91
445.4	28.86
445.604	28.83
445.808	28.81
446.012	28.8
446.216	28.76
446.42	28.72
446.624	28.75
446.828	28.75
447.032	28.74
447.235	28.75
447.439	28.79
447.643	28.83
447.847	28.83
448.051	28.84
448.254	28.87
448.458	28.94
448.662	28.95
448.866	28.93
449.069	28.89
449.273	28.94
449.477	28.94
449.681	28.89
449.884	28.85
450.088	28.86
450.292	28.77
450.495	28.71
450.699	28.73
450.902	28.77
451.106	28.75
451.31	28.79
451.513	28.75
451.717	28.76
451.92	28.78
452.124	28.82
452.327	28.79
452.531	28.8
452.734	28.84
452.938	28.81
453.141	28.81
453.345	28.78
453.548	28.77
453.752	28.8
453.955	28.8
454.158	28.81
454.362	28.74
454.565	28.76
454.769	28.77
454.972	28.86
455.175	28.8
455.379	28.73
455.582	28.72
455.785	28.7
455.988	28.61
456.192	28.59
456.395	28.53
456.598	28.6
456.801	28.54
457.005	28.49
457.208	28.4
457.411	28.36
457.614	28.29
457.817	28.28
458.021	28.21
458.224	28.19
458.427	28.14
458.63	28.08
458.833	28.05
459.036	28.01
459.239	27.97
459.442	27.95
459.645	27.96
459.848	27.98
460.051	27.96
460.254	28
460.457	28
460.66	28.02
460.863	28.02
461.066	27.95
461.269	28
461.472	28.07
461.675	28.11
461.878	28.04
462.081	28.03
462.284	28.01
462.486	27.98
462.689	28.01
462.892	28.03
463.095	28.05
463.298	28.08
463.5	27.99
463.703	27.96
463.906	27.89
464.109	27.98
464.311	28.01
464.514	28.06
464.717	28.07
464.92	28.04
465.122	27.97
465.325	28.05
465.528	28.06
465.73	28.08
465.933	28.08
466.135	28.01
466.338	27.91
466.541	27.87
466.743	27.8
466.946	27.79
467.148	27.84
467.351	27.84
467.553	27.78
467.756	27.76
467.958	27.76
468.161	27.76
468.363	27.77
468.566	27.78
468.768	27.77
468.971	27.79
469.173	27.79
469.375	27.69
469.578	27.56
469.78	27.54
469.983	27.52
470.185	27.52
470.387	27.55
470.59	27.63
470.792	27.7
470.994	27.7
471.196	27.66
471.399	27.6
471.601	27.62
471.803	27.7
472.005	27.65
472.208	27.64
472.41	27.61
472.612	27.52
472.814	27.47
473.016	27.42
473.218	27.43
473.421	27.39
473.623	27.4
473.825	27.37
474.027	27.34
474.229	27.36
474.431	27.32
474.633	27.28
474.835	27.28
475.037	27.28
475.239	27.25
475.441	27.14
475.643	27.19
475.845	27.12
476.047	27.13
476.249	27.12
476.451	27.11
476.653	27.12
476.855	27.12
477.057	27.14
477.258	27.07
477.46	27.06
477.662	27.09
477.864	27.04
478.066	27.06
478.268	26.99
478.469	26.95
478.671	26.93
478.873	26.9
479.075	26.91
479.276	26.87
479.478	26.94
479.68	26.92
479.882	26.92
480.083	26.92
480.285	26.9
480.487	26.9
480.688	26.86
480.89	26.82
481.091	26.73
481.293	26.7
481.495	26.67
481.696	26.62
481.898	26.58
482.099	26.52
482.301	26.48
482.502	26.42
482.704	26.38
482.905	26.33
483.107	26.31
483.308	26.29
483.51	26.25
483.711	26.22
483.913	26.19
484.114	26.16
484.315	26.15
484.517	26.15
484.718	26.17
484.92	26.17
485.121	26.2
485.322	26.19
485.524	26.19
485.725	26.17
485.926	26.18
486.127	26.17
486.329	26.17
486.53	26.17
486.731	26.12
486.932	26.08
487.134	26.05
487.335	26.01
487.536	26
487.737	26
487.938	26.01
488.139	26
488.341	25.98
488.542	25.97
488.743	25.96
488.944	25.99
489.145	26.04
489.346	26.06
489.547	26.09
489.748	26.11
489.949	26.13
490.15	26.1
490.351	26.05
490.552	26.06
490.753	26.02
490.954	25.97
491.155	25.93
491.356	25.9
491.557	25.9
491.758	25.88
491.959	25.87
492.159	25.83
492.36	25.87
492.561	25.88
492.762	25.88
492.963	25.9
493.164	25.96
493.364	26
493.565	26.02
493.766	26.07
493.967	26.07
494.167	26.08
494.368	26.14
494.569	26.12
494.769	26.12
494.97	26.11
495.171	26.12
495.371	26.1
495.572	26.08
495.773	26.03
495.973	25.98
496.174	25.96
496.375	25.95
496.575	25.91
496.776	25.92
496.976	25.95
497.177	25.94
497.377	25.96
497.578	25.98
497.778	25.98
497.979	26
498.179	25.99
498.38	26.02
498.58	26.05
498.78	26.05
498.981	26.03
499.181	26.02
499.382	26.01
499.582	25.97
499.782	25.95
499.983	26
500.183	25.99
500.383	25.98
500.584	25.98
500.784	25.94
500.984	25.97
501.184	25.97
501.385	25.96
501.585	25.97
501.785	25.96
501.985	25.95
502.185	25.94
502.386	25.93
502.586	25.91
502.786	25.92
502.986	25.94
503.186	25.92
503.386	25.97
503.586	25.98
503.786	25.97
503.987	26.01
504.187	26.03
504.387	25.99
504.587	25.97
504.787	25.97
504.987	25.96
505.187	25.94
505.387	25.91
505.587	25.87
505.786	25.83
505.986	25.81
506.186	25.79
506.386	25.82
506.586	25.78
506.786	25.75
506.986	25.72
507.186	25.73
507.386	25.71
507.585	25.65
507.785	25.69
507.985	25.68
508.185	25.68
508.384	25.61
508.584	25.56
508.784	25.58
508.984	25.65
509.183	25.65
509.383	25.58
509.583	25.57
509.782	25.6
509.982	25.56
510.182	25.55
510.381	25.55
510.581	25.6
510.781	25.61
510.98	25.61
511.18	25.56
511.379	25.56
511.579	25.57
511.778	25.6
511.978	25.65
512.177	25.64
512.377	25.65
512.576	25.65
512.776	25.62
512.975	25.63
513.175	25.63
513.374	25.68
513.573	25.7
513.773	25.74
513.972	25.7
514.172	25.71
514.371	25.73
514.57	25.72
514.77	25.74
514.969	25.74
515.168	25.71
515.367	25.71
515.567	25.65
515.766	25.59
515.965	25.55
516.164	25.54
516.364	25.52
516.563	25.43
516.762	25.37
516.961	25.34
517.16	25.35
517.359	25.29
517.559	25.27
517.758	25.29
517.957	25.28
518.156	25.28
518.355	25.26
518.554	25.24
518.753	25.3
518.952	25.35
519.151	25.33
519.35	25.33
519.549	25.38
519.748	25.41
519.947	25.38
520.146	25.43
520.345	25.42
520.544	25.47
520.743	25.45
520.942	25.42
521.141	25.42
521.339	25.42
521.538	25.44
521.737	25.42
521.936	25.37
522.135	25.38
522.333	25.33
522.532	25.31
522.731	25.22
522.93	25.22
523.129	25.25
523.327	25.21
523.526	25.21
523.725	25.17
523.923	25.17
524.122	25.16
524.321	25.17
524.519	25.18
524.718	25.16
524.917	25.18
525.115	25.21
525.314	25.16
525.512	25.16
525.711	25.15
525.909	25.13
526.108	25.13
526.306	25.11
526.505	25.07
526.703	25.03
526.902	25.01
527.1	24.99
527.299	24.97
527.497	24.96
527.696	24.95
527.894	24.94
528.092	24.93
528.291	24.91
528.489	24.89
528.688	24.9
528.886	24.91
529.084	24.91
529.283	24.92
529.481	24.92
529.679	24.95
529.877	24.98
530.076	25
530.274	25.03
530.472	25.06
530.67	25.1
530.869	25.09
531.067	25.07
531.265	25.08
531.463	25.1
531.661	25.07
531.859	25.05
532.057	25.02
532.255	24.99
532.454	24.97
532.652	24.97
532.85	24.96
533.048	24.99
533.246	25.05
533.444	25.08
533.642	25.06
533.84	25.06
534.038	25.08
534.236	25.08
534.434	25.13
534.632	25.16
534.83	25.19
535.027	25.2
535.225	25.18
535.423	25.14
535.621	25.11
535.819	25.09
536.017	25.13
536.215	25.07
536.412	25.06
536.61	25.06
536.808	25.06
537.006	25.06
537.203	25.07
537.401	25.11
537.599	25.16
537.797	25.2
537.994	25.24
538.192	25.27
538.39	25.39
538.587	25.43
538.785	25.43
538.983	25.42
539.18	25.45
539.378	25.44
539.575	25.42
539.773	25.38
539.97	25.3
540.168	25.31
540.366	25.29
540.563	25.27
540.761	25.24
540.958	25.24
541.155	25.23
541.353	25.21
541.55	25.23
541.748	25.24
541.945	25.29
542.143	25.34
542.34	25.38
542.537	25.39
542.735	25.4
542.932	25.42
543.129	25.44
543.327	25.46
543.524	25.51
543.721	25.52
543.919	25.56
544.116	25.6
544.313	25.67
544.51	25.65
544.708	25.72
544.905	25.72
545.102	25.78
545.299	25.82
545.496	25.87
545.693	25.89
545.891	25.93
546.088	25.95
546.285	25.97
546.482	25.99
546.679	26.01
546.876	26.03
547.073	26.12
547.27	26.18
547.467	26.24
547.664	26.28
547.861	26.29
548.058	26.3
548.255	26.37
548.452	26.41
548.649	26.42
548.846	26.5
549.043	26.53
549.24	26.51
549.437	26.53
549.633	26.55
549.83	26.6
550.027	26.73
550.224	26.8
550.421	26.8
550.618	26.78
550.814	26.85
551.011	26.9
551.208	26.95
551.405	26.99
551.601	27.07
551.798	27.1
551.995	27.11
552.191	27.1
552.388	27.06
552.585	27.14
552.781	27.2
552.978	27.28
553.175	27.36
553.371	27.39
553.568	27.45
553.764	27.48
553.961	27.56
554.157	27.63
554.354	27.74
554.55	27.8
554.747	27.86
554.943	27.93
555.14	27.93
555.336	27.92
555.533	27.99
555.729	28.08
555.926	28.1
556.122	28.14
556.318	28.18
556.515	28.18
556.711	28.27
556.907	28.28
557.104	28.35
557.3	28.39
557.496	28.45
557.693	28.5
557.889	28.5
558.085	28.52
558.281	28.62
558.478	28.71
558.674	28.77
558.87	28.83
559.066	28.9
559.262	28.93
559.459	29.02
559.655	29.06
559.851	29.13
560.047	29.25
560.243	29.35
560.439	29.37
560.635	29.38
560.831	29.51
561.027	29.59
561.223	29.6
561.419	29.66
561.615	29.67
561.811	29.76
562.007	29.82
562.203	29.89
562.399	29.92
562.595	29.95
562.791	30.02
562.987	30
563.183	30.06
563.379	30.17
563.575	30.25
563.771	30.36
563.966	30.38
564.162	30.5
564.358	30.54
564.554	30.57
564.75	30.58
564.945	30.61
565.141	30.66
565.337	30.67
565.533	30.7
565.728	30.74
565.924	30.76
566.12	30.82
566.315	30.86
566.511	30.89
566.707	30.98
566.902	31.11
567.098	31.25
567.293	31.31
567.489	31.43
567.684	31.56
567.88	31.62
568.076	31.71
568.271	31.81
568.467	31.82
568.662	31.87
568.858	31.94
569.053	32
569.248	31.99
569.444	32.08
569.639	32.09
569.835	32.12
570.03	32.18
570.225	32.26
570.421	32.35
570.616	32.5
570.812	32.57
571.007	32.63
571.202	32.7
571.397	32.79
571.593	32.89
571.788	33.02
571.983	33.14
572.178	33.19
572.374	33.25
572.569	33.28
572.764	33.28
572.959	33.37
573.154	33.42
573.35	33.43
573.545	33.46
573.74	33.48
573.935	33.51
574.13	33.51
574.325	33.6
574.52	33.65
574.715	33.75
574.91	33.81
575.105	33.86
575.3	33.92
575.495	34.06
575.69	34.15
575.885	34.23
576.08	34.31
576.275	34.39
576.47	34.45
576.665	34.53
576.86	34.6
577.055	34.64
577.25	34.67
577.444	34.77
577.639	34.87
577.834	34.92
578.029	34.96
578.224	35.02
578.418	35.08
578.613	35.16
578.808	35.21
579.003	35.21
579.197	35.34
579.392	35.43
579.587	35.48
579.781	35.47
579.976	35.56
580.171	35.63
580.365	35.72
580.56	35.78
580.755	35.78
580.949	35.85
581.144	35.89
581.338	35.92
581.533	35.99
581.727	36.09
581.922	36.18
582.116	36.19
582.311	36.23
582.505	36.18
582.7	36.24
582.894	36.3
583.089	36.34
583.283	36.45
583.478	36.49
583.672	36.54
583.866	36.48
584.061	36.55
584.255	36.64
584.449	36.74
584.644	36.83
584.838	36.87
585.032	36.98
585.226	37.04
585.421	37.08
585.615	37.14
585.809	37.15
586.003	37.23
586.198	37.19
586.392	37.18
586.586	37.14
586.78	37.2
586.974	37.27
587.168	37.16
587.363	37.16
587.557	37.15
587.751	37.21
587.945	37.24
588.139	37.34
588.333	37.34
588.527	37.49
588.721	37.56
588.915	37.57
589.109	37.54
589.303	37.68
589.497	37.7
589.691	37.8
589.885	37.83
590.079	37.9
590.273	37.86
590.466	37.91
590.66	37.86
590.854	37.86
591.048	37.91
591.242	37.96
591.436	37.97
591.629	38.03
591.823	38.09
592.017	38.11
592.211	38.15
592.404	38.18
592.598	38.17
592.792	38.21
592.986	38.29
593.179	38.29
593.373	38.35
593.567	38.37
593.76	38.37
593.954	38.39
594.147	38.42
594.341	38.42
594.535	38.44
594.728	38.51
594.922	38.52
595.115	38.48
595.309	38.46
595.502	38.46
595.696	38.46
595.889	38.48
596.083	38.44
596.276	38.39
596.47	38.43
596.663	38.44
596.856	38.49
597.05	38.48
597.243	38.49
597.437	38.6
597.63	38.59
597.823	38.68
598.017	38.65
598.21	38.7
598.403	38.73
598.596	38.74
598.79	38.79
598.983	38.83
599.176	38.9
599.369	38.96
599.563	38.93
599.756	38.97
599.949	39
600.142	39.01
600.335	39.02
600.528	39.12
600.722	39.07
600.915	39.13
601.108	39.1
601.301	39.09
601.494	39.16
601.687	39.14
601.88	39.15
602.073	39.08
602.266	39.12
602.459	39.13
602.652	39.03
602.845	39.09
603.038	39.01
603.231	39.05
603.424	39.08
603.617	39.03
603.809	39.04
604.002	39.06
604.195	39.09
604.388	39.11
604.581	39.09
604.774	39.14
604.966	39.09
605.159	39.1
605.352	39.06
605.545	39.05
605.737	39.08
605.93	39.1
606.123	39.09
606.316	39.09
606.508	39.13
606.701	39.28
606.894	39.29
607.086	39.38
607.279	39.45
607.471	39.4
607.664	39.36
607.857	39.4
608.049	39.47
608.242	39.45
608.434	39.43
608.627	39.36
608.819	39.21
609.012	39.22
609.204	39.26
609.397	39.27
609.589	39.34
609.782	39.39
609.974	39.39
610.166	39.38
610.359	39.49
610.551	39.53
610.743	39.58
610.936	39.65
611.128	39.63
611.32	39.63
611.513	39.63
611.705	39.7
611.897	39.71
612.09	39.65
612.282	39.68
612.474	39.55
612.666	39.51
612.858	39.58
613.051	39.53
613.243	39.53
613.435	39.49
613.627	39.48
613.819	39.36
614.011	39.44
614.203	39.46
614.395	39.38
614.588	39.38
614.78	39.32
614.972	39.27
615.164	39.26
615.356	39.21
615.548	39.14
615.74	39.2
615.932	39.14
616.124	39.02
616.315	39.01
616.507	38.99
616.699	38.98
616.891	39
617.083	38.9
617.275	38.93
617.467	38.91
617.659	38.9
617.85	38.77
618.042	38.78
618.234	38.74
618.426	38.69
618.618	38.67
618.809	38.6
619.001	38.56
619.193	38.6
619.384	38.56
619.576	38.56
619.768	38.58
619.959	38.55
620.151	38.54
620.343	38.51
620.534	38.43
620.726	38.39
620.917	38.45
621.109	38.51
621.301	38.48
621.492	38.52
621.684	38.6
621.875	38.55
622.067	38.57
622.258	38.54
622.45	38.55
622.641	38.62
622.832	38.66
623.024	38.57
623.215	38.59
623.407	38.53
623.598	38.44
623.789	38.31
623.981	38.26
624.172	38.25
624.363	38.23
624.555	38.14
624.746	38.08
624.937	38.03
625.129	38.04
625.32	37.96
625.511	37.95
625.702	37.84
625.893	37.79
626.085	37.72
626.276	37.7
626.467	37.69
626.658	37.66
626.849	37.64
627.04	37.52
627.231	37.5
627.422	37.45
627.614	37.41
627.805	37.41
627.996	37.37
628.187	37.4
628.378	37.34
628.569	37.29
628.76	37.28
628.951	37.21
629.142	37.21
629.332	37.14
629.523	37.16
629.714	37.1
629.905	37.22
630.096	37.22
630.287	37.21
630.478	37.09
630.669	37.03
630.859	36.99
631.05	36.97
631.241	36.92
631.432	36.9
631.623	36.9
631.813	36.88
632.004	36.68
632.195	36.65
632.385	36.59
632.576	36.72
632.767	36.68
632.957	36.63
633.148	36.63
633.339	36.62
633.529	36.54
633.72	36.35
633.91	36.28
634.101	36.27
634.292	36.17
634.482	36.14
634.673	36.08
634.863	36.05
635.054	36.07
635.244	35.96
635.435	35.98
635.625	35.97
635.815	35.94
636.006	35.91
636.196	35.94
636.387	35.95
636.577	35.85
636.767	35.77
636.958	35.77
637.148	35.72
637.338	35.73
637.529	35.68
637.719	35.76
637.909	35.81
638.099	35.87
638.29	35.8
638.48	35.85
638.67	35.9
638.86	35.87
639.05	35.88
639.241	35.78
639.431	35.76
639.621	35.64
639.811	35.51
640.001	35.41
640.191	35.25
640.381	35.14
640.571	35.14
640.761	35.12
640.951	35.16
641.141	35.05
641.331	35.07
641.521	35.01
641.711	34.97
641.901	34.95
642.091	34.91
642.281	34.92
642.471	34.94
642.661	34.93
642.851	34.91
643.041	34.86
643.231	34.91
643.42	34.93
643.61	34.97
643.8	34.97
643.99	34.93
644.18	34.97
644.369	35.04
644.559	35.09
644.749	35
644.939	35
645.128	34.95
645.318	34.93
645.508	34.89
645.697	34.88
645.887	34.94
646.076	34.93
646.266	34.93
646.456	34.95
646.645	34.89
646.835	34.85
647.024	34.75
647.214	34.77
647.403	34.7
647.593	34.67
647.782	34.66
647.972	34.62
648.161	34.7
648.351	34.78
648.54	34.7
648.73	34.69
648.919	34.6
649.108	34.51
649.298	34.48
649.487	34.58
649.677	34.45
649.866	34.36
650.055	34.3
650.244	34.12
650.434	34.08
650.623	34.1
650.812	34.13
651.002	34.15
651.191	34.23
651.38	34.2
651.569	34.05
651.758	34.1
651.947	34.11
652.137	34.16
652.326	34.23
652.515	34.19
652.704	34.07
652.893	33.98
653.082	34
653.271	33.97
653.46	33.95
653.649	34.03
653.838	34.09
654.027	34.11
654.216	34.02
654.405	33.95
654.594	33.89
654.783	34.04
654.972	33.95
655.161	34.03
655.35	33.95
655.539	33.81
655.728	33.74
655.916	33.59
656.105	33.54
656.294	33.65
656.483	33.62
656.672	33.57
656.86	33.4
657.049	33.47
657.238	33.32
657.427	33.43
657.615	33.46
657.804	33.48
657.993	33.54
658.181	33.58
658.37	33.49
658.559	33.51
658.747	33.47
658.936	33.52
659.125	33.56
659.313	33.55
659.502	33.49
659.69	33.48
659.879	33.42
660.067	33.43
660.256	33.43
660.444	33.46
660.633	33.46
660.821	33.49
661.01	33.51
661.198	33.46
661.387	33.53
661.575	33.63
661.763	33.64
661.952	33.68
662.14	33.69
662.328	33.58
662.517	33.51
662.705	33.48
662.893	33.54
663.082	33.5
663.27	33.41
663.458	33.45
663.646	33.34
663.834	33.26
664.023	33.14
664.211	33.11
664.399	33.1
664.587	33.1
664.775	33.04
664.963	32.8
665.152	32.87
665.34	32.88
665.528	32.72
665.716	32.74
665.904	32.79
666.092	32.79
666.28	32.67
666.468	32.68
666.656	32.64
666.844	32.75
667.032	32.87
667.22	32.79
667.408	32.84
667.596	32.95
667.784	32.87
667.971	32.91
668.159	33
668.347	33.04
668.535	32.95
668.723	33.01
668.911	32.91
669.098	32.94
669.286	33.02
669.474	32.93
669.662	32.94
669.849	33.02
670.037	33.04
670.225	32.93
670.413	32.91
670.6	32.84
670.788	32.7
670.976	32.75
671.163	32.63
671.351	32.43
671.538	32.38
671.726	32.32
671.913	32.23
672.101	32.1
672.289	32.09
672.476	32.13
672.664	32.24
672.851	32.27
673.039	32.23
673.226	32.28
673.413	32.31
673.601	32.32
673.788	32.28
673.976	32.33
674.163	32.34
674.35	32.48
674.538	32.53
674.725	32.46
674.912	32.47
675.1	32.44
675.287	32.49
675.474	32.5
675.662	32.52
675.849	32.49
676.036	32.25
676.223	32.25
676.411	32.19
676.598	31.99
676.785	32.03
676.972	31.97
677.159	31.91
677.346	31.76
677.533	31.65
677.721	31.71
677.908	31.76
678.095	31.88
678.282	31.92
678.469	31.84
678.656	31.96
678.843	31.99
679.03	32.15
679.217	32.31
679.404	32.38
679.591	32.42
679.778	32.39
679.964	32.3
680.151	32.31
680.338	32.3
680.525	32.31
680.712	32.3
680.899	32.28
681.086	32.22
681.272	32.14
681.459	32.14
681.646	32.21
681.833	32.26
682.02	32.26
682.206	32.3
682.393	32.25
682.58	32.27
682.766	32.22
682.953	32.27
683.14	32.22
683.326	32.16
683.513	32.21
683.7	32.2
683.886	32.13
684.073	32.07
684.259	32.03
684.446	32.1
684.632	32.09
684.819	32.16
685.005	32.06
685.192	32.01
685.378	31.95
685.565	31.88
685.751	31.68
685.938	31.6
686.124	31.7
686.31	31.67
686.497	31.54
686.683	31.64
686.87	31.64
687.056	31.63
687.242	31.53
687.429	31.57
687.615	31.59
687.801	31.79
687.987	31.82
688.174	31.86
688.36	31.86
688.546	31.89
688.732	31.82
688.918	31.69
689.105	31.7
689.291	31.76
689.477	31.82
689.663	31.81
689.849	31.82
690.035	31.86
690.221	31.78
690.407	32.07
690.593	32.09
690.779	31.9
690.965	31.98
691.151	31.96
691.337	32.01
691.523	32.04
691.709	32.14
691.895	32.23
692.081	32.3
692.267	32.29
692.453	31.93
692.639	32.08
692.825	32.13
693.011	32.14
693.196	32.22
693.382	32.13
693.568	31.97
693.754	31.85
693.94	31.62
694.125	31.5
694.311	31.53
694.497	31.55
694.682	31.42
694.868	31.5
695.054	31.44
695.239	31.39
695.425	31.37
695.611	31.61
695.796	31.46
695.982	31.47
696.168	31.5
696.353	31.48
696.539	31.48
696.724	31.41
696.91	31.43
697.095	31.41
697.281	31.37
697.466	31.34
697.652	31.2
697.837	31.19
698.023	31.07
698.208	31.01
698.393	31.02
698.579	31.02
698.764	30.91
698.949	30.84
699.135	30.83
699.32	30.83
699.505	30.94
699.691	30.82
699.876	30.84
700.061	30.94
700.246	30.95
700.432	30.82
700.617	30.64
700.802	30.75
700.987	30.76
701.172	30.75
701.358	30.75
701.543	30.79
701.728	30.81
701.913	31.12
702.098	31.16
702.283	31.08
702.468	31.17
702.653	31.42
702.838	31.63
703.023	31.73
703.208	31.75
703.393	31.61
703.578	31.56
703.763	31.72
703.948	31.49
704.133	31.43
704.318	31.49
704.503	31.63
704.688	31.63
704.873	31.33
705.057	31.39
705.242	31.44
705.427	31.58
705.612	31.38
705.797	31.57
705.981	31.47
706.166	31.58
706.351	31.43
706.536	31.39
706.72	31.33
706.905	31.41
707.09	31.39
707.274	31.39
707.459	31.39
707.644	31.5
707.828	31.24
708.013	31.26
708.197	31.22
708.382	31.37
708.567	31.32
708.751	31.39
708.936	31.24
709.12	31.05
709.305	31
709.489	30.9
709.673	31.01
709.858	30.99
710.042	31.06
710.227	31.1
710.411	31.2
710.596	31.14
710.78	30.97
710.964	31.15
711.149	31.24
711.333	31.29
711.517	31.18
711.702	31.23
711.886	31.34
712.07	31.25
712.254	31.25
712.438	31.02
712.623	31.05
712.807	31.11
712.991	31.01
713.175	30.98
713.359	31
713.544	31.2
713.728	31
713.912	30.83
714.096	30.89
714.28	30.81
714.464	30.97
714.648	30.91
714.832	30.95
715.016	31.11
715.2	30.98
715.384	30.93
715.568	30.87
715.752	30.76
715.936	30.84
716.12	30.86
716.304	31.04
716.488	30.89
716.671	30.9
716.855	30.99
717.039	30.92
717.223	31.06
717.407	31.07
717.59	31.15
717.774	31.38
717.958	31.47
718.142	31.34
718.325	31.24
718.509	31.52
718.693	31.56
718.877	31.39
719.06	31.45
719.244	31.33
719.428	31.23
719.611	31.07
719.795	30.91
719.978	31.08
720.162	31.19
720.345	31.2
720.529	31.11
720.713	31.23
720.896	31.24
721.08	31.01
721.263	31.19
721.446	31.16
721.63	31.19
721.813	31.26
721.997	31.17
722.18	31.17
722.364	31.12
722.547	30.92
722.73	30.73
722.914	30.83
723.097	30.9
723.28	30.73
723.464	30.79
723.647	30.91
723.83	30.95
724.013	30.82
724.197	30.82
724.38	30.86
724.563	30.94
724.746	30.93
724.929	30.86
725.112	31.05
725.296	31.08
725.479	31.05
725.662	30.97
725.845	30.82
726.028	30.88
726.211	30.78
726.394	30.69
726.577	30.52
726.76	30.46
726.943	30.44
727.126	30.31
727.309	30.59
727.492	30.66
727.675	30.8
727.858	30.77
728.041	30.74
728.224	30.91
728.407	30.78
728.589	30.9
728.772	30.96
728.955	31.08
729.138	31.15
729.321	30.84
729.503	30.8
729.686	30.72
729.869	30.76
730.052	30.88
730.234	30.84
730.417	31.06
730.6	31.05
730.782	30.96
730.965	31.02
731.148	31.03
731.33	31.03
731.513	31.11
731.695	31.09
731.878	30.96
732.061	30.68
732.243	30.74
732.426	30.44
732.608	30.55
732.791	30.76
732.973	30.6
733.156	30.7
733.338	30.67
733.52	30.59
733.703	30.68
733.885	31.01
734.068	31.17
734.25	31.19
734.432	31.46
734.615	31.32
734.797	31.14
734.979	31.13
735.162	30.97
735.344	31.07
735.526	31.2
735.708	30.84
735.891	30.81
736.073	30.71
736.255	30.49
736.437	30.33
736.619	30.44
736.802	30.61
736.984	30.51
737.166	30.74
737.348	30.58
737.53	30.51
737.712	30.59
737.894	30.51
738.076	30.52
738.258	30.57
738.44	30.67
738.622	30.58
738.804	30.48
738.986	30.43
739.168	30.09
739.35	30.28
739.532	30.28
739.714	30.71
739.896	30.81
740.078	30.98
740.259	30.94
740.441	30.86
740.623	30.92
740.805	30.95
740.987	31.03
741.168	30.94
741.35	30.82
741.532	30.71
741.714	30.2
741.895	30.04
742.077	30.04
742.259	29.96
742.44	29.91
742.622	30.05
742.804	29.83
742.985	29.97
743.167	30.15
743.348	30.14
743.53	30.07
743.711	30.4
743.893	30.57
744.075	30.12
744.256	30.08
744.438	30.39
744.619	30.18
744.8	30.6
744.982	30.56
745.163	30.27
745.345	30.28
745.526	30.47
745.707	30.19
745.889	29.89
746.07	30.22
746.252	30.81
746.433	30.49
746.614	30.35
746.795	29.9
746.977	29.91
747.158	30.18
747.339	30.34
747.52	30.43
747.702	30.23
747.883	30.25
748.064	30.4
748.245	29.86
748.426	29.74
748.607	29.82
748.788	29.89
748.97	29.77
749.151	29.52
749.332	29.47
749.513	29.44
749.694	30.02
749.875	30.37
750.056	30.3
750.237	30.33
750.418	30.41
750.599	30.71
750.78	31.15
750.96	31.36
751.141	31.58
751.322	31.4
751.503	31.54
751.684	31.16
751.865	30.75
752.046	30.5
752.226	30.56
752.407	30.74
752.588	30.72
752.769	30.68
752.949	30.42
753.13	30.4
753.311	30.61
753.492	30.27
753.672	30.6
753.853	30.87
754.034	31
754.214	31.2
754.395	31.28
754.575	31.22
754.756	31.06
754.937	31.03
755.117	31.12
755.298	31.32
755.478	31.33
755.659	31.22
755.839	30.99
756.02	31.24
756.2	31.06
756.381	30.78
756.561	30.88
756.741	31.05
756.922	31.34
757.102	31.17
757.283	31.22
757.463	31.03
757.643	31.05
757.823	31.12
758.004	30.85
758.184	30.61
758.364	30.99
758.545	30.72
758.725	30.57
758.905	30.47
759.085	30.52
759.265	30.04
759.446	30.35
759.626	30.14
759.806	30.02
759.986	30.06
760.166	30.4
760.346	30.29
760.526	30.12
760.706	30.22
760.886	29.88
761.066	30.06
761.246	30.13
761.426	30.07
761.606	29.89
761.786	29.82
761.966	29.79
762.146	29.66
762.326	29.61
762.506	29.78
762.686	29.75
762.866	29.96
763.046	29.66
763.225	29.65
763.405	29.54
763.585	29.62
763.765	29.68
763.945	29.56
764.124	29.67
764.304	29.86
764.484	29.77
764.664	29.75
764.843	29.71
765.023	29.88
765.203	29.99
765.382	29.98
765.562	30.04
765.741	29.98
765.921	30.15
766.101	30.01
766.28	29.9
766.46	30.11
766.639	30.08
766.819	30.26
766.998	30.28
767.178	30.13
767.357	30.18
767.537	30.47
767.716	30.95
767.896	30.68
768.075	30.91
768.254	30.58
768.434	30.75
768.613	30.81
768.792	30.7
768.972	31.08
769.151	30.91
769.33	30.85
769.51	31.13
769.689	30.76
769.868	31.28
770.047	31.59
770.226	32
770.406	31.65
770.585	31.49
770.764	31.7
770.943	31.4
771.122	31.38
771.301	31.97
771.48	31.56
771.66	31.58
771.839	31.33
772.018	30.76
772.197	30.55
772.376	30.81
772.555	30.93
772.734	30.52
772.913	30.59
773.092	30.9
773.271	30.19
773.449	30.38
773.628	30.85
773.807	30.73
773.986	30.87
774.165	30.68
774.344	30.68
774.523	30.48
774.701	30.37
774.88	30.51
775.059	30.1
775.238	30.68
775.417	30.47
775.595	30.04
775.774	30.07
775.953	29.49
776.131	29.55
776.31	29.36
776.489	29.28
776.667	29.73
776.846	29.24
777.025	29.85
777.203	29.44
777.382	29.57
777.56	29.24
777.739	29.42
777.917	29.88
778.096	29.77
778.274	29.87
778.453	30.63
778.631	30.55
778.81	30.9
778.988	30.65
779.166	30.66
779.345	30.43
779.523	31.17
779.702	31.77
779.88	32.07
780.058	32.02
780.237	31.88
780.415	31.27
780.593	31.17
780.771	31.29
780.95	31.71
781.128	31.77
781.306	32.1
781.484	31.76
781.662	30.66
781.841	30.65
782.019	30.78
782.197	30.85
782.375	30.57
782.553	30.81
782.731	30.48
782.909	30.29
783.087	30.96
783.265	31.23
783.443	30.95
783.621	31.55
783.799	31.57
783.977	31.82
784.155	31.31
784.333	32.46
784.511	32.01
784.689	31.98
784.867	31.75
785.045	31.14
785.223	30.3
785.4	30.2
785.578	29.66
785.756	29.33
785.934	29.04
786.112	29.85
786.289	29.54
786.467	29.84
786.645	29.65
786.823	29.87
787	29.92
787.178	29.96
787.356	30.35
787.533	30.61
787.711	30.6
787.889	30.8
788.066	30.4
788.244	29.96
788.421	29.95
788.599	30.03
788.776	29.97
788.954	29.86
789.131	30.08
789.309	30.01
789.486	30.37
789.664	30.47
789.841	30.48
790.019	31.03
790.196	31.43
790.373	31.33
790.551	31.8
790.728	31.58
790.906	32.04
791.083	32.13
791.26	32.26
791.437	32.08
791.615	32.44
791.792	32.37
791.969	31.83
792.146	31.36
792.324	31.53
792.501	31.26
792.678	31.25
792.855	30.59
793.032	30.84
793.209	30.69
793.387	30.75
793.564	30.75
793.741	30.88
793.918	31.22
794.095	31.06
794.272	30.62
794.449	30.46
794.626	31.05
794.803	31.69
794.98	31.32
795.157	31.6
795.334	31.34
795.511	31.19
795.688	31.59
795.864	31.14
796.041	31.58
796.218	31.95
796.395	32.41
796.572	31.83
796.749	31.33
796.925	31.44
797.102	31.51
797.279	31.46
797.456	31.02
797.632	30.92
797.809	31.22
797.986	31.23
798.162	31.13
798.339	30.61
798.516	31.1
798.692	31.44
798.869	31.09
799.046	30.65
799.222	30.95
799.399	31.26
799.575	30.8
799.752	30.62
799.928	30.68
800.105	30.87
800.281	31.09
800.458	31.16
800.634	30.54
800.811	31.42
800.987	31.56
801.163	30.79
801.34	30.99
801.516	31.45
801.692	31.89
801.869	32.28
802.045	32.28
802.221	32.18
802.398	31.46
802.574	32.11
802.75	31.78
802.926	32.19
803.103	33.49
803.279	33.37
803.455	33.34
803.631	32.84
803.807	32.47
803.983	32.78
804.16	33.3
804.336	33.33
804.512	32.97
804.688	32.96
804.864	32.82
805.04	32.09
805.216	32.89
805.392	33.03
805.568	33.58
805.744	33.86
805.92	34.3
806.096	33.97
806.272	34.91
806.448	35.7
806.623	35.82
806.799	35.43
806.975	35.62
807.151	34.5
807.327	33.78
807.503	33.51
807.678	33.49
807.854	32.74
808.03	32.53
808.206	32.05
808.381	31.47
808.557	31.58
808.733	31.63
808.908	31.1
809.084	31.74
809.26	31.91
809.435	32.31
809.611	32.01
809.787	31.95
809.962	32.42
810.138	32.6
810.313	32.35
810.489	32.04
810.664	32.86
810.84	33.19
811.015	33.32
811.191	33.39
811.366	33.41
811.542	33.6
811.717	33.85
811.892	34.35
812.068	34.42
812.243	35.13
812.419	34.78
812.594	33.76
812.769	33.87
812.944	33.51
813.12	33.3
813.295	32.62
813.47	32.53
813.645	32.61
813.821	31.91
813.996	32.45
814.171	32.58
814.346	32.31
814.521	32.86
814.697	34.15
814.872	34.1
815.047	34.69
815.222	35.26
815.397	34.43
815.572	34.36
815.747	34.2
815.922	34.01
816.097	33.98
816.272	35.41
816.447	35.19
816.622	33.97
816.797	33.79
816.972	33.46
817.147	33.26
817.322	33.76
817.496	33.56
817.671	33.85
817.846	33.28
818.021	32.89
818.196	32.42
818.371	32.38
818.545	32.04
818.72	32.26
818.895	32.26
819.069	31.94
819.244	32.04
819.419	31.93
819.594	31.59
819.768	31.23
819.943	30.77
820.117	30.27
820.292	29.73
820.467	29.78
820.641	29.52
820.816	29.52
820.99	29.36
821.165	29.18
821.339	29.21
821.514	29.2
821.688	29.07
821.863	28.96
822.037	28.84
822.212	28.93
822.386	28.84
822.56	28.78
822.735	28.73
822.909	28.81
823.084	28.87
823.258	28.81
823.432	28.76
823.606	28.91
823.781	29.05
823.955	29.19
824.129	29.24
824.303	29.18
824.478	29.18
824.652	29.05
824.826	28.99
825	28.95
825.174	28.67
825.348	28.38
825.523	28.25
825.697	28.34
825.871	28.32
826.045	28.62
826.219	28.72
826.393	29.03
826.567	29.11
826.741	29.36
826.915	29.34
827.089	29.59
827.263	29.83
827.437	30.12
827.611	30.21
827.784	30.31
827.958	30.01
828.132	30.08
828.306	29.9
828.48	30.04
828.654	29.89
828.827	29.81
829.001	29.6
829.175	29.73
829.349	29.75
829.522	29.89
829.696	30.36
829.87	30.94
830.044	31.65
830.217	32.36
830.391	32.54
830.565	32.26
830.738	33.47
830.912	33.08
831.085	33.09
831.259	33.15
831.432	32.97
831.606	32.95
831.779	32.26
831.953	31.69
832.126	31.12
832.3	30.62
832.473	30.76
832.647	29.77
832.82	30.06
832.994	30.26
833.167	30.17
833.34	30.23
833.514	30
833.687	30.21
833.86	30.84
834.034	30.97
834.207	31.12
834.38	30.96
834.553	31.52
834.727	31.54
834.9	31.4
835.073	31.12
835.246	31.04
835.419	31.38
835.593	31.06
835.766	30.2
835.939	30.73
836.112	31.24
836.285	31.87
836.458	32.43
836.631	33.18
836.804	33.62
836.977	33.82
837.15	34.21
837.323	34.05
837.496	34.39
837.669	33.6
837.842	32.54
838.015	31.85
838.188	31.64
838.361	30.16
838.533	29.14
838.706	29.08
838.879	29.92
839.052	29.57
839.225	29.64
839.398	30.27
839.57	30.82
839.743	30.9
839.916	30.41
840.088	30.68
840.261	31.97
840.434	32.54
840.607	32.16
840.779	33.15
840.952	33.51
841.124	34.06
841.297	35.09
841.47	36.52
841.642	37.39
841.815	38.99
841.987	38.34
842.16	37.49
842.332	38.19
842.505	39.98
842.677	38.93
842.85	38.65
843.022	39.65
843.194	38.26
843.367	38.03
843.539	35.9
843.712	35.66
843.884	37.12
844.056	38.69
844.229	39.04
844.401	39.03
844.573	38.33
844.745	38.98
844.918	36.79
845.09	36.7
845.262	34.83
845.434	36.8
845.606	35.99
845.779	36.76
845.951	35.87
846.123	35.45
846.295	34.29
846.467	35.1
846.639	36.55
846.811	37.37
846.983	38.17
847.155	39.48
847.327	40.09
847.499	41.91
847.671	39.99
847.843	40.2
848.015	40.35
848.187	40.27
848.359	39.31
848.531	38.31
848.703	36.93
848.875	36.01
849.047	34.74
849.218	35.12
849.39	33.42
849.562	34.11
849.734	33.94
849.905	35.35
850.077	34.91
850.249	36.67
850.421	35.32
850.592	35.57
850.764	36.05
850.936	38.16
851.107	37.24
851.279	38.57
851.451	38.52
851.622	39.11
851.794	37.44
851.965	38.56
852.137	38.62
852.308	39.21
852.48	41.72
852.651	40.83
852.823	40.79
852.994	41.26
853.166	42.22
853.337	43.67
853.509	42.15
853.68	42.75
853.851	43.47
854.023	41.98
854.194	43.72
854.365	43.87
854.537	44.96
854.708	43.58
854.879	44.03
855.05	42.16
855.222	40.63
855.393	40.91
855.564	40.11
855.735	38.79
855.906	38.9
856.078	36.52
856.249	36.06
856.42	37.15
856.591	38.9
856.762	38.49
856.933	39.74
857.104	40.43
857.275	41.55
857.446	41.67
857.617	41.82
857.788	43.28
857.959	43.31
858.13	42.57
858.301	42.39
858.472	40.77
858.643	41.75
858.814	41.95
858.985	41.86
859.155	40.91
859.326	41.35
859.497	41.57
859.668	39.7
859.839	43.24
860.009	43.09
860.18	42.66
860.351	44.24
860.522	43.26
860.692	41.51
860.863	41.74
861.034	42.43
861.204	42.06
861.375	42.83
861.546	42.98
861.716	40.77
861.887	42.91
862.057	42.25
862.228	40.45
862.398	39.69
862.569	41.5
862.739	41.43
862.91	42.32
863.08	42.96
863.251	42.38
863.421	42.64
863.592	43.15
863.762	41.59
863.932	40.83
864.103	41.38
864.273	43.34
864.443	42.41
864.614	43.08
864.784	43.84
864.954	43.61
865.125	45.18
865.295	46.84
865.465	47.24
865.635	46.52
865.805	47.84
865.976	50.59
866.146	49.93
866.316	50.6
866.486	52.27
866.656	50.68
866.826	49.02
866.996	46.41
867.166	45.23
867.336	44.17
867.506	45.35
867.676	46.6
867.846	44.5
868.016	43.8
868.186	43.4
868.356	40.98
868.526	39.94
868.696	43.83
868.866	43.92
869.036	44.05
869.206	43.53
869.376	42.47
869.545	40.06
869.715	40.4
869.885	38.39
870.055	37.25
870.224	38.24
870.394	39.02
870.564	37.5
870.734	40.42
870.903	41.36
871.073	41.78
871.243	43.03
871.412	44.01
871.582	42.94
871.751	43.49
871.921	45.43
872.091	41.05
872.26	41.71
872.43	38.08
872.599	38.14
872.769	36.94
872.938	38.58
873.108	38.45
873.277	37.86
873.446	36.87
873.616	35.53
873.785	36.3
873.955	39.31
874.124	39.95
874.293	42.61
874.463	41.13
874.632	41.77
874.801	41.13
874.971	40.96
875.14	40.07
875.309	39.87
875.478	41.37
875.647	38.52
875.817	38.06
875.986	37.39
876.155	38.31
876.324	38.66
876.493	39.65
876.662	39.7
876.831	38.9
877	41.05
877.17	42.79
877.339	43.11
877.508	44.76
877.677	47.29
877.846	46.24
878.015	46.42
878.184	44.86
878.352	42.6
878.521	41.38
878.69	41.89
878.859	40.25
879.028	38.92
879.197	39.33
879.366	38.11
879.534	36.61
879.703	34.84
879.872	34.15
880.041	34.04
880.21	32.99
880.378	32.48
880.547	31.52
880.716	31.27
880.884	30.35
881.053	29.61
881.222	29.18
881.39	28.78
881.559	29.06
881.727	29.1
881.896	28.89
882.065	29.18
882.233	29.14
882.402	29.42
882.57	29.49
882.739	29.75
882.907	29.86
883.076	29.94
883.244	30.3
883.412	30.43
883.581	30.32
883.749	30.51
883.918	30.45
884.086	31.23
884.254	31.31
884.423	31.89
884.591	32.4
884.759	33.21
884.927	33.89
885.096	34.5
885.264	35.74
885.432	37.38
885.6	37.74
885.769	37.93
885.937	37.71
886.105	38.63
886.273	38.85
886.441	38.81
886.609	40.08
886.777	40.67
886.945	39.7
887.113	38.91
887.281	36.93
887.449	38.52
887.617	40.09
887.785	38.99
887.953	38.62
888.121	37.11
888.289	38.38
888.457	36.11
888.625	35.69
888.793	38.1
888.961	37.28
889.129	39.44
889.296	39.03
889.464	38.67
889.632	40.45
889.8	39.81
889.967	41.4
890.135	43.9
