Data from JASIL_3085_Reflection_01.txt Node
Date: Mon Nov 09 12:03:49 EST 2015
User: Geneva
Spectrometer: USB4E03002
Autoset integration time: false
Trigger mode: 4
Integration Time (sec): 1.000000E-1
Scans to average: 10
Electric dark correction enabled: false
Nonlinearity correction enabled: false
Boxcar width: 5
Stray light correction enabled: false
XAxis mode: Wavelengths
Stop averaging: false
Number of Pixels in Spectrum: 3648
>>>>>Begin Spectral Data<<<<<
177.575	403.15
177.794	-2268.42
178.014	1108.16
178.233	368.79
178.452	501.45
178.672	464.71
178.891	382.24
179.11	863.54
179.33	427.93
179.549	228.01
179.768	351.04
179.987	187.23
180.207	141.4
180.426	139.7
180.645	192.51
180.864	154.59
181.084	149.22
181.303	112.8
181.522	87.6
181.741	990.91
181.96	-142.11
182.179	-266.15
182.398	-70.74
182.618	-32.79
182.837	-77.73
183.056	-52.91
183.275	8.33
183.494	11.59
183.713	1400
183.932	1036.36
184.151	91.5
184.37	30.08
184.589	22.08
184.808	20.48
185.027	44.43
185.246	65.29
185.465	101.7
185.684	165.92
185.903	550
186.122	584.91
186.341	418.6
186.56	878.95
186.779	-239.44
186.998	-520.22
187.216	-1556
187.435	-179.71
187.654	4942.86
187.873	507.84
188.092	417
188.311	242.98
188.53	259.48
188.748	240.91
188.967	190.19
189.186	168.71
189.405	171.93
189.623	185.61
189.842	212.02
190.061	297.67
190.28	350.69
190.498	996.97
190.717	420.3
190.936	230
191.154	205.51
191.373	237.39
191.592	312.59
191.81	505.75
192.029	195.07
192.248	154.99
192.466	131.93
192.685	109.93
192.904	92.15
193.122	110.86
193.341	123.9
193.559	126.72
193.778	159.61
193.996	219.91
194.215	285.99
194.433	417.8
194.652	353.2
194.87	338.22
195.089	415.94
195.307	955.67
195.526	1470.37
195.744	2185.71
195.963	592.31
196.181	844.09
196.399	277.15
196.618	214.53
196.836	147.31
197.055	147.46
197.273	190.34
197.491	173.75
197.71	143.85
197.928	146.52
198.146	161.36
198.365	165.59
198.583	191.58
198.801	151.91
199.019	179.71
199.238	532.41
199.456	619.27
199.674	1352.08
199.892	-5109.09
200.111	-619.48
200.329	19733.33
200.547	300
200.765	164.41
200.983	162.71
201.202	248.86
201.42	203.85
201.638	173.72
201.856	152
202.074	134.6
202.292	147.69
202.51	141.32
202.728	146.17
202.946	176.59
203.165	185.07
203.383	185.16
203.601	163.6
203.819	145.01
204.037	140.61
204.255	195.19
204.473	229.56
204.691	189.74
204.909	225.5
205.127	178.24
205.345	178.79
205.562	205.74
205.78	162.15
205.998	148.71
206.216	204.19
206.434	173.29
206.652	131.31
206.87	125.64
207.088	112.29
207.306	101.69
207.523	89.08
207.741	100.78
207.959	551.52
208.177	-256.25
208.395	1156.25
208.612	3644.44
208.83	639.02
209.048	642.72
209.266	20766.67
209.483	-645.45
209.701	-240.55
209.919	-233.24
210.136	-423.39
210.354	1854.84
210.572	2164.71
210.79	-836.52
211.007	-1423.44
211.225	-394.71
211.442	-165.36
211.66	-261.24
211.878	-198.52
212.095	-825.81
212.313	494.87
212.53	684.85
212.748	-103.33
212.966	-371.43
213.183	741.67
213.401	107.69
213.618	114.93
213.836	207.48
214.053	176.69
214.271	0
214.488	9.81
214.705	11.14
214.923	-32.53
215.14	-85.65
215.358	-39.16
215.575	-51.55
215.793	-165.57
216.01	-364.89
216.227	-184.39
216.445	-195.9
216.662	-231.88
216.879	-339.1
217.097	-318.12
217.314	-398.21
217.531	642.05
217.749	1187.5
217.966	-2720
218.183	41500
218.4	-398.15
218.618	604.9
218.835	-1414.71
219.052	-247.29
219.269	-285.43
219.487	-402.84
219.704	-2772
219.921	-1213.64
220.138	985.96
220.355	2187.1
220.572	588.73
220.79	352.88
221.007	389.16
221.224	354.52
221.441	298.07
221.658	236.6
221.875	201.97
222.092	243.92
222.309	253.83
222.526	189.38
222.743	137.05
222.96	132.53
223.177	127.04
223.394	121.26
223.611	110.57
223.828	105.93
224.045	93.53
224.262	72.89
224.479	83.67
224.696	59.4
224.913	86.42
225.13	63.99
225.347	78.28
225.564	56.77
225.781	47.41
225.997	37.96
226.214	38.51
226.431	45.07
226.648	44.86
226.865	32.51
227.082	30.34
227.298	21.43
227.515	24.62
227.732	19.64
227.949	22.88
228.165	16.88
228.382	24.09
228.599	25.12
228.816	23.49
229.032	22.19
229.249	22.68
229.466	30.45
229.682	35.83
229.899	36.7
230.116	42.26
230.332	40.59
230.549	48.64
230.765	45.95
230.982	45.44
231.199	43.6
231.415	65.44
231.632	73.24
231.848	70.89
232.065	81.68
232.281	82.06
232.498	66.86
232.714	65.9
232.931	57.44
233.147	55.58
233.364	56.77
233.58	59.5
233.797	40.81
234.013	38.36
234.23	42.74
234.446	41.36
234.662	34.45
234.879	33.21
235.095	24.36
235.312	26.17
235.528	38.19
235.744	32.48
235.961	26.87
236.177	40.36
236.393	34.09
236.61	29.81
236.826	27.92
237.042	37.89
237.258	36.05
237.475	42.49
237.691	50.87
237.907	37.8
238.123	35.22
238.339	40.45
238.556	36.66
238.772	33.15
238.988	33.58
239.204	28.25
239.42	26.02
239.636	31.33
239.853	27.19
240.069	22.36
240.285	16.9
240.501	16.39
240.717	15.04
240.933	15.95
241.149	16.32
241.365	12.83
241.581	13.77
241.797	12.54
242.013	12.2
242.229	18.54
242.445	20.52
242.661	27.55
242.877	30.73
243.093	31.17
243.309	34.14
243.525	37.43
243.741	41.53
243.957	41.54
244.173	37.24
244.388	32.18
244.604	20.53
244.82	22.7
245.036	19.3
245.252	19.69
245.468	16.71
245.683	14.02
245.899	14.97
246.115	15.55
246.331	15.83
246.547	16.1
246.762	15.51
246.978	17.94
247.194	16.16
247.409	13.27
247.625	12.4
247.841	14.27
248.057	16.87
248.272	14.93
248.488	7.56
248.703	2.98
248.919	11.92
249.135	18.76
249.35	13.08
249.566	13.44
249.782	20.72
249.997	16.32
250.213	16.7
250.428	15.25
250.644	12.11
250.859	17.75
251.075	21.45
251.29	17.58
251.506	15.44
251.721	18.7
251.937	17.07
252.152	21.18
252.368	24.75
252.583	27.77
252.798	25.22
253.014	33.29
253.229	34.52
253.445	30.66
253.66	23.44
253.875	21.58
254.091	24.69
254.306	26.92
254.521	21.77
254.737	21.26
254.952	22.12
255.167	26.08
255.383	18.27
255.598	17.8
255.813	24.31
256.028	28.57
256.244	27.13
256.459	22.71
256.674	20.56
256.889	20.07
257.104	20.87
257.32	15.99
257.535	15.9
257.75	12.74
257.965	11.97
258.18	7.82
258.395	5.44
258.61	6.43
258.826	6.17
259.041	7.53
259.256	6.4
259.471	4.74
259.686	5.59
259.901	4.14
260.116	7.49
260.331	6.26
260.546	7.13
260.761	11.45
260.976	7.09
261.191	9.27
261.406	9.25
261.621	11.78
261.836	16.18
262.05	13.94
262.265	16.48
262.48	22.33
262.695	24.56
262.91	28.39
263.125	30.6
263.34	36.07
263.555	32.44
263.769	32.44
263.984	32.38
264.199	28.43
264.414	25.21
264.629	20.45
264.843	14.24
265.058	14.45
265.273	15.24
265.488	10.58
265.702	11.53
265.917	12.81
266.132	11.25
266.346	10.18
266.561	10.81
266.776	14.88
266.99	14.67
267.205	16.17
267.42	16.36
267.634	13.52
267.849	15.81
268.063	12.78
268.278	12.82
268.492	9.61
268.707	11.66
268.922	12.84
269.136	7.29
269.351	11.66
269.565	11.88
269.78	11.43
269.994	12.26
270.209	10.78
270.423	17.37
270.637	16.08
270.852	15.38
271.066	14.56
271.281	14.97
271.495	17.36
271.709	14.05
271.924	11.43
272.138	12.02
272.353	13.7
272.567	13.47
272.781	7.65
272.996	8.86
273.21	13.6
273.424	11.95
273.638	12.29
273.853	14.02
274.067	16.61
274.281	20.17
274.495	19.1
274.71	17.71
274.924	18.31
275.138	19.6
275.352	15.72
275.566	12.7
275.781	11.64
275.995	11.4
276.209	9.09
276.423	8.84
276.637	7.47
276.851	4.79
277.065	7.11
277.279	7.11
277.493	6.64
277.707	9.92
277.921	7.47
278.135	11.25
278.349	11.94
278.563	13.23
278.777	13.36
278.991	11.55
279.205	15.93
279.419	11.25
279.633	8.01
279.847	8.23
280.061	10.53
280.275	14.47
280.489	14.57
280.703	9.39
280.917	12.29
281.131	12.42
281.344	12.63
281.558	9.16
281.772	9.88
281.986	12.91
282.2	11.12
282.414	9.44
282.627	6.37
282.841	4.01
283.055	4.2
283.269	1.32
283.482	0.46
283.696	3.22
283.91	6.91
284.123	6.3
284.337	3.98
284.551	4.68
284.764	5.36
284.978	7.93
285.192	6.56
285.405	9.29
285.619	6.83
285.833	9.45
286.046	8.17
286.26	5.61
286.473	6.68
286.687	10.48
286.9	13.49
287.114	12.59
287.327	10.81
287.541	12.74
287.754	13.72
287.968	16.24
288.181	11.78
288.395	11.02
288.608	12.68
288.822	12.23
289.035	10.73
289.248	8.28
289.462	7.11
289.675	7.65
289.889	5.88
290.102	5.43
290.315	5.14
290.529	6.77
290.742	7.65
290.955	7.3
291.169	9.79
291.382	10.74
291.595	9.8
291.808	10.57
292.022	9.87
292.235	12.83
292.448	10.99
292.661	10.24
292.875	11.27
293.088	10.49
293.301	10.15
293.514	8.85
293.727	9.15
293.94	8.58
294.153	8.89
294.367	9.84
294.58	9.2
294.793	10.28
295.006	8.42
295.219	7.19
295.432	8.31
295.645	9.01
295.858	8.65
296.071	8.68
296.284	10.3
296.497	12.25
296.71	13.41
296.923	12.82
297.136	13.51
297.349	15.8
297.562	16.19
297.775	13.95
297.988	16.22
298.201	16.36
298.414	16.41
298.626	16.33
298.839	15.8
299.052	14.51
299.265	14.66
299.478	13.54
299.691	12.5
299.903	14.21
300.116	15.35
300.329	11.52
300.542	12.78
300.755	12.76
300.967	12.19
301.18	10.27
301.393	9.02
301.605	9.18
301.818	9.74
302.031	8.8
302.243	8.28
302.456	9.99
302.669	10.68
302.881	9.23
303.094	6.85
303.307	8.13
303.519	9.83
303.732	8.93
303.944	9.19
304.157	9.99
304.37	11.36
304.582	9.22
304.795	9.17
305.007	5.83
305.22	7.12
305.432	9.15
305.645	9.06
305.857	7.52
306.069	10.23
306.282	10.46
306.494	10.25
306.707	7.4
306.919	7.66
307.132	6.19
307.344	9.58
307.556	9.94
307.769	8.58
307.981	7.47
308.193	6.91
308.406	7.35
308.618	7.5
308.83	5.56
309.043	7
309.255	8.29
309.467	7.41
309.679	7.24
309.892	7.51
310.104	9.6
310.316	9.77
310.528	9.38
310.74	8.68
310.953	8.74
311.165	10.92
311.377	11.72
311.589	13.29
311.801	13.28
312.013	12.9
312.225	11.32
312.437	8.2
312.649	10.16
312.862	10.93
313.074	10.18
313.286	8.99
313.498	6.5
313.71	8.04
313.922	7.54
314.134	10.02
314.346	10.57
314.558	11.15
314.77	12.74
314.982	10.02
315.193	8.44
315.405	7.1
315.617	9.23
315.829	9.55
316.041	11.78
316.253	11.78
316.465	11.48
316.677	12.08
316.888	10.77
317.1	13.46
317.312	14.04
317.524	12.79
317.736	14.23
317.947	14.21
318.159	13.42
318.371	7.74
318.583	8.46
318.794	8.84
319.006	10.02
319.218	12.93
319.43	12.04
319.641	13.11
319.853	18.72
320.064	21.72
320.276	20.85
320.488	21.34
320.699	25.75
320.911	23.6
321.123	23.33
321.334	22.24
321.546	22.11
321.757	21.61
321.969	20.6
322.18	19.63
322.392	19.58
322.603	17.3
322.815	17.8
323.026	18.04
323.238	19.97
323.449	18.1
323.661	18.46
323.872	16.81
324.083	16.99
324.295	16.87
324.506	17.07
324.718	15.53
324.929	17.38
325.14	18.86
325.352	16.3
325.563	15.71
325.774	19.59
325.986	18.94
326.197	19.42
326.408	21.47
326.62	21.9
326.831	21.5
327.042	21.61
327.253	21.61
327.464	20.75
327.676	25.76
327.887	24.87
328.098	23.64
328.309	22.9
328.52	23.64
328.732	17.56
328.943	19.49
329.154	19.11
329.365	19.53
329.576	17.9
329.787	17.57
329.998	14
330.209	15.19
330.42	15.18
330.631	17.29
330.842	17.75
331.053	21.3
331.264	20.46
331.475	20.77
331.686	22.36
331.897	24.99
332.108	25.22
332.319	24.74
332.53	23.16
332.741	23.2
332.952	23.05
333.163	25.53
333.374	27.77
333.585	26.38
333.795	27.21
334.006	26.11
334.217	26.59
334.428	27.61
334.639	28.6
334.849	30.36
335.06	27.19
335.271	27.94
335.482	25.5
335.692	23.07
335.903	24.86
336.114	25.29
336.325	25.44
336.535	24.12
336.746	24.23
336.957	23.67
337.167	22.16
337.378	25.71
337.589	23.53
337.799	24.49
338.01	24.31
338.22	23.09
338.431	21.32
338.642	19.13
338.852	18.54
339.063	17.24
339.273	16.06
339.484	17.45
339.694	19
339.905	18.65
340.115	19.57
340.326	20.23
340.536	19.99
340.746	21.12
340.957	21.86
341.167	21.95
341.378	21.98
341.588	23.97
341.799	25.14
342.009	25.34
342.219	26.97
342.43	24
342.64	23.03
342.85	22.63
343.061	21.96
343.271	23.4
343.481	27.07
343.691	27.89
343.902	26.97
344.112	23.99
344.322	22.35
344.532	21
344.743	22.22
344.953	23.91
345.163	26.27
345.373	27.3
345.583	26.26
345.793	21.64
346.004	21.18
346.214	21.78
346.424	24.02
346.634	24.24
346.844	27.48
347.054	28.44
347.264	26.07
347.474	25.4
347.684	22.44
347.894	21.62
348.104	23.32
348.314	22.92
348.524	20.48
348.734	20.37
348.944	19.47
349.154	18.51
349.364	17.78
349.574	18.96
349.784	17.93
349.994	19.07
350.204	20.6
350.413	21.34
350.623	21.09
350.833	23.06
351.043	22.6
351.253	23.44
351.463	23.16
351.672	23.08
351.882	24.02
352.092	25.4
352.302	25.57
352.511	25.85
352.721	24.02
352.931	22.79
353.141	22.42
353.35	20.88
353.56	21.02
353.77	19.85
353.979	20.08
354.189	18.94
354.399	16.78
354.608	17.46
354.818	18.03
355.027	20.12
355.237	21.44
355.447	22.86
355.656	23.52
355.866	23.79
356.075	24.53
356.285	25.57
356.494	27.12
356.704	28.53
356.913	27.85
357.123	26.85
357.332	23.81
357.542	20.79
357.751	18.77
357.96	18.61
358.17	18.9
358.379	18.54
358.589	17.61
358.798	16.75
359.007	16.22
359.217	17.05
359.426	17.54
359.635	21.15
359.845	24.05
360.054	23.9
360.263	23.75
360.472	22.14
360.682	21.99
360.891	22.37
361.1	21.14
361.309	20.33
361.519	19.76
361.728	20.14
361.937	17.9
362.146	18.53
362.355	18.49
362.564	19.43
362.774	19.84
362.983	21.35
363.192	20.7
363.401	21.98
363.61	23.62
363.819	25.65
364.028	24.68
364.237	24.83
364.446	23.55
364.655	24.1
364.864	23.13
365.073	23.43
365.282	21.28
365.491	20.21
365.7	19.6
365.909	19.5
366.118	18.11
366.327	19.02
366.536	20.34
366.745	19.46
366.954	20.42
367.162	22.05
367.371	21.05
367.58	22.12
367.789	23.46
367.998	23.23
368.207	22.74
368.415	22.42
368.624	20.85
368.833	20.31
369.042	20.39
369.25	19.48
369.459	19.2
369.668	21.58
369.877	22.08
370.085	20.77
370.294	21.24
370.503	21.58
370.711	22.74
370.92	24.18
371.129	24.98
371.337	25.46
371.546	24.45
371.754	25.11
371.963	24.67
372.171	24.69
372.38	25.95
372.589	26.97
372.797	26.83
373.006	25.89
373.214	25.01
373.423	24.94
373.631	25.35
373.84	26.07
374.048	25.1
374.256	24.83
374.465	23.49
374.673	24.4
374.882	22.81
375.09	21.74
375.298	20.28
375.507	21.23
375.715	20.93
375.923	22.46
376.132	22.69
376.34	21.91
376.548	21.83
376.757	22.49
376.965	23.34
377.173	24.94
377.381	26.09
377.59	27.31
377.798	27.29
378.006	25.85
378.214	24.51
378.423	24.37
378.631	25.16
378.839	24.89
379.047	24.81
379.255	22.2
379.463	20.89
379.671	20.86
379.879	21.83
380.088	21.72
380.296	23.02
380.504	22.73
380.712	23.21
380.92	21.89
381.128	21.84
381.336	21.1
381.544	20.82
381.752	19.95
381.96	20.36
382.168	18.82
382.376	18.58
382.584	18.08
382.791	17.85
382.999	16.75
383.207	18.17
383.415	18.09
383.623	18.22
383.831	19.1
384.039	19.83
384.247	19.35
384.454	19.03
384.662	19.85
384.87	20.51
385.078	20.73
385.285	20.51
385.493	20.46
385.701	20.23
385.909	20.78
386.116	21.56
386.324	22.9
386.532	22.51
386.739	23.1
386.947	22.23
387.155	22.73
387.362	23.8
387.57	24.87
387.778	25.08
387.985	25.21
388.193	25.26
388.4	23.55
388.608	22.43
388.816	22.57
389.023	23.57
389.231	23.1
389.438	22.46
389.646	22.91
389.853	21.74
390.061	21.81
390.268	22.57
390.475	22.05
390.683	22.71
390.89	22.22
391.098	21.98
391.305	21.04
391.512	21.59
391.72	22.59
391.927	21.63
392.135	22.54
392.342	22.24
392.549	22.11
392.756	21.29
392.964	21.43
393.171	21.78
393.378	21.33
393.586	22.18
393.793	21.85
394	20.8
394.207	20.21
394.414	20.85
394.622	20.71
394.829	19.72
395.036	20.49
395.243	20.51
395.45	20.32
395.657	21.62
395.864	20.55
396.072	20.05
396.279	19
396.486	20.5
396.693	19.99
396.9	19.9
397.107	21.16
397.314	21.89
397.521	21.44
397.728	20.86
397.935	20.88
398.142	21.6
398.349	22.61
398.556	23.86
398.763	23.29
398.97	23.42
399.177	23.93
399.383	23.17
399.59	22.65
399.797	22.94
400.004	25.14
400.211	24.91
400.418	24.86
400.625	24.21
400.831	24.3
401.038	23.86
401.245	25.32
401.452	24.93
401.658	25.1
401.865	25.44
402.072	25.21
402.279	24.14
402.485	24.08
402.692	22.94
402.899	23.19
403.105	22.28
403.312	22.76
403.519	20.79
403.725	21.07
403.932	21.28
404.138	21.78
404.345	22.14
404.552	22.74
404.758	23.13
404.965	24.33
405.171	24.67
405.378	25.7
405.584	25.83
405.791	26.12
405.997	26.08
406.204	26.15
406.41	25.33
406.617	25.35
406.823	25.26
407.029	25.16
407.236	24.87
407.442	24.55
407.649	23.71
407.855	22.72
408.061	23.84
408.268	23.91
408.474	24.53
408.68	25.39
408.887	25.51
409.093	24.91
409.299	24.17
409.505	24.43
409.712	24.72
409.918	24.53
410.124	25.43
410.33	25
410.537	24.47
410.743	24.14
410.949	23.69
411.155	23.66
411.361	23.65
411.567	24.58
411.773	25.67
411.98	25.93
412.186	26.64
412.392	25.66
412.598	26.35
412.804	26.44
413.01	26.05
413.216	25.8
413.422	26.88
413.628	27.13
413.834	27.32
414.04	26.2
414.246	25.28
414.452	25.06
414.658	25.39
414.864	24.05
415.07	25.48
415.275	25.56
415.481	25.75
415.687	24.64
415.893	24.69
416.099	23.99
416.305	23.48
416.511	23.7
416.716	24.52
416.922	24.65
417.128	25.39
417.334	24.47
417.539	24.65
417.745	24.95
417.951	24.85
418.157	24.46
418.362	24.15
418.568	24.13
418.774	23.56
418.979	22.86
419.185	22.53
419.391	21.48
419.596	21.88
419.802	21.26
420.008	21.32
420.213	21.52
420.419	21.69
420.624	21.84
420.83	22.07
421.035	23.04
421.241	22.9
421.446	23.16
421.652	24.1
421.857	23.56
422.063	23.47
422.268	23.09
422.474	22.55
422.679	22.86
422.885	22.78
423.09	22.57
423.295	22.01
423.501	21.84
423.706	21.87
423.911	21.27
424.117	21.63
424.322	21.81
424.527	21.92
424.733	22.52
424.938	21.9
425.143	22.53
425.349	23.04
425.554	23.14
425.759	24.14
425.964	24.06
426.169	24.65
426.375	24.17
426.58	24.47
426.785	24.77
426.99	24.86
427.195	24.84
427.4	24.9
427.605	24.95
427.811	25.38
428.016	24.74
428.221	25.07
428.426	25.04
428.631	25.3
428.836	25.59
429.041	25.13
429.246	25.06
429.451	25.28
429.656	25.12
429.861	24.82
430.066	24.29
430.271	24.25
430.476	24.55
430.681	24.47
430.886	24.6
431.09	23.85
431.295	24.43
431.5	24.66
431.705	24.89
431.91	24.49
432.115	24.48
432.32	24.31
432.524	24.47
432.729	24.46
432.934	24.91
433.139	24.81
433.343	25
433.548	24.67
433.753	25.03
433.958	25.14
434.162	24.91
434.367	24.35
434.572	24.82
434.776	24.9
434.981	24.98
435.186	24.62
435.39	25.26
435.595	25.65
435.799	25.69
436.004	25.21
436.209	25.2
436.413	25.24
436.618	25.73
436.822	25.72
437.027	26.05
437.231	25.43
437.436	25.59
437.64	25.08
437.845	25.05
438.049	24.98
438.253	24.73
438.458	24.8
438.662	25.77
438.867	25.8
439.071	25.63
439.275	25.08
439.48	25.83
439.684	25.81
439.888	25.71
440.093	25.72
440.297	25.67
440.501	25.81
440.706	25.39
440.91	24.79
441.114	24.63
441.318	24.78
441.523	25.24
441.727	24.5
441.931	24.57
442.135	24.49
442.339	25.02
442.543	24.71
442.748	24.39
442.952	24.88
443.156	24.85
443.36	24.77
443.564	24.75
443.768	24.56
443.972	24.88
444.176	24.78
444.38	25.17
444.584	24.39
444.788	24.26
444.992	24.35
445.196	24.34
445.4	24.49
445.604	24.55
445.808	24.52
446.012	24.36
446.216	23.79
446.42	23.81
446.624	23.44
446.828	23.92
447.032	23.96
447.235	24.01
447.439	23.6
447.643	23.6
447.847	23.84
448.051	23.56
448.254	23.85
448.458	24.44
448.662	24.3
448.866	24.36
449.069	24.19
449.273	24.33
449.477	24.2
449.681	24.96
449.884	24.99
450.088	24.83
450.292	24.95
450.495	24.6
450.699	24.28
450.902	23.95
451.106	23.98
451.31	24.34
451.513	25.17
451.717	25.38
451.92	25.16
452.124	24.6
452.327	24.35
452.531	24.53
452.734	23.91
452.938	24.06
453.141	23.87
453.345	24.29
453.548	23.85
453.752	23.18
453.955	23.52
454.158	23.87
454.362	24.41
454.565	24.83
454.769	24.73
454.972	24.91
455.175	24.63
455.379	25.5
455.582	25.27
455.785	25.31
455.988	24.94
456.192	24.38
456.395	23.28
456.598	23.28
456.801	22.88
457.005	23.46
457.208	24.02
457.411	24.09
457.614	23.12
457.817	22.8
458.021	22.71
458.224	22.9
458.427	23.07
458.63	23.47
458.833	23.34
459.036	23.68
459.239	23.05
459.442	23.04
459.645	22.96
459.848	23.43
460.051	23.4
460.254	23.38
460.457	23.01
460.66	22.68
460.863	22.52
461.066	22.51
461.269	22.32
461.472	23.04
461.675	23.4
461.878	24.15
462.081	24.54
462.284	25.06
462.486	25.37
462.689	25.72
462.892	26.3
463.095	26.77
463.298	26.84
463.5	27.13
463.703	26.83
463.906	26.57
464.109	26.15
464.311	25.84
464.514	25.45
464.717	25.06
464.92	25.73
465.122	25.02
465.325	24.54
465.528	24.56
465.73	23.55
465.933	23.1
466.135	22.97
466.338	23.26
466.541	23.52
466.743	23.92
466.946	23.56
467.148	23.4
467.351	24.58
467.553	25.05
467.756	25.02
467.958	26.21
468.161	26.81
468.363	27.53
468.566	27.1
468.768	27.16
468.971	27.27
469.173	27.94
469.375	27.89
469.578	27.38
469.78	26.96
469.983	26.75
470.185	26.51
470.387	26.07
470.59	25.43
470.792	24.88
470.994	24.81
471.196	24.46
471.399	24.19
471.601	23.77
471.803	23.69
472.005	22.8
472.208	22.9
472.41	22.92
472.612	23.25
472.814	23.33
473.016	23.97
473.218	23.79
473.421	24.22
473.623	24.62
473.825	24.97
474.027	25.27
474.229	26.08
474.431	26.04
474.633	25.86
474.835	26.46
475.037	26.22
475.239	26.12
475.441	26.12
475.643	26.04
475.845	25.84
476.047	25.71
476.249	25.21
476.451	25.56
476.653	25.34
476.855	25.27
477.057	24.79
477.258	25
477.46	25.09
477.662	24.87
477.864	25.32
478.066	25.09
478.268	24.83
478.469	25.41
478.671	25.18
478.873	24.94
479.075	24.55
479.276	24.23
479.478	24.48
479.68	24.15
479.882	24.01
480.083	23.53
480.285	24.04
480.487	24.27
480.688	23.89
480.89	23.87
481.091	24.13
481.293	24.4
481.495	24.23
481.696	23.75
481.898	23.68
482.099	23.62
482.301	23.35
482.502	23.18
482.704	23.27
482.905	23.24
483.107	23.29
483.308	23.26
483.51	23.2
483.711	23.14
483.913	23.36
484.114	23.55
484.315	23.56
484.517	23.61
484.718	23.53
484.92	23.49
485.121	23.32
485.322	23.2
485.524	23.04
485.725	22.8
485.926	23.02
486.127	22.81
486.329	22.73
486.53	22.85
486.731	22.87
486.932	23.18
487.134	23.2
487.335	23.4
487.536	23.45
487.737	23.66
487.938	23.9
488.139	24
488.341	24.04
488.542	23.93
488.743	24.01
488.944	24.13
489.145	24.05
489.346	24.02
489.547	23.94
489.748	23.73
489.949	23.71
490.15	23.58
490.351	23.32
490.552	23.42
490.753	23.6
490.954	23.53
491.155	23.54
491.356	23.41
491.557	23.38
491.758	23.51
491.959	23.86
492.159	24.11
492.36	24.23
492.561	24.56
492.762	24.56
492.963	24.71
493.164	25.16
493.364	25.74
493.565	26.14
493.766	26.08
493.967	25.79
494.167	25.65
494.368	25.43
494.569	25.65
494.769	25.78
494.97	25.74
495.171	25.47
495.371	25.15
495.572	24.94
495.773	24.74
495.973	25.14
496.174	25.78
496.375	26.11
496.575	26.42
496.776	26.71
496.976	26.51
497.177	27.09
497.377	27.45
497.578	27.72
497.778	27.21
497.979	27.03
498.179	26.9
498.38	26.22
498.58	25.93
498.78	25.86
498.981	25.55
499.181	25.75
499.382	25.71
499.582	25.68
499.782	25.25
499.983	25.44
500.183	25.67
500.383	25.74
500.584	26.24
500.784	26.63
500.984	26.73
501.184	26.69
501.385	26.65
501.585	26.56
501.785	26.56
501.985	27.04
502.185	27.29
502.386	27.56
502.586	27.51
502.786	27.41
502.986	27.08
503.186	27.1
503.386	27.7
503.586	27.64
503.786	27.42
503.987	27.56
504.187	27.9
504.387	28.08
504.587	27.92
504.787	28.33
504.987	28.41
505.187	28.63
505.387	28.51
505.587	27.55
505.786	27.73
505.986	27.8
506.186	27.61
506.386	27.4
506.586	27.85
506.786	28.14
506.986	27.97
507.186	27.57
507.386	27.79
507.585	27.73
507.785	28.4
507.985	28.49
508.185	28.41
508.384	28.75
508.584	28.82
508.784	28.18
508.984	27.91
509.183	27.61
509.383	27.69
509.583	27.41
509.782	27.58
509.982	27.55
510.182	28.01
510.381	28.39
510.581	27.92
510.781	28.02
510.98	28.37
511.18	28.47
511.379	28.53
511.579	28.67
511.778	28.59
511.978	28.4
512.177	28.38
512.377	27.93
512.576	28.08
512.776	28.06
512.975	28.21
513.175	28.94
513.374	28.87
513.573	28.88
513.773	29.23
513.972	29.16
514.172	29.6
514.371	30.04
514.57	30.5
514.77	30.23
514.969	30.74
515.168	30.24
515.367	29.61
515.567	29.56
515.766	29.72
515.965	29.6
516.164	29.79
516.364	29.55
516.563	29.08
516.762	28.63
516.961	28.56
517.16	28.41
517.359	28.71
517.559	28.35
517.758	28.57
517.957	28.58
518.156	28.44
518.355	28.78
518.554	29.03
518.753	28.94
518.952	28.91
519.151	29.18
519.35	29.15
519.549	29.19
519.748	29.57
519.947	29.51
520.146	29.69
520.345	30.11
520.544	30.39
520.743	30.68
520.942	31.2
521.141	31.52
521.339	31.55
521.538	31.6
521.737	31.5
521.936	31.62
522.135	31.97
522.333	31.95
522.532	32.02
522.731	31.88
522.93	31.43
523.129	31.21
523.327	30.94
523.526	31.13
523.725	31.07
523.923	31.29
524.122	31.06
524.321	30.83
524.519	30.78
524.718	30.52
524.917	30.17
525.115	29.86
525.314	29.8
525.512	29.85
525.711	29.58
525.909	29.61
526.108	29.68
526.306	29.69
526.505	29.46
526.703	29.5
526.902	29.64
527.1	29.82
527.299	29.99
527.497	29.94
527.696	29.87
527.894	29.77
528.092	29.75
528.291	29.67
528.489	29.7
528.688	29.92
528.886	30.14
529.084	30.33
529.283	30.13
529.481	30.38
529.679	30.53
529.877	31.03
530.076	31.5
530.274	31.71
530.472	31.76
530.67	32.11
530.869	31.85
531.067	31.68
531.265	31.53
531.463	31.68
531.661	31.55
531.859	31.57
532.057	31.62
532.255	31.49
532.454	31.38
532.652	31.58
532.85	31.26
533.048	31.4
533.246	31.55
533.444	31.74
533.642	31.97
533.84	32.14
534.038	32.25
534.236	32.08
534.434	32.18
534.632	32.58
534.83	32.21
535.027	32.47
535.225	32.74
535.423	32.84
535.621	32.74
535.819	32.57
536.017	32.23
536.215	32.44
536.412	32.52
536.61	32.65
536.808	32.82
537.006	33.14
537.203	33.44
537.401	33.4
537.599	33.44
537.797	33.59
537.994	34.12
538.192	34.66
538.39	34.9
538.587	34.91
538.785	34.84
538.983	34.61
539.18	34.62
539.378	34.54
539.575	35.04
539.773	34.76
539.97	34.83
540.168	34.49
540.366	34.5
540.563	34.45
540.761	34.43
540.958	34.59
541.155	34.77
541.353	34.61
541.55	34.6
541.748	34.31
541.945	34.6
542.143	34.76
542.34	35.03
542.537	35.04
542.735	35.16
542.932	35.6
543.129	35.44
543.327	35.55
543.524	36.04
543.721	36.41
543.919	36.62
544.116	37.18
544.313	36.92
544.51	36.99
544.708	37.21
544.905	37.56
545.102	37.54
545.299	38.08
545.496	38.27
545.693	38.4
545.891	38.83
546.088	38.93
546.285	38.51
546.482	39.32
546.679	39.73
546.876	39.8
547.073	39.43
547.27	39.64
547.467	39.61
547.664	39.68
547.861	40.15
548.058	39.84
548.255	40.36
548.452	40.49
548.649	40.3
548.846	40.2
549.043	40.37
549.24	40.73
549.437	40.97
549.633	40.84
549.83	40.59
550.027	40.17
550.224	40.57
550.421	40.96
550.618	41.51
550.814	40.96
551.011	40.99
551.208	41.17
551.405	41.29
551.601	41.47
551.798	41.63
551.995	42.07
552.191	42.62
552.388	42.87
552.585	42.57
552.781	42.44
552.978	42.86
553.175	43.17
553.371	43.54
553.568	43.77
553.764	43.34
553.961	43.75
554.157	43.57
554.354	43.88
554.55	43.35
554.747	43.37
554.943	43.25
555.14	44.38
555.336	44.1
555.533	44.51
555.729	44.75
555.926	45.29
556.122	45.08
556.318	45.24
556.515	44.71
556.711	44.77
556.907	44.57
557.104	44.73
557.3	43.58
557.496	44.35
557.693	43.55
557.889	43.71
558.085	43.44
558.281	44.12
558.478	44.63
558.674	44.91
558.87	45.37
559.066	45.82
559.262	45.69
559.459	46.01
559.655	45.45
559.851	45.9
560.047	45.51
560.243	46.3
560.439	45.77
560.635	45.46
560.831	45.41
561.027	45.56
561.223	45.55
561.419	45.35
561.615	45.45
561.811	46.53
562.007	47.03
562.203	47.46
562.399	46.68
562.595	47.23
562.791	47.25
562.987	47.67
563.183	47.48
563.379	47.83
563.575	48.31
563.771	48.55
563.966	47.83
564.162	47.32
564.358	47.34
564.554	47.7
564.75	47.46
564.945	47.75
565.141	47.6
565.337	47.68
565.533	47.14
565.728	47.35
565.924	47.13
566.12	47.69
566.315	47.6
566.511	47.45
566.707	47.79
566.902	47.64
567.098	47.45
567.293	47.48
567.489	47.28
567.684	47.62
567.88	47.58
568.076	47.79
568.271	48.18
568.467	48.35
568.662	47.76
568.858	47.5
569.053	47.74
569.248	47.71
569.444	47.74
569.639	48.44
569.835	48.74
570.03	48.14
570.225	48.19
570.421	47.57
570.616	47.48
570.812	48.44
571.007	48.22
571.202	48.18
571.397	48.4
571.593	48.62
571.788	47.98
571.983	47.59
572.178	48.53
572.374	48.87
572.569	48.14
572.764	48.14
572.959	47.81
573.154	47.77
573.35	47.98
573.545	47.8
573.74	47.4
573.935	47.77
574.13	48.19
574.325	47.76
574.52	47.29
574.715	47.67
574.91	48.4
575.105	48.48
575.3	48.17
575.495	47.99
575.69	48.53
575.885	48.87
576.08	48.88
576.275	48.48
576.47	48.38
576.665	48.34
576.86	48.54
577.055	48.82
577.25	48.73
577.444	50.02
577.639	50.77
577.834	50.22
578.029	50.57
578.224	51.14
578.418	51.58
578.613	52.7
578.808	53.56
579.003	53.81
579.197	52.44
579.392	52.39
579.587	51.6
579.781	51.36
579.976	52.09
580.171	51.28
580.365	50.79
580.56	50.88
580.755	49.95
580.949	49.55
581.144	50.1
581.338	51.25
581.533	52.6
581.727	53.03
581.922	52.76
582.116	52.9
582.311	53.02
582.505	53.87
582.7	53.77
582.894	54.08
583.089	55.01
583.283	54.59
583.478	54.53
583.672	53.72
583.866	53.55
584.061	53.69
584.255	53.82
584.449	54.67
584.644	54.55
584.838	54.64
585.032	55.02
585.226	53.95
585.421	54.5
585.615	54.4
585.809	54.16
586.003	53.91
586.198	54
586.392	53.28
586.586	53.01
586.78	52.2
586.974	53.02
587.168	52.61
587.363	53.14
587.557	52.77
587.751	52.42
587.945	52.23
588.139	52.53
588.333	52.66
588.527	52.65
588.721	52.17
588.915	52.55
589.109	51.93
589.303	52.74
589.497	53.12
589.691	53.47
589.885	54.09
590.079	54.57
590.273	54.59
590.466	54.05
590.66	54.12
590.854	54.56
591.048	54.4
591.242	54.48
591.436	53.75
591.629	52.74
591.823	52.28
592.017	51.81
592.211	51.27
592.404	51.02
592.598	51.6
592.792	52
592.986	52.14
593.179	51.68
593.373	51.18
593.567	51.8
593.76	52.46
593.954	52.63
594.147	52.9
594.341	52.73
594.535	53.51
594.728	53.06
594.922	53.03
595.115	52.45
595.309	53.04
595.502	53.51
595.696	53.1
595.889	53.39
596.083	53.43
596.276	53.82
596.47	54.72
596.663	54.46
596.856	54.64
597.05	54.56
597.243	54.41
597.437	54.21
597.63	53.75
597.823	53.39
598.017	53.81
598.21	53.2
598.403	53.42
598.596	52.68
598.79	52.51
598.983	52.77
599.176	53.08
599.369	53.97
599.563	53.87
599.756	54.59
599.949	55.77
600.142	54.46
600.335	55.71
600.528	55.34
600.722	55.73
600.915	56.23
601.108	55.91
601.301	55.68
601.494	55.23
601.687	55.51
601.88	55.36
602.073	54.24
602.266	54.69
602.459	53.82
602.652	53.41
602.845	53.38
603.038	53.48
603.231	53.74
603.424	53.82
603.617	54.38
603.809	54.71
604.002	54.84
604.195	56.03
604.388	55.56
604.581	55.91
604.774	56.56
604.966	56.63
605.159	56.41
605.352	56.3
605.545	56.73
605.737	56.6
605.93	56.63
606.123	56.79
606.316	56.54
606.508	57.69
606.701	58.04
606.894	57.48
607.086	57.48
607.279	57.35
607.471	56.6
607.664	56.28
607.857	56.54
608.049	56.73
608.242	56.71
608.434	56.52
608.627	55.45
608.819	55.81
609.012	56.91
609.204	56.78
609.397	57.55
609.589	58.6
609.782	59.37
609.974	59.16
610.166	58.57
610.359	58.91
610.551	59.07
610.743	59.5
610.936	59.16
611.128	58.26
611.32	59.43
611.513	58.94
611.705	59.19
611.897	58.23
612.09	58.38
612.282	59.02
612.474	58
612.666	58.04
612.858	59.53
613.051	59.86
613.243	60.72
613.435	61.07
613.627	60.89
613.819	61.19
614.011	61.57
614.203	61.6
614.395	61.35
614.588	62.34
614.78	62.96
614.972	61.73
615.164	61.72
615.356	59.88
615.548	59.3
615.74	59.64
615.932	59.88
616.124	60.19
616.315	60.21
616.507	61.65
616.699	61.7
616.891	60.98
617.083	61.64
617.275	61.56
617.467	62.95
617.659	63.85
617.85	62.83
618.042	62.89
618.234	62.78
618.426	63.17
618.618	62.86
618.809	62.7
619.001	62.09
619.193	62.83
619.384	62.44
619.576	61.8
619.768	61.13
619.959	61.46
620.151	60.76
620.343	61.3
620.534	62.1
620.726	61.47
620.917	61.09
621.109	62.08
621.301	60.66
621.492	61.31
621.684	62.35
621.875	62.58
622.067	63.41
622.258	63.79
622.45	63.28
622.641	61.78
622.832	61.24
623.024	61.59
623.215	60.78
623.407	61.03
623.598	61.29
623.789	60.45
623.981	58.39
624.172	58.33
624.363	57.67
624.555	57.48
624.746	57.59
624.937	57.47
625.129	57.47
625.32	58.52
625.511	58.94
625.702	58.61
625.893	58.21
626.085	59.42
626.276	60.31
626.467	60.51
626.658	60.82
626.849	61.74
627.04	61.37
627.231	61.39
627.422	61.66
627.614	61.41
627.805	61.2
627.996	61.9
628.187	62.29
628.378	61.31
628.569	61.64
628.76	61.79
628.951	61.41
629.142	62.33
629.332	63.2
629.523	62.22
629.714	61.4
629.905	61.9
630.096	62.24
630.287	60.98
630.478	59.91
630.669	59.11
630.859	58.4
631.05	58.44
631.241	58.02
631.432	57.51
631.623	57.47
631.813	58.36
632.004	57.97
632.195	56.79
632.385	57.73
632.576	58.18
632.767	59.59
632.957	59.83
633.148	59.73
633.339	59.18
633.529	58.73
633.72	60.08
633.91	59.94
634.101	59.89
634.292	60.46
634.482	60.73
634.673	60.98
634.863	60.39
635.054	60.61
635.244	61.21
635.435	62.18
635.625	62.46
635.815	62.37
636.006	63.43
636.196	63.24
636.387	63.79
636.577	65.08
636.767	66.03
636.958	66.28
637.148	66.19
637.338	66.45
637.529	66.41
637.719	66.48
637.909	65.65
638.099	64.75
638.29	64.57
638.48	64.96
638.67	63.53
638.86	63.37
639.05	63.8
639.241	65.11
639.431	64.47
639.621	65.17
639.811	66.04
640.001	66.79
640.191	65.13
640.381	66.45
640.571	65.96
640.761	65.77
640.951	65.88
641.141	65.49
641.331	64.72
641.521	63.78
641.711	64.17
641.901	64.49
642.091	63.96
642.281	66.63
642.471	67.08
642.661	68.17
642.851	68.3
643.041	68.04
643.231	68.61
643.42	68.29
643.61	69.38
643.8	68.81
643.99	67.99
644.18	66.73
644.369	66.2
644.559	66.3
644.749	65.9
644.939	66.3
645.128	65.54
645.318	64.87
645.508	65.7
645.697	65.99
645.887	65.51
646.076	64.37
646.266	65.22
646.456	63.95
646.645	62.51
646.835	62.37
647.024	62.13
647.214	62.94
647.403	63.24
647.593	62.17
647.782	62.7
647.972	63.42
648.161	65.55
648.351	63.95
648.54	64.89
648.73	65.3
648.919	65.6
649.108	66.24
649.298	66.26
649.487	66.3
649.677	67.15
649.866	67.06
650.055	67.08
650.244	66.34
650.434	68.54
650.623	67.8
650.812	68.15
651.002	67.61
651.191	67.47
651.38	68.78
651.569	67.64
651.758	66.83
651.947	66.65
652.137	67
652.326	66.72
652.515	66.52
652.704	66.62
652.893	66.67
653.082	66.68
653.271	66.39
653.46	64.83
653.649	66.56
653.838	66.23
654.027	65.48
654.216	64.74
654.405	64.86
654.594	65.06
654.783	66.07
654.972	65.37
655.161	67.2
655.35	66.24
655.539	67.15
655.728	65.6
655.916	66.22
656.105	66.24
656.294	65.31
656.483	65.33
656.672	64.57
656.86	64.22
657.049	64.29
657.238	62.02
657.427	62.68
657.615	61.73
657.804	61.63
657.993	61.85
658.181	61
658.37	62.06
658.559	62.02
658.747	63.18
658.936	63.49
659.125	63.19
659.313	63.74
659.502	64.27
659.69	64.98
659.879	65.76
660.067	66.06
660.256	66.86
660.444	66.73
660.633	66.7
660.821	66.64
661.01	67.47
661.198	69.14
661.387	69.11
661.575	69.11
661.763	68.98
661.952	69.53
662.14	69.71
662.328	70.44
662.517	70.42
662.705	71.38
662.893	70.92
663.082	70.12
663.27	70.1
663.458	70.76
663.646	70.2
663.834	70.58
664.023	70.37
664.211	69.46
664.399	70.44
664.587	70.58
664.775	68.61
664.963	69.7
665.152	70.11
665.34	68.14
665.528	68.97
665.716	69.63
665.904	69.86
666.092	69.72
666.28	70.73
666.468	70.99
666.656	71.2
666.844	73.11
667.032	72.45
667.22	71.93
667.408	73.68
667.596	72.03
667.784	72.17
667.971	71.6
668.159	71.37
668.347	71.11
668.535	70.91
668.723	70.63
668.911	70.27
669.098	69.3
669.286	67.89
669.474	67.06
669.662	68.47
669.849	68.66
670.037	68.46
670.225	69
670.413	68.69
670.6	68.17
670.788	68.56
670.976	67.43
671.163	68.71
671.351	71.46
671.538	70.7
671.726	70.48
671.913	70.05
672.101	70.55
672.289	70.37
672.476	71.24
672.664	71.47
672.851	72.93
673.039	74.09
673.226	74.87
673.413	73.24
673.601	73.82
673.788	74.1
673.976	74.02
674.163	74.75
674.35	74.61
674.538	72.67
674.725	72.73
674.912	70.14
675.1	68.77
675.287	68.65
675.474	69
675.662	69.55
675.849	68.72
676.036	68.31
676.223	68.54
676.411	68.18
676.598	68.94
676.785	67.96
676.972	68.39
677.159	68.95
677.346	67.21
677.533	67.24
677.721	66.47
677.908	65.62
678.095	66.16
678.282	66.17
678.469	66.35
678.656	68.01
678.843	69.12
679.03	68.54
679.217	68.37
679.404	68.25
679.591	67.38
679.778	68.34
679.964	69.89
680.151	69.8
680.338	68.47
680.525	67.94
680.712	67.8
680.899	66.49
681.086	66.4
681.272	66.89
681.459	66.58
681.646	68.26
681.833	67.65
682.02	67.04
682.206	66.4
682.393	67.42
682.58	67.85
682.766	66.77
682.953	67.44
683.14	68.73
683.326	69.34
683.513	70.33
683.7	69.7
683.886	69.46
684.073	68.87
684.259	70
684.446	69.02
684.632	69.95
684.819	69.06
685.005	70.37
685.192	69.05
685.378	69.82
685.565	69.3
685.751	69.52
685.938	71.23
686.124	71.36
686.31	69.7
686.497	70.46
686.683	69.95
686.87	70.55
687.056	69.12
687.242	70.27
687.429	69.2
687.615	70.18
687.801	70.14
687.987	70.02
688.174	70.07
688.36	71.64
688.546	72.12
688.732	72.54
688.918	71.63
689.105	71.06
689.291	70.01
689.477	70.78
689.663	69.55
689.849	67.32
690.035	65.97
690.221	67.79
690.407	67.46
690.593	66.8
690.779	66.07
690.965	67.12
691.151	70.04
691.337	71.62
691.523	70.09
691.709	69.79
691.895	72.07
692.081	71.74
692.267	70.53
692.453	69.95
692.639	70.1
692.825	72.09
693.011	73.43
693.196	71.49
693.382	70.96
693.568	70.97
693.754	72.89
693.94	72.74
694.125	73.86
694.311	73.56
694.497	75.23
694.682	75.08
694.868	73.62
695.054	71.1
695.239	70.72
695.425	70.05
695.611	69.15
695.796	67.7
695.982	67.67
696.168	68.67
696.353	67.53
696.539	65.36
696.724	64.09
696.91	62.77
697.095	63.62
697.281	62.64
697.466	62.85
697.652	63.94
697.837	64.91
698.023	64.69
698.208	63.68
698.393	65.16
698.579	65
698.764	65.27
698.949	66.04
699.135	65.74
699.32	67.42
699.505	67.28
699.691	68.02
699.876	67.56
700.061	68.65
700.246	69.46
700.432	68.56
700.617	71.38
700.802	73.17
700.987	75.34
701.172	75.96
701.358	76.7
701.543	76.85
701.728	76.15
701.913	76.96
702.098	76.98
702.283	75.99
702.468	77.73
702.653	75.65
702.838	76.82
703.023	77.18
703.208	78.76
703.393	78.75
703.578	79.69
703.763	79.65
703.948	79.54
704.133	77.93
704.318	77.59
704.503	78.02
704.688	79.75
704.873	78.64
705.057	78.47
705.242	77.89
705.427	75.52
705.612	76.13
705.797	75.03
705.981	74.31
706.166	76.07
706.351	77.46
706.536	75.93
706.72	74.02
706.905	73.45
707.09	75.61
707.274	75.25
707.459	77.67
707.644	78.17
707.828	78.77
708.013	78.28
708.197	78.39
708.382	78.13
708.567	79.02
708.751	81.24
708.936	82.66
709.12	80.42
709.305	80.37
709.489	78.21
709.673	77.04
709.858	77.45
710.042	78.68
710.227	78.15
710.411	79.3
710.596	78.79
710.78	78.52
710.964	77.6
711.149	75.53
711.333	76.37
711.517	78.54
711.702	79.5
711.886	78.62
712.07	79.92
712.254	79.42
712.438	77.73
712.623	77.86
712.807	76.12
712.991	74.73
713.175	76.37
713.359	73.8
713.544	72.42
713.728	70.32
713.912	70.82
714.096	69.46
714.28	69.75
714.464	68.37
714.648	68.2
714.832	69.91
715.016	69.86
715.2	68.48
715.384	69.27
715.568	69.94
715.752	71.84
715.936	72.61
716.12	71.98
716.304	71
716.488	72.52
716.671	71.81
716.855	69.06
717.039	67.51
717.223	69.48
717.407	70.06
717.59	68.42
717.774	67.63
717.958	67.14
718.142	67.88
718.325	67.39
718.509	67.22
718.693	67.57
718.877	69.07
719.06	74.49
719.244	74.08
719.428	76.4
719.611	77.93
719.795	79.07
719.978	77.63
720.162	79.06
720.345	82.22
720.529	84.29
720.713	81.31
720.896	80.65
721.08	79.83
721.263	77.13
721.446	77.22
721.63	76
721.813	74.87
721.997	77.82
722.18	74.98
722.364	72.85
722.547	68.85
722.73	71.9
722.914	72.04
723.097	70.38
723.28	71.71
723.464	68.4
723.647	71.31
723.83	74.21
724.013	74.89
724.197	76.41
724.38	77.4
724.563	80.4
724.746	80.83
724.929	79.53
725.112	78.17
725.296	77.8
725.479	79.03
725.662	74.97
725.845	72.69
726.028	71.38
726.211	71.69
726.394	70.67
726.577	69.52
726.76	68.31
726.943	69.83
727.126	70
727.309	72.11
727.492	71.5
727.675	72.11
727.858	71.54
728.041	73.53
728.224	72.06
728.407	75.01
728.589	75.17
728.772	74.45
728.955	74.02
729.138	74.85
729.321	73.27
729.503	75.29
729.686	77.84
729.869	78.48
730.052	76.57
730.234	76.99
730.417	75.03
730.6	76.19
730.782	76.58
730.965	77.51
731.148	79.31
731.33	79.05
731.513	78.85
731.695	78.78
731.878	77.98
732.061	78.17
732.243	79.65
732.426	80.52
732.608	82.74
732.791	85.37
732.973	86.44
733.156	83.01
733.338	84.7
733.52	83.92
733.703	86.78
733.885	88.78
734.068	88.8
734.25	90.14
734.432	91.73
734.615	90.84
734.797	93.07
734.979	97.02
735.162	99.67
735.344	100.59
735.526	103
735.708	98.69
735.891	100.29
736.073	98.5
736.255	95.25
736.437	95.55
736.619	94.91
736.802	90.18
736.984	85.53
737.166	83.16
737.348	79.2
737.53	79.73
737.712	79.63
737.894	77.88
738.076	78.99
738.258	80.91
738.44	79.28
738.622	77.91
738.804	82.75
738.986	87.58
739.168	92.61
739.35	96.04
739.532	92.3
739.714	93.19
739.896	96.57
740.078	97.58
740.259	98.03
740.441	97.19
740.623	100.1
740.805	96.33
740.987	95.16
741.168	95.33
741.35	97.11
741.532	100
741.714	101.41
741.895	102.41
742.077	102.17
742.259	97.4
742.44	99.86
742.622	97.19
742.804	97.55
742.985	95.46
743.167	95.3
743.348	92.42
743.53	92.86
743.711	91.67
743.893	91.9
744.075	90.59
744.256	92.44
744.438	95.31
744.619	95.69
744.8	96.83
744.982	97.87
745.163	102.08
745.345	103.87
745.526	102.89
745.707	101.67
745.889	99.9
746.07	100.77
746.252	106
746.433	102.83
746.614	100.1
746.795	99.13
746.977	100.99
747.158	96.26
747.339	95.33
747.52	98.9
747.702	101.88
747.883	99.95
748.064	101.84
748.245	101.64
748.426	99.53
748.607	99
748.788	102.25
748.97	104.66
749.151	103.07
749.332	103.02
749.513	103.38
749.694	102.17
749.875	103.17
750.056	102.65
750.237	101.38
750.418	103.04
750.599	107.61
750.78	107.94
750.96	103.55
751.141	108.68
751.322	111.2
751.503	108.1
751.684	110.11
751.865	113.71
752.046	115.87
752.226	116.44
752.407	116.22
752.588	108.86
752.769	105.26
752.949	105.32
753.13	104.52
753.311	110.51
753.492	111.2
753.672	103.27
753.853	101.14
754.034	100.56
754.214	101.85
754.395	102.53
754.575	107.33
754.756	108.63
754.937	109.06
755.117	109.64
755.298	104.38
755.478	101.21
755.659	110.24
755.839	108.6
756.02	106.15
756.2	108.53
756.381	107.17
756.561	107.97
756.741	107.16
756.922	103.57
757.102	99.84
757.283	102.59
757.463	107.48
757.643	102.84
757.823	100.26
758.004	98.38
758.184	91.35
758.364	92.05
758.545	90.44
758.725	88.26
758.905	87.33
759.085	84.34
759.265	76.46
759.446	77.51
759.626	75.66
759.806	80.05
759.986	84.06
760.166	84.02
760.346	78.35
760.526	77.32
760.706	78.16
760.886	76.84
761.066	75.69
761.246	74.54
761.426	69.89
761.606	69.87
761.786	66.94
761.966	66.13
762.146	67.86
762.326	67.68
762.506	67.09
762.686	64.47
762.866	66.94
763.046	68.49
763.225	70.41
763.405	72.97
763.585	74.35
763.765	75.69
763.945	77.74
764.124	77.84
764.304	81.14
764.484	86.86
764.664	90.82
764.843	93.64
765.023	95.08
765.203	96.31
765.382	97.68
765.562	101.63
765.741	108.31
765.921	108.53
766.101	115.78
766.28	112.93
766.46	111.16
766.639	114.65
766.819	112.09
766.998	113.75
767.178	119.19
767.357	117.44
767.537	114.57
767.716	109.58
767.896	111.78
768.075	107.91
768.254	111.48
768.434	112.25
768.613	112.75
768.792	112.99
768.972	119.19
769.151	109.82
769.33	109.74
769.51	114.5
769.689	118.59
769.868	119.6
770.047	117.16
770.226	115.11
770.406	117.01
770.585	112.83
770.764	110.44
770.943	108.73
771.122	118.28
771.301	117.5
771.48	118.19
771.66	118.06
771.839	118.62
772.018	124.79
772.197	128.23
772.376	130.15
772.555	134.39
772.734	138.87
772.913	138.86
773.092	132.37
773.271	132.88
773.449	131.44
773.628	128.75
773.807	128.72
773.986	130.46
774.165	129.11
774.344	128.19
774.523	126.41
774.701	117.87
774.88	118.32
775.059	118
775.238	120.23
775.417	121.38
775.595	124.28
775.774	118.71
775.953	115.74
776.131	123.01
776.31	120.26
776.489	120.86
776.667	124.66
776.846	121.33
777.025	119.64
777.203	121.17
777.382	120.6
777.56	118.02
777.739	127.22
777.917	129.31
778.096	121.78
778.274	126.56
778.453	125.61
778.631	143.38
778.81	145.13
778.988	146.64
779.166	144.74
779.345	147.36
779.523	147.01
779.702	142.99
779.88	143.84
780.058	148.49
780.237	145.28
780.415	145.55
780.593	129.64
780.771	138.33
780.95	140.03
781.128	130.26
781.306	127.17
781.484	128.99
781.662	132.42
781.841	125.37
782.019	121.31
782.197	125.54
782.375	131.89
782.553	140.02
782.731	135.59
782.909	139.26
783.087	145.25
783.265	161.92
783.443	151.03
783.621	147.36
783.799	156.63
783.977	161.84
784.155	152.67
784.333	145.56
784.511	136.88
784.689	132.95
784.867	131.45
785.045	138.12
785.223	119.55
785.4	121.89
785.578	116.88
785.756	111.04
785.934	109.37
786.112	107.66
786.289	104.16
786.467	99.43
786.645	99.52
786.823	104.56
787	109.74
787.178	115.11
787.356	119.26
787.533	117.05
787.711	121.25
787.889	129.4
788.066	130.05
788.244	130.9
788.421	136.52
788.599	130.63
788.776	124.09
788.954	120.42
789.131	120.84
789.309	116.48
789.486	116.46
789.664	114.55
789.841	106.21
790.019	106.86
790.196	106.1
790.373	109.19
790.551	113.66
790.728	115.87
790.906	112.98
791.083	111.63
791.26	107.67
791.437	109.98
791.615	107.92
791.792	106.92
791.969	108.75
792.146	113.61
792.324	106.72
792.501	106.16
792.678	106.05
792.855	102.49
793.032	105.33
793.209	113.34
793.387	110.46
793.564	112.16
793.741	119.66
793.918	113.65
794.095	115.94
794.272	121.33
794.449	121.62
794.626	118.97
794.803	115.56
794.98	110.1
795.157	104.8
795.334	108.42
795.511	109.61
795.688	104.7
795.864	105.07
796.041	101.71
796.218	100.4
796.395	102.23
796.572	98.5
796.749	102.21
796.925	100.5
797.102	111.87
797.279	117.96
797.456	111.66
797.632	106.23
797.809	113.01
797.986	120.52
798.162	117.29
798.339	119.3
798.516	122.12
798.692	119.6
798.869	121.48
799.046	117.26
799.222	107.55
799.399	104.99
799.575	113.89
799.752	113.77
799.928	109.23
800.105	109.82
800.281	107.97
800.458	110.41
800.634	116.92
800.811	114.16
800.987	119.22
801.163	120.01
801.34	139.29
801.516	134.26
801.692	134.49
801.869	135.56
802.045	132.21
802.221	128.01
802.398	125.75
802.574	124.48
802.75	133.35
802.926	128.23
803.103	129.24
803.279	118.52
803.455	127.65
803.631	115.95
803.807	106.31
803.983	113.62
804.16	114.59
804.336	114.15
804.512	108.07
804.688	103.12
804.864	103.63
805.04	99.38
805.216	95.14
805.392	87.07
805.568	90.93
805.744	101.93
805.92	96.45
806.096	96.87
806.272	99.55
806.448	112.2
806.623	113.12
806.799	112.03
806.975	113.94
807.151	122.96
807.327	121.07
807.503	146.92
807.678	141.19
807.854	169.76
808.03	159.94
808.206	140.13
808.381	128.68
808.557	157.92
808.733	163.66
808.908	162.67
809.084	160.3
809.26	168.78
809.435	141.73
809.611	148.08
809.787	127.33
809.962	131.09
810.138	149.53
810.313	151.97
810.489	123.04
810.664	106.56
810.84	118.41
811.015	101.38
811.191	99.46
811.366	104.01
811.542	102.95
811.717	116.93
811.892	116.87
812.068	111.6
812.243	105.89
812.419	109.78
812.594	120.51
812.769	112.73
812.944	120.54
813.12	136.74
813.295	134.27
813.47	133.43
813.645	130.14
813.821	126.8
813.996	115.89
814.171	111.56
814.346	118.3
814.521	117.51
814.697	122.85
814.872	112.42
815.047	108.05
815.222	124.42
815.397	117.2
815.572	113.48
815.747	115.52
815.922	124.1
816.097	136.6
816.272	124.84
816.447	117.4
816.622	107.6
816.797	114.52
816.972	103.52
817.147	92.7
817.322	89.16
817.496	89.63
817.671	90.39
817.846	82.31
818.021	75.6
818.196	76.64
818.371	77.5
818.545	76.86
818.72	73.45
818.895	75.87
819.069	78.75
819.244	79.66
819.419	73.47
819.594	68.27
819.768	67.04
819.943	67.9
820.117	64.34
820.292	65.17
820.467	66.16
820.641	63.31
820.816	60.69
820.99	58.83
821.165	57.94
821.339	58.89
821.514	58.91
821.688	59.28
821.863	60.24
822.037	60.58
822.212	57.86
822.386	54.89
822.56	56.77
822.735	60.76
822.909	64.37
823.084	67.87
823.258	68.46
823.432	70.35
823.606	74.77
823.781	73.56
823.955	80.27
824.129	85.12
824.303	89
824.478	89.94
824.652	85.89
824.826	79.73
825	73.72
825.174	68.82
825.348	69.78
825.523	63.37
825.697	64.85
825.871	63.63
826.045	64.69
826.219	65.65
826.393	66.24
826.567	65.14
826.741	66.17
826.915	69.77
827.089	74.3
827.263	77.69
827.437	83.78
827.611	86.97
827.784	87.06
827.958	91.41
828.132	94.29
828.306	101.62
828.48	111.57
828.654	122.79
828.827	119
829.001	112.95
829.175	113.8
829.349	109.64
829.522	112.32
829.696	118.28
829.87	122.35
830.044	138.44
830.217	125.47
830.391	122.83
830.565	125.94
830.738	144.06
830.912	144.97
831.085	121.95
831.259	127.38
831.432	113.25
831.606	103.6
831.779	93.94
831.953	83.94
832.126	82.11
832.3	78.79
832.473	74.86
832.647	72.95
832.82	75.33
832.994	76.35
833.167	73.12
833.34	78.93
833.514	80.56
833.687	83.14
833.86	82.88
834.034	89.28
834.207	94.33
834.38	96.67
834.553	99.63
834.727	99.83
834.9	104.52
835.073	113.73
835.246	118.63
835.419	116.76
835.593	129.92
835.766	136.06
835.939	130.61
836.112	140.18
836.285	152.27
836.458	131.73
836.631	135.18
836.804	130.4
836.977	139.59
837.15	153.03
837.323	152.61
837.496	133.37
837.669	134.41
837.842	145.76
838.015	131.44
838.188	144.75
838.361	137.23
838.533	138.29
838.706	128.31
838.879	132.75
839.052	115.25
839.225	119.38
839.398	121.72
839.57	127.11
839.743	121.09
839.916	118.93
840.088	119.67
840.261	146.83
840.434	156.05
840.607	187.22
840.779	171.83
840.952	169.72
841.124	154.51
841.297	158.29
841.47	179.52
841.642	178.45
841.815	171.54
841.987	153.37
842.16	127.26
842.332	141.18
842.505	127.73
842.677	123.01
842.85	141.2
843.022	145.61
843.194	116.14
843.367	109.14
843.539	123.08
843.712	122.22
843.884	123.68
844.056	170.32
844.229	143.52
844.401	162.16
844.573	159.83
844.745	150.89
844.918	166.88
845.09	231.43
845.262	247.17
845.434	231.25
845.606	221.07
845.779	304.33
845.951	205.41
846.123	182.87
846.295	174.54
846.467	199.38
846.639	176.08
846.811	202.38
846.983	205.1
847.155	240
847.327	257.01
847.499	334.07
847.671	306.79
847.843	778.87
848.015	3467.74
848.187	-2491.11
848.359	3115.79
848.531	-2303.7
848.703	40000
848.875	-1188.3
849.047	1223.4
849.218	494.74
849.39	426.02
849.562	404.55
849.734	401.26
849.905	566.5
850.077	586.08
850.249	441.7
850.421	1347.06
850.592	446.02
850.764	478.72
850.936	1936
851.107	10600
851.279	644.88
851.451	315.31
851.622	281.69
851.794	204.36
851.965	198.95
852.137	232.4
852.308	209.4
852.48	247.06
852.651	216.83
852.823	286.6
852.994	201.77
853.166	210
853.337	186.32
853.509	166.72
853.68	216.21
853.851	185.59
854.023	204.87
854.194	213.99
854.365	230.51
854.537	202.67
854.708	178.01
854.879	256.29
855.05	244.12
855.222	281.26
855.393	425
855.564	258.69
855.735	265.36
855.906	326.85
856.078	251.83
856.249	248.64
856.42	243.21
856.591	223.91
856.762	214.57
856.933	198.61
857.104	203.85
857.275	228.77
857.446	259.39
857.617	221.74
857.788	224.81
857.959	217.31
858.13	217.19
858.301	237.53
858.472	214.26
858.643	181.18
858.814	218.18
858.985	263.08
859.155	242.25
859.326	254.48
859.497	684.03
859.668	223.41
859.839	242.81
860.009	251.84
860.18	277.17
860.351	302.8
860.522	327.23
860.692	307.27
860.863	199.12
861.034	174.81
861.204	160.78
861.375	113.8
861.546	153.7
861.716	170.95
861.887	154.46
862.057	176.13
862.228	148.74
862.398	168
862.569	144.32
862.739	142.13
862.91	147.33
863.08	201.58
863.251	360
863.421	399.57
863.592	395.96
863.762	517.44
863.932	829.67
864.103	-926.74
864.273	-3010.71
864.443	-780
864.614	-286.92
864.784	-221.69
864.954	-3086.67
865.125	13785.71
865.295	-1267.16
865.465	-1556.14
865.635	-12150
865.805	1369.62
865.976	-15500
866.146	-2072.73
866.316	-3620
866.486	2176.19
866.656	-539.47
866.826	-246.01
866.996	-1096.15
867.166	521.68
867.336	668.83
867.506	772.86
867.676	246.49
867.846	208.37
868.016	189.84
868.186	182.86
868.356	130.38
868.526	113.48
868.696	162.4
868.866	234.7
869.036	466.23
869.206	226.85
869.376	300.59
869.545	4284.21
869.715	2263.16
869.885	416.91
870.055	334.66
870.224	797.67
870.394	-1411.9
870.564	731.34
870.734	457
870.903	183.08
871.073	285.66
871.243	172.57
871.412	116.03
871.582	105.19
871.751	123.93
871.921	106.56
872.091	118.18
872.26	108.42
872.43	129.54
872.599	170.99
872.769	143.96
872.938	104.34
873.108	102.86
873.277	123.39
873.446	117.35
873.616	121.62
873.785	117.14
873.955	127.22
874.124	132.48
874.293	126.05
874.463	97.36
874.632	113.02
874.801	149.79
874.971	192.77
875.14	161.08
875.309	202.35
875.478	338.34
875.647	353.44
875.817	194.68
875.986	156.98
876.155	121.01
876.324	133.78
876.493	126.81
876.662	128.52
876.831	113.11
877	145.85
877.17	160.75
877.339	144.23
877.508	153.43
877.677	145.6
877.846	189.29
878.015	231.89
878.184	185.74
878.352	193.99
878.521	207.33
878.69	190.58
878.859	146.99
879.028	116.5
879.197	111.99
879.366	97.67
879.534	120.79
879.703	99.78
879.872	102.2
880.041	112.76
880.21	112.42
880.378	103.02
880.547	107.05
880.716	94.59
880.884	89.52
881.053	88.59
881.222	92.26
881.39	81.72
881.559	82.26
881.727	78.45
881.896	72.96
882.065	71.86
882.233	71.01
882.402	68.65
882.57	70.35
882.739	73.76
882.907	74.11
883.076	75.95
883.244	84.73
883.412	95.14
883.581	106.02
883.749	105.99
883.918	100.97
884.086	113.14
884.254	115.04
884.423	120.85
884.591	138.63
884.759	148.55
884.927	185.67
885.096	141.73
885.264	133.42
885.432	147.52
885.6	143.81
885.769	208.76
885.937	179.26
886.105	229.84
886.273	262.46
886.441	208.96
886.609	473.55
886.777	241.24
886.945	-205.11
887.113	-227.49
887.281	-28150
887.449	-415.43
887.617	0
887.785	-218.94
887.953	-159.83
888.121	-243.72
888.289	-226.24
888.457	-943.84
888.625	-27366.67
888.793	3495
888.961	7562.5
889.129	1404.08
889.296	377.59
889.464	1245.83
889.632	438.89
889.8	392.16
889.967	535.56
890.135	232.12
