Data from JASIL_3303_Reflection_1.txt Node
Date: Tue Nov 17 19:45:50 EST 2015
User: Geneva
Spectrometer: USB4E03002
Autoset integration time: false
Trigger mode: 4
Integration Time (sec): 1.000000E-1
Scans to average: 10
Electric dark correction enabled: false
Nonlinearity correction enabled: false
Boxcar width: 5
Stray light correction enabled: false
XAxis mode: Wavelengths
Stop averaging: false
Number of Pixels in Spectrum: 3648
>>>>>Begin Spectral Data<<<<<
177.575	-127.72
177.794	-278.26
178.014	-331.46
178.233	-484.91
178.452	-521.67
178.672	-390.55
178.891	-939.66
179.11	6020
179.33	1619.57
179.549	1576.47
179.768	-8181.82
179.987	693.18
180.207	337.7
180.426	545.89
180.645	636.8
180.864	4288.24
181.084	478.31
181.303	391.52
181.522	452.3
181.741	395.51
181.96	658.59
182.179	3276.47
182.398	-662.34
182.618	-251.74
182.837	-244.76
183.056	-344.26
183.275	-378.89
183.494	-106.94
183.713	-88.15
183.932	-66.73
184.151	-44.95
184.37	-20.92
184.589	-50
184.808	-35.09
185.027	-27.78
185.246	-58.95
185.465	-50.44
185.684	-63.36
185.903	-121.04
186.122	-172.08
186.341	-471.68
186.56	-362.5
186.779	-2351.85
186.998	-183.6
187.216	-266.11
187.435	-230.91
187.654	-221.82
187.873	-158.48
188.092	-190.38
188.311	-325.71
188.53	-227.17
188.748	-106.47
188.967	-124.24
189.186	-75.34
189.405	-238.93
189.623	-152.5
189.842	-172.63
190.061	-143
190.28	-85.92
190.498	-116.39
190.717	-83.55
190.936	-88.03
191.154	-226.37
191.373	-577.01
191.592	1165.12
191.81	400.97
192.029	543.16
192.248	308.82
192.466	383.43
192.685	179.58
192.904	355.94
193.122	224.18
193.341	305.88
193.559	421.47
193.778	410.5
193.996	372.99
194.215	1208.7
194.433	635.71
194.652	661.54
194.87	471.87
195.089	508.46
195.307	1192.98
195.526	-680.61
195.744	-492.09
195.963	-501.33
196.181	-689.26
196.399	-971.26
196.618	1156.58
196.836	605.67
197.055	495.27
197.273	574.63
197.491	717.12
197.71	310.32
197.928	266.23
198.146	242.12
198.365	1011.9
198.583	530.16
198.801	-162.9
199.019	13.95
199.238	-7.44
199.456	-19.9
199.674	-42.9
199.892	-34.39
200.111	-65.96
200.329	-90.59
200.547	-111.22
200.765	1352.94
200.983	-567.52
201.202	1265.79
201.42	451.79
201.638	307.94
201.856	468.38
202.074	772.67
202.292	458.57
202.51	372.67
202.728	425.45
202.946	3360.71
203.165	1646.15
203.383	398.19
203.601	530.46
203.819	880
204.037	-2636.36
204.255	-3485.19
204.473	-545.45
204.691	-449.41
204.909	-328.76
205.127	-1750
205.345	549.7
205.562	-657.36
205.78	-93.62
205.998	-72.97
206.216	-47.55
206.434	-85.86
206.652	-67.58
206.87	-133.53
207.088	-54.29
207.306	-156.07
207.523	-82.35
207.741	-52.45
207.959	-97.3
208.177	-226.94
208.395	-202.45
208.612	-319.44
208.83	-149.85
209.048	-196.21
209.266	-205.8
209.483	-146.37
209.701	-142.99
209.919	-127.6
210.136	-163.61
210.354	-170.65
210.572	-173.29
210.79	-196.33
211.007	-288.73
211.225	-4553.33
211.442	940.68
211.66	2424
211.878	260.8
212.095	941.36
212.313	1573.73
212.53	830.81
212.748	699.2
212.966	538.26
213.183	671.21
213.401	-8950
213.618	-548.81
213.836	-491.47
214.053	-666.97
214.271	-437.5
214.488	-113.84
214.705	-121.76
214.923	-113.06
215.14	-42.62
215.358	-17.63
215.575	-18.32
215.793	-43.58
216.01	-235.55
216.227	-434.48
216.445	-264.58
216.662	-139.66
216.879	-213.04
217.097	-116.57
217.314	-221.79
217.531	11087.5
217.749	985.15
217.966	591.76
218.183	414.19
218.4	543.23
218.618	533.55
218.835	393.98
219.052	313.24
219.269	314.14
219.487	162.88
219.704	146.36
219.921	130.74
220.138	164.14
220.355	153.77
220.572	137.4
220.79	158.63
221.007	237.44
221.224	268.82
221.441	283.33
221.658	311.11
221.875	-1431.43
222.092	-668.18
222.309	2296.97
222.526	502.42
222.743	467.63
222.96	577.7
223.177	1727.91
223.394	967.11
223.611	620.28
223.828	392.4
224.045	262.21
224.262	209.4
224.479	234.83
224.696	437.5
224.913	653.72
225.13	531.13
225.347	423.45
225.564	250.96
225.781	143.17
225.997	114.41
226.214	98.75
226.431	85.6
226.648	73.26
226.865	50.09
227.082	36.13
227.298	36.71
227.515	43.02
227.732	44.92
227.949	36.85
228.165	32.85
228.382	32.15
228.599	31.43
228.816	36.54
229.032	38.88
229.249	42.61
229.466	46.15
229.682	44.69
229.899	46.14
230.116	49.75
230.332	52.32
230.549	59.97
230.765	57.24
230.982	62.09
231.199	60.18
231.415	66.01
231.632	75.93
231.848	63.63
232.065	69.53
232.281	62.39
232.498	66.69
232.714	67.12
232.931	65.84
233.147	65.53
233.364	65.37
233.58	70.55
233.797	65.67
234.013	58.07
234.23	78.96
234.446	89.06
234.662	103.63
234.879	107.64
235.095	90.57
235.312	69.65
235.528	86.58
235.744	100.58
235.961	124.49
236.177	110
236.393	141.76
236.61	127.39
236.826	103.12
237.042	88.79
237.258	94.47
237.475	94.35
237.691	148.08
237.907	108.44
238.123	88.9
238.339	81.44
238.556	71.4
238.772	64.04
238.988	55.99
239.204	49.28
239.42	48.91
239.636	43.68
239.853	39.9
240.069	38.16
240.285	31.92
240.501	28.5
240.717	24.59
240.933	27.1
241.149	25.81
241.365	25.28
241.581	27.02
241.797	25.78
242.013	24.29
242.229	24.37
242.445	23.09
242.661	25.41
242.877	28.13
243.093	33.22
243.309	33.59
243.525	34.72
243.741	42.06
243.957	37.94
244.173	33.09
244.388	35.15
244.604	35.08
244.82	32.4
245.036	32.74
245.252	30.92
245.468	27.84
245.683	27
245.899	23.89
246.115	20.93
246.331	18.29
246.547	21
246.762	20.22
246.978	19.82
247.194	17.98
247.409	17.78
247.625	16.63
247.841	15.59
248.057	16.93
248.272	15.05
248.488	13.01
248.703	15.59
248.919	16.33
249.135	17.52
249.35	16.04
249.566	21.07
249.782	21.06
249.997	23.02
250.213	23.94
250.428	23.14
250.644	25.25
250.859	27.08
251.075	28.25
251.29	22.02
251.506	21.98
251.721	25.9
251.937	22.19
252.152	24.45
252.368	22.85
252.583	24.02
252.798	19.21
253.014	16.99
253.229	18.04
253.445	20.37
253.66	20.6
253.875	16.42
254.091	6.51
254.306	7.63
254.521	1.01
254.737	1.62
254.952	3.17
255.167	3.19
255.383	3.94
255.598	5.46
255.813	3.33
256.028	3.47
256.244	9.63
256.459	13.35
256.674	17.14
256.889	20.4
257.104	20.08
257.32	19.47
257.535	18.3
257.75	19.3
257.965	15.48
258.18	12.62
258.395	12.89
258.61	10.22
258.826	8.57
259.041	9.2
259.256	7.1
259.471	6.48
259.686	6.51
259.901	7.71
260.116	8.15
260.331	8.65
260.546	11.27
260.761	11.82
260.976	15.73
261.191	17.65
261.406	17.19
261.621	16.17
261.836	19.25
262.05	19.02
262.265	20.16
262.48	15.39
262.695	22.79
262.91	18.22
263.125	19.28
263.34	12.81
263.555	11.05
263.769	11.08
263.984	14.43
264.199	14.63
264.414	18.21
264.629	14.45
264.843	20.22
265.058	15
265.273	14.04
265.488	16.02
265.702	16.99
265.917	21.08
266.132	21.23
266.346	24.81
266.561	24.86
266.776	23.23
266.99	23.43
267.205	22.11
267.42	20.93
267.634	22.48
267.849	22.24
268.063	20.14
268.278	17.37
268.492	14.85
268.707	10.43
268.922	9.74
269.136	12.69
269.351	13.49
269.565	15.46
269.78	17.71
269.994	20.4
270.209	19.36
270.423	20.17
270.637	20.19
270.852	21.24
271.066	23.2
271.281	21.82
271.495	20.85
271.709	22.2
271.924	19.66
272.138	18.91
272.353	17.22
272.567	17.67
272.781	17.71
272.996	16.93
273.21	16.19
273.424	15.89
273.638	19.24
273.853	19.9
274.067	17.27
274.281	18.76
274.495	19.78
274.71	20.19
274.924	20.39
275.138	22.9
275.352	22.65
275.566	22.23
275.781	19.61
275.995	16.96
276.209	13.64
276.423	13.9
276.637	12.48
276.851	7.85
277.065	8.18
277.279	4.77
277.493	3.34
277.707	1.45
277.921	0.55
278.135	4.32
278.349	1.5
278.563	2.71
278.777	1.47
278.991	1.8
279.205	7.21
279.419	3.66
279.633	6.02
279.847	5.72
280.061	4.99
280.275	8.23
280.489	3.13
280.703	7.35
280.917	6.84
281.131	7.75
281.344	9.49
281.558	7.87
281.772	8.99
281.986	9.97
282.2	9.74
282.414	11.6
282.627	8.7
282.841	12.28
283.055	6.75
283.269	7.72
283.482	6.78
283.696	7
283.91	8.39
284.123	8.46
284.337	9.78
284.551	8.46
284.764	9.16
284.978	9.97
285.192	8.84
285.405	11.73
285.619	10.37
285.833	11.63
286.046	12.12
286.26	11.23
286.473	11.16
286.687	9.21
286.9	11.65
287.114	12.31
287.327	11.89
287.541	11.71
287.754	12.85
287.968	13.74
288.181	13.96
288.395	13.35
288.608	13.49
288.822	13.26
289.035	13.6
289.248	13.38
289.462	13.19
289.675	14.27
289.889	15.32
290.102	13.76
290.315	14.17
290.529	14.09
290.742	12.71
290.955	13.03
291.169	14.86
291.382	13.81
291.595	13.7
291.808	13.71
292.022	13.32
292.235	12.89
292.448	14.37
292.661	16.25
292.875	15.83
293.088	16.97
293.301	14.33
293.514	11.48
293.727	11.28
293.94	8.39
294.153	8.07
294.367	8.44
294.58	6.92
294.793	5.94
295.006	4.04
295.219	4.32
295.432	2.75
295.645	5.68
295.858	7.8
296.071	8.01
296.284	9.14
296.497	9.26
296.71	9.13
296.923	10.7
297.136	10.11
297.349	10.58
297.562	10.61
297.775	11.06
297.988	8.84
298.201	9.09
298.414	10.04
298.626	9.67
298.839	8.68
299.052	8.39
299.265	9.51
299.478	12.48
299.691	12.45
299.903	13.15
300.116	13.86
300.329	15.3
300.542	15.16
300.755	14.99
300.967	15.59
301.18	15.66
301.393	15.01
301.605	13.65
301.818	12.26
302.031	13.68
302.243	12.91
302.456	12.92
302.669	11.69
302.881	11.39
303.094	11.12
303.307	11.42
303.519	13.09
303.732	13.94
303.944	14.44
304.157	15.98
304.37	14.99
304.582	15.3
304.795	16.57
305.007	18.61
305.22	16.41
305.432	16.63
305.645	16.25
305.857	14.84
306.069	13.69
306.282	13.3
306.494	11.59
306.707	12.36
306.919	10.66
307.132	10.29
307.344	8.72
307.556	9.57
307.769	9.18
307.981	11.44
308.193	12.03
308.406	11.64
308.618	10.81
308.83	10.78
309.043	10.82
309.255	11.78
309.467	11.57
309.679	11.07
309.892	11.47
310.104	11.65
310.316	10.96
310.528	11.56
310.74	11.99
310.953	13.23
311.165	12.63
311.377	13.02
311.589	13.71
311.801	11.9
312.013	12.63
312.225	12.83
312.437	12.22
312.649	10.38
312.862	10.19
313.074	11.33
313.286	8.43
313.498	7.99
313.71	6.64
313.922	5.66
314.134	6.72
314.346	6.87
314.558	6.59
314.77	6.41
314.982	8.55
315.193	8.05
315.405	6.38
315.617	7.57
315.829	10.37
316.041	13.12
316.253	12.89
316.465	13.29
316.677	14.23
316.888	17.21
317.1	18.09
317.312	20.15
317.524	22.24
317.736	25.3
317.947	26.09
318.159	26.58
318.371	23.86
318.583	23.88
318.794	25.79
319.006	27.06
319.218	25.58
319.43	25.88
319.641	25.64
319.853	24.51
320.064	22.94
320.276	24.29
320.488	22.06
320.699	21.17
320.911	20.99
321.123	19.91
321.334	18.29
321.546	16.18
321.757	16.99
321.969	14.89
322.18	14.36
322.392	14.86
322.603	14.45
322.815	13.96
323.026	15.27
323.238	13.73
323.449	11.03
323.661	10.11
323.872	11.38
324.083	12.02
324.295	12.51
324.506	11.97
324.718	10.76
324.929	11.09
325.14	13.44
325.352	11.17
325.563	12.12
325.774	13.08
325.986	14.61
326.197	14.81
326.408	13.2
326.62	14.45
326.831	15.84
327.042	16.73
327.253	16.59
327.464	16.11
327.676	18.62
327.887	19.88
328.098	22.26
328.309	22.24
328.52	22.78
328.732	24.97
328.943	23.79
329.154	23.77
329.365	24.92
329.576	24.69
329.787	25.5
329.998	25.62
330.209	26.99
330.42	27.35
330.631	26.1
330.842	26.83
331.053	24.8
331.264	25.53
331.475	25.12
331.686	26.07
331.897	24.92
332.108	25.11
332.319	23.51
332.53	22.22
332.741	21.71
332.952	22.67
333.163	22.2
333.374	24.45
333.585	24.58
333.795	25.42
334.006	23.17
334.217	25.36
334.428	23.52
334.639	23.49
334.849	25.38
335.06	27.11
335.271	28.87
335.482	27.75
335.692	27.18
335.903	25.54
336.114	26.13
336.325	27.59
336.535	28.06
336.746	30.07
336.957	29.4
337.167	28.09
337.378	27.26
337.589	26.98
337.799	28.05
338.01	27.64
338.22	28.44
338.431	28.23
338.642	28.35
338.852	27.48
339.063	25.51
339.273	27.68
339.484	26.77
339.694	25.73
339.905	24.97
340.115	25.24
340.326	24.83
340.536	26.26
340.746	24.95
340.957	24.84
341.167	24.64
341.378	25.63
341.588	25.58
341.799	27.14
342.009	27.05
342.219	26.36
342.43	27.41
342.64	27.23
342.85	27.46
343.061	28.18
343.271	27.45
343.481	27.21
343.691	27.21
343.902	27.49
344.112	28.56
344.322	28.29
344.532	28.37
344.743	27.85
344.953	27.97
345.163	27.04
345.373	27.97
345.583	28.3
345.793	30.45
346.004	31.06
346.214	31.31
346.424	30.77
346.634	30.77
346.844	31.22
347.054	30.47
347.264	30.51
347.474	28.46
347.684	27.24
347.894	26.32
348.104	23.52
348.314	23.43
348.524	23.16
348.734	22.72
348.944	23.76
349.154	23.59
349.364	23.46
349.574	23.86
349.784	25.94
349.994	26.25
350.204	26.98
350.413	28.17
350.623	27.4
350.833	27.31
351.043	27.12
351.253	27.32
351.463	27.6
351.672	27.1
351.882	26.89
352.092	27.34
352.302	28.25
352.511	28.26
352.721	26.32
352.931	25.21
353.141	24.67
353.35	24.68
353.56	24.4
353.77	24.26
353.979	25.06
354.189	24.38
354.399	23.26
354.608	21.69
354.818	22.16
355.027	23.61
355.237	24.55
355.447	25.01
355.656	24.37
355.866	23.48
356.075	24.11
356.285	23.76
356.494	23.93
356.704	25.19
356.913	25.03
357.123	24.82
357.332	23.74
357.542	23.61
357.751	23.97
357.96	23.91
358.17	24.32
358.379	22.89
358.589	23.06
358.798	23.6
359.007	23.4
359.217	24.66
359.426	23.53
359.635	24.09
359.845	24.39
360.054	22.7
360.263	23.21
360.472	22.99
360.682	23.41
360.891	23.57
361.1	22.77
361.309	21.99
361.519	20.73
361.728	21.2
361.937	21.52
362.146	21.45
362.355	22.01
362.564	21.1
362.774	20.83
362.983	20.25
363.192	20.25
363.401	21.22
363.61	21.16
363.819	22.2
364.028	22.5
364.237	22.58
364.446	22.85
364.655	22.45
364.864	23.55
365.073	24.04
365.282	23.83
365.491	23.62
365.7	23.87
365.909	24.01
366.118	23.78
366.327	22.13
366.536	20.65
366.745	20.87
366.954	21
367.162	21.28
367.371	21.54
367.58	22.33
367.789	21.82
367.998	21.2
368.207	20.73
368.415	20.91
368.624	21.87
368.833	22.87
369.042	22.24
369.25	22.12
369.459	21.04
369.668	20.25
369.877	20.33
370.085	20.93
370.294	20.89
370.503	21.9
370.711	21.42
370.92	21.64
371.129	21.89
371.337	21.11
371.546	20.83
371.754	20.78
371.963	20.86
372.171	20.72
372.38	20.49
372.589	20.8
372.797	19.78
373.006	20.14
373.214	20.17
373.423	19.53
373.631	20.04
373.84	19.55
374.048	19.15
374.256	19.22
374.465	20.16
374.673	20.43
374.882	18.64
375.09	18.26
375.298	18.18
375.507	17.23
375.715	17.46
375.923	17.09
376.132	18.48
376.34	17.45
376.548	18.22
376.757	16.75
376.965	15.54
377.173	16.46
377.381	16.74
377.59	16.34
377.798	17.13
378.006	16.33
378.214	16.74
378.423	16.52
378.631	16.83
378.839	16.62
379.047	18.11
379.255	19.17
379.463	18.84
379.671	18.69
379.879	19.2
380.088	18.66
380.296	19.95
380.504	20.09
380.712	19.43
380.92	20.21
381.128	19.89
381.336	19.1
381.544	18.75
381.752	19.05
381.96	18.7
382.168	17.61
382.376	17.98
382.584	18.08
382.791	17.9
382.999	17.39
383.207	17.71
383.415	18.15
383.623	18.44
383.831	18.25
384.039	17.97
384.247	18.9
384.454	19.34
384.662	19.59
384.87	19.55
385.078	20.01
385.285	20.53
385.493	20.9
385.701	19.85
385.909	19.3
386.116	19.81
386.324	19.75
386.532	19.26
386.739	19.26
386.947	18.85
387.155	17.64
387.362	17.11
387.57	16.9
387.778	15.91
387.985	15.57
388.193	15.66
388.4	15.12
388.608	15.7
388.816	15.96
389.023	16.73
389.231	17.78
389.438	18.4
389.646	18.49
389.853	18.89
390.061	19.58
390.268	19.53
390.475	19.18
390.683	18.82
390.89	18.33
391.098	18.21
391.305	17.07
391.512	16.62
391.72	16.4
391.927	16.29
392.135	16.3
392.342	15.43
392.549	15.63
392.756	15.89
392.964	15.31
393.171	15.74
393.378	15.31
393.586	15.48
393.793	15.05
394	15.51
394.207	15.33
394.414	15.06
394.622	15.61
394.829	15.34
395.036	14.68
395.243	15.17
395.45	15.29
395.657	15.59
395.864	15.65
396.072	16.48
396.279	16.03
396.486	15.66
396.693	15.78
396.9	15.66
397.107	16
397.314	16.38
397.521	16.74
397.728	16.2
397.935	16.11
398.142	16.43
398.349	15.5
398.556	15.31
398.763	15.44
398.97	15.47
399.177	15.82
399.383	16.55
399.59	16.72
399.797	17.1
400.004	17.2
400.211	17.45
400.418	16.86
400.625	17.32
400.831	17.92
401.038	17.57
401.245	17.3
401.452	16.79
401.658	16.32
401.865	16.34
402.072	15.7
402.279	15.79
402.485	15.67
402.692	16.13
402.899	15.31
403.105	15
403.312	15.41
403.519	15.62
403.725	15.32
403.932	14.81
404.138	15.03
404.345	15.35
404.552	15.45
404.758	15.53
404.965	14.91
405.171	15.64
405.378	16
405.584	16.04
405.791	15.88
405.997	15.91
406.204	16.26
406.41	15.79
406.617	15.67
406.823	14.82
407.029	14.73
407.236	15.87
407.442	15.35
407.649	14.72
407.855	15.14
408.061	15.89
408.268	16.29
408.474	16.08
408.68	15.93
408.887	16.1
409.093	16.78
409.299	16.76
409.505	16.14
409.712	16.39
409.918	16.08
410.124	15.25
410.33	14.45
410.537	14.06
410.743	13.82
410.949	14.45
411.155	14.07
411.361	14
411.567	13.41
411.773	13.42
411.98	13.42
412.186	14.11
412.392	14.05
412.598	14.1
412.804	14.23
413.01	14.69
413.216	14.31
413.422	14.52
413.628	14.31
413.834	14.06
414.04	13.6
414.246	13.22
414.452	12.76
414.658	12.84
414.864	13.45
415.07	13.42
415.275	13.41
415.481	13.65
415.687	13.67
415.893	13.03
416.099	13.42
416.305	13.73
416.511	13.97
416.716	13.9
416.922	14.31
417.128	13.39
417.334	13.4
417.539	13.33
417.745	12.99
417.951	12.61
418.157	13.54
418.362	13.77
418.568	13.73
418.774	13.28
418.979	13.29
419.185	13.05
419.391	13.47
419.596	13.64
419.802	13.5
420.008	13.32
420.213	13.73
420.419	13.33
420.624	13.42
420.83	13.21
421.035	13.6
421.241	13.71
421.446	13.71
421.652	14.02
421.857	13.7
422.063	13.77
422.268	13.99
422.474	13.47
422.679	13.32
422.885	12.89
423.09	13.12
423.295	12.98
423.501	12.87
423.706	12.8
423.911	12.46
424.117	12.56
424.322	12.6
424.527	12.44
424.733	12.92
424.938	12.65
425.143	12.79
425.349	12.66
425.554	12.66
425.759	12.92
425.964	12.9
426.169	13.12
426.375	13.03
426.58	13.14
426.785	12.97
426.99	12.62
427.195	13.2
427.4	13.1
427.605	13.42
427.811	13.78
428.016	13.08
428.221	13.51
428.426	13.23
428.631	13.41
428.836	12.74
429.041	12.85
429.246	12.74
429.451	12.84
429.656	13.25
429.861	13.1
430.066	13.03
430.271	13.9
430.476	13.17
430.681	13.14
430.886	12.92
431.09	13.36
431.295	13.72
431.5	14.09
431.705	14.31
431.91	14.24
432.115	14.13
432.32	13.55
432.524	13.06
432.729	13.36
432.934	13.28
433.139	13.42
433.343	13.32
433.548	13.23
433.753	12.57
433.958	11.71
434.162	11.94
434.367	12.08
434.572	11.98
434.776	11.95
434.981	11.99
435.186	11.72
435.39	11.76
435.595	11.86
435.799	11.9
436.004	12.05
436.209	12.66
436.413	12.1
436.618	11.72
436.822	12.23
437.027	12.35
437.231	12.21
437.436	12.61
437.64	12.47
437.845	12.37
438.049	12
438.253	12.01
438.458	11.97
438.662	12.25
438.867	12.07
439.071	12.25
439.275	12.62
439.48	12.74
439.684	12.59
439.888	12.87
440.093	12.84
440.297	13.26
440.501	13.59
440.706	13.89
440.91	13.55
441.114	13.81
441.318	13.76
441.523	13.85
441.727	13.63
441.931	14.07
442.135	13.81
442.339	13.94
442.543	13.64
442.748	13.71
442.952	13.25
443.156	13.4
443.36	13.59
443.564	13.21
443.768	12.79
443.972	13.37
444.176	12.92
444.38	12.96
444.584	12.94
444.788	13
444.992	12.65
445.196	12.84
445.4	12.87
445.604	12.81
445.808	12.77
446.012	12.78
446.216	12.37
446.42	12.29
446.624	12.55
446.828	12.55
447.032	12.58
447.235	12.88
447.439	12.71
447.643	12.96
447.847	13.18
448.051	13.27
448.254	13.25
448.458	13.53
448.662	13.51
448.866	13.18
449.069	13.15
449.273	13.19
449.477	12.87
449.681	13.04
449.884	12.67
450.088	11.91
450.292	12.3
450.495	12.26
450.699	12.44
450.902	12.64
451.106	12.68
451.31	12.72
451.513	13
451.717	13.07
451.92	13.27
452.124	13.3
452.327	13.52
452.531	13.34
452.734	13.18
452.938	13.04
453.141	13.21
453.345	13.12
453.548	13.1
453.752	12.85
453.955	13.27
454.158	12.94
454.362	13.06
454.565	13
454.769	13.1
454.972	13.34
455.175	13.28
455.379	13.28
455.582	13.49
455.785	13.07
455.988	12.88
456.192	12.52
456.395	12.57
456.598	12.42
456.801	12.85
457.005	12.78
457.208	12.52
457.411	12.4
457.614	12.06
457.817	12.15
458.021	12.2
458.224	12.21
458.427	12.14
458.63	12.09
458.833	12.17
459.036	12.15
459.239	11.78
459.442	11.95
459.645	12.01
459.848	12.2
460.051	12.15
460.254	12.34
460.457	12.29
460.66	12.48
460.863	12.72
461.066	12.73
461.269	12.63
461.472	13.39
461.675	13.34
461.878	13.02
462.081	12.77
462.284	12.46
462.486	11.97
462.689	12.04
462.892	11.99
463.095	11.78
463.298	11.56
463.5	11.68
463.703	11.51
463.906	11.68
464.109	12.09
464.311	12.23
464.514	12.48
464.717	13
464.92	13.03
465.122	12.89
465.325	13.03
465.528	13.33
465.73	13.13
465.933	12.94
466.135	12.75
466.338	12.74
466.541	12.52
466.743	12.59
466.946	12.76
467.148	12.99
467.351	13.44
467.553	13.26
467.756	13.19
467.958	13.38
468.161	13.57
468.363	13.69
468.566	13.62
468.768	14.17
468.971	13.94
469.173	14.19
469.375	13.78
469.578	13.16
469.78	12.94
469.983	12.58
470.185	12.48
470.387	12.5
470.59	12.39
470.792	12.58
470.994	12.33
471.196	12.52
471.399	11.91
471.601	12.4
471.803	12.35
472.005	12.77
472.208	13.05
472.41	12.93
472.612	12.79
472.814	13.27
473.016	13
473.218	13.11
473.421	12.78
473.623	13.1
473.825	12.64
474.027	13.03
474.229	13.35
474.431	12.92
474.633	12.82
474.835	12.63
475.037	12.27
475.239	12.71
475.441	12.97
475.643	13.45
475.845	13.29
476.047	13.39
476.249	13.19
476.451	12.83
476.653	13.13
476.855	13.25
477.057	13.32
477.258	13.12
477.46	12.82
477.662	12.43
477.864	12.22
478.066	12.42
478.268	12.81
478.469	12.92
478.671	12.67
478.873	12.8
479.075	12.66
479.276	12.63
479.478	12.58
479.68	12.63
479.882	12.62
480.083	12.52
480.285	12.16
480.487	12
480.688	11.9
480.89	12.06
481.091	12.01
481.293	12.06
481.495	11.92
481.696	12.02
481.898	11.93
482.099	11.92
482.301	11.79
482.502	11.9
482.704	11.82
482.905	11.82
483.107	11.85
483.308	11.74
483.51	11.72
483.711	11.73
483.913	11.72
484.114	11.7
484.315	11.62
484.517	11.65
484.718	11.49
484.92	11.44
485.121	11.42
485.322	11.26
485.524	11.42
485.725	11.53
485.926	11.64
486.127	11.54
486.329	11.52
486.53	11.48
486.731	11.54
486.932	11.61
487.134	11.55
487.335	11.51
487.536	11.66
487.737	11.67
487.938	11.73
488.139	11.66
488.341	11.63
488.542	11.75
488.743	11.95
488.944	12.1
489.145	12.01
489.346	12.23
489.547	12.33
489.748	12.32
489.949	12.27
490.15	12.1
490.351	12.2
490.552	12.32
490.753	12.18
490.954	12.18
491.155	12.04
491.356	12.17
491.557	12.08
491.758	12.25
491.959	12.29
492.159	12.34
492.36	12.44
492.561	12.41
492.762	12.39
492.963	12.44
493.164	12.53
493.364	12.82
493.565	12.76
493.766	12.78
493.967	12.5
494.167	12.4
494.368	12.28
494.569	11.97
494.769	12.12
494.97	12.24
495.171	12.57
495.371	12.28
495.572	12.23
495.773	12.32
495.973	12.38
496.174	12.55
496.375	12.72
496.575	12.74
496.776	12.86
496.976	12.81
497.177	12.8
497.377	12.51
497.578	12.52
497.778	12.4
497.979	12.45
498.179	12.44
498.38	12.31
498.58	12.03
498.78	12.21
498.981	12.38
499.181	12.46
499.382	12.4
499.582	12.74
499.782	13.11
499.983	13.41
500.183	13.35
500.383	13.52
500.584	13.59
500.784	13.65
500.984	13.63
501.184	13.56
501.385	13.45
501.585	13.82
501.785	13.59
501.985	13.55
502.185	13.63
502.386	13.79
502.586	13.87
502.786	13.89
502.986	13.61
503.186	13.63
503.386	14.06
503.586	14.26
503.786	14.05
503.987	13.95
504.187	13.89
504.387	13.9
504.587	13.62
504.787	13.56
504.987	13.53
505.187	13.98
505.387	13.99
505.587	13.63
505.786	13.53
505.986	13.83
506.186	14.14
506.386	14.44
506.586	14.28
506.786	14.7
506.986	14.5
507.186	14.58
507.386	14.51
507.585	14.59
507.785	14.83
507.985	14.89
508.185	14.65
508.384	14.77
508.584	14.73
508.784	14.89
508.984	14.78
509.183	15.12
509.383	15.08
509.583	15.2
509.782	15.16
509.982	15.29
510.182	15.17
510.381	15.31
510.581	15.18
510.781	15.03
510.98	15.28
511.18	15.38
511.379	15.23
511.579	15.05
511.778	15.29
511.978	15.46
512.177	15.41
512.377	15.76
512.576	15.66
512.776	15.38
512.975	15.34
513.175	15.17
513.374	15.4
513.573	15.5
513.773	16.06
513.972	15.96
514.172	15.87
514.371	15.42
514.57	15.63
514.77	16.02
514.969	16.2
515.168	16.72
515.367	16.51
515.567	16.42
515.766	16.61
515.965	16.43
516.164	16.43
516.364	16.46
516.563	16.98
516.762	16.97
516.961	16.99
517.16	17.15
517.359	16.93
517.559	16.96
517.758	16.98
517.957	16.85
518.156	17.17
518.355	17.19
518.554	17.17
518.753	16.92
518.952	16.88
519.151	16.86
519.35	17.23
519.549	17.42
519.748	17.61
519.947	17.67
520.146	17.8
520.345	17.66
520.544	17.82
520.743	17.94
520.942	18.3
521.141	18.34
521.339	18.11
521.538	18.25
521.737	18.29
521.936	18.71
522.135	18.82
522.333	19.42
522.532	19.42
522.731	19.59
522.93	20.04
523.129	19.9
523.327	19.97
523.526	20.43
523.725	20.33
523.923	20.61
524.122	20.39
524.321	20.56
524.519	20.49
524.718	20.62
524.917	20.78
525.115	20.82
525.314	21.12
525.512	21.29
525.711	21.19
525.909	21.11
526.108	21.32
526.306	21.42
526.505	21.54
526.703	21.45
526.902	21.46
527.1	21.45
527.299	21.4
527.497	21.5
527.696	21.41
527.894	21.65
528.092	21.77
528.291	21.7
528.489	21.81
528.688	21.89
528.886	22.12
529.084	22.29
529.283	22.34
529.481	22.49
529.679	22.62
529.877	22.94
530.076	22.95
530.274	23.34
530.472	23.42
530.67	23.64
530.869	23.78
531.067	23.9
531.265	24.07
531.463	24.55
531.661	24.59
531.859	24.66
532.057	24.78
532.255	24.86
532.454	24.76
532.652	24.92
532.85	24.92
533.048	25.04
533.246	25.18
533.444	25.26
533.642	25.25
533.84	25.56
534.038	25.68
534.236	25.82
534.434	26.11
534.632	26.25
534.83	26.51
535.027	26.84
535.225	26.79
535.423	26.83
535.621	26.93
535.819	26.9
536.017	27.2
536.215	27.32
536.412	27.49
536.61	27.58
536.808	27.59
537.006	27.66
537.203	27.57
537.401	28
537.599	28.26
537.797	28.34
537.994	28.57
538.192	28.52
538.39	28.39
538.587	28.47
538.785	28.33
538.983	28.66
539.18	28.8
539.378	28.82
539.575	28.76
539.773	28.72
539.97	28.95
540.168	28.91
540.366	28.87
540.563	29.04
540.761	28.93
540.958	28.97
541.155	28.93
541.353	28.86
541.55	29.05
541.748	29
541.945	29.1
542.143	29.06
542.34	29.28
542.537	29.38
542.735	29.58
542.932	29.85
543.129	30.15
543.327	30.31
543.524	30.38
543.721	30.49
543.919	30.51
544.116	30.34
544.313	30.54
544.51	30.59
544.708	30.77
544.905	30.47
545.102	30.43
545.299	30.39
545.496	30.54
545.693	30.57
545.891	30.59
546.088	30.68
546.285	30.86
546.482	30.93
546.679	30.95
546.876	31.01
547.073	31.24
547.27	31.46
547.467	31.67
547.664	31.45
547.861	31.71
548.058	31.95
548.255	32.2
548.452	32.66
548.649	32.7
548.846	33.08
549.043	33.22
549.24	33.45
549.437	33.68
549.633	33.62
549.83	33.66
550.027	33.74
550.224	33.41
550.421	33.5
550.618	33.15
550.814	32.95
551.011	32.5
551.208	32.38
551.405	32.43
551.601	32.15
551.798	32.22
551.995	32.45
552.191	32.72
552.388	33.06
552.585	33.77
552.781	33.8
552.978	33.77
553.175	33.8
553.371	33.71
553.568	33.72
553.764	34.19
553.961	34.02
554.157	34.4
554.354	33.76
554.55	33.71
554.747	33.25
554.943	33.81
555.14	34.2
555.336	34.46
555.533	34.87
555.729	35.07
555.926	34.66
556.122	34.9
556.318	34.72
556.515	35.36
556.711	35.64
556.907	35.29
557.104	34.8
557.3	34.99
557.496	34.74
557.693	34.62
557.889	34.58
558.085	34.9
558.281	35.4
558.478	35.8
558.674	35.63
558.87	35.7
559.066	35.92
559.262	36.2
559.459	36.15
559.655	36.73
559.851	36.6
560.047	36.51
560.243	36.28
560.439	35.99
560.635	35.73
560.831	35.83
561.027	35.47
561.223	35.78
561.419	35.44
561.615	35.48
561.811	34.94
562.007	35.23
562.203	35.43
562.399	35.81
562.595	35.46
562.791	35.58
562.987	35.56
563.183	35.54
563.379	35.12
563.575	35.18
563.771	34.88
563.966	35.4
564.162	35.26
564.358	35.46
564.554	34.72
564.75	35.08
564.945	35.1
565.141	35.23
565.337	35.38
565.533	35.63
565.728	35.81
565.924	36.02
566.12	35.89
566.315	35.83
566.511	35.52
566.707	36.42
566.902	36.69
567.098	36.64
567.293	36.45
567.489	36.61
567.684	36.54
567.88	36.77
568.076	36.68
568.271	36.69
568.467	36.84
568.662	36.5
568.858	36.44
569.053	36.08
569.248	36.04
569.444	36.3
569.639	36.25
569.835	36.36
570.03	36.26
570.225	36.2
570.421	36.29
570.616	36.3
570.812	36.72
571.007	36.36
571.202	36.32
571.397	36.15
571.593	35.83
571.788	35.95
571.983	35.81
572.178	35.81
572.374	35.72
572.569	35.57
572.764	35.36
572.959	35.33
573.154	35.57
573.35	35.84
573.545	35.88
573.74	36.17
573.935	36.17
574.13	36.18
574.325	36.39
574.52	36.38
574.715	36.82
574.91	37.17
575.105	37.36
575.3	37.34
575.495	37.4
575.69	37.78
575.885	37.83
576.08	37.53
576.275	37.93
576.47	37.89
576.665	38.32
576.86	37.74
577.055	38.02
577.25	37.71
577.444	38.04
577.639	37.57
577.834	37.87
578.029	37.82
578.224	37.81
578.418	37.63
578.613	37.42
578.808	37.52
579.003	37.67
579.197	37.25
579.392	37.76
579.587	37.66
579.781	38.12
579.976	37.83
580.171	38.18
580.365	38.78
580.56	38.62
580.755	38.69
580.949	38.21
581.144	38.24
581.338	38.24
581.533	37.77
581.727	38.09
581.922	37.9
582.116	37.65
582.311	37.23
582.505	36.97
582.7	37.35
582.894	37.52
583.089	37.86
583.283	38.15
583.478	38.32
583.672	38.85
583.866	38.25
584.061	38.44
584.255	38.69
584.449	39.24
584.644	39.46
584.838	39.76
585.032	39.59
585.226	39.79
585.421	39.97
585.615	40.26
585.809	39.96
586.003	40.39
586.198	40.78
586.392	41.1
586.586	40.81
586.78	40.64
586.974	40.5
587.168	41.19
587.363	41.34
587.557	41.22
587.751	41.24
587.945	41.25
588.139	40.55
588.333	39.8
588.527	39.53
588.721	39.59
588.915	39.27
589.109	38.69
589.303	38.14
589.497	37.92
589.691	37.73
589.885	37.38
590.079	37.54
590.273	37.96
590.466	38.47
590.66	38.32
590.854	38.77
591.048	38.83
591.242	39.53
591.436	39.51
591.629	39.44
591.823	39.26
592.017	39.46
592.211	39.53
592.404	39.65
592.598	39.37
592.792	39.67
592.986	39.39
593.179	39.64
593.373	39.09
593.567	38.9
593.76	38.89
593.954	39.26
594.147	39.33
594.341	39.32
594.535	39.93
594.728	39.74
594.922	39.4
595.115	39.23
595.309	39.27
595.502	39.54
595.696	39.59
595.889	39.44
596.083	39.51
596.276	39.51
596.47	39.58
596.663	39.28
596.856	39.6
597.05	39.92
597.243	39.93
597.437	40.36
597.63	40.61
597.823	40.84
598.017	41.21
598.21	41.26
598.403	41.22
598.596	41.32
598.79	41.31
598.983	41.18
599.176	40.72
599.369	40.78
599.563	40.23
599.756	39.85
599.949	39.95
600.142	40.21
600.335	40.21
600.528	40.42
600.722	40.37
600.915	40.06
601.108	40.46
601.301	40.78
601.494	40.95
601.687	40.99
601.88	41.28
602.073	41.09
602.266	41
602.459	40.68
602.652	40.48
602.845	40.6
603.038	40.71
603.231	40.53
603.424	40.58
603.617	40.14
603.809	40.18
604.002	39.91
604.195	39.73
604.388	39.36
604.581	39.68
604.774	40.09
604.966	40.03
605.159	40.37
605.352	40.37
605.545	40.54
605.737	41.09
605.93	41.47
606.123	41.3
606.316	41.62
606.508	42.26
606.701	41.85
606.894	41.18
607.086	40.96
607.279	40.66
607.471	40.81
607.664	40.35
607.857	40.49
608.049	40.38
608.242	40.33
608.434	40.32
608.627	40.36
608.819	40.26
609.012	40.65
609.204	40.18
609.397	40.41
609.589	40.54
609.782	40.85
609.974	40.71
610.166	40.88
610.359	40.96
610.551	41.26
610.743	40.75
610.936	41.5
611.128	41.48
611.32	42.28
611.513	42
611.705	42.18
611.897	42.31
612.09	42.58
612.282	42.22
612.474	43.35
612.666	44.13
612.858	44.97
613.051	44.56
613.243	44.24
613.435	44.77
613.627	44.69
613.819	44.5
614.011	44.33
614.203	44.39
614.395	44.72
614.588	43.93
614.78	43.21
614.972	43.62
615.164	44.02
615.356	44.24
615.548	43.15
615.74	43.11
615.932	42.72
616.124	42.89
616.315	42.47
616.507	42.46
616.699	42.53
616.891	42.52
617.083	42.25
617.275	42.53
617.467	42.53
617.659	43.18
617.85	43.74
618.042	44.51
618.234	43.6
618.426	43.72
618.618	43.16
618.809	43.59
619.001	43.7
619.193	43.3
619.384	43.35
619.576	43.84
619.768	43.38
619.959	43.06
620.151	43.08
620.343	44
620.534	44.24
620.726	44.78
620.917	45.03
621.109	44.84
621.301	45.31
621.492	44.89
621.684	44.19
621.875	44.56
622.067	44.45
622.258	43.89
622.45	43.75
622.641	43.31
622.832	43.59
623.024	42.73
623.215	43.21
623.407	42.49
623.598	42.17
623.789	42.62
623.981	42.36
624.172	42.79
624.363	42.48
624.555	42.69
624.746	43.13
624.937	42.89
625.129	43.21
625.32	43.13
625.511	43.99
625.702	44.5
625.893	45.08
626.085	45.29
626.276	44.74
626.467	45.07
626.658	45.03
626.849	44.65
627.04	45.2
627.231	45.43
627.422	45.48
627.614	44.9
627.805	44.19
627.996	43.59
628.187	43.49
628.378	43.93
628.569	44.02
628.76	43.75
628.951	43.65
629.142	43.38
629.332	43.27
629.523	42.64
629.714	42.52
629.905	43.51
630.096	43.09
630.287	42.95
630.478	42.89
630.669	43.27
630.859	43.89
631.05	44.38
631.241	44
631.432	43.46
631.623	43.48
631.813	43.27
632.004	42.69
632.195	42.57
632.385	42.49
632.576	42.07
632.767	41.41
632.957	41.65
633.148	41.19
633.339	40.72
633.529	41.73
633.72	42.22
633.91	42.37
634.101	42.59
634.292	43.22
634.482	43.73
634.673	44.07
634.863	43.59
635.054	43.02
635.244	43.78
635.435	44.63
635.625	44.13
635.815	44.28
636.006	44.09
636.196	44.38
636.387	43.77
636.577	44.13
636.767	44.32
636.958	44.82
637.148	44.95
637.338	45.2
637.529	45.06
637.719	44.63
637.909	44.22
638.099	45.2
638.29	44.49
638.48	45.72
638.67	45.67
638.86	45.83
639.05	46.52
639.241	46.75
639.431	45.94
639.621	46.67
639.811	46.37
640.001	46.79
640.191	46.12
640.381	46.22
640.571	45.73
640.761	46.15
640.951	45.71
641.141	45.62
641.331	45.88
641.521	46.45
641.711	45.33
641.901	45.63
642.091	45.46
642.281	45.68
642.471	45.88
642.661	46.65
642.851	45.76
643.041	45.88
643.231	46.05
643.42	45.03
643.61	45.61
643.8	46.47
643.99	46.02
644.18	45.98
644.369	46.79
644.559	47.12
644.749	46.2
644.939	46.29
645.128	46.55
645.318	47.09
645.508	47.32
645.697	46.39
645.887	46.6
646.076	47.97
646.266	48.55
646.456	47.59
646.645	47.1
646.835	47.12
647.024	47.19
647.214	47.47
647.403	46.79
647.593	46.95
647.782	47.31
647.972	46.38
648.161	46.01
648.351	45.5
648.54	45.73
648.73	46.63
648.919	46.23
649.108	46.18
649.298	46.46
649.487	47.09
649.677	47.54
649.866	48.17
650.055	47.92
650.244	48.61
650.434	49.19
650.623	49.12
650.812	48.41
651.002	48.69
651.191	48.78
651.38	48.61
651.569	47.98
651.758	48.27
651.947	47.53
652.137	48.48
652.326	47.58
652.515	47.32
652.704	47.59
652.893	47.72
653.082	48.23
653.271	48.99
653.46	47.8
653.649	48.11
653.838	47.32
654.027	48.12
654.216	47.69
654.405	48.69
654.594	48.92
654.783	48.31
654.972	48.63
655.161	47.52
655.35	47.24
655.539	48.84
655.728	48.99
655.916	49.64
656.105	48.61
656.294	48.76
656.483	47.24
656.672	47.15
656.86	47.21
657.049	46.92
657.238	48.01
657.427	48
657.615	47.27
657.804	47.38
657.993	46.77
658.181	47.24
658.37	46.8
658.559	47.51
658.747	47.5
658.936	48.22
659.125	48.29
659.313	47.28
659.502	46.69
659.69	46.75
659.879	46.63
660.067	46.63
660.256	46.56
660.444	47.32
660.633	46.82
660.821	46.73
661.01	45.43
661.198	45.09
661.387	46.13
661.575	46.75
661.763	47.51
661.952	47.28
662.14	47.78
662.328	47.71
662.517	47.85
662.705	49.1
662.893	49.47
663.082	50.26
663.27	50.57
663.458	50.56
663.646	49.98
663.834	48.34
664.023	48.54
664.211	47.81
664.399	48.29
664.587	47.59
664.775	46.83
664.963	46.22
665.152	46.52
665.34	45.96
665.528	45.93
665.716	46.66
665.904	48.16
666.092	47.64
666.28	49.07
666.468	48.16
666.656	48.76
666.844	49.18
667.032	48.31
667.22	48.72
667.408	48.75
667.596	49.1
667.784	48.77
667.971	48.19
668.159	48.8
668.347	48.57
668.535	48.61
668.723	48.44
668.911	48.29
669.098	48.81
669.286	48.06
669.474	49.17
669.662	49.1
669.849	48.38
670.037	48.65
670.225	48.4
670.413	47.44
670.6	47.53
670.788	46.9
670.976	47.09
671.163	47.48
671.351	48.01
671.538	47.47
671.726	48.06
671.913	48.73
672.101	48.58
672.289	48.72
672.476	49.66
672.664	50.01
672.851	49.45
673.039	49.22
673.226	50.59
673.413	50.13
673.601	50.02
673.788	48.59
673.976	49.07
674.163	49.36
674.35	49.78
674.538	49.5
674.725	49.28
674.912	49.1
675.1	49.24
675.287	48.55
675.474	48.9
675.662	48.95
675.849	49.16
676.036	49.18
676.223	48.98
676.411	47.94
676.598	47.42
676.785	48.01
676.972	48.97
677.159	49.16
677.346	47.98
677.533	48.14
677.721	47.7
677.908	47.58
678.095	47.48
678.282	47.66
678.469	47.01
678.656	47.34
678.843	47.12
679.03	47.37
679.217	47.08
679.404	47.41
679.591	47.8
679.778	49.22
679.964	50.06
680.151	49.98
680.338	49.98
680.525	51.09
680.712	51.25
680.899	51.35
681.086	51.46
681.272	52.5
681.459	53.42
681.646	52.85
681.833	50.62
682.02	50.59
682.206	51.21
682.393	51.83
682.58	51.47
682.766	54.05
682.953	53.5
683.14	53.16
683.326	52.18
683.513	52.67
683.7	53.07
683.886	55.34
684.073	54.93
684.259	54.68
684.446	54.01
684.632	54.35
684.819	51.12
685.005	51.79
685.192	51.56
685.378	52.21
685.565	51.12
685.751	50.63
685.938	49.38
686.124	49.11
686.31	48.07
686.497	48.51
686.683	49.14
686.87	50.62
687.056	50.52
687.242	50.02
687.429	48.79
687.615	49
687.801	49.67
687.987	50.03
688.174	50.9
688.36	51.31
688.546	50.88
688.732	50.42
688.918	49.16
689.105	49.31
689.291	50.64
689.477	51.88
689.663	52.69
689.849	52.74
690.035	52.8
690.221	52.78
690.407	53.41
690.593	52.57
690.779	52.25
690.965	52.7
691.151	52.55
691.337	52.41
691.523	52.32
691.709	51.17
691.895	51.14
692.081	51.22
692.267	51.41
692.453	50.76
692.639	52.3
692.825	52.57
693.011	51.94
693.196	52.45
693.382	52.46
693.568	52.76
693.754	53.28
693.94	53.28
694.125	53.66
694.311	53.11
694.497	53.53
694.682	52.5
694.868	51.56
695.054	52.12
695.239	52.55
695.425	52.91
695.611	51.54
695.796	50.74
695.982	50.42
696.168	49.74
696.353	49.22
696.539	48.89
696.724	49.07
696.91	49.54
697.095	49.77
697.281	49.05
697.466	48.66
697.652	48.87
697.837	48.86
698.023	49.22
698.208	49.77
698.393	50.4
698.579	50.6
698.764	50.53
698.949	50.63
699.135	50.65
699.32	51.73
699.505	51.99
699.691	52.52
699.876	53.17
700.061	53.11
700.246	52.84
700.432	53.15
700.617	52.7
700.802	51.82
700.987	52.57
701.172	54.2
701.358	53.15
701.543	53.68
701.728	55.24
701.913	55.74
702.098	55.29
702.283	55.98
702.468	55.05
702.653	56.32
702.838	57.64
703.023	57.47
703.208	55.51
703.393	56.56
703.578	56.44
703.763	54.82
703.948	55.16
704.133	55.73
704.318	56.54
704.503	56.15
704.688	55.68
704.873	55.01
705.057	55.13
705.242	55.19
705.427	54.43
705.612	53.5
705.797	52.78
705.981	53.24
706.166	54.35
706.351	53.85
706.536	54.68
706.72	54.85
706.905	55.23
707.09	56.37
707.274	56.45
707.459	57.04
707.644	57.78
707.828	58.53
708.013	57.57
708.197	55.22
708.382	54.58
708.567	53.73
708.751	55.06
708.936	56.42
709.12	56.34
709.305	56.11
709.489	55.61
709.673	54.79
709.858	54.08
710.042	53.39
710.227	54.95
710.411	55.25
710.596	56.54
710.78	54.22
710.964	52.9
711.149	50.98
711.333	50.84
711.517	50.01
711.702	50.87
711.886	51.44
712.07	52.59
712.254	52.47
712.438	52.61
712.623	51.29
712.807	52.35
712.991	52.14
713.175	52.86
713.359	52.45
713.544	54.08
713.728	54.42
713.912	54.65
714.096	54.79
714.28	54.07
714.464	53.66
714.648	54.94
714.832	54.69
715.016	55.65
715.2	55.86
715.384	57.01
715.568	56.63
715.752	55.09
715.936	54.58
716.12	54.17
716.304	54.05
716.488	54.28
716.671	54.91
716.855	57.23
717.039	57.56
717.223	57.56
717.407	58.54
717.59	56.74
717.774	57.88
717.958	59.56
718.142	59.4
718.325	59.77
718.509	61.01
718.693	59.58
718.877	57.83
719.06	58.68
719.244	58.4
719.428	59.55
719.611	61.32
719.795	60.78
719.978	60.5
720.162	60.17
720.345	60.25
720.529	59.18
720.713	60.82
720.896	61.93
721.08	60.61
721.263	60.84
721.446	58.09
721.63	58.46
721.813	59.12
721.997	58.95
722.18	58.44
722.364	58.77
722.547	59.68
722.73	59.86
722.914	57.59
723.097	58.05
723.28	57.44
723.464	57.87
723.647	56.84
723.83	56.87
724.013	58.23
724.197	59.48
724.38	59.02
724.563	57.63
724.746	57.3
724.929	57.65
725.112	59.44
725.296	58.82
725.479	58.45
725.662	59.32
725.845	58.81
726.028	56.47
726.211	55.99
726.394	57.19
726.577	57.17
726.76	55.4
726.943	55.69
727.126	54.16
727.309	55.18
727.492	55.77
727.675	55.11
727.858	55.88
728.041	56.17
728.224	56.34
728.407	54.24
728.589	54.1
728.772	54
728.955	55.27
729.138	56.12
729.321	55.45
729.503	55.71
729.686	54.64
729.869	53.59
730.052	55.3
730.234	54.89
730.417	56.76
730.6	58.28
730.782	58.52
730.965	57.2
731.148	55.77
731.33	55.68
731.513	54.94
731.695	56.02
731.878	56.84
732.061	55.53
732.243	55.7
732.426	55.38
732.608	54.6
732.791	55.44
732.973	55.18
733.156	56.4
733.338	57.06
733.52	56.76
733.703	56.09
733.885	57.19
734.068	56.91
734.25	57.25
734.432	58.06
734.615	58.99
734.797	58.38
734.979	60.6
735.162	60.69
735.344	61
735.526	62.8
735.708	62.48
735.891	60.89
736.073	61.44
736.255	61.18
736.437	59.21
736.619	56.81
736.802	56.7
736.984	57.4
737.166	56.79
737.348	56.03
737.53	55.48
737.712	55.9
737.894	56.56
738.076	57.16
738.258	57.98
738.44	59.26
738.622	61.04
738.804	62.84
738.986	61.08
739.168	60.51
739.35	62.18
739.532	61.18
739.714	62.06
739.896	63.35
740.078	63.29
740.259	62.22
740.441	60.19
740.623	60.7
740.805	61.04
740.987	61.12
741.168	60.39
741.35	59.91
741.532	61.92
741.714	61.7
741.895	59.7
742.077	59.3
742.259	60.99
742.44	62.26
742.622	62.15
742.804	60.33
742.985	61.51
743.167	63.63
743.348	63.51
743.53	63.71
743.711	65.91
743.893	66.01
744.075	68.74
744.256	67.07
744.438	68.79
744.619	67.31
744.8	65.18
744.982	62.99
745.163	63.01
745.345	64.8
745.526	62.48
745.707	60.43
745.889	61.19
746.07	60.03
746.252	63.81
746.433	60.99
746.614	62.58
746.795	66.17
746.977	68.97
747.158	66.12
747.339	63.47
747.52	63.95
747.702	66.14
747.883	67.02
748.064	67.46
748.245	63.02
748.426	65.01
748.607	66.26
748.788	66.47
748.97	64.78
749.151	67.5
749.332	70.06
749.513	69.78
749.694	70.77
749.875	72.82
750.056	69.62
750.237	72.01
750.418	71.58
750.599	69.48
750.78	66.14
750.96	65.29
751.141	66.04
751.322	63
751.503	62.6
751.684	62.14
751.865	59.4
752.046	61.78
752.226	60.64
752.407	59.33
752.588	62.05
752.769	63.4
752.949	64.9
753.13	61.5
753.311	60.43
753.492	61.4
753.672	60.58
753.853	62.37
754.034	60.5
754.214	61.15
754.395	61.48
754.575	60.79
754.756	61.95
754.937	61.48
755.117	63.4
755.298	67.17
755.478	66.31
755.659	65.36
755.839	63.83
756.02	65.37
756.2	66.11
756.381	68.69
756.561	67.83
756.741	67.31
756.922	66.09
757.102	63.97
757.283	62.28
757.463	63.83
757.643	63.13
757.823	62.59
758.004	62.54
758.184	61.32
758.364	58.15
758.545	59.61
758.725	60.52
758.905	59.9
759.085	62.06
759.265	62.51
759.446	62.4
759.626	62.14
759.806	62.56
759.986	60.95
760.166	59.33
760.346	62.75
760.526	60.24
760.706	59.31
760.886	59.53
761.066	59.08
761.246	57.44
761.426	57.76
761.606	57.2
761.786	56.38
761.966	56.94
762.146	57.09
762.326	55.15
762.506	54.59
762.686	54.16
762.866	54.7
763.046	53.44
763.225	53.91
763.405	53.29
763.585	54.29
763.765	55
763.945	54.46
764.124	54.13
764.304	54.13
764.484	54.47
764.664	54.23
764.843	54.89
765.023	56.01
765.203	55.21
765.382	56.44
765.562	56.69
765.741	57.26
765.921	57.24
766.101	57.5
766.28	57.97
766.46	60.85
766.639	61.56
766.819	62.65
766.998	63.8
767.178	64.26
767.357	61.32
767.537	60.36
767.716	60.43
767.896	59.58
768.075	61.5
768.254	60.78
768.434	57.8
768.613	58.42
768.792	57.32
768.972	58.11
769.151	60.86
769.33	61.37
769.51	62.77
769.689	62.14
769.868	62.12
770.047	61.29
770.226	62.38
770.406	64.45
770.585	64.94
770.764	60.59
770.943	60.25
771.122	61.77
771.301	66.74
771.48	65.2
771.66	64.48
771.839	66.97
772.018	67
772.197	66.35
772.376	65.29
772.555	64.29
772.734	70.11
772.913	70.63
773.092	68.22
773.271	62.96
773.449	65.14
773.628	65
773.807	67.2
773.986	69.36
774.165	71.12
774.344	74.86
774.523	74.03
774.701	74.43
774.88	75.81
775.059	75.24
775.238	80.14
775.417	81.3
775.595	84.23
775.774	82.43
775.953	76.91
776.131	76.3
776.31	69.49
776.489	65.5
776.667	63.71
776.846	63.54
777.025	65.84
777.203	64.84
777.382	62.14
777.56	59.46
777.739	58.22
777.917	63.18
778.096	65.3
778.274	70.56
778.453	76.11
778.631	75.69
778.81	74.93
778.988	75.08
779.166	75.65
779.345	74.33
779.523	76.47
779.702	82.75
779.88	82.41
780.058	79.05
780.237	77.43
780.415	77.59
780.593	74.56
780.771	76.19
780.95	71.73
781.128	70.21
781.306	75.46
781.484	78.35
781.662	73.92
781.841	70.16
782.019	74.6
782.197	74.94
782.375	75.84
782.553	79.01
782.731	76.62
782.909	77.14
783.087	72.62
783.265	69.29
783.443	64.71
783.621	67.04
783.799	71.1
783.977	67.19
784.155	61.65
784.333	61.42
784.511	61.13
784.689	57.85
784.867	61.97
785.045	65.72
785.223	64.92
785.4	68.69
785.578	69.94
785.756	70.51
785.934	68.49
786.112	72.7
786.289	73.75
786.467	72.77
786.645	74.87
786.823	73.95
787	71.87
787.178	74.82
787.356	72.75
787.533	68.55
787.711	65.61
787.889	66.5
788.066	66.25
788.244	62.25
788.421	63.89
788.599	64.53
788.776	64.32
788.954	68.1
789.131	65.63
789.309	66.02
789.486	66.2
789.664	67.94
789.841	71.29
790.019	72.64
790.196	77.43
790.373	79.91
790.551	77.87
790.728	80
790.906	75.99
791.083	74.11
791.26	72.84
791.437	73.94
791.615	76.84
791.792	72.63
791.969	72.66
792.146	71.6
792.324	69.03
792.501	73.75
792.678	75.93
792.855	74.28
793.032	81.68
793.209	80.22
793.387	83.62
793.564	81.24
793.741	85.57
793.918	81.54
794.095	82.18
794.272	83.57
794.449	78.03
794.626	75.41
794.803	81.18
794.98	74.31
795.157	78.86
795.334	78.15
795.511	77.72
795.688	75.28
795.864	76.4
796.041	79.12
796.218	79.28
796.395	82.34
796.572	79.16
796.749	79.91
796.925	80.19
797.102	76.58
797.279	73.38
797.456	73.68
797.632	73.2
797.809	73.18
797.986	70.11
798.162	67.45
798.339	67.74
798.516	70.71
798.692	65.19
798.869	68.44
799.046	66.93
799.222	72.15
799.399	68.86
799.575	68.28
799.752	70.77
799.928	69.79
800.105	69.74
800.281	68.2
800.458	66.02
800.634	66.05
800.811	63.52
800.987	66.06
801.163	63.63
801.34	68.11
801.516	70.5
801.692	72.08
801.869	72.69
802.045	76.28
802.221	75.17
802.398	77.63
802.574	82.36
802.75	81.37
802.926	80.4
803.103	83.16
803.279	82.29
803.455	85.88
803.631	84.01
803.807	85.39
803.983	83.92
804.16	86.46
804.336	86.43
804.512	86.16
804.688	88.74
804.864	89.29
805.04	82.97
805.216	84.77
805.392	83.16
805.568	81.63
805.744	79.6
805.92	83.11
806.096	84.91
806.272	87.57
806.448	85.56
806.623	84.6
806.799	86.12
806.975	90.7
807.151	90.69
807.327	84.38
807.503	81.89
807.678	78.82
807.854	75.59
808.03	75.31
808.206	69.51
808.381	73.37
808.557	72.83
808.733	71.87
808.908	70.83
809.084	65.82
809.26	69.9
809.435	72.42
809.611	77.91
809.787	76.97
809.962	77.44
810.138	83.97
810.313	76.44
810.489	81.57
810.664	82.7
810.84	89.42
811.015	92.16
811.191	90.99
811.366	96.43
811.542	95.64
811.717	96.15
811.892	95.36
812.068	92.52
812.243	100.11
812.419	97.62
812.594	97.21
812.769	90.92
812.944	96.13
813.12	93.91
813.295	91.32
813.47	97.04
813.645	99.15
813.821	96.42
813.996	96.99
814.171	95.59
814.346	93.46
814.521	89.82
814.697	94
814.872	90.13
815.047	92.28
815.222	85.65
815.397	77.3
815.572	73.45
815.747	73.97
815.922	75.6
816.097	75.53
816.272	77.79
816.447	84.38
816.622	81.09
816.797	80.3
816.972	78.85
817.147	80
817.322	83.24
817.496	79.46
817.671	90.28
817.846	90.55
818.021	84.82
818.196	82.86
818.371	76.88
818.545	73.76
818.72	74.56
818.895	72.92
819.069	74.91
819.244	71.88
819.419	70.05
819.594	62.19
819.768	56.35
819.943	56.91
820.117	54.69
820.292	53.41
820.467	52.26
820.641	50.3
820.816	48.88
820.99	48.5
821.165	47.55
821.339	47.28
821.514	46.29
821.688	46.37
821.863	46.03
822.037	45.74
822.212	46.16
822.386	46.3
822.56	45.06
822.735	45.82
822.909	45.85
823.084	46.13
823.258	46.79
823.432	47.64
823.606	48.37
823.781	48.65
823.955	49.47
824.129	49.65
824.303	49.91
824.478	52.15
824.652	53.52
824.826	51.83
825	52.56
825.174	52.39
825.348	52.65
825.523	51.66
825.697	49.71
825.871	49.68
826.045	50.13
826.219	49.27
826.393	49.75
826.567	48.91
826.741	51.63
826.915	50.41
827.089	50.86
827.263	50.52
827.437	51.89
827.611	54.36
827.784	55.48
827.958	55.02
828.132	54.98
828.306	56.32
828.48	57.4
828.654	57.05
828.827	59.37
829.001	61.44
829.175	62.14
829.349	63.31
829.522	62.97
829.696	61.51
829.87	62.32
830.044	66.23
830.217	64.22
830.391	65.24
830.565	69.12
830.738	69.27
830.912	67.96
831.085	72.5
831.259	73.49
831.432	76.78
831.606	76.96
831.779	73.61
831.953	72.34
832.126	73
832.3	69.25
832.473	66.16
832.647	65.58
832.82	64.42
832.994	58.88
833.167	57.74
833.34	55.29
833.514	53.4
833.687	56.38
833.86	59.7
834.034	57.81
834.207	57.42
834.38	56.15
834.553	54.9
834.727	56.44
834.9	58.59
835.073	59.68
835.246	60.08
835.419	62.05
835.593	60.24
835.766	53.81
835.939	59.69
836.112	63.6
836.285	64.15
836.458	66.69
836.631	66.04
836.804	71.7
836.977	74.09
837.15	74.92
837.323	82.8
837.496	82.45
837.669	88.16
837.842	77.15
838.015	77.14
838.188	83.68
838.361	81.37
838.533	82.8
838.706	78.12
838.879	77.04
839.052	81.72
839.225	76.56
839.398	75.69
839.57	77.89
839.743	84.72
839.916	80.6
840.088	78.58
840.261	82.9
840.434	83.41
840.607	89.82
840.779	87.93
840.952	81.66
841.124	85.76
841.297	86.07
841.47	88.59
841.642	91.77
841.815	98.35
841.987	103.42
842.16	103.46
842.332	106.78
842.505	98.08
842.677	101.94
842.85	120.19
843.022	116.77
843.194	118.04
843.367	115.89
843.539	116.32
843.712	121.95
843.884	132.96
844.056	128.26
844.229	129.02
844.401	137.74
844.573	143.22
844.745	123.12
844.918	135.57
845.09	145.25
845.262	156.47
845.434	166.97
845.606	157.5
845.779	132.61
845.951	124.17
846.123	134.87
846.295	149.12
846.467	173.74
846.639	170.4
846.811	182.95
846.983	167.73
847.155	158.69
847.327	141.93
847.499	141.32
847.671	149.52
847.843	153.23
848.015	136.8
848.187	128.35
848.359	120.25
848.531	136.75
848.703	124.5
848.875	140.61
849.047	125.51
849.218	123.85
849.39	115.28
849.562	127.53
849.734	143.85
849.905	147.4
850.077	166.79
850.249	161.26
850.421	124.22
850.592	111.61
850.764	106.74
850.936	107.78
851.107	107.52
851.279	123.89
851.451	97.33
851.622	96.98
851.794	109.33
851.965	112.93
852.137	111.24
852.308	121.64
852.48	135.8
852.651	142.16
852.823	148.7
852.994	142.76
853.166	144.35
853.337	170.44
853.509	174.6
853.68	155.91
853.851	137.58
854.023	125.41
854.194	125.39
854.365	127.82
854.537	115.4
854.708	118.78
854.879	112.89
855.05	111.58
855.222	100.88
855.393	104.97
855.564	109.53
855.735	117.38
855.906	126.8
856.078	127.77
856.249	105.65
856.42	100.69
856.591	102.44
856.762	109.27
856.933	110.49
857.104	104.49
857.275	87.39
857.446	96.14
857.617	94.53
857.788	92.05
857.959	88.22
858.13	103.82
858.301	118.07
858.472	119.45
858.643	113.27
858.814	111.5
858.985	134.8
859.155	179.77
859.326	146.08
859.497	158.82
859.668	231.33
859.839	211.88
860.009	160.7
860.18	152.7
860.351	125.28
860.522	134.9
860.692	121.93
860.863	107.39
861.034	95.15
861.204	96.79
861.375	79.48
861.546	80.04
861.716	84.48
861.887	92.26
862.057	110.13
862.228	119.87
862.398	113.83
862.569	140.5
862.739	154.41
862.91	145.17
863.08	153.53
863.251	183.54
863.421	169.7
863.592	197.54
863.762	173.7
863.932	139.35
864.103	141.88
864.273	138.45
864.443	104.62
864.614	93.24
864.784	90.66
864.954	93.74
865.125	114.29
865.295	143.51
865.465	148.68
865.635	153.08
865.805	158.6
865.976	152.35
866.146	134.53
866.316	141.87
866.486	179.48
866.656	150.26
866.826	149.04
866.996	112.04
867.166	78.25
867.336	73.55
867.506	65.51
867.676	55.92
867.846	70.46
868.016	84.29
868.186	85.27
868.356	80.78
868.526	97.07
868.696	90.27
868.866	94.74
869.036	99.6
869.206	99.61
869.376	114.68
869.545	124.66
869.715	131.16
869.885	152.79
870.055	154.15
870.224	146
870.394	148.01
870.564	182.2
870.734	182.98
870.903	188.48
871.073	182.7
871.243	180.04
871.412	181.77
871.582	159.38
871.751	123.89
871.921	127.29
872.091	168.87
872.26	134.03
872.43	112.41
872.599	107.09
872.769	116.47
872.938	130.17
873.108	119.4
873.277	102.87
873.446	107.33
873.616	127.63
873.785	135.57
873.955	131.72
874.124	134.46
874.293	142.21
874.463	128.81
874.632	125.12
874.801	119.47
874.971	122.26
875.14	153.51
875.309	140.61
875.478	114.63
875.647	104.88
875.817	94.42
875.986	99.25
876.155	98.67
876.324	108.48
876.493	91.75
876.662	90.3
876.831	94.79
877	86.14
877.17	88.59
877.339	95.15
877.508	100.73
877.677	110.23
877.846	104.45
878.015	105.51
878.184	84.39
878.352	92.49
878.521	96.71
878.69	95.34
878.859	89.03
879.028	79.36
879.197	73.98
879.366	71.11
879.534	58.83
879.703	52.6
879.872	56.93
880.041	61.82
880.21	58.83
880.378	53.11
880.547	48.9
880.716	52.91
880.884	55.79
881.053	54.19
881.222	52.03
881.39	53.64
881.559	54
881.727	52.51
881.896	50.47
882.065	50.27
882.233	51.02
882.402	51.38
882.57	52.7
882.739	49.26
882.907	48.73
883.076	48.2
883.244	47.24
883.412	48.63
883.581	46.9
883.749	49.45
883.918	49.21
884.086	50.35
884.254	52.59
884.423	53.16
884.591	57.53
884.759	60.11
884.927	64.32
885.096	67.37
885.264	68.18
885.432	71.6
885.6	69.68
885.769	74.17
885.937	77.92
886.105	85.19
886.273	83.78
886.441	91.04
886.609	92.3
886.777	91.37
886.945	95.32
887.113	93.02
887.281	96.33
887.449	107.94
887.617	116.06
887.785	117.56
887.953	107.2
888.121	112.26
888.289	114.14
888.457	108.87
888.625	112.02
888.793	111.14
888.961	123.31
889.129	118.17
889.296	112.12
889.464	100.53
889.632	84.22
889.8	96.27
889.967	84.97
890.135	75.97
