Data from JASIL_3083_Reflection_01.txt Node
Date: Mon Nov 09 12:01:40 EST 2015
User: Geneva
Spectrometer: USB4E03002
Autoset integration time: false
Trigger mode: 4
Integration Time (sec): 1.000000E-1
Scans to average: 10
Electric dark correction enabled: false
Nonlinearity correction enabled: false
Boxcar width: 5
Stray light correction enabled: false
XAxis mode: Wavelengths
Stop averaging: false
Number of Pixels in Spectrum: 3648
>>>>>Begin Spectral Data<<<<<
177.575	-47.24
177.794	947.37
178.014	-124.49
178.233	19.65
178.452	65.22
178.672	101.07
178.891	62.55
179.11	188.54
179.33	155.31
179.549	123.49
179.768	188.54
179.987	103.55
180.207	105.18
180.426	88.47
180.645	131.7
180.864	68.24
181.084	71.47
181.303	100.47
181.522	87.6
181.741	-381.82
181.96	-46.71
182.179	104.62
182.398	7.42
182.618	47.7
182.837	40.76
183.056	114.81
183.275	208.33
183.494	-75.36
183.713	-2925
183.932	-2236.36
184.151	-144.44
184.37	-47.56
184.589	-20.42
184.808	-66.87
185.027	-7.57
185.246	-18.2
185.465	2.04
185.684	22.89
185.903	-31.91
186.122	-162.26
186.341	62.79
186.56	405.26
186.779	50.7
186.998	-24.72
187.216	-968
187.435	-11.59
187.654	242.86
187.873	62.75
188.092	-105
188.311	-6.61
188.53	34.2
188.748	25.57
188.967	52.01
189.186	53.32
189.405	65.39
189.623	76.67
189.842	100.95
190.061	190.27
190.28	191.24
190.498	719.7
190.717	321.8
190.936	188.75
191.154	128.74
191.373	95.65
191.592	184.62
191.81	313.79
192.029	98.24
192.248	55.8
192.466	47.81
192.685	56.45
192.904	45.06
193.122	85.12
193.341	81.01
193.559	95.36
193.778	125.68
193.996	195.62
194.215	255.73
194.433	390.68
194.652	344.44
194.87	370.06
195.089	509.96
195.307	1245.36
195.526	1792.59
195.744	2925.71
195.963	837.06
196.181	1144.09
196.399	338.95
196.618	237.04
196.836	184.08
197.055	193.22
197.273	148.28
197.491	97.25
197.71	78.15
197.928	82.98
198.146	80.87
198.365	71.82
198.583	98.64
198.801	81.15
199.019	130
199.238	297.22
199.456	318.35
199.674	1052.08
199.892	-3372.73
200.111	-367.53
200.329	14700
200.547	253.41
200.765	179.71
200.983	147.79
201.202	204.57
201.42	149.89
201.638	102.02
201.856	99.45
202.074	70.84
202.292	87.39
202.51	99.09
202.728	82.31
202.946	96.18
203.165	85.75
203.383	90.7
203.601	62.04
203.819	47.37
204.037	40.43
204.255	61.23
204.473	73.9
204.691	62.01
204.909	47.56
205.127	39.02
205.345	13.94
205.562	-23.44
205.78	-8.16
205.998	-7.03
206.216	3.75
206.434	18.88
206.652	23.16
206.87	20.54
207.088	6.9
207.306	18.31
207.523	26.32
207.741	31.52
207.959	27.27
208.177	-4.69
208.395	175
208.612	-1088.89
208.83	-81.71
209.048	-72.82
209.266	266.67
209.483	-181.82
209.701	-1.97
209.919	26.3
210.136	29.36
210.354	217.74
210.572	274.51
210.79	-57.39
211.007	-59.37
211.225	-44.23
211.442	-18.94
211.66	-3.1
211.878	76.38
212.095	1466.13
212.313	-1126.92
212.53	-2615.15
212.748	1084.44
212.966	2631.43
213.183	-6950
213.401	562.94
213.618	414.48
213.836	987.85
214.053	684.21
214.271	1459.62
214.488	-1.4
214.705	7.53
214.923	34.6
215.14	16.96
215.358	3.61
215.575	4.97
215.793	-37.7
216.01	-98.47
216.227	-86.34
216.445	-41.8
216.662	-14.49
216.879	-51.92
217.097	-17.45
217.314	-119.64
217.531	211.36
217.749	93.75
217.966	-460
218.183	-4200
218.4	91.67
218.618	137.25
218.835	-320.59
219.052	-104.43
219.269	-125.13
219.487	-176.7
219.704	-2248
219.921	-893.94
220.138	631.58
220.355	1062.9
220.572	417.84
220.79	239.85
221.007	247.59
221.224	207.91
221.441	175.69
221.658	130.62
221.875	135.11
222.092	98.08
222.309	99.01
222.526	71.13
222.743	77.24
222.96	51.9
223.177	64.79
223.394	40.14
223.611	40.29
223.828	25.63
224.045	24.18
224.262	14.14
224.479	27.89
224.696	25.39
224.913	33.76
225.13	18.4
225.347	41.84
225.564	41.09
225.781	41.41
225.997	51.05
226.214	55.06
226.431	51.64
226.648	47.2
226.865	28.13
227.082	23.89
227.298	21.82
227.515	14.76
227.732	4.63
227.949	2.24
228.165	5.54
228.382	1.9
228.599	3.24
228.816	8.41
229.032	8.95
229.249	10.88
229.466	11.29
229.682	17.55
229.899	22.15
230.116	33.44
230.332	32.47
230.549	16.17
230.765	7.82
230.982	1.31
231.199	-27.16
231.415	-21.07
231.632	-0.77
231.848	-0.89
232.065	-18.52
232.281	-22.31
232.498	-29.88
232.714	-40.28
232.931	-26.27
233.147	-16.87
233.364	-7.81
233.58	12.89
233.797	-3.03
234.013	-10.8
234.23	-6.99
234.446	9.76
234.662	18.76
234.879	4.23
235.095	17.24
235.312	17.81
235.528	10.82
235.744	4.88
235.961	-12.53
236.177	2.6
236.393	2.28
236.61	-1.1
236.826	-10.86
237.042	-15.12
237.258	3.88
237.475	-4.54
237.691	-2.51
237.907	-1.01
238.123	4.66
238.339	16.54
238.556	16.88
238.772	24.79
238.988	22.49
239.204	22.5
239.42	21.84
239.636	20
239.853	18.87
240.069	21.19
240.285	23.92
240.501	21.41
240.717	18.96
240.933	18.9
241.149	15.42
241.365	15.69
241.581	16.46
241.797	18.13
242.013	16.46
242.229	18.07
242.445	18.6
242.661	17.19
242.877	19.96
243.093	18.71
243.309	16.72
243.525	16.09
243.741	21.45
243.957	16.52
244.173	11.8
244.388	13.94
244.604	12.17
244.82	7.7
245.036	8.99
245.252	7.49
245.468	7.32
245.683	5.14
245.899	7.87
246.115	5.7
246.331	8.77
246.547	7.82
246.762	8.51
246.978	9.84
247.194	8.91
247.409	6.07
247.625	5.17
247.841	5.17
248.057	9.07
248.272	8.3
248.488	7.05
248.703	2.17
248.919	3.71
249.135	7.51
249.35	7.82
249.566	17.37
249.782	17.3
249.997	19.96
250.213	18.18
250.428	16.33
250.644	10.39
250.859	11.51
251.075	12.56
251.29	9.93
251.506	6.07
251.721	6.06
251.937	2.68
252.152	4.76
252.368	2.95
252.583	6.72
252.798	11.31
253.014	20.54
253.229	29.84
253.445	27.02
253.66	29.23
253.875	30.78
254.091	30.91
254.306	32.56
254.521	29.99
254.737	23.35
254.952	21.15
255.167	16.53
255.383	15.86
255.598	10.98
255.813	15.68
256.028	17.15
256.244	12.81
256.459	6.62
256.674	2.57
256.889	6.92
257.104	8.97
257.32	10.55
257.535	9.25
257.75	5.01
257.965	0.66
258.18	-1.01
258.395	-0.84
258.61	2.07
258.826	2.88
259.041	2.88
259.256	1.93
259.471	1.82
259.686	0.07
259.901	-0.45
260.116	0.55
260.331	2.92
260.546	0.26
260.761	1.04
260.976	-4.08
261.191	-3.75
261.406	-1.2
261.621	-1.5
261.836	1.27
262.05	2.37
262.265	6.72
262.48	11.13
262.695	12.08
262.91	16.2
263.125	18.08
263.34	18.02
263.555	17.92
263.769	17.66
263.984	18.61
264.199	18.96
264.414	19.32
264.629	13.91
264.843	11.76
265.058	10
265.273	10.49
265.488	7.47
265.702	10.17
265.917	8.96
266.132	7.43
266.346	5.01
266.561	4.48
266.776	7.31
266.99	7
267.205	6.08
267.42	6.19
267.634	7.1
267.849	9.87
268.063	8.19
268.278	7.86
268.492	8.14
268.707	12.91
268.922	12.84
269.136	5.63
269.351	7.55
269.565	9.88
269.78	13.24
269.994	14.28
270.209	12.21
270.423	13.98
270.637	12.37
270.852	11.21
271.066	8.94
271.281	10.89
271.495	12.87
271.709	12.9
271.924	10.44
272.138	6.89
272.353	5.29
272.567	8
272.781	6.61
272.996	9.06
273.21	10.7
273.424	9.11
273.638	2.22
273.853	1.52
274.067	-0.53
274.281	-1.81
274.495	0.61
274.71	4.06
274.924	1.25
275.138	-0.96
275.352	-7.02
275.566	-8.3
275.781	-4.8
275.995	3.66
276.209	5.14
276.423	7.16
276.637	8.65
276.851	4.59
277.065	2.05
277.279	0.45
277.493	2.78
277.707	6.51
277.921	4.29
278.135	4.58
278.349	-2.59
278.563	-5.26
278.777	-2.29
278.991	-4.94
279.205	-2.14
279.419	-6.21
279.633	-8.5
279.847	-7.91
280.061	-5.08
280.275	0.58
280.489	1.05
280.703	3.56
280.917	5.3
281.131	3.35
281.344	5.32
281.558	4.83
281.772	5.65
281.986	7.87
282.2	6.73
282.414	6.81
282.627	2.54
282.841	1.05
283.055	1.72
283.269	2.57
283.482	1.94
283.696	1.91
283.91	4.78
284.123	6.18
284.337	6.84
284.551	6.25
284.764	5.62
284.978	7.87
285.192	7.38
285.405	8.37
285.619	5.2
285.833	6.47
286.046	7.65
286.26	3.89
286.473	2.97
286.687	2.28
286.9	6.23
287.114	4.01
287.327	2.5
287.541	2.05
287.754	-1.33
287.968	-0.65
288.181	-2.71
288.395	-3.36
288.608	-1.12
288.822	0.13
289.035	-0.74
289.248	-3.83
289.462	-4.16
289.675	-4.65
289.889	-4.72
290.102	-3.84
290.315	-0.66
290.529	-0.74
290.742	-1.91
290.955	0.2
291.169	0.37
291.382	1.44
291.595	0.95
291.808	3.19
292.022	3.98
292.235	6.53
292.448	5.63
292.661	5.31
292.875	6.26
293.088	7.46
293.301	4.93
293.514	5.02
293.727	7.28
293.94	8.08
294.153	7.94
294.367	7.85
294.58	7.53
294.793	8.47
295.006	5.29
295.219	6.1
295.432	3.55
295.645	6.63
295.858	5.78
296.071	4.48
296.284	3.88
296.497	5.12
296.71	6.14
296.923	6.71
297.136	5.25
297.349	8.09
297.562	6.3
297.775	7.8
297.988	6.54
298.201	7.53
298.414	7.5
298.626	9.47
298.839	9.75
299.052	10.26
299.265	8.92
299.478	11.37
299.691	11.03
299.903	13.33
300.116	13.4
300.329	11.08
300.542	9.41
300.755	8.15
300.967	6.74
301.18	5.66
301.393	3.11
301.605	3.87
301.818	2.52
302.031	3.97
302.243	5.16
302.456	4.33
302.669	9.16
302.881	12.2
303.094	12.31
303.307	13.97
303.519	13.18
303.732	12.55
303.944	12.68
304.157	14.67
304.37	11.89
304.582	9.69
304.795	11.24
305.007	6.56
305.22	7.94
305.432	10.46
305.645	8.75
305.857	8.15
306.069	9.97
306.282	10.61
306.494	9.47
306.707	10.91
306.919	10.28
307.132	10.26
307.344	10
307.556	6.78
307.769	4.47
307.981	3.73
308.193	5.92
308.406	6.09
308.618	5.48
308.83	7.77
309.043	7.33
309.255	6.59
309.467	5.73
309.679	6.93
309.892	7.79
310.104	9.83
310.316	10.4
310.528	9.68
310.74	9.87
310.953	9.18
311.165	7.76
311.377	7.11
311.589	9.55
311.801	8.55
312.013	7.02
312.225	5.34
312.437	1.34
312.649	1.29
312.862	-0.83
313.074	-4.42
313.286	-6.11
313.498	-5.68
313.71	-1.09
313.922	-0.33
314.134	2.27
314.346	2.85
314.558	2.48
314.77	7.01
314.982	7.68
315.193	9.5
315.405	11.75
315.617	12.46
315.829	12.79
316.041	11.02
316.253	8.85
316.465	9.97
316.677	10.9
316.888	11.44
317.1	11.23
317.312	10.63
317.524	9.55
317.736	9.63
317.947	14.35
318.159	11.95
318.371	9.65
318.583	11.7
318.794	12.47
319.006	10.38
319.218	12.44
319.43	11.96
319.641	12.39
319.853	15.69
320.064	15.99
320.276	13.56
320.488	13.49
320.699	16.58
320.911	13.54
321.123	12.78
321.334	14.12
321.546	13.38
321.757	11.98
321.969	13.57
322.18	9.9
322.392	12.72
322.603	12.21
322.815	12.45
323.026	11.49
323.238	12.03
323.449	11.31
323.661	11.69
323.872	10.34
324.083	10.89
324.295	8.61
324.506	9.22
324.718	5.83
324.929	7.49
325.14	9.48
325.352	10.45
325.563	14.33
325.774	17.07
325.986	18.34
326.197	20.24
326.408	21.98
326.62	21.88
326.831	21.94
327.042	22.9
327.253	23.37
327.464	21.22
327.676	23.83
327.887	19.9
328.098	16.26
328.309	16.15
328.52	15.78
328.732	11.81
328.943	14.71
329.154	17.77
329.365	18.07
329.576	16.91
329.787	16.84
329.998	12.45
330.209	15.39
330.42	17.3
330.631	14.78
330.842	15.4
331.053	17.89
331.264	16
331.475	14.54
331.686	11.36
331.897	11.38
332.108	12.36
332.319	11.71
332.53	12.22
332.741	12.2
332.952	13.14
333.163	13.15
333.374	12.39
333.585	13.55
333.795	14.36
334.006	15.39
334.217	15.19
334.428	17.72
334.639	19.5
334.849	19.02
335.06	17.23
335.271	18.89
335.482	16.57
335.692	16.57
335.903	15.7
336.114	15.05
336.325	15.95
336.535	16.67
336.746	13.51
336.957	10.52
337.167	9.23
337.378	9.94
337.589	8.39
337.799	10.32
338.01	10.11
338.22	12.33
338.431	12.56
338.642	14.4
338.852	13.44
339.063	13.43
339.273	12.99
339.484	13.41
339.694	15.3
339.905	14.31
340.115	13.83
340.326	13.51
340.536	11.28
340.746	8.21
340.957	6.07
341.167	6.4
341.378	5.89
341.588	7.96
341.799	6.67
342.009	7.44
342.219	8.5
342.43	8.65
342.64	9.43
342.85	10.04
343.061	13.74
343.271	14.55
343.481	15.46
343.691	17.5
343.902	18.61
344.112	16.65
344.322	16.08
344.532	14.5
344.743	14
344.953	13.16
345.163	14.1
345.373	13.71
345.583	13.56
345.793	11.39
346.004	11.99
346.214	11.96
346.424	14.22
346.634	13.17
346.844	14.8
347.054	15.08
347.264	15.18
347.474	15.46
347.684	13.43
347.894	13
348.104	12.32
348.314	10.48
348.524	7.82
348.734	7.9
348.944	5.79
349.154	6.83
349.364	9.1
349.574	9.42
349.784	6.29
349.994	7.04
350.204	7.97
350.413	10.3
350.623	9.54
350.833	11.21
351.043	12.03
351.253	16.98
351.463	16.89
351.672	13.29
351.882	14.66
352.092	15.49
352.302	15.77
352.511	15.38
352.721	13.52
352.931	14.95
353.141	15.94
353.35	14.59
353.56	12.7
353.77	11.79
353.979	12.87
354.189	11.42
354.399	11.08
354.608	11.26
354.818	12.58
355.027	14.7
355.237	13.89
355.447	13.55
355.656	14.06
355.866	14.34
356.075	15.21
356.285	15.7
356.494	15.69
356.704	15.9
356.913	15.22
357.123	13.68
357.332	12.82
357.542	11.54
357.751	10.03
357.96	9.94
358.17	8.69
358.379	7.48
358.589	7.51
358.798	7.42
359.007	8
359.217	9.72
359.426	10.13
359.635	9.85
359.845	12.07
360.054	12.85
360.263	12.8
360.472	11.94
360.682	13.07
360.891	12.37
361.1	12.21
361.309	11.41
361.519	10.56
361.728	10.43
361.937	10.64
362.146	10.19
362.355	9.7
362.564	9.93
362.774	10.63
362.983	11.11
363.192	12.09
363.401	12.69
363.61	13.74
363.819	14.93
364.028	16
364.237	15.51
364.446	13.89
364.655	14.49
364.864	13.97
365.073	15.17
365.282	13.93
365.491	13.06
365.7	13.43
365.909	12.87
366.118	12.19
366.327	12.06
366.536	13.92
366.745	14.28
366.954	13.04
367.162	13.73
367.371	12.14
367.58	11.94
367.789	13.45
367.998	12.5
368.207	13.22
368.415	13.37
368.624	11.05
368.833	7.97
369.042	8.13
369.25	8.57
369.459	7.86
369.668	9.14
369.877	8.21
370.085	6.55
370.294	6.59
370.503	7.1
370.711	5.59
370.92	7
371.129	8.59
371.337	8.68
371.546	10.25
371.754	10.94
371.963	9.61
372.171	11.29
372.38	11.87
372.589	12.75
372.797	11.95
373.006	12.01
373.214	10.89
373.423	12.52
373.631	12.56
373.84	10.67
374.048	10.77
374.256	11.77
374.465	10.73
374.673	10.83
374.882	10.05
375.09	10.24
375.298	11.63
375.507	12.73
375.715	10.79
375.923	12.05
376.132	12.19
376.34	13.58
376.548	12.22
376.757	11.99
376.965	12.96
377.173	14.39
377.381	14.12
377.59	13.66
377.798	15.01
378.006	14.26
378.214	12.99
378.423	13.82
378.631	11.38
378.839	12.8
379.047	13.8
379.255	13.52
379.463	12.93
379.671	13.43
379.879	12.64
380.088	11.07
380.296	11.58
380.504	12.46
380.712	13.08
380.92	13.67
381.128	13.2
381.336	12.69
381.544	10.85
381.752	10.16
381.96	10.36
382.168	10.96
382.376	12.36
382.584	11.56
382.791	11.02
382.999	8.9
383.207	10.4
383.415	9.8
383.623	9.45
383.831	10.6
384.039	11.79
384.247	11.48
384.454	10.44
384.662	8.73
384.87	9.5
385.078	9.33
385.285	9.47
385.493	9.06
385.701	9.21
385.909	9.5
386.116	9.16
386.324	8.95
386.532	8.34
386.739	9.49
386.947	10.97
387.155	11.03
387.362	11.25
387.57	12.27
387.778	11.03
387.985	10.71
388.193	11.23
388.4	10.4
388.608	8.53
388.816	7.95
389.023	8.61
389.231	7.44
389.438	8.42
389.646	9.41
389.853	8.89
390.061	9.71
390.268	11.19
390.475	11.09
390.683	11.95
390.89	12.66
391.098	14.11
391.305	13.06
391.512	13.75
391.72	14.02
391.927	13.62
392.135	14.76
392.342	15.13
392.549	14.14
392.756	14.39
392.964	14.11
393.171	14.42
393.378	13.75
393.586	15.31
393.793	14.66
394	14.33
394.207	13.75
394.414	14.91
394.622	14.13
394.829	14.75
395.036	13.87
395.243	14.18
395.45	13.65
395.657	14.16
395.864	12.72
396.072	13.54
396.279	13.1
396.486	13.61
396.693	12.3
396.9	12.53
397.107	14.01
397.314	14.5
397.521	13.48
397.728	13.9
397.935	12.91
398.142	13.7
398.349	13.32
398.556	13.4
398.763	12.81
398.97	13.14
399.177	13.99
399.383	12.56
399.59	12.71
399.797	12.86
400.004	13.04
400.211	13.81
400.418	14.33
400.625	14.13
400.831	13.77
401.038	14.58
401.245	15.22
401.452	14.21
401.658	14.34
401.865	14.43
402.072	15.05
402.279	14.95
402.485	14.94
402.692	13.67
402.899	13.99
403.105	14.39
403.312	14.08
403.519	11.94
403.725	12.09
403.932	12.37
404.138	12.4
404.345	12.54
404.552	12.84
404.758	13.25
404.965	14.29
405.171	14.49
405.378	14.81
405.584	14.46
405.791	15.85
405.997	16.62
406.204	15.75
406.41	15.1
406.617	15.98
406.823	15.1
407.029	15.05
407.236	14.83
407.442	14.78
407.649	14.13
407.855	15.04
408.061	14.44
408.268	14.22
408.474	14.91
408.68	15.59
408.887	15.29
409.093	16.35
409.299	16.16
409.505	15.21
409.712	14.89
409.918	14.59
410.124	14.95
410.33	16.22
410.537	15.38
410.743	15.36
410.949	15.88
411.155	14.85
411.361	14.08
411.567	14.64
411.773	15.19
411.98	15.91
412.186	16.4
412.392	15.33
412.598	15.11
412.804	15.39
413.01	16.15
413.216	15.78
413.422	15.47
413.628	15.69
413.834	14.28
414.04	14.09
414.246	13.46
414.452	13.36
414.658	13.79
414.864	13.2
415.07	14.18
415.275	13.33
415.481	12.89
415.687	13.35
415.893	13.73
416.099	14.15
416.305	14.71
416.511	14.18
416.716	14.18
416.922	14.47
417.128	14.61
417.334	13.8
417.539	14.19
417.745	14.53
417.951	14.16
418.157	13.78
418.362	13.65
418.568	12.69
418.774	13.18
418.979	12.93
419.185	12.89
419.391	12.27
419.596	12.47
419.802	12.39
420.008	12.64
420.213	12.93
420.419	12.79
420.624	12.99
420.83	13.35
421.035	13.27
421.241	13.54
421.446	12.78
421.652	13.09
421.857	13.11
422.063	12.44
422.268	12.03
422.474	12.09
422.679	12.44
422.885	12.01
423.09	11.49
423.295	11.78
423.501	11.7
423.706	11.87
423.911	11.42
424.117	11.41
424.322	11.66
424.527	11.97
424.733	12.37
424.938	11.99
425.143	12.97
425.349	13.72
425.554	13.06
425.759	13.53
425.964	13.55
426.169	14.6
426.375	14.21
426.58	14.76
426.785	14.9
426.99	14.71
427.195	14.64
427.4	14.08
427.605	14.32
427.811	14.86
428.016	14.65
428.221	14.9
428.426	14.93
428.631	15.41
428.836	15.46
429.041	15.23
429.246	15.8
429.451	16.4
429.656	16.31
429.861	16.67
430.066	16.39
430.271	16.43
430.476	16.56
430.681	15.87
430.886	15.76
431.09	14.82
431.295	14.48
431.5	13.95
431.705	13.66
431.91	13.55
432.115	13.01
432.32	13.22
432.524	12.68
432.729	13.32
432.934	13.6
433.139	13.52
433.343	14.01
433.548	13.54
433.753	13.33
433.958	13.89
434.162	14.12
434.367	13.71
434.572	14.01
434.776	14.66
434.981	13.96
435.186	13.78
435.39	14.15
435.595	14.73
435.799	15.41
436.004	15.03
436.209	14.14
436.413	13.87
436.618	14.43
436.822	13.89
437.027	14.31
437.231	14.31
437.436	14.65
437.64	14.26
437.845	13.74
438.049	13.6
438.253	14.02
438.458	14.18
438.662	14.32
438.867	14.25
439.071	14.32
439.275	14.06
439.48	14.33
439.684	14.57
439.888	14.87
440.093	14.73
440.297	15.17
440.501	15.77
440.706	15.73
440.91	15.57
441.114	15.33
441.318	15.87
441.523	15.7
441.727	15.19
441.931	14.53
442.135	14.78
442.339	15.28
442.543	14.48
442.748	13.68
442.952	13.47
443.156	13.39
443.36	13.4
443.564	12.84
443.768	12.59
443.972	13.2
444.176	13.4
444.38	13.02
444.584	12.33
444.788	12.82
444.992	13.28
445.196	13.58
445.4	13.88
445.604	13.94
445.808	14.46
446.012	14.55
446.216	14.02
446.42	14
446.624	13.78
446.828	14.71
447.032	14.22
447.235	13.86
447.439	14.05
447.643	13.59
447.847	13.85
448.051	13
448.254	13.22
448.458	13.08
448.662	13.92
448.866	14.28
449.069	13.04
449.273	13.95
449.477	13.48
449.681	13.31
449.884	13.84
450.088	13.86
450.292	14.22
450.495	14.11
450.699	14.74
450.902	13.53
451.106	13
451.31	13.9
451.513	13.63
451.717	13.58
451.92	14.12
452.124	13.68
452.327	13.84
452.531	14.1
452.734	14.14
452.938	13.85
453.141	14.14
453.345	14.93
453.548	14.74
453.752	14.26
453.955	14.95
454.158	14.82
454.362	14.95
454.565	14.44
454.769	13.52
454.972	13.59
455.175	13.58
455.379	13.77
455.582	13.41
455.785	13.2
455.988	12.47
456.192	11.56
456.395	11.06
456.598	11.36
456.801	11.77
457.005	12.99
457.208	13.13
457.411	13.18
457.614	13.02
457.817	12.83
458.021	12.81
458.224	13.48
458.427	13.82
458.63	13.86
458.833	14.06
459.036	14.21
459.239	13.87
459.442	13.7
459.645	13.61
459.848	13.37
460.051	13.2
460.254	13.46
460.457	13.09
460.66	13.01
460.863	12.52
461.066	12.37
461.269	12.15
461.472	12.61
461.675	12.62
461.878	12.99
462.081	13.46
462.284	13.98
462.486	13.62
462.689	13.77
462.892	14.55
463.095	14.97
463.298	15.34
463.5	14.75
463.703	14.11
463.906	14.26
464.109	14.33
464.311	13.72
464.514	13.68
464.717	14.08
464.92	14.23
465.122	14
465.325	14.49
465.528	15.16
465.73	15.06
465.933	15.2
466.135	15.08
466.338	15.06
466.541	16.29
466.743	16.36
466.946	15.82
467.148	16.04
467.351	15.68
467.553	15.25
467.756	13.8
467.958	14.04
468.161	13.63
468.363	13.33
468.566	13.18
468.768	12.63
468.971	13.08
469.173	13.51
469.375	13.31
469.578	13.63
469.78	13.27
469.983	13.45
470.185	13.64
470.387	14.31
470.59	14.49
470.792	14.43
470.994	14.42
471.196	13.7
471.399	13.54
471.601	12.96
471.803	12.94
472.005	12.74
472.208	13.55
472.41	13.73
472.612	13.34
472.814	13.21
473.016	13.18
473.218	12.47
473.421	13.17
473.623	13.48
473.825	13.79
474.027	13.56
474.229	13.8
474.431	13.07
474.633	12.94
474.835	13.13
475.037	13.7
475.239	13.72
475.441	14.17
475.643	13.85
475.845	14.1
476.047	14.62
476.249	14.7
476.451	14.97
476.653	15
476.855	14.63
477.057	15
477.258	14.55
477.46	14.8
477.662	14.62
477.864	14.82
478.066	14.58
478.268	14.34
478.469	14.63
478.671	14.66
478.873	14.33
479.075	14.44
479.276	13.92
479.478	14
479.68	13.48
479.882	13.55
480.083	13.16
480.285	13
480.487	12.79
480.688	12.63
480.89	12.64
481.091	12.82
481.293	12.95
481.495	12.91
481.696	12.99
481.898	13.16
482.099	13.06
482.301	12.98
482.502	12.97
482.704	13.06
482.905	12.94
483.107	12.87
483.308	12.88
483.51	12.94
483.711	12.95
483.913	13.01
484.114	13.17
484.315	13.21
484.517	13.43
484.718	13.46
484.92	13.46
485.121	13.43
485.322	13.61
485.524	13.57
485.725	13.45
485.926	13.49
486.127	13.26
486.329	13.1
486.53	13.03
486.731	12.86
486.932	13.06
487.134	13.08
487.335	13.3
487.536	13.09
487.737	13.22
487.938	13.24
488.139	13.39
488.341	13.49
488.542	13.62
488.743	13.8
488.944	14.14
489.145	14.09
489.346	14.01
489.547	13.98
489.748	13.94
489.949	13.89
490.15	14.06
490.351	13.92
490.552	13.92
490.753	13.76
490.954	13.49
491.155	13.27
491.356	13.19
491.557	13.09
491.758	13.25
491.959	13.45
492.159	13.45
492.36	13.29
492.561	13.43
492.762	13.5
492.963	13.79
493.164	14.33
493.364	14.98
493.565	15.19
493.766	15.52
493.967	15.46
494.167	15.41
494.368	15.7
494.569	15.55
494.769	15.38
494.97	15.66
495.171	15.41
495.371	15.73
495.572	15.43
495.773	15.44
495.973	15.52
496.174	15.32
496.375	15.36
496.575	15.53
496.776	16.04
496.976	16.4
497.177	16.28
497.377	16.44
497.578	16.4
497.778	16.29
497.979	15.93
498.179	15.8
498.38	15.79
498.58	16.06
498.78	15.94
498.981	15.59
499.181	15.21
499.382	15.19
499.582	15.3
499.782	15.08
499.983	15.42
500.183	15.82
500.383	15.95
500.584	16.33
500.784	16.14
500.984	15.78
501.184	15.74
501.385	15.82
501.585	16.04
501.785	16.1
501.985	16.18
502.185	16.05
502.386	16.03
502.586	16.3
502.786	15.84
502.986	15.9
503.186	16.01
503.386	16.04
503.586	16.04
503.786	15.71
503.987	15.9
504.187	16.02
504.387	15.98
504.587	15.82
504.787	15.69
504.987	15.92
505.187	16.52
505.387	16.23
505.587	16.05
505.786	16.29
505.986	16.22
506.186	16.08
506.386	16.18
506.586	16.01
506.786	16.5
506.986	16.57
507.186	16.69
507.386	16.35
507.585	17.02
507.785	17.44
507.985	17.39
508.185	17.55
508.384	17.46
508.584	17.19
508.784	17.06
508.984	16.75
509.183	16.62
509.383	16.4
509.583	16.44
509.782	16.45
509.982	16.63
510.182	16.61
510.381	16.86
510.581	17.11
510.781	17.43
510.98	17.26
511.18	16.96
511.379	17.29
511.579	17.31
511.778	17.45
511.978	16.96
512.177	17.02
512.377	16.98
512.576	17.18
512.776	16.78
512.975	16.33
513.175	17.63
513.374	17.89
513.573	17.64
513.773	17.96
513.972	17.54
514.172	18.09
514.371	17.9
514.57	18.21
514.77	17.8
514.969	17.72
515.168	17.89
515.367	17.33
515.567	17.51
515.766	17.51
515.965	17.97
516.164	18.04
516.364	17.58
516.563	17.5
516.762	17.21
516.961	17.29
517.16	17.31
517.359	17.39
517.559	17.15
517.758	16.91
517.957	17.12
518.156	16.73
518.355	17.13
518.554	17.42
518.753	16.97
518.952	16.96
519.151	17.26
519.35	17.29
519.549	17.42
519.748	17.8
519.947	17.9
520.146	17.97
520.345	18.01
520.544	18.36
520.743	18.71
520.942	19.57
521.141	19.64
521.339	19.44
521.538	19.96
521.737	19.86
521.936	19.81
522.135	20.6
522.333	20.13
522.532	20.33
522.731	19.52
522.93	19.21
523.129	18.61
523.327	18.82
523.526	19.13
523.725	19.01
523.923	19.24
524.122	19.21
524.321	18.64
524.519	18.68
524.718	18.73
524.917	19.13
525.115	18.94
525.314	19.15
525.512	19.13
525.711	19.23
525.909	19.22
526.108	19.19
526.306	19.03
526.505	18.84
526.703	18.98
526.902	18.96
527.1	18.62
527.299	18.78
527.497	18.91
527.696	18.82
527.894	18.83
528.092	18.82
528.291	18.88
528.489	18.91
528.688	19.04
528.886	19.42
529.084	19.59
529.283	19.89
529.481	20.01
529.679	20.09
529.877	20.65
530.076	20.77
530.274	20.67
530.472	20.63
530.67	20.9
530.869	21.05
531.067	20.41
531.265	20.02
531.463	20.15
531.661	20.11
531.859	20.18
532.057	20.15
532.255	19.94
532.454	20.06
532.652	20.11
532.85	19.92
533.048	20.09
533.246	20.51
533.444	20.8
533.642	20.75
533.84	20.97
534.038	20.7
534.236	20.39
534.434	20.51
534.632	20.95
534.83	21.19
535.027	21.51
535.225	21.67
535.423	21.65
535.621	21.74
535.819	21.89
536.017	21.85
536.215	22.19
536.412	22.18
536.61	22.72
536.808	22.6
537.006	22.47
537.203	22.46
537.401	22.34
537.599	22.53
537.797	22.69
537.994	22.88
538.192	22.97
538.39	23.12
538.587	23.36
538.785	22.91
538.983	22.96
539.18	23.02
539.378	23.24
539.575	23.57
539.773	23.39
539.97	23.37
540.168	23.36
540.366	23.36
540.563	23.32
540.761	23.52
540.958	23.53
541.155	23.61
541.353	23.67
541.55	23.62
541.748	23.35
541.945	23.73
542.143	24.11
542.34	24.09
542.537	24.41
542.735	24.66
542.932	24.72
543.129	25.03
543.327	25.26
543.524	25.67
543.721	25.82
543.919	26.15
544.116	26.03
544.313	25.8
544.51	26.06
544.708	26.46
544.905	26.65
545.102	27.14
545.299	27.34
545.496	27.36
545.693	27.25
545.891	27.47
546.088	27.62
546.285	27.75
546.482	28.39
546.679	28.73
546.876	28.55
547.073	28.24
547.27	27.98
547.467	27.75
547.664	28.22
547.861	28.39
548.058	28.61
548.255	29.31
548.452	29.27
548.649	28.97
548.846	29.13
549.043	29.06
549.24	29.65
549.437	30.35
549.633	30.76
549.83	31.05
550.027	30.88
550.224	31.65
550.421	31.57
550.618	31.88
550.814	32.29
551.011	32.47
551.208	32.91
551.405	32.84
551.601	32.42
551.798	32.33
551.995	31.98
552.191	32.53
552.388	32.45
552.585	32.34
552.781	32.39
552.978	32.27
553.175	32.36
553.371	32.32
553.568	32.91
553.764	33
553.961	33.63
554.157	33.78
554.354	34.09
554.55	33.52
554.747	33.62
554.943	33.99
555.14	34.05
555.336	34.27
555.533	34.72
555.729	35.25
555.926	35.07
556.122	34.74
556.318	35.17
556.515	35.12
556.711	35.52
556.907	35.41
557.104	35.44
557.3	36.13
557.496	36.3
557.693	35.93
557.889	35.82
558.085	36.12
558.281	36.78
558.478	36.64
558.674	36.63
558.87	36.9
559.066	37.49
559.262	37.96
559.459	37.21
559.655	37.59
559.851	37.86
560.047	37.55
560.243	38.5
560.439	38.5
560.635	39.11
560.831	39.04
561.027	39.47
561.223	39.19
561.419	39.03
561.615	39.25
561.811	38.87
562.007	39.19
562.203	40.04
562.399	39.22
562.595	38.92
562.791	38.96
562.987	39.23
563.183	39.52
563.379	39.77
563.575	39.87
563.771	40.25
563.966	40.16
564.162	39.66
564.358	38.82
564.554	39.47
564.75	39.8
564.945	39.89
565.141	39.83
565.337	39.36
565.533	39.19
565.728	39.21
565.924	39.32
566.12	39.76
566.315	40.13
566.511	41.04
566.707	41.41
566.902	40.89
567.098	40.09
567.293	40.06
567.489	39.43
567.684	39.56
567.88	39.64
568.076	39.79
568.271	40
568.467	40.05
568.662	39.04
568.858	38.08
569.053	38.54
569.248	38.96
569.444	39.56
569.639	40.06
569.835	40.65
570.03	40.62
570.225	40.45
570.421	40.07
570.616	39.95
570.812	40.34
571.007	40.95
571.202	41.04
571.397	41.1
571.593	40.88
571.788	41.25
571.983	40.75
572.178	40.67
572.374	40.92
572.569	40.84
572.764	41.15
572.959	40.99
573.154	40.88
573.35	41.15
573.545	41.36
573.74	41.54
573.935	41.62
574.13	42.38
574.325	42.6
574.52	42.36
574.715	42.41
574.91	42.63
575.105	42.63
575.3	42.78
575.495	42.44
575.69	43.04
575.885	43.38
576.08	43.45
576.275	43.4
576.47	43.08
576.665	43.24
576.86	43.89
577.055	43.9
577.25	44.56
577.444	45.02
577.639	46.34
577.834	45.71
578.029	45.56
578.224	45.87
578.418	45.87
578.613	47.25
578.808	48.02
579.003	47.8
579.197	47.43
579.392	46.78
579.587	46.89
579.781	46.44
579.976	46.95
580.171	46.87
580.365	47.23
580.56	47.14
580.755	46.55
580.949	45.87
581.144	46.01
581.338	46.4
581.533	47.6
581.727	47.3
581.922	46.83
582.116	46.98
582.311	47.48
582.505	47.34
582.7	48.18
582.894	48.67
583.089	49.51
583.283	50.25
583.478	50.15
583.672	49.67
583.866	49.44
584.061	49.86
584.255	49.77
584.449	50.07
584.644	50.04
584.838	49.53
585.032	50
585.226	48.99
585.421	48.31
585.615	48.54
585.809	48.67
586.003	48.77
586.198	49.25
586.392	48.73
586.586	48.55
586.78	47.98
586.974	47.92
587.168	47.31
587.363	47.87
587.557	47.48
587.751	47.41
587.945	47.9
588.139	48.25
588.333	47.47
588.527	48.13
588.721	47.95
588.915	48.89
589.109	48.69
589.303	49.23
589.497	49.67
589.691	49.77
589.885	50.28
590.079	50.06
590.273	49.42
590.466	49.81
590.66	48.96
590.854	48.32
591.048	48.1
591.242	48.07
591.436	46.91
591.629	46.63
591.823	46.54
592.017	46.34
592.211	45.77
592.404	45.88
592.598	45.69
592.792	46.4
592.986	47.03
593.179	46.28
593.373	46.24
593.567	46.84
593.76	46.92
593.954	46.62
594.147	46.53
594.341	46.95
594.535	47.86
594.728	47.43
594.922	47.56
595.115	47.68
595.309	48.11
595.502	48.51
595.696	48.34
595.889	47.98
596.083	48.79
596.276	49.16
596.47	49.31
596.663	48.61
596.856	49.11
597.05	48.98
597.243	48.67
597.437	48.59
597.63	48.29
597.823	48.69
598.017	49.72
598.21	49.32
598.403	48.81
598.596	49.17
598.79	49.39
598.983	49.91
599.176	50.34
599.369	50.91
599.563	51.24
599.756	52.77
599.949	52.53
600.142	51.16
600.335	52.03
600.528	52.5
600.722	52.58
600.915	52.96
601.108	52.54
601.301	52.62
601.494	52.88
601.687	52.62
601.88	50.98
602.073	50.57
602.266	51.11
602.459	50.65
602.652	50.21
602.845	49.9
603.038	50.11
603.231	49.91
603.424	50.06
603.617	49.84
603.809	49.87
604.002	50.63
604.195	51.05
604.388	50.77
604.581	50.73
604.774	51.06
604.966	50.86
605.159	51.11
605.352	51.78
605.545	51.12
605.737	51.05
605.93	50.89
606.123	50.33
606.316	50.72
606.508	51.4
606.701	51.79
606.894	51.89
607.086	52.16
607.279	50.97
607.471	50.57
607.664	51.14
607.857	50.97
608.049	52.46
608.242	52.85
608.434	52.61
608.627	52.74
608.819	52.76
609.012	53.13
609.204	53.1
609.397	54.33
609.589	54.17
609.782	54.17
609.974	54.61
610.166	53.71
610.359	53.7
610.551	54.06
610.743	54.36
610.936	54.95
611.128	54.56
611.32	55.95
611.513	55.76
611.705	56.69
611.897	56.46
612.09	57.03
612.282	57.12
612.474	57.05
612.666	56.89
612.858	57
613.051	57.33
613.243	58.24
613.435	58.51
613.627	59.09
613.819	59.55
614.011	59.41
614.203	59.6
614.395	59.39
614.588	60.26
614.78	61.1
614.972	60.44
615.164	60.53
615.356	60.3
615.548	59.07
615.74	59.16
615.932	59.18
616.124	59.49
616.315	58.75
616.507	59.76
616.699	59.39
616.891	58.7
617.083	59.3
617.275	58.75
617.467	58.78
617.659	59.67
617.85	59.44
618.042	58.39
618.234	58.33
618.426	58.47
618.618	57.13
618.809	58.12
619.001	57.72
619.193	58.07
619.384	58.3
619.576	57.9
619.768	57.4
619.959	55.97
620.151	56.79
620.343	56.98
620.534	58.21
620.726	58.81
620.917	57.8
621.109	58.52
621.301	57.81
621.492	57.66
621.684	57.45
621.875	57.6
622.067	58.52
622.258	58.73
622.45	58.6
622.641	56.88
622.832	56.81
623.024	56.95
623.215	57.3
623.407	56.53
623.598	56.68
623.789	57.18
623.981	57.48
624.172	57.66
624.363	57.28
624.555	56.94
624.746	57.58
624.937	56.5
625.129	57.56
625.32	57.46
625.511	58.71
625.702	57.54
625.893	57.1
626.085	57.35
626.276	57.69
626.467	57.99
626.658	58.46
626.849	58.01
627.04	58.84
627.231	57.15
627.422	57.05
627.614	56.53
627.805	57.51
627.996	58.01
628.187	57.77
628.378	57.32
628.569	57.08
628.76	57.35
628.951	57.6
629.142	58.25
629.332	59.15
629.523	59.24
629.714	59.44
629.905	60.3
630.096	61.01
630.287	60.42
630.478	60.11
630.669	59.22
630.859	59.51
631.05	60.42
631.241	60.53
631.432	60.26
631.623	59.79
631.813	59.84
632.004	58.38
632.195	56.86
632.385	57.19
632.576	56.61
632.767	56.55
632.957	56.48
633.148	56.43
633.339	55.98
633.529	56.34
633.72	56.51
633.91	55.8
634.101	56.28
634.292	57.64
634.482	57.68
634.673	58.61
634.863	59.87
635.054	60.46
635.244	60.82
635.435	61.12
635.625	61.03
635.815	62.6
636.006	63.64
636.196	63.93
636.387	62.98
636.577	63.2
636.767	63.76
636.958	62.83
637.148	61.79
637.338	61.94
637.529	62.39
637.719	62.18
637.909	61.04
638.099	60.97
638.29	60.77
638.48	61.37
638.67	60.96
638.86	62.03
639.05	62.94
639.241	63.12
639.431	62.57
639.621	61.69
639.811	61.1
640.001	62.15
640.191	61.5
640.381	61.58
640.571	62.45
640.761	62.92
640.951	62.89
641.141	62.49
641.331	63.44
641.521	63.66
641.711	63.88
641.901	65.32
642.091	65.38
642.281	66.91
642.471	68.63
642.661	68.35
642.851	67.92
643.041	67.26
643.231	66.21
643.42	65.5
643.61	66.07
643.8	66.16
643.99	66.39
644.18	64.7
644.369	64.37
644.559	63.92
644.749	63.7
644.939	63.99
645.128	63.21
645.318	64.93
645.508	66.36
645.697	65.13
645.887	64.69
646.076	62.72
646.266	63.69
646.456	62.64
646.645	61.75
646.835	60.93
647.024	60.64
647.214	60.83
647.403	61.23
647.593	59.29
647.782	59.37
647.972	60.08
648.161	62.12
648.351	61.41
648.54	61.25
648.73	61.08
648.919	61.77
649.108	62.18
649.298	62.42
649.487	61.69
649.677	63.2
649.866	64.16
650.055	64.5
650.244	63.53
650.434	63.72
650.623	63.93
650.812	64.92
651.002	65.35
651.191	65.15
651.38	65.95
651.569	65.8
651.758	65.21
651.947	66.18
652.137	65.83
652.326	66.85
652.515	67.17
652.704	67.5
652.893	66.7
653.082	66.24
653.271	66.67
653.46	64.64
653.649	65.79
653.838	65.43
654.027	63.31
654.216	63.03
654.405	62.56
654.594	63.06
654.783	62.85
654.972	63.39
655.161	63.92
655.35	64.07
655.539	64.77
655.728	63.66
655.916	63.45
656.105	63.06
656.294	62.63
656.483	62.62
656.672	62.13
656.86	63.02
657.049	62.23
657.238	61.92
657.427	61.58
657.615	61.12
657.804	61.21
657.993	61.06
658.181	61.58
658.37	62.9
658.559	62.89
658.747	62.26
658.936	62.15
659.125	62.54
659.313	62.54
659.502	63.11
659.69	63.84
659.879	64.36
660.067	65.97
660.256	65.85
660.444	64.42
660.633	63.97
660.821	64.68
661.01	64.92
661.198	65.79
661.387	66.44
661.575	66.63
661.763	66.36
661.952	65.91
662.14	65.18
662.328	66.77
662.517	68.06
662.705	69.21
662.893	69.45
663.082	69.02
663.27	67.46
663.458	66.79
663.646	66.51
663.834	68.32
664.023	69.28
664.211	67.41
664.399	67.18
664.587	66.96
664.775	66.69
664.963	67.18
665.152	68.9
665.34	68.86
665.528	70.34
665.716	69.98
665.904	69.87
666.092	68.9
666.28	71.24
666.468	71.85
666.656	72.43
666.844	72.16
667.032	72.5
667.22	71.13
667.408	71.83
667.596	70.32
667.784	70.74
667.971	69.81
668.159	70.96
668.347	70.41
668.535	69.64
668.723	68.81
668.911	68.56
669.098	68.17
669.286	68
669.474	68.16
669.662	69.97
669.849	69.71
670.037	70.61
670.225	69.73
670.413	71.45
670.6	70.14
670.788	70.6
670.976	70.83
671.163	71.76
671.351	73.53
671.538	73.51
671.726	72.84
671.913	72.1
672.101	72.51
672.289	72.59
672.476	70.74
672.664	73.95
672.851	73.62
673.039	74.93
673.226	74.34
673.413	72.44
673.601	72.48
673.788	72.87
673.976	73.46
674.163	70.66
674.35	70.64
674.538	70.91
674.725	69.53
674.912	70.82
675.1	70.03
675.287	70.3
675.474	70.33
675.662	70.56
675.849	69.22
676.036	69.47
676.223	70.74
676.411	70.35
676.598	69.95
676.785	69.35
676.972	67.24
677.159	67.14
677.346	67.13
677.533	67.39
677.721	66.97
677.908	66.89
678.095	65.74
678.282	66.23
678.469	66.32
678.656	67.61
678.843	67.75
679.03	67.57
679.217	67.22
679.404	65.56
679.591	65.91
679.778	64.95
679.964	64.76
680.151	64.75
680.338	63.49
680.525	64.05
680.712	64.76
680.899	64.67
681.086	65.79
681.272	68.15
681.459	69.72
681.646	69.71
681.833	71.04
682.02	72.08
682.206	73.03
682.393	73.81
682.58	73.62
682.766	72.65
682.953	73.34
683.14	73.8
683.326	72.77
683.513	71.34
683.7	71.57
683.886	70.97
684.073	69.5
684.259	69.48
684.446	70.25
684.632	69.94
684.819	68.67
685.005	67.72
685.192	67.73
685.378	67.47
685.565	68.2
685.751	66.44
685.938	66.39
686.124	66.52
686.31	65.55
686.497	65.58
686.683	65.27
686.87	66.69
687.056	67.92
687.242	67.07
687.429	66.22
687.615	67.79
687.801	68.71
687.987	70.04
688.174	70.45
688.36	71.42
688.546	71.25
688.732	72.64
688.918	71.04
689.105	69.97
689.291	68.73
689.477	68.79
689.663	65.73
689.849	65.04
690.035	63.62
690.221	64.48
690.407	66
690.593	65.84
690.779	63.73
690.965	63.57
691.151	64.91
691.337	67.07
691.523	66.39
691.709	66.99
691.895	69.17
692.081	69.34
692.267	67.33
692.453	64.98
692.639	64.04
692.825	65.16
693.011	66.34
693.196	64.16
693.382	63.08
693.568	64.14
693.754	65.79
693.94	62.86
694.125	64.8
694.311	66.42
694.497	67.29
694.682	66.88
694.868	67.81
695.054	67.55
695.239	70.23
695.425	70.05
695.611	69.79
695.796	68.97
695.982	68.98
696.168	68.34
696.353	67.28
696.539	66.94
696.724	66.01
696.91	64.07
697.095	63.6
697.281	61.28
697.466	61.14
697.652	61.26
697.837	60.19
698.023	61.68
698.208	60.61
698.393	61.34
698.579	61.04
698.764	62.95
698.949	64.38
699.135	64.91
699.32	65.86
699.505	66.52
699.691	66.46
699.876	69.69
700.061	69.05
700.246	70.09
700.432	71.21
700.617	71.91
700.802	71.4
700.987	72.86
701.172	74.44
701.358	75.62
701.543	76.98
701.728	77.57
701.913	76.09
702.098	78.12
702.283	78.71
702.468	78.23
702.653	79.84
702.838	81.02
703.023	79.43
703.208	77.42
703.393	77.2
703.578	76.26
703.763	75.33
703.948	76.67
704.133	74.44
704.318	75.34
704.503	74.14
704.688	74.78
704.873	74.49
705.057	74.88
705.242	77.79
705.427	76.77
705.612	78.24
705.797	79.53
705.981	79.84
706.166	81.36
706.351	81.66
706.536	83.09
706.72	79.37
706.905	79.74
707.09	82.07
707.274	79.84
707.459	83.65
707.644	82.03
707.828	82.97
708.013	83.74
708.197	82.24
708.382	80.45
708.567	79.1
708.751	82.02
708.936	83.47
709.12	82.07
709.305	82.68
709.489	80.14
709.673	81.25
709.858	80.89
710.042	79.5
710.227	80.79
710.411	81.92
710.596	84.09
710.78	84.33
710.964	82.14
711.149	80.21
711.333	81.4
711.517	82.68
711.702	82.74
711.886	80.18
712.07	81.63
712.254	79.72
712.438	79.38
712.623	79.59
712.807	77.68
712.991	77.55
713.175	77.98
713.359	74.34
713.544	72.1
713.728	70.28
713.912	70.92
714.096	70.82
714.28	72.05
714.464	69.65
714.648	67.56
714.832	67.38
715.016	66.27
715.2	66.36
715.384	68.04
715.568	68.71
715.752	70
715.936	70.47
716.12	68.25
716.304	66.69
716.488	69.33
716.671	69.15
716.855	67.04
717.039	67.87
717.223	67.79
717.407	66.39
717.59	65.56
717.774	64.89
717.958	64.69
718.142	65.74
718.325	68.83
718.509	67.77
718.693	67.68
718.877	68.73
719.06	70.88
719.244	71.86
719.428	75.21
719.611	77.28
719.795	76.73
719.978	73.85
720.162	75.67
720.345	73.73
720.529	75.33
720.713	73.78
720.896	78.36
721.08	78.99
721.263	78.92
721.446	77.9
721.63	77.58
721.813	76.52
721.997	80.56
722.18	80.6
722.364	80.54
722.547	78.71
722.73	80.23
722.914	76.36
723.097	73.17
723.28	72.77
723.464	70.7
723.647	72.55
723.83	75.67
724.013	77.05
724.197	76.26
724.38	76.95
724.563	79.15
724.746	81.16
724.929	81.59
725.112	82.97
725.296	84.41
725.479	86.25
725.662	83.6
725.845	80.7
726.028	78.37
726.211	77.3
726.394	75.37
726.577	72.29
726.76	71.17
726.943	71.67
727.126	71.9
727.309	72.03
727.492	72.34
727.675	70.35
727.858	73.58
728.041	74.74
728.224	74.78
728.407	76.21
728.589	78.45
728.772	79.13
728.955	80.71
729.138	81.63
729.321	82.76
729.503	82.11
729.686	84.3
729.869	82.63
730.052	81.95
730.234	83.17
730.417	83.22
730.6	83.68
730.782	82.98
730.965	82.11
731.148	80.96
731.33	78.74
731.513	80.52
731.695	82.93
731.878	83.96
732.061	85.04
732.243	86.39
732.426	85.89
732.608	87.02
732.791	90.29
732.973	91.26
733.156	92.78
733.338	93.04
733.52	89.66
733.703	88.26
733.885	89.14
734.068	88.25
734.25	86.23
734.432	89.64
734.615	91.6
734.797	89.56
734.979	90.16
735.162	89.98
735.344	90.75
735.526	95.98
735.708	96.14
735.891	94.62
736.073	93.44
736.255	92.08
736.437	91.25
736.619	88.95
736.802	87.9
736.984	85.45
737.166	84.57
737.348	85.58
737.53	84.97
737.712	83.75
737.894	83.26
738.076	85.73
738.258	88.12
738.44	89.08
738.622	93.19
738.804	96.86
738.986	100.61
739.168	100.5
739.35	99.36
739.532	94.9
739.714	96.79
739.896	98.12
740.078	95.43
740.259	95.35
740.441	95.14
740.623	92.72
740.805	90.53
740.987	90.46
741.168	93.05
741.35	96.88
741.532	98.41
741.714	98.76
741.895	102.77
742.077	106.56
742.259	104.14
742.44	101.72
742.622	101.47
742.804	103.59
742.985	105
743.167	106.05
743.348	106.96
743.53	111.44
743.711	109.22
743.893	105.89
744.075	104.96
744.256	108.36
744.438	113.62
744.619	113.74
744.8	114.3
744.982	112.68
745.163	116.72
745.345	112.03
745.526	111.85
745.707	116.16
745.889	118.89
746.07	119.19
746.252	116.69
746.433	112.41
746.614	110.07
746.795	105.16
746.977	106.98
747.158	104.45
747.339	105.6
747.52	108.24
747.702	105.77
747.883	104.01
748.064	105.17
748.245	106.82
748.426	108.48
748.607	112.51
748.788	116.64
748.97	122.43
749.151	118.44
749.332	119.97
749.513	125.23
749.694	125.66
749.875	125.11
750.056	122.58
750.237	122.57
750.418	122.86
750.599	116.28
750.78	116.29
750.96	112.64
751.141	116.71
751.322	117.02
751.503	109.74
751.684	108.27
751.865	111.01
752.046	111.83
752.226	116.56
752.407	119.62
752.588	119.34
752.769	115.68
752.949	112.45
753.13	110.53
753.311	119.74
753.492	121.99
753.672	117.47
753.853	116
754.034	115.58
754.214	113.3
754.395	111.4
754.575	110.88
754.756	114.82
754.937	114.53
755.117	114.82
755.298	107.9
755.478	101.04
755.659	112.07
755.839	107.57
756.02	106.83
756.2	102.84
756.381	98.75
756.561	105.32
756.741	104.91
756.922	97.81
757.102	95.89
757.283	96.26
757.463	101.65
757.643	96.28
757.823	95.58
758.004	94.46
758.184	93.19
758.364	90.51
758.545	86.23
758.725	82.31
758.905	86.22
759.085	85.58
759.265	77.89
759.446	77.85
759.626	74.08
759.806	78.32
759.986	80.49
760.166	84.85
760.346	86.61
760.526	83.84
760.706	82.33
760.886	79.35
761.066	78.9
761.246	78.57
761.426	76.9
761.606	75.64
761.786	72.16
761.966	70.19
762.146	68.62
762.326	68.15
762.506	68.41
762.686	67.47
762.866	68.65
763.046	68.79
763.225	68.56
763.405	69.36
763.585	69.42
763.765	71.25
763.945	72.38
764.124	73.07
764.304	74.82
764.484	79.07
764.664	82.13
764.843	89.79
765.023	93.06
765.203	96.56
765.382	100.12
765.562	105.6
765.741	108.47
765.921	110.29
766.101	117.39
766.28	119.38
766.46	121.1
766.639	124.19
766.819	121.5
766.998	123.46
767.178	125.92
767.357	121.72
767.537	122.93
767.716	118.74
767.896	124.82
768.075	121.71
768.254	121.16
768.434	116.44
768.613	114.64
768.792	113.09
768.972	114.27
769.151	113.29
769.33	118.8
769.51	117.37
769.689	129.17
769.868	129.73
770.047	131.85
770.226	136.07
770.406	144.65
770.585	144.88
770.764	139.54
770.943	139.61
771.122	144.22
771.301	135.13
771.48	137.39
771.66	136.19
771.839	137.55
772.018	135.78
772.197	137.66
772.376	134.98
772.555	135.94
772.734	146.01
772.913	147.85
773.092	146.72
773.271	151.94
773.449	154.63
773.628	144.87
773.807	146.59
773.986	149.49
774.165	142.52
774.344	141.58
774.523	144.91
774.701	135.7
774.88	129.81
775.059	129.9
775.238	126.19
775.417	124.98
775.595	126.42
775.774	114.97
775.953	117.76
776.131	118.76
776.31	113.96
776.489	111.95
776.667	115.17
776.846	116.35
777.025	114.52
777.203	120.58
777.382	122.35
777.56	120.25
777.739	132.19
777.917	128.58
778.096	134.31
778.274	143.09
778.453	139.8
778.631	154.39
778.81	156
778.988	152.64
779.166	147.84
779.345	147.9
779.523	152.59
779.702	148.52
779.88	152.13
780.058	153.23
780.237	144.41
780.415	148.35
780.593	134.84
780.771	146.52
780.95	154.36
781.128	149.86
781.306	144.81
781.484	140.91
781.662	148.73
781.841	145.98
782.019	142.7
782.197	152.5
782.375	155.65
782.553	155.38
782.731	149.66
782.909	149.8
783.087	158.1
783.265	182.75
783.443	177.29
783.621	159.41
783.799	166.06
783.977	173.16
784.155	162.46
784.333	167.54
784.511	173.58
784.689	168.68
784.867	165.15
785.045	181.29
785.223	160.04
785.4	167.04
785.578	168.79
785.756	164.12
785.934	149.3
786.112	141.25
786.289	128.87
786.467	119.65
786.645	115.9
786.823	118.56
787	112.61
787.178	117.75
787.356	114.46
787.533	112.26
787.711	111.72
787.889	120.55
788.066	129.49
788.244	137.72
788.421	144.34
788.599	136.01
788.776	131.38
788.954	126.24
789.131	114.66
789.309	112.23
789.486	107.95
789.664	113.76
789.841	105.96
790.019	104.19
790.196	99.03
790.373	97.46
790.551	111.45
790.728	114.94
790.906	115.37
791.083	112.92
791.26	117.59
791.437	124.88
791.615	115.6
791.792	117.57
791.969	118.66
792.146	129.59
792.324	127.08
792.501	121.43
792.678	119.81
792.855	124.61
793.032	129.68
793.209	129.8
793.387	135.48
793.564	127.43
793.741	132.61
793.918	125.79
794.095	120.6
794.272	128.57
794.449	128.15
794.626	121.92
794.803	111.77
794.98	116.05
795.157	117.5
795.334	110.21
795.511	120.47
795.688	112.28
795.864	111.61
796.041	109.08
796.218	101.32
796.395	98.42
796.572	102.92
796.749	110.68
796.925	107.44
797.102	109.39
797.279	115.55
797.456	115.89
797.632	124.65
797.809	133.19
797.986	140.49
798.162	142.91
798.339	143.58
798.516	136.34
798.692	125.48
798.869	118.2
799.046	114.15
799.222	114.47
799.399	105.2
799.575	99.1
799.752	96.98
799.928	90.72
800.105	89.45
800.281	91.27
800.458	102.79
800.634	109.46
800.811	110.98
800.987	118.59
801.163	112.91
801.34	122.12
801.516	118.85
801.692	123.56
801.869	127.81
802.045	126.27
802.221	127.68
802.398	127.37
802.574	132.89
802.75	136.43
802.926	139.19
803.103	146.75
803.279	141.88
803.455	145.92
803.631	142.19
803.807	131.85
803.983	143.68
804.16	141.22
804.336	137.4
804.512	122.2
804.688	128.95
804.864	117.36
805.04	113.62
805.216	115.96
805.392	113.96
805.568	114.55
805.744	132.08
805.92	115.22
806.096	116.43
806.272	128.51
806.448	140.55
806.623	144.55
806.799	152.84
806.975	148.37
807.151	157.45
807.327	168.65
807.503	202.57
807.678	194.84
807.854	232.38
808.03	200.11
808.206	172.31
808.381	155.2
808.557	151.28
808.733	150.87
808.908	152.17
809.084	147.4
809.26	153.76
809.435	119.17
809.611	113.67
809.787	101.91
809.962	105.4
810.138	106.98
810.313	114.57
810.489	106.3
810.664	105.2
810.84	110.91
811.015	101.38
811.191	91.48
811.366	103.28
811.542	100.53
811.717	108.22
811.892	112.88
812.068	104.26
812.243	107.21
812.419	102.83
812.594	106.46
812.769	103.35
812.944	100.28
813.12	124.12
813.295	119.95
813.47	110
813.645	112.7
813.821	114.84
813.996	107.71
814.171	105.37
814.346	125
814.521	105.78
814.697	112.55
814.872	111.21
815.047	104.46
815.222	115.21
815.397	122.9
815.572	117.49
815.747	122.26
815.922	133.12
816.097	140.09
816.272	126.98
816.447	123.62
816.622	114.82
816.797	116.41
816.972	105.23
817.147	95.72
817.322	91.33
817.496	94.3
817.671	91.52
817.846	83.5
818.021	74.18
818.196	75.3
818.371	73.08
818.545	71.04
818.72	74.45
818.895	75.49
819.069	76.14
819.244	72.33
819.419	66.03
819.594	61.96
819.768	58.85
819.943	58.36
820.117	53.94
820.292	54.91
820.467	52.47
820.641	48.3
820.816	47.15
820.99	46.21
821.165	48.19
821.339	48.96
821.514	48.76
821.688	50.31
821.863	51.13
822.037	52.33
822.212	51.7
822.386	52.85
822.56	57.01
822.735	60.52
822.909	64.34
823.084	63.9
823.258	65.65
823.432	64.36
823.606	66.39
823.781	65.74
823.955	68.85
824.129	73.16
824.303	72.11
824.478	75.32
824.652	70.95
824.826	72.27
825	72.11
825.174	67.17
825.348	69.05
825.523	67.11
825.697	67.56
825.871	62.96
826.045	61.94
826.219	63.74
826.393	60.9
826.567	61.02
826.741	57.95
826.915	57.81
827.089	59.15
827.263	62.72
827.437	62.63
827.611	65.46
827.784	64.47
827.958	66.39
828.132	67.06
828.306	68.87
828.48	71.91
828.654	77.42
828.827	79.56
829.001	84.3
829.175	81.25
829.349	73.38
829.522	74.01
829.696	83.76
829.87	80.9
830.044	86.41
830.217	86.03
830.391	86.96
830.565	88.01
830.738	90.26
830.912	76.58
831.085	69.96
831.259	87.59
831.432	81.09
831.606	78.42
831.779	87.6
831.953	75.55
832.126	67.38
832.3	64.03
832.473	61.59
832.647	60.46
832.82	63.63
832.994	64.16
833.167	61.07
833.34	65.2
833.514	68.69
833.687	62.69
833.86	65.38
834.034	72
834.207	75.16
834.38	73.27
834.553	74.94
834.727	76.54
834.9	80.6
835.073	80.21
835.246	81.48
835.419	77.17
835.593	92.69
835.766	102.69
835.939	95.07
836.112	96.19
836.285	109.15
836.458	111.06
836.631	126.07
836.804	117.7
836.977	132.58
837.15	157.39
837.323	141.47
837.496	102.8
837.669	107.9
837.842	137.06
838.015	145.74
838.188	149.91
838.361	128.58
838.533	115.43
838.706	105.53
838.879	108.5
839.052	83.43
839.225	90.68
839.398	109.83
839.57	103.27
839.743	98.78
839.916	88.8
840.088	92.26
840.261	106.43
840.434	118.11
840.607	137.8
840.779	147.71
840.952	170.28
841.124	167.78
841.297	152.83
841.47	174.25
841.642	161.21
841.815	158.63
841.987	142.84
842.16	133.52
842.332	144.6
842.505	143.93
842.677	128.57
842.85	137.16
843.022	139.43
843.194	123.79
843.367	130.04
843.539	150.77
843.712	148.15
843.884	161.33
844.056	200.71
844.229	198.36
844.401	212.56
844.573	219.34
844.745	201.61
844.918	203.04
845.09	246.33
845.262	227.33
845.434	168.1
845.606	157.28
845.779	174.52
845.951	147.9
846.123	101.38
846.295	99.14
846.467	107.14
846.639	120.99
846.811	140.81
846.983	142.35
847.155	160.18
847.327	198.5
847.499	275.06
847.671	293.99
847.843	696.48
848.015	2783.87
848.187	-1844.44
848.359	2094.74
848.531	-1131.48
848.703	20100
848.875	-662.77
849.047	830.85
849.218	290.35
849.39	222.36
849.562	172.73
849.734	166.25
849.905	295.43
850.077	345.88
850.249	313
850.421	1292.16
850.592	370.45
850.764	422.7
850.936	1832
851.107	10783.33
851.279	636.22
851.451	331.27
851.622	360.21
851.794	254.15
851.965	210.46
852.137	214.6
852.308	163.58
852.48	215.97
852.651	206.93
852.823	258.31
852.994	210.83
853.166	237.87
853.337	239.16
853.509	193.19
853.68	227.16
853.851	236.48
854.023	286.44
854.194	342.66
854.365	392.82
854.537	308.95
854.708	257.8
854.879	363.54
855.05	301.08
855.222	331.38
855.393	533.08
855.564	314.08
855.735	318.43
855.906	414.09
856.078	276.77
856.249	256.54
856.42	199.01
856.591	166.03
856.762	153.78
856.933	211.5
857.104	204.95
857.275	198.86
857.446	240.27
857.617	196.93
857.788	177.17
857.959	186.05
858.13	179.66
858.301	222.57
858.472	209.57
858.643	156.3
858.814	157.52
858.985	194.39
859.155	202.54
859.326	202.74
859.497	557.98
859.668	181.71
859.839	224.69
860.009	212.58
860.18	232.68
860.351	220.63
860.522	268.94
860.692	232.27
860.863	179.24
861.034	157.01
861.204	156.32
861.375	111.17
861.546	158.63
861.716	188.42
861.887	199.81
862.057	222.7
862.228	213.05
862.398	227.62
862.569	228.68
862.739	173.93
862.91	131.17
863.08	168.1
863.251	257.31
863.421	269.57
863.592	195.22
863.762	218.02
863.932	383.52
864.103	-201.16
864.273	-957.14
864.443	-294.17
864.614	-125.55
864.784	-122.25
864.954	-2070
865.125	9957.14
865.295	-789.55
865.465	-984.21
865.635	-6262.5
865.805	803.8
865.976	-8566.67
866.146	-1265.91
866.316	-1952
866.486	1002.38
866.656	-314.47
866.826	-121.67
866.996	-500
867.166	305.59
867.336	441.56
867.506	755.71
867.676	185.96
867.846	159.32
868.016	159.77
868.186	167.62
868.356	118.9
868.526	73.4
868.696	102.6
868.866	168.31
869.036	252.6
869.206	135.07
869.376	137.09
869.545	1600
869.715	1160.53
869.885	215.94
870.055	172.11
870.224	496.51
870.394	-947.62
870.564	661.19
870.734	307
870.903	155.08
871.073	209.16
871.243	141.71
871.412	118.7
871.582	92.21
871.751	107.98
871.921	90.46
872.091	98.51
872.26	101.96
872.43	109.17
872.599	139.65
872.769	128.82
872.938	111.48
873.108	82.24
873.277	67.47
873.446	78.83
873.616	73.87
873.785	73.54
873.955	65.47
874.124	67.52
874.293	83.95
874.463	75.52
874.632	91.75
874.801	126.34
874.971	210.4
875.14	225.26
875.309	245.29
875.478	427.46
875.647	428.57
875.817	276.08
875.986	214.19
876.155	126.78
876.324	130.59
876.493	113.04
876.662	97.34
876.831	84.07
877	102.07
877.17	112.57
877.339	106.1
877.508	105.79
877.677	109.07
877.846	117.68
878.015	133.94
878.184	112.72
878.352	129.46
878.521	115.89
878.69	113.06
878.859	72.04
879.028	60.42
879.197	61.58
879.366	70.11
879.534	82.53
879.703	70.63
879.872	72.84
880.041	81.24
880.21	76.95
880.378	80.67
880.547	75.97
880.716	72.76
880.884	69.13
881.053	68.37
881.222	61.95
881.39	52.83
881.559	56.47
881.727	62.32
881.896	58.99
882.065	65.06
882.233	62.13
882.402	66.1
882.57	61.59
882.739	66.98
882.907	68.9
883.076	73.03
883.244	82.43
883.412	87.75
883.581	86
883.749	78.15
883.918	69.13
884.086	76.02
884.254	74.05
884.423	74.56
884.591	81.05
884.759	85.86
884.927	105.55
885.096	103.19
885.264	110.14
885.432	125.23
885.6	152.06
885.769	198.2
885.937	159.3
886.105	180.42
886.273	268.14
886.441	227.73
886.609	496.69
886.777	282.99
886.945	-174.43
887.113	-164.91
887.281	-21750
887.449	-240.12
887.617	0
887.785	-185.46
887.953	-196.94
888.121	-247.74
888.289	-170.34
888.457	-879.45
888.625	-24366.67
888.793	3405
888.961	6537.5
889.129	865.31
889.296	272.99
889.464	977.08
889.632	280.56
889.8	241.18
889.967	268.89
890.135	160
