Data from JASIL_2911_Reflection_2.txt Node
Date: Sat Nov 07 20:29:31 EST 2015
User: Geneva
Spectrometer: USB4E03002
Autoset integration time: false
Trigger mode: 4
Integration Time (sec): 1.000000E-1
Scans to average: 10
Electric dark correction enabled: true
Nonlinearity correction enabled: false
Boxcar width: 5
Stray light correction enabled: false
XAxis mode: Wavelengths
Stop averaging: false
Number of Pixels in Spectrum: 3648
>>>>>Begin Spectral Data<<<<<
177.575	153.71
177.794	178.34
178.014	111.3
178.233	100.11
178.452	85.44
178.672	96.76
178.891	-1031.4
179.11	204.08
179.33	126.19
179.549	125.7
179.768	112.6
179.987	96.25
180.207	107.54
180.426	80.67
180.645	81.39
180.864	76.83
181.084	79.73
181.303	84.9
181.522	90.36
181.741	101.37
181.96	99.18
182.179	98.28
182.398	106.51
182.618	89.97
182.837	78.2
183.056	58.86
183.275	51
183.494	42.59
183.713	31.81
183.932	28.3
184.151	29.76
184.37	36.07
184.589	40.73
184.808	38.21
185.027	38.15
185.246	43.64
185.465	53.58
185.684	49.12
185.903	57.34
186.122	66.9
186.341	54.3
186.56	55.69
186.779	61.03
186.998	64.93
187.216	70.27
187.435	61.5
187.654	70.27
187.873	59.08
188.092	71.58
188.311	57.53
188.53	56.27
188.748	61.42
188.967	57.17
189.186	52.02
189.405	50.44
189.623	49.61
189.842	61.04
190.061	58.95
190.28	60.11
190.498	54.39
190.717	58.66
190.936	56.18
191.154	49.73
191.373	46.17
191.592	35.48
191.81	24.1
192.029	33.87
192.248	33.92
192.466	34.3
192.685	34.44
192.904	34.99
193.122	32.85
193.341	29.14
193.559	33.6
193.778	44.85
193.996	51.6
194.215	62.93
194.433	64.25
194.652	57.86
194.87	62.9
195.089	67.39
195.307	75.58
195.526	81.91
195.744	85.55
195.963	85.91
196.181	80.71
196.399	76.34
196.618	75.11
196.836	79.08
197.055	78.99
197.273	79.28
197.491	75.62
197.71	72.33
197.928	71.92
198.146	71.64
198.365	61.43
198.583	52.69
198.801	50.85
199.019	42.62
199.238	36.8
199.456	34.6
199.674	29.64
199.892	33.23
200.111	35.54
200.329	40.91
200.547	35.01
200.765	38.15
200.983	34.92
201.202	46.93
201.42	43.35
201.638	36.79
201.856	33.15
202.074	38.2
202.292	34.86
202.51	31.18
202.728	33.94
202.946	39.17
203.165	46
203.383	50.75
203.601	46.89
203.819	49.21
204.037	51.89
204.255	60.97
204.473	56
204.691	59.73
204.909	62.93
205.127	58.08
205.345	55.67
205.562	50.45
205.78	47.36
205.998	49.92
206.216	47.44
206.434	50.28
206.652	51.82
206.87	60.51
207.088	53.35
207.306	56.59
207.523	57.19
207.741	54.66
207.959	57.84
208.177	58.5
208.395	52.88
208.612	56.93
208.83	54.29
209.048	49.01
209.266	40.99
209.483	42.36
209.701	40.87
209.919	34.68
210.136	37.88
210.354	41.45
210.572	36.18
210.79	44.05
211.007	46.57
211.225	46.76
211.442	38.92
211.66	40.04
211.878	44.31
212.095	78.31
212.313	75.28
212.53	75.73
212.748	66.17
212.966	75.13
213.183	70.46
213.401	60.5
213.618	61.29
213.836	71.59
214.053	75.62
214.271	70.72
214.488	31.37
214.705	34.19
214.923	29.83
215.14	31.15
215.358	30.83
215.575	32.24
215.793	38.86
216.01	37.2
216.227	38.36
216.445	36.39
216.662	34.57
216.879	36.39
217.097	35.82
217.314	38.37
217.531	42.24
217.749	45.2
217.966	44.34
218.183	37.27
218.4	32.51
218.618	31.43
218.835	26.38
219.052	24.9
219.269	28.15
219.487	27.92
219.704	30.38
219.921	24.33
220.138	26.47
220.355	22.09
220.572	24.03
220.79	26.74
221.007	24.59
221.224	25.52
221.441	30.75
221.658	34.17
221.875	36.35
222.092	34.46
222.309	37.37
222.526	30.29
222.743	35.13
222.96	36.69
223.177	36.08
223.394	34.15
223.611	33.62
223.828	30.87
224.045	28.62
224.262	25.95
224.479	24.9
224.696	25.32
224.913	25.6
225.13	22.48
225.347	19.62
225.564	19.66
225.781	19.35
225.997	19.24
226.214	19.16
226.431	17.24
226.648	16.95
226.865	17.01
227.082	16.2
227.298	15.11
227.515	15.23
227.732	15.68
227.949	15.71
228.165	15.86
228.382	15.39
228.599	15.29
228.816	15.54
229.032	15.17
229.249	15.08
229.466	15.44
229.682	16.21
229.899	15.9
230.116	15.71
230.332	14.28
230.549	14.46
230.765	15.1
230.982	14.01
231.199	14.41
231.415	14.62
231.632	15.15
231.848	14.51
232.065	13.58
232.281	14.63
232.498	15.11
232.714	16.73
232.931	16.64
233.147	16.4
233.364	16.33
233.58	16.05
233.797	16.42
234.013	16.34
234.23	15.82
234.446	15.86
234.662	14.84
234.879	15.24
235.095	15.25
235.312	15.27
235.528	16.46
235.744	16.5
235.961	16.51
236.177	15.4
236.393	14.6
236.61	14.73
236.826	15.54
237.042	16.16
237.258	15.44
237.475	15.39
237.691	15.81
237.907	13.68
238.123	13.41
238.339	13.42
238.556	14.24
238.772	14.52
238.988	14.49
239.204	13.73
239.42	13.78
239.636	13.92
239.853	13.64
240.069	12.97
240.285	13.34
240.501	13.48
240.717	13.63
240.933	13.29
241.149	13.13
241.365	13.11
241.581	13.47
241.797	13.21
242.013	12.9
242.229	13.1
242.445	13.25
242.661	13.22
242.877	13.21
243.093	13.03
243.309	12.71
243.525	12.8
243.741	12.94
243.957	12.37
244.173	12.21
244.388	12.27
244.604	11.65
244.82	11.02
245.036	10.9
245.252	11.03
245.468	10.73
245.683	10.93
245.899	10.57
246.115	10.56
246.331	10.71
246.547	10.62
246.762	10.63
246.978	10.75
247.194	10.83
247.409	10.71
247.625	10.47
247.841	10.57
248.057	10.71
248.272	10.71
248.488	10.4
248.703	9.92
248.919	10.31
249.135	10
249.35	9.57
249.566	9.84
249.782	9.92
249.997	10.08
250.213	9.95
250.428	9.71
250.644	10.46
250.859	10.82
251.075	11.22
251.29	10.53
251.506	10.41
251.721	10.54
251.937	10.49
252.152	10.44
252.368	10.31
252.583	10.6
252.798	10.53
253.014	9.83
253.229	9.58
253.445	8.93
253.66	9.53
253.875	9.62
254.091	9.6
254.306	9.21
254.521	9.36
254.737	9.3
254.952	8.7
255.167	8.6
255.383	8.94
255.598	8.86
255.813	8.79
256.028	8.58
256.244	8.41
256.459	8.41
256.674	8.22
256.889	7.6
257.104	7.45
257.32	7.97
257.535	7.95
257.75	7.7
257.965	7.82
258.18	7.98
258.395	7.8
258.61	7.88
258.826	7.76
259.041	7.95
259.256	8.11
259.471	8.18
259.686	7.97
259.901	8
260.116	8.12
260.331	7.83
260.546	7.79
260.761	7.93
260.976	7.98
261.191	8.02
261.406	7.82
261.621	7.74
261.836	7.46
262.05	7.64
262.265	7.57
262.48	7.21
262.695	7.68
262.91	7.9
263.125	7.96
263.34	8.13
263.555	8.71
263.769	8.83
263.984	9.12
264.199	9.27
264.414	9.11
264.629	9.18
264.843	9.5
265.058	9.68
265.273	8.99
265.488	8.53
265.702	8.31
265.917	8.15
266.132	8.15
266.346	8.12
266.561	8.31
266.776	8.49
266.99	8.27
267.205	8.45
267.42	8.28
267.634	8.49
267.849	8.85
268.063	8.77
268.278	8.77
268.492	8.74
268.707	8.36
268.922	8.37
269.136	8.11
269.351	8.07
269.565	7.88
269.78	7.71
269.994	7.68
270.209	7.7
270.423	7.68
270.637	7.61
270.852	7.57
271.066	7.92
271.281	7.9
271.495	7.92
271.709	8.07
271.924	7.97
272.138	7.95
272.353	7.98
272.567	7.87
272.781	7.92
272.996	7.81
273.21	7.91
273.424	7.72
273.638	7.53
273.853	7.62
274.067	7.48
274.281	7.67
274.495	7.97
274.71	8.11
274.924	7.86
275.138	7.72
275.352	7.76
275.566	7.6
275.781	7.71
275.995	7.87
276.209	7.71
276.423	7.77
276.637	7.73
276.851	7.45
277.065	7.31
277.279	7.25
277.493	7.31
277.707	7.22
277.921	7.27
278.135	6.6
278.349	6.46
278.563	6.5
278.777	6.53
278.991	6.48
279.205	6.64
279.419	6.52
279.633	6.88
279.847	7.07
280.061	7.04
280.275	6.85
280.489	7.5
280.703	7.4
280.917	7.46
281.131	7.49
281.344	7.37
281.558	7.04
281.772	7.16
281.986	6.97
282.2	6.65
282.414	6.6
282.627	6.47
282.841	6.45
283.055	6.72
283.269	6.55
283.482	6.51
283.696	6.48
283.91	6.6
284.123	6.58
284.337	6.68
284.551	6.64
284.764	6.77
284.978	6.86
285.192	6.68
285.405	6.47
285.619	6.56
285.833	6.6
286.046	6.57
286.26	6.6
286.473	6.37
286.687	6.18
286.9	6.47
287.114	6.36
287.327	6.4
287.541	6.41
287.754	6.58
287.968	6.58
288.181	6.51
288.395	6.72
288.608	6.74
288.822	6.89
289.035	6.88
289.248	6.81
289.462	7
289.675	6.86
289.889	6.93
290.102	6.81
290.315	6.74
290.529	6.83
290.742	6.77
290.955	6.82
291.169	6.98
291.382	7.08
291.595	7.23
291.808	7.08
292.022	7.06
292.235	7.07
292.448	7.02
292.661	6.92
292.875	6.67
293.088	6.59
293.301	6.39
293.514	6.22
293.727	6.28
293.94	6.14
294.153	6
294.367	6.26
294.58	6.07
294.793	6.13
295.006	6.13
295.219	6.34
295.432	6.27
295.645	6.26
295.858	6.19
296.071	6.07
296.284	5.93
296.497	6.08
296.71	6.1
296.923	6.26
297.136	6.17
297.349	6.29
297.562	6.12
297.775	6.14
297.988	6.21
298.201	6.38
298.414	6.62
298.626	6.74
298.839	6.66
299.052	6.8
299.265	6.83
299.478	6.96
299.691	7.17
299.903	7.06
300.116	7.24
300.329	7.27
300.542	7.36
300.755	7.39
300.967	7.35
301.18	7.34
301.393	7.03
301.605	6.96
301.818	6.95
302.031	6.82
302.243	7.03
302.456	7.01
302.669	7.01
302.881	7.29
303.094	7.18
303.307	7.02
303.519	7.11
303.732	7.16
303.944	7.16
304.157	7.25
304.37	7.28
304.582	7.22
304.795	7.14
305.007	7.27
305.22	7.06
305.432	6.9
305.645	7.23
305.857	7.15
306.069	6.84
306.282	7.01
306.494	7.02
306.707	6.84
306.919	6.64
307.132	6.35
307.344	6.3
307.556	6.29
307.769	6.47
307.981	6.35
308.193	6.4
308.406	6.74
308.618	6.53
308.83	6.33
309.043	6.31
309.255	6.56
309.467	6.84
309.679	6.88
309.892	6.77
310.104	6.74
310.316	6.68
310.528	6.63
310.74	6.56
310.953	6.48
311.165	6.53
311.377	6.41
311.589	6.49
311.801	6.36
312.013	6.28
312.225	6.34
312.437	6.48
312.649	6.64
312.862	6.73
313.074	6.55
313.286	6.61
313.498	6.58
313.71	6.79
313.922	6.83
314.134	6.97
314.346	6.99
314.558	7.06
314.77	7.07
314.982	7.16
315.193	6.87
315.405	7.1
315.617	7.02
315.829	7.06
316.041	7.24
316.253	7.03
316.465	6.98
316.677	7.1
316.888	7.11
317.1	7.04
317.312	6.88
317.524	7.16
317.736	7.32
317.947	7.55
318.159	7.68
318.371	7.45
318.583	7.69
318.794	7.59
319.006	7.43
319.218	7.27
319.43	7.06
319.641	7.27
319.853	7.63
320.064	7.58
320.276	7.71
320.488	7.63
320.699	7.71
320.911	7.53
321.123	7.68
321.334	7.87
321.546	8.05
321.757	8.28
321.969	7.97
322.18	7.53
322.392	7.4
322.603	7.32
322.815	7.45
323.026	7.32
323.238	7.16
323.449	7.14
323.661	7
323.872	6.97
324.083	6.96
324.295	7.14
324.506	7.16
324.718	7.09
324.929	6.86
325.14	7
325.352	7.18
325.563	7.44
325.774	7.48
325.986	7.55
326.197	7.53
326.408	7.68
326.62	7.49
326.831	7.49
327.042	7.7
327.253	7.78
327.464	7.77
327.676	7.83
327.887	7.75
328.098	7.66
328.309	7.66
328.52	7.82
328.732	7.58
328.943	7.89
329.154	8
329.365	8.07
329.576	8.29
329.787	8.13
329.998	8.13
330.209	8.23
330.42	8.34
330.631	8.3
330.842	8.22
331.053	8.42
331.264	8.52
331.475	8.6
331.686	8.37
331.897	8.41
332.108	8.46
332.319	8.2
332.53	8.16
332.741	8.28
332.952	8.42
333.163	8.4
333.374	8.39
333.585	8.13
333.795	8.17
334.006	8.46
334.217	8.36
334.428	8.45
334.639	8.71
334.849	8.51
335.06	8.38
335.271	8.41
335.482	8.35
335.692	8.34
335.903	8.43
336.114	8.43
336.325	8.32
336.535	8.43
336.746	8.37
336.957	8.41
337.167	8.45
337.378	8.59
337.589	8.59
337.799	8.5
338.01	8.3
338.22	8.13
338.431	8.12
338.642	8.13
338.852	8.09
339.063	8.02
339.273	7.86
339.484	7.79
339.694	7.73
339.905	7.77
340.115	8
340.326	8.05
340.536	8.06
340.746	8.08
340.957	8.04
341.167	8.14
341.378	8.21
341.588	8.32
341.799	8.46
342.009	8.33
342.219	8.19
342.43	8.15
342.64	8.11
342.85	8.13
343.061	7.92
343.271	7.93
343.481	7.67
343.691	7.49
343.902	7.22
344.112	7.18
344.322	7.19
344.532	7.28
344.743	7.1
344.953	7.07
345.163	7.04
345.373	7.15
345.583	7.1
345.793	7.17
346.004	7.2
346.214	7.28
346.424	7.49
346.634	7.52
346.844	7.52
347.054	7.72
347.264	7.91
347.474	7.94
347.684	7.85
347.894	7.83
348.104	7.96
348.314	8.01
348.524	8.01
348.734	7.67
348.944	7.6
349.154	7.48
349.364	7.24
349.574	7.09
349.784	7.08
349.994	7.11
350.204	6.97
350.413	6.77
350.623	6.81
350.833	6.8
351.043	6.69
351.253	6.66
351.463	6.51
351.672	6.75
351.882	6.81
352.092	6.81
352.302	6.75
352.511	6.85
352.721	6.86
352.931	6.74
353.141	6.91
353.35	7.25
353.56	7.18
353.77	7.27
353.979	7.11
354.189	7.06
354.399	6.99
354.608	6.93
354.818	6.93
355.027	6.88
355.237	7
355.447	6.84
355.656	6.62
355.866	6.68
356.075	6.75
356.285	6.74
356.494	6.73
356.704	6.72
356.913	6.78
357.123	6.71
357.332	6.7
357.542	6.59
357.751	6.6
357.96	6.76
358.17	6.69
358.379	6.58
358.589	6.65
358.798	6.62
359.007	6.69
359.217	6.67
359.426	6.68
359.635	6.71
359.845	6.81
360.054	6.68
360.263	6.62
360.472	6.62
360.682	6.63
360.891	6.46
361.1	6.5
361.309	6.45
361.519	6.5
361.728	6.58
361.937	6.62
362.146	6.59
362.355	6.66
362.564	6.54
362.774	6.59
362.983	6.55
363.192	6.72
363.401	6.77
363.61	6.68
363.819	6.68
364.028	6.63
364.237	6.49
364.446	6.48
364.655	6.5
364.864	6.63
365.073	6.62
365.282	6.68
365.491	6.59
365.7	6.54
365.909	6.69
366.118	6.58
366.327	6.45
366.536	6.52
366.745	6.41
366.954	6.43
367.162	6.44
367.371	6.41
367.58	6.27
367.789	6.31
367.998	6.3
368.207	6.25
368.415	6.36
368.624	6.45
368.833	6.44
369.042	6.59
369.25	6.65
369.459	6.62
369.668	6.65
369.877	6.68
370.085	6.57
370.294	6.44
370.503	6.32
370.711	6.22
370.92	6.21
371.129	6.14
371.337	6.03
371.546	5.84
371.754	5.85
371.963	5.73
372.171	5.72
372.38	5.75
372.589	5.92
372.797	6.04
373.006	6.09
373.214	6.13
373.423	6.1
373.631	6.02
373.84	6.04
374.048	5.93
374.256	5.9
374.465	5.92
374.673	5.82
374.882	5.57
375.09	5.53
375.298	5.51
375.507	5.38
375.715	5.47
375.923	5.35
376.132	5.41
376.34	5.41
376.548	5.51
376.757	5.54
376.965	5.65
377.173	5.72
377.381	5.81
377.59	5.88
377.798	5.89
378.006	5.74
378.214	5.86
378.423	5.84
378.631	5.84
378.839	5.85
379.047	5.75
379.255	5.61
379.463	5.68
379.671	5.51
379.879	5.4
380.088	5.44
380.296	5.54
380.504	5.56
380.712	5.53
380.92	5.48
381.128	5.46
381.336	5.38
381.544	5.42
381.752	5.38
381.96	5.47
382.168	5.4
382.376	5.4
382.584	5.51
382.791	5.54
382.999	5.61
383.207	5.62
383.415	5.64
383.623	5.68
383.831	5.69
384.039	5.71
384.247	5.58
384.454	5.61
384.662	5.5
384.87	5.41
385.078	5.32
385.285	5.16
385.493	5.14
385.701	5.01
385.909	5.05
386.116	5.05
386.324	4.91
386.532	4.92
386.739	4.84
386.947	4.87
387.155	4.89
387.362	4.89
387.57	4.89
387.778	4.87
387.985	4.91
388.193	4.88
388.4	5.01
388.608	5.06
388.816	5.03
389.023	5
389.231	4.96
389.438	4.95
389.646	4.86
389.853	4.83
390.061	4.82
390.268	4.79
390.475	4.75
390.683	4.63
390.89	4.64
391.098	4.69
391.305	4.73
391.512	4.78
391.72	4.69
391.927	4.78
392.135	4.82
392.342	4.76
392.549	4.76
392.756	4.76
392.964	4.75
393.171	4.81
393.378	4.82
393.586	4.81
393.793	4.73
394	4.69
394.207	4.65
394.414	4.71
394.622	4.82
394.829	4.75
395.036	4.8
395.243	4.74
395.45	4.59
395.657	4.49
395.864	4.47
396.072	4.41
396.279	4.46
396.486	4.47
396.693	4.37
396.9	4.29
397.107	4.24
397.314	4.27
397.521	4.24
397.728	4.21
397.935	4.26
398.142	4.15
398.349	4.23
398.556	4.18
398.763	4.01
398.97	4
399.177	4.01
399.383	4.02
399.59	3.98
399.797	4.02
400.004	4.06
400.211	4.09
400.418	4.14
400.625	4.12
400.831	4.18
401.038	4.24
401.245	4.25
401.452	4.24
401.658	4.26
401.865	4.15
402.072	4.1
402.279	4.06
402.485	3.96
402.692	4
402.899	3.98
403.105	3.94
403.312	3.97
403.519	3.98
403.725	3.93
403.932	3.99
404.138	4.02
404.345	4
404.552	3.96
404.758	4.05
404.965	3.98
405.171	3.93
405.378	3.91
405.584	3.95
405.791	3.83
405.997	3.88
406.204	3.95
406.41	3.97
406.617	3.98
406.823	4.01
407.029	4.02
407.236	4.03
407.442	4.07
407.649	4.13
407.855	4.01
408.061	4.09
408.268	4.08
408.474	3.88
408.68	3.8
408.887	3.9
409.093	3.94
409.299	3.89
409.505	3.88
409.712	3.79
409.918	3.77
410.124	3.9
410.33	3.89
410.537	3.82
410.743	3.88
410.949	3.86
411.155	3.82
411.361	3.77
411.567	3.78
411.773	3.81
411.98	3.86
412.186	3.87
412.392	3.8
412.598	3.75
412.804	3.74
413.01	3.73
413.216	3.78
413.422	3.8
413.628	3.81
413.834	3.69
414.04	3.74
414.246	3.74
414.452	3.73
414.658	3.73
414.864	3.8
415.07	3.79
415.275	3.78
415.481	3.74
415.687	3.72
415.893	3.73
416.099	3.75
416.305	3.66
416.511	3.64
416.716	3.55
416.922	3.53
417.128	3.47
417.334	3.54
417.539	3.52
417.745	3.47
417.951	3.46
418.157	3.43
418.362	3.42
418.568	3.41
418.774	3.41
418.979	3.46
419.185	3.47
419.391	3.46
419.596	3.41
419.802	3.38
420.008	3.39
420.213	3.1
420.419	3.13
420.624	3.13
420.83	3.14
421.035	3.11
421.241	3.07
421.446	3.03
421.652	3.04
421.857	3.04
422.063	3.04
422.268	3.05
422.474	3.32
422.679	3.27
422.885	3.28
423.09	3.26
423.295	3.25
423.501	3.24
423.706	3.25
423.911	3.2
424.117	3.2
424.322	3.21
424.527	3.22
424.733	3.15
424.938	3.17
425.143	3.16
425.349	3.17
425.554	3.21
425.759	3.22
425.964	3.27
426.169	3.31
426.375	3.32
426.58	3.31
426.785	3.28
426.99	3.36
427.195	3.33
427.4	3.34
427.605	3.35
427.811	3.35
428.016	3.38
428.221	3.36
428.426	3.33
428.631	3.32
428.836	3.32
429.041	3.32
429.246	3.3
429.451	3.33
429.656	3.39
429.861	3.35
430.066	3.38
430.271	3.33
430.476	3.28
430.681	3.32
430.886	3.33
431.09	3.34
431.295	3.31
431.5	3.31
431.705	3.21
431.91	3.14
432.115	3.16
432.32	3.1
432.524	3.1
432.729	3.1
432.934	3.07
433.139	3.07
433.343	3.08
433.548	3.13
433.753	3.16
433.958	3.29
434.162	3.3
434.367	3.28
434.572	3.27
434.776	3.3
434.981	3.29
435.186	3.31
435.39	3.26
435.595	3.28
435.799	3.25
436.004	3.24
436.209	3.16
436.413	3.16
436.618	3.12
436.822	3.09
437.027	3.02
437.231	3.03
437.436	3
437.64	3.01
437.845	2.98
438.049	3
438.253	2.95
438.458	2.93
438.662	2.95
438.867	2.95
439.071	3.01
439.275	3.01
439.48	3.03
439.684	3.01
439.888	2.97
440.093	2.97
440.297	2.94
440.501	2.98
440.706	3
440.91	3
441.114	3.04
441.318	3.01
441.523	3.08
441.727	3.06
441.931	3.09
442.135	3.15
442.339	3.16
442.543	3.19
442.748	3.15
442.952	3.14
443.156	3.14
443.36	3.16
443.564	3.21
443.768	3.09
443.972	3.09
444.176	3.1
444.38	3.06
444.584	3.06
444.788	3.03
444.992	3.01
445.196	2.99
445.4	2.95
445.604	2.9
445.808	2.87
446.012	2.92
446.216	2.89
446.42	2.87
446.624	2.89
446.828	2.85
447.032	2.86
447.235	2.89
447.439	2.9
447.643	2.95
447.847	2.98
448.051	3
448.254	3
448.458	3.04
448.662	3.03
448.866	3.02
449.069	3.03
449.273	3.07
449.477	3.08
449.681	3.08
449.884	3.02
450.088	3.05
450.292	3.01
450.495	2.99
450.699	3.01
450.902	2.98
451.106	2.98
451.31	3.01
451.513	2.96
451.717	2.91
451.92	2.92
452.124	2.9
452.327	2.84
452.531	2.84
452.734	2.83
452.938	2.79
453.141	2.85
453.345	2.87
453.548	2.86
453.752	2.85
453.955	2.9
454.158	2.89
454.362	2.89
454.565	2.97
454.769	2.99
454.972	3.06
455.175	3.08
455.379	3.03
455.582	2.98
455.785	2.93
455.988	2.96
456.192	2.92
456.395	2.93
456.598	2.95
456.801	2.86
457.005	2.85
457.208	2.81
457.411	2.84
457.614	2.81
457.817	2.8
458.021	2.77
458.224	2.76
458.427	2.76
458.63	2.75
458.833	2.73
459.036	2.73
459.239	2.74
459.442	2.72
459.645	2.69
459.848	2.76
460.051	2.78
460.254	2.88
460.457	2.87
460.66	2.91
460.863	2.94
461.066	2.94
461.269	2.93
461.472	2.94
461.675	2.95
461.878	2.98
462.081	2.89
462.284	2.96
462.486	2.89
462.689	2.92
462.892	2.89
463.095	2.88
463.298	2.91
463.5	2.94
463.703	2.96
463.906	2.97
464.109	2.95
464.311	2.96
464.514	2.97
464.717	3.01
464.92	3.01
465.122	3.02
465.325	3.04
465.528	3.03
465.73	3.03
465.933	3.02
466.135	2.94
466.338	2.96
466.541	2.97
466.743	2.89
466.946	2.88
467.148	2.9
467.351	2.95
467.553	2.93
467.756	2.94
467.958	2.94
468.161	2.91
468.363	2.99
468.566	2.96
468.768	2.95
468.971	2.99
469.173	3.01
469.375	2.96
469.578	2.85
469.78	2.83
469.983	2.83
470.185	2.84
470.387	2.89
470.59	2.92
470.792	2.98
470.994	3.01
471.196	3.02
471.399	3.02
471.601	2.97
471.803	3
472.005	2.97
472.208	2.96
472.41	2.93
472.612	2.88
472.814	2.9
473.016	2.91
473.218	2.93
473.421	2.89
473.623	2.87
473.825	2.94
474.027	2.99
474.229	2.99
474.431	2.98
474.633	3.01
474.835	3.02
475.037	2.96
475.239	2.92
475.441	2.92
475.643	2.96
475.845	2.92
476.047	2.91
476.249	2.91
476.451	2.93
476.653	2.93
476.855	2.92
477.057	2.91
477.258	2.9
477.46	2.9
477.662	2.88
477.864	2.87
478.066	2.9
478.268	2.9
478.469	2.86
478.671	2.87
478.873	2.88
479.075	2.86
479.276	2.83
479.478	2.88
479.68	2.84
479.882	2.82
480.083	2.81
480.285	2.78
480.487	2.77
480.688	2.78
480.89	2.8
481.091	2.76
481.293	2.79
481.495	2.83
481.696	2.8
481.898	2.8
482.099	2.77
482.301	2.74
482.502	2.72
482.704	2.69
482.905	2.68
483.107	2.65
483.308	2.64
483.51	2.62
483.711	2.61
483.913	2.61
484.114	2.59
484.315	2.61
484.517	2.63
484.718	2.65
484.92	2.67
485.121	2.67
485.322	2.67
485.524	2.69
485.725	2.7
485.926	2.69
486.127	2.67
486.329	2.68
486.53	2.68
486.731	2.65
486.932	2.65
487.134	2.63
487.335	2.63
487.536	2.65
487.737	2.64
487.938	2.65
488.139	2.65
488.341	2.65
488.542	2.67
488.743	2.67
488.944	2.71
489.145	2.7
489.346	2.75
489.547	2.75
489.748	2.74
489.949	2.75
490.15	2.74
490.351	2.73
490.552	2.74
490.753	2.73
490.954	2.72
491.155	2.7
491.356	2.72
491.557	2.69
491.758	2.71
491.959	2.74
492.159	2.77
492.36	2.78
492.561	2.8
492.762	2.82
492.963	2.85
493.164	2.89
493.364	2.94
493.565	2.97
493.766	3.01
493.967	3.01
494.167	3.02
494.368	3.01
494.569	3
494.769	3.03
494.97	3
495.171	3
495.371	2.93
495.572	2.91
495.773	2.91
495.973	2.9
496.174	2.91
496.375	2.91
496.575	2.94
496.776	2.98
496.976	2.98
497.177	2.99
497.377	3.04
497.578	3.08
497.778	3.09
497.979	3.1
498.179	3.11
498.38	3.15
498.58	3.15
498.78	3.16
498.981	3.15
499.181	3.18
499.382	3.18
499.582	3.12
499.782	3.18
499.983	3.22
500.183	3.23
500.383	3.25
500.584	3.24
500.784	3.23
500.984	3.25
501.184	3.22
501.385	3.23
501.585	3.28
501.785	3.27
501.985	3.29
502.185	3.31
502.386	3.32
502.586	3.34
502.786	3.35
502.986	3.39
503.186	3.4
503.386	3.45
503.586	3.48
503.786	3.49
503.987	3.52
504.187	3.53
504.387	3.53
504.587	3.49
504.787	3.5
504.987	3.5
505.187	3.49
505.387	3.47
505.587	3.48
505.786	3.47
505.986	3.47
506.186	3.47
506.386	3.47
506.586	3.51
506.786	3.56
506.986	3.55
507.186	3.57
507.386	3.58
507.585	3.58
507.785	3.6
507.985	3.61
508.185	3.61
508.384	3.6
508.584	3.59
508.784	3.59
508.984	3.6
509.183	3.64
509.383	3.63
509.583	3.61
509.782	3.64
509.982	3.64
510.182	3.65
510.381	3.69
510.581	3.74
510.781	3.77
510.98	3.78
511.18	3.8
511.379	3.78
511.579	3.83
511.778	3.88
511.978	3.92
512.177	3.95
512.377	3.98
512.576	4
512.776	4.04
512.975	4.09
513.175	4.12
513.374	4.13
513.573	4.21
513.773	4.22
513.972	4.21
514.172	4.28
514.371	4.32
514.57	4.36
514.77	4.39
514.969	4.41
515.168	4.38
515.367	4.36
515.567	4.35
515.766	4.34
515.965	4.34
516.164	4.36
516.364	4.34
516.563	4.3
516.762	4.28
516.961	4.28
517.16	4.28
517.359	4.28
517.559	4.29
517.758	4.3
517.957	4.32
518.156	4.35
518.355	4.36
518.554	4.39
518.753	4.42
518.952	4.44
519.151	4.47
519.35	4.48
519.549	4.53
519.748	4.56
519.947	4.59
520.146	4.63
520.345	4.61
520.544	4.68
520.743	4.68
520.942	4.69
521.141	4.7
521.339	4.72
521.538	4.78
521.737	4.76
521.936	4.78
522.135	4.78
522.333	4.79
522.532	4.83
522.731	4.8
522.93	4.78
523.129	4.82
523.327	4.86
523.526	4.84
523.725	4.83
523.923	4.86
524.122	4.87
524.321	4.86
524.519	4.87
524.718	4.88
524.917	4.89
525.115	4.94
525.314	4.94
525.512	4.95
525.711	4.97
525.909	5
526.108	4.99
526.306	4.99
526.505	5.02
526.703	5.03
526.902	5.03
527.1	5.02
527.299	5.02
527.497	5.02
527.696	5
527.894	5.01
528.092	5.01
528.291	5.03
528.489	5.04
528.688	5.06
528.886	5.08
529.084	5.11
529.283	5.14
529.481	5.17
529.679	5.19
529.877	5.25
530.076	5.28
530.274	5.32
530.472	5.33
530.67	5.36
530.869	5.37
531.067	5.4
531.265	5.39
531.463	5.42
531.661	5.42
531.859	5.45
532.057	5.43
532.255	5.43
532.454	5.44
532.652	5.46
532.85	5.47
533.048	5.5
533.246	5.51
533.444	5.57
533.642	5.57
533.84	5.61
534.038	5.65
534.236	5.7
534.434	5.76
534.632	5.8
534.83	5.82
535.027	5.86
535.225	5.86
535.423	5.87
535.621	5.87
535.819	5.87
536.017	5.87
536.215	5.84
536.412	5.83
536.61	5.83
536.808	5.85
537.006	5.85
537.203	5.88
537.401	5.94
537.599	5.97
537.797	5.98
537.994	6
538.192	6.04
538.39	6.12
538.587	6.13
538.785	6.15
538.983	6.18
539.18	6.23
539.378	6.24
539.575	6.25
539.773	6.25
539.97	6.25
540.168	6.28
540.366	6.28
540.563	6.27
540.761	6.29
540.958	6.3
541.155	6.3
541.353	6.3
541.55	6.3
541.748	6.32
541.945	6.34
542.143	6.39
542.34	6.42
542.537	6.46
542.735	6.52
542.932	6.53
543.129	6.57
543.327	6.63
543.524	6.68
543.721	6.75
543.919	6.78
544.116	6.84
544.313	6.9
544.51	6.91
544.708	6.91
544.905	6.91
545.102	6.99
545.299	7.03
545.496	7.04
545.693	7.01
545.891	7.04
546.088	7.08
546.285	7.12
546.482	7.1
546.679	7.15
546.876	7.2
547.073	7.24
547.27	7.23
547.467	7.27
547.664	7.3
547.861	7.39
548.058	7.43
548.255	7.47
548.452	7.53
548.649	7.63
548.846	7.69
549.043	7.78
549.24	7.79
549.437	7.86
549.633	7.87
549.83	7.94
550.027	7.99
550.224	8.01
550.421	8.01
550.618	7.98
550.814	8
551.011	7.97
551.208	7.94
551.405	7.95
551.601	7.97
551.798	8.02
551.995	8
552.191	8.02
552.388	8.03
552.585	8.07
552.781	8.08
552.978	8.1
553.175	8.18
553.371	8.26
553.568	8.32
553.764	8.36
553.961	8.38
554.157	8.44
554.354	8.47
554.55	8.52
554.747	8.58
554.943	8.67
555.14	8.66
555.336	8.66
555.533	8.71
555.729	8.83
555.926	8.83
556.122	8.84
556.318	8.9
556.515	8.92
556.711	8.87
556.907	8.87
557.104	8.95
557.3	9
557.496	9.02
557.693	9.01
557.889	8.99
558.085	9.01
558.281	9.08
558.478	9.14
558.674	9.16
558.87	9.25
559.066	9.34
559.262	9.25
559.459	9.29
559.655	9.39
559.851	9.43
560.047	9.48
560.243	9.47
560.439	9.53
560.635	9.52
560.831	9.54
561.027	9.6
561.223	9.59
561.419	9.62
561.615	9.65
561.811	9.66
562.007	9.7
562.203	9.71
562.399	9.79
562.595	9.78
562.791	9.84
562.987	9.9
563.183	9.89
563.379	9.94
563.575	10.03
563.771	10.05
563.966	10.04
564.162	10.08
564.358	10.08
564.554	10.07
564.75	10.12
564.945	10.15
565.141	10.2
565.337	10.25
565.533	10.26
565.728	10.25
565.924	10.27
566.12	10.28
566.315	10.31
566.511	10.36
566.707	10.41
566.902	10.43
567.098	10.45
567.293	10.41
567.489	10.44
567.684	10.5
567.88	10.54
568.076	10.63
568.271	10.71
568.467	10.7
568.662	10.74
568.858	10.78
569.053	10.78
569.248	10.77
569.444	10.83
569.639	10.84
569.835	10.84
570.03	10.87
570.225	10.85
570.421	10.89
570.616	10.96
570.812	10.95
571.007	10.95
571.202	11.05
571.397	11.04
571.593	11.03
571.788	11.05
571.983	11.06
572.178	11.05
572.374	11.11
572.569	11.09
572.764	11.08
572.959	11.07
573.154	11.11
573.35	11.06
573.545	11.14
573.74	11.18
573.935	11.23
574.13	11.22
574.325	11.24
574.52	11.24
574.715	11.25
574.91	11.27
575.105	11.34
575.3	11.36
575.495	11.38
575.69	11.35
575.885	11.42
576.08	11.41
576.275	11.45
576.47	11.46
576.665	11.49
576.86	11.51
577.055	11.48
577.25	11.4
577.444	11.39
577.639	11.47
577.834	11.52
578.029	11.53
578.224	11.54
578.418	11.64
578.613	11.66
578.808	11.6
579.003	11.6
579.197	11.74
579.392	11.8
579.587	11.86
579.781	11.78
579.976	11.82
580.171	11.78
580.365	11.75
580.56	11.7
580.755	11.7
580.949	11.75
581.144	11.8
581.338	11.71
581.533	11.77
581.727	11.8
581.922	11.85
582.116	11.84
582.311	11.87
582.505	11.97
582.7	11.97
582.894	12
583.089	12.04
583.283	12.07
583.478	12.1
583.672	12.09
583.866	12.05
584.061	12.07
584.255	12.08
584.449	12.09
584.644	12.06
584.838	12.13
585.032	12.23
585.226	12.21
585.421	12.22
585.615	12.22
585.809	12.25
586.003	12.29
586.198	12.34
586.392	12.33
586.586	12.32
586.78	12.32
586.974	12.32
587.168	12.19
587.363	12.26
587.557	12.27
587.751	12.28
587.945	12.33
588.139	12.4
588.333	12.4
588.527	12.43
588.721	12.45
588.915	12.56
589.109	12.53
589.303	12.56
589.497	12.51
589.691	12.51
589.885	12.54
590.079	12.49
590.273	12.45
590.466	12.46
590.66	12.48
590.854	12.48
591.048	12.41
591.242	12.42
591.436	12.45
591.629	12.52
591.823	12.56
592.017	12.61
592.211	12.58
592.404	12.54
592.598	12.47
592.792	12.45
592.986	12.46
593.179	12.49
593.373	12.56
593.567	12.56
593.76	12.57
593.954	12.57
594.147	12.56
594.341	12.56
594.535	12.62
594.728	12.64
594.922	12.61
595.115	12.6
595.309	12.55
595.502	12.53
595.696	12.52
595.889	12.47
596.083	12.46
596.276	12.43
596.47	12.47
596.663	12.42
596.856	12.44
597.05	12.52
597.243	12.54
597.437	12.6
597.63	12.6
597.823	12.66
598.017	12.66
598.21	12.7
598.403	12.71
598.596	12.75
598.79	12.85
598.983	12.88
599.176	12.85
599.369	12.86
599.563	12.85
599.756	12.9
599.949	12.95
600.142	12.89
600.335	12.86
600.528	12.9
600.722	12.86
600.915	12.88
601.108	12.89
601.301	12.96
601.494	12.98
601.687	13.03
601.88	12.99
602.073	12.89
602.266	12.97
602.459	13.01
602.652	12.97
602.845	13.02
603.038	12.95
603.231	12.92
603.424	12.84
603.617	12.84
603.809	12.82
604.002	12.83
604.195	12.9
604.388	12.91
604.581	12.83
604.774	12.85
604.966	12.77
605.159	12.78
605.352	12.8
605.545	12.88
605.737	12.86
605.93	12.84
606.123	12.83
606.316	12.79
606.508	12.84
606.701	12.93
606.894	12.9
607.086	13.02
607.279	13.03
607.471	13.06
607.664	13.01
607.857	13.02
608.049	13.09
608.242	13.11
608.434	13.1
608.627	13.03
608.819	13.02
609.012	13.1
609.204	13.14
609.397	13.16
609.589	13.19
609.782	13.24
609.974	13.33
610.166	13.35
610.359	13.36
610.551	13.39
610.743	13.47
610.936	13.53
611.128	13.44
611.32	13.41
611.513	13.44
611.705	13.37
611.897	13.39
612.09	13.38
612.282	13.3
612.474	13.31
612.666	13.36
612.858	13.35
613.051	13.35
613.243	13.37
613.435	13.44
613.627	13.39
613.819	13.39
614.011	13.59
614.203	13.48
614.395	13.45
614.588	13.44
614.78	13.42
614.972	13.42
615.164	13.42
615.356	13.42
615.548	13.38
615.74	13.5
615.932	13.51
616.124	13.22
616.315	13.36
616.507	13.44
616.699	13.43
616.891	13.41
617.083	13.42
617.275	13.41
617.467	13.44
617.659	13.51
617.85	13.44
618.042	13.53
618.234	13.56
618.426	13.5
618.618	13.54
618.809	13.55
619.001	13.55
619.193	13.62
619.384	13.63
619.576	13.68
619.768	13.59
619.959	13.54
620.151	13.49
620.343	13.55
620.534	13.54
620.726	13.48
620.917	13.56
621.109	13.56
621.301	13.51
621.492	13.46
621.684	13.47
621.875	13.46
622.067	13.53
622.258	13.56
622.45	13.56
622.641	13.56
622.832	13.55
623.024	13.43
623.215	13.44
623.407	13.38
623.598	13.34
623.789	13.33
623.981	13.39
624.172	13.38
624.363	13.38
624.555	13.37
624.746	13.38
624.937	13.35
625.129	13.38
625.32	13.4
625.511	13.48
625.702	13.48
625.893	13.44
626.085	13.44
626.276	13.37
626.467	13.32
626.658	13.29
626.849	13.26
627.04	13.3
627.231	13.32
627.422	13.29
627.614	13.23
627.805	13.31
627.996	13.35
628.187	13.29
628.378	13.33
628.569	13.35
628.76	13.39
628.951	13.42
629.142	13.4
629.332	13.34
629.523	13.38
629.714	13.42
629.905	13.41
630.096	13.41
630.287	13.45
630.478	13.42
630.669	13.44
630.859	13.41
631.05	13.32
631.241	13.38
631.432	13.4
631.623	13.39
631.813	13.38
632.004	13.32
632.195	13.31
632.385	13.25
632.576	13.35
632.767	13.26
632.957	13.27
633.148	13.47
633.339	13.4
633.529	13.41
633.72	13.42
633.91	13.39
634.101	13.34
634.292	13.3
634.482	13.35
634.673	13.4
634.863	13.43
635.054	13.51
635.244	13.39
635.435	13.45
635.625	13.42
635.815	13.29
636.006	13.26
636.196	13.36
636.387	13.43
636.577	13.49
636.767	13.41
636.958	13.47
637.148	13.42
637.338	13.42
637.529	13.37
637.719	13.47
637.909	13.62
638.099	13.65
638.29	13.65
638.48	13.65
638.67	13.63
638.86	13.61
639.05	13.63
639.241	13.57
639.431	13.56
639.621	13.56
639.811	13.48
640.001	13.51
640.191	13.49
640.381	13.39
640.571	13.32
640.761	13.19
640.951	13.22
641.141	13.19
641.331	13.21
641.521	13.2
641.711	13.28
641.901	13.31
642.091	13.17
642.281	13.15
642.471	13.2
642.661	13.24
642.851	13.39
643.041	13.42
643.231	13.31
643.42	13.35
643.61	13.46
643.8	13.36
643.99	13.38
644.18	13.49
644.369	13.58
644.559	13.56
644.749	13.56
644.939	13.47
645.128	13.36
645.318	13.41
645.508	13.43
645.697	13.39
645.887	13.46
646.076	13.43
646.266	13.36
646.456	13.33
646.645	13.45
646.835	13.47
647.024	13.5
647.214	13.54
647.403	13.57
647.593	13.59
647.782	13.57
647.972	13.58
648.161	13.65
648.351	13.77
648.54	13.8
648.73	13.8
648.919	13.82
649.108	13.75
649.298	13.75
649.487	13.8
649.677	13.65
649.866	13.6
650.055	13.61
650.244	13.47
650.434	13.45
650.623	13.46
650.812	13.45
651.002	13.46
651.191	13.56
651.38	13.59
651.569	13.58
651.758	13.62
651.947	13.72
652.137	13.68
652.326	13.75
652.515	13.72
652.704	13.65
652.893	13.63
653.082	13.64
653.271	13.56
653.46	13.54
653.649	13.63
653.838	13.7
654.027	13.66
654.216	13.59
654.405	13.54
654.594	13.61
654.783	13.64
654.972	13.64
655.161	13.66
655.35	13.67
655.539	13.71
655.728	13.63
655.916	13.71
656.105	13.71
656.294	13.81
656.483	13.9
656.672	13.81
656.86	13.75
657.049	13.76
657.238	13.68
657.427	13.73
657.615	13.62
657.804	13.69
657.993	13.55
658.181	13.51
658.37	13.47
658.559	13.42
658.747	13.36
658.936	13.39
659.125	13.44
659.313	13.47
659.502	13.54
659.69	13.59
659.879	13.55
660.067	13.61
660.256	13.64
660.444	13.68
660.633	13.74
660.821	13.92
661.01	14.03
661.198	14.12
661.387	14.16
661.575	14.07
661.763	14.14
661.952	14.1
662.14	14.09
662.328	14.13
662.517	14.06
662.705	14.07
662.893	14
663.082	14.03
663.27	13.85
663.458	13.83
663.646	13.85
663.834	13.83
664.023	13.92
664.211	13.97
664.399	13.97
664.587	13.96
664.775	13.97
664.963	13.97
665.152	13.98
665.34	14.01
665.528	14.09
665.716	14.11
665.904	14.09
666.092	14.15
666.28	14.14
666.468	14.09
666.656	14.17
666.844	14.23
667.032	14.2
667.22	14.06
667.408	14.05
667.596	13.96
667.784	13.94
667.971	13.94
668.159	13.83
668.347	13.74
668.535	13.72
668.723	13.67
668.911	13.62
669.098	13.63
669.286	13.68
669.474	13.74
669.662	13.74
669.849	13.85
670.037	13.87
670.225	13.87
670.413	13.96
670.6	13.88
670.788	13.85
670.976	13.84
671.163	13.85
671.351	13.78
671.538	13.61
671.726	13.71
671.913	13.63
672.101	13.67
672.289	13.59
672.476	13.52
672.664	13.72
672.851	13.88
673.039	13.89
673.226	13.88
673.413	13.95
673.601	14.11
673.788	14.03
673.976	14.03
674.163	13.91
674.35	14.05
674.538	14.05
674.725	14.05
674.912	13.88
675.1	13.74
675.287	13.84
675.474	13.8
675.662	13.75
675.849	13.82
676.036	13.71
676.223	13.74
676.411	13.57
676.598	13.56
676.785	13.56
676.972	13.64
677.159	13.84
677.346	13.71
677.533	13.7
677.721	13.66
677.908	13.59
678.095	13.6
678.282	13.71
678.469	13.76
678.656	13.8
678.843	13.73
679.03	13.84
679.217	13.83
679.404	13.81
679.591	13.83
679.778	13.9
679.964	13.94
680.151	14.03
680.338	14.05
680.525	14.05
680.712	14.11
680.899	14.19
681.086	14.11
681.272	14.1
681.459	14.19
681.646	14.26
681.833	14.29
682.02	14.25
682.206	14.26
682.393	14.21
682.58	14.29
682.766	14.39
682.953	14.42
683.14	14.53
683.326	14.51
683.513	14.56
683.7	14.49
683.886	14.39
684.073	14.42
684.259	14.39
684.446	14.49
684.632	14.56
684.819	14.36
685.005	14.21
685.192	14.06
685.378	14.13
685.565	14.11
685.751	14.09
685.938	14.07
686.124	14.09
686.31	14.05
686.497	13.87
686.683	13.77
686.87	13.88
687.056	13.89
687.242	13.87
687.429	13.89
687.615	13.84
687.801	13.89
687.987	13.93
688.174	13.95
688.36	13.85
688.546	13.9
688.732	14.01
688.918	13.86
689.105	13.95
689.291	13.97
689.477	14
689.663	13.99
689.849	13.97
690.035	14.12
690.221	14.07
690.407	14.36
690.593	14.47
690.779	14.3
690.965	14.44
691.151	14.42
691.337	14.52
691.523	14.59
691.709	14.71
691.895	14.72
692.081	14.64
692.267	14.72
692.453	14.54
692.639	14.56
692.825	14.56
693.011	14.6
693.196	14.58
693.382	14.35
693.568	14.15
693.754	14.16
693.94	14.09
694.125	14.08
694.311	14.02
694.497	13.94
694.682	13.84
694.868	13.89
695.054	13.75
695.239	13.8
695.425	13.98
695.611	14.07
695.796	13.95
695.982	13.96
696.168	13.93
696.353	13.92
696.539	14.04
696.724	13.94
696.91	14.03
697.095	14.14
697.281	14.11
697.466	14.1
697.652	13.98
697.837	14.01
698.023	14.05
698.208	14.03
698.393	14.09
698.579	14.07
698.764	14.08
698.949	13.98
699.135	13.84
699.32	13.8
699.505	13.86
699.691	13.88
699.876	13.74
700.061	13.79
700.246	13.74
700.432	13.67
700.617	13.53
700.802	13.6
700.987	13.72
701.172	13.85
701.358	13.83
701.543	13.88
701.728	13.93
701.913	14.23
702.098	14.27
702.283	14.43
702.468	14.44
702.653	14.7
702.838	14.91
703.023	14.95
703.208	14.94
703.393	15.03
703.578	14.89
703.763	14.83
703.948	14.76
704.133	14.62
704.318	14.62
704.503	14.77
704.688	14.73
704.873	14.43
705.057	14.41
705.242	14.28
705.427	14.2
705.612	14.28
705.797	14.44
705.981	14.47
706.166	14.62
706.351	14.39
706.536	14.27
706.72	14.32
706.905	14.51
707.09	14.53
707.274	14.62
707.459	14.78
707.644	14.68
707.828	14.64
708.013	14.59
708.197	14.53
708.382	14.8
708.567	14.86
708.751	14.81
708.936	14.68
709.12	14.65
709.305	14.61
709.489	14.47
709.673	14.55
709.858	14.4
710.042	14.45
710.227	14.5
710.411	14.5
710.596	14.37
710.78	14.44
710.964	14.6
711.149	14.67
711.333	14.76
711.517	14.67
711.702	14.78
711.886	14.88
712.07	14.88
712.254	14.92
712.438	14.83
712.623	14.91
712.807	14.77
712.991	14.58
713.175	14.51
713.359	14.44
713.544	14.52
713.728	14.44
713.912	14.51
714.096	14.47
714.28	14.51
714.464	14.6
714.648	14.63
714.832	14.77
715.016	14.83
715.2	14.79
715.384	14.95
715.568	14.99
715.752	14.83
715.936	14.79
716.12	14.77
716.304	14.74
716.488	14.57
716.671	14.51
716.855	14.53
717.039	14.51
717.223	14.54
717.407	14.36
717.59	14.35
717.774	14.41
717.958	14.41
718.142	14.38
718.325	14.27
718.509	14.33
718.693	14.33
718.877	14.13
719.06	14.25
719.244	14.21
719.428	14.36
719.611	14.34
719.795	14.51
719.978	14.61
720.162	14.69
720.345	14.65
720.529	14.69
720.713	14.82
720.896	14.99
721.08	14.74
721.263	15.02
721.446	15.03
721.63	15.07
721.813	14.88
721.997	14.9
722.18	14.8
722.364	14.93
722.547	14.84
722.73	14.74
722.914	14.61
723.097	14.91
723.28	14.68
723.464	14.58
723.647	14.67
723.83	14.87
724.013	14.73
724.197	14.99
724.38	15.08
724.563	15.07
724.746	15.13
724.929	15.52
725.112	15.48
725.296	15.5
725.479	15.49
725.662	15.46
725.845	15.38
726.028	15.35
726.211	15.17
726.394	15.1
726.577	15.14
726.76	14.96
726.943	14.74
727.126	14.71
727.309	14.88
727.492	14.95
727.675	15.02
727.858	14.94
728.041	15.04
728.224	15.15
728.407	14.8
728.589	14.98
728.772	15.12
728.955	15.04
729.138	14.95
729.321	14.67
729.503	14.73
729.686	14.54
729.869	14.53
730.052	14.48
730.234	14.3
730.417	14.53
730.6	14.5
730.782	14.36
730.965	14.24
731.148	14.34
731.33	14.43
731.513	14.4
731.695	14.58
731.878	14.6
732.061	14.45
732.243	14.77
732.426	14.72
732.608	14.78
732.791	14.89
732.973	15
733.156	15.06
733.338	14.94
733.52	14.8
733.703	14.69
733.885	14.94
734.068	15.07
734.25	14.98
734.432	15.01
734.615	14.84
734.797	14.82
734.979	14.72
735.162	14.62
735.344	14.78
735.526	14.99
735.708	14.78
735.891	14.55
736.073	14.62
736.255	14.28
736.437	14.37
736.619	14.46
736.802	14.53
736.984	14.52
737.166	14.57
737.348	14.64
737.53	14.69
737.712	14.87
737.894	15.02
738.076	15.04
738.258	15.25
738.44	15.19
738.622	15.35
738.804	15.26
738.986	15.43
739.168	15.39
739.35	15.32
739.532	15.11
739.714	15.42
739.896	15.18
740.078	15.12
740.259	14.92
740.441	14.97
740.623	14.69
740.805	14.79
740.987	14.72
741.168	14.4
741.35	14.31
741.532	14.39
741.714	14.11
741.895	14.25
742.077	14.24
742.259	14.13
742.44	14.22
742.622	14.48
742.804	14.21
742.985	14.48
743.167	14.59
743.348	14.72
743.53	14.77
743.711	14.8
743.893	15.03
744.075	14.9
744.256	15.42
744.438	15.41
744.619	15.22
744.8	15.61
744.982	15.41
745.163	15.34
745.345	15.4
745.526	15.6
745.707	15.91
745.889	15.53
746.07	15.49
746.252	15.35
746.433	15.14
746.614	14.9
746.795	14.3
746.977	14.39
747.158	14.86
747.339	14.81
747.52	14.81
747.702	14.41
747.883	14.44
748.064	14.77
748.245	14.54
748.426	14.72
748.607	15
748.788	15.36
748.97	15.3
749.151	14.95
749.332	14.95
749.513	14.93
749.694	15.32
749.875	15.61
750.056	15.7
750.237	15.67
750.418	15.62
750.599	15.56
750.78	15.93
750.96	15.89
751.141	15.9
751.322	15.9
751.503	15.73
751.684	15.31
751.865	14.97
752.046	14.56
752.226	14.77
752.407	14.93
752.588	15.11
752.769	15.05
752.949	14.78
753.13	15.08
753.311	14.94
753.492	14.74
753.672	15.18
753.853	15.66
754.034	15.64
754.214	15.45
754.395	15.08
754.575	15
754.756	14.69
754.937	14.89
755.117	14.78
755.298	15.1
755.478	15.16
755.659	14.78
755.839	14.34
756.02	14.58
756.2	14.65
756.381	14.46
756.561	14.47
756.741	14.82
756.922	14.78
757.102	14.75
757.283	14.58
757.463	14.88
757.643	15.06
757.823	15.25
758.004	14.8
758.184	14.88
758.364	15.48
758.545	15.55
758.725	15.2
758.905	15.17
759.085	15.36
759.265	15.27
759.446	15.14
759.626	15.1
759.806	15.17
759.986	15.65
760.166	15.68
760.346	15.63
760.526	15.52
760.706	15.51
760.886	15.73
761.066	15.62
761.246	15.73
761.426	15.7
761.606	15.59
761.786	15.24
761.966	15.12
762.146	15.2
762.326	15.3
762.506	15.29
762.686	15.39
762.866	15.26
763.046	15.23
763.225	15.24
763.405	15.15
763.585	15
763.765	15.2
763.945	15.17
764.124	14.99
764.304	15.13
764.484	14.91
764.664	14.8
764.843	15
765.023	14.99
765.203	14.85
765.382	14.69
765.562	14.85
765.741	14.73
765.921	15.01
766.101	14.99
766.28	14.65
766.46	14.88
766.639	15.04
766.819	15.05
766.998	15.26
767.178	15.17
767.357	15.38
767.537	15.35
767.716	15.49
767.896	15.12
768.075	15.38
768.254	14.94
768.434	15.03
768.613	15.35
768.792	15.17
768.972	15.05
769.151	15.13
769.33	15.07
769.51	15.35
769.689	15.23
769.868	15.75
770.047	15.98
770.226	16.38
770.406	16.21
770.585	15.85
770.764	15.92
770.943	15.76
771.122	15.7
771.301	16.45
771.48	16.34
771.66	16.49
771.839	16.16
772.018	16.03
772.197	15.71
772.376	15.58
772.555	15.2
772.734	15.01
772.913	14.89
773.092	15.1
773.271	14.32
773.449	14.47
773.628	14.7
773.807	14.57
773.986	14.43
774.165	14.32
774.344	14.61
774.523	14.96
774.701	15.16
774.88	15.76
775.059	15.27
775.238	15.46
775.417	15.41
775.595	15.22
775.774	15.16
775.953	14.99
776.131	15.35
776.31	15.1
776.489	14.88
776.667	14.85
776.846	14.25
777.025	14.28
777.203	13.85
777.382	13.83
777.56	13.34
777.739	13.13
777.917	13.48
778.096	13.26
778.274	13.97
778.453	14.53
778.631	14.63
778.81	14.74
778.988	15.02
779.166	15.05
779.345	15.16
779.523	15.63
779.702	16.29
779.88	16.24
780.058	16.46
780.237	15.78
780.415	15.2
780.593	14.87
780.771	15.16
780.95	15.49
781.128	16.18
781.306	16.02
781.484	16.07
781.662	15.43
781.841	15.24
782.019	15.29
782.197	15.6
782.375	15.82
782.553	16.15
782.731	15.87
782.909	15.54
783.087	15.32
783.265	15.73
783.443	15.66
783.621	16.03
783.799	16.11
783.977	16.05
784.155	15.69
784.333	16.34
784.511	16.16
784.689	16.57
784.867	16.93
785.045	16.69
785.223	16.1
785.4	16.04
785.578	15.39
785.756	15.02
785.934	15.16
786.112	15.01
786.289	14.45
786.467	14.43
786.645	13.87
786.823	13.71
787	14.26
787.178	14.07
787.356	14.56
787.533	15.04
787.711	15.12
787.889	15.07
788.066	15.49
788.244	15.4
788.421	15.62
788.599	15.7
788.776	15.83
788.954	15.39
789.131	15.55
789.309	15.6
789.486	15.89
789.664	16.42
789.841	16.76
790.019	16.79
790.196	17.29
790.373	16.97
790.551	17.63
790.728	17.53
790.906	18.48
791.083	18.18
791.26	17.52
791.437	17.28
791.615	17.06
791.792	16.95
791.969	16.91
792.146	16.48
792.324	16.83
792.501	16.82
792.678	16.8
792.855	15.71
793.032	16.17
793.209	16.24
793.387	16.6
793.564	16.71
793.741	16.59
793.918	16.52
794.095	16.23
794.272	15.68
794.449	14.92
794.626	15.3
794.803	15.69
794.98	15.46
795.157	15.79
795.334	15.43
795.511	15.18
795.688	14.9
795.864	15.07
796.041	15.4
796.218	16.17
796.395	16.93
796.572	16.73
796.749	16.34
796.925	16.58
797.102	16.34
797.279	16.57
797.456	16.33
797.632	16.57
797.809	16.86
797.986	16.73
798.162	16.66
798.339	15.73
798.516	16.25
798.692	17.13
798.869	16.59
799.046	15.95
799.222	16.02
799.399	16.02
799.575	16.31
799.752	15.82
799.928	16.14
800.105	16.11
800.281	16.68
800.458	16.3
800.634	15.51
800.811	16.21
800.987	16.56
801.163	16.57
801.34	16.69
801.516	15.98
801.692	16.19
801.869	16.57
802.045	16.26
802.221	15.77
802.398	15.76
802.574	16.15
802.75	16.31
802.926	17.39
803.103	17.61
803.279	17.53
803.455	18.16
803.631	17.96
803.807	17.45
803.983	18.11
804.16	18.56
804.336	17.48
804.512	17.52
804.688	17.26
804.864	16.4
805.04	15.89
805.216	16.91
805.392	16.55
805.568	16.89
805.744	17.73
805.92	17.6
806.096	16.99
806.272	18.3
806.448	18.86
806.623	18.51
806.799	18.15
806.975	18.49
807.151	18.05
807.327	17.52
807.503	16.63
807.678	15.13
807.854	15.46
808.03	15.9
808.206	15.79
808.381	15.38
808.557	16.19
808.733	16.55
808.908	15.99
809.084	15.71
809.26	15.79
809.435	16.88
809.611	18.27
809.787	17.19
809.962	17.34
810.138	17.39
810.313	17.29
810.489	17.13
810.664	17.32
810.84	17.5
811.015	18.69
811.191	19.38
811.366	19.87
811.542	20.11
811.717	20.55
811.892	21
812.068	20.7
812.243	20.71
812.419	20.59
812.594	20.74
812.769	21.18
812.944	20.3
813.12	20.24
813.295	19.57
813.47	18.98
813.645	19.6
813.821	19.06
813.996	19.66
814.171	19.6
814.346	19.34
814.521	19.27
814.697	19.99
814.872	19.87
815.047	19.58
815.222	19.95
815.397	18.83
815.572	18.32
815.747	18.32
815.922	18.25
816.097	18.85
816.272	19.61
816.447	19.04
816.622	18.01
816.797	18.16
816.972	18.64
817.147	17.82
817.322	18.6
817.496	18.76
817.671	19.25
817.846	18.64
818.021	18.01
818.196	17.43
818.371	17.56
818.545	17.51
818.72	17.84
818.895	17.58
819.069	17.54
819.244	17.73
819.419	17.33
819.594	17.05
819.768	16.78
819.943	16.68
820.117	16.64
820.292	16.44
820.467	16.43
820.641	15.95
820.816	16.04
820.99	16.03
821.165	15.91
821.339	15.98
821.514	16.06
821.688	16.01
821.863	15.98
822.037	15.84
822.212	15.9
822.386	15.82
822.56	16.03
822.735	15.99
822.909	16.02
823.084	15.99
823.258	15.86
823.432	15.69
823.606	15.84
823.781	15.85
823.955	15.93
824.129	15.93
824.303	15.96
824.478	15.61
824.652	15.58
824.826	15.56
825	15.35
825.174	15.36
825.348	15.22
825.523	15.03
825.697	15.04
825.871	15.25
826.045	15.47
826.219	15.61
826.393	15.96
826.567	15.88
826.741	16.06
826.915	16.17
827.089	16.31
827.263	16.58
827.437	16.85
827.611	16.78
827.784	16.68
827.958	16.77
828.132	16.82
828.306	16.66
828.48	16.89
828.654	16.73
828.827	16.92
829.001	16.55
829.175	16.35
829.349	16.43
829.522	16.54
829.696	17.04
829.87	16.53
830.044	16.9
830.217	17.57
830.391	17.68
830.565	17.25
830.738	18.08
830.912	19
831.085	18.84
831.259	18.95
831.432	18.86
831.606	18.59
831.779	18.4
831.953	17.65
832.126	17.53
832.3	17.22
832.473	17.47
832.647	16.89
832.82	16.85
832.994	17.04
833.167	16.71
833.34	16.89
833.514	16.54
833.687	16.44
833.86	16.82
834.034	16.6
834.207	16.69
834.38	16.24
834.553	16.32
834.727	16.29
834.9	16.13
835.073	16.16
835.246	16.12
835.419	16.41
835.593	16.54
835.766	16.29
835.939	15.86
836.112	15.4
836.285	16.45
836.458	16.94
836.631	16.32
836.804	17.03
836.977	15.98
837.15	16.12
837.323	16.42
837.496	16.85
837.669	16.42
837.842	17.23
838.015	18.15
838.188	17.56
838.361	16.4
838.533	16.95
838.706	17
838.879	17.92
839.052	17.55
839.225	17.7
839.398	16.82
839.57	17.42
839.743	17.65
839.916	16.86
840.088	17.94
840.261	18.11
840.434	18.53
840.607	17.98
840.779	19.01
840.952	19.55
841.124	18.77
841.297	20.72
841.47	20.73
841.642	20.35
841.815	20.35
841.987	19.28
842.16	19.23
842.332	19.34
842.505	19.67
842.677	17.86
842.85	16.1
843.022	16.32
843.194	15.5
843.367	15.05
843.539	14.75
843.712	14.7
843.884	14.85
844.056	17
844.229	17.63
844.401	17.65
844.573	20.25
844.745	22.7
844.918	22.26
845.09	21.29
845.262	21.6
845.434	22.99
845.606	24.13
845.779	24.53
845.951	23.44
846.123	22.06
846.295	22.11
846.467	20.6
846.639	20.77
846.811	22.09
846.983	22
847.155	22.79
847.327	21.85
847.499	22.14
847.671	23
847.843	23.25
848.015	23.41
848.187	22.93
848.359	22.06
848.531	21.07
848.703	19.75
848.875	20.5
849.047	19.48
849.218	20.05
849.39	18.84
849.562	18.12
849.734	16.67
849.905	18.95
850.077	19.77
850.249	19.84
850.421	18.84
850.592	17.8
850.764	17.72
850.936	18.73
851.107	16.85
851.279	17.17
851.451	16.92
851.622	17.09
851.794	13.91
851.965	14.06
852.137	15.04
852.308	17.15
852.48	20.08
852.651	19.19
852.823	20.68
852.994	20.02
853.166	22.29
853.337	23.33
853.509	23.03
853.68	24.26
853.851	23.98
854.023	23.32
854.194	22.49
854.365	22.42
854.537	22.71
854.708	20.11
854.879	23.62
855.05	23.07
855.222	23.66
855.393	23.82
855.564	22.84
855.735	20.51
855.906	20.56
856.078	18.93
856.249	18.72
856.42	18.96
856.591	21.43
856.762	19.39
856.933	18.36
857.104	16.4
857.275	18.7
857.446	20.87
857.617	22.27
857.788	23.88
857.959	26.46
858.13	27.03
858.301	27.41
858.472	23.26
858.643	25.4
858.814	25.94
858.985	27.25
859.155	24.61
859.326	23.68
859.497	23.74
859.668	24.88
859.839	27.03
860.009	26.29
860.18	25.69
860.351	26.83
860.522	25.22
860.692	24.24
860.863	23.99
861.034	25.85
861.204	26.28
861.375	27.07
861.546	25.07
861.716	21.62
861.887	24.77
862.057	26.21
862.228	25.36
862.398	25.13
862.569	25.66
862.739	26.31
862.91	26.2
863.08	26.31
863.251	27.78
863.421	26.65
863.592	28.06
863.762	26.79
863.932	25.26
864.103	27.09
864.273	27.24
864.443	28.72
864.614	28.38
864.784	28.55
864.954	29.47
865.125	30.81
865.295	32.76
865.465	31.88
865.635	30.12
865.805	30.95
865.976	30.92
866.146	30.34
866.316	28.39
866.486	27.87
866.656	27.92
866.826	24.02
866.996	20.68
867.166	21.06
867.336	21.28
867.506	21.29
867.676	20.92
867.846	21.09
868.016	20.12
868.186	21.9
868.356	22.01
868.526	20.82
868.696	21.91
868.866	22.55
869.036	20.91
869.206	19.55
869.376	18.79
869.545	18.48
869.715	20.32
869.885	22.39
870.055	21.22
870.224	22.46
870.394	26.23
870.564	27.67
870.734	28.65
870.903	29.66
871.073	30.84
871.243	31.06
871.412	33.85
871.582	30.97
871.751	30.56
871.921	32.17
872.091	28.61
872.26	25.63
872.43	23.33
872.599	21.86
872.769	21.42
872.938	22.68
873.108	24.08
873.277	22.47
873.446	21.42
873.616	20.89
873.785	21.73
873.955	22.5
874.124	21.96
874.293	21.92
874.463	22.55
874.632	21.31
874.801	21.4
874.971	21.44
875.14	21.34
875.309	23.77
875.478	23.11
875.647	20.23
875.817	20.01
875.986	21.96
876.155	23.29
876.324	23.7
876.493	24.25
876.662	23.17
876.831	21.06
877	21.95
877.17	21.16
877.339	22.22
877.508	22.3
877.677	24.32
877.846	22.13
878.015	24.1
878.184	23.44
878.352	23.53
878.521	23.26
878.69	25.59
878.859	26.26
879.028	25.36
879.197	24.1
879.366	23.32
879.534	22.32
879.703	20.6
879.872	19.33
880.041	19.52
880.21	19.21
880.378	18.37
880.547	17.2
880.716	16.46
880.884	16.5
881.053	16.61
881.222	16.54
881.39	16.37
881.559	16.85
881.727	16.91
881.896	16.56
882.065	16.75
882.233	17.22
882.402	17.25
882.57	17.35
882.739	17.24
882.907	17.14
883.076	17.19
883.244	17.33
883.412	17.83
883.581	17.87
883.749	18.12
883.918	17.77
884.086	18.28
884.254	18.59
884.423	19.39
884.591	20.58
884.759	21.14
884.927	22.15
885.096	22.14
885.264	22.31
885.432	24.05
885.6	23.55
885.769	23.55
885.937	22.38
886.105	23.22
886.273	22.02
886.441	20.72
886.609	21.54
886.777	20.57
886.945	22.08
887.113	22.25
887.281	18.85
887.449	18.87
887.617	19.82
887.785	20.84
887.953	21.07
888.121	21.01
888.289	20.71
888.457	19.93
888.625	18.83
888.793	18.33
888.961	17.22
889.129	19.35
889.296	22.41
889.464	22.95
889.632	21.91
889.8	20.87
889.967	20.62
890.135	22.82
