Data from JASIL_2970_Reflection_2.txt Node
Date: Sat Nov 07 21:41:21 EST 2015
User: Geneva
Spectrometer: USB4E03002
Autoset integration time: false
Trigger mode: 4
Integration Time (sec): 1.000000E-1
Scans to average: 10
Electric dark correction enabled: true
Nonlinearity correction enabled: false
Boxcar width: 5
Stray light correction enabled: false
XAxis mode: Wavelengths
Stop averaging: false
Number of Pixels in Spectrum: 3648
>>>>>Begin Spectral Data<<<<<
177.575	-122.14
177.794	57.66
178.014	251.61
178.233	-58.49
178.452	-15.35
178.672	44.61
178.891	18.71
179.11	-24.28
179.33	-22.7
179.549	-116.93
179.768	-77.77
179.987	-147.03
180.207	-341.77
180.426	177.79
180.645	113.13
180.864	140.48
181.084	168.56
181.303	160.3
181.522	187.75
181.741	162.4
181.96	112.49
182.179	127.13
182.398	105.97
182.618	79.44
182.837	99.2
183.056	99.78
183.275	59.8
183.494	88.07
183.713	124.92
183.932	127.62
184.151	127.4
184.37	143.46
184.589	96.08
184.808	122.48
185.027	102.71
185.246	91.92
185.465	86.73
185.684	91.99
185.903	73.05
186.122	62.08
186.341	54.24
186.56	43.24
186.779	56.89
186.998	62.84
187.216	62.11
187.435	70.51
187.654	83.49
187.873	87.79
188.092	47.43
188.311	74.04
188.53	69.74
188.748	83.77
188.967	68.29
189.186	54.65
189.405	63.03
189.623	50.66
189.842	62.65
190.061	61.55
190.28	52.09
190.498	71.48
190.717	45.96
190.936	25.18
191.154	-39.5
191.373	25.05
191.592	-19.06
191.81	213.37
192.029	-168.69
192.248	520.99
192.466	87.57
192.685	107.55
192.904	135.78
193.122	130.66
193.341	170.13
193.559	143.93
193.778	132.61
193.996	106.9
194.215	84.78
194.433	64.15
194.652	97.4
194.87	81.77
195.089	83.47
195.307	77.48
195.526	79.65
195.744	89.94
195.963	92.6
196.181	78.82
196.399	82.75
196.618	89.51
196.836	105.74
197.055	86.22
197.273	73.24
197.491	70.08
197.71	58.59
197.928	47.01
198.146	26.79
198.365	24.33
198.583	37.48
198.801	47.61
199.019	75.46
199.238	61.08
199.456	51.27
199.674	56.86
199.892	48.85
200.111	44.14
200.329	81.63
200.547	80.56
200.765	64.5
200.983	50.79
201.202	43.77
201.42	36.31
201.638	36.62
201.856	58
202.074	65.16
202.292	74.4
202.51	92.51
202.728	61.21
202.946	72.26
203.165	121.43
203.383	111.06
203.601	124.68
203.819	119.3
204.037	115.19
204.255	102.65
204.473	95.27
204.691	112.63
204.909	92.82
205.127	81.2
205.345	78.67
205.562	60.05
205.78	63.14
205.998	80.37
206.216	76.85
206.434	87.89
206.652	85.02
206.87	86.45
207.088	65.19
207.306	71.65
207.523	73.2
207.741	69.74
207.959	72.57
208.177	72.71
208.395	47.45
208.612	36.24
208.83	28.77
209.048	18.65
209.266	-7.01
209.483	-17.37
209.701	-52.52
209.919	-30.85
210.136	-35.88
210.354	4.71
210.572	6.97
210.79	29.14
211.007	31.43
211.225	29.73
211.442	42.32
211.66	56.61
211.878	52.92
212.095	37.47
212.313	37.91
212.53	41.69
212.748	41.96
212.966	43.85
213.183	42.05
213.401	49.31
213.618	48.96
213.836	41.14
214.053	33.43
214.271	34.99
214.488	61.17
214.705	67.57
214.923	66.07
215.14	47.88
215.358	43.04
215.575	47.11
215.793	57.52
216.01	60.39
216.227	76.81
216.445	68.02
216.662	54.22
216.879	73.63
217.097	55.8
217.314	54.98
217.531	55.27
217.749	60.03
217.966	66.17
218.183	50.71
218.4	42.86
218.618	24.61
218.835	31.17
219.052	30.22
219.269	22.91
219.487	22.68
219.704	21.83
219.921	20.25
220.138	21.89
220.355	16.14
220.572	15.87
220.79	17.4
221.007	29.53
221.224	30.44
221.441	34.81
221.658	40.7
221.875	45.33
222.092	39.3
222.309	35.47
222.526	30.01
222.743	28.48
222.96	20.36
223.177	26.72
223.394	21.8
223.611	22.29
223.828	18.41
224.045	12.83
224.262	13.5
224.479	16.65
224.696	20.81
224.913	22.82
225.13	23.44
225.347	23.65
225.564	20.84
225.781	19.86
225.997	17.38
226.214	17.37
226.431	19.16
226.648	16.92
226.865	15.97
227.082	14.82
227.298	13.92
227.515	13.18
227.732	11.85
227.949	11.91
228.165	11.8
228.382	11.67
228.599	11.61
228.816	10.73
229.032	10.25
229.249	10.53
229.466	10.2
229.682	10.35
229.899	11.23
230.116	13.05
230.332	12.97
230.549	13.8
230.765	14.59
230.982	14.89
231.199	15.54
231.415	17.92
231.632	16.85
231.848	17.93
232.065	18.5
232.281	17.84
232.498	17.51
232.714	17.25
232.931	16.05
233.147	16.69
233.364	16.84
233.58	17.77
233.797	16.94
234.013	18.03
234.23	17.57
234.446	17.49
234.662	17.94
234.879	18.86
235.095	18.93
235.312	19.8
235.528	18.9
235.744	19.15
235.961	18.85
236.177	18.2
236.393	17.49
236.61	17.39
236.826	17.81
237.042	17.23
237.258	16.96
237.475	16.9
237.691	15.68
237.907	15.87
238.123	14.77
238.339	13.64
238.556	13.85
238.772	13.44
238.988	13.09
239.204	12.11
239.42	11.9
239.636	10.95
239.853	10.85
240.069	10.83
240.285	11.29
240.501	11.46
240.717	11.42
240.933	11.4
241.149	11.58
241.365	12.3
241.581	12.29
241.797	11.93
242.013	11.83
242.229	11.91
242.445	11.7
242.661	11.05
242.877	11.04
243.093	11.32
243.309	11
243.525	10.78
243.741	10.01
243.957	9.91
244.173	10.43
244.388	10.25
244.604	10.01
244.82	10.5
245.036	10.5
245.252	10.65
245.468	10.43
245.683	10.44
245.899	10.69
246.115	10.45
246.331	10.54
246.547	10.43
246.762	10.46
246.978	10.51
247.194	10.4
247.409	10.4
247.625	10.1
247.841	9.97
248.057	9.84
248.272	9.35
248.488	9.47
248.703	9.21
248.919	9.39
249.135	9.54
249.35	9.37
249.566	9.07
249.782	8.8
249.997	9.54
250.213	9.67
250.428	10.12
250.644	10.32
250.859	10.22
251.075	10.45
251.29	9.91
251.506	9.53
251.721	9.61
251.937	9.82
252.152	10.41
252.368	9.87
252.583	9.86
252.798	9.58
253.014	9.94
253.229	10.03
253.445	9.74
253.66	9.77
253.875	9.9
254.091	9.67
254.306	9.79
254.521	8.84
254.737	9.62
254.952	9.63
255.167	9.66
255.383	9.76
255.598	10.05
255.813	10.14
256.028	10.29
256.244	10.5
256.459	10.07
256.674	9.98
256.889	9.93
257.104	9.44
257.32	9.33
257.535	8.98
257.75	8.68
257.965	8.58
258.18	8.3
258.395	8.15
258.61	7.95
258.826	8.08
259.041	7.97
259.256	7.86
259.471	7.79
259.686	7.79
259.901	7.91
260.116	7.9
260.331	7.7
260.546	7.85
260.761	7.74
260.976	7.97
261.191	8.03
261.406	8.05
261.621	8.37
261.836	8.09
262.05	7.77
262.265	7.25
262.48	7.08
262.695	7.26
262.91	7.48
263.125	7.83
263.34	7.85
263.555	8.1
263.769	8.07
263.984	8.14
264.199	8.42
264.414	8.73
264.629	9.06
264.843	9.01
265.058	8.74
265.273	8.43
265.488	8.6
265.702	8.16
265.917	8.38
266.132	8.36
266.346	8.19
266.561	8.02
266.776	8.1
266.99	8.14
267.205	8.18
267.42	8.28
267.634	8.3
267.849	8.06
268.063	8.1
268.278	7.58
268.492	7.81
268.707	7.93
268.922	8.49
269.136	8.65
269.351	8.69
269.565	8.57
269.78	8.41
269.994	8.25
270.209	8.36
270.423	8.69
270.637	8.87
270.852	8.83
271.066	8.73
271.281	8.49
271.495	8.26
271.709	8.23
271.924	8.36
272.138	8.5
272.353	8.67
272.567	8.55
272.781	8.27
272.996	8.26
273.21	7.95
273.424	7.89
273.638	7.78
273.853	7.89
274.067	8
274.281	8.13
274.495	8.05
274.71	7.82
274.924	7.75
275.138	7.93
275.352	7.75
275.566	8.11
275.781	8.23
275.995	8.63
276.209	8.76
276.423	8.58
276.637	8.26
276.851	8.24
277.065	8.48
277.279	8.69
277.493	8.96
277.707	8.99
277.921	9.04
278.135	9.16
278.349	8.82
278.563	8.37
278.777	8.22
278.991	8.51
279.205	8.93
279.419	9.05
279.633	9.15
279.847	8.82
280.061	8.78
280.275	8.65
280.489	8.55
280.703	8.41
280.917	8.61
281.131	8.85
281.344	8.78
281.558	8.36
281.772	8.16
281.986	8.04
282.2	8.14
282.414	8.08
282.627	8.04
282.841	8.11
283.055	8.31
283.269	8.06
283.482	7.93
283.696	7.96
283.91	8.13
284.123	8.23
284.337	7.97
284.551	7.97
284.764	8.16
284.978	8.3
285.192	8.28
285.405	8.33
285.619	8.55
285.833	8.4
286.046	8.39
286.26	8.66
286.473	8.48
286.687	8.72
286.9	8.68
287.114	8.46
287.327	8.54
287.541	8.46
287.754	8.28
287.968	8.16
288.181	8.46
288.395	8.34
288.608	8.03
288.822	8.18
289.035	8.28
289.248	8.44
289.462	8.69
289.675	8.6
289.889	8.62
290.102	8.79
290.315	9.06
290.529	9.02
290.742	8.99
290.955	9.08
291.169	9.09
291.382	9.09
291.595	8.92
291.808	8.84
292.022	9.17
292.235	9.25
292.448	9.56
292.661	9.51
292.875	9.65
293.088	9.7
293.301	9.76
293.514	9.78
293.727	9.77
293.94	9.98
294.153	10.04
294.367	9.65
294.58	9.53
294.793	9.21
295.006	9.19
295.219	9.26
295.432	9.4
295.645	9.41
295.858	9.25
296.071	9.23
296.284	9.08
296.497	9.1
296.71	9.3
296.923	9.55
297.136	9.57
297.349	9.71
297.562	9.65
297.775	9.76
297.988	9.77
298.201	10.04
298.414	10.13
298.626	10.24
298.839	10.33
299.052	10.28
299.265	10.01
299.478	10.09
299.691	10.04
299.903	10.02
300.116	9.8
300.329	9.86
300.542	9.8
300.755	9.75
300.967	9.84
301.18	9.82
301.393	9.73
301.605	9.9
301.818	9.83
302.031	9.73
302.243	9.8
302.456	10.16
302.669	10
302.881	9.99
303.094	10.01
303.307	10.17
303.519	10.26
303.732	10.59
303.944	10.84
304.157	10.96
304.37	10.98
304.582	11.1
304.795	10.86
305.007	11.22
305.22	11.34
305.432	11.35
305.645	11.15
305.857	11.22
306.069	11.21
306.282	10.93
306.494	10.94
306.707	10.99
306.919	11.06
307.132	11.12
307.344	10.98
307.556	10.92
307.769	11.11
307.981	11.24
308.193	11.15
308.406	10.72
308.618	10.72
308.83	10.65
309.043	10.69
309.255	10.68
309.467	10.62
309.679	10.58
309.892	10.71
310.104	10.62
310.316	10.5
310.528	10.54
310.74	11.01
310.953	11.22
311.165	11.32
311.377	11.24
311.589	11.28
311.801	11.43
312.013	11.5
312.225	11.51
312.437	11.64
312.649	11.8
312.862	11.82
313.074	11.47
313.286	11.44
313.498	11.34
313.71	11.64
313.922	11.63
314.134	11.79
314.346	11.76
314.558	11.72
314.77	11.58
314.982	11.54
315.193	11.46
315.405	11.49
315.617	11.18
315.829	11.21
316.041	11.24
316.253	11
316.465	10.83
316.677	10.8
316.888	10.8
317.1	11.06
317.312	11.22
317.524	11.44
317.736	11.66
317.947	12.13
318.159	12.36
318.371	12.18
318.583	12.57
318.794	12.74
319.006	13.05
319.218	13.2
319.43	13.02
319.641	12.9
319.853	12.81
320.064	12.74
320.276	12.94
320.488	12.96
320.699	13.22
320.911	13.27
321.123	13.39
321.334	13.09
321.546	13
321.757	13.19
321.969	13.45
322.18	13.59
322.392	13.59
322.603	13.37
322.815	13.51
323.026	13.43
323.238	13.27
323.449	13.16
323.661	13.44
323.872	13.64
324.083	13.57
324.295	13.52
324.506	13.44
324.718	13.53
324.929	13.65
325.14	13.82
325.352	14.07
325.563	14.36
325.774	14.49
325.986	14.46
326.197	14.51
326.408	14.85
326.62	15.07
326.831	15.37
327.042	15.56
327.253	15.74
327.464	15.79
327.676	15.69
327.887	15.8
328.098	15.97
328.309	16.21
328.52	16.53
328.732	16.91
328.943	17.28
329.154	17.7
329.365	17.97
329.576	18.17
329.787	18.26
329.998	18.69
330.209	18.68
330.42	18.95
330.631	19.03
330.842	19.08
331.053	19.01
331.264	18.78
331.475	18.63
331.686	18.78
331.897	18.92
332.108	18.94
332.319	18.89
332.53	19.29
332.741	19.28
332.952	19.58
333.163	19.62
333.374	19.66
333.585	19.75
333.795	19.73
334.006	19.84
334.217	19.76
334.428	20.14
334.639	20.32
334.849	20.29
335.06	20.43
335.271	20.3
335.482	20.23
335.692	20.51
335.903	20.45
336.114	20.61
336.325	20.74
336.535	20.87
336.746	20.65
336.957	20.57
337.167	20.56
337.378	20.32
337.589	20.37
337.799	20.66
338.01	20.53
338.22	20.85
338.431	20.67
338.642	20.48
338.852	20.35
339.063	20.35
339.273	20.28
339.484	20.26
339.694	20.47
339.905	20.43
340.115	20.02
340.326	19.9
340.536	19.88
340.746	20.03
340.957	20.04
341.167	20.12
341.378	20.21
341.588	20.51
341.799	20.32
342.009	20.19
342.219	20.29
342.43	20.51
342.64	20.49
342.85	20.29
343.061	20.31
343.271	20.29
343.481	20.32
343.691	20.31
343.902	20
344.112	20.07
344.322	20.11
344.532	20.03
344.743	19.96
344.953	19.92
345.163	19.95
345.373	20.08
345.583	20.05
345.793	19.81
346.004	19.62
346.214	19.74
346.424	19.83
346.634	19.82
346.844	19.96
347.054	20.01
347.264	20.09
347.474	20.01
347.684	19.74
347.894	19.73
348.104	19.9
348.314	20.07
348.524	20.01
348.734	19.86
348.944	19.84
349.154	19.74
349.364	19.72
349.574	19.57
349.784	19.54
349.994	19.63
350.204	19.48
350.413	19.39
350.623	19.4
350.833	19.27
351.043	19.34
351.253	19.42
351.463	19.33
351.672	19.1
351.882	19.15
352.092	19.19
352.302	19.24
352.511	19.32
352.721	19.3
352.931	19.21
353.141	19.02
353.35	18.85
353.56	18.63
353.77	18.67
353.979	18.91
354.189	18.88
354.399	18.83
354.608	18.65
354.818	18.66
355.027	18.71
355.237	18.76
355.447	18.88
355.656	18.91
355.866	19.11
356.075	19.02
356.285	18.97
356.494	19
356.704	18.98
356.913	19.11
357.123	19.05
357.332	19.05
357.542	19.02
357.751	19.08
357.96	19.08
358.17	18.94
358.379	19.01
358.589	18.88
358.798	18.86
359.007	18.87
359.217	18.65
359.426	18.73
359.635	18.75
359.845	18.71
360.054	18.69
360.263	18.7
360.472	18.69
360.682	18.68
360.891	18.72
361.1	18.64
361.309	18.58
361.519	18.67
361.728	18.71
361.937	18.69
362.146	18.64
362.355	18.67
362.564	18.7
362.774	18.72
362.983	18.6
363.192	18.59
363.401	18.63
363.61	18.6
363.819	18.64
364.028	18.57
364.237	18.49
364.446	18.57
364.655	18.46
364.864	18.46
365.073	18.42
365.282	18.46
365.491	18.46
365.7	18.46
365.909	18.43
366.118	18.41
366.327	18.29
366.536	18.26
366.745	18.13
366.954	18.15
367.162	17.99
367.371	17.85
367.58	17.8
367.789	17.71
367.998	17.71
368.207	17.9
368.415	17.77
368.624	17.73
368.833	17.84
369.042	17.89
369.25	17.91
369.459	17.98
369.668	18.05
369.877	18.14
370.085	18.25
370.294	18.25
370.503	18.19
370.711	18.25
370.92	18.27
371.129	18.19
371.337	18.06
371.546	17.93
371.754	17.86
371.963	17.86
372.171	17.73
372.38	17.53
372.589	17.52
372.797	17.45
373.006	17.32
373.214	17.27
373.423	17.24
373.631	17.34
373.84	17.44
374.048	17.46
374.256	17.5
374.465	17.48
374.673	17.46
374.882	17.44
375.09	17.35
375.298	17.39
375.507	17.53
375.715	17.5
375.923	17.31
376.132	17.32
376.34	17.19
376.548	17.06
376.757	17.13
376.965	17.19
377.173	17.11
377.381	17.09
377.59	17.04
377.798	16.88
378.006	16.84
378.214	16.87
378.423	16.79
378.631	16.9
378.839	16.82
379.047	16.73
379.255	16.59
379.463	16.58
379.671	16.52
379.879	16.54
380.088	16.58
380.296	16.64
380.504	16.79
380.712	16.77
380.92	16.8
381.128	16.8
381.336	16.75
381.544	16.87
381.752	16.88
381.96	16.86
382.168	16.9
382.376	16.89
382.584	16.85
382.791	16.79
382.999	16.63
383.207	16.62
383.415	16.66
383.623	16.78
383.831	16.67
384.039	16.75
384.247	16.89
384.454	16.93
384.662	16.94
384.87	16.88
385.078	16.92
385.285	17.21
385.493	17.17
385.701	17.25
385.909	17.18
386.116	17.28
386.324	17.22
386.532	17.15
386.739	17.02
386.947	16.99
387.155	16.98
387.362	16.96
387.57	16.86
387.778	16.82
387.985	16.79
388.193	16.77
388.4	16.91
388.608	16.81
388.816	16.77
389.023	16.75
389.231	16.73
389.438	16.72
389.646	16.65
389.853	16.6
390.061	16.6
390.268	16.72
390.475	16.65
390.683	16.48
390.89	16.47
391.098	16.56
391.305	16.56
391.512	16.48
391.72	16.52
391.927	16.53
392.135	16.53
392.342	16.57
392.549	16.42
392.756	16.53
392.964	16.63
393.171	16.71
393.378	16.7
393.586	16.77
393.793	16.88
394	16.83
394.207	16.89
394.414	16.9
394.622	16.91
394.829	16.93
395.036	16.82
395.243	16.74
395.45	16.74
395.657	16.65
395.864	16.55
396.072	16.55
396.279	16.58
396.486	16.55
396.693	16.57
396.9	16.6
397.107	16.47
397.314	16.51
397.521	16.5
397.728	16.44
397.935	16.45
398.142	16.46
398.349	16.5
398.556	16.49
398.763	16.48
398.97	16.44
399.177	16.41
399.383	16.63
399.59	16.59
399.797	16.57
400.004	16.55
400.211	16.59
400.418	16.61
400.625	16.6
400.831	16.63
401.038	16.72
401.245	16.75
401.452	16.76
401.658	16.82
401.865	16.99
402.072	17.03
402.279	17.08
402.485	17.16
402.692	17.23
402.899	17.2
403.105	17.25
403.312	17.25
403.519	17.25
403.725	17.29
403.932	17.22
404.138	17.17
404.345	17.16
404.552	17.28
404.758	17.32
404.965	17.38
405.171	17.37
405.378	17.29
405.584	17.31
405.791	17.38
405.997	17.38
406.204	17.45
406.41	17.54
406.617	17.65
406.823	17.57
407.029	17.59
407.236	17.63
407.442	17.75
407.649	18.01
407.855	18.05
408.061	18.07
408.268	18.11
408.474	18
408.68	18.02
408.887	17.96
409.093	18.04
409.299	18.05
409.505	18.1
409.712	18.13
409.918	18.08
410.124	18.06
410.33	18.1
410.537	18.16
410.743	18.35
410.949	18.3
411.155	18.48
411.361	18.48
411.567	18.45
411.773	18.36
411.98	18.37
412.186	18.35
412.392	18.35
412.598	18.39
412.804	18.4
413.01	18.32
413.216	18.43
413.422	18.46
413.628	18.51
413.834	18.6
414.04	18.68
414.246	18.71
414.452	18.64
414.658	18.73
414.864	18.79
415.07	18.76
415.275	18.82
415.481	18.8
415.687	18.64
415.893	18.56
416.099	18.47
416.305	18.41
416.511	18.36
416.716	18.36
416.922	18.3
417.128	18.2
417.334	18.21
417.539	18.1
417.745	18.05
417.951	18.06
418.157	18.13
418.362	18.09
418.568	18.08
418.774	18.03
418.979	17.99
419.185	17.98
419.391	17.98
419.596	17.9
419.802	17.96
420.008	17.91
420.213	17.79
420.419	17.74
420.624	17.78
420.83	17.78
421.035	17.8
421.241	17.86
421.446	17.9
421.652	17.87
421.857	17.89
422.063	17.85
422.268	17.88
422.474	17.99
422.679	17.97
422.885	17.99
423.09	17.99
423.295	17.99
423.501	17.93
423.706	17.87
423.911	17.91
424.117	17.94
424.322	17.97
424.527	18
424.733	17.99
424.938	18.01
425.143	18
425.349	18.01
425.554	18.03
425.759	18.13
425.964	18.16
426.169	18.21
426.375	18.22
426.58	18.25
426.785	18.22
426.99	18.28
427.195	18.28
427.4	18.3
427.605	18.37
427.811	18.43
428.016	18.42
428.221	18.53
428.426	18.49
428.631	18.5
428.836	18.45
429.041	18.5
429.246	18.5
429.451	18.63
429.656	18.59
429.861	18.57
430.066	18.56
430.271	18.54
430.476	18.48
430.681	18.5
430.886	18.44
431.09	18.47
431.295	18.43
431.5	18.43
431.705	18.34
431.91	18.32
432.115	18.36
432.32	18.32
432.524	18.29
432.729	18.27
432.934	18.3
433.139	18.35
433.343	18.36
433.548	18.38
433.753	18.44
433.958	18.45
434.162	18.45
434.367	18.41
434.572	18.39
434.776	18.45
434.981	18.43
435.186	18.28
435.39	18.31
435.595	18.3
435.799	18.32
436.004	18.29
436.209	18.23
436.413	18.24
436.618	18.27
436.822	18.3
437.027	18.2
437.231	18.27
437.436	18.34
437.64	18.3
437.845	18.22
438.049	18.19
438.253	18.09
438.458	18.11
438.662	18.09
438.867	18.03
439.071	17.98
439.275	18.02
439.48	17.95
439.684	17.92
439.888	17.87
440.093	17.92
440.297	17.92
440.501	17.96
440.706	17.98
440.91	18.04
441.114	18.05
441.318	18.11
441.523	18.08
441.727	18.12
441.931	18.19
442.135	18.23
442.339	18.21
442.543	18.22
442.748	18.25
442.952	18.27
443.156	18.21
443.36	18.17
443.564	18.05
443.768	18.07
443.972	18
444.176	17.92
444.38	17.89
444.584	17.88
444.788	17.84
444.992	17.8
445.196	17.7
445.4	17.68
445.604	17.65
445.808	17.68
446.012	17.68
446.216	17.7
446.42	17.65
446.624	17.62
446.828	17.61
447.032	17.6
447.235	17.59
447.439	17.6
447.643	17.63
447.847	17.71
448.051	17.71
448.254	17.69
448.458	17.69
448.662	17.78
448.866	17.83
449.069	17.9
449.273	17.93
449.477	18.02
449.681	18.09
449.884	18.1
450.088	18.09
450.292	18.04
450.495	18.05
450.699	18.06
450.902	18.05
451.106	18.03
451.31	17.93
451.513	17.94
451.717	17.82
451.92	17.82
452.124	17.78
452.327	17.78
452.531	17.82
452.734	17.81
452.938	17.75
453.141	17.76
453.345	17.79
453.548	17.87
453.752	17.81
453.955	17.87
454.158	17.84
454.362	17.87
454.565	17.8
454.769	17.8
454.972	17.82
455.175	17.85
455.379	17.84
455.582	17.8
455.785	17.72
455.988	17.71
456.192	17.62
456.395	17.58
456.598	17.58
456.801	17.6
457.005	17.57
457.208	17.48
457.411	17.43
457.614	17.37
457.817	17.33
458.021	17.35
458.224	17.32
458.427	17.36
458.63	17.34
458.833	17.29
459.036	17.3
459.239	17.25
459.442	17.27
459.645	17.28
459.848	17.26
460.051	17.29
460.254	17.29
460.457	17.34
460.66	17.36
460.863	17.42
461.066	17.43
461.269	17.43
461.472	17.47
461.675	17.56
461.878	17.58
462.081	17.65
462.284	17.66
462.486	17.67
462.689	17.68
462.892	17.71
463.095	17.7
463.298	17.74
463.5	17.74
463.703	17.8
463.906	17.74
464.109	17.76
464.311	17.82
464.514	17.81
464.717	17.76
464.92	17.75
465.122	17.72
465.325	17.73
465.528	17.72
465.73	17.75
465.933	17.74
466.135	17.76
466.338	17.77
466.541	17.75
466.743	17.77
466.946	17.83
467.148	17.83
467.351	17.84
467.553	17.8
467.756	17.87
467.958	17.86
468.161	17.85
468.363	17.81
468.566	17.8
468.768	17.75
468.971	17.76
469.173	17.71
469.375	17.71
469.578	17.77
469.78	17.79
469.983	17.79
470.185	17.79
470.387	17.83
470.59	17.82
470.792	17.84
470.994	17.87
471.196	17.86
471.399	17.85
471.601	17.84
471.803	17.76
472.005	17.79
472.208	17.82
472.41	17.77
472.612	17.73
472.814	17.76
473.016	17.78
473.218	17.82
473.421	17.86
473.623	17.87
473.825	17.9
474.027	17.93
474.229	17.91
474.431	17.9
474.633	17.94
474.835	17.92
475.037	17.91
475.239	17.85
475.441	17.85
475.643	17.76
475.845	17.75
476.047	17.72
476.249	17.73
476.451	17.73
476.653	17.7
476.855	17.67
477.057	17.69
477.258	17.7
477.46	17.72
477.662	17.67
477.864	17.71
478.066	17.71
478.268	17.71
478.469	17.69
478.671	17.67
478.873	17.61
479.075	17.59
479.276	17.57
479.478	17.52
479.68	17.5
479.882	17.5
480.083	17.51
480.285	17.5
480.487	17.45
480.688	17.38
480.89	17.34
481.091	17.29
481.293	17.23
481.495	17.14
481.696	17.07
481.898	17.01
482.099	16.94
482.301	16.9
482.502	16.87
482.704	16.84
482.905	16.82
483.107	16.78
483.308	16.77
483.51	16.77
483.711	16.78
483.913	16.81
484.114	16.82
484.315	16.82
484.517	16.83
484.718	16.83
484.92	16.84
485.121	16.86
485.322	16.88
485.524	16.9
485.725	16.93
485.926	16.92
486.127	16.89
486.329	16.89
486.53	16.89
486.731	16.87
486.932	16.89
487.134	16.87
487.335	16.86
487.536	16.85
487.737	16.84
487.938	16.84
488.139	16.86
488.341	16.89
488.542	16.9
488.743	16.92
488.944	16.94
489.145	16.94
489.346	16.96
489.547	16.97
489.748	16.99
489.949	17.02
490.15	17.02
490.351	17.03
490.552	17.04
490.753	17.04
490.954	17.03
491.155	17.06
491.356	17.04
491.557	17.05
491.758	17.1
491.959	17.13
492.159	17.12
492.36	17.13
492.561	17.15
492.762	17.19
492.963	17.22
493.164	17.29
493.364	17.3
493.565	17.39
493.766	17.46
493.967	17.47
494.167	17.49
494.368	17.55
494.569	17.55
494.769	17.56
494.97	17.56
495.171	17.56
495.371	17.54
495.572	17.57
495.773	17.58
495.973	17.53
496.174	17.55
496.375	17.57
496.575	17.56
496.776	17.57
496.976	17.6
497.177	17.65
497.377	17.65
497.578	17.68
497.778	17.67
497.979	17.64
498.179	17.73
498.38	17.73
498.58	17.74
498.78	17.79
498.981	17.83
499.181	17.83
499.382	17.84
499.582	17.87
499.782	17.86
499.983	17.89
500.183	17.96
500.383	17.93
500.584	17.97
500.784	17.95
500.984	17.93
501.184	17.94
501.385	17.96
501.585	17.94
501.785	17.98
501.985	18.03
502.185	17.98
502.386	17.95
502.586	18.01
502.786	18.05
502.986	18.09
503.186	18.17
503.386	18.2
503.586	18.25
503.786	18.26
503.987	18.26
504.187	18.3
504.387	18.37
504.587	18.41
504.787	18.4
504.987	18.36
505.187	18.37
505.387	18.34
505.587	18.3
505.786	18.31
505.986	18.27
506.186	18.27
506.386	18.25
506.586	18.29
506.786	18.33
506.986	18.33
507.186	18.39
507.386	18.45
507.585	18.52
507.785	18.58
507.985	18.6
508.185	18.69
508.384	18.72
508.584	18.76
508.784	18.77
508.984	18.78
509.183	18.82
509.383	18.88
509.583	18.87
509.782	18.88
509.982	18.87
510.182	18.9
510.381	18.9
510.581	18.97
510.781	18.97
510.98	19.03
511.18	19.08
511.379	19.14
511.579	19.15
511.778	19.17
511.978	19.21
512.177	19.3
512.377	19.36
512.576	19.4
512.776	19.44
512.975	19.5
513.175	19.56
513.374	19.6
513.573	19.6
513.773	19.64
513.972	19.72
514.172	19.77
514.371	19.81
514.57	19.81
514.77	19.89
514.969	19.88
515.168	19.9
515.367	19.9
515.567	19.93
515.766	19.95
515.965	19.97
516.164	19.98
516.364	20
516.563	20.05
516.762	20.11
516.961	20.12
517.16	20.19
517.359	20.25
517.559	20.3
517.758	20.32
517.957	20.35
518.156	20.42
518.355	20.46
518.554	20.53
518.753	20.51
518.952	20.59
519.151	20.67
519.35	20.71
519.549	20.74
519.748	20.8
519.947	20.86
520.146	20.94
520.345	20.98
520.544	21
520.743	21.04
520.942	21.2
521.141	21.17
521.339	21.19
521.538	21.21
521.737	21.28
521.936	21.25
522.135	21.32
522.333	21.32
522.532	21.32
522.731	21.41
522.93	21.43
523.129	21.42
523.327	21.46
523.526	21.47
523.725	21.54
523.923	21.56
524.122	21.63
524.321	21.68
524.519	21.72
524.718	21.75
524.917	21.77
525.115	21.78
525.314	21.79
525.512	21.83
525.711	21.86
525.909	21.82
526.108	21.81
526.306	21.83
526.505	21.82
526.703	21.88
526.902	21.95
527.1	21.98
527.299	22.04
527.497	22.11
527.696	22.17
527.894	22.2
528.092	22.28
528.291	22.35
528.489	22.42
528.688	22.48
528.886	22.52
529.084	22.55
529.283	22.6
529.481	22.63
529.679	22.64
529.877	22.64
530.076	22.68
530.274	22.73
530.472	22.79
530.67	22.81
530.869	22.83
531.067	22.88
531.265	22.91
531.463	22.95
531.661	23.02
531.859	23.08
532.057	23.16
532.255	23.24
532.454	23.27
532.652	23.32
532.85	23.35
533.048	23.39
533.246	23.42
533.444	23.45
533.642	23.49
533.84	23.49
534.038	23.53
534.236	23.56
534.434	23.58
534.632	23.64
534.83	23.65
535.027	23.72
535.225	23.79
535.423	23.88
535.621	23.94
535.819	23.98
536.017	24.06
536.215	24.11
536.412	24.12
536.61	24.14
536.808	24.17
537.006	24.19
537.203	24.21
537.401	24.22
537.599	24.2
537.797	24.26
537.994	24.29
538.192	24.32
538.39	24.35
538.587	24.35
538.785	24.41
538.983	24.44
539.18	24.49
539.378	24.54
539.575	24.57
539.773	24.67
539.97	24.72
540.168	24.76
540.366	24.79
540.563	24.84
540.761	24.89
540.958	24.91
541.155	24.94
541.353	24.98
541.55	25.04
541.748	25.07
541.945	25.06
542.143	25.05
542.34	25.07
542.537	25.12
542.735	25.17
542.932	25.25
543.129	25.29
543.327	25.36
543.524	25.43
543.721	25.46
543.919	25.52
544.116	25.59
544.313	25.67
544.51	25.71
544.708	25.71
544.905	25.73
545.102	25.73
545.299	25.74
545.496	25.78
545.693	25.8
545.891	25.81
546.088	25.87
546.285	25.91
546.482	25.89
546.679	25.94
546.876	26
547.073	26.05
547.27	26.1
547.467	26.19
547.664	26.19
547.861	26.23
548.058	26.24
548.255	26.25
548.452	26.28
548.649	26.36
548.846	26.4
549.043	26.39
549.24	26.4
549.437	26.4
549.633	26.38
549.83	26.46
550.027	26.44
550.224	26.51
550.421	26.54
550.618	26.55
550.814	26.6
551.011	26.66
551.208	26.73
551.405	26.76
551.601	26.82
551.798	26.86
551.995	26.83
552.191	26.86
552.388	26.84
552.585	26.91
552.781	26.92
552.978	26.94
553.175	26.92
553.371	26.9
553.568	26.89
553.764	26.9
553.961	26.94
554.157	27.02
554.354	27.06
554.55	27.16
554.747	27.16
554.943	27.21
555.14	27.24
555.336	27.28
555.533	27.37
555.729	27.44
555.926	27.49
556.122	27.56
556.318	27.5
556.515	27.49
556.711	27.5
556.907	27.54
557.104	27.61
557.3	27.65
557.496	27.69
557.693	27.7
557.889	27.75
558.085	27.82
558.281	27.8
558.478	27.94
558.674	28
558.87	27.98
559.066	27.96
559.262	27.95
559.459	27.9
559.655	27.9
559.851	27.92
560.047	27.94
560.243	27.89
560.439	27.92
560.635	27.93
560.831	27.94
561.027	28.02
561.223	28.05
561.419	28.06
561.615	28.08
561.811	28.11
562.007	28.18
562.203	28.16
562.399	28.26
562.595	28.29
562.791	28.27
562.987	28.28
563.183	28.29
563.379	28.35
563.575	28.42
563.771	28.5
563.966	28.57
564.162	28.6
564.358	28.67
564.554	28.63
564.75	28.67
564.945	28.69
565.141	28.77
565.337	28.79
565.533	28.84
565.728	28.87
565.924	28.88
566.12	28.87
566.315	28.87
566.511	28.82
566.707	28.89
566.902	28.91
567.098	28.95
567.293	28.95
567.489	28.97
567.684	28.98
567.88	28.9
568.076	28.96
568.271	28.96
568.467	28.97
568.662	29.02
568.858	28.95
569.053	28.97
569.248	29.01
569.444	28.98
569.639	29.02
569.835	29.02
570.03	29.1
570.225	29.07
570.421	29.11
570.616	29.14
570.812	29.21
571.007	29.28
571.202	29.31
571.397	29.27
571.593	29.29
571.788	29.32
571.983	29.34
572.178	29.35
572.374	29.36
572.569	29.38
572.764	29.38
572.959	29.41
573.154	29.44
573.35	29.5
573.545	29.51
573.74	29.55
573.935	29.56
574.13	29.58
574.325	29.62
574.52	29.65
574.715	29.66
574.91	29.69
575.105	29.72
575.3	29.73
575.495	29.71
575.69	29.79
575.885	29.82
576.08	29.84
576.275	29.86
576.47	29.87
576.665	29.89
576.86	29.89
577.055	29.99
577.25	29.88
577.444	29.92
577.639	29.96
577.834	29.93
578.029	29.93
578.224	29.91
578.418	29.94
578.613	29.98
578.808	29.95
579.003	29.96
579.197	29.99
579.392	30.03
579.587	30.09
579.781	30.06
579.976	30.03
580.171	30.06
580.365	30.09
580.56	30.04
580.755	30.02
580.949	30.13
581.144	30.24
581.338	30.14
581.533	30.21
581.727	30.22
581.922	30.19
582.116	30.26
582.311	30.26
582.505	30.28
582.7	30.32
582.894	30.37
583.089	30.34
583.283	30.3
583.478	30.34
583.672	30.37
583.866	30.31
584.061	30.44
584.255	30.41
584.449	30.42
584.644	30.47
584.838	30.5
585.032	30.49
585.226	30.51
585.421	30.55
585.615	30.52
585.809	30.5
586.003	30.53
586.198	30.46
586.392	30.49
586.586	30.47
586.78	30.44
586.974	30.51
587.168	30.53
587.363	30.47
587.557	30.51
587.751	30.57
587.945	30.58
588.139	30.57
588.333	30.58
588.527	30.67
588.721	30.69
588.915	30.68
589.109	30.63
589.303	30.58
589.497	30.71
589.691	30.62
589.885	30.65
590.079	30.64
590.273	30.68
590.466	30.71
590.66	30.69
590.854	30.74
591.048	30.73
591.242	30.76
591.436	30.81
591.629	30.76
591.823	30.8
592.017	30.8
592.211	30.83
592.404	30.83
592.598	30.84
592.792	30.87
592.986	30.84
593.179	30.83
593.373	30.72
593.567	30.75
593.76	30.72
593.954	30.72
594.147	30.67
594.341	30.69
594.535	30.71
594.728	30.72
594.922	30.72
595.115	30.78
595.309	30.85
595.502	30.98
595.696	30.93
595.889	30.98
596.083	31
596.276	31.05
596.47	31.04
596.663	31.02
596.856	31.08
597.05	31.08
597.243	31.06
597.437	31.11
597.63	31.1
597.823	31.1
598.017	31.07
598.21	31.03
598.403	31.04
598.596	31.01
598.79	31
598.983	31
599.176	30.98
599.369	30.96
599.563	30.85
599.756	30.89
599.949	30.91
600.142	30.93
600.335	31.01
600.528	30.97
600.722	31.01
600.915	31.09
601.108	31.04
601.301	31.07
601.494	31.15
601.687	31.14
601.88	31.15
602.073	31.18
602.266	31.2
602.459	31.2
602.652	31.24
602.845	31.28
603.038	31.31
603.231	31.33
603.424	31.32
603.617	31.34
603.809	31.34
604.002	31.33
604.195	31.32
604.388	31.35
604.581	31.33
604.774	31.32
604.966	31.31
605.159	31.23
605.352	31.25
605.545	31.3
605.737	31.29
605.93	31.35
606.123	31.3
606.316	31.32
606.508	31.32
606.701	31.35
606.894	31.47
607.086	31.38
607.279	31.36
607.471	31.39
607.664	31.38
607.857	31.45
608.049	31.45
608.242	31.54
608.434	31.66
608.627	31.73
608.819	31.77
609.012	31.76
609.204	31.92
609.397	32.08
609.589	32.1
609.782	32.13
609.974	32.07
610.166	32.19
610.359	32.25
610.551	32.2
610.743	32.17
610.936	32.28
611.128	32.32
611.32	32.27
611.513	32.17
611.705	32.2
611.897	32.17
612.09	32.24
612.282	32.18
612.474	32.02
612.666	32.07
612.858	31.94
613.051	31.75
613.243	31.67
613.435	31.68
613.627	31.72
613.819	31.68
614.011	31.73
614.203	31.59
614.395	31.56
614.588	31.61
614.78	31.54
614.972	31.59
615.164	31.62
615.356	31.63
615.548	31.66
615.74	31.69
615.932	31.66
616.124	31.6
616.315	31.71
616.507	31.72
616.699	31.82
616.891	31.87
617.083	32.01
617.275	32.08
617.467	32.11
617.659	32.02
617.85	32.01
618.042	31.96
618.234	32.06
618.426	32.05
618.618	32.1
618.809	31.98
619.001	31.96
619.193	31.88
619.384	31.83
619.576	31.8
619.768	31.79
619.959	31.77
620.151	31.78
620.343	31.65
620.534	31.58
620.726	31.53
620.917	31.57
621.109	31.59
621.301	31.62
621.492	31.59
621.684	31.57
621.875	31.68
622.067	31.71
622.258	31.77
622.45	31.86
622.641	31.91
622.832	31.96
623.024	32.03
623.215	32
623.407	32.04
623.598	32.08
623.789	32.18
623.981	32.15
624.172	32.22
624.363	32.28
624.555	32.32
624.746	32.33
624.937	32.29
625.129	32.26
625.32	32.28
625.511	32.29
625.702	32.29
625.893	32.24
626.085	32.28
626.276	32.28
626.467	32.31
626.658	32.24
626.849	32.25
627.04	32.35
627.231	32.35
627.422	32.42
627.614	32.38
627.805	32.42
627.996	32.44
628.187	32.44
628.378	32.36
628.569	32.32
628.76	32.34
628.951	32.39
629.142	32.31
629.332	32.34
629.523	32.29
629.714	32.28
629.905	32.29
630.096	32.23
630.287	32.27
630.478	32.26
630.669	32.3
630.859	32.31
631.05	32.23
631.241	32.17
631.432	32.1
631.623	32.15
631.813	32.25
632.004	32.25
632.195	32.34
632.385	32.27
632.576	32.34
632.767	32.33
632.957	32.4
633.148	32.48
633.339	32.57
633.529	32.69
633.72	32.6
633.91	32.51
634.101	32.58
634.292	32.52
634.482	32.53
634.673	32.41
634.863	32.38
635.054	32.32
635.244	32.3
635.435	32.27
635.625	32.24
635.815	32.24
636.006	32.22
636.196	32.18
636.387	32.16
636.577	32.17
636.767	32.36
636.958	32.45
637.148	32.48
637.338	32.45
637.529	32.46
637.719	32.44
637.909	32.42
638.099	32.59
638.29	32.56
638.48	32.7
638.67	32.72
638.86	32.57
639.05	32.52
639.241	32.58
639.431	32.63
639.621	32.62
639.811	32.69
640.001	32.71
640.191	32.61
640.381	32.6
640.571	32.52
640.761	32.55
640.951	32.64
641.141	32.63
641.331	32.54
641.521	32.56
641.711	32.68
641.901	32.64
642.091	32.76
642.281	32.79
642.471	32.83
642.661	32.92
642.851	32.98
643.041	32.92
643.231	32.93
643.42	32.95
643.61	32.88
643.8	32.72
643.99	32.7
644.18	32.65
644.369	32.64
644.559	32.64
644.749	32.46
644.939	32.3
645.128	32.29
645.318	32.3
645.508	32.4
645.697	32.4
645.887	32.45
646.076	32.53
646.266	32.56
646.456	32.57
646.645	32.53
646.835	32.66
647.024	32.77
647.214	32.9
647.403	32.96
647.593	32.95
647.782	32.99
647.972	33.04
648.161	32.91
648.351	32.89
648.54	32.93
648.73	32.97
648.919	32.99
649.108	32.92
649.298	32.78
649.487	32.76
649.677	32.68
649.866	32.68
650.055	32.71
650.244	32.74
650.434	32.72
650.623	32.7
650.812	32.7
651.002	32.69
651.191	32.62
651.38	32.79
651.569	32.72
651.758	32.68
651.947	32.62
652.137	32.58
652.326	32.66
652.515	32.69
652.704	32.72
652.893	32.77
653.082	32.71
653.271	32.83
653.46	32.71
653.649	32.78
653.838	32.87
654.027	32.95
654.216	32.95
654.405	32.94
654.594	32.88
654.783	32.88
654.972	32.9
655.161	32.97
655.35	33.07
655.539	33.07
655.728	33.01
655.916	32.95
656.105	32.98
656.294	33.06
656.483	33.02
656.672	33.07
656.86	33.1
657.049	33.06
657.238	33.09
657.427	33.03
657.615	33.06
657.804	33.09
657.993	33.09
658.181	33.1
658.37	33.13
658.559	33.14
658.747	33.14
658.936	33.11
659.125	33.12
659.313	33.06
659.502	33.09
659.69	33.08
659.879	33.08
660.067	33.2
660.256	33.25
660.444	33.22
660.633	33.21
660.821	33.17
661.01	33.22
661.198	33.31
661.387	33.41
661.575	33.37
661.763	33.43
661.952	33.46
662.14	33.37
662.328	33.3
662.517	33.31
662.705	33.35
662.893	33.54
663.082	33.41
663.27	33.29
663.458	33.23
663.646	33.39
663.834	33.39
664.023	33.38
664.211	33.36
664.399	33.27
664.587	33.27
664.775	33.25
664.963	33.18
665.152	33.18
665.34	33.21
665.528	33.3
665.716	33.2
665.904	33.2
666.092	33.15
666.28	33.21
666.468	33.3
666.656	33.33
666.844	33.32
667.032	33.27
667.22	33.34
667.408	33.31
667.596	33.24
667.784	33.24
667.971	33.16
668.159	33.23
668.347	33.15
668.535	33.21
668.723	33.08
668.911	33.06
669.098	32.98
669.286	33.01
669.474	33.05
669.662	33.12
669.849	33.01
670.037	32.96
670.225	32.9
670.413	32.92
670.6	32.99
670.788	33.07
670.976	33.15
671.163	33.26
671.351	33.21
671.538	33.3
671.726	33.3
671.913	33.36
672.101	33.38
672.289	33.53
672.476	33.55
672.664	33.44
672.851	33.4
673.039	33.37
673.226	33.3
673.413	33.2
673.601	33.09
673.788	33.01
673.976	32.99
674.163	33.03
674.35	32.95
674.538	32.92
674.725	32.87
674.912	32.89
675.1	32.87
675.287	32.91
675.474	33.14
675.662	33.31
675.849	33.29
676.036	33.33
676.223	33.39
676.411	33.35
676.598	33.33
676.785	33.28
676.972	33.28
677.159	33.36
677.346	33.38
677.533	33.37
677.721	33.36
677.908	33.5
678.095	33.49
678.282	33.57
678.469	33.58
678.656	33.65
678.843	33.77
679.03	33.84
679.217	33.81
679.404	33.82
679.591	33.65
679.778	33.54
679.964	33.45
680.151	33.51
680.338	33.5
680.525	33.61
680.712	33.66
680.899	33.67
681.086	33.64
681.272	33.65
681.459	33.64
681.646	33.84
681.833	33.84
682.02	33.76
682.206	33.71
682.393	33.72
682.58	33.52
682.766	33.46
682.953	33.43
683.14	33.43
683.326	33.6
683.513	33.65
683.7	33.54
683.886	33.61
684.073	33.57
684.259	33.54
684.446	33.54
684.632	33.69
684.819	33.66
685.005	33.69
685.192	33.77
685.378	33.56
685.565	33.42
685.751	33.39
685.938	33.28
686.124	33.36
686.31	33.26
686.497	33.24
686.683	33.16
686.87	33.2
687.056	33.11
687.242	33.11
687.429	33.22
687.615	33.33
687.801	33.33
687.987	33.35
688.174	33.4
688.36	33.55
688.546	33.52
688.732	33.68
688.918	33.69
689.105	33.79
689.291	33.72
689.477	33.73
689.663	33.78
689.849	33.77
690.035	34
690.221	34.02
690.407	34.05
690.593	34.09
690.779	34.11
690.965	34.07
691.151	34.01
691.337	34.12
691.523	34.02
691.709	34.19
691.895	34.18
692.081	33.94
692.267	33.9
692.453	33.82
692.639	33.7
692.825	33.68
693.011	33.7
693.196	33.8
693.382	33.79
693.568	33.71
693.754	33.44
693.94	33.52
694.125	33.56
694.311	33.61
694.497	33.68
694.682	33.82
694.868	33.76
695.054	33.97
695.239	33.78
695.425	33.74
695.611	34.03
695.796	34.13
695.982	34.13
696.168	34.06
696.353	34.15
696.539	34.17
696.724	34.11
696.91	34.19
697.095	33.99
697.281	34.16
697.466	34.2
697.652	34.05
697.837	34.03
698.023	34.01
698.208	34.05
698.393	34.04
698.579	33.99
698.764	33.87
698.949	33.75
699.135	33.83
699.32	33.82
699.505	33.78
699.691	33.79
699.876	33.81
700.061	33.77
700.246	33.69
700.432	33.57
700.617	33.77
700.802	33.84
700.987	33.87
701.172	33.85
701.358	33.64
701.543	33.69
701.728	33.59
701.913	33.52
702.098	33.68
702.283	33.82
702.468	33.81
702.653	33.5
702.838	33.6
703.023	33.66
703.208	33.62
703.393	33.69
703.578	33.82
703.763	33.91
703.948	34.02
704.133	33.78
704.318	33.72
704.503	33.84
704.688	33.94
704.873	34.15
705.057	34.2
705.242	34.19
705.427	34.11
705.612	33.88
705.797	33.94
705.981	33.87
706.166	33.94
706.351	34.07
706.536	34.17
706.72	34
706.905	33.87
707.09	33.81
707.274	33.81
707.459	33.88
707.644	33.85
707.828	33.79
708.013	33.83
708.197	33.87
708.382	33.7
708.567	33.59
708.751	33.59
708.936	33.54
709.12	33.53
709.305	33.59
709.489	33.71
709.673	33.56
709.858	33.59
710.042	33.6
710.227	33.72
710.411	33.66
710.596	33.72
710.78	33.94
710.964	33.99
711.149	34.11
711.333	34.15
711.517	34.08
711.702	34.31
711.886	34.5
712.07	34.49
712.254	34.48
712.438	34.65
712.623	34.65
712.807	34.73
712.991	34.74
713.175	34.5
713.359	34.45
713.544	34.46
713.728	34.51
713.912	34.4
714.096	34.55
714.28	34.38
714.464	34.27
714.648	34.28
714.832	34.06
715.016	33.96
715.2	33.97
715.384	34.09
715.568	34.04
715.752	33.94
715.936	33.87
716.12	33.71
716.304	33.78
716.488	33.83
716.671	33.85
716.855	33.85
717.039	33.93
717.223	34.14
717.407	33.81
717.59	33.76
717.774	33.84
717.958	33.88
718.142	33.8
718.325	33.92
718.509	34.05
718.693	33.87
718.877	33.86
719.06	33.9
719.244	33.63
719.428	33.82
719.611	34.08
719.795	33.97
719.978	33.98
720.162	33.92
720.345	33.84
720.529	33.54
720.713	33.81
720.896	33.91
721.08	33.95
721.263	34.21
721.446	34.1
721.63	34.13
721.813	34.24
721.997	34.08
722.18	34.31
722.364	34.37
722.547	34.63
722.73	34.53
722.914	34.53
723.097	34.22
723.28	34.14
723.464	34.2
723.647	34.16
723.83	33.84
724.013	33.93
724.197	33.89
724.38	33.88
724.563	33.68
724.746	33.7
724.929	33.74
725.112	33.95
725.296	33.83
725.479	33.91
725.662	33.77
725.845	33.88
726.028	33.83
726.211	33.74
726.394	33.66
726.577	33.73
726.76	33.84
726.943	33.72
727.126	33.85
727.309	33.96
727.492	34.05
727.675	34.05
727.858	34.2
728.041	34.27
728.224	34.3
728.407	34.41
728.589	34.32
728.772	34.31
728.955	34.53
729.138	34.45
729.321	34.42
729.503	34.33
729.686	34.41
729.869	34.33
730.052	34.31
730.234	34.13
730.417	34.25
730.6	34.38
730.782	34.16
730.965	33.97
731.148	33.82
731.33	33.94
731.513	33.94
731.695	33.99
731.878	34.16
732.061	34.15
732.243	34.29
732.426	34.2
732.608	34.29
732.791	34.27
732.973	34.23
733.156	34.33
733.338	34.3
733.52	34.32
733.703	34.17
733.885	34.19
734.068	34.26
734.25	34.3
734.432	34.39
734.615	34.37
734.797	34.4
734.979	34.54
735.162	34.49
735.344	34.24
735.526	34.24
735.708	34.29
735.891	34.16
736.073	34.24
736.255	34.34
736.437	34.11
736.619	33.87
736.802	33.9
736.984	33.79
737.166	33.85
737.348	34.11
737.53	34
737.712	34.05
737.894	34.05
738.076	34.15
738.258	34.04
738.44	34.02
738.622	34.07
738.804	34.01
738.986	34.03
739.168	34.14
739.35	34.18
739.532	34.15
739.714	34.05
739.896	34
740.078	33.83
740.259	34.07
740.441	34.06
740.623	34.4
740.805	34.54
740.987	34.72
741.168	34.5
741.35	34.12
741.532	34.42
741.714	34.37
741.895	34.66
742.077	34.52
742.259	34.27
742.44	34.4
742.622	34.1
742.804	34.06
742.985	33.93
743.167	34.16
743.348	34.33
743.53	34.37
743.711	34.35
743.893	33.93
744.075	34.14
744.256	34.15
744.438	33.9
744.619	34
744.8	33.98
744.982	34.09
745.163	33.96
745.345	33.8
745.526	33.66
745.707	33.9
745.889	33.99
746.07	34.13
746.252	34.26
746.433	34.66
746.614	34.6
746.795	34.86
746.977	34.91
747.158	34.76
747.339	34.7
747.52	34.73
747.702	34.62
747.883	34.71
748.064	34.37
748.245	34.37
748.426	34.12
748.607	34.24
748.788	34.01
748.97	33.81
749.151	34.35
749.332	34.71
749.513	34.58
749.694	34.68
749.875	34.94
750.056	35.09
750.237	35.03
750.418	34.84
750.599	34.55
750.78	34.56
750.96	34.58
751.141	34.34
751.322	34.5
751.503	34.54
751.684	34.48
751.865	34.55
752.046	34.59
752.226	34.5
752.407	34.74
752.588	34.96
752.769	34.96
752.949	34.8
753.13	34.62
753.311	34.64
753.492	34.38
753.672	34.5
753.853	34.03
754.034	34.19
754.214	34.48
754.395	34.13
754.575	34.33
754.756	34.4
754.937	34.4
755.117	34.53
755.298	34.25
755.478	34.69
755.659	34.75
755.839	34.98
756.02	34.67
756.2	34.28
756.381	34.21
756.561	34.06
756.741	34.14
756.922	34.61
757.102	34.59
757.283	34.53
757.463	34.27
757.643	34.19
757.823	34.16
758.004	34.21
758.184	34.51
758.364	35.07
758.545	35.08
758.725	35.06
758.905	34.91
759.085	34.9
759.265	34.82
759.446	34.9
759.626	34.72
759.806	34.84
759.986	34.73
760.166	34.53
760.346	34.31
760.526	34.29
760.706	34.49
760.886	34.52
761.066	34.57
761.246	34.81
761.426	34.85
761.606	34.86
761.786	34.61
761.966	34.96
762.146	34.98
762.326	34.91
762.506	35.04
762.686	34.91
762.866	34.62
763.046	34.52
763.225	34.67
763.405	34.66
763.585	34.63
763.765	34.73
763.945	34.4
764.124	34.54
764.304	34.73
764.484	34.59
764.664	34.73
764.843	35.06
765.023	35.26
765.203	35.06
765.382	34.98
765.562	35.45
765.741	35.49
765.921	35.52
766.101	35.35
766.28	35.53
766.46	35.27
766.639	35.03
766.819	34.69
766.998	34.73
767.178	34.64
767.357	34.71
767.537	34.49
767.716	34.54
767.896	34.83
768.075	34.88
768.254	34.55
768.434	35.05
768.613	34.98
768.792	35.18
768.972	35.09
769.151	35.05
769.33	35
769.51	34.86
769.689	34.94
769.868	34.86
770.047	35.01
770.226	35.24
770.406	35.3
770.585	35.41
770.764	35.33
770.943	35.24
771.122	35.35
771.301	35.33
771.48	35.57
771.66	35.37
771.839	35.33
772.018	35.26
772.197	35.31
772.376	34.98
772.555	35.08
772.734	35.35
772.913	35.49
773.092	35.5
773.271	35.74
773.449	35.37
773.628	35.49
773.807	35.64
773.986	35.22
774.165	35.08
774.344	35.03
774.523	35.03
774.701	34.88
774.88	34.37
775.059	34.25
775.238	34.18
775.417	34.04
775.595	34.32
775.774	34.43
775.953	34.59
776.131	34.21
776.31	34.32
776.489	34.36
776.667	34.47
776.846	34.87
777.025	34.86
777.203	34.83
777.382	35.06
777.56	34.51
777.739	34.35
777.917	34.48
778.096	34.67
778.274	34.95
778.453	35.3
778.631	35.24
778.81	35.03
778.988	34.91
779.166	35.09
779.345	35.13
779.523	35.1
779.702	35.4
779.88	35.34
780.058	35.42
780.237	35.06
780.415	35.09
780.593	34.83
780.771	35.02
780.95	35.65
781.128	35.39
781.306	35.38
781.484	35.97
781.662	35.7
781.841	36.29
782.019	36.14
782.197	36.38
782.375	35.82
782.553	36
782.731	36.27
782.909	35.91
783.087	36.15
783.265	36.28
783.443	36.11
783.621	35.86
783.799	35.23
783.977	35.6
784.155	35.84
784.333	35.95
784.511	36.18
784.689	35.87
784.867	36
785.045	35.91
785.223	35.66
785.4	35.51
785.578	35.39
785.756	35.59
785.934	35.04
786.112	34.65
786.289	34.67
786.467	34.13
786.645	34.32
786.823	33.84
787	33.97
787.178	34.16
787.356	34.37
787.533	34.5
787.711	34.39
787.889	34.88
788.066	34.95
788.244	34.87
788.421	35.43
788.599	35.24
788.776	35.43
788.954	35.47
789.131	35.12
789.309	34.71
789.486	34.8
789.664	35.08
789.841	34.52
790.019	34.31
790.196	34.28
790.373	33.9
790.551	33.8
790.728	34.23
790.906	33.81
791.083	33.7
791.26	33.87
791.437	33.69
791.615	33.28
791.792	33.61
791.969	33.79
792.146	33.49
792.324	33.69
792.501	33.72
792.678	33.31
792.855	33.36
793.032	33.6
793.209	33.77
793.387	34.05
793.564	33.97
793.741	33.93
793.918	33.81
794.095	34.36
794.272	34.64
794.449	34.36
794.626	33.99
794.803	33.73
794.98	33.94
795.157	34.03
795.334	34.34
795.511	34.17
795.688	34.28
795.864	34.27
796.041	33.99
796.218	33.81
796.395	34.35
796.572	35.06
796.749	35.39
796.925	35.4
797.102	35.46
797.279	35.29
797.456	35.79
797.632	35.67
797.809	35.77
797.986	35.57
798.162	35.41
798.339	35.52
798.516	34.79
798.692	34.99
798.869	34.64
799.046	34.53
799.222	34.21
799.399	33.93
799.575	34.33
799.752	34.07
799.928	33.97
800.105	33.77
800.281	33.46
800.458	34.18
800.634	33.9
800.811	34.44
800.987	34.39
801.163	34.28
801.34	34.47
801.516	34.3
801.692	34.46
801.869	34.98
802.045	35.36
802.221	35.44
802.398	35.2
802.574	35.2
802.75	34.62
802.926	34.5
803.103	34.69
803.279	35.03
803.455	34.93
803.631	35.83
803.807	35.78
803.983	35.6
804.16	35.52
804.336	35.21
804.512	35.9
804.688	36.88
804.864	36.67
805.04	36.91
805.216	36.3
805.392	35.98
805.568	35.05
805.744	34.71
805.92	34.73
806.096	34.66
806.272	34.96
806.448	33.9
806.623	32.88
806.799	33.25
806.975	33.28
807.151	33.56
807.327	33.44
807.503	33.3
807.678	33.68
807.854	33.69
808.03	34.22
808.206	33.81
808.381	34.53
808.557	34.6
808.733	34.49
808.908	34.65
809.084	35.08
809.26	35.14
809.435	35.42
809.611	35.28
809.787	35.1
809.962	34.31
810.138	34.74
810.313	34.58
810.489	34.68
810.664	34.38
810.84	34.01
811.015	33.66
811.191	33.55
811.366	33.72
811.542	33
811.717	32.65
811.892	33.8
812.068	33.61
812.243	33.73
812.419	33.18
812.594	33.62
812.769	33.82
812.944	33.85
813.12	33.72
813.295	33.52
813.47	34.34
813.645	34.7
813.821	34.25
813.996	34.29
814.171	34
814.346	34.61
814.521	34.91
814.697	34.25
814.872	34.56
815.047	34.81
815.222	35.09
815.397	34.62
815.572	35.05
815.747	34.84
815.922	35.2
816.097	35.15
816.272	34.79
816.447	34.3
816.622	35.2
816.797	34.37
816.972	34.81
817.147	34.38
817.322	34.46
817.496	33.89
817.671	34.13
817.846	33.75
818.021	33.59
818.196	33.99
818.371	34.12
818.545	33.51
818.72	34.12
818.895	33.97
819.069	34.45
819.244	34.54
819.419	34.7
819.594	34.4
819.768	34.48
819.943	34.58
820.117	34.6
820.292	34.73
820.467	34.8
820.641	34.78
820.816	35.04
820.99	35.06
821.165	35.29
821.339	35.33
821.514	35.31
821.688	35.31
821.863	35.38
822.037	35.5
822.212	35.53
822.386	35.5
822.56	35.47
822.735	35.31
822.909	35.32
823.084	35.2
823.258	35.26
823.432	35.46
823.606	35.52
823.781	35.43
823.955	35.33
824.129	35.26
824.303	35.4
824.478	35.48
824.652	35.58
824.826	35.46
825	35.56
825.174	35.39
825.348	34.92
825.523	35.09
825.697	35
825.871	35.03
826.045	35.07
826.219	35.06
826.393	35.02
826.567	34.94
826.741	34.85
826.915	34.7
827.089	34.74
827.263	34.86
827.437	34.73
827.611	34.94
827.784	34.8
827.958	34.68
828.132	34.78
828.306	34.88
828.48	34.91
828.654	35.08
828.827	35.37
829.001	35.3
829.175	35.58
829.349	35.55
829.522	35.5
829.696	35.68
829.87	35.69
830.044	35.76
830.217	35.61
830.391	35.41
830.565	35.43
830.738	35.24
830.912	35.37
831.085	35.14
831.259	34.96
831.432	34.82
831.606	34.84
831.779	35.13
831.953	34.36
832.126	34.1
832.3	34.46
832.473	34.44
832.647	34.4
832.82	34.45
832.994	35.06
833.167	35.12
833.34	35.09
833.514	35.21
833.687	35.3
833.86	35.4
834.034	35.75
834.207	35.77
834.38	35.54
834.553	35.59
834.727	35.72
834.9	35.71
835.073	35.39
835.246	35.43
835.419	35.51
835.593	35.39
835.766	35.7
835.939	35.34
836.112	35.47
836.285	35.69
836.458	35.77
836.631	35.89
836.804	34.92
836.977	35.17
837.15	34.71
837.323	34.48
837.496	33.92
837.669	34.14
837.842	34.35
838.015	34.68
838.188	35.07
838.361	35.4
838.533	35.22
838.706	35.12
838.879	35.26
839.052	36.19
839.225	35.88
839.398	36.35
839.57	35.26
839.743	35.1
839.916	34.81
840.088	34.83
840.261	34.44
840.434	34.61
840.607	34.82
840.779	35.38
840.952	35.52
841.124	35.57
841.297	35.38
841.47	35.86
841.642	35.88
841.815	35.59
841.987	35.06
842.16	34.87
842.332	34.06
842.505	34.27
842.677	33.94
842.85	33.66
843.022	33.03
843.194	32.78
843.367	34.65
843.539	35.06
843.712	35.72
843.884	36.68
844.056	36.61
844.229	37.97
844.401	37.96
844.573	38.98
844.745	38.29
844.918	38.6
845.09	39.78
845.262	38.1
845.434	38.82
845.606	37.04
845.779	37.51
845.951	37.4
846.123	36.63
846.295	35.92
846.467	35.33
846.639	37.28
846.811	38.32
846.983	37.7
847.155	38.63
847.327	37.66
847.499	38.19
847.671	37.12
847.843	37.81
848.015	36.43
848.187	38.48
848.359	38.2
848.531	36.81
848.703	36.27
848.875	39.41
849.047	39.4
849.218	39.37
849.39	38.52
849.562	38.47
849.734	37.2
849.905	38.94
850.077	38.35
850.249	36.97
850.421	37.74
850.592	38.53
850.764	35.63
850.936	34.82
851.107	34.04
851.279	36.72
851.451	37.39
851.622	39.16
851.794	39.02
851.965	37.96
852.137	37.88
852.308	36.73
852.48	35.65
852.651	36.33
852.823	36.61
852.994	38.81
853.166	37.7
853.337	36.7
853.509	35.81
853.68	37.79
853.851	38.92
854.023	40.82
854.194	41.46
854.365	41.2
854.537	39.98
854.708	39.11
854.879	36.33
855.05	35.98
855.222	35.82
855.393	35.36
855.564	33.17
855.735	33.53
855.906	32.72
856.078	33.73
856.249	35.93
856.42	34.83
856.591	35.06
856.762	38.27
856.933	38.82
857.104	38.06
857.275	39.35
857.446	38.92
857.617	37.5
857.788	37.85
857.959	36.83
858.13	34.35
858.301	34.08
858.472	34.06
858.643	31.66
858.814	32.83
858.985	33.22
859.155	32.08
859.326	34.08
859.497	35.32
859.668	34.03
859.839	33.8
860.009	34.62
860.18	35.48
860.351	37.61
860.522	41.02
860.692	39.36
860.863	41.4
861.034	42.02
861.204	42.13
861.375	42.66
861.546	43.52
861.716	43
861.887	42.73
862.057	42.22
862.228	38.76
862.398	35.08
862.569	35.58
862.739	34.28
862.91	33.12
863.08	31.56
863.251	27.38
863.421	27.37
863.592	27.32
863.762	29
863.932	29.82
864.103	30.5
864.273	30.85
864.443	30.99
864.614	31.65
864.784	32.06
864.954	30.7
865.125	35.04
865.295	36.74
865.465	38.91
865.635	37.75
865.805	38.4
865.976	37.38
866.146	37.51
866.316	37.12
866.486	37.13
866.656	37.02
866.826	37.73
866.996	37.76
867.166	35.36
867.336	34.22
867.506	33.69
867.676	33.51
867.846	35.18
868.016	34.37
868.186	33.13
868.356	33.27
868.526	32.89
868.696	33.03
868.866	32.54
869.036	32.39
869.206	30.6
869.376	30.38
869.545	29.5
869.715	30.47
869.885	31.79
870.055	33.2
870.224	32.51
870.394	32.21
870.564	34.56
870.734	33.36
870.903	33.44
871.073	36.41
871.243	40.25
871.412	40.79
871.582	39.99
871.751	40.32
871.921	40.29
872.091	39.55
872.26	39.3
872.43	37.61
872.599	36.85
872.769	36.95
872.938	36.39
873.108	32.89
873.277	31.16
873.446	34.35
873.616	34.27
873.785	33.32
873.955	34.36
874.124	34.54
874.293	34.04
874.463	35.32
874.632	35.89
874.801	35.69
874.971	37.11
875.14	40.43
875.309	37.45
875.478	38.04
875.647	38.96
875.817	38.13
875.986	36.17
876.155	36.45
876.324	35.69
876.493	38.13
876.662	37.34
876.831	36.26
877	35.05
877.17	36.06
877.339	35.7
877.508	35.02
877.677	36.19
877.846	39.38
878.015	39.7
878.184	39.01
878.352	37.51
878.521	36.84
878.69	36.82
878.859	36.68
879.028	36.12
879.197	37.27
879.366	37.94
879.534	37.35
879.703	36.36
879.872	36.52
880.041	36.08
880.21	35.97
880.378	36.08
880.547	36.31
880.716	36.57
880.884	35.92
881.053	35.28
881.222	35.01
881.39	35.15
881.559	35.5
881.727	35.3
881.896	35.45
882.065	35.18
882.233	35.13
882.402	35.08
882.57	34.75
882.739	35.23
882.907	35.28
883.076	35.3
883.244	35.21
883.412	34.98
883.581	35.29
883.749	35.54
883.918	36.18
884.086	36.51
884.254	36.68
884.423	37.2
884.591	36.7
884.759	36.3
884.927	36.25
885.096	35.45
885.264	35.5
885.432	35.37
885.6	34.45
885.769	33.37
885.937	33.58
886.105	32.73
886.273	33.06
886.441	34.15
886.609	35.47
886.777	35.49
886.945	35.96
887.113	37.36
887.281	35.51
887.449	37.45
887.617	39.21
887.785	40.11
887.953	40.32
888.121	38.06
888.289	37.06
888.457	38.05
888.625	39.28
888.793	40.27
888.961	37.88
889.129	40.18
889.296	40.32
889.464	38.69
889.632	36.37
889.8	36.88
889.967	38.61
890.135	40.2
