Data from JASIL_3334_Reflection_1.txt Node
Date: Tue Nov 17 20:19:14 EST 2015
User: Geneva
Spectrometer: USB4E03002
Autoset integration time: false
Trigger mode: 4
Integration Time (sec): 1.000000E-1
Scans to average: 10
Electric dark correction enabled: false
Nonlinearity correction enabled: false
Boxcar width: 5
Stray light correction enabled: false
XAxis mode: Wavelengths
Stop averaging: false
Number of Pixels in Spectrum: 3648
>>>>>Begin Spectral Data<<<<<
177.575	-197.03
177.794	-360.87
178.014	-549.44
178.233	-867.92
178.452	-830
178.672	-525.2
178.891	-1420.69
179.11	9250
179.33	2158.7
179.549	2037.25
179.768	-10190.91
179.987	969.7
180.207	475.82
180.426	686.3
180.645	883.2
180.864	6647.06
181.084	631.93
181.303	447.32
181.522	498.85
181.741	452.81
181.96	648.48
182.179	3452.94
182.398	-484.42
182.618	-170.65
182.837	-167.62
183.056	-229.51
183.275	-158.33
183.494	-30.59
183.713	-23.92
183.932	-40.43
184.151	-29.24
184.37	-30.16
184.589	-51.81
184.808	-52.33
185.027	-44.3
185.246	-98.64
185.465	-71.43
185.684	-113.58
185.903	-256.96
186.122	-370
186.341	-816.81
186.56	-557.74
186.779	-4111.11
186.998	-491.01
187.216	-535
187.435	-579.39
187.654	-470.3
187.873	-401.34
188.092	-561.54
188.311	-702.86
188.53	-452.72
188.748	-188.14
188.967	-227.61
189.186	-115.07
189.405	-290.84
189.623	-238.13
189.842	-268.99
190.061	-246.44
190.28	-138.68
190.498	-171.58
190.717	-93.35
190.936	-110.26
191.154	-354.4
191.373	-820.69
191.592	1969.77
191.81	735.92
192.029	798.95
192.248	447.06
192.466	504.97
192.685	234.74
192.904	561.88
193.122	454.58
193.341	557.98
193.559	742.94
193.778	788.4
193.996	623.22
194.215	1888.41
194.433	936.43
194.652	792.31
194.87	636.87
195.089	740
195.307	1456.14
195.526	-691.84
195.744	-460.43
195.963	-528
196.181	-648.76
196.399	-1064.37
196.618	1161.84
196.836	701.42
197.055	690.54
197.273	865.67
197.491	968.47
197.71	455.16
197.928	425.83
198.146	429.45
198.365	2326.19
198.583	1579.37
198.801	-698.39
199.019	-209.88
199.238	-188.21
199.456	-187.86
199.674	-234.62
199.892	-177.32
200.111	-173.94
200.329	-218.28
200.547	-259.94
200.765	2005.88
200.983	-776.07
201.202	1319.74
201.42	466.07
201.638	283.37
201.856	399.15
202.074	561.33
202.292	410.36
202.51	340.24
202.728	366.67
202.946	3082.14
203.165	1592.31
203.383	357.76
203.601	475.13
203.819	541.82
204.037	-1736.36
204.255	-2544.44
204.473	-423.08
204.691	-260
204.909	-162.83
205.127	-1006.25
205.345	350.3
205.562	-368.22
205.78	-43.74
205.998	-14.41
206.216	-59.91
206.434	-95.29
206.652	-67.28
206.87	-237.72
207.088	-217.62
207.306	-384.39
207.523	-314.03
207.741	-202.76
207.959	-330.18
208.177	-391.71
208.395	-389.71
208.612	-466.67
208.83	-285.14
209.048	-318.95
209.266	-279.28
209.483	-176.62
209.701	-189.31
209.919	-160.08
210.136	-200.48
210.354	-194.03
210.572	-247.83
210.79	-358.33
211.007	-571.13
211.225	-4980
211.442	1133.9
211.66	2744
211.878	281.73
212.095	912.57
212.313	1511.86
212.53	835.07
212.748	703.59
212.966	544.06
213.183	649.03
213.401	-8838.89
213.618	-643.25
213.836	-603.41
214.053	-800.46
214.271	-556.41
214.488	-382.14
214.705	-271.13
214.923	-209.79
215.14	-154.47
215.358	-113.56
215.575	-72.97
215.793	-137.16
216.01	-450.24
216.227	-673.28
216.445	-549.31
216.662	-246.98
216.879	-236.52
217.097	-176.16
217.314	-245.53
217.531	8437.5
217.749	732.67
217.966	528.02
218.183	370.59
218.4	561.94
218.618	578.29
218.835	359.84
219.052	350.37
219.269	316.16
219.487	168.49
219.704	173.95
219.921	189.81
220.138	257.24
220.355	216.29
220.572	171.95
220.79	151.58
221.007	252.61
221.224	345.63
221.441	327.27
221.658	394.44
221.875	-1640
222.092	-700
222.309	1866.67
222.526	376.36
222.743	333.33
222.96	414.39
223.177	1381.4
223.394	693.42
223.611	406.29
223.828	289.2
224.045	204.23
224.262	169.95
224.479	165.92
224.696	302.4
224.913	409.09
225.13	286.79
225.347	289.66
225.564	149.36
225.781	81.73
225.997	77.78
226.214	76.01
226.431	73.55
226.648	73.91
226.865	51.19
227.082	39.48
227.298	45.63
227.515	50.24
227.732	53.87
227.949	51.08
228.165	56.49
228.382	52.39
228.599	55.19
228.816	59.83
229.032	63.3
229.249	74.9
229.466	76.81
229.682	77.46
229.899	84.28
230.116	83.54
230.332	89.51
230.549	78.27
230.765	84.72
230.982	71.06
231.199	70.05
231.415	70.64
231.632	69.99
231.848	68
232.065	59.83
232.281	52.85
232.498	57.29
232.714	52.38
232.931	64.75
233.147	69.12
233.364	80.51
233.58	80.89
233.797	79.1
234.013	81.19
234.23	111.99
234.446	131.6
234.662	170.43
234.879	244.32
235.095	213.21
235.312	171.23
235.528	160.91
235.744	187.64
235.961	219.95
236.177	179.36
236.393	211.65
236.61	155.19
236.826	110.57
237.042	56.07
237.258	50.54
237.475	62.19
237.691	87.88
237.907	43.26
238.123	54.03
238.339	46.45
238.556	51.79
238.772	42.05
238.988	29.36
239.204	28.21
239.42	42.68
239.636	45.69
239.853	43.23
240.069	35.92
240.285	39.42
240.501	37.19
240.717	38.94
240.933	37.03
241.149	39.49
241.365	40.84
241.581	39.15
241.797	39.33
242.013	36.02
242.229	36.5
242.445	40.91
242.661	39.73
242.877	39.67
243.093	37.56
243.309	37.38
243.525	35.71
243.741	37.41
243.957	38.07
244.173	36.75
244.388	38.91
244.604	36.48
244.82	30.13
245.036	29.31
245.252	27.01
245.468	25.66
245.683	26.39
245.899	23.93
246.115	20.21
246.331	20.17
246.547	21.03
246.762	20.14
246.978	19.1
247.194	20.79
247.409	21.39
247.625	21.01
247.841	19.84
248.057	20.98
248.272	23.6
248.488	26.54
248.703	26.96
248.919	27.12
249.135	29.46
249.35	28.64
249.566	28.73
249.782	29.15
249.997	30.78
250.213	34.17
250.428	29.32
250.644	27.68
250.859	29.28
251.075	27.44
251.29	24.86
251.506	21.16
251.721	22.96
251.937	21.58
252.152	23.6
252.368	23.14
252.583	21.45
252.798	22
253.014	25.57
253.229	23.29
253.445	26.91
253.66	31.83
253.875	31.85
254.091	26.17
254.306	29.07
254.521	18.59
254.737	11.44
254.952	13.6
255.167	16.36
255.383	10.42
255.598	16.47
255.813	14.46
256.028	9.07
256.244	12.97
256.459	21.25
256.674	22.58
256.889	27.2
257.104	27.97
257.32	24.39
257.535	23.05
257.75	24.8
257.965	21.42
258.18	19.42
258.395	17.65
258.61	16.69
258.826	14.53
259.041	13.52
259.256	11.02
259.471	10.83
259.686	11.73
259.901	11.94
260.116	11.13
260.331	12.28
260.546	14.86
260.761	18.33
260.976	18.76
261.191	21.86
261.406	23.88
261.621	26.82
261.836	25.15
262.05	25.58
262.265	26.18
262.48	27.24
262.695	25.07
262.91	22.98
263.125	19.48
263.34	17.5
263.555	6.52
263.769	6.98
263.984	6.78
264.199	13.79
264.414	16.35
264.629	11.73
264.843	13.5
265.058	15.96
265.273	11.65
265.488	11.46
265.702	15.47
265.917	21.81
266.132	20.28
266.346	21.53
266.561	21.54
266.776	22.24
266.99	22.29
267.205	18.43
267.42	14.98
267.634	16.02
267.849	16.65
268.063	14.06
268.278	10.17
268.492	11.24
268.707	10.93
268.922	9.37
269.136	9.38
269.351	10.21
269.565	14.93
269.78	17.11
269.994	18.63
270.209	17.92
270.423	15.88
270.637	15.15
270.852	12.79
271.066	13
271.281	13.91
271.495	12.27
271.709	13.56
271.924	12.39
272.138	10.91
272.353	11.91
272.567	13.01
272.781	13.88
272.996	13.39
273.21	13.74
273.424	11.94
273.638	12.43
273.853	14.93
274.067	16.51
274.281	14.86
274.495	14.89
274.71	14.96
274.924	14.84
275.138	17.31
275.352	18.06
275.566	19.25
275.781	20.18
275.995	18.78
276.209	15.82
276.423	13.75
276.637	14.04
276.851	13.98
277.065	11.81
277.279	8.2
277.493	5.58
277.707	6.1
277.921	9.42
278.135	13.72
278.349	15.51
278.563	14.95
278.777	12.32
278.991	10.49
279.205	15.43
279.419	13.56
279.633	16.52
279.847	16.29
280.061	13.96
280.275	11.41
280.489	6.61
280.703	5.56
280.917	7.6
281.131	10.65
281.344	13.71
281.558	11.69
281.772	12.84
281.986	13.75
282.2	13.21
282.414	15.6
282.627	14.34
282.841	16.48
283.055	14.35
283.269	14.11
283.482	13.38
283.696	13.48
283.91	13.01
284.123	11.7
284.337	11.28
284.551	11.37
284.764	10.81
284.978	10.65
285.192	10.77
285.405	12.06
285.619	11.37
285.833	12.08
286.046	12.38
286.26	12.17
286.473	13.76
286.687	13.97
286.9	16.66
287.114	17.76
287.327	19.63
287.541	18.05
287.754	18.49
287.968	19.01
288.181	17.18
288.395	16.63
288.608	16.66
288.822	17.25
289.035	16.33
289.248	15.11
289.462	13.79
289.675	12.9
289.889	13.17
290.102	13.59
290.315	14.23
290.529	14.72
290.742	12.79
290.955	15
291.169	15.34
291.382	15.45
291.595	15.5
291.808	18.01
292.022	20.24
292.235	20.52
292.448	19.57
292.661	18.72
292.875	18.8
293.088	20.03
293.301	15.35
293.514	13.76
293.727	13.93
293.94	12.62
294.153	11.69
294.367	11.06
294.58	10.36
294.793	9.39
295.006	9.45
295.219	9.64
295.432	7.94
295.645	10.91
295.858	11.49
296.071	11.33
296.284	11.37
296.497	11.28
296.71	10.42
296.923	10.53
297.136	11.03
297.349	10.87
297.562	10.02
297.775	11.13
297.988	10.15
298.201	10.29
298.414	10.74
298.626	10.1
298.839	9.53
299.052	9.32
299.265	9.29
299.478	10.4
299.691	11.48
299.903	12.8
300.116	12.53
300.329	11.36
300.542	12.01
300.755	10.88
300.967	12.66
301.18	13.78
301.393	13.41
301.605	13.17
301.818	11.98
302.031	10.9
302.243	10.59
302.456	11.39
302.669	12.16
302.881	11.63
303.094	13.57
303.307	12.72
303.519	12.33
303.732	13.18
303.944	14.66
304.157	15.65
304.37	16.6
304.582	17.31
304.795	17.88
305.007	18.02
305.22	17.09
305.432	15.12
305.645	15.87
305.857	14.42
306.069	12.97
306.282	13.07
306.494	12.65
306.707	12.37
306.919	12.09
307.132	12.85
307.344	12.92
307.556	11.88
307.769	11.33
307.981	9.63
308.193	9.28
308.406	10.19
308.618	9.72
308.83	9.75
309.043	9.56
309.255	8.89
309.467	8.07
309.679	6.88
309.892	8.7
310.104	9.34
310.316	12.02
310.528	12.97
310.74	12.03
310.953	12.1
311.165	10.95
311.377	12.89
311.589	13.83
311.801	14.5
312.013	15.87
312.225	15.21
312.437	14.83
312.649	12.6
312.862	12.45
313.074	13.86
313.286	14.24
313.498	14.55
313.71	11.98
313.922	10.79
314.134	10.04
314.346	8.24
314.558	9.11
314.77	8.44
314.982	9.34
315.193	10.4
315.405	9.98
315.617	8.78
315.829	11.35
316.041	12.41
316.253	13.09
316.465	12.28
316.677	13.19
316.888	14.79
317.1	15.96
317.312	17.3
317.524	17.24
317.736	19.3
317.947	20.02
318.159	19.71
318.371	20.08
318.583	19.33
318.794	21.17
319.006	23.51
319.218	21.15
319.43	22.02
319.641	22.01
319.853	22.02
320.064	20.45
320.276	21.26
320.488	21.74
320.699	20.19
320.911	19.13
321.123	17.31
321.334	16.26
321.546	16.34
321.757	17.15
321.969	16.29
322.18	15.84
322.392	15.31
322.603	13.99
322.815	12.82
323.026	11.24
323.238	10.22
323.449	10.08
323.661	9.39
323.872	8.64
324.083	7.51
324.295	7.83
324.506	8.37
324.718	8.07
324.929	8.3
325.14	8.97
325.352	10.18
325.563	12.84
325.774	13.37
325.986	14.12
326.197	15.3
326.408	14.17
326.62	12.63
326.831	13.02
327.042	14.39
327.253	14.98
327.464	15.64
327.676	15.48
327.887	14.27
328.098	14.44
328.309	15.2
328.52	15.9
328.732	18.07
328.943	18.9
329.154	18.39
329.365	17.46
329.576	17.05
329.787	15.25
329.998	16.36
330.209	18.08
330.42	17.81
330.631	16.79
330.842	16.07
331.053	15
331.264	14.93
331.475	14.66
331.686	16.97
331.897	14.84
332.108	14.88
332.319	13.79
332.53	12.7
332.741	12.08
332.952	10.57
333.163	11.46
333.374	12.53
333.585	11.94
333.795	12.67
334.006	10.27
334.217	11.52
334.428	11.24
334.639	11.61
334.849	13.36
335.06	15.65
335.271	18.33
335.482	18.07
335.692	17.68
335.903	18.28
336.114	17.31
336.325	18.2
336.535	19.09
336.746	21.13
336.957	19.94
337.167	18.42
337.378	17.36
337.589	15.84
337.799	13.46
338.01	13.28
338.22	14.07
338.431	14.7
338.642	14.69
338.852	13.73
339.063	11.86
339.273	14.86
339.484	14.47
339.694	13.27
339.905	13.6
340.115	14.48
340.326	14.34
340.536	13.4
340.746	13.25
340.957	13.08
341.167	13.95
341.378	14.04
341.588	12.98
341.799	14.69
342.009	14.61
342.219	14.18
342.43	15.79
342.64	15.84
342.85	15.97
343.061	14.82
343.271	15.45
343.481	14.94
343.691	14.17
343.902	14.37
344.112	14.25
344.322	14.04
344.532	14.36
344.743	12.88
344.953	13.06
345.163	12.56
345.373	13.69
345.583	12.71
345.793	14
346.004	16.46
346.214	16.24
346.424	16.15
346.634	17.47
346.844	17.57
347.054	18.56
347.264	19.5
347.474	19.59
347.684	20.18
347.894	19.06
348.104	17.64
348.314	16.28
348.524	15.32
348.734	16.35
348.944	16.88
349.154	15.08
349.364	14.54
349.574	13.44
349.784	14.64
349.994	13.62
350.204	14.35
350.413	13.28
350.623	12.31
350.833	12.89
351.043	11.19
351.253	9.35
351.463	9.95
351.672	10.32
351.882	9.31
352.092	8.67
352.302	8.67
352.511	9.03
352.721	9.83
352.931	11.28
353.141	11.93
353.35	11.16
353.56	11.37
353.77	11.55
353.979	11.69
354.189	12
354.399	11.86
354.608	12.11
354.818	11.61
355.027	11.58
355.237	10.71
355.447	10.82
355.656	11.04
355.866	11.28
356.075	11.67
356.285	11.44
356.494	11.53
356.704	12.44
356.913	12.77
357.123	12.72
357.332	13.61
357.542	14.2
357.751	13.8
357.96	12.8
358.17	12.53
358.379	12.53
358.589	12.57
358.798	12.9
359.007	12.76
359.217	12.95
359.426	12.31
359.635	11.97
359.845	11.37
360.054	10.33
360.263	11.16
360.472	12.18
360.682	12.24
360.891	12
361.1	11.93
361.309	12.25
361.519	11.31
361.728	12.47
361.937	12.55
362.146	12.62
362.355	13.61
362.564	12.93
362.774	12.16
362.983	12.36
363.192	12.3
363.401	12.47
363.61	11.85
363.819	12.89
364.028	12.09
364.237	12.02
364.446	11.42
364.655	10.63
364.864	11.97
365.073	11.77
365.282	11.24
365.491	11.63
365.7	12.91
365.909	11.44
366.118	11.61
366.327	11.17
366.536	9.84
366.745	10.65
366.954	11.11
367.162	10.65
367.371	11.18
367.58	11.48
367.789	11.4
367.998	9.54
368.207	10.59
368.415	9.44
368.624	9.67
368.833	10.65
369.042	10.11
369.25	10.35
369.459	10.19
369.668	10.75
369.877	10.37
370.085	10.65
370.294	10.64
370.503	10.97
370.711	11.09
370.92	11.45
371.129	11.8
371.337	11.62
371.546	11.58
371.754	11.88
371.963	11.11
372.171	10.37
372.38	9.49
372.589	10.06
372.797	9.03
373.006	9.17
373.214	8.8
373.423	7.76
373.631	8.62
373.84	7.26
374.048	7.18
374.256	6.95
374.465	8.71
374.673	9.57
374.882	7.84
375.09	8.17
375.298	8.71
375.507	8.24
375.715	8.6
375.923	8.38
376.132	9.54
376.34	9.81
376.548	9.83
376.757	9.09
376.965	8.56
377.173	10.19
377.381	10.66
377.59	9.75
377.798	10.63
378.006	9.98
378.214	9.83
378.423	8.95
378.631	9.03
378.839	8.99
379.047	10.43
379.255	11.39
379.463	11.17
379.671	10.91
379.879	11.81
380.088	11.87
380.296	13.42
380.504	13.98
380.712	14.68
380.92	14.42
381.128	14.69
381.336	12.65
381.544	11.77
381.752	10.98
381.96	11.04
382.168	9.7
382.376	9.57
382.584	8.36
382.791	7.06
382.999	7.03
383.207	6.7
383.415	7.05
383.623	7.98
383.831	8.3
384.039	8.39
384.247	8.64
384.454	10.36
384.662	10.53
384.87	11.38
385.078	11.9
385.285	11.74
385.493	12.67
385.701	11.78
385.909	11.28
386.116	11.47
386.324	11.21
386.532	10.18
386.739	9.44
386.947	9.4
387.155	8.51
387.362	8.81
387.57	8.25
387.778	7.44
387.985	6.92
388.193	6.86
388.4	6.15
388.608	6.14
388.816	7.38
389.023	6.75
389.231	6.72
389.438	6.99
389.646	6.55
389.853	7.55
390.061	7.65
390.268	7.89
390.475	7.79
390.683	7.15
390.89	7.9
391.098	7.1
391.305	6.8
391.512	6.53
391.72	6.02
391.927	6.33
392.135	6.05
392.342	5.56
392.549	5.43
392.756	5.16
392.964	5.36
393.171	6.01
393.378	6.32
393.586	6.49
393.793	5.99
394	6.58
394.207	6.18
394.414	6.17
394.622	6.4
394.829	7.4
395.036	7.39
395.243	7.84
395.45	7
395.657	6.42
395.864	6.84
396.072	7.85
396.279	8.34
396.486	8.31
396.693	7.98
396.9	7.83
397.107	8
397.314	7.73
397.521	8.17
397.728	7.67
397.935	7.63
398.142	7.59
398.349	6.81
398.556	6.24
398.763	6.07
398.97	7.24
399.177	8.05
399.383	8.05
399.59	9.29
399.797	8.77
400.004	9.3
400.211	9.33
400.418	9.15
400.625	9.7
400.831	10.26
401.038	10.31
401.245	9.93
401.452	9.05
401.658	8.37
401.865	8.14
402.072	8.15
402.279	8.15
402.485	9.03
402.692	8.94
402.899	7.64
403.105	7.01
403.312	6.96
403.519	6.48
403.725	6.41
403.932	6.5
404.138	6.39
404.345	6.06
404.552	6.3
404.758	6.14
404.965	6.12
405.171	7.2
405.378	7.68
405.584	8.4
405.791	8.31
405.997	8.98
406.204	9.14
406.41	8.83
406.617	9.59
406.823	8.6
407.029	8.26
407.236	9.01
407.442	8.41
407.649	7.98
407.855	7.51
408.061	7.97
408.268	7.44
408.474	7.31
408.68	7.45
408.887	7.57
409.093	8.44
409.299	8.44
409.505	7.8
409.712	8.2
409.918	8.63
410.124	8.02
410.33	7.53
410.537	7.72
410.743	7.59
410.949	8
411.155	6.91
411.361	6.33
411.567	5.89
411.773	5.89
411.98	6
412.186	6.03
412.392	6.93
412.598	6.37
412.804	6.48
413.01	6.76
413.216	6.46
413.422	6.97
413.628	7.21
413.834	7.01
414.04	6.75
414.246	5.72
414.452	4.77
414.658	3.73
414.864	4.49
415.07	4.06
415.275	3.82
415.481	3.66
415.687	4.07
415.893	4.07
416.099	4.69
416.305	4.84
416.511	5.48
416.716	5.55
416.922	6.47
417.128	5.72
417.334	5.85
417.539	5.75
417.745	6.13
417.951	5.7
418.157	6
418.362	6.02
418.568	5.74
418.774	5.5
418.979	5.66
419.185	5.16
419.391	5.35
419.596	5.2
419.802	5.17
420.008	4.36
420.213	4.94
420.419	4.81
420.624	4.58
420.83	4.92
421.035	5.11
421.241	4.94
421.446	4.91
421.652	5.27
421.857	5.47
422.063	5.32
422.268	5.6
422.474	4.68
422.679	4.57
422.885	4.41
423.09	4.32
423.295	4.45
423.501	4.63
423.706	4.72
423.911	4.66
424.117	4.45
424.322	4.52
424.527	4.41
424.733	4.91
424.938	4.47
425.143	4.59
425.349	4.4
425.554	4.34
425.759	4.29
425.964	4.27
426.169	4.23
426.375	4.53
426.58	5.04
426.785	5.28
426.99	4.93
427.195	5.32
427.4	5.47
427.605	5.49
427.811	5.46
428.016	5.43
428.221	5.61
428.426	5.46
428.631	5.16
428.836	4.59
429.041	4.54
429.246	5
429.451	5.18
429.656	5.52
429.861	5.54
430.066	5.31
430.271	5.88
430.476	5.5
430.681	5.23
430.886	4.86
431.09	4.91
431.295	5.16
431.5	5
431.705	5.03
431.91	5
432.115	4.83
432.32	4.65
432.524	4.44
432.729	4.57
432.934	4.77
433.139	5.17
433.343	5.17
433.548	5.15
433.753	4.89
433.958	4.46
434.162	4.25
434.367	4.79
434.572	4.83
434.776	5.12
434.981	5.41
435.186	5.23
435.39	5.26
435.595	4.91
435.799	4.89
436.004	5
436.209	5.57
436.413	5.34
436.618	5.04
436.822	5.65
437.027	5.55
437.231	5.35
437.436	5.48
437.64	5.51
437.845	5.93
438.049	5.79
438.253	5.68
438.458	5.3
438.662	5.61
438.867	5.6
439.071	5.4
439.275	5.12
439.48	5.09
439.684	5.17
439.888	5.3
440.093	5.08
440.297	5.08
440.501	5.29
440.706	5.55
440.91	5.23
441.114	5.09
441.318	5.02
441.523	5.07
441.727	5.22
441.931	5.46
442.135	5.47
442.339	5.6
442.543	5.57
442.748	5.5
442.952	5.3
443.156	4.88
443.36	5.07
443.564	4.77
443.768	4.66
443.972	5.18
444.176	4.77
444.38	4.53
444.584	4.29
444.788	4.34
444.992	4.28
445.196	4.15
445.4	4.37
445.604	4.18
445.808	4.17
446.012	3.9
446.216	3.49
446.42	3.6
446.624	3.84
446.828	4.01
447.032	3.9
447.235	3.7
447.439	3.85
447.643	4.09
447.847	4.24
448.051	4.28
448.254	4.55
448.458	4.38
448.662	3.99
448.866	3.92
449.069	3.87
449.273	4.11
449.477	4.52
449.681	4.49
449.884	4.57
450.088	4.7
450.292	4.27
450.495	4.13
450.699	4.92
450.902	5.2
451.106	5
451.31	5.33
451.513	5.32
451.717	5.22
451.92	5.33
452.124	5.3
452.327	5.08
452.531	6.08
452.734	5.88
452.938	5.1
453.141	5.42
453.345	5.22
453.548	5.04
453.752	4.94
453.955	5.23
454.158	5.13
454.362	5.12
454.565	5.14
454.769	4.82
454.972	5.25
455.175	5.32
455.379	5.31
455.582	5.41
455.785	5.5
455.988	5.4
456.192	4.94
456.395	4.87
456.598	4.65
456.801	4.98
457.005	5.12
457.208	4.91
457.411	4.56
457.614	3.92
457.817	3.93
458.021	3.56
458.224	3.48
458.427	3.97
458.63	3.95
458.833	4.29
459.036	3.9
459.239	3.59
459.442	3.46
459.645	3.73
459.848	4.09
460.051	4.15
460.254	4.72
460.457	4.82
460.66	4.69
460.863	4.73
461.066	4.49
461.269	4.58
461.472	4.64
461.675	4.91
461.878	4.99
462.081	4.98
462.284	5.15
462.486	4.42
462.689	4.7
462.892	4.54
463.095	4.65
463.298	4.57
463.5	5.18
463.703	5.74
463.906	5.67
464.109	5.86
464.311	6.17
464.514	6.19
464.717	6.31
464.92	6.12
465.122	6.06
465.325	6.01
465.528	5.88
465.73	5.19
465.933	4.71
466.135	4.68
466.338	4.59
466.541	3.92
466.743	3.82
466.946	3.84
467.148	3.92
467.351	3.89
467.553	3.79
467.756	3.82
467.958	4.22
468.161	4.21
468.363	4.28
468.566	4.43
468.768	4.94
468.971	4.67
469.173	5.17
469.375	4.9
469.578	4.75
469.78	4.92
469.983	5.38
470.185	4.81
470.387	4.95
470.59	5.05
470.792	4.86
470.994	4.41
471.196	4.51
471.399	3.85
471.601	4.2
471.803	4.04
472.005	4.22
472.208	3.92
472.41	4.05
472.612	3.93
472.814	4.39
473.016	4.1
473.218	4.28
473.421	4.27
473.623	4.51
473.825	4.2
474.027	4.51
474.229	4.63
474.431	4.49
474.633	4.56
474.835	4.43
475.037	4.07
475.239	4.52
475.441	4.76
475.643	4.93
475.845	4.78
476.047	4.99
476.249	4.61
476.451	3.87
476.653	3.88
476.855	4.25
477.057	4.58
477.258	4.25
477.46	3.85
477.662	3.86
477.864	3.91
478.066	4.23
478.268	4.24
478.469	4.45
478.671	4.61
478.873	4.43
479.075	4.16
479.276	3.95
479.478	3.85
479.68	4.09
479.882	3.87
480.083	3.97
480.285	3.75
480.487	3.77
480.688	3.82
480.89	3.87
481.091	4.02
481.293	3.91
481.495	3.77
481.696	3.75
481.898	3.56
482.099	3.53
482.301	3.44
482.502	3.42
482.704	3.27
482.905	3.15
483.107	3.18
483.308	3.04
483.51	3.11
483.711	3.07
483.913	3.15
484.114	3.12
484.315	3.02
484.517	2.96
484.718	2.94
484.92	3.13
485.121	3.14
485.322	3.06
485.524	3.12
485.725	3.12
485.926	3.21
486.127	3.09
486.329	3.19
486.53	3.24
486.731	3.09
486.932	3.01
487.134	2.91
487.335	2.84
487.536	2.92
487.737	3.02
487.938	3.05
488.139	3.12
488.341	3.19
488.542	3.21
488.743	3.34
488.944	3.5
489.145	3.51
489.346	3.46
489.547	3.61
489.748	3.57
489.949	3.45
490.15	3.39
490.351	3.26
490.552	3.31
490.753	3.25
490.954	3.13
491.155	3.2
491.356	3.24
491.557	3.16
491.758	3.3
491.959	3.47
492.159	3.53
492.36	3.47
492.561	3.71
492.762	3.72
492.963	3.7
493.164	3.88
493.364	4.01
493.565	4.05
493.766	4.07
493.967	4.03
494.167	3.99
494.368	3.79
494.569	3.83
494.769	3.64
494.97	3.67
495.171	3.9
495.371	3.83
495.572	3.8
495.773	3.9
495.973	4.01
496.174	3.88
496.375	3.74
496.575	3.85
496.776	3.86
496.976	3.62
497.177	3.6
497.377	3.48
497.578	3.53
497.778	3.14
497.979	3.21
498.179	3.12
498.38	3.21
498.58	3.12
498.78	3.29
498.981	3.43
499.181	3.8
499.382	3.7
499.582	3.76
499.782	3.9
499.983	4.29
500.183	4.42
500.383	4.55
500.584	4.56
500.784	4.81
500.984	4.8
501.184	4.65
501.385	4.68
501.585	4.73
501.785	4.57
501.985	4.32
502.185	4.59
502.386	4.44
502.586	4.77
502.786	4.83
502.986	4.65
503.186	4.73
503.386	5.06
503.586	5
503.786	4.89
503.987	5.2
504.187	5.37
504.387	5.21
504.587	4.89
504.787	4.72
504.987	4.69
505.187	4.78
505.387	4.63
505.587	4.52
505.786	4.55
505.986	4.9
506.186	4.56
506.386	4.98
506.586	4.87
506.786	5.29
506.986	5.26
507.186	5.26
507.386	5.3
507.585	5.53
507.785	5.46
507.985	5.7
508.185	5.73
508.384	6.27
508.584	6.1
508.784	6.15
508.984	6.42
509.183	6.4
509.383	6.44
509.583	6.53
509.782	6.74
509.982	6.94
510.182	6.86
510.381	6.76
510.581	6.35
510.781	6.43
510.98	6.31
511.18	6.02
511.379	6.05
511.579	5.8
511.778	5.97
511.978	5.9
512.177	5.76
512.377	5.77
512.576	5.65
512.776	5.48
512.975	5.23
513.175	5.52
513.374	5.5
513.573	5.64
513.773	6.04
513.972	5.83
514.172	5.59
514.371	5.59
514.57	5.49
514.77	5.55
514.969	5.69
515.168	5.91
515.367	5.83
515.567	5.79
515.766	6
515.965	5.7
516.164	5.69
516.364	5.63
516.563	5.85
516.762	6
516.961	5.92
517.16	6.13
517.359	5.88
517.559	5.61
517.758	5.6
517.957	5.3
518.156	5.58
518.355	5.55
518.554	5.7
518.753	5.34
518.952	5.29
519.151	5.24
519.35	5.19
519.549	5.41
519.748	5.82
519.947	5.67
520.146	5.79
520.345	5.59
520.544	5.7
520.743	5.68
520.942	5.81
521.141	5.82
521.339	5.95
521.538	6.1
521.737	6.14
521.936	5.95
522.135	6.38
522.333	6.78
522.532	6.89
522.731	6.77
522.93	6.79
523.129	7.1
523.327	7.15
523.526	7.33
523.725	7.1
523.923	7.18
524.122	7.08
524.321	7.11
524.519	7.04
524.718	7.03
524.917	7.34
525.115	7.33
525.314	7.19
525.512	7.26
525.711	7.27
525.909	7.19
526.108	7.01
526.306	7.02
526.505	6.99
526.703	6.91
526.902	6.9
527.1	6.86
527.299	6.95
527.497	6.95
527.696	6.91
527.894	6.96
528.092	7.07
528.291	7.09
528.489	7.28
528.688	7.26
528.886	7.2
529.084	7.27
529.283	7.26
529.481	7.34
529.679	7.47
529.877	7.66
530.076	7.7
530.274	7.81
530.472	7.72
530.67	7.72
530.869	7.91
531.067	8.17
531.265	8.35
531.463	8.49
531.661	8.44
531.859	8.53
532.057	8.35
532.255	8.42
532.454	8.42
532.652	8.6
532.85	8.56
533.048	8.51
533.246	8.58
533.444	8.44
533.642	8.45
533.84	8.59
534.038	8.51
534.236	8.55
534.434	8.6
534.632	8.58
534.83	8.75
535.027	8.86
535.225	8.94
535.423	8.95
535.621	9.18
535.819	9.2
536.017	9.07
536.215	9.24
536.412	9.29
536.61	9.1
536.808	9.31
537.006	8.95
537.203	8.97
537.401	9.1
537.599	9.09
537.797	8.9
537.994	8.91
538.192	9.14
538.39	9.1
538.587	9.22
538.785	9.2
538.983	9.39
539.18	9.86
539.378	9.79
539.575	9.76
539.773	9.68
539.97	9.67
540.168	9.7
540.366	9.68
540.563	9.54
540.761	9.59
540.958	9.7
541.155	9.56
541.353	9.6
541.55	9.8
541.748	9.76
541.945	9.97
542.143	10
542.34	10.06
542.537	10.09
542.735	10.42
542.932	10.48
543.129	10.75
543.327	10.83
543.524	10.7
543.721	10.47
543.919	10.49
544.116	10.34
544.313	10.53
544.51	10.45
544.708	10.54
544.905	10.54
545.102	10.35
545.299	10.39
545.496	10.52
545.693	10.71
545.891	10.64
546.088	10.71
546.285	10.83
546.482	10.92
546.679	10.79
546.876	10.66
547.073	10.71
547.27	11.17
547.467	11.04
547.664	11.05
547.861	11.25
548.058	11.94
548.255	12.06
548.452	12.28
548.649	12.45
548.846	13.25
549.043	13.46
549.24	13.45
549.437	13.16
549.633	13.34
549.83	13.45
550.027	13.6
550.224	13.19
550.421	13.36
550.618	13.35
550.814	13.16
551.011	12.66
551.208	12.5
551.405	12.37
551.601	12.72
551.798	12.5
551.995	12.63
552.191	12.53
552.388	12.82
552.585	13.24
552.781	13.46
552.978	13.62
553.175	13.6
553.371	13.46
553.568	13.77
553.764	13.8
553.961	14.02
554.157	13.98
554.354	13.55
554.55	13.15
554.747	12.53
554.943	12.58
555.14	12.86
555.336	13.31
555.533	13.46
555.729	13.58
555.926	13.34
556.122	13.48
556.318	13.66
556.515	14.2
556.711	14.75
556.907	15.02
557.104	14.68
557.3	15.02
557.496	15.08
557.693	15.77
557.889	15.95
558.085	16.14
558.281	16.62
558.478	16.25
558.674	16.32
558.87	16.46
559.066	16.67
559.262	16.62
559.459	16.14
559.655	16.39
559.851	15.8
560.047	15.57
560.243	15.75
560.439	15.37
560.635	15.87
560.831	16.02
561.027	15.96
561.223	16.02
561.419	16.44
561.615	16.61
561.811	16.09
562.007	16.46
562.203	16.47
562.399	16.58
562.595	16.45
562.791	16.57
562.987	16.35
563.183	16.34
563.379	16.25
563.575	16.46
563.771	16.85
563.966	17.36
564.162	17.68
564.358	17.86
564.554	17.65
564.75	17.81
564.945	17.46
565.141	17.74
565.337	17.67
565.533	18.02
565.728	17.77
565.924	17.66
566.12	17.6
566.315	17.34
566.511	17.19
566.707	17.43
566.902	17.81
567.098	17.84
567.293	17.46
567.489	17.79
567.684	17.5
567.88	17.58
568.076	17.56
568.271	17.78
568.467	18
568.662	18.06
568.858	18.17
569.053	18.04
569.248	18.45
569.444	18.63
569.639	18.4
569.835	18.67
570.03	18.55
570.225	18.65
570.421	18.49
570.616	18.92
570.812	19.09
571.007	18.92
571.202	19.01
571.397	18.81
571.593	18.96
571.788	19.38
571.983	19.01
572.178	19.51
572.374	19.29
572.569	19.12
572.764	18.84
572.959	18.98
573.154	19.13
573.35	19.43
573.545	19.44
573.74	19.31
573.935	19.18
574.13	19.57
574.325	19.19
574.52	19.41
574.715	19.61
574.91	19.59
575.105	19.76
575.3	19.91
575.495	19.56
575.69	19.91
575.885	20.08
576.08	20.01
576.275	20.31
576.47	20.81
576.665	20.81
576.86	20.9
577.055	20.96
577.25	20.63
577.444	21.05
577.639	21.05
577.834	21.14
578.029	21.34
578.224	21.59
578.418	21.18
578.613	21.04
578.808	21.22
579.003	21.03
579.197	21
579.392	21.3
579.587	21.32
579.781	21.44
579.976	21.75
580.171	22.18
580.365	22.23
580.56	22.33
580.755	22.15
580.949	21.81
581.144	22.24
581.338	22.34
581.533	22.46
581.727	22.08
581.922	22.13
582.116	21.9
582.311	21.53
582.505	21.6
582.7	21.71
582.894	22.13
583.089	22.27
583.283	22.15
583.478	22.15
583.672	22.27
583.866	22.24
584.061	22.1
584.255	22.05
584.449	22.24
584.644	21.94
584.838	22.12
585.032	21.53
585.226	21.74
585.421	22.01
585.615	22.24
585.809	21.95
586.003	22.29
586.198	23.31
586.392	23.31
586.586	22.89
586.78	23.12
586.974	22.82
587.168	23.59
587.363	23.66
587.557	23.34
587.751	23.4
587.945	23.79
588.139	23.42
588.333	22.8
588.527	22.79
588.721	23.22
588.915	22.96
589.109	22.62
589.303	22.36
589.497	22.77
589.691	23.19
589.885	23.29
590.079	23.14
590.273	23.56
590.466	23.92
590.66	23.97
590.854	23.8
591.048	23.66
591.242	24.32
591.436	23.86
591.629	23.46
591.823	23.11
592.017	22.99
592.211	23.01
592.404	23.19
592.598	22.53
592.792	22.69
592.986	22.88
593.179	23.39
593.373	23.01
593.567	23.31
593.76	23.21
593.954	23.38
594.147	23.37
594.341	23.52
594.535	23.57
594.728	23.59
594.922	23.34
595.115	22.86
595.309	22.98
595.502	23.38
595.696	23.63
595.889	23.92
596.083	24.01
596.276	23.99
596.47	23.76
596.663	23.38
596.856	23.82
597.05	24.03
597.243	24.24
597.437	24.16
597.63	24.22
597.823	23.96
598.017	23.4
598.21	22.95
598.403	23.04
598.596	22.65
598.79	23.07
598.983	22.82
599.176	22.42
599.369	22.55
599.563	22.28
599.756	21.9
599.949	22.08
600.142	22.61
600.335	22.98
600.528	23.08
600.722	24.07
600.915	24.31
601.108	24.86
601.301	25.48
601.494	25.58
601.687	25.93
601.88	26.3
602.073	25.57
602.266	25.45
602.459	25.29
602.652	25.18
602.845	24.77
603.038	24.27
603.231	23.97
603.424	23.78
603.617	23.78
603.809	23.54
604.002	23.24
604.195	23.39
604.388	23.22
604.581	23.48
604.774	23.59
604.966	23.76
605.159	23.59
605.352	22.96
605.545	23.12
605.737	23.04
605.93	23.35
606.123	23.78
606.316	24.48
606.508	24.79
606.701	24.42
606.894	23.75
607.086	23.81
607.279	24.49
607.471	25.16
607.664	24.76
607.857	24.93
608.049	24.84
608.242	24.95
608.434	25.16
608.627	25.66
608.819	26.12
609.012	26.81
609.204	26.5
609.397	26.52
609.589	26.63
609.782	27.13
609.974	27.04
610.166	27.58
610.359	26.77
610.551	26.55
610.743	26.4
610.936	26.19
611.128	26.02
611.32	26.62
611.513	26.5
611.705	26.65
611.897	26.78
612.09	26.91
612.282	26.1
612.474	26.85
612.666	27.36
612.858	26.72
613.051	27.14
613.243	26.72
613.435	26.58
613.627	26.47
613.819	25.78
614.011	25.36
614.203	25.91
614.395	26.5
614.588	27.25
614.78	27.49
614.972	28.59
615.164	28.58
615.356	29.22
615.548	28.69
615.74	28.9
615.932	29.31
616.124	29.83
616.315	29.81
616.507	29.52
616.699	28.79
616.891	28.11
617.083	27.84
617.275	28.13
617.467	28.01
617.659	28.64
617.85	29.03
618.042	29.71
618.234	28.92
618.426	28.82
618.618	28.87
618.809	29.29
619.001	29.12
619.193	29.09
619.384	28.9
619.576	28.68
619.768	28.42
619.959	28.06
620.151	28.03
620.343	28.01
620.534	27.69
620.726	27.82
620.917	28
621.109	28.11
621.301	28
621.492	28.19
621.684	28.24
621.875	28.46
622.067	27.4
622.258	26.78
622.45	27.34
622.641	27.5
622.832	27.94
623.024	27.12
623.215	26.83
623.407	26.43
623.598	25.73
623.789	25.81
623.981	25.86
624.172	27.11
624.363	27.17
624.555	26.74
624.746	26.26
624.937	25.98
625.129	26.28
625.32	26.83
625.511	27.04
625.702	27.07
625.893	27.41
626.085	27.2
626.276	26.98
626.467	27.06
626.658	27.21
626.849	27.5
627.04	27.47
627.231	27.82
627.422	27.38
627.614	27.12
627.805	27.53
627.996	27.82
628.187	28.32
628.378	27.9
628.569	27.98
628.76	28.48
628.951	28.71
629.142	28.95
629.332	29
629.523	29.42
629.714	30.01
629.905	30.52
630.096	30.05
630.287	30.04
630.478	30.39
630.669	30.27
630.859	30
631.05	29.69
631.241	28.73
631.432	28.01
631.623	27.99
631.813	27.91
632.004	27.17
632.195	26.88
632.385	26.45
632.576	25.73
632.767	25.65
632.957	25.9
633.148	26.02
633.339	26.22
633.529	27.23
633.72	27.42
633.91	27.01
634.101	27.32
634.292	27.56
634.482	27.21
634.673	28.39
634.863	27.84
635.054	27.54
635.244	28.1
635.435	28.67
635.625	27.86
635.815	27.47
636.006	27.4
636.196	27.4
636.387	27.81
636.577	27.98
636.767	28.24
636.958	28.79
637.148	29.24
637.338	29.42
637.529	29.88
637.719	30
637.909	30.03
638.099	31
638.29	30.69
638.48	30.63
638.67	30.32
638.86	29.46
639.05	29.88
639.241	30.1
639.431	29.9
639.621	29.42
639.811	29.58
640.001	29.92
640.191	29.32
640.381	29.14
640.571	30.03
640.761	31.99
640.951	32.43
641.141	33.04
641.331	32.35
641.521	31.68
641.711	31.26
641.901	31.52
642.091	31.53
642.281	31.46
642.471	31.88
642.661	30.8
642.851	29.85
643.041	29.73
643.231	29.04
643.42	29.64
643.61	30.21
643.8	31.08
643.99	30.92
644.18	30.79
644.369	31.37
644.559	31.54
644.749	31.09
644.939	30.88
645.128	31.82
645.318	32.04
645.508	31.27
645.697	31.21
645.887	31.68
646.076	31.87
646.266	32.32
646.456	31.84
646.645	32.01
646.835	32.1
647.024	31.37
647.214	29.81
647.403	29.5
647.593	29.72
647.782	30
647.972	29.32
648.161	28.95
648.351	28.88
648.54	29.5
648.73	29.74
648.919	30.12
649.108	31.12
649.298	32.19
649.487	32.82
649.677	33.12
649.866	33.09
650.055	32.72
650.244	32.74
650.434	32.31
650.623	31.95
650.812	31.17
651.002	31.28
651.191	31.5
651.38	31.34
651.569	30.82
651.758	30.58
651.947	30
652.137	30.01
652.326	30.18
652.515	30.49
652.704	30.26
652.893	30.09
653.082	30.32
653.271	29.63
653.46	28.91
653.649	28.67
653.838	28.43
654.027	28.89
654.216	29.48
654.405	30.59
654.594	30.56
654.783	30
654.972	30.51
655.161	29.75
655.35	30.75
655.539	31.43
655.728	31.54
655.916	31.63
656.105	31.94
656.294	31.34
656.483	30.05
656.672	29.77
656.86	29.69
657.049	29.32
657.238	29.63
657.427	29.04
657.615	29.12
657.804	30.02
657.993	30.09
658.181	29.67
658.37	30.18
658.559	30.21
658.747	30.37
658.936	31.07
659.125	30.48
659.313	30.42
659.502	30.55
659.69	30.06
659.879	29.4
660.067	29.15
660.256	29.39
660.444	30.02
660.633	30.03
660.821	29.71
661.01	29.14
661.198	30.34
661.387	30.64
661.575	31.16
661.763	32.53
661.952	32.62
662.14	33.07
662.328	34.03
662.517	33.74
662.705	34.31
662.893	35.17
663.082	36.41
663.27	36.49
663.458	37.1
663.646	36.11
663.834	33.7
664.023	33.74
664.211	33.38
664.399	33.22
664.587	32.95
664.775	32.42
664.963	32.14
665.152	31.96
665.34	32.19
665.528	31.87
665.716	33.47
665.904	34.95
666.092	34.62
666.28	35.52
666.468	34.01
666.656	34.37
666.844	35.06
667.032	34.51
667.22	34.73
667.408	34.44
667.596	33.82
667.784	33.51
667.971	33.43
668.159	33.6
668.347	33.25
668.535	33.82
668.723	33.05
668.911	32.8
669.098	32.08
669.286	31.53
669.474	32.13
669.662	32.38
669.849	31.2
670.037	31.88
670.225	32.93
670.413	33.72
670.6	33.78
670.788	33.82
670.976	34.09
671.163	35.42
671.351	35.24
671.538	35.05
671.726	35.97
671.913	36.86
672.101	36.29
672.289	35.2
672.476	34.93
672.664	35.22
672.851	35.67
673.039	36.08
673.226	36.33
673.413	35.76
673.601	35.46
673.788	33.97
673.976	34.41
674.163	34.63
674.35	34.94
674.538	34.91
674.725	34.36
674.912	33.73
675.1	33.4
675.287	32.81
675.474	32.7
675.662	33.09
675.849	33.11
676.036	32.69
676.223	32.66
676.411	31.86
676.598	32.1
676.785	32.75
676.972	33.44
677.159	33.39
677.346	33.41
677.533	34.68
677.721	34.1
677.908	34.47
678.095	34.7
678.282	33.83
678.469	33.41
678.656	32.56
678.843	31.76
679.03	31.93
679.217	31.63
679.404	31.5
679.591	31.69
679.778	31.26
679.964	31.46
680.151	31.03
680.338	31.58
680.525	32.77
680.712	32.7
680.899	33.45
681.086	32.83
681.272	33.33
681.459	33.79
681.646	32.57
681.833	32.67
682.02	32.38
682.206	33.06
682.393	33.35
682.58	32.79
682.766	35.19
682.953	35.19
683.14	35.21
683.326	35.41
683.513	35.86
683.7	36.76
683.886	36.88
684.073	37.07
684.259	35.76
684.446	36.29
684.632	38.27
684.819	35.57
685.005	35.08
685.192	35.12
685.378	35.09
685.565	34.09
685.751	32.82
685.938	32.78
686.124	32.52
686.31	32.05
686.497	31.98
686.683	31.11
686.87	31.98
687.056	32.07
687.242	32.12
687.429	31.85
687.615	32.05
687.801	33.44
687.987	33.61
688.174	34.55
688.36	35.36
688.546	34.41
688.732	34.19
688.918	33.79
689.105	34.95
689.291	35.61
689.477	35.38
689.663	36.2
689.849	36.52
690.035	37.06
690.221	36.31
690.407	37.08
690.593	37.83
690.779	37.78
690.965	38.41
691.151	37.44
691.337	38.37
691.523	38.51
691.709	38.27
691.895	38.21
692.081	38.74
692.267	39.55
692.453	38.83
692.639	39.59
692.825	39.25
693.011	38.56
693.196	40.02
693.382	37.72
693.568	37.04
693.754	37.55
693.94	36.8
694.125	36.04
694.311	35.42
694.497	35.69
694.682	34.26
694.868	34
695.054	34.34
695.239	33.97
695.425	34.89
695.611	35.57
695.796	34.62
695.982	34.55
696.168	33.83
696.353	33.94
696.539	34.03
696.724	33.78
696.91	33.27
697.095	33.69
697.281	32.62
697.466	32.64
697.652	32.58
697.837	32.66
698.023	32.71
698.208	33.52
698.393	33.23
698.579	33.24
698.764	33.71
698.949	33.8
699.135	32.85
699.32	33.93
699.505	34.19
699.691	34.63
699.876	34.66
700.061	34.97
700.246	34.79
700.432	35.97
700.617	36.76
700.802	36.47
700.987	37.74
701.172	37.62
701.358	36.18
701.543	36.6
701.728	36.63
701.913	37.39
702.098	37.7
702.283	38.49
702.468	38.57
702.653	37.61
702.838	39.18
703.023	38.57
703.208	39.6
703.393	40.43
703.578	39.38
703.763	38.98
703.948	38.55
704.133	38.14
704.318	38.78
704.503	37.3
704.688	37.31
704.873	35.28
705.057	36.5
705.242	37.22
705.427	36.41
705.612	37.21
705.797	38.31
705.981	39.03
706.166	40.24
706.351	39.76
706.536	40.68
706.72	41.68
706.905	42.17
707.09	42.33
707.274	41.73
707.459	42.41
707.644	41.83
707.828	40.93
708.013	40.23
708.197	38.6
708.382	37.55
708.567	36.72
708.751	36.57
708.936	36.94
709.12	37.1
709.305	37.14
709.489	37.08
709.673	37.2
709.858	37.18
710.042	36.42
710.227	37.38
710.411	37.29
710.596	37.61
710.78	36.28
710.964	36.2
711.149	34.86
711.333	34.51
711.517	34.05
711.702	34.24
711.886	33.64
712.07	33.88
712.254	33.62
712.438	34.72
712.623	33.88
712.807	35.55
712.991	36.39
713.175	37.06
713.359	37.37
713.544	37.37
713.728	37.77
713.912	38.89
714.096	40.23
714.28	39.07
714.464	38.13
714.648	39.22
714.832	38.79
715.016	37.91
715.2	37.88
715.384	37.68
715.568	37.61
715.752	37.89
715.936	37.09
716.12	36.81
716.304	37.67
716.488	38.19
716.671	37.98
716.855	38.55
717.039	38.48
717.223	38.97
717.407	40.3
717.59	40.39
717.774	41.09
717.958	41.03
718.142	42.04
718.325	43.02
718.509	42.77
718.693	42.62
718.877	41.8
719.06	43.13
719.244	42.57
719.428	42.52
719.611	43.11
719.795	40.67
719.978	40.81
720.162	39.42
720.345	38.74
720.529	40.54
720.713	40.69
720.896	41.37
721.08	41.64
721.263	42.16
721.446	42.38
721.63	43.75
721.813	44.81
721.997	46.42
722.18	45.59
722.364	47.3
722.547	46.8
722.73	48.89
722.914	48.39
723.097	48.49
723.28	47.65
723.464	47.12
723.647	45.05
723.83	46.1
724.013	45.37
724.197	46.46
724.38	45.78
724.563	44.37
724.746	41.78
724.929	43.38
725.112	43.07
725.296	41.59
725.479	40.52
725.662	40.84
725.845	39.7
726.028	39.72
726.211	38.88
726.394	38.53
726.577	38.4
726.76	37.69
726.943	35.89
727.126	34.7
727.309	36.42
727.492	36.39
727.675	37.39
727.858	36.96
728.041	34.62
728.224	35.07
728.407	33.82
728.589	34.72
728.772	36.17
728.955	37
729.138	37.76
729.321	38.76
729.503	39.41
729.686	38.42
729.869	38.06
730.052	39.07
730.234	39.48
730.417	41.25
730.6	41.28
730.782	40.72
730.965	40.62
731.148	40.75
731.33	40.52
731.513	41.14
731.695	41.38
731.878	41.87
732.061	43.68
732.243	43.61
732.426	41.9
732.608	42.03
732.791	42.81
732.973	41.1
733.156	40.94
733.338	39.11
733.52	38.9
733.703	38.6
733.885	41.7
734.068	41.09
734.25	41.11
734.432	42.48
734.615	43.56
734.797	44.31
734.979	45.69
735.162	45.02
735.344	46.33
735.526	46.14
735.708	45.25
735.891	42.81
736.073	42.26
736.255	41.94
736.437	42.2
736.619	39.57
736.802	39.02
736.984	38.84
737.166	40.31
737.348	40.93
737.53	40.61
737.712	41.36
737.894	41.42
738.076	42.58
738.258	42.7
738.44	41.26
738.622	41.52
738.804	43.4
738.986	42.61
739.168	42.48
739.35	43.1
739.532	43.38
739.714	45.79
739.896	47.18
740.078	45.43
740.259	44.52
740.441	46.36
740.623	47.99
740.805	46.49
740.987	48.66
741.168	48.82
741.35	47.81
741.532	48.6
741.714	48.35
741.895	47.18
742.077	49.62
742.259	51.94
742.44	51.44
742.622	50.84
742.804	49.73
742.985	49.46
743.167	49.03
743.348	48.31
743.53	48.5
743.711	49.75
743.893	49.34
744.075	48.64
744.256	47.21
744.438	48.29
744.619	49.67
744.8	50.79
744.982	51.66
745.163	51.52
745.345	52.44
745.526	51.9
745.707	48.74
745.889	48.94
746.07	47.49
746.252	48.07
746.433	45.61
746.614	42.64
746.795	42.22
746.977	42.94
747.158	45.2
747.339	45.85
747.52	45.95
747.702	48.97
747.883	49.22
748.064	49.79
748.245	50.59
748.426	53.73
748.607	55.17
748.788	55.7
748.97	53.64
749.151	50.66
749.332	49.97
749.513	50.45
749.694	49.13
749.875	50.3
750.056	48.58
750.237	48.82
750.418	46.81
750.599	45.24
750.78	42.78
750.96	46.23
751.141	48.53
751.322	47.69
751.503	48.98
751.684	48.92
751.865	47.24
752.046	49.58
752.226	47.97
752.407	46.52
752.588	50.29
752.769	52.47
752.949	49.75
753.13	45.95
753.311	44.76
753.492	43.87
753.672	43.02
753.853	45.13
754.034	41.17
754.214	41.24
754.395	43.37
754.575	40.07
754.756	38.59
754.937	37.54
755.117	40.9
755.298	45.39
755.478	44.57
755.659	45.11
755.839	45.24
756.02	47.91
756.2	47.23
756.381	48.02
756.561	51.77
756.741	52.49
756.922	52.66
757.102	51.21
757.283	47.83
757.463	48.26
757.643	48.68
757.823	46.33
758.004	45.39
758.184	45.19
758.364	44.88
758.545	43.78
758.725	46.22
758.905	47.98
759.085	50.07
759.265	52.65
759.446	53.74
759.626	54.62
759.806	56.84
759.986	57.95
760.166	58.59
760.346	60
760.526	56.41
760.706	54.94
760.886	53.46
761.066	51.62
761.246	47
761.426	46.4
761.606	44.38
761.786	42.37
761.966	40.67
762.146	39.38
762.326	38.08
762.506	40.08
762.686	38.88
762.866	38.27
763.046	38.15
763.225	39
763.405	38.27
763.585	37.7
763.765	38.72
763.945	39.8
764.124	41.14
764.304	41.2
764.484	40.63
764.664	41.18
764.843	43.11
765.023	43.9
765.203	44.54
765.382	45.24
765.562	48.06
765.741	49.97
765.921	49.89
766.101	49.73
766.28	52.94
766.46	53.75
766.639	53.71
766.819	52.95
766.998	54.25
767.178	54.24
767.357	52.39
767.537	51.63
767.716	50.39
767.896	48.92
768.075	50.84
768.254	48.25
768.434	46.16
768.613	45.73
768.792	46.78
768.972	44.84
769.151	46.43
769.33	47.45
769.51	47.14
769.689	47.36
769.868	48.22
770.047	47.16
770.226	45.98
770.406	48.47
770.585	48.32
770.764	47.44
770.943	47.04
771.122	49.56
771.301	52.19
771.48	51.8
771.66	50.46
771.839	50.87
772.018	50.86
772.197	52.29
772.376	52.7
772.555	55.54
772.734	58.09
772.913	60.23
773.092	59.41
773.271	56.58
773.449	59.36
773.628	59.88
773.807	64.95
773.986	65.81
774.165	65.16
774.344	63.76
774.523	59.99
774.701	57.68
774.88	57.79
775.059	55.65
775.238	56.18
775.417	56.12
775.595	55.33
775.774	53.22
775.953	51.99
776.131	51.96
776.31	52.66
776.489	56.19
776.667	56.38
776.846	57.5
777.025	57.41
777.203	59.39
777.382	56.72
777.56	57.44
777.739	53.79
777.917	54.55
778.096	55.76
778.274	54.11
778.453	52.32
778.631	51.93
778.81	50.89
778.988	53.56
779.166	54.34
779.345	56.74
779.523	56.9
779.702	54.76
779.88	56.4
780.058	55.08
780.237	58.63
780.415	60.88
780.593	62.69
780.771	61.32
780.95	56.32
781.128	55.83
781.306	57.71
781.484	58.22
781.662	63.08
781.841	58.7
782.019	58.69
782.197	58.08
782.375	57.61
782.553	55.48
782.731	57.98
782.909	61.93
783.087	60.37
783.265	56.8
783.443	56.19
783.621	54.85
783.799	59.77
783.977	64.41
784.155	63.35
784.333	66.69
784.511	66.99
784.689	67.41
784.867	67.43
785.045	68.46
785.223	67.14
785.4	67.26
785.578	68.19
785.756	66.75
785.934	62.14
786.112	62.73
786.289	58.65
786.467	58.52
786.645	59.48
786.823	57.59
787	52.92
787.178	55.83
787.356	54.02
787.533	54.92
787.711	56.38
787.889	55.94
788.066	54.34
788.244	54.55
788.421	55.94
788.599	56.3
788.776	54.93
788.954	59.49
789.131	58.41
789.309	60.45
789.486	62.58
789.664	62.39
789.841	68.29
790.019	69.75
790.196	70.84
790.373	74.12
790.551	70.46
790.728	74.14
790.906	73.32
791.083	69.37
791.26	71.45
791.437	69.63
791.615	70.53
791.792	68.26
791.969	67.88
792.146	69.21
792.324	62.02
792.501	63.71
792.678	65.59
792.855	62.74
793.032	66.4
793.209	62.09
793.387	62.39
793.564	61.77
793.741	57.61
793.918	56.21
794.095	57.03
794.272	61.57
794.449	59.67
794.626	57.74
794.803	60.94
794.98	58.11
795.157	59.81
795.334	58.38
795.511	58.61
795.688	57.92
795.864	59.08
796.041	59.68
796.218	56.54
796.395	59.79
796.572	57.03
796.749	59.41
796.925	62.94
797.102	59.59
797.279	60.57
797.456	59.8
797.632	62.87
797.809	63.64
797.986	57.99
798.162	61.14
798.339	61.45
798.516	66.74
798.692	63.36
798.869	61.55
799.046	65.11
799.222	67.38
799.399	65.11
799.575	66.4
799.752	66.05
799.928	68.94
800.105	67.69
800.281	63.59
800.458	60.63
800.634	59.94
800.811	58.77
800.987	61.86
801.163	62.87
801.34	61.7
801.516	57.51
801.692	61.54
801.869	63.66
802.045	62.38
802.221	64.02
802.398	65.22
802.574	65.83
802.75	67.54
802.926	62.36
803.103	61.91
803.279	65.14
803.455	69.62
803.631	64.45
803.807	65.08
803.983	68.21
804.16	70.02
804.336	69.03
804.512	71.49
804.688	74.23
804.864	71.81
805.04	69.8
805.216	72.47
805.392	71.17
805.568	76.73
805.744	73.33
805.92	70.33
806.096	67.09
806.272	73.9
806.448	73.22
806.623	69.96
806.799	74.33
806.975	74.61
807.151	70.31
807.327	68.18
807.503	63.71
807.678	60.75
807.854	66.28
808.03	71.24
808.206	65.03
808.381	64.45
808.557	64.37
808.733	62.98
808.908	63.45
809.084	65.63
809.26	68.51
809.435	68.49
809.611	75.42
809.787	70.81
809.962	65.62
810.138	67.41
810.313	65.97
810.489	70.56
810.664	72.49
810.84	78.27
811.015	81.32
811.191	79.63
811.366	82.34
811.542	83.2
811.717	88.49
811.892	93.34
812.068	95.67
812.243	99.85
812.419	94.54
812.594	99.38
812.769	91.86
812.944	89.5
813.12	90.84
813.295	89.8
813.47	91.3
813.645	85.14
813.821	79.3
813.996	73.7
814.171	71.26
814.346	75.18
814.521	72.86
814.697	75.19
814.872	76.91
815.047	75.18
815.222	71.02
815.397	64.69
815.572	63
815.747	71
815.922	74.33
816.097	71.58
816.272	66.32
816.447	71.3
816.622	67.28
816.797	66.27
816.972	65.26
817.147	65.94
817.322	71.09
817.496	70.39
817.671	67.75
817.846	67
818.021	65.54
818.196	67.79
818.371	63.28
818.545	62.35
818.72	61.69
818.895	59.91
819.069	58.11
819.244	52.38
819.419	48.62
819.594	44.45
819.768	40.76
819.943	40.34
820.117	37.47
820.292	35.54
820.467	34.78
820.641	33.28
820.816	33.21
820.99	33.09
821.165	31.51
821.339	31.35
821.514	30.55
821.688	30.57
821.863	29.69
822.037	29.86
822.212	30.31
822.386	30.41
822.56	29.95
822.735	30.92
822.909	30.41
823.084	30.65
823.258	30.55
823.432	30.89
823.606	30.87
823.781	32.17
823.955	32.61
824.129	31.68
824.303	31.61
824.478	31.77
824.652	31.46
824.826	32.1
825	32.63
825.174	34.01
825.348	34.95
825.523	35.07
825.697	33.99
825.871	32.51
826.045	32.61
826.219	32.09
826.393	32.94
826.567	30.56
826.741	30.25
826.915	30.6
827.089	31.79
827.263	30.39
827.437	30.67
827.611	30.94
827.784	32.41
827.958	33.53
828.132	33.09
828.306	33.87
828.48	36.09
828.654	37.84
828.827	37.05
829.001	38.59
829.175	41.5
829.349	43.8
829.522	44.98
829.696	45.07
829.87	45.39
830.044	49.61
830.217	46.66
830.391	48.64
830.565	48.26
830.738	53.18
830.912	51.29
831.085	50.28
831.259	48.75
831.432	47.93
831.606	49.61
831.779	47.65
831.953	47.17
832.126	50.11
832.3	49.93
832.473	48.38
832.647	45.78
832.82	42.8
832.994	43.15
833.167	46.16
833.34	45.97
833.514	45.43
833.687	45.36
833.86	47.38
834.034	45.66
834.207	45.89
834.38	46.68
834.553	45.41
834.727	47.37
834.9	46.71
835.073	43.55
835.246	44.35
835.419	45.31
835.593	46.03
835.766	42.26
835.939	48.71
836.112	47.74
836.285	45.92
836.458	47.54
836.631	48.03
836.804	49.81
836.977	55.48
837.15	60.89
837.323	60.65
837.496	69.17
837.669	73.09
837.842	65.74
838.015	74.45
838.188	76.16
838.361	78.18
838.533	82.41
838.706	84.12
838.879	76.12
839.052	76.34
839.225	72.49
839.398	68.8
839.57	70.31
839.743	74.27
839.916	73.21
840.088	76.81
840.261	83.45
840.434	74.99
840.607	71.88
840.779	82.04
840.952	84.05
841.124	94.9
841.297	103.48
841.47	107.06
841.642	109.05
841.815	102.88
841.987	104.55
842.16	98.72
842.332	107.67
842.505	110.49
842.677	108.67
842.85	115.43
843.022	108.38
843.194	99.71
843.367	101.04
843.539	97.24
843.712	101.76
843.884	107.28
844.056	107.27
844.229	109.96
844.401	111.12
844.573	106.88
844.745	104.45
844.918	128.02
845.09	122.46
845.262	133.86
845.434	158.78
845.606	169.48
845.779	154.24
845.951	143.84
846.123	142.51
846.295	162.12
846.467	208.21
846.639	192.15
846.811	186.36
846.983	194.62
847.155	183.97
847.327	155.31
847.499	145.69
847.671	160.74
847.843	163.35
848.015	154.18
848.187	135.75
848.359	120.04
848.531	136.6
848.703	121.96
848.875	141.43
849.047	128.45
849.218	127.74
849.39	133.73
849.562	144.76
849.734	163.31
849.905	159.81
850.077	175.63
850.249	160.09
850.421	123.41
850.592	131.18
850.764	126.17
850.936	120.74
851.107	114.96
851.279	121
851.451	106.4
851.622	101.85
851.794	102.3
851.965	105.17
852.137	108.76
852.308	113.58
852.48	110.54
852.651	109.79
852.823	118.24
852.994	117.06
853.166	114.78
853.337	124.28
853.509	129.14
853.68	129.76
853.851	122.25
854.023	111.76
854.194	113.51
854.365	131.99
854.537	121.26
854.708	125.46
854.879	124.94
855.05	121.94
855.222	107.09
855.393	112.99
855.564	120.78
855.735	127.41
855.906	136.24
856.078	131.92
856.249	109.59
856.42	114.27
856.591	105.89
856.762	115.2
856.933	115.36
857.104	113.25
857.275	101.09
857.446	92.94
857.617	83.39
857.788	83.1
857.959	81.1
858.13	92.28
858.301	87.41
858.472	110.62
858.643	108.05
858.814	113.86
858.985	135.35
859.155	172.43
859.326	175
859.497	208.82
859.668	350.6
859.839	338.67
860.009	200.7
860.18	220.54
860.351	160.22
860.522	137.78
860.692	121.14
860.863	100.22
861.034	92.97
861.204	96.97
861.375	89.34
861.546	83.29
861.716	83.39
861.887	103.8
862.057	112.41
862.228	119.7
862.398	106.63
862.569	127.81
862.739	157.11
862.91	142.53
863.08	133.83
863.251	149.9
863.421	142.32
863.592	163.68
863.762	148.92
863.932	122.47
864.103	116.77
864.273	127.61
864.443	107.02
864.614	89.91
864.784	102.04
864.954	118.88
865.125	126.08
865.295	130.53
865.465	153.23
865.635	166.81
865.805	168.91
865.976	194.57
866.146	179.83
866.316	194.48
866.486	252.5
866.656	224.25
866.826	250.19
866.996	214.33
867.166	259.76
867.336	190.98
867.506	127.47
867.676	131.1
867.846	126.32
868.016	135.51
868.186	133.19
868.356	121.8
868.526	124.58
868.696	108.25
868.866	106.62
869.036	109.28
869.206	108.61
869.376	114.12
869.545	114.46
869.715	122.04
869.885	127.41
870.055	116.62
870.224	103.86
870.394	110.44
870.564	138.94
870.734	137.81
870.903	139
871.073	141.97
871.243	152.84
871.412	160.55
871.582	143.3
871.751	136.7
871.921	149.24
872.091	201.65
872.26	145.6
872.43	117.45
872.599	119
872.769	120.53
872.938	128.56
873.108	131.62
873.277	122.81
873.446	125.12
873.616	140.36
873.785	138.49
873.955	126.79
874.124	139.23
874.293	144.67
874.463	152.22
874.632	151.22
874.801	149
874.971	136.06
875.14	169.17
875.309	169.27
875.478	124.51
875.647	116.73
875.817	116.33
875.986	121.73
876.155	122.27
876.324	113.92
876.493	101.49
876.662	99.11
876.831	107.4
877	92.09
877.17	84.57
877.339	89.05
877.508	102.05
877.677	108.91
877.846	106.23
878.015	104.2
878.184	91.77
878.352	94
878.521	90.23
878.69	79.79
878.859	71.96
879.028	74.38
879.197	73.93
879.366	72.54
879.534	63
879.703	52.64
879.872	51.5
880.041	51.62
880.21	47.6
880.378	42.2
880.547	41.43
880.716	42.64
880.884	40.92
881.053	36.78
881.222	32.75
881.39	31.76
881.559	31.73
881.727	31.7
881.896	31.01
882.065	32.05
882.233	33.27
882.402	34.31
882.57	35.83
882.739	34.89
882.907	37.42
883.076	36.1
883.244	37.26
883.412	37.77
883.581	38.33
883.749	39.85
883.918	41.27
884.086	42.68
884.254	45.2
884.423	47.45
884.591	51.77
884.759	52.38
884.927	60.13
885.096	61.46
885.264	66.75
885.432	70.57
885.6	72.4
885.769	74.48
885.937	79.26
886.105	83.4
886.273	75.56
886.441	73.36
886.609	72.69
886.777	64.84
886.945	70.67
887.113	73.78
887.281	70.09
887.449	75.27
887.617	77.82
887.785	79.98
887.953	77.49
888.121	90.3
888.289	92.65
888.457	94.07
888.625	102
888.793	102.38
888.961	110.77
889.129	122.87
889.296	124.91
889.464	128.65
889.632	134.42
889.8	146
889.967	123.43
890.135	120.35
