Data from JASIL_3334_Reflection_2.txt Node
Date: Tue Nov 17 20:19:25 EST 2015
User: Geneva
Spectrometer: USB4E03002
Autoset integration time: false
Trigger mode: 4
Integration Time (sec): 1.000000E-1
Scans to average: 10
Electric dark correction enabled: false
Nonlinearity correction enabled: false
Boxcar width: 5
Stray light correction enabled: false
XAxis mode: Wavelengths
Stop averaging: false
Number of Pixels in Spectrum: 3648
>>>>>Begin Spectral Data<<<<<
177.575	-116.83
177.794	-166.3
178.014	-200
178.233	-230.19
178.452	-341.67
178.672	-337.8
178.891	-953.45
179.11	6070
179.33	1689.13
179.549	1603.92
179.768	-7754.55
179.987	778.79
180.207	436.48
180.426	767.81
180.645	1014.4
180.864	7241.18
181.084	736.75
181.303	566.96
181.522	720.11
181.741	610.67
181.96	1003.03
182.179	5705.88
182.398	-1059.74
182.618	-394.53
182.837	-355.24
183.056	-361.2
183.275	-332.22
183.494	-120.31
183.713	-92.24
183.932	-80.14
184.151	-55.21
184.37	-47.76
184.589	-79.77
184.808	-79.66
185.027	-89.77
185.246	-121.98
185.465	-112.17
185.684	-150.22
185.903	-267.31
186.122	-338.33
186.341	-716.81
186.56	-545.24
186.779	-3400
186.998	-407.94
187.216	-431.67
187.435	-362.42
187.654	-392.12
187.873	-338.84
188.092	-456.41
188.311	-488.57
188.53	-375.54
188.748	-184.1
188.967	-222.9
189.186	-160.5
189.405	-330.15
189.623	-219.06
189.842	-228.21
190.061	-166.09
190.28	-82.35
190.498	-123.86
190.717	-83.73
190.936	-66.67
191.154	-185.16
191.373	-444.83
191.592	895.35
191.81	332.04
192.029	380
192.248	203.92
192.466	311.6
192.685	171.16
192.904	354.46
193.122	259.34
193.341	349.16
193.559	462.71
193.778	493.37
193.996	438.86
194.215	1234.78
194.433	673.57
194.652	630.77
194.87	476.25
195.089	525.38
195.307	1047.37
195.526	-655.1
195.744	-441.73
195.963	-542.67
196.181	-642.15
196.399	-966.67
196.618	939.47
196.836	582.27
197.055	522.3
197.273	605.97
197.491	717.12
197.71	347.62
197.928	274.83
198.146	262.33
198.365	976.19
198.583	673.02
198.801	-202.42
199.019	-86.34
199.238	-46.15
199.456	-63.57
199.674	-100.59
199.892	-78.05
200.111	-102.82
200.329	-158.33
200.547	-218.27
200.765	1731.37
200.983	-753.85
201.202	1381.58
201.42	362.14
201.638	270.97
201.856	444.02
202.074	645.33
202.292	337.14
202.51	281.08
202.728	309.68
202.946	2310.71
203.165	1101.92
203.383	246.57
203.601	323.35
203.819	629.09
204.037	-1857.58
204.255	-2148.15
204.473	-307.69
204.691	-364.12
204.909	-192.04
205.127	-1239.58
205.345	415.76
205.562	-394.57
205.78	-75.65
205.998	-60.81
206.216	-52.67
206.434	-93.19
206.652	-86.54
206.87	-292.22
207.088	-107.62
207.306	-235.26
207.523	-57.92
207.741	-82.52
207.959	-166.22
208.177	-192.23
208.395	-230.88
208.612	-258.8
208.83	-159.13
209.048	-158.6
209.266	-101.66
209.483	-84.87
209.701	-90.97
209.919	-118.05
210.136	-105.3
210.354	-145.77
210.572	-150.93
210.79	-159.67
211.007	-351.41
211.225	-3740
211.442	900
211.66	2944
211.878	290.7
212.095	936.65
212.313	1439.83
212.53	794.79
212.748	685.66
212.966	528.99
213.183	661.48
213.401	-8550
213.618	-573.02
213.836	-511.6
214.053	-662.84
214.271	-473.4
214.488	-170.54
214.705	-149.79
214.923	-125.22
215.14	-62.58
215.358	-46.78
215.575	-42.49
215.793	-85.41
216.01	-281.99
216.227	-573.28
216.445	-446.53
216.662	-201.72
216.879	-263.91
217.097	-106.4
217.314	-180.16
217.531	7075
217.749	559.41
217.966	331.87
218.183	237.37
218.4	287.1
218.618	237.5
218.835	172.29
219.052	162.13
219.269	176.77
219.487	146.91
219.704	130.08
219.921	158.52
220.138	206.44
220.355	150.1
220.572	147.97
220.79	149.47
221.007	216.59
221.224	303.42
221.441	277.27
221.658	244.44
221.875	-348.57
222.092	-250
222.309	684.85
222.526	104.24
222.743	229.95
222.96	187.77
223.177	644.19
223.394	353.95
223.611	302.8
223.828	224.8
224.045	181.43
224.262	188.99
224.479	212.69
224.696	383.17
224.913	648.76
225.13	699.06
225.347	600
225.564	292.99
225.781	178.31
225.997	134.98
226.214	114.15
226.431	101.06
226.648	81.09
226.865	47.53
227.082	36.8
227.298	45.33
227.515	36.27
227.732	39.14
227.949	35.75
228.165	32.17
228.382	27.7
228.599	26.85
228.816	25.89
229.032	32.23
229.249	33.49
229.466	37.49
229.682	32.33
229.899	33.41
230.116	40
230.332	41.83
230.549	50.18
230.765	51.94
230.982	63.03
231.199	74.91
231.415	70.86
231.632	88.58
231.848	83.68
232.065	93.26
232.281	85.4
232.498	70.3
232.714	60.44
232.931	59.77
233.147	69.28
233.364	73.43
233.58	71.48
233.797	83.86
234.013	86.64
234.23	103.86
234.446	96.52
234.662	125.68
234.879	186.24
235.095	186.98
235.312	176.1
235.528	162.68
235.744	195.56
235.961	240.91
236.177	195.53
236.393	258.52
236.61	196.47
236.826	185.79
237.042	123.36
237.258	119.68
237.475	119.1
237.691	148.27
237.907	115.11
238.123	87.02
238.339	88.34
238.556	88.73
238.772	68.84
238.988	71.32
239.204	63.48
239.42	63.12
239.636	58.67
239.853	57.38
240.069	47.62
240.285	42.36
240.501	38.85
240.717	34.74
240.933	29.55
241.149	30.05
241.365	26.93
241.581	27.07
241.797	30.46
242.013	28.89
242.229	25.23
242.445	24.67
242.661	26.17
242.877	29.34
243.093	34.62
243.309	40.85
243.525	34.41
243.741	37.72
243.957	36.29
244.173	34.82
244.388	35.08
244.604	32.84
244.82	32.85
245.036	29.48
245.252	26.19
245.468	22.52
245.683	20.98
245.899	21.63
246.115	20.02
246.331	19.15
246.547	17.81
246.762	16.92
246.978	17.58
247.194	18.03
247.409	18.8
247.625	18.85
247.841	18.33
248.057	18.62
248.272	17.79
248.488	16.23
248.703	19.62
248.919	24.79
249.135	28.1
249.35	28.02
249.566	26.94
249.782	26.56
249.997	26.61
250.213	29.7
250.428	26.46
250.644	27.52
250.859	27.3
251.075	23.86
251.29	17.89
251.506	14.68
251.721	19.98
251.937	16.91
252.152	19.29
252.368	21.15
252.583	18.04
252.798	18.41
253.014	18.98
253.229	23.72
253.445	23.8
253.66	27.81
253.875	20.82
254.091	7.5
254.306	14.81
254.521	8.09
254.737	1.42
254.952	7.91
255.167	14.39
255.383	16.66
255.598	14.62
255.813	9.7
256.028	5.35
256.244	14.65
256.459	21.34
256.674	22.85
256.889	23.45
257.104	25.98
257.32	21.97
257.535	19.46
257.75	19.48
257.965	16.48
258.18	15.56
258.395	17.37
258.61	17.37
258.826	14.81
259.041	13.11
259.256	12.74
259.471	10.89
259.686	11.57
259.901	10.91
260.116	10.39
260.331	13.08
260.546	15.86
260.761	15.48
260.976	15.29
261.191	15.91
261.406	16.84
261.621	18.16
261.836	20.87
262.05	15.69
262.265	19.82
262.48	18.23
262.695	16.48
262.91	14.54
263.125	16.16
263.34	8.05
263.555	5.9
263.769	5.04
263.984	2.03
264.199	6.04
264.414	15.76
264.629	12.51
264.843	15.86
265.058	15.37
265.273	12.84
265.488	12.09
265.702	17.35
265.917	21.71
266.132	22.18
266.346	25.21
266.561	24.81
266.776	23.71
266.99	23.16
267.205	23.67
267.42	21
267.634	20.75
267.849	20.81
268.063	17.71
268.278	15.23
268.492	13.98
268.707	11.58
268.922	8.23
269.136	10.43
269.351	11.87
269.565	11.72
269.78	13.27
269.994	15.65
270.209	14.74
270.423	16.46
270.637	14.85
270.852	17.01
271.066	18.66
271.281	20.43
271.495	19.26
271.709	19.54
271.924	19
272.138	19.66
272.353	19.79
272.567	19.92
272.781	17.82
272.996	19.47
273.21	16.84
273.424	15.02
273.638	15.93
273.853	16.69
274.067	13.92
274.281	11.31
274.495	12.81
274.71	13.37
274.924	12.89
275.138	15.91
275.352	16.49
275.566	18.71
275.781	18.34
275.995	16.89
276.209	15.18
276.423	16.26
276.637	16.73
276.851	14.58
277.065	14.92
277.279	14.92
277.493	15.17
277.707	15.44
277.921	13.78
278.135	15.69
278.349	15.11
278.563	14.54
278.777	14.37
278.991	14.54
279.205	16.91
279.419	14.94
279.633	15.92
279.847	15.65
280.061	13.88
280.275	15.86
280.489	14.26
280.703	13.53
280.917	12.99
281.131	12.94
281.344	15.58
281.558	12.7
281.772	11.9
281.986	11.63
282.2	9.8
282.414	9.17
282.627	8.31
282.841	9.58
283.055	8.57
283.269	10.93
283.482	11.46
283.696	9.96
283.91	11.63
284.123	11.79
284.337	12.67
284.551	13.11
284.764	12.46
284.978	12.87
285.192	11.71
285.405	13.09
285.619	12.16
285.833	12.46
286.046	13.42
286.26	12.29
286.473	12.99
286.687	12.98
286.9	13.95
287.114	16.11
287.327	15.27
287.541	15.99
287.754	15.49
287.968	16.27
288.181	14.63
288.395	15.16
288.608	15.53
288.822	15.26
289.035	15.1
289.248	14.47
289.462	13.15
289.675	13.27
289.889	13.03
290.102	13.41
290.315	12.8
290.529	14.36
290.742	12.58
290.955	13.57
291.169	14.57
291.382	14.27
291.595	15.2
291.808	16.17
292.022	16.16
292.235	15.67
292.448	15.11
292.661	15.2
292.875	15.74
293.088	15.35
293.301	14.39
293.514	11.69
293.727	12.07
293.94	10.01
294.153	9.21
294.367	10.23
294.58	9.4
294.793	8.99
295.006	7.61
295.219	7
295.432	6.17
295.645	7.23
295.858	9.32
296.071	8.21
296.284	8.54
296.497	8.9
296.71	9.09
296.923	10.16
297.136	10.47
297.349	12.09
297.562	11.77
297.775	12.36
297.988	10.92
298.201	10.5
298.414	11.82
298.626	11.92
298.839	13.13
299.052	12.68
299.265	13
299.478	12.95
299.691	12.12
299.903	12.32
300.116	13.5
300.329	13.4
300.542	14.72
300.755	13.43
300.967	13.58
301.18	13.2
301.393	12.61
301.605	11.55
301.818	11.9
302.031	12.21
302.243	12.03
302.456	11.63
302.669	12.36
302.881	10.86
303.094	11.81
303.307	11.67
303.519	12.09
303.732	12.79
303.944	14.63
304.157	15.92
304.37	16.29
304.582	16.07
304.795	15.5
305.007	15.91
305.22	15.57
305.432	15.51
305.645	16.98
305.857	15.47
306.069	15.23
306.282	13.89
306.494	13.41
306.707	13.26
306.919	13.31
307.132	14.7
307.344	14.21
307.556	13.33
307.769	11.91
307.981	12.01
308.193	11.48
308.406	11.22
308.618	11.38
308.83	10.96
309.043	11.64
309.255	12.19
309.467	11.51
309.679	9.88
309.892	10.02
310.104	11.52
310.316	12.42
310.528	13.7
310.74	13.02
310.953	12.6
311.165	12.89
311.377	12.78
311.589	13.36
311.801	11.72
312.013	13.47
312.225	13.24
312.437	11.15
312.649	9.22
312.862	9.85
313.074	9.28
313.286	10.5
313.498	9.19
313.71	7.69
313.922	6.19
314.134	8.24
314.346	8.07
314.558	9.25
314.77	11.25
314.982	12.81
315.193	11.49
315.405	13.12
315.617	11.81
315.829	14.02
316.041	14.48
316.253	14.24
316.465	14.24
316.677	13.94
316.888	15.59
317.1	14.39
317.312	14.68
317.524	15.37
317.736	15.95
317.947	14.8
318.159	13.28
318.371	13.28
318.583	13.45
318.794	13.36
319.006	15.06
319.218	14.26
319.43	14.69
319.641	14.02
319.853	13.99
320.064	13.87
320.276	15.44
320.488	15.56
320.699	16.32
320.911	16.83
321.123	17.99
321.334	16.83
321.546	14.98
321.757	16.94
321.969	15.97
322.18	15.22
322.392	14.09
322.603	14
322.815	13.86
323.026	12.65
323.238	10.82
323.449	7.74
323.661	6.23
323.872	6.19
324.083	4.6
324.295	4.74
324.506	4.99
324.718	4.86
324.929	5.05
325.14	7.1
325.352	7.48
325.563	9.39
325.774	11.64
325.986	12.82
326.197	13.46
326.408	13.15
326.62	13.69
326.831	13.58
327.042	14.23
327.253	14.74
327.464	12.75
327.676	13.12
327.887	12.85
328.098	13.49
328.309	14.09
328.52	14.06
328.732	14.65
328.943	14.41
329.154	13.71
329.365	13.13
329.576	12.87
329.787	12.77
329.998	13.23
330.209	13.91
330.42	13.99
330.631	13.73
330.842	14.78
331.053	15.03
331.264	16.66
331.475	18.14
331.686	19.23
331.897	16.93
332.108	17.51
332.319	17.24
332.53	15.63
332.741	14.64
332.952	14.54
333.163	15.22
333.374	16.02
333.585	15.06
333.795	13.84
334.006	12.9
334.217	15.92
334.428	14.95
334.639	14.68
334.849	17.31
335.06	19.06
335.271	18.7
335.482	17.67
335.692	17.55
335.903	16.46
336.114	18.68
336.325	19.9
336.535	17.96
336.746	19.33
336.957	19.42
337.167	18.22
337.378	18.5
337.589	19.97
337.799	18.48
338.01	17.38
338.22	18.59
338.431	17.76
338.642	17.56
338.852	18.98
339.063	17.55
339.273	17.87
339.484	17.83
339.694	15.63
339.905	15.06
340.115	17.05
340.326	16.48
340.536	15.81
340.746	14.86
340.957	14.93
341.167	13.52
341.378	14.12
341.588	13.8
341.799	13.8
342.009	14.56
342.219	14.57
342.43	14.23
342.64	14.45
342.85	14.97
343.061	15.73
343.271	14.55
343.481	14.83
343.691	14.17
343.902	13.52
344.112	14.67
344.322	13.87
344.532	13.43
344.743	13.81
344.953	14.08
345.163	12.75
345.373	13.69
345.583	14.44
345.793	16.61
346.004	17.95
346.214	18.64
346.424	17.66
346.634	18.26
346.844	19.97
347.054	20.18
347.264	20.46
347.474	20.89
347.684	19.5
347.894	19.51
348.104	16.32
348.314	14.92
348.524	14.21
348.734	14.69
348.944	14.81
349.154	13.49
349.364	12.88
349.574	12.9
349.784	12.93
349.994	12.62
350.204	11.9
350.413	12.27
350.623	13.22
350.833	14.78
351.043	14.79
351.253	15.06
351.463	13.84
351.672	13.73
351.882	11.47
352.092	12.26
352.302	13.12
352.511	13.25
352.721	13.62
352.931	13.1
353.141	12.43
353.35	11.96
353.56	11.69
353.77	10.9
353.979	10.99
354.189	12.36
354.399	11.87
354.608	12.35
354.818	12.98
355.027	13.89
355.237	13.31
355.447	13.87
355.656	13.3
355.866	12.7
356.075	13.81
356.285	13.88
356.494	14.24
356.704	15.44
356.913	15.18
357.123	14.36
357.332	14.01
357.542	14.42
357.751	14.42
357.96	14.77
358.17	14.53
358.379	14.13
358.589	14.24
358.798	14.15
359.007	13.24
359.217	13.13
359.426	12.97
359.635	13.02
359.845	13.18
360.054	11.84
360.263	11.87
360.472	12.92
360.682	13.23
360.891	12.92
361.1	13.49
361.309	13.96
361.519	13.86
361.728	14.25
361.937	14.33
362.146	14.35
362.355	14.76
362.564	14.62
362.774	14.05
362.983	14.17
363.192	14.25
363.401	14.28
363.61	13.57
363.819	12.94
364.028	13.31
364.237	13.65
364.446	13.56
364.655	12.85
364.864	13.61
365.073	13.14
365.282	13.09
365.491	13.63
365.7	13.98
365.909	12.75
366.118	13.39
366.327	13.42
366.536	11.66
366.745	11.92
366.954	12.99
367.162	12.35
367.371	12.84
367.58	13.36
367.789	13.12
367.998	12.47
368.207	14.08
368.415	13.93
368.624	13
368.833	14.12
369.042	13.86
369.25	13.43
369.459	13.6
369.668	13.1
369.877	13.22
370.085	13.32
370.294	12.11
370.503	12.67
370.711	12.21
370.92	12.07
371.129	12.42
371.337	11.57
371.546	12.18
371.754	11.3
371.963	11.48
372.171	9.68
372.38	9.53
372.589	10.41
372.797	9.86
373.006	10.34
373.214	9.42
373.423	8.82
373.631	10.61
373.84	8.91
374.048	9.14
374.256	9.55
374.465	10.88
374.673	11.4
374.882	10.59
375.09	9.63
375.298	10.02
375.507	10.08
375.715	9.63
375.923	8.72
376.132	9.38
376.34	8.79
376.548	9.1
376.757	9.03
376.965	7.94
377.173	8.5
377.381	8.9
377.59	7.7
377.798	8.86
378.006	7.94
378.214	7.71
378.423	7.89
378.631	9.37
378.839	9.14
379.047	9.57
379.255	10.32
379.463	10.54
379.671	10.56
379.879	10.92
380.088	11.23
380.296	12.95
380.504	12.21
380.712	12.56
380.92	10.84
381.128	11
381.336	10.59
381.544	9.56
381.752	8.98
381.96	9.27
382.168	8.98
382.376	9.12
382.584	8.61
382.791	9.59
382.999	9.14
383.207	10.15
383.415	9.4
383.623	8.67
383.831	9.35
384.039	9.1
384.247	8.74
384.454	9.22
384.662	8.77
384.87	8.82
385.078	7.59
385.285	7.99
385.493	8.68
385.701	8.86
385.909	9.01
386.116	9.1
386.324	9.43
386.532	8.59
386.739	8.24
386.947	8.17
387.155	8.07
387.362	9.08
387.57	8.58
387.778	7.45
387.985	6.06
388.193	5.95
388.4	5.45
388.608	6.23
388.816	7.16
389.023	7.5
389.231	8.15
389.438	8.47
389.646	8.64
389.853	8.71
390.061	8.87
390.268	9.7
390.475	9.37
390.683	9.32
390.89	8.38
391.098	7.8
391.305	7.48
391.512	6.75
391.72	5.98
391.927	6.4
392.135	6.4
392.342	6.39
392.549	6.17
392.756	6.46
392.964	5.5
393.171	6.99
393.378	6.46
393.586	6.69
393.793	6.97
394	7.17
394.207	6.35
394.414	6.72
394.622	6.43
394.829	7.29
395.036	7.54
395.243	8.08
395.45	7.04
395.657	7.55
395.864	7.82
396.072	8
396.279	8.26
396.486	8.44
396.693	7.64
396.9	7.9
397.107	7.96
397.314	7.63
397.521	7.9
397.728	7.35
397.935	7.46
398.142	7.53
398.349	7.11
398.556	7.54
398.763	7.67
398.97	8.11
399.177	8.55
399.383	8.47
399.59	8.49
399.797	8.97
400.004	9.59
400.211	9.37
400.418	9
400.625	9.27
400.831	8.91
401.038	7.9
401.245	7.64
401.452	7.05
401.658	6.91
401.865	7.21
402.072	6.46
402.279	6.38
402.485	7.43
402.692	7.98
402.899	6.87
403.105	6.8
403.312	7.64
403.519	7.99
403.725	7.56
403.932	7.33
404.138	7.85
404.345	8.05
404.552	7.76
404.758	7.84
404.965	7.09
405.171	7.84
405.378	7.65
405.584	7.91
405.791	7.81
405.997	8.27
406.204	8.5
406.41	7.96
406.617	8.1
406.823	7.37
407.029	6.24
407.236	6.77
407.442	6.97
407.649	7.48
407.855	7.35
408.061	8.03
408.268	7.82
408.474	7.93
408.68	7.52
408.887	7.88
409.093	8.73
409.299	9.43
409.505	9.41
409.712	9.37
409.918	9.06
410.124	8.15
410.33	7.52
410.537	7.96
410.743	7.05
410.949	7.7
411.155	6.64
411.361	6.31
411.567	5.74
411.773	5.84
411.98	5.49
412.186	6.37
412.392	7.29
412.598	7.23
412.804	6.31
413.01	6.93
413.216	6.45
413.422	6.97
413.628	7.41
413.834	7.33
414.04	6.43
414.246	6.2
414.452	5.45
414.658	4.61
414.864	4.82
415.07	5.3
415.275	5.12
415.481	5.04
415.687	5.11
415.893	4.41
416.099	5.02
416.305	5.42
416.511	5.53
416.716	5.43
416.922	5.64
417.128	5.71
417.334	5.6
417.539	5.44
417.745	5.79
417.951	5.54
418.157	6.11
418.362	6.03
418.568	5.97
418.774	5.92
418.979	6.01
419.185	6.06
419.391	5.87
419.596	6.02
419.802	6.54
420.008	5.92
420.213	3.39
420.419	3.27
420.624	3.17
420.83	3.11
421.035	3.31
421.241	3.23
421.446	3.19
421.652	3.42
421.857	3.54
422.063	3.01
422.268	3.51
422.474	6.08
422.679	6.04
422.885	5.82
423.09	5.72
423.295	5.53
423.501	5.47
423.706	5.42
423.911	5.19
424.117	5.09
424.322	5.36
424.527	5.25
424.733	5.64
424.938	5.41
425.143	5.48
425.349	5.21
425.554	5.16
425.759	5.35
425.964	5.53
426.169	5.5
426.375	5.66
426.58	5.55
426.785	5.18
426.99	4.7
427.195	5.05
427.4	5.02
427.605	5.76
427.811	5.8
428.016	5.63
428.221	5.73
428.426	5.91
428.631	5.47
428.836	5.58
429.041	5.74
429.246	5.86
429.451	5.86
429.656	6.22
429.861	6.28
430.066	6.36
430.271	6.7
430.476	6.61
430.681	5.74
430.886	6.03
431.09	5.63
431.295	5.52
431.5	5.51
431.705	5.54
431.91	5.47
432.115	4.87
432.32	4.82
432.524	4.59
432.729	4.33
432.934	5.11
433.139	4.73
433.343	4.86
433.548	5.06
433.753	4.89
433.958	4.61
434.162	4.82
434.367	5.47
434.572	5.47
434.776	5.47
434.981	5.76
435.186	5.35
435.39	5.49
435.595	5.53
435.799	5.61
436.004	5.52
436.209	6.13
436.413	5.72
436.618	5.43
436.822	6.08
437.027	6.34
437.231	6.07
437.436	6.14
437.64	6.25
437.845	6.16
438.049	5.91
438.253	6.09
438.458	5.48
438.662	5.63
438.867	5.7
439.071	5.29
439.275	4.82
439.48	5.2
439.684	5.41
439.888	5.58
440.093	5.46
440.297	5.84
440.501	6.02
440.706	6.2
440.91	6.2
441.114	6.04
441.318	6.07
441.523	6.41
441.727	6.2
441.931	6.4
442.135	6.18
442.339	6.16
442.543	5.97
442.748	5.62
442.952	5.59
443.156	5.37
443.36	5.6
443.564	5.41
443.768	5.37
443.972	6.07
444.176	5.76
444.38	5.84
444.584	5.85
444.788	5.81
444.992	5.82
445.196	5.76
445.4	5.65
445.604	5.37
445.808	5.29
446.012	5.19
446.216	4.64
446.42	4.48
446.624	4.61
446.828	4.88
447.032	4.91
447.235	4.98
447.439	4.87
447.643	5.14
447.847	5.36
448.051	5.39
448.254	5.29
448.458	5.22
448.662	5.29
448.866	5.21
449.069	5.19
449.273	4.98
449.477	5.19
449.681	5.3
449.884	5.23
450.088	4.98
450.292	5.32
450.495	5.45
450.699	5.63
450.902	5.85
451.106	5.34
451.31	5.07
451.513	5.41
451.717	5.22
451.92	5.42
452.124	5.38
452.327	5.38
452.531	5.31
452.734	5.2
452.938	4.89
453.141	4.67
453.345	4.68
453.548	4.76
453.752	4.38
453.955	4.3
454.158	4.16
454.362	4.18
454.565	4.23
454.769	3.95
454.972	4.42
455.175	5.06
455.379	5.63
455.582	5.91
455.785	5.89
455.988	6.06
456.192	6.04
456.395	5.79
456.598	5.84
456.801	6.08
457.005	5.94
457.208	5.37
457.411	4.93
457.614	4.18
457.817	4.03
458.021	3.92
458.224	3.64
458.427	4.04
458.63	4.13
458.833	4.25
459.036	3.87
459.239	3.84
459.442	3.86
459.645	3.82
459.848	4.07
460.051	4.27
460.254	4.55
460.457	4.69
460.66	4.46
460.863	4.64
461.066	4.58
461.269	4.86
461.472	5.25
461.675	5.53
461.878	5.64
462.081	5.79
462.284	5.52
462.486	5.14
462.689	5.12
462.892	5.09
463.095	4.99
463.298	4.6
463.5	4.71
463.703	4.56
463.906	4.53
464.109	4.85
464.311	4.98
464.514	5.24
464.717	5.28
464.92	5.7
465.122	5.62
465.325	5.66
465.528	5.91
465.73	6.02
465.933	5.95
466.135	5.95
466.338	5.72
466.541	5.57
466.743	5.38
466.946	5.27
467.148	5.22
467.351	5.47
467.553	5.38
467.756	5.54
467.958	5.34
468.161	5.65
468.363	5.51
468.566	5.64
468.768	5.45
468.971	5.55
469.173	6.28
469.375	6.57
469.578	6.39
469.78	6.23
469.983	5.92
470.185	5.7
470.387	5.73
470.59	5.53
470.792	5.09
470.994	5.19
471.196	5
471.399	4.29
471.601	4.35
471.803	4.54
472.005	4.91
472.208	5.15
472.41	5.17
472.612	5.2
472.814	5.85
473.016	5.9
473.218	6.12
473.421	6.11
473.623	6.54
473.825	5.74
474.027	5.69
474.229	6.04
474.431	5.74
474.633	5.8
474.835	5.3
475.037	4.97
475.239	4.96
475.441	5.01
475.643	5.41
475.845	5.23
476.047	5.53
476.249	5.23
476.451	4.66
476.653	4.81
476.855	4.89
477.057	5.47
477.258	5.18
477.46	5.45
477.662	5.52
477.864	5.38
478.066	5.47
478.268	5.56
478.469	5.66
478.671	5.67
478.873	5.54
479.075	5.8
479.276	5.49
479.478	5.7
479.68	5.77
479.882	5.41
480.083	5.5
480.285	5.35
480.487	5.3
480.688	5.34
480.89	5.37
481.091	5.38
481.293	5.14
481.495	4.95
481.696	4.81
481.898	4.72
482.099	4.71
482.301	4.49
482.502	4.42
482.704	4.27
482.905	4.18
483.107	4.23
483.308	4.21
483.51	4.13
483.711	4.17
483.913	4.22
484.114	4.09
484.315	4.12
484.517	4.25
484.718	4.26
484.92	4.42
485.121	4.49
485.322	4.37
485.524	4.35
485.725	4.51
485.926	4.47
486.127	4.37
486.329	4.37
486.53	4.26
486.731	4.27
486.932	4.22
487.134	4.22
487.335	4.04
487.536	4.03
487.737	4.03
487.938	3.92
488.139	4.07
488.341	4.03
488.542	4.14
488.743	4.38
488.944	4.31
489.145	4.31
489.346	4.29
489.547	4.46
489.748	4.48
489.949	4.39
490.15	4.47
490.351	4.3
490.552	4.46
490.753	4.25
490.954	4.03
491.155	4.04
491.356	4.16
491.557	4.1
491.758	4.25
491.959	4.33
492.159	4.32
492.36	4.31
492.561	4.2
492.762	4.07
492.963	4.29
493.164	4.4
493.364	4.45
493.565	4.51
493.766	4.58
493.967	4.44
494.167	4.45
494.368	4.27
494.569	4.09
494.769	4.23
494.97	4
495.171	4.22
495.371	4.08
495.572	4.21
495.773	4.08
495.973	4.04
496.174	4.1
496.375	4.26
496.575	4.35
496.776	4.61
496.976	4.64
497.177	4.93
497.377	4.97
497.578	4.98
497.778	4.67
497.979	4.7
498.179	4.68
498.38	4.79
498.58	4.68
498.78	5.26
498.981	5.37
499.181	5.35
499.382	5.37
499.582	5.13
499.782	5.47
499.983	5.92
500.183	6.11
500.383	6.3
500.584	6.21
500.784	6.1
500.984	5.96
501.184	5.73
501.385	5.77
501.585	5.86
501.785	5.94
501.985	5.66
502.185	5.31
502.386	5.31
502.586	5.22
502.786	5.25
502.986	4.9
503.186	4.83
503.386	5.2
503.586	5.38
503.786	5.49
503.987	5.54
504.187	5.65
504.387	5.99
504.587	5.97
504.787	6.14
504.987	6.19
505.187	6.37
505.387	6.17
505.587	5.98
505.786	6
505.986	6.27
506.186	6.14
506.386	6.37
506.586	6.43
506.786	6.37
506.986	6.25
507.186	6.37
507.386	6.56
507.585	6.83
507.785	6.87
507.985	6.59
508.185	6.45
508.384	7
508.584	7.04
508.784	6.98
508.984	7.38
509.183	7.56
509.383	7.41
509.583	7.71
509.782	7.26
509.982	7.33
510.182	7.77
510.381	7.57
510.581	7.12
510.781	7.07
510.98	6.95
511.18	6.45
511.379	6.32
511.579	6.21
511.778	6.21
511.978	6.76
512.177	6.63
512.377	6.45
512.576	6.32
512.776	6.35
512.975	6.16
513.175	6.32
513.374	6.85
513.573	6.98
513.773	7.29
513.972	7.31
514.172	7.1
514.371	7.31
514.57	7.47
514.77	7.71
514.969	7.59
515.168	7.98
515.367	8.16
515.567	7.8
515.766	7.89
515.965	7.65
516.164	7.36
516.364	7.55
516.563	7.53
516.762	7.74
516.961	7.84
517.16	8.08
517.359	7.82
517.559	7.57
517.758	7.74
517.957	7.8
518.156	8.1
518.355	8.2
518.554	8.04
518.753	8.02
518.952	7.86
519.151	7.78
519.35	8.07
519.549	8.49
519.748	8.86
519.947	8.9
520.146	8.75
520.345	8.83
520.544	8.82
520.743	8.99
520.942	8.97
521.141	9.03
521.339	9.29
521.538	9.08
521.737	8.83
521.936	8.49
522.135	8.5
522.333	8.91
522.532	9.11
522.731	9.08
522.93	9.26
523.129	9.34
523.327	9.49
523.526	9.45
523.725	9.66
523.923	9.81
524.122	9.92
524.321	9.9
524.519	9.62
524.718	9.23
524.917	9.31
525.115	9.39
525.314	9.51
525.512	9.61
525.711	9.69
525.909	9.43
526.108	9.47
526.306	9.48
526.505	9.6
526.703	9.6
526.902	9.74
527.1	9.86
527.299	9.81
527.497	9.81
527.696	9.72
527.894	9.68
528.092	9.72
528.291	9.72
528.489	9.8
528.688	9.88
528.886	10.03
529.084	9.99
529.283	10.06
529.481	10.13
529.679	10.26
529.877	10.4
530.076	10.51
530.274	10.82
530.472	10.83
530.67	11.05
530.869	10.98
531.067	11.09
531.265	11.29
531.463	11.34
531.661	11.52
531.859	11.63
532.057	11.5
532.255	11.5
532.454	11.23
532.652	11.19
532.85	11
533.048	10.98
533.246	11.13
533.444	11.12
533.642	11.13
533.84	11.17
534.038	11.09
534.236	11.16
534.434	11.38
534.632	11.69
534.83	11.79
535.027	12.02
535.225	12.17
535.423	12.09
535.621	12.1
535.819	12.12
536.017	12.16
536.215	12.17
536.412	12.28
536.61	12.26
536.808	12.33
537.006	12.52
537.203	12.68
537.401	12.78
537.599	12.86
537.797	13.06
537.994	13.13
538.192	13.14
538.39	13.19
538.587	13.39
538.785	13.13
538.983	13.2
539.18	13.48
539.378	13.48
539.575	13.44
539.773	13.31
539.97	13.35
540.168	13.55
540.366	13.52
540.563	13.45
540.761	13.34
540.958	13.45
541.155	13.37
541.353	13.16
541.55	13.07
541.748	13.16
541.945	13.34
542.143	13.32
542.34	13.29
542.537	13.34
542.735	13.34
542.932	13.46
543.129	13.63
543.327	13.75
543.524	13.6
543.721	13.9
543.919	14.1
544.116	13.92
544.313	14.01
544.51	13.84
544.708	13.9
544.905	13.92
545.102	13.9
545.299	13.95
545.496	14.26
545.693	14.72
545.891	14.6
546.088	14.28
546.285	14.44
546.482	14.66
546.679	14.85
546.876	14.87
547.073	15.23
547.27	15.51
547.467	15.71
547.664	15.56
547.861	15.84
548.058	16.12
548.255	16.62
548.452	16.83
548.649	16.99
548.846	17.49
549.043	17.63
549.24	17.73
549.437	17.39
549.633	17.55
549.83	17.51
550.027	17.19
550.224	16.79
550.421	16.56
550.618	16.62
550.814	16.48
551.011	15.97
551.208	15.61
551.405	15.48
551.601	15.75
551.798	15.28
551.995	15.5
552.191	15.57
552.388	15.92
552.585	16.18
552.781	16.17
552.978	16.12
553.175	16.14
553.371	16.54
553.568	16.93
553.764	17.34
553.961	17.69
554.157	17.62
554.354	17.8
554.55	17.88
554.747	17.87
554.943	18.29
555.14	18.83
555.336	19.2
555.533	19.21
555.729	19.2
555.926	18.76
556.122	18.61
556.318	19.29
556.515	19.32
556.711	19.66
556.907	20.02
557.104	20.05
557.3	19.86
557.496	19.58
557.693	19.98
557.889	20.03
558.085	19.95
558.281	20.27
558.478	19.84
558.674	20
558.87	19.61
559.066	19.27
559.262	19.12
559.459	18.79
559.655	19.18
559.851	18.87
560.047	18.64
560.243	18.76
560.439	18.53
560.635	18.87
560.831	18.76
561.027	18.79
561.223	19.29
561.419	19.33
561.615	19.6
561.811	19.07
562.007	19.49
562.203	19.89
562.399	20.49
562.595	20.85
562.791	20.65
562.987	21.15
563.183	20.91
563.379	20.39
563.575	20.56
563.771	20.48
563.966	21.15
564.162	21.07
564.358	21.3
564.554	20.74
564.75	20.79
564.945	20.99
565.141	20.8
565.337	21.23
565.533	21.45
565.728	21.07
565.924	21.1
566.12	20.92
566.315	20.72
566.511	20.27
566.707	20.92
566.902	21.22
567.098	21.3
567.293	21.04
567.489	21.34
567.684	21.57
567.88	22.03
568.076	22.13
568.271	22.45
568.467	22.88
568.662	22.93
568.858	22.99
569.053	22.25
569.248	22.03
569.444	22.16
569.639	21.9
569.835	22.03
570.03	21.79
570.225	21.97
570.421	22.07
570.616	22.33
570.812	22.67
571.007	22.44
571.202	22.88
571.397	23.08
571.593	23.32
571.788	23.24
571.983	23
572.178	23.45
572.374	23.16
572.569	22.77
572.764	22.54
572.959	22.39
573.154	22.5
573.35	23.05
573.545	22.87
573.74	22.88
573.935	23.19
574.13	23.35
574.325	22.71
574.52	23.17
574.715	23.83
574.91	23.93
575.105	24.32
575.3	24.79
575.495	24.28
575.69	24.66
575.885	24.71
576.08	24.61
576.275	25.04
576.47	26.08
576.665	26.32
576.86	25.94
577.055	25.99
577.25	25.28
577.444	24.96
577.639	25.48
577.834	25.73
578.029	26.04
578.224	25.87
578.418	25.6
578.613	24.98
578.808	24.78
579.003	24.72
579.197	24.7
579.392	25.39
579.587	25.63
579.781	25.21
579.976	25.06
580.171	25.15
580.365	25.46
580.56	25.44
580.755	25.68
580.949	25.77
581.144	26.14
581.338	26.46
581.533	26.36
581.727	26.75
581.922	27.2
582.116	26.65
582.311	26.53
582.505	26.64
582.7	26.28
582.894	26.63
583.089	26.66
583.283	26.58
583.478	26.82
583.672	27.21
583.866	26.87
584.061	26.67
584.255	27.18
584.449	27.27
584.644	27.55
584.838	28.04
585.032	27.76
585.226	27.8
585.421	27.92
585.615	27.6
585.809	27.37
586.003	27.3
586.198	27.9
586.392	27.67
586.586	27.74
586.78	27.62
586.974	27.34
587.168	27.55
587.363	27.55
587.557	27.37
587.751	27.44
587.945	27.96
588.139	27.94
588.333	27.5
588.527	27.98
588.721	27.81
588.915	27.63
589.109	27.55
589.303	27.73
589.497	27.74
589.691	27.72
589.885	27.64
590.079	27.55
590.273	27.75
590.466	28.08
590.66	27.47
590.854	27.45
591.048	27.4
591.242	28.06
591.436	27.78
591.629	27.83
591.823	27.84
592.017	27.73
592.211	27.96
592.404	27.84
592.598	27.44
592.792	28.06
592.986	28.07
593.179	28.41
593.373	28.18
593.567	28.33
593.76	28.47
593.954	28.89
594.147	28.9
594.341	28.22
594.535	28.2
594.728	28.19
594.922	28.44
595.115	28.44
595.309	28.65
595.502	28.66
595.696	28.72
595.889	28.4
596.083	28.35
596.276	28.57
596.47	28.85
596.663	29.15
596.856	29.44
597.05	29.18
597.243	29.44
597.437	29.26
597.63	29.34
597.823	29.28
598.017	29.29
598.21	29.01
598.403	29.24
598.596	29.53
598.79	29.75
598.983	29.86
599.176	29.53
599.369	29.61
599.563	29.75
599.756	29.9
599.949	30.07
600.142	30.34
600.335	30.63
600.528	30.06
600.722	29.98
600.915	29.84
601.108	30.05
601.301	30.25
601.494	29.87
601.687	29.64
601.88	29.61
602.073	29.24
602.266	29.63
602.459	29.82
602.652	29.85
602.845	29.38
603.038	29.28
603.231	28.93
603.424	29.14
603.617	29.19
603.809	29.42
604.002	29.41
604.195	29.56
604.388	29.14
604.581	29
604.774	29.54
604.966	29.84
605.159	29.59
605.352	29.44
605.545	29.46
605.737	29.02
605.93	29.52
606.123	29.27
606.316	29.46
606.508	30.05
606.701	29.66
606.894	28.96
607.086	28.92
607.279	29.22
607.471	29.39
607.664	29.17
607.857	30.08
608.049	29.17
608.242	29.48
608.434	29.2
608.627	29.21
608.819	29.24
609.012	29.42
609.204	29.21
609.397	29.51
609.589	29.61
609.782	29.86
609.974	29.61
610.166	29.8
610.359	29.71
610.551	30.12
610.743	30.28
610.936	30.4
611.128	31.03
611.32	31.29
611.513	31.21
611.705	31.28
611.897	32.23
612.09	31.63
612.282	32.71
612.474	33.05
612.666	33.1
612.858	32.23
613.051	33.05
613.243	32.85
613.435	33.43
613.627	32.86
613.819	32.79
614.011	31.62
614.203	32.48
614.395	32.5
614.588	32.63
614.78	33.17
614.972	34.6
615.164	34.48
615.356	34.45
615.548	33.99
615.74	34.24
615.932	34.29
616.124	35.09
616.315	34.96
616.507	34.5
616.699	34.78
616.891	34.39
617.083	34.43
617.275	34.39
617.467	33.99
617.659	34.1
617.85	34.46
618.042	35.49
618.234	34.35
618.426	34.39
618.618	33.77
618.809	33.36
619.001	33.25
619.193	33.04
619.384	33.42
619.576	33.81
619.768	33.65
619.959	33.18
620.151	32.12
620.343	32.46
620.534	32.68
620.726	32.94
620.917	32.69
621.109	32.88
621.301	32.09
621.492	31.65
621.684	31.34
621.875	31.64
622.067	31.46
622.258	31.73
622.45	32.41
622.641	32.33
622.832	33.6
623.024	33.84
623.215	33.7
623.407	33.64
623.598	33.71
623.789	34.07
623.981	34.28
624.172	35.26
624.363	35.49
624.555	34.71
624.746	34.29
624.937	33.71
625.129	33.47
625.32	33.09
625.511	33.46
625.702	33.47
625.893	33.62
626.085	33.04
626.276	32.45
626.467	32.15
626.658	32.34
626.849	32.77
627.04	33.35
627.231	33.73
627.422	34.17
627.614	34.22
627.805	33.96
627.996	33.59
628.187	34.57
628.378	34.75
628.569	34.37
628.76	34.53
628.951	34.36
629.142	33.39
629.332	33.11
629.523	33.57
629.714	33.53
629.905	33.94
630.096	34.43
630.287	34.12
630.478	34.39
630.669	34.91
630.859	34.76
631.05	34.87
631.241	33.99
631.432	33.93
631.623	34.08
631.813	34.29
632.004	34.05
632.195	33.6
632.385	33.32
632.576	32.56
632.767	32.36
632.957	32.98
633.148	32.85
633.339	33.3
633.529	33.95
633.72	33.37
633.91	32.88
634.101	32.96
634.292	33.29
634.482	33.24
634.673	34.48
634.863	34.7
635.054	34.21
635.244	35.27
635.435	35.64
635.625	35.33
635.815	35.6
636.006	36.16
636.196	37.12
636.387	37.25
636.577	38.02
636.767	38.17
636.958	37.95
637.148	38.23
637.338	37.71
637.529	37.72
637.719	37.15
637.909	37.75
638.099	38.48
638.29	37.74
638.48	37.55
638.67	36.84
638.86	35.5
639.05	35.66
639.241	35.79
639.431	35.35
639.621	36.09
639.811	36.88
640.001	36.39
640.191	35.18
640.381	35.29
640.571	35.24
640.761	35.46
640.951	36.68
641.141	37.1
641.331	37.06
641.521	37.51
641.711	37.17
641.901	36.19
642.091	35.87
642.281	36.02
642.471	36.23
642.661	36.95
642.851	36.66
643.041	36.05
643.231	35.8
643.42	35.44
643.61	34.88
643.8	34.9
643.99	35.8
644.18	35.89
644.369	36.37
644.559	35.29
644.749	34.49
644.939	34.89
645.128	35.17
645.318	35.51
645.508	35.66
645.697	35.77
645.887	35.26
646.076	35.4
646.266	35.33
646.456	34.18
646.645	35.23
646.835	35.53
647.024	35.02
647.214	34.56
647.403	34.03
647.593	34.29
647.782	35.06
647.972	35.25
648.161	35.29
648.351	35.43
648.54	36.18
648.73	36.33
648.919	36.45
649.108	36.35
649.298	36.73
649.487	37.38
649.677	38.37
649.866	38.62
650.055	38.49
650.244	38.27
650.434	38.23
650.623	38.84
650.812	38.29
651.002	38.86
651.191	39.57
651.38	39.27
651.569	39.19
651.758	38.18
651.947	37.7
652.137	37.67
652.326	37.7
652.515	37.5
652.704	36.47
652.893	36.45
653.082	36.04
653.271	35.92
653.46	35.75
653.649	35.37
653.838	35
654.027	35.57
654.216	35.28
654.405	35.79
654.594	36.71
654.783	37.22
654.972	37.63
655.161	36.52
655.35	36.83
655.539	37.22
655.728	37.06
655.916	36.95
656.105	36.34
656.294	36.91
656.483	36.41
656.672	35.36
656.86	35.27
657.049	34.7
657.238	35.26
657.427	35.33
657.615	34.81
657.804	35.24
657.993	35.47
658.181	35.6
658.37	35.34
658.559	35.31
658.747	35.68
658.936	35.96
659.125	34.99
659.313	34.44
659.502	34.66
659.69	34.81
659.879	34.95
660.067	34.69
660.256	34.95
660.444	35.66
660.633	35.26
660.821	35.61
661.01	35.54
661.198	36.03
661.387	36.99
661.575	37.24
661.763	38.02
661.952	38.51
662.14	39.06
662.328	38.34
662.517	38.68
662.705	39.01
662.893	38.78
663.082	38.25
663.27	39.47
663.458	39.13
663.646	37.88
663.834	36.69
664.023	36.03
664.211	35.68
664.399	36.45
664.587	35.76
664.775	35.79
664.963	35.99
665.152	36.62
665.34	36.25
665.528	36.26
665.716	37.51
665.904	39.77
666.092	39.48
666.28	39.98
666.468	39.35
666.656	39.61
666.844	40.38
667.032	40.04
667.22	40.77
667.408	40.62
667.596	41.44
667.784	42
667.971	40.78
668.159	40.99
668.347	40.85
668.535	41.04
668.723	40.83
668.911	39.93
669.098	39.27
669.286	39.01
669.474	40.37
669.662	39.72
669.849	37.9
670.037	38.45
670.225	38.05
670.413	38.25
670.6	37.76
670.788	37.7
670.976	38.75
671.163	39.4
671.351	38.75
671.538	38.12
671.726	39.47
671.913	41.15
672.101	41.2
672.289	41.16
672.476	41.33
672.664	42.06
672.851	41.74
673.039	41.98
673.226	42.06
673.413	41.95
673.601	42.02
673.788	40.67
673.976	39.67
674.163	38.87
674.35	39.74
674.538	39.74
674.725	39.67
674.912	39.73
675.1	39.09
675.287	39.22
675.474	39.48
675.662	38.95
675.849	39.33
676.036	39.9
676.223	40.04
676.411	40.27
676.598	40.06
676.785	40.69
676.972	41.63
677.159	42.19
677.346	41.55
677.533	42.6
677.721	43.31
677.908	43.16
678.095	42.56
678.282	42.3
678.469	41.39
678.656	41.86
678.843	40.58
679.03	39.97
679.217	38.82
679.404	38.69
679.591	38.35
679.778	38.76
679.964	38.79
680.151	38.94
680.338	38.89
680.525	39.37
680.712	38.34
680.899	39.24
681.086	39.65
681.272	40.66
681.459	41.36
681.646	40.7
681.833	39.9
682.02	39.83
682.206	39.12
682.393	39.33
682.58	39.49
682.766	42.3
682.953	42.43
683.14	42.84
683.326	42.77
683.513	44.56
683.7	45.95
683.886	45.91
684.073	46.18
684.259	46.89
684.446	47.93
684.632	47.8
684.819	44.83
685.005	45.8
685.192	45.35
685.378	45.42
685.565	44.14
685.751	43.03
685.938	43.08
686.124	42.35
686.31	42.18
686.497	41.95
686.683	42.08
686.87	43.72
687.056	43.01
687.242	41.52
687.429	41.68
687.615	40.91
687.801	41.02
687.987	40.84
688.174	41.29
688.36	41.46
688.546	41.1
688.732	40.55
688.918	38.42
689.105	38.91
689.291	40.73
689.477	40.82
689.663	41.59
689.849	42.36
690.035	43.01
690.221	42.76
690.407	43.45
690.593	43.87
690.779	44.2
690.965	46.21
691.151	45
691.337	45.42
691.523	45.78
691.709	45.79
691.895	45.66
692.081	45.33
692.267	45.78
692.453	44.26
692.639	43.87
692.825	43.6
693.011	41.65
693.196	42.55
693.382	41.51
693.568	41.36
693.754	42
693.94	41.42
694.125	41.64
694.311	40.99
694.497	42.05
694.682	42.84
694.868	43.96
695.054	45.21
695.239	45.31
695.425	45.74
695.611	45.16
695.796	43.45
695.982	43.02
696.168	42.83
696.353	43.48
696.539	43.45
696.724	43.07
696.91	42.4
697.095	41.76
697.281	40.63
697.466	40.09
697.652	39.66
697.837	39.44
698.023	39.69
698.208	39.41
698.393	39.75
698.579	39.58
698.764	38.94
698.949	38.04
699.135	38.5
699.32	39.12
699.505	40.28
699.691	40.69
699.876	41.47
700.061	41.25
700.246	42.39
700.432	42.67
700.617	42.6
700.802	42.98
700.987	45.24
701.172	46.24
701.358	46.56
701.543	46.33
701.728	47.1
701.913	46.97
702.098	48.56
702.283	48.09
702.468	47.49
702.653	48.18
702.838	48.54
703.023	47.86
703.208	46.84
703.393	48.02
703.578	47.99
703.763	47.52
703.948	48.27
704.133	47.65
704.318	47.77
704.503	48
704.688	47.24
704.873	46.5
705.057	47.41
705.242	48.9
705.427	48.54
705.612	46.16
705.797	46.28
705.981	46.58
706.166	47.76
706.351	47.39
706.536	47.45
706.72	49.62
706.905	49.52
707.09	49.03
707.274	48.2
707.459	46.93
707.644	48.41
707.828	47.86
708.013	47.18
708.197	45.9
708.382	45.69
708.567	45.06
708.751	44.67
708.936	45.69
709.12	46.2
709.305	45.74
709.489	44.58
709.673	44.26
709.858	44.66
710.042	43.81
710.227	43.86
710.411	43.92
710.596	43.82
710.78	42.73
710.964	42.04
711.149	40.93
711.333	42.15
711.517	43.43
711.702	44.26
711.886	44.34
712.07	45.63
712.254	45.55
712.438	46.61
712.623	46.26
712.807	45.51
712.991	47.02
713.175	47.47
713.359	46.41
713.544	47.16
713.728	47.8
713.912	47.76
714.096	47.43
714.28	46.81
714.464	45.53
714.648	46.15
714.832	48.1
715.016	46.9
715.2	46.31
715.384	46.26
715.568	46.21
715.752	45.03
715.936	44.87
716.12	44.43
716.304	44.01
716.488	43.77
716.671	44.63
716.855	44.13
717.039	43.68
717.223	44.99
717.407	45.94
717.59	45.74
717.774	46.03
717.958	46.47
718.142	48.34
718.325	50.97
718.509	51.88
718.693	51.52
718.877	51.11
719.06	52.82
719.244	51.41
719.428	51.69
719.611	52.22
719.795	51.66
719.978	52.12
720.162	51.15
720.345	49.81
720.529	51.37
720.713	50.34
720.896	50.35
721.08	50.41
721.263	51.59
721.446	50.67
721.63	51.41
721.813	53.02
721.997	52.79
722.18	53.24
722.364	53.03
722.547	52.11
722.73	53.54
722.914	53.9
723.097	53.91
723.28	53.67
723.464	52.95
723.647	51.32
723.83	51.38
724.013	51.94
724.197	50.36
724.38	51.43
724.563	51.06
724.746	51.63
724.929	51.66
725.112	52.2
725.296	51.42
725.479	51.53
725.662	53.12
725.845	51.86
726.028	50.61
726.211	49.97
726.394	49.39
726.577	49.11
726.76	48.25
726.943	48.01
727.126	46.51
727.309	46.55
727.492	46.77
727.675	45.89
727.858	46.13
728.041	45.1
728.224	46.58
728.407	45.93
728.589	47.1
728.772	45.84
728.955	46.06
729.138	46.37
729.321	46.57
729.503	46.62
729.686	45.45
729.869	45.34
730.052	46.88
730.234	46.67
730.417	46.39
730.6	45.92
730.782	46.39
730.965	45.67
731.148	46.03
731.33	47.05
731.513	47.09
731.695	49.15
731.878	49.72
732.061	49.53
732.243	49.23
732.426	48.9
732.608	48.81
732.791	49.83
732.973	50.5
733.156	50.12
733.338	50.02
733.52	48.29
733.703	46.32
733.885	47.49
734.068	47.12
734.25	49.2
734.432	52.96
734.615	52.17
734.797	52.08
734.979	52.46
735.162	52.23
735.344	52.11
735.526	54.62
735.708	55.85
735.891	54.27
736.073	55.59
736.255	53.58
736.437	51.47
736.619	51.27
736.802	51.22
736.984	51.41
737.166	51.46
737.348	52.1
737.53	52.53
737.712	50.06
737.894	50.73
738.076	49.81
738.258	50.97
738.44	50.59
738.622	50.16
738.804	50.36
738.986	49.01
739.168	49.56
739.35	50.36
739.532	49.71
739.714	51.96
739.896	51.41
740.078	50.44
740.259	50.47
740.441	48.66
740.623	50.84
740.805	50.38
740.987	52.24
741.168	52.18
741.35	52.88
741.532	52.64
741.714	52.92
741.895	50.93
742.077	52.22
742.259	52.88
742.44	53.43
742.622	53.36
742.804	51.76
742.985	51.51
743.167	51.84
743.348	45.76
743.53	46.82
743.711	45.7
743.893	46.14
744.075	46.75
744.256	45.64
744.438	46.7
744.619	46.67
744.8	49.36
744.982	47.59
745.163	48.17
745.345	52.55
745.526	53.92
745.707	55.69
745.889	57.37
746.07	56.72
746.252	57.13
746.433	57.44
746.614	56.44
746.795	56.78
746.977	58.49
747.158	58.83
747.339	58.8
747.52	56.69
747.702	55.9
747.883	56.2
748.064	58.52
748.245	57.79
748.426	58.18
748.607	57.68
748.788	56.4
748.97	55.45
749.151	53.61
749.332	55.59
749.513	55.37
749.694	56.35
749.875	56.26
750.056	53.32
750.237	54.64
750.418	54.74
750.599	55.63
750.78	53.5
750.96	54.16
751.141	55.4
751.322	52.05
751.503	52.5
751.684	51.14
751.865	50.05
752.046	51.78
752.226	50.13
752.407	48.72
752.588	50.98
752.769	56.14
752.949	55.91
753.13	55.88
753.311	55.1
753.492	56.42
753.672	57.63
753.853	61.14
754.034	59.01
754.214	60.83
754.395	62.62
754.575	60.29
754.756	57.21
754.937	58.48
755.117	60.1
755.298	62.77
755.478	61.25
755.659	62.12
755.839	61.13
756.02	62.41
756.2	62.81
756.381	63.46
756.561	63.5
756.741	63.1
756.922	62.12
757.102	58.03
757.283	55.67
757.463	56.89
757.643	54.34
757.823	55.51
758.004	55.45
758.184	55.54
758.364	55.65
758.545	55.51
758.725	56.97
758.905	54.76
759.085	57.09
759.265	57.1
759.446	56.16
759.626	58.95
759.806	57.24
759.986	57.94
760.166	56.59
760.346	55.8
760.526	54.48
760.706	54
760.886	53.23
761.066	53.49
761.246	52.97
761.426	53.43
761.606	50.72
761.786	49.45
761.966	48.7
762.146	47.12
762.326	47.04
762.506	47.24
762.686	47.09
762.866	48.85
763.046	46.97
763.225	47.08
763.405	45.22
763.585	45.25
763.765	46.26
763.945	47.36
764.124	48.67
764.304	49.67
764.484	51.5
764.664	50.69
764.843	52.45
765.023	54.7
765.203	54.7
765.382	55.51
765.562	56.8
765.741	57.39
765.921	56.65
766.101	57.71
766.28	57.23
766.46	56.28
766.639	57.23
766.819	55.75
766.998	57.47
767.178	58.46
767.357	58.8
767.537	58.53
767.716	60.38
767.896	59.5
768.075	59.93
768.254	59.2
768.434	59.04
768.613	61.24
768.792	61.21
768.972	58.55
769.151	59.24
769.33	60.06
769.51	62.25
769.689	60.28
769.868	60.5
770.047	60.41
770.226	61.33
770.406	63.71
770.585	62.82
770.764	61.69
770.943	63.38
771.122	65.13
771.301	66.67
771.48	65.18
771.66	64.1
771.839	65.27
772.018	64.6
772.197	66.74
772.376	66.2
772.555	64.23
772.734	66.91
772.913	65.75
773.092	67.17
773.271	65.96
773.449	69.16
773.628	72.35
773.807	74.57
773.986	77.59
774.165	70.14
774.344	68.98
774.523	70.13
774.701	72.4
774.88	72.71
775.059	70.77
775.238	72.98
775.417	70.82
775.595	71.03
775.774	69.52
775.953	67.46
776.131	74.69
776.31	72.94
776.489	68.9
776.667	63.66
776.846	67.7
777.025	67.58
777.203	67.02
777.382	66.24
777.56	63.8
777.739	65.36
777.917	65.1
778.096	65.47
778.274	67.51
778.453	70.96
778.631	74.57
778.81	70.38
778.988	71.51
779.166	71.9
779.345	71.7
779.523	73.79
779.702	73.08
779.88	76.66
780.058	71.57
780.237	71.68
780.415	72.75
780.593	70.13
780.771	69.34
780.95	68.68
781.128	68.56
781.306	72.54
781.484	71.23
781.662	69.9
781.841	65.54
782.019	68.9
782.197	69.65
782.375	73.31
782.553	73.4
782.731	74.97
782.909	74.79
783.087	71.37
783.265	66.62
783.443	67.82
783.621	68.4
783.799	70.7
783.977	70.99
784.155	69.99
784.333	65.46
784.511	66.46
784.689	67.32
784.867	65.26
785.045	70.83
785.223	68.41
785.4	68.19
785.578	68.8
785.756	67.95
785.934	64.01
786.112	62.31
786.289	64.24
786.467	65
786.645	63
786.823	62.88
787	59.16
787.178	61.6
787.356	58.39
787.533	57.46
787.711	58.65
787.889	57.23
788.066	59.75
788.244	56.7
788.421	57.33
788.599	59.01
788.776	56.49
788.954	59.28
789.131	58.91
789.309	60.96
789.486	62.12
789.664	60.74
789.841	65.84
790.019	63.85
790.196	67.77
790.373	65.79
790.551	64.13
790.728	67.81
790.906	64.97
791.083	62.06
791.26	60.85
791.437	57.28
791.615	57.57
791.792	57.91
791.969	58.14
792.146	56.23
792.324	53.96
792.501	58.47
792.678	58.8
792.855	55.8
793.032	58.68
793.209	60.17
793.387	65.62
793.564	65.85
793.741	68.28
793.918	67.41
794.095	66.65
794.272	67.92
794.449	62.61
794.626	61.87
794.803	66.93
794.98	66.25
795.157	71.91
795.334	69.9
795.511	68.65
795.688	62.82
795.864	63.59
796.041	62.68
796.218	63.45
796.395	67.58
796.572	65.72
796.749	66.23
796.925	67.59
797.102	61.7
797.279	59.03
797.456	58.83
797.632	60.23
797.809	61.93
797.986	62.21
798.162	64.59
798.339	66.39
798.516	68.71
798.692	64.97
798.869	62.39
799.046	62.61
799.222	65.43
799.399	61.63
799.575	65.15
799.752	63.11
799.928	65.59
800.105	65
800.281	58.5
800.458	56.45
800.634	57.32
800.811	59.38
800.987	59.66
801.163	59.51
801.34	64.54
801.516	60.54
801.692	63.06
801.869	62.68
802.045	63.29
802.221	66.35
802.398	72.34
802.574	74.04
802.75	73.71
802.926	72.29
803.103	71.76
803.279	73.6
803.455	75.36
803.631	75.29
803.807	79.09
803.983	77.25
804.16	76.79
804.336	72.62
804.512	72.34
804.688	73.52
804.864	73.96
805.04	74.01
805.216	71.27
805.392	68.7
805.568	70.07
805.744	65.73
805.92	65.94
806.096	65.68
806.272	74.55
806.448	76.13
806.623	77.65
806.799	79.2
806.975	74.61
807.151	75.51
807.327	75.25
807.503	71.62
807.678	66.27
807.854	70.5
808.03	70.85
808.206	63.16
808.381	63.21
808.557	65.98
808.733	64.59
808.908	68.07
809.084	68.73
809.26	72.94
809.435	72.32
809.611	77.37
809.787	70.38
809.962	66.44
810.138	71.15
810.313	67.46
810.489	65.91
810.664	69
810.84	71.68
811.015	69.16
811.191	69.63
811.366	73.24
811.542	75.89
811.717	80.01
811.892	84.79
812.068	83.45
812.243	87.94
812.419	81.42
812.594	84.66
812.769	84.14
812.944	94.09
813.12	92.93
813.295	94.51
813.47	93.37
813.645	94.3
813.821	91
813.996	86.73
814.171	83.76
814.346	85.71
814.521	81.9
814.697	82.01
814.872	76.17
815.047	71.8
815.222	65.08
815.397	63.72
815.572	59.48
815.747	62.78
815.922	67.09
816.097	63.74
816.272	63.33
816.447	66.4
816.622	66.14
816.797	67.4
816.972	70.87
817.147	72.53
817.322	75
817.496	76.97
817.671	78.24
817.846	77.32
818.021	73.88
818.196	74.39
818.371	70.85
818.545	66.95
818.72	64.76
818.895	68.19
819.069	66.14
819.244	62.85
819.419	56.56
819.594	53.91
819.768	48.12
819.943	47.85
820.117	44.33
820.292	42.22
820.467	41.67
820.641	40.61
820.816	39.04
820.99	38.28
821.165	35.72
821.339	35.81
821.514	35.25
821.688	35.06
821.863	34.86
822.037	35.03
822.212	34.7
822.386	34.12
822.56	33.22
822.735	32.49
822.909	32.93
823.084	32.53
823.258	32.63
823.432	32.41
823.606	33.13
823.781	33.4
823.955	34.45
824.129	34.88
824.303	35.77
824.478	36.44
824.652	36.74
824.826	34.86
825	36.54
825.174	37.84
825.348	38
825.523	37.38
825.697	36.47
825.871	36.33
826.045	36.52
826.219	36.24
826.393	37.51
826.567	37.8
826.741	40.56
826.915	41.64
827.089	41.43
827.263	41.62
827.437	44.06
827.611	45.72
827.784	46.36
827.958	45.87
828.132	45.7
828.306	44.7
828.48	46.83
828.654	47.36
828.827	48.83
829.001	49.32
829.175	51.52
829.349	51.64
829.522	52.52
829.696	52.06
829.87	56.37
830.044	57.63
830.217	60.03
830.391	61.66
830.565	58.95
830.738	57.87
830.912	56.8
831.085	53.99
831.259	51.78
831.432	56.18
831.606	55.15
831.779	52.98
831.953	54.28
832.126	51.8
832.3	50.73
832.473	52.09
832.647	51.46
832.82	50.36
832.994	50.79
833.167	53
833.34	50.53
833.514	50.69
833.687	48.6
833.86	49.1
834.034	49.24
834.207	47.17
834.38	48.24
834.553	46.95
834.727	49.09
834.9	47.39
835.073	44.12
835.246	41.79
835.419	39.14
835.593	42.9
835.766	40.33
835.939	42.37
836.112	44.19
836.285	42.9
836.458	41.96
836.631	44.49
836.804	52.3
836.977	58.9
837.15	64.28
837.323	75.75
837.496	70.09
837.669	75.42
837.842	72.32
838.015	77.5
838.188	78.91
838.361	78.39
838.533	75.2
838.706	75.07
838.879	72.18
839.052	74.49
839.225	71.78
839.398	71.81
839.57	70.57
839.743	75.1
839.916	72.5
840.088	71.78
840.261	82.82
840.434	82.89
840.607	80.7
840.779	85.89
840.952	78.47
841.124	85.71
841.297	88.65
841.47	104.14
841.642	105.31
841.815	107.68
841.987	115.99
842.16	106.72
842.332	107.46
842.505	101.1
842.677	100.69
842.85	115.81
843.022	109.2
843.194	106.56
843.367	103.11
843.539	103.26
843.712	101.08
843.884	103.96
844.056	101.27
844.229	109.44
844.401	127.27
844.573	130.37
844.745	120.76
844.918	144.94
845.09	147.52
845.262	146.05
845.434	163.57
845.606	175.63
845.779	154.45
845.951	145.3
846.123	143.19
846.295	140.37
846.467	162.13
846.639	159.53
846.811	153.84
846.983	164.3
847.155	168.74
847.327	144.88
847.499	152.08
847.671	163.97
847.843	161.14
848.015	142.49
848.187	133.14
848.359	113.87
848.531	114.27
848.703	100.91
848.875	109.76
849.047	96.24
849.218	95.79
849.39	91.84
849.562	89.69
849.734	94.74
849.905	101.48
850.077	112.31
850.249	112.72
850.421	108.27
850.592	111.18
850.764	104.4
850.936	98.66
851.107	108.12
851.279	112.27
851.451	104.08
851.622	98.9
851.794	105.46
851.965	109.59
852.137	116.7
852.308	117.74
852.48	122.25
852.651	130.23
852.823	139.68
852.994	141.4
853.166	140.47
853.337	168.25
853.509	182.8
853.68	178.11
853.851	162.33
854.023	147.96
854.194	143.25
854.365	161.47
854.537	141.5
854.708	148.83
854.879	135.46
855.05	143.81
855.222	116.54
855.393	120.41
855.564	124.42
855.735	138.97
855.906	141.82
856.078	137.51
856.249	110.41
856.42	117.56
856.591	111.06
856.762	110.64
856.933	109.05
857.104	102.71
857.275	96.52
857.446	103.34
857.617	99.03
857.788	99.33
857.959	100.42
858.13	119.43
858.301	118.32
858.472	118.4
858.643	119.82
858.814	118.21
858.985	134.8
859.155	164.22
859.326	135.61
859.497	118.51
859.668	197.59
859.839	197.79
860.009	145.39
860.18	151.24
860.351	150.93
860.522	137.63
860.692	110.96
860.863	114.24
861.034	104.75
861.204	99.91
861.375	97.48
861.546	89.24
861.716	90.34
861.887	98.62
862.057	101.14
862.228	101.67
862.398	101.78
862.569	115.89
862.739	127.76
862.91	121.06
863.08	127.64
863.251	139.75
863.421	146.32
863.592	166.02
863.762	143.61
863.932	133.66
864.103	134.25
864.273	141.9
864.443	124.6
864.614	107.17
864.784	115.47
864.954	134.91
865.125	155.78
865.295	142.89
865.465	165.55
865.635	176.33
865.805	163.96
865.976	181.23
866.146	143.44
866.316	160.11
866.486	190.94
866.656	173.81
866.826	161.35
866.996	139.94
867.166	177.24
867.336	128.59
867.506	111.34
867.676	100.52
867.846	86.96
868.016	100.63
868.186	98.24
868.356	91.81
868.526	95.18
868.696	90.96
868.866	88.61
869.036	98.69
869.206	100.56
869.376	99.87
869.545	106
869.715	119.72
869.885	124.87
870.055	124.85
870.224	118.9
870.394	116.61
870.564	143.44
870.734	133.79
870.903	127.01
871.073	125.53
871.243	135.71
871.412	153.84
871.582	149.69
871.751	150.16
871.921	157.64
872.091	197.8
872.26	143.22
872.43	113.65
872.599	118.58
872.769	112.91
872.938	124.86
873.108	120.43
873.277	104.63
873.446	96.05
873.616	106.87
873.785	110.57
873.955	95.59
874.124	114.89
874.293	128.6
874.463	128.81
874.632	121.71
874.801	123.64
874.971	125.3
875.14	156.47
875.309	147.56
875.478	117.15
875.647	103.6
875.817	111.44
875.986	113.57
876.155	109.66
876.324	118.75
876.493	117.56
876.662	118.11
876.831	121.89
877	114.25
877.17	117.76
877.339	121.72
877.508	132.81
877.677	133.67
877.846	120.07
878.015	122.18
878.184	97.54
878.352	92.55
878.521	86.07
878.69	79.18
878.859	67.5
879.028	70.79
879.197	72.94
879.366	61.72
879.534	59.29
879.703	59.62
879.872	56.55
880.041	54.96
880.21	52.86
880.378	46.24
880.547	40.14
880.716	38.44
880.884	35.6
881.053	31.02
881.222	35.36
881.39	37.09
881.559	34.24
881.727	32.93
881.896	32.1
882.065	33.42
882.233	34.6
882.402	34.57
882.57	37.57
882.739	35.94
882.907	37.83
883.076	37.58
883.244	37.02
883.412	39.42
883.581	40.37
883.749	43.72
883.918	43.09
884.086	45.18
884.254	47.03
884.423	49.55
884.591	52.55
884.759	55.33
884.927	58.35
885.096	58.75
885.264	61.11
885.432	61.53
885.6	62.66
885.769	66.12
885.937	69.4
886.105	83.77
886.273	86.08
886.441	87.67
886.609	90.88
886.777	80.87
886.945	86.34
887.113	91.48
887.281	88.89
887.449	86.39
887.617	89.87
887.785	85.32
887.953	83.3
888.121	83.46
888.289	87.52
888.457	84.1
888.625	90.29
888.793	84.98
888.961	88.59
889.129	94.65
889.296	101.37
889.464	100.11
889.632	107.76
889.8	108.35
889.967	95.98
890.135	87.21
