Data from JASIL_3309_Reflection_3.txt Node
Date: Tue Nov 17 19:56:46 EST 2015
User: Geneva
Spectrometer: USB4E03002
Autoset integration time: false
Trigger mode: 4
Integration Time (sec): 1.000000E-1
Scans to average: 10
Electric dark correction enabled: false
Nonlinearity correction enabled: false
Boxcar width: 5
Stray light correction enabled: false
XAxis mode: Wavelengths
Stop averaging: false
Number of Pixels in Spectrum: 3648
>>>>>Begin Spectral Data<<<<<
177.575	-131.68
177.794	-335.87
178.014	-379.78
178.233	-798.11
178.452	-835
178.672	-537.8
178.891	-1587.93
179.11	11870
179.33	2878.26
179.549	2678.43
179.768	-13954.55
179.987	1247.73
180.207	652.46
180.426	1190.41
180.645	1492.8
180.864	10570.59
181.084	1076.51
181.303	768.3
181.522	917.24
181.741	878.65
181.96	1501.01
182.179	7870.59
182.398	-1574.03
182.618	-588.56
182.837	-488.1
183.056	-513.11
183.275	-560
183.494	-237.02
183.713	-182.76
183.932	-143.11
184.151	-92.53
184.37	-83.41
184.589	-142.6
184.808	-121.89
185.027	-101.9
185.246	-143.58
185.465	-121.69
185.684	-161.85
185.903	-244.34
186.122	-405
186.341	-866.37
186.56	-617.26
186.779	-4081.48
186.998	-521.16
187.216	-561.67
187.435	-618.79
187.654	-698.79
187.873	-485.71
188.092	-623.72
188.311	-892.86
188.53	-555.98
188.748	-276.55
188.967	-376.09
189.186	-236.53
189.405	-410.69
189.623	-344.38
189.842	-330.73
190.061	-259.46
190.28	-189.66
190.498	-236.1
190.717	-181.33
190.936	-227.56
191.154	-643.96
191.373	-1408.05
191.592	3260.47
191.81	1394.17
192.029	1686.32
192.248	879.41
192.466	992.27
192.685	394.53
192.904	947.03
193.122	631.87
193.341	752.52
193.559	900
193.778	876.24
193.996	585.31
194.215	1515.94
194.433	703.57
194.652	628.67
194.87	510
195.089	671.54
195.307	1161.4
195.526	-730.61
195.744	-507.19
195.963	-657.33
196.181	-851.24
196.399	-1474.71
196.618	1927.63
196.836	992.91
197.055	968.24
197.273	1060.45
197.491	1234.23
197.71	648.81
197.928	579.47
198.146	525.34
198.365	2692.86
198.583	1911.11
198.801	-839.52
199.019	-269.48
199.238	-239.23
199.456	-228.17
199.674	-347.04
199.892	-258.29
200.111	-230.99
200.329	-262.9
200.547	-364.74
200.765	2962.75
200.983	-1235.9
201.202	2235.53
201.42	631.79
201.638	460.3
201.856	744.87
202.074	1052.67
202.292	622.14
202.51	537.54
202.728	621.15
202.946	5450
203.165	2632.69
203.383	542.96
203.601	758.38
203.819	1350
204.037	-4081.82
204.255	-4788.89
204.473	-844.76
204.691	-755.88
204.909	-450.88
205.127	-2272.92
205.345	613.94
205.562	-795.35
205.78	-173.29
205.998	-108.11
206.216	-98.29
206.434	-154.71
206.652	-159.33
206.87	-375.45
207.088	-251.9
207.306	-525.43
207.523	-433.48
207.741	-356.13
207.959	-493.69
208.177	-592.23
208.395	-665.2
208.612	-694.44
208.83	-380.5
209.048	-406.41
209.266	-365.75
209.483	-254.03
209.701	-260.57
209.919	-208.92
210.136	-231.33
210.354	-251.99
210.572	-290.99
210.79	-305.33
211.007	-572.54
211.225	-6653.33
211.442	1552.54
211.66	3680
211.878	345.51
212.095	481.15
212.313	781.36
212.53	467.3
212.748	394.02
212.966	326.09
213.183	394.16
213.401	-4016.67
213.618	-260.32
213.836	-223.89
214.053	-345.87
214.271	-201.6
214.488	-397.32
214.705	-332.22
214.923	-212.46
215.14	-147.61
215.358	-105.59
215.575	-86.94
215.793	-183.27
216.01	-563.03
216.227	-1001.72
216.445	-761.81
216.662	-455.17
216.879	-420.43
217.097	-292.15
217.314	-423.35
217.531	14812.5
217.749	1309.9
217.966	754.95
218.183	501.04
218.4	732.26
218.618	802.63
218.835	491.97
219.052	431.62
219.269	422.56
219.487	212.95
219.704	211.16
219.921	247.96
220.138	301.84
220.355	278.82
220.572	237.6
220.79	233.27
221.007	307.11
221.224	493.16
221.441	499.24
221.658	549.15
221.875	-2682.86
222.092	-1114.77
222.309	3163.64
222.526	690.91
222.743	582.13
222.96	841.73
223.177	2451.16
223.394	1631.58
223.611	927.27
223.828	567.6
224.045	439.74
224.262	335.55
224.479	362.44
224.696	657.69
224.913	1003.31
225.13	1165.09
225.347	773.1
225.564	395.54
225.781	220.88
225.997	175.38
226.214	163.52
226.431	142.5
226.648	124.13
226.865	86.05
227.082	71.9
227.298	72.45
227.515	64.31
227.732	68.78
227.949	64.2
228.165	56.03
228.382	48.95
228.599	48.53
228.816	46.3
229.032	52.65
229.249	63.68
229.466	66.73
229.682	64.22
229.899	71.15
230.116	78.8
230.332	86.35
230.549	100.14
230.765	104.22
230.982	105.29
231.199	110.01
231.415	112.75
231.632	119.5
231.848	107.2
232.065	105.17
232.281	78.03
232.498	74.51
232.714	71.64
232.931	73.39
233.147	68.53
233.364	80.34
233.58	72.32
233.797	73.32
234.013	76.05
234.23	103.35
234.446	118.2
234.662	173.02
234.879	255.24
235.095	232.83
235.312	190.88
235.528	196.46
235.744	212.55
235.961	280.56
236.177	248.72
236.393	331.53
236.61	269.92
236.826	227.73
237.042	154.21
237.258	152.29
237.475	163.44
237.691	236.35
237.907	172.3
238.123	145.65
238.339	145
238.556	151.7
238.772	110.27
238.988	105.45
239.204	94.04
239.42	93.23
239.636	77.06
239.853	63.6
240.069	58.57
240.285	57.74
240.501	52.1
240.717	46.93
240.933	39.66
241.149	39.17
241.365	38.8
241.581	40.15
241.797	41.11
242.013	41.29
242.229	42.18
242.445	42.64
242.661	43.91
242.877	45.94
243.093	48.12
243.309	49.68
243.525	53
243.741	50.4
243.957	50.31
244.173	46.26
244.388	45.8
244.604	44.69
244.82	41.17
245.036	38.06
245.252	35.29
245.468	34.9
245.683	32.25
245.899	29.61
246.115	28.14
246.331	25.88
246.547	26.85
246.762	27.52
246.978	26.24
247.194	25.53
247.409	27.28
247.625	26.06
247.841	23.89
248.057	26.67
248.272	28.44
248.488	29.63
248.703	29.33
248.919	33.56
249.135	29.93
249.35	33.31
249.566	34.13
249.782	33.63
249.997	33.53
250.213	35.67
250.428	37.22
250.644	36.95
250.859	35.24
251.075	34.99
251.29	31.7
251.506	34.2
251.721	35.84
251.937	33.56
252.152	33.27
252.368	37.37
252.583	39.74
252.798	39.45
253.014	40.63
253.229	41.76
253.445	47.64
253.66	48.94
253.875	43.91
254.091	39.13
254.306	45.12
254.521	38.09
254.737	36.15
254.952	30.27
255.167	28.13
255.383	25.76
255.598	31.48
255.813	23.81
256.028	25.41
256.244	31.53
256.459	32.49
256.674	30.57
256.889	29.82
257.104	25.28
257.32	26.83
257.535	26.46
257.75	25.63
257.965	21.79
258.18	20.64
258.395	18.33
258.61	17.96
258.826	17.29
259.041	17.39
259.256	16.98
259.471	19.63
259.686	18.12
259.901	17.84
260.116	17.8
260.331	20.16
260.546	23.5
260.761	24.25
260.976	25.81
261.191	26.09
261.406	28.56
261.621	27.94
261.836	26.75
262.05	27.97
262.265	31.33
262.48	31.62
262.695	32.34
262.91	35.25
263.125	36.06
263.34	32.53
263.555	30.8
263.769	22.72
263.984	27.21
264.199	27.29
264.414	30.21
264.629	25.79
264.843	28.93
265.058	27.74
265.273	20.57
265.488	21.41
265.702	22.47
265.917	24.44
266.132	27.19
266.346	29.6
266.561	28.8
266.776	27.64
266.99	28.11
267.205	26.98
267.42	24.13
267.634	23.4
267.849	22.63
268.063	21.81
268.278	20.86
268.492	20.95
268.707	18.97
268.922	20.48
269.136	18.96
269.351	18.06
269.565	17.67
269.78	18.54
269.994	21
270.209	20.83
270.423	18.82
270.637	18
270.852	18.03
271.066	19.03
271.281	19.2
271.495	19.25
271.709	19.19
271.924	19.02
272.138	18.91
272.353	17.22
272.567	17.91
272.781	18.13
272.996	18.94
273.21	17.89
273.424	16.45
273.638	17.93
273.853	19.22
274.067	21.35
274.281	22.66
274.495	24.17
274.71	27.96
274.924	26.94
275.138	28.45
275.352	27.92
275.566	29.96
275.781	28.72
275.995	25.39
276.209	23.66
276.423	22.44
276.637	22.79
276.851	19.8
277.065	17.54
277.279	16.99
277.493	18.22
277.707	18.68
277.921	17.52
278.135	20.89
278.349	21.29
278.563	23
278.777	21.19
278.991	20.5
279.205	25.49
279.419	22.29
279.633	23.77
279.847	22.64
280.061	21.05
280.275	22
280.489	16.2
280.703	14.4
280.917	15.58
281.131	17.02
281.344	16.46
281.558	12.25
281.772	14.3
281.986	13.24
282.2	13.38
282.414	13.49
282.627	13.47
282.841	17.61
283.055	15.92
283.269	15.12
283.482	12.91
283.696	11.51
283.91	13.46
284.123	12.86
284.337	14.26
284.551	14.5
284.764	14.04
284.978	13.48
285.192	12.9
285.405	14.86
285.619	14.51
285.833	16.58
286.046	18.04
286.26	18.33
286.473	20.13
286.687	19.23
286.9	18.69
287.114	20.11
287.327	19.12
287.541	18.69
287.754	19.55
287.968	19.88
288.181	17.8
288.395	16.65
288.608	15.56
288.822	14.57
289.035	13.8
289.248	13.32
289.462	12.26
289.675	12.35
289.889	12.77
290.102	12.17
290.315	11.09
290.529	12.83
290.742	12.29
290.955	14.17
291.169	15.96
291.382	16.25
291.595	17.03
291.808	19.17
292.022	20.16
292.235	18.68
292.448	17.62
292.661	20.4
292.875	20.2
293.088	21.13
293.301	20
293.514	17.72
293.727	17.46
293.94	16.78
294.153	15.4
294.367	15.28
294.58	16.24
294.793	15.97
295.006	13.89
295.219	13.41
295.432	12.83
295.645	13.91
295.858	14.49
296.071	15.5
296.284	15.66
296.497	14.92
296.71	15.49
296.923	15.01
297.136	15.2
297.349	15.75
297.562	16.6
297.775	17.2
297.988	16.1
298.201	16.47
298.414	16.6
298.626	17
298.839	18.53
299.052	17.83
299.265	18.21
299.478	18.34
299.691	18.93
299.903	17.09
300.116	17.04
300.329	17.43
300.542	17.92
300.755	17.61
300.967	17.52
301.18	17.58
301.393	18.5
301.605	18.61
301.818	18.03
302.031	19.1
302.243	20.99
302.456	20.14
302.669	20.21
302.881	19.57
303.094	19.59
303.307	18.44
303.519	17.59
303.732	16.36
303.944	17.28
304.157	19.65
304.37	18.79
304.582	18.27
304.795	20.06
305.007	19.93
305.22	18.67
305.432	18.8
305.645	20.02
305.857	19.42
306.069	19.64
306.282	18.47
306.494	17.73
306.707	17.36
306.919	17.21
307.132	16.54
307.344	16.47
307.556	18.48
307.769	17.28
307.981	16.32
308.193	16.37
308.406	15.97
308.618	15.69
308.83	14.9
309.043	14.45
309.255	14.21
309.467	13.99
309.679	13.56
309.892	13.12
310.104	14.48
310.316	15.86
310.528	16.7
310.74	15.85
310.953	16.83
311.165	17.31
311.377	18.36
311.589	18.67
311.801	18.33
312.013	18.23
312.225	17.66
312.437	15.91
312.649	13.11
312.862	13.22
313.074	15.31
313.286	13.93
313.498	13.79
313.71	13.32
313.922	13.44
314.134	13.79
314.346	15.75
314.558	17.23
314.77	19.57
314.982	21.95
315.193	21.11
315.405	20.59
315.617	21.36
315.829	22.42
316.041	23.67
316.253	23.01
316.465	24.73
316.677	23.58
316.888	25.07
317.1	23.5
317.312	24.46
317.524	27.4
317.736	29.94
317.947	30.86
318.159	29.68
318.371	28.58
318.583	29.38
318.794	28.87
319.006	28.91
319.218	26.62
319.43	28.56
319.641	28.15
319.853	26.99
320.064	24.05
320.276	24.31
320.488	25.28
320.699	25.06
320.911	24.15
321.123	24.28
321.334	24.64
321.546	22.62
321.757	22.8
321.969	21.95
322.18	21.64
322.392	21.57
322.603	20.93
322.815	19.28
323.026	17.87
323.238	17.78
323.449	16.23
323.661	15.31
323.872	16.63
324.083	17.27
324.295	17.03
324.506	15.73
324.718	16.38
324.929	16.89
325.14	19.63
325.352	21.07
325.563	22.52
325.774	23.35
325.986	25.06
326.197	26.06
326.408	24.52
326.62	25.31
326.831	26.9
327.042	27.24
327.253	27.76
327.464	27.87
327.676	28.21
327.887	27.99
328.098	28.04
328.309	27.67
328.52	28.96
328.732	29.13
328.943	28.92
329.154	29.08
329.365	29.9
329.576	28.9
329.787	28.09
329.998	28.51
330.209	30.09
330.42	31.29
330.631	31.06
330.842	31.59
331.053	31.82
331.264	31.92
331.475	31.93
331.686	31.91
331.897	31.72
332.108	31.43
332.319	30.98
332.53	29.46
332.741	28.34
332.952	28.3
333.163	26.61
333.374	27.92
333.585	28.36
333.795	28.9
334.006	29.49
334.217	31.16
334.428	30.7
334.639	29.91
334.849	30.86
335.06	32.56
335.271	32.89
335.482	32.4
335.692	31.96
335.903	30.59
336.114	29.92
336.325	30.1
336.535	30.48
336.746	30.72
336.957	30.78
337.167	29.3
337.378	29.99
337.589	30.13
337.799	30.02
338.01	30.16
338.22	31.01
338.431	30.5
338.642	31.01
338.852	29.78
339.063	29.73
339.273	30.38
339.484	30.52
339.694	28.76
339.905	28.74
340.115	30.56
340.326	29.62
340.536	29.66
340.746	29.73
340.957	29.49
341.167	29.7
341.378	29.83
341.588	29.59
341.799	30.74
342.009	30.4
342.219	29.24
342.43	28.75
342.64	28.23
342.85	29.29
343.061	30.61
343.271	29.53
343.481	28.06
343.691	28.85
343.902	29.01
344.112	28.75
344.322	27.96
344.532	28.29
344.743	28.91
344.953	29.76
345.163	28.63
345.373	27.58
345.583	28.27
345.793	30.78
346.004	30.46
346.214	30.31
346.424	29.62
346.634	31.5
346.844	33.23
347.054	31.52
347.264	31.99
347.474	32.03
347.684	32.18
347.894	30.72
348.104	28.27
348.314	28.35
348.524	28.23
348.734	28.28
348.944	27.34
349.154	25.5
349.364	26.19
349.574	25.38
349.784	25.1
349.994	24.25
350.204	24.4
350.413	24.04
350.623	23.55
350.833	24.61
351.043	25.48
351.253	25.38
351.463	24.99
351.672	25.33
351.882	25.46
352.092	26.73
352.302	27.02
352.511	27.97
352.721	29.28
352.931	28.86
353.141	28.94
353.35	27.44
353.56	27.63
353.77	28.38
353.979	28.15
354.189	27.77
354.399	27.16
354.608	27.02
354.818	26.26
355.027	26.31
355.237	27.02
355.447	26.23
355.656	26.99
355.866	25.64
356.075	25.7
356.285	24.96
356.494	25.6
356.704	26.47
356.913	26.51
357.123	25.98
357.332	25.33
357.542	25.2
357.751	25.36
357.96	24.59
358.17	24.94
358.379	24.6
358.589	24.68
358.798	23.39
359.007	23.49
359.217	24.17
359.426	24.15
359.635	24.95
359.845	24.26
360.054	22.79
360.263	23.27
360.472	23.45
360.682	23.6
360.891	23.45
361.1	24.66
361.309	24.48
361.519	23.36
361.728	23.58
361.937	23.51
362.146	24.1
362.355	24.89
362.564	24.13
362.774	24.14
362.983	24.15
363.192	24.6
363.401	24.32
363.61	23.48
363.819	24.04
364.028	23.8
364.237	22.71
364.446	22.87
364.655	21.92
364.864	22.43
365.073	22.05
365.282	21.58
365.491	21.94
365.7	21.84
365.909	21.57
366.118	22
366.327	22.42
366.536	22.18
366.745	22.07
366.954	23.59
367.162	23.99
367.371	24.57
367.58	25.44
367.789	25.3
367.998	24.96
368.207	24.56
368.415	24.74
368.624	23.84
368.833	24.92
369.042	24.07
369.25	23.36
369.459	23.35
369.668	23.25
369.877	23.09
370.085	22.95
370.294	22.37
370.503	22.96
370.711	21.82
370.92	22.9
371.129	22.02
371.337	22
371.546	22
371.754	21.62
371.963	21.76
372.171	20.32
372.38	19.78
372.589	20.07
372.797	19.48
373.006	20.54
373.214	19.79
373.423	20.43
373.631	21.15
373.84	20.13
374.048	19.85
374.256	19.86
374.465	20.83
374.673	21.64
374.882	20.29
375.09	20.47
375.298	20.45
375.507	20.06
375.715	19.87
375.923	19.08
376.132	20.1
376.34	20.24
376.548	20.08
376.757	19.9
376.965	19.37
377.173	20.98
377.381	21.08
377.59	20.89
377.798	21.25
378.006	21.04
378.214	21.4
378.423	21.14
378.631	21.53
378.839	21.58
379.047	22.37
379.255	22.92
379.463	22.81
379.671	22.67
379.879	22.75
380.088	23.1
380.296	24.31
380.504	24.69
380.712	25.51
380.92	25.34
381.128	25.6
381.336	24.57
381.544	23.76
381.752	22.79
381.96	22.95
382.168	21.85
382.376	21.11
382.584	20.12
382.791	19.35
382.999	18.45
383.207	18.22
383.415	18.77
383.623	19.7
383.831	19.77
384.039	20.05
384.247	20.32
384.454	21.46
384.662	21.15
384.87	21.35
385.078	20.96
385.285	20.79
385.493	21.62
385.701	20.57
385.909	20.15
386.116	20.08
386.324	20.13
386.532	19.8
386.739	19.35
386.947	19.51
387.155	18.78
387.362	19.18
387.57	18.68
387.778	17.55
387.985	16.21
388.193	15.66
388.4	15.84
388.608	16.29
388.816	16.04
389.023	15.58
389.231	15.74
389.438	16.02
389.646	16.46
389.853	16.84
390.061	17.38
390.268	18.53
390.475	18.19
390.683	18.46
390.89	18.15
391.098	17.88
391.305	17.85
391.512	17.99
391.72	17.71
391.927	17.65
392.135	18.17
392.342	17.46
392.549	16.89
392.756	17.29
392.964	16.3
393.171	16.86
393.378	16.71
393.586	16.7
393.793	16.47
394	16.57
394.207	15.87
394.414	15.57
394.622	16.19
394.829	17.04
395.036	17.15
395.243	17.42
395.45	17.12
395.657	17.16
395.864	17.57
396.072	18.77
396.279	19.28
396.486	19.07
396.693	18.59
396.9	18.2
397.107	17.68
397.314	17.67
397.521	17.97
397.728	17.52
397.935	17.9
398.142	17.34
398.349	15.88
398.556	15.77
398.763	16.36
398.97	17.06
399.177	17.19
399.383	17.5
399.59	16.95
399.797	16.69
400.004	17.04
400.211	17.08
400.418	17.16
400.625	18.52
400.831	18.75
401.038	18.02
401.245	17.71
401.452	17.57
401.658	17.45
401.865	18.07
402.072	17.92
402.279	18.16
402.485	18.35
402.692	18.84
402.899	17.07
403.105	16.16
403.312	17.41
403.519	17.4
403.725	17.59
403.932	17.06
404.138	17.08
404.345	17.59
404.552	17.07
404.758	17.31
404.965	17.11
405.171	17.97
405.378	18.66
405.584	18.29
405.791	18.1
405.997	17.55
406.204	18.24
406.41	18.35
406.617	17.94
406.823	17.44
407.029	16.59
407.236	16.73
407.442	16.62
407.649	16.64
407.855	16.3
408.061	16.64
408.268	16.93
408.474	17.02
408.68	16.72
408.887	16.98
409.093	17.72
409.299	18.13
409.505	17.94
409.712	18.18
409.918	17.34
410.124	16.43
410.33	16.41
410.537	16.22
410.743	15.96
410.949	16.08
411.155	15.49
411.361	14.92
411.567	14.75
411.773	14.76
411.98	14.66
412.186	15.34
412.392	15.93
412.598	15.34
412.804	15.42
413.01	15.1
413.216	14.96
413.422	15.09
413.628	15.7
413.834	15.36
414.04	14.76
414.246	14.38
414.452	14.19
414.658	13.81
414.864	14.3
415.07	14.12
415.275	14.1
415.481	13.95
415.687	14.09
415.893	13.91
416.099	14.39
416.305	14.63
416.511	14.96
416.716	14.84
416.922	15.21
417.128	15.12
417.334	15.26
417.539	15.32
417.745	15.5
417.951	15.2
418.157	15.54
418.362	15.66
418.568	15.66
418.774	15.22
418.979	15.3
419.185	15.17
419.391	15
419.596	14.81
419.802	14.72
420.008	14.21
420.213	14.46
420.419	13.84
420.624	13.55
420.83	13.58
421.035	13.86
421.241	13.84
421.446	13.82
421.652	13.97
421.857	14.26
422.063	14.24
422.268	14.63
422.474	14.53
422.679	14.74
422.885	14.72
423.09	14.84
423.295	14.48
423.501	14.54
423.706	14.42
423.911	14.4
424.117	14.27
424.322	14.48
424.527	14.33
424.733	14.65
424.938	14.45
425.143	14.43
425.349	14.01
425.554	14.41
425.759	14.61
425.964	14.79
426.169	14.62
426.375	15.26
426.58	15.25
426.785	15.29
426.99	15.5
427.195	15.54
427.4	15.82
427.605	16.26
427.811	16.08
428.016	15.7
428.221	15.78
428.426	16.11
428.631	15.16
428.836	14.64
429.041	14.7
429.246	14.23
429.451	14.61
429.656	14.46
429.861	14.75
430.066	14.9
430.271	15.11
430.476	14.95
430.681	14.45
430.886	14.5
431.09	14.71
431.295	14.35
431.5	14.52
431.705	14.61
431.91	14.82
432.115	14.29
432.32	13.96
432.524	13.56
432.729	13.72
432.934	14.13
433.139	14.38
433.343	14.7
433.548	15.37
433.753	15.16
433.958	14.92
434.162	14.68
434.367	14.73
434.572	14.94
434.776	15
434.981	15.15
435.186	15.29
435.39	15.28
435.595	15.04
435.799	14.59
436.004	14.12
436.209	14.31
436.413	14.23
436.618	14.24
436.822	14.4
437.027	14.68
437.231	14.32
437.436	13.99
437.64	14.16
437.845	14.03
438.049	13.93
438.253	14.14
438.458	14.24
438.662	14.37
438.867	14.54
439.071	14.3
439.275	14.22
439.48	14.26
439.684	14.5
439.888	14.47
440.093	14.67
440.297	14.72
440.501	14.73
440.706	14.78
440.91	14.54
441.114	14.53
441.318	14.63
441.523	14.58
441.727	14.72
441.931	14.77
442.135	14.55
442.339	14.39
442.543	14.37
442.748	14.48
442.952	14.49
443.156	14.68
443.36	14.69
443.564	14.73
443.768	14.9
443.972	14.97
444.176	14.89
444.38	14.9
444.584	14.93
444.788	15.04
444.992	15.01
445.196	14.57
445.4	14.63
445.604	14.31
445.808	14.3
446.012	13.89
446.216	13.92
446.42	13.77
446.624	14.02
446.828	14.08
447.032	13.87
447.235	13.86
447.439	13.87
447.643	13.9
447.847	14.47
448.051	14.72
448.254	14.96
448.458	15.01
448.662	14.86
448.866	14.59
449.069	14.62
449.273	14.9
449.477	14.97
449.681	15.21
449.884	14.87
450.088	14.36
450.292	14.06
450.495	14.08
450.699	14.13
450.902	14.14
451.106	14.07
451.31	13.91
451.513	14.02
451.717	14.07
451.92	14.07
452.124	14.18
452.327	14.29
452.531	14.78
452.734	15.01
452.938	14.94
453.141	15.15
453.345	15.14
453.548	15
453.752	14.81
453.955	15.07
454.158	14.82
454.362	14.93
454.565	14.9
454.769	14.74
454.972	14.84
455.175	14.75
455.379	15.03
455.582	15.4
455.785	15.59
455.988	15.36
456.192	14.69
456.395	14.57
456.598	14.62
456.801	14.92
457.005	14.65
457.208	14.12
457.411	13.96
457.614	13.62
457.817	13.28
458.021	13.05
458.224	13.12
458.427	13.41
458.63	13.53
458.833	13.57
459.036	13.49
459.239	13.27
459.442	13.17
459.645	13.09
459.848	13.17
460.051	13.39
460.254	13.72
460.457	13.93
460.66	14.23
460.863	14.38
461.066	14.41
461.269	14.17
461.472	14.53
461.675	15.02
461.878	15.18
462.081	15.37
462.284	15.29
462.486	14.8
462.689	14.51
462.892	14.51
463.095	14.53
463.298	14.2
463.5	14.42
463.703	14.25
463.906	14.36
464.109	14.83
464.311	14.64
464.514	14.49
464.717	14.9
464.92	14.97
465.122	14.3
465.325	14.6
465.528	14.58
465.73	14.27
465.933	14.42
466.135	14.19
466.338	13.87
466.541	13.73
466.743	13.83
466.946	13.85
467.148	13.74
467.351	13.88
467.553	13.86
467.756	14.13
467.958	14.37
468.161	14.37
468.363	14.36
468.566	14.31
468.768	14.43
468.971	14.16
469.173	14.52
469.375	14.79
469.578	14.23
469.78	13.98
469.983	14.15
470.185	13.82
470.387	14.05
470.59	13.81
470.792	13.77
470.994	13.48
471.196	13.56
471.399	13
471.601	13.37
471.803	13.81
472.005	13.95
472.208	13.85
472.41	13.94
472.612	13.88
472.814	14.41
473.016	14.85
473.218	15.53
473.421	15.32
473.623	15.58
473.825	14.91
474.027	15.22
474.229	15.41
474.431	15.3
474.633	15.43
474.835	14.88
475.037	14.57
475.239	14.33
475.441	13.79
475.643	14.44
475.845	14.4
476.047	14.73
476.249	14.36
476.451	13.89
476.653	13.94
476.855	13.91
477.057	14.12
477.258	14.07
477.46	14.13
477.662	14.52
477.864	14.31
478.066	14.42
478.268	14.49
478.469	14.75
478.671	14.78
478.873	14.63
479.075	14.57
479.276	14.62
479.478	14.33
479.68	14.19
479.882	14.11
480.083	13.89
480.285	13.68
480.487	13.8
480.688	13.81
480.89	13.66
481.091	13.63
481.293	13.45
481.495	13.14
481.696	13.2
481.898	13.1
482.099	12.9
482.301	12.75
482.502	12.71
482.704	12.48
482.905	12.35
483.107	12.37
483.308	12.28
483.51	12.3
483.711	12.31
483.913	12.38
484.114	12.32
484.315	12.35
484.517	12.33
484.718	12.29
484.92	12.57
485.121	12.49
485.322	12.5
485.524	12.53
485.725	12.75
485.926	12.81
486.127	12.75
486.329	12.77
486.53	12.71
486.731	12.76
486.932	12.76
487.134	12.67
487.335	12.78
487.536	12.75
487.737	12.84
487.938	12.65
488.139	12.78
488.341	12.74
488.542	12.89
488.743	13.03
488.944	13.23
489.145	13.19
489.346	13.11
489.547	13.16
489.748	13.15
489.949	13.22
490.15	13.19
490.351	13.05
490.552	13.05
490.753	12.84
490.954	12.77
491.155	12.67
491.356	12.69
491.557	12.62
491.758	12.77
491.959	12.93
492.159	12.87
492.36	12.92
492.561	12.93
492.762	13.12
492.963	13.3
493.164	13.34
493.364	13.58
493.565	13.84
493.766	13.76
493.967	13.61
494.167	13.76
494.368	13.57
494.569	13.67
494.769	13.87
494.97	13.7
495.171	13.86
495.371	13.73
495.572	13.9
495.773	13.74
495.973	13.9
496.174	13.74
496.375	13.78
496.575	14.03
496.776	13.95
496.976	13.82
497.177	13.8
497.377	13.7
497.578	13.8
497.778	13.43
497.979	13.64
498.179	13.4
498.38	13.67
498.58	13.49
498.78	13.56
498.981	13.99
499.181	14.04
499.382	14.21
499.582	14.26
499.782	14.34
499.983	14.44
500.183	14.48
500.383	14.99
500.584	14.88
500.784	15.07
500.984	14.88
501.184	14.42
501.385	14.61
501.585	14.74
501.785	14.62
501.985	14.73
502.185	14.72
502.386	14.65
502.586	14.57
502.786	14.6
502.986	13.98
503.186	13.97
503.386	14.4
503.586	14.43
503.786	14.27
503.987	14.68
504.187	14.53
504.387	14.66
504.587	14.58
504.787	14.56
504.987	14.56
505.187	15.06
505.387	15.33
505.587	15.14
505.786	15.04
505.986	15.04
506.186	14.78
506.386	15.12
506.586	14.93
506.786	14.92
506.986	14.86
507.186	15.07
507.386	15.27
507.585	15.54
507.785	15.68
507.985	15.64
508.185	15.76
508.384	16.08
508.584	15.88
508.784	16.22
508.984	16.65
509.183	16.89
509.383	16.87
509.583	16.95
509.782	16.45
509.982	16.3
510.182	16.45
510.381	16.37
510.581	16.15
510.781	16.39
510.98	16.27
511.18	16.08
511.379	15.93
511.579	15.87
511.778	15.77
511.978	15.98
512.177	16.25
512.377	16.19
512.576	16.25
512.776	16.06
512.975	15.87
513.175	15.96
513.374	15.92
513.573	15.94
513.773	16.27
513.972	16.1
514.172	16.27
514.371	16.1
514.57	16.18
514.77	16.27
514.969	16.26
515.168	16.64
515.367	16.78
515.567	16.97
515.766	17.1
515.965	16.93
516.164	17.03
516.364	16.88
516.563	17.01
516.762	17.33
516.961	17.4
517.16	17.75
517.359	17.65
517.559	17.53
517.758	17.38
517.957	17.34
518.156	17.31
518.355	17.56
518.554	17.65
518.753	17.49
518.952	17.53
519.151	17.62
519.35	17.8
519.549	17.8
519.748	18.05
519.947	18.23
520.146	18.27
520.345	18.5
520.544	18.21
520.743	18.35
520.942	18.59
521.141	18.46
521.339	18.43
521.538	18.44
521.737	18.55
521.936	18.58
522.135	18.72
522.333	19.03
522.532	19.18
522.731	19.38
522.93	19.61
523.129	19.72
523.327	20.07
523.526	20.27
523.725	20.12
523.923	20.29
524.122	20.14
524.321	20.29
524.519	20.23
524.718	20.03
524.917	20.22
525.115	20.21
525.314	20.22
525.512	20.15
525.711	20.25
525.909	20.39
526.108	20.41
526.306	20.37
526.505	20.37
526.703	20.33
526.902	20.44
527.1	20.51
527.299	20.52
527.497	20.53
527.696	20.54
527.894	20.56
528.092	20.54
528.291	20.57
528.489	20.77
528.688	20.76
528.886	20.87
529.084	20.93
529.283	21.11
529.481	21.28
529.679	21.5
529.877	21.75
530.076	21.81
530.274	22.05
530.472	22.05
530.67	22.11
530.869	22.53
531.067	22.67
531.265	22.82
531.463	22.92
531.661	23.02
531.859	23.04
532.057	23.06
532.255	23.24
532.454	23.28
532.652	23.41
532.85	23.56
533.048	23.51
533.246	23.69
533.444	23.95
533.642	23.95
533.84	24.27
534.038	24.56
534.236	24.68
534.434	24.85
534.632	25.14
534.83	25.45
535.027	25.65
535.225	25.75
535.423	26.1
535.621	26.32
535.819	26.3
536.017	26.09
536.215	26.12
536.412	26.26
536.61	26.22
536.808	26.22
537.006	26.18
537.203	26.29
537.401	26.52
537.599	26.32
537.797	25.93
537.994	26.07
538.192	26.4
538.39	26.22
538.587	26.35
538.785	26.42
538.983	26.58
539.18	26.92
539.378	26.89
539.575	26.74
539.773	26.87
539.97	27.09
540.168	27.26
540.366	27.18
540.563	27.36
540.761	27.27
540.958	27.3
541.155	27.32
541.353	27.14
541.55	27.15
541.748	27.28
541.945	27.37
542.143	27.52
542.34	27.58
542.537	27.75
542.735	27.9
542.932	28.2
543.129	28.45
543.327	28.57
543.524	28.78
543.721	28.87
543.919	29.16
544.116	29.15
544.313	29.16
544.51	29.28
544.708	29.55
544.905	29.69
545.102	29.67
545.299	29.71
545.496	29.87
545.693	30.13
545.891	30.3
546.088	30.01
546.285	30.12
546.482	30.28
546.679	30.35
546.876	30.03
547.073	30.14
547.27	30.27
547.467	30.31
547.664	30.41
547.861	30.6
548.058	30.85
548.255	31.16
548.452	31.4
548.649	31.69
548.846	32.16
549.043	32.42
549.24	32.42
549.437	32.13
549.633	32.36
549.83	32.76
550.027	32.64
550.224	32.51
550.421	32.95
550.618	32.89
550.814	32.22
551.011	31.85
551.208	31.72
551.405	31.52
551.601	31.35
551.798	31.28
551.995	31.23
552.191	30.96
552.388	31.41
552.585	31.51
552.781	31.32
552.978	32.05
553.175	31.95
553.371	32.16
553.568	32.18
553.764	32.8
553.961	33.02
554.157	32.71
554.354	32.91
554.55	32.84
554.747	32.85
554.943	33.45
555.14	33.41
555.336	33.3
555.533	33.75
555.729	33.87
555.926	33.85
556.122	33.74
556.318	34.26
556.515	34.72
556.711	34.88
556.907	34.91
557.104	34.7
557.3	34.63
557.496	34.71
557.693	34.32
557.889	34.56
558.085	34.63
558.281	34.96
558.478	34.58
558.674	34.64
558.87	34.72
559.066	34.49
559.262	34.62
559.459	34.43
559.655	34.71
559.851	34.87
560.047	35.03
560.243	34.87
560.439	34.49
560.635	34.92
560.831	34.73
561.027	34.39
561.223	34.58
561.419	34.4
561.615	34.51
561.811	34.19
562.007	34.14
562.203	34.03
562.399	34.17
562.595	34.22
562.791	34.12
562.987	34.14
563.183	33.98
563.379	33.75
563.575	34.17
563.771	34.48
563.966	34.79
564.162	34.71
564.358	35.1
564.554	34.9
564.75	35.17
564.945	34.92
565.141	35.54
565.337	35.73
565.533	36.34
565.728	35.71
565.924	35.55
566.12	35.84
566.315	35.84
566.511	35.6
566.707	36.19
566.902	36.54
567.098	36.87
567.293	36.07
567.489	36.06
567.684	35.33
567.88	35.91
568.076	35.93
568.271	35.93
568.467	36.1
568.662	35.71
568.858	35.74
569.053	35.4
569.248	35.14
569.444	35.39
569.639	35.58
569.835	36.18
570.03	36.4
570.225	36.47
570.421	36.37
570.616	36.62
570.812	36.89
571.007	36.83
571.202	37.02
571.397	37.09
571.593	37.19
571.788	37.09
571.983	36.78
572.178	36.69
572.374	36.49
572.569	36.21
572.764	36.09
572.959	35.82
573.154	35.83
573.35	35.89
573.545	35.78
573.74	35.46
573.935	35.59
574.13	35.7
574.325	35.73
574.52	36
574.715	36.38
574.91	36.4
575.105	37.16
575.3	37.12
575.495	37
575.69	37.28
575.885	37.72
576.08	37.55
576.275	37.86
576.47	38.04
576.665	38.2
576.86	38.03
577.055	38.43
577.25	37.61
577.444	38.14
577.639	38.06
577.834	38.27
578.029	38.17
578.224	38.05
578.418	37.66
578.613	37.43
578.808	37.24
579.003	36.89
579.197	36.5
579.392	36.86
579.587	36.65
579.781	36.47
579.976	36.06
580.171	36.26
580.365	36.13
580.56	35.92
580.755	35.86
580.949	35.81
581.144	36.29
581.338	36.29
581.533	36.15
581.727	35.82
581.922	36.1
582.116	36.2
582.311	36.13
582.505	36.87
582.7	37.33
582.894	37.19
583.089	37.07
583.283	37.24
583.478	37.67
583.672	38.44
583.866	38.22
584.061	38.26
584.255	38.41
584.449	38.57
584.644	38.49
584.838	38.85
585.032	39.07
585.226	39.33
585.421	39.29
585.615	39.24
585.809	38.66
586.003	38.97
586.198	39.45
586.392	39.52
586.586	39.51
586.78	39.95
586.974	39.67
587.168	39.53
587.363	39.57
587.557	39.29
587.751	39.22
587.945	39.69
588.139	39.26
588.333	38.63
588.527	38.41
588.721	38.17
588.915	37.65
589.109	37.59
589.303	37.84
589.497	37.63
589.691	37.35
589.885	36.73
590.079	36.46
590.273	37.03
590.466	37.23
590.66	37.86
590.854	37.87
591.048	37.96
591.242	37.61
591.436	37.56
591.629	37.81
591.823	38.46
592.017	39.24
592.211	39.29
592.404	39.18
592.598	39.22
592.792	38.94
592.986	39.08
593.179	38.42
593.373	38.36
593.567	38.13
593.76	38.27
593.954	38.28
594.147	38.05
594.341	37.98
594.535	38.4
594.728	38.55
594.922	38.61
595.115	38.13
595.309	38.65
595.502	39.27
595.696	39.73
595.889	39.77
596.083	40.08
596.276	40.22
596.47	40.51
596.663	40.01
596.856	40.12
597.05	40.26
597.243	40.68
597.437	41.03
597.63	41.09
597.823	40.6
598.017	40.57
598.21	40.11
598.403	40.12
598.596	39.64
598.79	40.45
598.983	40.51
599.176	39.69
599.369	39.77
599.563	38.9
599.756	38.81
599.949	39.03
600.142	38.63
600.335	38.65
600.528	38.66
600.722	38.73
600.915	38.48
601.108	38.28
601.301	38.7
601.494	38.54
601.687	38.82
601.88	38.58
602.073	38.46
602.266	38.84
602.459	38.86
602.652	38.41
602.845	38.5
603.038	38.51
603.231	38.03
603.424	37.97
603.617	37.79
603.809	38.03
604.002	37.97
604.195	38.03
604.388	37.74
604.581	37.96
604.774	38.65
604.966	38.96
605.159	38.46
605.352	38.71
605.545	38.85
605.737	39.29
605.93	39.9
606.123	39.97
606.316	39.92
606.508	40.51
606.701	39.9
606.894	39.25
607.086	39.19
607.279	39.7
607.471	40.19
607.664	40.02
607.857	40.3
608.049	39.83
608.242	39.62
608.434	39.77
608.627	40.06
608.819	40.17
609.012	40.7
609.204	40.29
609.397	40.38
609.589	40.14
609.782	40.66
609.974	40.48
610.166	40.94
610.359	41.4
610.551	41.97
610.743	41.23
610.936	41.49
611.128	41.93
611.32	42.86
611.513	42.65
611.705	43.11
611.897	43.3
612.09	43.22
612.282	42.7
612.474	43.14
612.666	43.58
612.858	44.26
613.051	44.16
613.243	43.25
613.435	42.88
613.627	43.08
613.819	42.59
614.011	42.35
614.203	42.73
614.395	42.84
614.588	42.62
614.78	41.89
614.972	42.19
615.164	42.95
615.356	43.68
615.548	43.77
615.74	43.9
615.932	44.36
616.124	44.45
616.315	44.49
616.507	44.8
616.699	45.06
616.891	44.83
617.083	44.64
617.275	44.34
617.467	44.13
617.659	44.21
617.85	44.37
618.042	44.65
618.234	44.15
618.426	44.12
618.618	43.81
618.809	43.86
619.001	43.99
619.193	43.61
619.384	43.67
619.576	43.7
619.768	43.52
619.959	43.46
620.151	43.5
620.343	43.93
620.534	44.15
620.726	44.47
620.917	44.46
621.109	44.72
621.301	45.69
621.492	45.7
621.684	45.41
621.875	45.45
622.067	44.93
622.258	44.52
622.45	44.52
622.641	44.46
622.832	44.6
623.024	43.67
623.215	43.52
623.407	42.19
623.598	41.93
623.789	41.6
623.981	41.71
624.172	42.25
624.363	42.54
624.555	42.56
624.746	42.01
624.937	42.15
625.129	42.13
625.32	42.22
625.511	42.56
625.702	42.68
625.893	42.96
626.085	42.63
626.276	42.38
626.467	42.22
626.658	41.7
626.849	41.87
627.04	41.84
627.231	42.67
627.422	42.92
627.614	43.14
627.805	43.05
627.996	43.32
628.187	43.74
628.378	44.11
628.569	44.13
628.76	44.48
628.951	45.08
629.142	44.65
629.332	43.99
629.523	43.81
629.714	43.66
629.905	43.81
630.096	43.45
630.287	43.57
630.478	43.3
630.669	43.45
630.859	43.91
631.05	43.59
631.241	43.22
631.432	43.48
631.623	43.28
631.813	43.22
632.004	43.28
632.195	43.4
632.385	42.63
632.576	42.26
632.767	41.79
632.957	41.58
633.148	41.12
633.339	41.19
633.529	41.29
633.72	40.88
633.91	41.1
634.101	40.95
634.292	41.61
634.482	42.47
634.673	42.95
634.863	43.25
635.054	42.78
635.244	43.91
635.435	44.51
635.625	45.23
635.815	45.52
636.006	45.66
636.196	46.53
636.387	46.44
636.577	46.73
636.767	46.82
636.958	46.7
637.148	47.01
637.338	46.65
637.529	47.02
637.719	46.32
637.909	46.9
638.099	47.76
638.29	47.12
638.48	47.16
638.67	46.62
638.86	46.61
639.05	46.96
639.241	47.67
639.431	47.44
639.621	47.58
639.811	47.54
640.001	47.36
640.191	46.79
640.381	46.54
640.571	46.28
640.761	47.1
640.951	47.77
641.141	47.84
641.331	47.51
641.521	48.42
641.711	48.71
641.901	49.11
642.091	49.97
642.281	49.13
642.471	49.36
642.661	49.78
642.851	49.32
643.041	48.09
643.231	48.41
643.42	48.36
643.61	47.27
643.8	47.04
643.99	47.6
644.18	47.12
644.369	47.63
644.559	47.52
644.749	46.53
644.939	45.95
645.128	46.69
645.318	46.82
645.508	46.43
645.697	46.55
645.887	46.62
646.076	46.19
646.266	46.27
646.456	46.64
646.645	47.51
646.835	48.33
647.024	49.11
647.214	49.14
647.403	48.67
647.593	48.78
647.782	49.37
647.972	48.71
648.161	48.8
648.351	48.91
648.54	48.71
648.73	48.75
648.919	48.45
649.108	47.82
649.298	48.07
649.487	48.51
649.677	49.2
649.866	49.56
650.055	49.89
650.244	49.51
650.434	49.08
650.623	49.11
650.812	48.44
651.002	48.56
651.191	49.49
651.38	49.28
651.569	48.78
651.758	48.76
651.947	47.81
652.137	47.74
652.326	47.67
652.515	47.53
652.704	46.85
652.893	46.78
653.082	46.53
653.271	46.47
653.46	45.91
653.649	46.17
653.838	45.68
654.027	47.24
654.216	46.9
654.405	47.56
654.594	47.8
654.783	48.25
654.972	48.92
655.161	48.44
655.35	47.47
655.539	47.97
655.728	47.71
655.916	47.94
656.105	47.4
656.294	47.55
656.483	46.34
656.672	46.38
656.86	46.52
657.049	45.75
657.238	46.36
657.427	46.53
657.615	46.14
657.804	46.6
657.993	46.11
658.181	45.67
658.37	45.34
658.559	45.24
658.747	45.44
658.936	45.24
659.125	46.01
659.313	45.73
659.502	45.98
659.69	46.53
659.879	47.33
660.067	48.05
660.256	48.24
660.444	49.86
660.633	50.86
660.821	51.71
661.01	51.85
661.198	51
661.387	51.22
661.575	51.29
661.763	50.75
661.952	48.84
662.14	48.69
662.328	48.71
662.517	48.5
662.705	49.21
662.893	48.39
663.082	48.28
663.27	48.97
663.458	49.85
663.646	49.85
663.834	49.21
664.023	49.84
664.211	49.04
664.399	49.21
664.587	49.4
664.775	48.36
664.963	48.44
665.152	49.43
665.34	49.32
665.528	49.03
665.716	48.91
665.904	50.04
666.092	49.66
666.28	50.79
666.468	49.92
666.656	48.73
666.844	49.45
667.032	49.05
667.22	48.54
667.408	48.24
667.596	48.75
667.784	49.52
667.971	50.83
668.159	51
668.347	50.47
668.535	50.86
668.723	50.12
668.911	49.15
669.098	47.97
669.286	47.68
669.474	48.82
669.662	47.27
669.849	45.58
670.037	44.35
670.225	45.02
670.413	44.7
670.6	44.04
670.788	45.53
670.976	46.58
671.163	47.4
671.351	47.79
671.538	47.6
671.726	48.74
671.913	50.47
672.101	50.21
672.289	50
672.476	50.78
672.664	51.48
672.851	50.66
673.039	51.25
673.226	51.82
673.413	51.49
673.601	51.19
673.788	50.28
673.976	48.75
674.163	48.98
674.35	49.01
674.538	48.89
674.725	47.79
674.912	47.29
675.1	46.48
675.287	47.05
675.474	46.98
675.662	46.59
675.849	46.76
676.036	47.07
676.223	46.37
676.411	46.87
676.598	46.62
676.785	48.38
676.972	49.18
677.159	48.82
677.346	47.7
677.533	48.58
677.721	48.68
677.908	48.61
678.095	49.4
678.282	49.9
678.469	48.97
678.656	49.27
678.843	48.76
679.03	48.66
679.217	48.85
679.404	49.37
679.591	49.23
679.778	50.01
679.964	50.65
680.151	50.04
680.338	50.07
680.525	50.61
680.712	50.64
680.899	50.83
681.086	50.86
681.272	51
681.459	51.55
681.646	50.94
681.833	49.99
682.02	50.43
682.206	51.43
682.393	50.97
682.58	50.68
682.766	53.31
682.953	53.56
683.14	54.5
683.326	55.05
683.513	55.55
683.7	56.85
683.886	57.74
684.073	58.23
684.259	57.73
684.446	58.18
684.632	58.9
684.819	55.54
685.005	55.69
685.192	54.55
685.378	54.62
685.565	53.51
685.751	51.78
685.938	50.8
686.124	49.39
686.31	49.28
686.497	49.3
686.683	49.45
686.87	50.56
687.056	50.59
687.242	50.35
687.429	50.2
687.615	50
687.801	51.94
687.987	52.47
688.174	52.93
688.36	52.78
688.546	53.38
688.732	52.84
688.918	51.48
689.105	51.81
689.291	52.99
689.477	52.54
689.663	52.69
689.849	51.75
690.035	51.18
690.221	51.58
690.407	52.57
690.593	53.38
690.779	53.9
690.965	56.34
691.151	55.55
691.337	56.19
691.523	56.71
691.709	56.75
691.895	57.8
692.081	58.05
692.267	57.85
692.453	57.49
692.639	56.84
692.825	55.86
693.011	55.06
693.196	55.68
693.382	54.29
693.568	54.65
693.754	56.06
693.94	55.33
694.125	55.63
694.311	54.95
694.497	54.98
694.682	54.42
694.868	54.9
695.054	54.24
695.239	55.37
695.425	55.62
695.611	54.45
695.796	52.97
695.982	52.07
696.168	52.55
696.353	53
696.539	52.8
696.724	51.87
696.91	51.83
697.095	51.88
697.281	51.14
697.466	50.53
697.652	50.98
697.837	51.23
698.023	51.75
698.208	51.64
698.393	51.9
698.579	51.98
698.764	51.91
698.949	51.25
699.135	50.85
699.32	50.89
699.505	51.67
699.691	51.46
699.876	51.16
700.061	51.06
700.246	50.57
700.432	50.44
700.617	50.36
700.802	50.8
700.987	51.61
701.172	53.22
701.358	51.63
701.543	51.69
701.728	53.18
701.913	53.58
702.098	54.49
702.283	54.42
702.468	54.55
702.653	54.79
702.838	56.18
703.023	57.49
703.208	56.08
703.393	57.56
703.578	56.95
703.763	56.31
703.948	56.14
704.133	55.97
704.318	56.76
704.503	55.3
704.688	55.14
704.873	54.11
705.057	53.77
705.242	54.33
705.427	55.04
705.612	55.66
705.797	54.96
705.981	55.76
706.166	57.77
706.351	57.77
706.536	59.86
706.72	59.23
706.905	60.06
707.09	60.64
707.274	60.3
707.459	59.05
707.644	60.04
707.828	59.77
708.013	59.54
708.197	56.65
708.382	55.95
708.567	55.09
708.751	56.04
708.936	55.52
709.12	55.66
709.305	55.86
709.489	55.96
709.673	53.97
709.858	54.48
710.042	54
710.227	55.02
710.411	55.42
710.596	55.27
710.78	55.21
710.964	55.93
711.149	55.11
711.333	54.93
711.517	53.94
711.702	55.42
711.886	55.08
712.07	56.93
712.254	56.46
712.438	57.08
712.623	55.9
712.807	56.08
712.991	57.56
713.175	58.25
713.359	59.21
713.544	59.61
713.728	59.79
713.912	59.98
714.096	59.61
714.28	58.5
714.464	57.23
714.648	58.38
714.832	58.81
715.016	57.83
715.2	56.93
715.384	56.15
715.568	58.11
715.752	56.8
715.936	56.52
716.12	54.74
716.304	55.6
716.488	55.83
716.671	57.05
716.855	57.36
717.039	55.64
717.223	56.13
717.407	55.79
717.59	54.77
717.774	57.44
717.958	57.53
718.142	58.43
718.325	59.38
718.509	61.11
718.693	61.79
718.877	60.7
719.06	63.24
719.244	63.1
719.428	65.18
719.611	65.53
719.795	63.19
719.978	65.62
720.162	65.49
720.345	65.06
720.529	65.3
720.713	63.55
720.896	65.04
721.08	64.97
721.263	65.6
721.446	64.79
721.63	64.73
721.813	66.53
721.997	65.06
722.18	65.62
722.364	65.86
722.547	65.56
722.73	66.33
722.914	64.15
723.097	62.89
723.28	62.85
723.464	62.12
723.647	62
723.83	60.9
724.013	61.14
724.197	62.67
724.38	63.69
724.563	62.91
724.746	63.48
724.929	63.26
725.112	64.73
725.296	63.49
725.479	62.77
725.662	64.26
725.845	63.34
726.028	63.83
726.211	63.37
726.394	64.36
726.577	63.45
726.76	60.55
726.943	60.65
727.126	60.27
727.309	59.91
727.492	59.65
727.675	58.85
727.858	60.24
728.041	58.16
728.224	57.33
728.407	54.11
728.589	54.86
728.772	56.41
728.955	58.32
729.138	58.38
729.321	57.98
729.503	58.68
729.686	58.98
729.869	57.41
730.052	59.61
730.234	61.43
730.417	63.28
730.6	63.43
730.782	64.25
730.965	63.19
731.148	63.25
731.33	64.89
731.513	65.12
731.695	65.04
731.878	66.1
732.061	65.38
732.243	64.16
732.426	63.02
732.608	64.13
732.791	63.8
732.973	63.97
733.156	63.18
733.338	64.17
733.52	64.18
733.703	63.78
733.885	65.43
734.068	65.09
734.25	65.49
734.432	67.33
734.615	65.65
734.797	64.81
734.979	65.87
735.162	65.7
735.344	63.28
735.526	64.48
735.708	64.55
735.891	63.58
736.073	63.86
736.255	63.8
736.437	61.94
736.619	63.81
736.802	63.25
736.984	62.85
737.166	62.57
737.348	63.94
737.53	64.05
737.712	62.48
737.894	60.61
738.076	60.12
738.258	60.03
738.44	60.22
738.622	58.28
738.804	61.19
738.986	59.42
739.168	62.44
739.35	62.52
739.532	60.27
739.714	62.17
739.896	64.8
740.078	64.85
740.259	63.23
740.441	63.68
740.623	64.96
740.805	62.62
740.987	65.51
741.168	62.35
741.35	61.27
741.532	63.82
741.714	64.18
741.895	61.21
742.077	61.7
742.259	64.76
742.44	65
742.622	64.13
742.804	65.99
742.985	65.34
743.167	67.19
743.348	66.95
743.53	66.68
743.711	67.27
743.893	70.29
744.075	70.32
744.256	66.87
744.438	67.44
744.619	67.66
744.8	66.22
744.982	65.86
745.163	65.5
745.345	67.6
745.526	67.25
745.707	66.96
745.889	65.52
746.07	66.85
746.252	70.88
746.433	70.01
746.614	71.23
746.795	73.42
746.977	76.78
747.158	76.23
747.339	77.85
747.52	76.58
747.702	76.71
747.883	79.72
748.064	79.94
748.245	78.31
748.426	81.83
748.607	79.68
748.788	78.24
748.97	74.9
749.151	75.6
749.332	75.27
749.513	75.25
749.694	75.89
749.875	73.65
750.056	72.54
750.237	73.89
750.418	72.08
750.599	76.28
750.78	73.83
750.96	74.23
751.141	73.16
751.322	71.72
751.503	72.52
751.684	71.22
751.865	67.15
752.046	68.27
752.226	64.51
752.407	62.39
752.588	61.55
752.769	64.68
752.949	63.71
753.13	63.86
753.311	63.75
753.492	63.62
753.672	63.62
753.853	70.75
754.034	67.46
754.214	70.46
754.395	70.77
754.575	67.21
754.756	65.67
754.937	65.5
755.117	64.97
755.298	68.1
755.478	66.99
755.659	67.12
755.839	65
756.02	67.14
756.2	65.89
756.381	69.06
756.561	71.96
756.741	73.6
756.922	77.41
757.102	75.16
757.283	70.74
757.463	72.77
757.643	71.12
757.823	71.45
758.004	69.2
758.184	69.01
758.364	66.66
758.545	67.27
758.725	65.91
758.905	63.96
759.085	66.39
759.265	67.8
759.446	67.31
759.626	69.35
759.806	68.76
759.986	70.09
760.166	70.23
760.346	70.18
760.526	67.48
760.706	67.88
760.886	65.54
761.066	66.19
761.246	66.57
761.426	67.03
761.606	64.89
761.786	63.56
761.966	64.25
762.146	62.46
762.326	63.12
762.506	62.37
762.686	62.04
762.866	62.9
763.046	62.59
763.225	61.88
763.405	61.22
763.585	62.78
763.765	64.59
763.945	64.57
764.124	65.78
764.304	65.73
764.484	65.88
764.664	65.73
764.843	67.08
765.023	67.09
765.203	66.51
765.382	66.88
765.562	66.81
765.741	66.57
765.921	66.06
766.101	67.32
766.28	67.9
766.46	68.75
766.639	69.64
766.819	69.51
766.998	72.1
767.178	72.83
767.357	72.85
767.537	71.21
767.716	70.66
767.896	73.26
768.075	71.64
768.254	70.07
768.434	72.56
768.613	73.79
768.792	74.58
768.972	71.54
769.151	73.02
769.33	72.51
769.51	74.96
769.689	74.92
769.868	73.02
770.047	74.77
770.226	77.73
770.406	78.88
770.585	79.41
770.764	76.89
770.943	78.31
771.122	80.18
771.301	81.39
771.48	81.87
771.66	82.73
771.839	83.02
772.018	84.8
772.197	83.83
772.376	83.92
772.555	83.05
772.734	86.75
772.913	87.22
773.092	83.64
773.271	80.7
773.449	83.91
773.628	84.37
773.807	84.93
773.986	84.93
774.165	83.13
774.344	82.69
774.523	83.97
774.701	81.79
774.88	80.72
775.059	80.87
775.238	80.42
775.417	77.91
775.595	78.93
775.774	78.85
775.953	74.81
776.131	76.64
776.31	72.77
776.489	69.21
776.667	68.43
776.846	71.31
777.025	73.84
777.203	76.89
777.382	75.89
777.56	74.38
777.739	72.49
777.917	76.95
778.096	76.88
778.274	79.53
778.453	81.91
778.631	83.3
778.81	82.76
778.988	83.57
779.166	87.55
779.345	86.36
779.523	87.45
779.702	91.5
779.88	88.92
780.058	86.64
780.237	84.51
780.415	85.42
780.593	84.49
780.771	84.28
780.95	81.01
781.128	76.67
781.306	80.22
781.484	82.51
781.662	84.13
781.841	83.37
782.019	84.67
782.197	87.54
782.375	84.82
782.553	86.63
782.731	87.7
782.909	89.31
783.087	93.99
783.265	93.9
783.443	91.27
783.621	86.76
783.799	93.4
783.977	95.3
784.155	90.17
784.333	94.56
784.511	94.29
784.689	92.97
784.867	89.98
785.045	86.72
785.223	85.24
785.4	86.03
785.578	90.52
785.756	85.65
785.934	85.05
786.112	89.83
786.289	88.8
786.467	87.31
786.645	86.88
786.823	90
787	88.72
787.178	88.34
787.356	84.69
787.533	81.94
787.711	81.93
787.889	77.42
788.066	72.31
788.244	70.84
788.421	69.2
788.599	69.25
788.776	68.11
788.954	69.47
789.131	68.05
789.309	72.13
789.486	73.57
789.664	76.01
789.841	80.93
790.019	85
790.196	87.64
790.373	90.31
790.551	88.58
790.728	89.87
790.906	85.33
791.083	84.66
791.26	80.55
791.437	80.76
791.615	80.39
791.792	78.08
791.969	74.76
792.146	72.74
792.324	72.21
792.501	76.41
792.678	79.91
792.855	82.02
793.032	89.82
793.209	92.94
793.387	95.2
793.564	92.94
793.741	97.98
793.918	102.12
794.095	104.48
794.272	102.64
794.449	97.45
794.626	95.57
794.803	100.4
794.98	91.13
795.157	88.67
795.334	84.38
795.511	86.13
795.688	79.99
795.864	81.67
796.041	78.6
796.218	78.97
796.395	83.14
796.572	82.76
796.749	83.62
796.925	82.73
797.102	84.56
797.279	84.74
797.456	78.25
797.632	81.9
797.809	77.94
797.986	78.11
798.162	80.56
798.339	83.67
798.516	84.61
798.692	77.67
798.869	83.18
799.046	82.54
799.222	88.53
799.399	89.04
799.575	89.25
799.752	89.71
799.928	90.42
800.105	91.65
800.281	84.81
800.458	84.92
800.634	88.23
800.811	86.76
800.987	85.72
801.163	80.93
801.34	85.11
801.516	84.41
801.692	86.83
801.869	88.12
802.045	86.67
802.221	90.18
802.398	88.52
802.574	90.13
802.75	90.47
802.926	91.83
803.103	92.69
803.279	93.55
803.455	94.61
803.631	92.67
803.807	95.58
803.983	96.7
804.16	97.57
804.336	97.77
804.512	98.36
804.688	95.67
804.864	96.21
805.04	95.6
805.216	98.71
805.392	103.03
805.568	105
805.744	99.78
805.92	98.19
806.096	97.78
806.272	101.2
806.448	98.63
806.623	99.47
806.799	104.29
806.975	98.76
807.151	95.99
807.327	87.75
807.503	84.05
807.678	80.8
807.854	82.6
808.03	86.47
808.206	86.22
808.381	89.4
808.557	91.69
808.733	87.28
808.908	94.3
809.084	93.42
809.26	100.71
809.435	103.62
809.611	112.44
809.787	111.53
809.962	106.87
810.138	105.33
810.313	101.65
810.489	108.1
810.664	109.28
810.84	112.77
811.015	115.02
811.191	111.3
811.366	117.17
811.542	115.08
811.717	117.57
811.892	124.19
812.068	122.62
812.243	129.52
812.419	115.01
812.594	119.32
812.769	115.46
812.944	115.88
813.12	114.27
813.295	109.46
813.47	111.77
813.645	111.25
813.821	103.32
813.996	103.65
814.171	97.78
814.346	103.86
814.521	98.34
814.697	96.79
814.872	99.63
815.047	95.78
815.222	93.29
815.397	87.48
815.572	83.31
815.747	86.06
815.922	85.76
816.097	86.27
816.272	86.66
816.447	93.39
816.622	92.09
816.797	88.2
816.972	88.99
817.147	86.29
817.322	91.94
817.496	90.23
817.671	89.67
817.846	90.43
818.021	84.38
818.196	80.57
818.371	74.75
818.545	75.87
818.72	77.3
818.895	79.94
819.069	83.59
819.244	77.5
819.419	73.89
819.594	69.88
819.768	65.9
819.943	65.79
820.117	63.69
820.292	62.23
820.467	60.01
820.641	56.93
820.816	55.98
820.99	53.34
821.165	51.88
821.339	51.36
821.514	51.19
821.688	51.11
821.863	50.56
822.037	50.2
822.212	50.41
822.386	50.46
822.56	50.15
822.735	49.85
822.909	50.36
823.084	50.9
823.258	50.73
823.432	50.53
823.606	50.84
823.781	51.19
823.955	52.24
824.129	51.62
824.303	50.98
824.478	52.26
824.652	52.33
824.826	51.75
825	52.7
825.174	53.28
825.348	53.28
825.523	52.89
825.697	52.84
825.871	52.28
826.045	52.62
826.219	51.92
826.393	52.45
826.567	52.58
826.741	54.46
826.915	53.75
827.089	55.43
827.263	58.08
827.437	58.42
827.611	58.78
827.784	58.88
827.958	60.6
828.132	62.56
828.306	61.52
828.48	62.82
828.654	63.33
828.827	65.55
829.001	68.27
829.175	70.45
829.349	73.88
829.522	75.75
829.696	80.43
829.87	80.12
830.044	86.05
830.217	88.21
830.391	92.13
830.565	93.06
830.738	92.71
830.912	92.68
831.085	87.07
831.259	86.37
831.432	87.12
831.606	84.52
831.779	81.16
831.953	76.47
832.126	76.15
832.3	73.22
832.473	71.93
832.647	66.82
832.82	64.49
832.994	65.56
833.167	65.2
833.34	61.83
833.514	59.8
833.687	60.38
833.86	61.35
834.034	60.51
834.207	59.92
834.38	59.91
834.553	62.35
834.727	65.49
834.9	64.45
835.073	63.78
835.246	66.04
835.419	65.2
835.593	66.36
835.766	67.5
835.939	70.81
836.112	71.5
836.285	70.51
836.458	73.18
836.631	72.95
836.804	77.06
836.977	81.02
837.15	84.37
837.323	94.3
837.496	89.63
837.669	82.26
837.842	79.96
838.015	87.64
838.188	96.79
838.361	95.8
838.533	92.32
838.706	92.57
838.879	86.47
839.052	86.93
839.225	86.17
839.398	96.52
839.57	101.99
839.743	101.2
839.916	101.22
840.088	100.56
840.261	114.04
840.434	111.14
840.607	112.77
840.779	126.37
840.952	124.77
841.124	131.19
841.297	128.63
841.47	128.49
841.642	136.94
841.815	134.61
841.987	140
842.16	124.35
842.332	134.13
842.505	127.79
842.677	121.59
842.85	132.27
843.022	127.1
843.194	120.14
843.367	121.64
843.539	122.34
843.712	125.72
843.884	124.18
844.056	130.3
844.229	124.58
844.401	139.24
844.573	147.6
844.745	140.01
844.918	161.71
845.09	166.69
845.262	191.07
845.434	196.21
845.606	197.19
845.779	198.14
845.951	180.63
846.123	185.5
846.295	185.22
846.467	197.89
846.639	204.93
846.811	198.78
846.983	187.41
847.155	175.17
847.327	169.09
847.499	172.39
847.671	174.52
847.843	159.35
848.015	158.08
848.187	150.62
848.359	155.62
848.531	159.53
848.703	138.21
848.875	156.03
849.047	153.97
849.218	156.44
849.39	152.9
849.562	156.91
849.734	203.02
849.905	191.41
850.077	206.21
850.249	184.71
850.421	160.85
850.592	179.46
850.764	170.29
850.936	157.5
851.107	143.76
851.279	143.99
851.451	135.02
851.622	135.42
851.794	151.4
851.965	157.21
852.137	157.71
852.308	168.82
852.48	171.8
852.651	171.98
852.823	172.28
852.994	182.32
853.166	176.94
853.337	198.79
853.509	200.08
853.68	177.8
853.851	166.42
854.023	160.21
854.194	144.58
854.365	153.74
854.537	139.52
854.708	148.11
854.879	142.29
855.05	165.18
855.222	138.08
855.393	143.74
855.564	157.31
855.735	162.7
855.906	169.76
856.078	180.75
856.249	148.89
856.42	158.09
856.591	161.09
856.762	169.38
856.933	169.35
857.104	172.97
857.275	157.1
857.446	143.02
857.617	133.77
857.788	132.26
857.959	130.61
858.13	162.88
858.301	165.84
858.472	154.05
858.643	151.86
858.814	147.92
858.985	183.48
859.155	238.86
859.326	267.44
859.497	325.61
859.668	500.3
859.839	473.76
860.009	315.3
860.18	354.56
860.351	349.26
860.522	302.73
860.692	266.71
860.863	213.26
861.034	187.82
861.204	172.96
861.375	150.47
861.546	134.42
861.716	122.3
861.887	134.69
862.057	142.73
862.228	149.75
862.398	146.44
862.569	154.32
862.739	181.06
862.91	171.26
863.08	164.43
863.251	178.05
863.421	179.11
863.592	223.35
863.762	205.19
863.932	180.23
864.103	177.73
864.273	181.98
864.443	175.31
864.614	168.56
864.784	182.3
864.954	209.66
865.125	232.54
865.295	228.04
865.465	255.62
865.635	270.73
865.805	259.15
865.976	258.36
866.146	228.84
866.316	259.97
866.486	336.78
866.656	313.53
866.826	340.77
866.996	274.7
867.166	361.59
867.336	281.8
867.506	207.68
867.676	193.82
867.846	186.57
868.016	195.99
868.186	168.5
868.356	144.99
868.526	147.72
868.696	129.47
868.866	133.23
869.036	132.97
869.206	131.48
869.376	136.26
869.545	144.67
869.715	144.7
869.885	137.93
870.055	152
870.224	136.31
870.394	147.35
870.564	183.35
870.734	170.23
870.903	178
871.073	180.21
871.243	198.74
871.412	205.76
871.582	204.74
871.751	206.51
871.921	211.57
872.091	266.94
872.26	207.12
872.43	176.1
872.599	183.53
872.769	185.68
872.938	198.1
873.108	173.93
873.277	161.24
873.446	161.11
873.616	178.49
873.785	176.2
873.955	172.95
874.124	164.23
874.293	159.86
874.463	146.53
874.632	142.45
874.801	149.28
874.971	146.09
875.14	178.55
875.309	165.36
875.478	136.8
875.647	123.18
875.817	126.19
875.986	142.22
876.155	147.55
876.324	158.24
876.493	133.5
876.662	122.72
876.831	125.53
877	112.03
877.17	112.66
877.339	124.69
877.508	140.26
877.677	136.38
877.846	124.59
878.015	122.24
878.184	107.11
878.352	121.37
878.521	123.93
878.69	120.62
878.859	112.2
879.028	113.74
879.197	104.82
879.366	94.86
879.534	85.67
879.703	74.07
879.872	73.31
880.041	70.59
880.21	63.78
880.378	54.73
880.547	53.1
880.716	53.66
880.884	51.51
881.053	50.05
881.222	50.31
881.39	51.73
881.559	52.56
881.727	51.29
881.896	49.5
882.065	50.78
882.233	53.77
882.402	53.23
882.57	55.4
882.739	55.39
882.907	57.14
883.076	56.03
883.244	55.15
883.412	56.65
883.581	57.65
883.749	62.2
883.918	62.97
884.086	65.14
884.254	67.09
884.423	73.35
884.591	74.09
884.759	76.64
884.927	85.35
885.096	94.12
885.264	99.67
885.432	105.51
885.6	108.32
885.769	115.94
885.937	126.81
886.105	144.78
886.273	134.85
886.441	144.27
886.609	146.39
886.777	124.99
886.945	125.77
887.113	124.79
887.281	119.05
887.449	125.19
887.617	118.63
887.785	111.1
887.953	107.2
888.121	114.73
888.289	118.33
888.457	119.27
888.625	139.04
888.793	133.02
888.961	144.86
889.129	153.85
889.296	148.89
889.464	160.99
889.632	174.83
889.8	190.23
889.967	162.76
890.135	153.29
