Data from JASIL_3303_Reflection_2.txt Node
Date: Tue Nov 17 19:46:00 EST 2015
User: Geneva
Spectrometer: USB4E03002
Autoset integration time: false
Trigger mode: 4
Integration Time (sec): 1.000000E-1
Scans to average: 10
Electric dark correction enabled: false
Nonlinearity correction enabled: false
Boxcar width: 5
Stray light correction enabled: false
XAxis mode: Wavelengths
Stop averaging: false
Number of Pixels in Spectrum: 3648
>>>>>Begin Spectral Data<<<<<
177.575	-243.56
177.794	-313.04
178.014	-335.96
178.233	-564.15
178.452	-438.33
178.672	-324.41
178.891	-729.31
179.11	3140
179.33	802.17
179.549	821.57
179.768	-3990.91
179.987	421.21
180.207	204.92
180.426	232.19
180.645	296
180.864	2429.41
181.084	248.8
181.303	185.27
181.522	295.4
181.741	241.01
181.96	306.06
182.179	1447.06
182.398	-24.68
182.618	15.92
182.837	-14.76
183.056	-8.74
183.275	8.89
183.494	23.14
183.713	33.62
183.932	20.04
184.151	29.86
184.37	15.01
184.589	1.81
184.808	-9.94
185.027	-15.5
185.246	-58.17
185.465	-43.03
185.684	-59.7
185.903	-84.47
186.122	-191.67
186.341	-369.03
186.56	-319.05
186.779	-1800
186.998	-174.6
187.216	-187.78
187.435	-218.18
187.654	-218.79
187.873	-223.21
188.092	-277.56
188.311	-354.29
188.53	-190.22
188.748	-77.09
188.967	-87.21
189.186	-39.27
189.405	-157.63
189.623	-155.63
189.842	-139.39
190.061	-105.41
190.28	-40.82
190.498	-67.84
190.717	-48.43
190.936	-83.12
191.154	-177.47
191.373	-286.21
191.592	876.74
191.81	313.59
192.029	288.42
192.248	196.57
192.466	249.72
192.685	149.68
192.904	324.75
193.122	209.89
193.341	185.71
193.559	279.1
193.778	338.12
193.996	272.04
194.215	731.88
194.433	327.86
194.652	249.65
194.87	120.62
195.089	40
195.307	43.86
195.526	-104.08
195.744	-100
195.963	-308
196.181	-408.26
196.399	-622.99
196.618	873.68
196.836	572.34
197.055	623.65
197.273	676.12
197.491	746.85
197.71	367.46
197.928	324.83
198.146	365.41
198.365	1716.67
198.583	1184.13
198.801	-520.97
199.019	-143.6
199.238	-101.03
199.456	-68.48
199.674	-138.46
199.892	-104.88
200.111	-109.15
200.329	-83.33
200.547	-80.45
200.765	843.14
200.983	-287.18
201.202	598.68
201.42	204.64
201.638	161.04
201.856	227.35
202.074	258
202.292	201.79
202.51	167.27
202.728	264.52
202.946	2028.57
203.165	1088.46
203.383	276.9
203.601	359.39
203.819	560
204.037	-1060.61
204.255	-1855.56
204.473	-405.59
204.691	-347.06
204.909	-196.02
205.127	-814.58
205.345	314.55
205.562	-275.97
205.78	-5.67
205.998	18.92
206.216	37.53
206.434	16.49
206.652	36.7
206.87	107.78
207.088	61.9
207.306	-28.9
207.523	-69.68
207.741	-63.5
207.959	-106.76
208.177	-172.02
208.395	-203.92
208.612	-273.15
208.83	-189.78
209.048	-172.89
209.266	-148.9
209.483	-66.99
209.701	-44.89
209.919	-19.32
210.136	7.23
210.354	-27.61
210.572	-43.48
210.79	-101.67
211.007	-208.45
211.225	-3060
211.442	727.12
211.66	2448
211.878	234.22
212.095	856.02
212.313	1343.22
212.53	772.51
212.748	631.08
212.966	464.06
213.183	536.19
213.401	-5672.22
213.618	-353.57
213.836	-339.59
214.053	-409.63
214.271	-311.54
214.488	-25
214.705	21.76
214.923	5.93
215.14	12.47
215.358	2.54
215.575	-19.82
215.793	-80.74
216.01	-252.13
216.227	-394.83
216.445	-347.92
216.662	-147.41
216.879	-160.43
217.097	-114.24
217.314	-94.94
217.531	5937.5
217.749	470.3
217.966	170.88
218.183	150.52
218.4	161.94
218.618	169.74
218.835	105.22
219.052	94.49
219.269	111.11
219.487	91.8
219.704	103.26
219.921	117.04
220.138	140.92
220.355	143.58
220.572	128.25
220.79	118.13
221.007	159.24
221.224	198.86
221.441	218.18
221.658	223.93
221.875	-582.86
222.092	-331.82
222.309	675.76
222.526	152.12
222.743	165.22
222.96	161.15
223.177	555.81
223.394	414.47
223.611	224.48
223.828	136.4
224.045	100.98
224.262	92.66
224.479	74.38
224.696	67.79
224.913	67.77
225.13	-9.43
225.347	58.62
225.564	22.61
225.781	11.45
225.997	32.13
226.214	32.87
226.431	41.2
226.648	35.22
226.865	28.23
227.082	25.28
227.298	25.72
227.515	18.82
227.732	18.41
227.949	15.47
228.165	14.43
228.382	8.13
228.599	9.9
228.816	4.28
229.032	8.7
229.249	15.4
229.466	23.19
229.682	18.55
229.899	27.04
230.116	29.18
230.332	39.41
230.549	42.1
230.765	41.69
230.982	40.25
231.199	42.77
231.415	31.26
231.632	25.67
231.848	12.22
232.065	21.88
232.281	10.99
232.498	23.53
232.714	12.89
232.931	14.55
233.147	25.13
233.364	32.86
233.58	45.57
233.797	55.97
234.013	68.96
234.23	79.37
234.446	87.22
234.662	115.56
234.879	124.67
235.095	113.4
235.312	101.89
235.528	80.53
235.744	46.72
235.961	16.92
236.177	30.64
236.393	14.2
236.61	29.05
236.826	22.36
237.042	-2
237.258	0.67
237.475	26.13
237.691	13.27
237.907	16
238.123	42.72
238.339	48.01
238.556	52.06
238.772	47.74
238.988	42.98
239.204	34.29
239.42	41.6
239.636	33.29
239.853	31.1
240.069	30.26
240.285	27.43
240.501	22.6
240.717	20.52
240.933	17.61
241.149	17.18
241.365	14.42
241.581	13.71
241.797	15.84
242.013	17.37
242.229	14.34
242.445	11.5
242.661	16.68
242.877	22.38
243.093	26.93
243.309	25.6
243.525	24.94
243.741	28.2
243.957	30.37
244.173	28.2
244.388	29.25
244.604	29.82
244.82	27.21
245.036	24.07
245.252	19.95
245.468	17.59
245.683	18.84
245.899	16.89
246.115	16.47
246.331	15.6
246.547	15.77
246.762	13.87
246.978	11.77
247.194	13.46
247.409	12.26
247.625	11.67
247.841	11.59
248.057	10.2
248.272	10.59
248.488	10.59
248.703	10.33
248.919	10.27
249.135	13.01
249.35	13.07
249.566	16.39
249.782	17.87
249.997	22.47
250.213	21.95
250.428	25.67
250.644	26.69
250.859	21.71
251.075	19.86
251.29	17.43
251.506	17.92
251.721	21.37
251.937	17.52
252.152	20.67
252.368	15.99
252.583	14.16
252.798	7.72
253.014	6.2
253.229	9
253.445	15.01
253.66	21.84
253.875	16.33
254.091	15.18
254.306	13.52
254.521	1.71
254.737	2.53
254.952	6.53
255.167	16.03
255.383	13.14
255.598	16.6
255.813	13.42
256.028	7.19
256.244	5.52
256.459	5.46
256.674	9.28
256.889	9.12
257.104	8.68
257.32	5.22
257.535	2.29
257.75	5.24
257.965	3.26
258.18	1.86
258.395	2.7
258.61	4.51
258.826	3.99
259.041	3.13
259.256	3.61
259.471	2.85
259.686	4.41
259.901	4.76
260.116	5.29
260.331	4.89
260.546	7.62
260.761	7.41
260.976	9.12
261.191	9.12
261.406	10.42
261.621	10.59
261.836	12.2
262.05	10.9
262.265	11.69
262.48	7.25
262.695	11.41
262.91	7.06
263.125	5.23
263.34	-1.96
263.555	-4.16
263.769	-6.79
263.984	-7.75
264.199	-3.66
264.414	2.18
264.629	3.63
264.843	8.97
265.058	7.44
265.273	7.01
265.488	11.99
265.702	15.49
265.917	18.12
266.132	15.68
266.346	20.26
266.561	21.89
266.776	19.52
266.99	18.97
267.205	17.76
267.42	18.88
267.634	18.79
267.849	15.52
268.063	12.13
268.278	10.68
268.492	15.77
268.707	14.93
268.922	13.43
269.136	16.03
269.351	11.94
269.565	12.99
269.78	12.27
269.994	14.37
270.209	14.71
270.423	13.05
270.637	12.32
270.852	8.78
271.066	7.92
271.281	7.85
271.495	5.53
271.709	7.74
271.924	8.5
272.138	9.23
272.353	7.36
272.567	7.45
272.781	9.12
272.996	10.08
273.21	10.84
273.424	8.68
273.638	9.91
273.853	14.02
274.067	13.5
274.281	10.05
274.495	11.25
274.71	14.43
274.924	13.82
275.138	13.9
275.352	12.01
275.566	13.62
275.781	13.22
275.995	10.43
276.209	5.64
276.423	4.25
276.637	4.44
276.851	1.22
277.065	-2.97
277.279	-3.68
277.493	-4.06
277.707	-3.3
277.921	-4.58
278.135	3.93
278.349	4.17
278.563	3.6
278.777	5.11
278.991	5.92
279.205	9.31
279.419	9.97
279.633	12.07
279.847	13.18
280.061	10.16
280.275	12.8
280.489	7.99
280.703	8.84
280.917	11.36
281.131	10.96
281.344	11.74
281.558	8.76
281.772	9.9
281.986	9.47
282.2	9.12
282.414	11.42
282.627	8.59
282.841	9.57
283.055	7.3
283.269	6.05
283.482	6.62
283.696	6.62
283.91	8.1
284.123	7.66
284.337	7.78
284.551	7.12
284.764	7.55
284.978	8.37
285.192	6.6
285.405	7.44
285.619	8.88
285.833	11
286.046	10.54
286.26	9.45
286.473	10.39
286.687	9.33
286.9	10.29
287.114	10.56
287.327	9.72
287.541	11.56
287.754	13.28
287.968	12.43
288.181	9.04
288.395	9.39
288.608	9.53
288.822	8.55
289.035	9.57
289.248	10.31
289.462	9.82
289.675	10.49
289.889	10.1
290.102	7.23
290.315	6.24
290.529	7.38
290.742	4.58
290.955	6.17
291.169	6.42
291.382	4.96
291.595	3.68
291.808	4.12
292.022	4.1
292.235	3.44
292.448	6.04
292.661	7.34
292.875	8.37
293.088	11.76
293.301	10.48
293.514	8.7
293.727	9.29
293.94	8.84
294.153	8.44
294.367	9.13
294.58	8.46
294.793	6.32
295.006	5.66
295.219	4.15
295.432	2.4
295.645	3.06
295.858	5.41
296.071	4.87
296.284	5.45
296.497	5.39
296.71	5.2
296.923	6.39
297.136	6.21
297.349	7.43
297.562	8.45
297.775	8.62
297.988	7.3
298.201	7.45
298.414	8.92
298.626	8.01
298.839	7.06
299.052	6.87
299.265	6.51
299.478	9.57
299.691	8.59
299.903	6.57
300.116	7.34
300.329	6.86
300.542	5.77
300.755	3.3
300.967	4.21
301.18	7.47
301.393	6.56
301.605	5.65
301.818	2.77
302.031	3.22
302.243	5.19
302.456	5.76
302.669	7.35
302.881	7.72
303.094	10.21
303.307	9.35
303.519	8.48
303.732	9.9
303.944	12.58
304.157	14.53
304.37	14.26
304.582	14.46
304.795	14.52
305.007	14.75
305.22	14.56
305.432	13.1
305.645	13.18
305.857	11.92
306.069	10.88
306.282	8.85
306.494	8.1
306.707	9.05
306.919	7.78
307.132	8.68
307.344	9.81
307.556	9.34
307.769	9.87
307.981	9.65
308.193	8.53
308.406	7.2
308.618	6.51
308.83	6.3
309.043	4.3
309.255	5.11
309.467	4.77
309.679	2.96
309.892	2.17
310.104	3.21
310.316	4.8
310.528	6.25
310.74	7.14
310.953	7.21
311.165	7.23
311.377	9.62
311.589	9.45
311.801	8.29
312.013	8.91
312.225	8.9
312.437	8.07
312.649	5.73
312.862	5.46
313.074	5.57
313.286	6.5
313.498	6.85
313.71	4.3
313.922	4.04
314.134	4.77
314.346	6.83
314.558	7.99
314.77	7.85
314.982	10.42
315.193	9.94
315.405	9.26
315.617	9.28
315.829	9.37
316.041	11.04
316.253	10.69
316.465	11
316.677	8.75
316.888	10.91
317.1	10.72
317.312	9.2
317.524	11.04
317.736	14.36
317.947	13.44
318.159	14.09
318.371	14.85
318.583	15.98
318.794	16.2
319.006	17.28
319.218	16.18
319.43	16.68
319.641	19.03
319.853	19.25
320.064	17.13
320.276	16.72
320.488	16.95
320.699	16.54
320.911	15.57
321.123	14.68
321.334	13.51
321.546	12.37
321.757	14.03
321.969	12.86
322.18	11.41
322.392	11.25
322.603	12.15
322.815	11.88
323.026	9.6
323.238	8.28
323.449	8.23
323.661	8.35
323.872	8.64
324.083	7.46
324.295	6.3
324.506	6.08
324.718	6.34
324.929	6.88
325.14	7.64
325.352	8.1
325.563	11.14
325.774	11.04
325.986	11.94
326.197	13
326.408	13.43
326.62	14.4
326.831	14.54
327.042	13.79
327.253	12.83
327.464	12.62
327.676	14.18
327.887	13.22
328.098	14.88
328.309	13.99
328.52	13.57
328.732	13.31
328.943	14.87
329.154	14.85
329.365	16.66
329.576	17.72
329.787	18.05
329.998	17.53
330.209	18.17
330.42	16.95
330.631	17.82
330.842	17.51
331.053	16.63
331.264	15.25
331.475	14.56
331.686	15.48
331.897	14.51
332.108	15.69
332.319	15.93
332.53	14.66
332.741	14.47
332.952	14
333.163	15.03
333.374	16.94
333.585	17.79
333.795	18.96
334.006	16.68
334.217	16.89
334.428	14.93
334.639	15.4
334.849	16.87
335.06	17.01
335.271	16.72
335.482	16.58
335.692	15.53
335.903	13.68
336.114	14.39
336.325	16.23
336.535	17.72
336.746	18.87
336.957	18.08
337.167	16.65
337.378	17.97
337.589	19.48
337.799	17.34
338.01	18.45
338.22	20.73
338.431	21.59
338.642	21.93
338.852	21.59
339.063	20.3
339.273	21.23
339.484	23.27
339.694	22.76
339.905	22.09
340.115	23.33
340.326	21.01
340.536	20.19
340.746	19.08
340.957	18.92
341.167	19.07
341.378	20.12
341.588	20.16
341.799	18.81
342.009	18.15
342.219	17.52
342.43	18.75
342.64	19.95
342.85	20.02
343.061	19.43
343.271	18.35
343.481	17.37
343.691	16.28
343.902	15.94
344.112	17.28
344.322	17.62
344.532	18.58
344.743	18.06
344.953	18.12
345.163	16.16
345.373	17.05
345.583	17.82
345.793	19.91
346.004	22.05
346.214	21.99
346.424	21.09
346.634	22.06
346.844	22.26
347.054	22.41
347.264	22.87
347.474	24.53
347.684	24.25
347.894	24
348.104	21.95
348.314	20.51
348.524	20.45
348.734	20.83
348.944	19.22
349.154	18.2
349.364	16.57
349.574	16.07
349.784	16.17
349.994	16.3
350.204	16.62
350.413	16.16
350.623	15.81
350.833	16.59
351.043	15.67
351.253	16.76
351.463	16.71
351.672	18.5
351.882	19.1
352.092	18.5
352.302	18.56
352.511	18.87
352.721	19.24
352.931	18.4
353.141	17.88
353.35	17.49
353.56	17.49
353.77	18.34
353.979	17.18
354.189	15.71
354.399	16.4
354.608	16.41
354.818	16.34
355.027	16.85
355.237	16.73
355.447	17.25
355.656	17.82
355.866	17.3
356.075	16.45
356.285	17.1
356.494	17.58
356.704	18.13
356.913	18.13
357.123	17.06
357.332	16.32
357.542	16.63
357.751	15.96
357.96	15.01
358.17	14.79
358.379	14.34
358.589	14.42
358.798	14.39
359.007	14.35
359.217	14.72
359.426	14.25
359.635	14.86
359.845	15.57
360.054	14.96
360.263	16.27
360.472	16.41
360.682	17.04
360.891	16.81
361.1	17.33
361.309	17.33
361.519	16.74
361.728	17.62
361.937	17.21
362.146	17.67
362.355	18.19
362.564	17.34
362.774	17.82
362.983	17.75
363.192	17.5
363.401	17.74
363.61	16.88
363.819	17.4
364.028	16.83
364.237	17.44
364.446	16.54
364.655	16.56
364.864	17.28
365.073	16.01
365.282	15.72
365.491	16.12
365.7	16.58
365.909	16.96
366.118	16.96
366.327	17.01
366.536	15.83
366.745	15.81
366.954	16.08
367.162	16.39
367.371	17.21
367.58	18.25
367.789	18.75
367.998	18.01
368.207	16.62
368.415	16.26
368.624	15.94
368.833	17.63
369.042	17.52
369.25	17.11
369.459	16.12
369.668	15.6
369.877	15.32
370.085	15.16
370.294	14.47
370.503	16.11
370.711	15.87
370.92	15.24
371.129	14.19
371.337	14.08
371.546	13.95
371.754	14.14
371.963	14.57
372.171	13.64
372.38	12.4
372.589	12.88
372.797	12.04
373.006	13.25
373.214	13.17
373.423	13.43
373.631	13.86
373.84	13.27
374.048	12.91
374.256	12.59
374.465	13.81
374.673	15.18
374.882	13.79
375.09	13.62
375.298	12.92
375.507	13.13
375.715	12.4
375.923	12.03
376.132	12.98
376.34	12.97
376.548	12.84
376.757	13.17
376.965	12.43
377.173	13.64
377.381	14.07
377.59	13.22
377.798	13.86
378.006	13.53
378.214	13.94
378.423	12.85
378.631	12.62
378.839	12.43
379.047	11.67
379.255	12.69
379.463	12.24
379.671	11.06
379.879	10.24
380.088	10.36
380.296	11.69
380.504	10.77
380.712	10.97
380.92	11.28
381.128	12.46
381.336	11.92
381.544	10.44
381.752	10.63
381.96	11.04
382.168	11.56
382.376	11.44
382.584	10.92
382.791	10.96
382.999	10.95
383.207	10.28
383.415	9.71
383.623	9.48
383.831	9.82
384.039	10.02
384.247	10.38
384.454	10.84
384.662	10.72
384.87	11.55
385.078	11.56
385.285	11.35
385.493	12.6
385.701	12.64
385.909	13.26
386.116	13.13
386.324	12.41
386.532	12.51
386.739	13.08
386.947	12.86
387.155	11.73
387.362	11.54
387.57	12.12
387.778	10.84
387.985	10.27
388.193	10.09
388.4	10.01
388.608	10.45
388.816	10.24
389.023	10.39
389.231	11.39
389.438	11.38
389.646	12.36
389.853	12.48
390.061	12.81
390.268	12.89
390.475	12.23
390.683	11.91
390.89	12.01
391.098	12.11
391.305	11.24
391.512	10.23
391.72	9.92
391.927	9.8
392.135	9.69
392.342	9.34
392.549	9.33
392.756	9.24
392.964	9.37
393.171	9.62
393.378	9.14
393.586	9.15
393.793	9.76
394	9.96
394.207	8.97
394.414	8.75
394.622	9.39
394.829	9.66
395.036	9.44
395.243	9.02
395.45	9.32
395.657	8.9
395.864	9.4
396.072	8.86
396.279	9.09
396.486	9.39
396.693	8.5
396.9	7.61
397.107	8.04
397.314	8.7
397.521	9.04
397.728	8.13
397.935	8.63
398.142	8.42
398.349	8.31
398.556	8.65
398.763	8.73
398.97	9.54
399.177	10.7
399.383	9.84
399.59	10.34
399.797	10.83
400.004	11.4
400.211	11.36
400.418	11.55
400.625	11.7
400.831	11.72
401.038	11.48
401.245	11.53
401.452	10.89
401.658	11.53
401.865	10.71
402.072	10.1
402.279	9.53
402.485	9.63
402.692	9.38
402.899	8.96
403.105	8.26
403.312	8.54
403.519	8.86
403.725	8.45
403.932	8.25
404.138	8.64
404.345	9.12
404.552	9.5
404.758	10.03
404.965	10.04
405.171	10.31
405.378	10.69
405.584	10.83
405.791	10.46
405.997	10.4
406.204	10.69
406.41	10.38
406.617	10.46
406.823	9.43
407.029	8.81
407.236	8.91
407.442	8.6
407.649	9.04
407.855	9.03
408.061	9.14
408.268	9.2
408.474	8.86
408.68	9.05
408.887	8.95
409.093	10.32
409.299	10.15
409.505	10.08
409.712	11.13
409.918	10.24
410.124	9.26
410.33	9.29
410.537	9.4
410.743	8.55
410.949	8.71
411.155	8.38
411.361	7.1
411.567	6.9
411.773	6.68
411.98	6.2
412.186	7
412.392	8.06
412.598	7.68
412.804	7.54
413.01	8.27
413.216	8.07
413.422	7.99
413.628	8.94
413.834	8.51
414.04	8.77
414.246	8.23
414.452	7.45
414.658	7
414.864	7.19
415.07	7.35
415.275	7.21
415.481	7.16
415.687	7.45
415.893	7.04
416.099	7.97
416.305	7.7
416.511	7.61
416.716	7.37
416.922	7.42
417.128	7.43
417.334	7.78
417.539	7.58
417.745	8.01
417.951	7.55
418.157	8.33
418.362	8.11
418.568	8.54
418.774	8.61
418.979	8.94
419.185	8.86
419.391	8.64
419.596	8.29
419.802	8.32
420.008	7.57
420.213	8.01
420.419	7.39
420.624	7.37
420.83	7
421.035	6.99
421.241	6.82
421.446	7.1
421.652	7.51
421.857	7.68
422.063	7.8
422.268	8.18
422.474	7.92
422.679	7.95
422.885	7.91
423.09	7.94
423.295	7.74
423.501	7.67
423.706	7.57
423.911	7.38
424.117	7.16
424.322	7.12
424.527	6.88
424.733	7.02
424.938	6.86
425.143	6.54
425.349	6.35
425.554	6.69
425.759	6.93
425.964	6.7
426.169	6.54
426.375	6.89
426.58	6.73
426.785	7.01
426.99	6.76
427.195	6.72
427.4	7.03
427.605	7.59
427.811	7.52
428.016	7.27
428.221	7.3
428.426	7.61
428.631	7.24
428.836	7.08
429.041	6.82
429.246	7.27
429.451	7.37
429.656	7.35
429.861	7.23
430.066	7.13
430.271	8.04
430.476	8.01
430.681	7.46
430.886	7.44
431.09	7.45
431.295	7.4
431.5	7.43
431.705	7.58
431.91	7.33
432.115	7.06
432.32	7.15
432.524	6.69
432.729	6.97
432.934	7.23
433.139	7.34
433.343	7.52
433.548	7.52
433.753	6.89
433.958	6.59
434.162	7.01
434.367	6.83
434.572	6.38
434.776	6.52
434.981	6.23
435.186	6.09
435.39	6.03
435.595	6
435.799	6.08
436.004	6.28
436.209	6.7
436.413	6.52
436.618	6.62
436.822	7.43
437.027	7.65
437.231	7.6
437.436	7.53
437.64	7.85
437.845	7.86
438.049	7.54
438.253	7.24
438.458	7.06
438.662	7.22
438.867	7.02
439.071	6.83
439.275	6.71
439.48	6.8
439.684	7.07
439.888	7.05
440.093	6.82
440.297	7.19
440.501	7.57
440.706	7.86
440.91	7.76
441.114	7.95
441.318	7.86
441.523	7.68
441.727	7.41
441.931	7.48
442.135	7.26
442.339	7.74
442.543	7.76
442.748	7.7
442.952	7.36
443.156	6.83
443.36	7.03
443.564	6.92
443.768	6.98
443.972	7.6
444.176	7.14
444.38	7.16
444.584	6.83
444.788	6.79
444.992	6.92
445.196	6.77
445.4	7.2
445.604	6.73
445.808	6.64
446.012	6.48
446.216	6.27
446.42	6.17
446.624	6.3
446.828	6.44
447.032	6.36
447.235	6.22
447.439	6.22
447.643	6.22
447.847	6.73
448.051	6.73
448.254	6.66
448.458	6.84
448.662	6.99
448.866	6.8
449.069	7.03
449.273	7.09
449.477	7.31
449.681	7.67
449.884	7.3
450.088	6.72
450.292	7.04
450.495	7.01
450.699	6.45
450.902	6.72
451.106	6.66
451.31	6.51
451.513	6.76
451.717	6.35
451.92	6.41
452.124	6.82
452.327	7.23
452.531	7.38
452.734	7.68
452.938	7.67
453.141	7.71
453.345	7.83
453.548	7.81
453.752	7.74
453.955	7.96
454.158	7.69
454.362	7.97
454.565	8.11
454.769	7.88
454.972	7.96
455.175	8.23
455.379	8.38
455.582	8.4
455.785	8.25
455.988	7.8
456.192	7.33
456.395	7.11
456.598	6.86
456.801	7.25
457.005	7.04
457.208	6.64
457.411	6.51
457.614	6.3
457.817	6.17
458.021	6.17
458.224	6.42
458.427	6.54
458.63	6.6
458.833	6.73
459.036	6.36
459.239	6.22
459.442	5.95
459.645	6.08
459.848	6.07
460.051	6.27
460.254	6.45
460.457	6.46
460.66	6.72
460.863	6.84
461.066	6.78
461.269	6.75
461.472	7.04
461.675	7.62
461.878	7.44
462.081	7.65
462.284	7.67
462.486	7.2
462.689	7.17
462.892	7.07
463.095	7.13
463.298	6.72
463.5	6.97
463.703	6.65
463.906	6.55
464.109	6.91
464.311	6.64
464.514	6.41
464.717	6.58
464.92	6.68
465.122	6.47
465.325	6.69
465.528	6.56
465.73	6.36
465.933	6.31
466.135	6.49
466.338	6.2
466.541	6.08
466.743	6.14
466.946	6.18
467.148	6.22
467.351	6.27
467.553	6.04
467.756	6.52
467.958	6.68
468.161	7.05
468.363	6.85
468.566	7.23
468.768	7.44
468.971	7.43
469.173	7.79
469.375	7.34
469.578	6.93
469.78	7.12
469.983	6.95
470.185	6.89
470.387	7.01
470.59	6.99
470.792	6.8
470.994	6.53
471.196	6.46
471.399	6.09
471.601	6.68
471.803	7.06
472.005	7.06
472.208	7.32
472.41	7.19
472.612	6.85
472.814	7.24
473.016	6.86
473.218	7.21
473.421	6.81
473.623	6.91
473.825	6.47
474.027	6.36
474.229	6.65
474.431	6.36
474.633	6.48
474.835	6.35
475.037	6.14
475.239	6.67
475.441	6.89
475.643	7.56
475.845	7.46
476.047	7.57
476.249	7.4
476.451	6.62
476.653	6.67
476.855	6.44
477.057	6.99
477.258	6.31
477.46	6.21
477.662	5.7
477.864	5.49
478.066	5.63
478.268	5.78
478.469	6.41
478.671	6.56
478.873	6.38
479.075	6.37
479.276	6.1
479.478	6.52
479.68	6.37
479.882	6.44
480.083	6.52
480.285	6.34
480.487	6.36
480.688	5.99
480.89	6.11
481.091	6.09
481.293	6.07
481.495	6.01
481.696	5.9
481.898	5.91
482.099	5.94
482.301	5.79
482.502	5.78
482.704	5.73
482.905	5.71
483.107	5.59
483.308	5.54
483.51	5.62
483.711	5.54
483.913	5.61
484.114	5.54
484.315	5.5
484.517	5.62
484.718	5.69
484.92	5.72
485.121	5.79
485.322	5.85
485.524	5.94
485.725	5.93
485.926	6
486.127	5.98
486.329	6.11
486.53	6.05
486.731	5.95
486.932	5.82
487.134	5.78
487.335	5.68
487.536	5.63
487.737	5.65
487.938	5.63
488.139	5.74
488.341	5.66
488.542	5.54
488.743	5.7
488.944	5.89
489.145	5.85
489.346	5.8
489.547	5.86
489.748	6
489.949	5.98
490.15	5.92
490.351	5.77
490.552	5.71
490.753	5.78
490.954	5.76
491.155	5.63
491.356	5.73
491.557	5.74
491.758	5.87
491.959	5.93
492.159	5.83
492.36	6.07
492.561	6.1
492.762	6.35
492.963	6.32
493.164	6.41
493.364	6.57
493.565	6.61
493.766	6.5
493.967	6.38
494.167	6.16
494.368	5.91
494.569	5.49
494.769	5.66
494.97	5.48
495.171	5.46
495.371	5.25
495.572	5.19
495.773	5.36
495.973	5.65
496.174	5.9
496.375	6.34
496.575	6.55
496.776	6.6
496.976	6.55
497.177	6.65
497.377	6.67
497.578	6.72
497.778	6.52
497.979	6.49
498.179	6.25
498.38	6.09
498.58	5.83
498.78	6.05
498.981	6.37
499.181	6.19
499.382	6.27
499.582	6.35
499.782	6.29
499.983	6.64
500.183	6.7
500.383	6.71
500.584	6.92
500.784	6.92
500.984	6.97
501.184	6.79
501.385	6.83
501.585	6.92
501.785	6.84
501.985	7.22
502.185	7.08
502.386	7.2
502.586	7.61
502.786	7.26
502.986	7.24
503.186	7.13
503.386	7.33
503.586	7.88
503.786	7.75
503.987	7.68
504.187	7.49
504.387	7.47
504.587	7.11
504.787	6.85
504.987	7.37
505.187	7.31
505.387	7.57
505.587	7.4
505.786	6.94
505.986	7.12
506.186	7.41
506.386	7.73
506.586	7.94
506.786	8.22
506.986	8.28
507.186	8.13
507.386	8.39
507.585	8.31
507.785	8.46
507.985	8.71
508.185	8.73
508.384	9.1
508.584	9.22
508.784	9.4
508.984	9.63
509.183	9.77
509.383	9.76
509.583	9.86
509.782	9.86
509.982	10.02
510.182	10.05
510.381	10.02
510.581	9.66
510.781	9.65
510.98	9.58
511.18	9.39
511.379	9.22
511.579	9.1
511.778	9.16
511.978	9.41
512.177	9.26
512.377	9.29
512.576	9.26
512.776	9.15
512.975	9.15
513.175	9.06
513.374	9.27
513.573	9.59
513.773	9.76
513.972	9.93
514.172	9.88
514.371	9.76
514.57	10.03
514.77	10.36
514.969	10.38
515.168	10.48
515.367	10.71
515.567	10.82
515.766	10.85
515.965	10.77
516.164	10.29
516.364	10.36
516.563	10.51
516.762	10.48
516.961	10.62
517.16	10.9
517.359	10.51
517.559	10.3
517.758	10.29
517.957	10.25
518.156	10.49
518.355	10.87
518.554	10.92
518.753	10.91
518.952	10.98
519.151	10.9
519.35	11.29
519.549	11.54
519.748	11.91
519.947	11.79
520.146	12.16
520.345	12.36
520.544	12.28
520.743	12.5
520.942	12.66
521.141	12.96
521.339	13.15
521.538	13.03
521.737	13.46
521.936	13.62
522.135	14.01
522.333	14.12
522.532	14.44
522.731	14.56
522.93	14.62
523.129	14.81
523.327	14.77
523.526	14.72
523.725	14.64
523.923	14.69
524.122	14.45
524.321	14.61
524.519	14.44
524.718	14.27
524.917	14.54
525.115	14.73
525.314	14.89
525.512	15.18
525.711	15.35
525.909	15.38
526.108	15.41
526.306	15.68
526.505	15.66
526.703	15.66
526.902	15.72
527.1	15.72
527.299	15.71
527.497	15.85
527.696	15.85
527.894	15.86
528.092	15.92
528.291	16.01
528.489	16.17
528.688	16.2
528.886	16.41
529.084	16.54
529.283	16.71
529.481	16.85
529.679	16.89
529.877	17.04
530.076	17.33
530.274	17.75
530.472	17.68
530.67	17.9
530.869	18.29
531.067	18.52
531.265	18.6
531.463	18.73
531.661	18.88
531.859	19.11
532.057	18.97
532.255	19.11
532.454	19.12
532.652	19.25
532.85	19.13
533.048	19.03
533.246	19.09
533.444	19.13
533.642	19.32
533.84	19.44
534.038	19.4
534.236	19.65
534.434	19.77
534.632	19.72
534.83	20.12
535.027	20.36
535.225	20.57
535.423	20.61
535.621	20.9
535.819	20.71
536.017	20.84
536.215	21
536.412	21.12
536.61	21.09
536.808	21.35
537.006	21.21
537.203	21.27
537.401	21.4
537.599	21.59
537.797	21.61
537.994	21.89
538.192	22.07
538.39	21.99
538.587	22.21
538.785	22.18
538.983	22.16
539.18	22.47
539.378	22.53
539.575	22.58
539.773	22.48
539.97	22.56
540.168	22.59
540.366	22.48
540.563	22.51
540.761	22.47
540.958	22.54
541.155	22.68
541.353	22.82
541.55	22.88
541.748	22.9
541.945	23.11
542.143	23.08
542.34	23.24
542.537	23.63
542.735	23.98
542.932	24.17
543.129	24.33
543.327	24.34
543.524	24.16
543.721	24.28
543.919	24.52
544.116	24.57
544.313	24.99
544.51	25.04
544.708	25.01
544.905	24.97
545.102	24.89
545.299	25.05
545.496	25.12
545.693	25.33
545.891	25.25
546.088	24.98
546.285	24.92
546.482	24.8
546.679	24.74
546.876	24.8
547.073	24.9
547.27	25.1
547.467	25.37
547.664	25.72
547.861	25.76
548.058	26.15
548.255	26.66
548.452	27.36
548.649	27.78
548.846	28.42
549.043	28.66
549.24	28.91
549.437	28.67
549.633	28.51
549.83	28.4
550.027	28.37
550.224	28.51
550.421	28.47
550.618	28.09
550.814	27.63
551.011	27.32
551.208	27.11
551.405	26.89
551.601	26.92
551.798	26.73
551.995	27
552.191	27.19
552.388	27.11
552.585	27.46
552.781	27.53
552.978	27.87
553.175	27.8
553.371	27.55
553.568	27.55
553.764	28.18
553.961	28.43
554.157	28.59
554.354	28.66
554.55	28.84
554.747	28.76
554.943	29.27
555.14	29.35
555.336	29.14
555.533	29.19
555.729	29.53
555.926	29.13
556.122	29.52
556.318	29.5
556.515	29.82
556.711	29.76
556.907	29.71
557.104	29.37
557.3	29.45
557.496	30.19
557.693	30.47
557.889	30.37
558.085	30.82
558.281	30.58
558.478	30.36
558.674	30.16
558.87	30.31
559.066	30.3
559.262	30.45
559.459	30.4
559.655	30.13
559.851	29.95
560.047	30.02
560.243	29.99
560.439	30.37
560.635	30.74
560.831	31.08
561.027	30.58
561.223	30.93
561.419	30.55
561.615	30.69
561.811	30.4
562.007	30.94
562.203	30.85
562.399	30.83
562.595	30.6
562.791	30.32
562.987	30.1
563.183	30.16
563.379	29.64
563.575	30.41
563.771	30.36
563.966	30.84
564.162	30.83
564.358	30.98
564.554	30.65
564.75	30.91
564.945	30.87
565.141	31.21
565.337	31.68
565.533	31.96
565.728	31.5
565.924	31.51
566.12	31.38
566.315	31.38
566.511	31.35
566.707	31.56
566.902	31.62
567.098	31.73
567.293	31.42
567.489	31.57
567.684	31.52
567.88	31.87
568.076	31.99
568.271	32.41
568.467	32.15
568.662	32.11
568.858	32.57
569.053	32.39
569.248	32.41
569.444	32.91
569.639	32.75
569.835	32.96
570.03	32.76
570.225	32.65
570.421	32.52
570.616	32.75
570.812	32.8
571.007	32.81
571.202	32.71
571.397	32.22
571.593	31.88
571.788	31.98
571.983	31.7
572.178	31.75
572.374	31.6
572.569	31.44
572.764	31.61
572.959	31.84
573.154	31.53
573.35	31.78
573.545	31.95
573.74	32.12
573.935	32.01
574.13	32.54
574.325	32.66
574.52	32.76
574.715	33.1
574.91	32.9
575.105	33.03
575.3	33.38
575.495	32.9
575.69	33.42
575.885	33.13
576.08	33.2
576.275	33.14
576.47	33.38
576.665	33.46
576.86	32.94
577.055	33.22
577.25	32.95
577.444	33.06
577.639	33.32
577.834	33.82
578.029	34.1
578.224	34.07
578.418	33.69
578.613	33.57
578.808	34.05
579.003	34.06
579.197	33.91
579.392	34.59
579.587	34.3
579.781	34.83
579.976	34.48
580.171	34.67
580.365	34.66
580.56	35.05
580.755	34.72
580.949	34.31
581.144	34.61
581.338	34.54
581.533	33.86
581.727	33.98
581.922	33.62
582.116	33.37
582.311	33.07
582.505	33.3
582.7	33.22
582.894	33.61
583.089	34
583.283	33.77
583.478	34.21
583.672	34.55
583.866	34.67
584.061	34.74
584.255	35.24
584.449	35.77
584.644	35.91
584.838	35.92
585.032	36
585.226	35.57
585.421	36.04
585.615	36.3
585.809	36.23
586.003	36.1
586.198	36.42
586.392	36.46
586.586	36.98
586.78	36.92
586.974	36.66
587.168	36.88
587.363	37.14
587.557	37.48
587.751	37.12
587.945	37.38
588.139	37.07
588.333	37
588.527	36.91
588.721	36.47
588.915	36.2
589.109	36.13
589.303	36.11
589.497	36.46
589.691	35.93
589.885	35.53
590.079	35.36
590.273	35.81
590.466	35.88
590.66	35.87
590.854	35.49
591.048	35.44
591.242	35.84
591.436	35.66
591.629	35.47
591.823	35.7
592.017	36.29
592.211	36.5
592.404	36.4
592.598	36.15
592.792	36.28
592.986	36.27
593.179	36.69
593.373	36.42
593.567	35.93
593.76	35.86
593.954	35.83
594.147	35.6
594.341	35.11
594.535	35.43
594.728	35.3
594.922	35.06
595.115	35.01
595.309	34.87
595.502	35.54
595.696	35.95
595.889	36.04
596.083	36.09
596.276	36.39
596.47	36.75
596.663	36.49
596.856	36.63
597.05	36.62
597.243	36.8
597.437	37.03
597.63	36.76
597.823	36.57
598.017	36.33
598.21	35.9
598.403	35.46
598.596	35.23
598.79	35.65
598.983	36.1
599.176	35.91
599.369	35.82
599.563	35.77
599.756	35.8
599.949	36.29
600.142	37.06
600.335	37.7
600.528	37.98
600.722	38.1
600.915	38.25
601.108	37.9
601.301	37.93
601.494	38.09
601.687	37.98
601.88	37.86
602.073	37.53
602.266	37.54
602.459	37.06
602.652	36.61
602.845	36.31
603.038	36.03
603.231	36.24
603.424	36.38
603.617	36.21
603.809	36.22
604.002	36.03
604.195	35.55
604.388	35.23
604.581	35.53
604.774	36.09
604.966	36.57
605.159	36.1
605.352	35.68
605.545	35.62
605.737	35.54
605.93	36.05
606.123	36.03
606.316	37.07
606.508	36.93
606.701	36.5
606.894	36.27
607.086	36.29
607.279	36.66
607.471	37.28
607.664	37.68
607.857	37.99
608.049	37.53
608.242	37.45
608.434	37.23
608.627	37.94
608.819	38.43
609.012	38.13
609.204	37.6
609.397	37.69
609.589	37.39
609.782	37.32
609.974	37.61
610.166	37.68
610.359	38.47
610.551	38.48
610.743	37.69
610.936	37.7
611.128	38.21
611.32	38.92
611.513	38.69
611.705	38.87
611.897	39.14
612.09	38.73
612.282	38.49
612.474	38.33
612.666	38.77
612.858	38.96
613.051	38.95
613.243	38.56
613.435	38.33
613.627	38.51
613.819	38.14
614.011	37.41
614.203	37.59
614.395	37.43
614.588	37.53
614.78	37.57
614.972	38.8
615.164	38.68
615.356	39.61
615.548	39.16
615.74	39.57
615.932	39.82
616.124	40.41
616.315	40.13
616.507	40.74
616.699	40.97
616.891	40.81
617.083	40.28
617.275	40.84
617.467	40.13
617.659	40.54
617.85	40.4
618.042	41.02
618.234	40.24
618.426	40.3
618.618	39.99
618.809	40.21
619.001	40.36
619.193	39.86
619.384	39.99
619.576	40.34
619.768	40.49
619.959	40.75
620.151	40.47
620.343	41.1
620.534	41.14
620.726	41.66
620.917	41.51
621.109	40.98
621.301	40.73
621.492	40.45
621.684	40.59
621.875	40.77
622.067	40.56
622.258	40.88
622.45	40.61
622.641	40.82
622.832	41.1
623.024	40.15
623.215	40.51
623.407	40.68
623.598	40.25
623.789	40.05
623.981	39.56
624.172	39.53
624.363	38.97
624.555	39.17
624.746	38.8
624.937	38.55
625.129	38.62
625.32	38.89
625.511	38.89
625.702	39.11
625.893	39.16
626.085	39.17
626.276	39.37
626.467	39.35
626.658	39.15
626.849	39.38
627.04	39.8
627.231	40.52
627.422	39.77
627.614	39.83
627.805	39.29
627.996	39.26
628.187	39.82
628.378	40.18
628.569	40.25
628.76	40.56
628.951	40.73
629.142	40.02
629.332	39.54
629.523	39.95
629.714	39.92
629.905	40.72
630.096	40.61
630.287	40.55
630.478	40.37
630.669	39.95
630.859	40.09
631.05	40.19
631.241	39.4
631.432	39.77
631.623	39.81
631.813	39.6
632.004	39.48
632.195	39.32
632.385	39.39
632.576	39.33
632.767	39.8
632.957	39.79
633.148	39.51
633.339	39.99
633.529	40.43
633.72	40.22
633.91	40.01
634.101	39.82
634.292	40.86
634.482	40.77
634.673	40.55
634.863	39.79
635.054	39.23
635.244	40.45
635.435	41.19
635.625	40.24
635.815	40.52
636.006	40.84
636.196	41.14
636.387	41.36
636.577	41.51
636.767	42.03
636.958	42.31
637.148	43.03
637.338	42.5
637.529	42.33
637.719	42.06
637.909	42.72
638.099	43.76
638.29	43.56
638.48	43.44
638.67	43.62
638.86	43
639.05	43.9
639.241	44.17
639.431	43.72
639.621	44.67
639.811	45.1
640.001	44.76
640.191	44.52
640.381	44.66
640.571	43.41
640.761	43.34
640.951	44.25
641.141	44.77
641.331	44.82
641.521	44.82
641.711	43.82
641.901	43.8
642.091	44.38
642.281	43.88
642.471	43.98
642.661	44.73
642.851	44.23
643.041	43.71
643.231	43.29
643.42	42.89
643.61	42.99
643.8	43.28
643.99	42.83
644.18	42.07
644.369	42.86
644.559	42.55
644.749	42.02
644.939	41.95
645.128	42.07
645.318	41.91
645.508	42.28
645.697	41.68
645.887	41.31
646.076	42.42
646.266	42.98
646.456	41.78
646.645	42.55
646.835	42.98
647.024	43.15
647.214	42.94
647.403	43.77
647.593	43.34
647.782	44.3
647.972	44.1
648.161	44.62
648.351	44.8
648.54	45.68
648.73	46.31
648.919	45.96
649.108	45.86
649.298	46.29
649.487	45.38
649.677	45.54
649.866	45.26
650.055	45.7
650.244	45.11
650.434	44.61
650.623	43.96
650.812	42.98
651.002	43.06
651.191	43.59
651.38	43.11
651.569	42.71
651.758	43.21
651.947	43.27
652.137	42.47
652.326	42.05
652.515	42.17
652.704	42.55
652.893	42.35
653.082	43.11
653.271	43.69
653.46	43.91
653.649	44.06
653.838	43.39
654.027	43.47
654.216	44.24
654.405	44.77
654.594	44.55
654.783	44.6
654.972	44.61
655.161	43.44
655.35	42.25
655.539	42.45
655.728	43.2
655.916	42.68
656.105	43.1
656.294	43.72
656.483	42.98
656.672	42.67
656.86	42.58
657.049	42.54
657.238	42.56
657.427	43.19
657.615	42.38
657.804	42.3
657.993	42.89
658.181	41.95
658.37	40.97
658.559	40.88
658.747	41.61
658.936	41.4
659.125	40.56
659.313	40.24
659.502	40.07
659.69	41.02
659.879	41.4
660.067	40.95
660.256	41.61
660.444	42.49
660.633	42.25
660.821	41.87
661.01	42.41
661.198	43.61
661.387	44.65
661.575	45.04
661.763	44.62
661.952	43.74
662.14	43.84
662.328	43.49
662.517	43.49
662.705	44.22
662.893	44.44
663.082	44.44
663.27	44.18
663.458	43.82
663.646	42.8
663.834	42.49
664.023	42.44
664.211	42.94
664.399	43.37
664.587	42.63
664.775	42.83
664.963	42.38
665.152	42.43
665.34	43.15
665.528	43.23
665.716	44.35
665.904	45.53
666.092	45.93
666.28	46.55
666.468	46.73
666.656	47.48
666.844	47.12
667.032	47.49
667.22	47.2
667.408	46.07
667.596	46.27
667.784	45.8
667.971	45.43
668.159	45
668.347	44.65
668.535	44.71
668.723	43.77
668.911	44.11
669.098	43.51
669.286	43.78
669.474	44.93
669.662	45.97
669.849	45.31
670.037	45.9
670.225	46.6
670.413	46.08
670.6	45.28
670.788	46.16
670.976	46.84
671.163	47.08
671.351	46.96
671.538	46.73
671.726	46.63
671.913	48.43
672.101	47.87
672.289	47.93
672.476	48.76
672.664	49.48
672.851	49.53
673.039	49.84
673.226	49.95
673.413	49.91
673.601	50.09
673.788	48.74
673.976	48.2
674.163	48.5
674.35	48.68
674.538	48.16
674.725	47.55
674.912	46.62
675.1	46.05
675.287	45.95
675.474	45.33
675.662	44.84
675.849	44.36
676.036	43.7
676.223	44.12
676.411	43.85
676.598	43.28
676.785	44.19
676.972	44.76
677.159	44.69
677.346	44.32
677.533	45.74
677.721	45.24
677.908	46.8
678.095	46.62
678.282	45.73
678.469	44.82
678.656	45.57
678.843	45.42
679.03	45.02
679.217	44.83
679.404	44.52
679.591	43.96
679.778	44.98
679.964	44.58
680.151	44.27
680.338	44.06
680.525	44.37
680.712	44.19
680.899	43.47
681.086	43.93
681.272	44.58
681.459	45.31
681.646	44.75
681.833	44.01
682.02	44.29
682.206	45.59
682.393	45.27
682.58	45.65
682.766	47.84
682.953	49.22
683.14	49.56
683.326	49.4
683.513	49.98
683.7	51.02
683.886	52.32
684.073	53.26
684.259	52.81
684.446	54.64
684.632	54.5
684.819	50.54
685.005	50.34
685.192	50.28
685.378	50.64
685.565	49.68
685.751	49.91
685.938	49.06
686.124	46.78
686.31	46.62
686.497	46.11
686.683	46.68
686.87	49.2
687.056	48.36
687.242	47.45
687.429	46.7
687.615	47.7
687.801	47.46
687.987	48.11
688.174	48.54
688.36	48.08
688.546	48.16
688.732	48.46
688.918	46.97
689.105	47.47
689.291	48.27
689.477	48.38
689.663	48.55
689.849	48.89
690.035	48.08
690.221	48.05
690.407	48.35
690.593	47.64
690.779	46.16
690.965	47.03
691.151	46.38
691.337	46.68
691.523	46.24
691.709	45.44
691.895	44.72
692.081	44.98
692.267	46.23
692.453	46.1
692.639	45.82
692.825	46.45
693.011	46.3
693.196	48.25
693.382	47.48
693.568	48.95
693.754	49.89
693.94	51
694.125	51.08
694.311	49.85
694.497	50.25
694.682	51.32
694.868	50.32
695.054	49.7
695.239	48.02
695.425	47.82
695.611	46.64
695.796	45.26
695.982	44.25
696.168	43.56
696.353	43.73
696.539	43.58
696.724	43
696.91	43.91
697.095	43.26
697.281	43.31
697.466	44.22
697.652	43.97
697.837	43.61
698.023	44.01
698.208	44.34
698.393	44.45
698.579	44.07
698.764	44
698.949	43.66
699.135	44.7
699.32	45.6
699.505	45.2
699.691	45.53
699.876	47.13
700.061	47.31
700.246	47.98
700.432	49.35
700.617	50.34
700.802	49.95
700.987	50.99
701.172	52.71
701.358	51.75
701.543	51.9
701.728	53.35
701.913	52.11
702.098	51.16
702.283	50.51
702.468	48.7
702.653	48.21
702.838	49.76
703.023	48.68
703.208	47.19
703.393	48.59
703.578	49.03
703.763	48.56
703.948	49.9
704.133	50.59
704.318	51.22
704.503	51.41
704.688	52.05
704.873	51.36
705.057	53.15
705.242	53.59
705.427	51.76
705.612	51.22
705.797	51.42
705.981	50.81
706.166	51.33
706.351	50.56
706.536	50.96
706.72	51.01
706.905	51.99
707.09	52.46
707.274	52.73
707.459	52.88
707.644	53.01
707.828	51.59
708.013	52.22
708.197	50.67
708.382	50.46
708.567	50.91
708.751	51.83
708.936	51.51
709.12	50.4
709.305	49.45
709.489	48.86
709.673	49.17
709.858	49.23
710.042	48.12
710.227	49.29
710.411	51.5
710.596	52.04
710.78	50.91
710.964	50.27
711.149	50.56
711.333	50.7
711.517	50.97
711.702	50.99
711.886	50.77
712.07	51.81
712.254	51.1
712.438	49.4
712.623	48.61
712.807	49.56
712.991	51.34
713.175	50.73
713.359	51.24
713.544	52.86
713.728	53.32
713.912	53.8
714.096	54.31
714.28	53.73
714.464	54.04
714.648	53.44
714.832	53.01
715.016	51.63
715.2	52.2
715.384	51.95
715.568	50.74
715.752	49.84
715.936	50.85
716.12	49.31
716.304	50.13
716.488	49.79
716.671	51.12
716.855	52.31
717.039	51.65
717.223	52.18
717.407	52.88
717.59	53.27
717.774	53.9
717.958	52.08
718.142	54.37
718.325	55.65
718.509	56.64
718.693	56.67
718.877	55.54
719.06	56.58
719.244	55.8
719.428	56.39
719.611	57.24
719.795	55.49
719.978	57.17
720.162	56.01
720.345	55.11
720.529	55.35
720.713	55.27
720.896	56.19
721.08	57.84
721.263	58.53
721.446	58.09
721.63	58.77
721.813	60.7
721.997	60.28
722.18	60.03
722.364	60.65
722.547	60.56
722.73	61.7
722.914	60.15
723.097	59.61
723.28	59.38
723.464	57.92
723.647	55.89
723.83	57.22
724.013	58.06
724.197	58.05
724.38	58.4
724.563	58.28
724.746	57.77
724.929	58.01
725.112	55.71
725.296	54.41
725.479	54.34
725.662	55.14
725.845	52.77
726.028	50.71
726.211	49.81
726.394	49.41
726.577	48.93
726.76	46.28
726.943	45.56
727.126	47.29
727.309	47.39
727.492	47.94
727.675	48.43
727.858	48.8
728.041	49.44
728.224	49.24
728.407	47.67
728.589	47.54
728.772	49.68
728.955	48.93
729.138	48.8
729.321	50.46
729.503	50.42
729.686	48.6
729.869	48.38
730.052	49.58
730.234	50.76
730.417	52.55
730.6	53.87
730.782	53.61
730.965	56.13
731.148	55.45
731.33	55.49
731.513	55.01
731.695	56.54
731.878	57.5
732.061	57.4
732.243	56.42
732.426	56.11
732.608	54.25
732.791	54.29
732.973	54.02
733.156	55.23
733.338	55.37
733.52	56.06
733.703	55.61
733.885	57.73
734.068	57.94
734.25	57.92
734.432	59.51
734.615	59.39
734.797	59.39
734.979	59.73
735.162	59.22
735.344	57.58
735.526	58.45
735.708	59.02
735.891	57.8
736.073	57.07
736.255	58.62
736.437	57.04
736.619	57.3
736.802	57.42
736.984	56.75
737.166	56.72
737.348	56.65
737.53	55.87
737.712	54.65
737.894	54.71
738.076	53.77
738.258	54.04
738.44	53.69
738.622	55.35
738.804	57.84
738.986	56.68
739.168	55.02
739.35	56.41
739.532	56.96
739.714	59.65
739.896	59.4
740.078	60.35
740.259	59.04
740.441	59.01
740.623	61.01
740.805	59.6
740.987	59.8
741.168	60.79
741.35	59.86
741.532	58.85
741.714	59.2
741.895	58.41
742.077	59.47
742.259	61.23
742.44	62.04
742.622	60.78
742.804	58.29
742.985	60.05
743.167	60
743.348	58.04
743.53	58.69
743.711	56.81
743.893	55.61
744.075	57.07
744.256	55
744.438	53.36
744.619	50.86
744.8	52.79
744.982	53.47
745.163	56.05
745.345	59.84
745.526	60.39
745.707	60.92
745.889	62.15
746.07	60.99
746.252	62.91
746.433	62.71
746.614	64.15
746.795	64.98
746.977	66.59
747.158	66.13
747.339	65.09
747.52	65.69
747.702	64.2
747.883	64.81
748.064	68.87
748.245	68.87
748.426	72.3
748.607	70.36
748.788	68.5
748.97	67.28
749.151	65.44
749.332	66.04
749.513	65.05
749.694	69.83
749.875	69.43
750.056	64.24
750.237	65.36
750.418	63.61
750.599	64.99
750.78	64.21
750.96	61.05
751.141	60.35
751.322	58.29
751.503	59.34
751.684	56.19
751.865	55.01
752.046	57.49
752.226	55.98
752.407	55.18
752.588	57.39
752.769	59.01
752.949	60.84
753.13	61.1
753.311	61.18
753.492	58.2
753.672	57.74
753.853	60.25
754.034	57.82
754.214	59.39
754.395	57.78
754.575	54.61
754.756	51.57
754.937	50.15
755.117	51.31
755.298	55.93
755.478	55.96
755.659	55.22
755.839	54.7
756.02	54.83
756.2	53.57
756.381	55.5
756.561	57.87
756.741	59.36
756.922	60.12
757.102	59.37
757.283	56.24
757.463	57.96
757.643	59.07
757.823	59.01
758.004	59.46
758.184	59.98
758.364	60.87
758.545	60.46
758.725	60.63
758.905	60.71
759.085	62.38
759.265	62.35
759.446	64.25
759.626	63.47
759.806	62.99
759.986	63.15
760.166	62.48
760.346	62.7
760.526	60.78
760.706	60.95
760.886	60.6
761.066	59.77
761.246	57.53
761.426	55.24
761.606	54.45
761.786	53.46
761.966	53.61
762.146	51.9
762.326	50.68
762.506	50.96
762.686	50.73
762.866	50.53
763.046	49.33
763.225	49.93
763.405	51.3
763.585	51.98
763.765	52.1
763.945	52.83
764.124	52.99
764.304	54.43
764.484	54.87
764.664	55.03
764.843	56.01
765.023	57.33
765.203	57.15
765.382	57.03
765.562	57.51
765.741	60.01
765.921	56.78
766.101	59.42
766.28	59.82
766.46	60
766.639	60.59
766.819	59.57
766.998	60.62
767.178	62.12
767.357	62.09
767.537	61.27
767.716	59.93
767.896	62.47
768.075	61.11
768.254	61.59
768.434	60.72
768.613	61.46
768.792	62.34
768.972	61.89
769.151	63.01
769.33	62.28
769.51	63.13
769.689	64.63
769.868	64.33
770.047	64.55
770.226	64.17
770.406	66.44
770.585	65.36
770.764	63.29
770.943	61.86
771.122	64.09
771.301	65.82
771.48	64.76
771.66	61.42
771.839	63.74
772.018	65.25
772.197	63.33
772.376	64.92
772.555	66.45
772.734	69.88
772.913	72.56
773.092	71.78
773.271	70.85
773.449	74.1
773.628	76.11
773.807	76.44
773.986	74.89
774.165	74.91
774.344	73.98
774.523	74.69
774.701	75.78
774.88	74.93
775.059	70.01
775.238	68.6
775.417	67.54
775.595	68.21
775.774	66.67
775.953	68.27
776.131	70.49
776.31	67.76
776.489	67.92
776.667	65.81
776.846	70.2
777.025	74.6
777.203	75.25
777.382	75.41
777.56	73.09
777.739	71.63
777.917	70.15
778.096	69.81
778.274	71.01
778.453	67.25
778.631	71.28
778.81	70.23
778.988	71.2
779.166	72.57
779.345	71.68
779.523	73.2
779.702	79.01
779.88	80.15
780.058	77.88
780.237	74.05
780.415	77.96
780.593	73.28
780.771	66.76
780.95	62.06
781.128	65.04
781.306	68.08
781.484	71.09
781.662	68.86
781.841	67.56
782.019	70.6
782.197	76.28
782.375	74.99
782.553	73.16
782.731	78.82
782.909	78.54
783.087	78.45
783.265	73.35
783.443	71.88
783.621	67.77
783.799	69.56
783.977	70.66
784.155	69.43
784.333	70.52
784.511	73.53
784.689	71.06
784.867	75.54
785.045	73.88
785.223	77.51
785.4	77.1
785.578	82.53
785.756	80.54
785.934	77.76
786.112	78.03
786.289	80.81
786.467	77.69
786.645	79.54
786.823	75.32
787	70.34
787.178	66.65
787.356	65.77
787.533	64.27
787.711	64.55
787.889	64.27
788.066	62.18
788.244	60.11
788.421	63.67
788.599	60.67
788.776	61.71
788.954	64.55
789.131	64.66
789.309	65.95
789.486	63.28
789.664	65.7
789.841	68.34
790.019	71.85
790.196	75.25
790.373	75.8
790.551	77.43
790.728	79.26
790.906	75.87
791.083	77.03
791.26	77.74
791.437	80.5
791.615	80.92
791.792	74.43
791.969	71.65
792.146	66.56
792.324	61.16
792.501	63.58
792.678	65.22
792.855	64.46
793.032	66.89
793.209	63.66
793.387	63.39
793.564	60.19
793.741	64.59
793.918	62.39
794.095	62.07
794.272	64.68
794.449	62.4
794.626	62.3
794.803	65.67
794.98	62.19
795.157	66.84
795.334	65.85
795.511	67.23
795.688	64.94
795.864	70.61
796.041	74.97
796.218	74.83
796.395	77.23
796.572	75.33
796.749	78.43
796.925	78.49
797.102	77.46
797.279	77.1
797.456	79.22
797.632	79.59
797.809	76.29
797.986	72.19
798.162	71.08
798.339	73.91
798.516	73.09
798.692	68.13
798.869	68.85
799.046	67.1
799.222	67.74
799.399	60.18
799.575	60.91
799.752	60.65
799.928	64.9
800.105	68.59
800.281	61.87
800.458	65.41
800.634	66.42
800.811	65.65
800.987	64.43
801.163	64.44
801.34	70.7
801.516	68.42
801.692	71.75
801.869	69.19
802.045	70.23
802.221	71.07
802.398	69.08
802.574	74.1
802.75	73.25
802.926	73.83
803.103	73.22
803.279	74.1
803.455	76.52
803.631	71.21
803.807	72.77
803.983	66.71
804.16	68.34
804.336	68.34
804.512	68.37
804.688	74.78
804.864	75.03
805.04	71.54
805.216	72.16
805.392	74.27
805.568	75.43
805.744	71.82
805.92	78.5
806.096	80.44
806.272	84.68
806.448	77.54
806.623	69.58
806.799	70.69
806.975	77.97
807.151	81.03
807.327	74.67
807.503	77.12
807.678	72.01
807.854	72.41
808.03	72.88
808.206	69.78
808.381	76.76
808.557	78.99
808.733	78.37
808.908	78.75
809.084	74.1
809.26	81.52
809.435	76.2
809.611	85.03
809.787	77.27
809.962	76.04
810.138	75.79
810.313	66.2
810.489	71.38
810.664	69.16
810.84	68.81
811.015	71.8
811.191	69.41
811.366	74.66
811.542	75.25
811.717	76.05
811.892	74.56
812.068	73.81
812.243	80.31
812.419	74.28
812.594	74.78
812.769	71.14
812.944	70.05
813.12	71.63
813.295	66.63
813.47	67.2
813.645	70.39
813.821	67.82
813.996	65.81
814.171	66.54
814.346	67.95
814.521	69.09
814.697	75.89
814.872	76.1
815.047	74.3
815.222	77.96
815.397	74.31
815.572	72.26
815.747	73.47
815.922	78.28
816.097	75.27
816.272	78.08
816.447	83.65
816.622	80.62
816.797	77.78
816.972	77.45
817.147	75.32
817.322	76.91
817.496	77.46
817.671	81.62
817.846	80.63
818.021	77.82
818.196	74.9
818.371	69.59
818.545	67.69
818.72	68.66
818.895	68.83
819.069	68.54
819.244	67.67
819.419	61.76
819.594	57.12
819.768	52.65
819.943	53.81
820.117	52.76
820.292	52.04
820.467	50.28
820.641	48.89
820.816	47.6
820.99	47.24
821.165	44.93
821.339	44.64
821.514	44.15
821.688	44.67
821.863	43.54
822.037	42.95
822.212	42.81
822.386	42.15
822.56	40.99
822.735	41.03
822.909	40.41
823.084	40.3
823.258	40.86
823.432	41.5
823.606	41
823.781	41.49
823.955	41.76
824.129	41.45
824.303	41.13
824.478	42.3
824.652	43.59
824.826	44.53
825	46.29
825.174	45.88
825.348	45.99
825.523	46.08
825.697	45.2
825.871	44.38
826.045	45.14
826.219	47.09
826.393	47.11
826.567	46.02
826.741	44.91
826.915	43.39
827.089	42.43
827.263	40.44
827.437	40.9
827.611	42.36
827.784	42.88
827.958	43
828.132	41.45
828.306	42.15
828.48	41
828.654	43.56
828.827	46.09
829.001	51.95
829.175	56.22
829.349	57.81
829.522	58.11
829.696	59.09
829.87	60.83
830.044	64.35
830.217	66
830.391	71.57
830.565	72.1
830.738	73.03
830.912	69.89
831.085	68.52
831.259	66.09
831.432	68.86
831.606	69.98
831.779	64.28
831.953	63.75
832.126	61.86
832.3	60.71
832.473	59.21
832.647	55.43
832.82	54.96
832.994	55.47
833.167	54.36
833.34	54.26
833.514	52.3
833.687	52.05
833.86	51.64
834.034	54.02
834.207	51.94
834.38	49.06
834.553	51.07
834.727	51.78
834.9	51.61
835.073	54.34
835.246	51.37
835.419	50.51
835.593	50.62
835.766	50.18
835.939	48.21
836.112	50.74
836.285	54.55
836.458	55.34
836.631	57.94
836.804	60.3
836.977	63.13
837.15	64.63
837.323	71.95
837.496	78.33
837.669	77.08
837.842	78.71
838.015	80.86
838.188	85.05
838.361	78.98
838.533	76.6
838.706	77.02
838.879	75.71
839.052	79.63
839.225	77.17
839.398	79.3
839.57	81.74
839.743	80.43
839.916	79.88
840.088	80.56
840.261	90.57
840.434	86.37
840.607	85.67
840.779	87.6
840.952	93.66
841.124	100.95
841.297	94.47
841.47	96.23
841.642	95.18
841.815	92.8
841.987	94.65
842.16	95.11
842.332	100.47
842.505	98.85
842.677	97.32
842.85	96.53
843.022	94.53
843.194	94.59
843.367	98.77
843.539	104.72
843.712	101.7
843.884	98.88
844.056	93.55
844.229	95.8
844.401	101.18
844.573	106.81
844.745	101.51
844.918	115.94
845.09	121.03
845.262	118.14
845.434	117.47
845.606	120.42
845.779	117.08
845.951	103.33
846.123	126.74
846.295	116.65
846.467	134.11
846.639	128.25
846.811	121.8
846.983	122.08
847.155	117.38
847.327	114.96
847.499	122.64
847.671	132.98
847.843	128.32
848.015	114.38
848.187	116.82
848.359	112.14
848.531	120.2
848.703	110.33
848.875	127.73
849.047	123.55
849.218	124.4
849.39	120.87
849.562	127.97
849.734	153.58
849.905	153.34
850.077	174.19
850.249	157.88
850.421	145.01
850.592	144.3
850.764	131.43
850.936	122.23
851.107	126.92
851.279	132.37
851.451	121.1
851.622	124.43
851.794	126.13
851.965	128.1
852.137	124.25
852.308	122.04
852.48	123.48
852.651	115.75
852.823	130.93
852.994	134.94
853.166	140.08
853.337	148.49
853.509	152.79
853.68	135.28
853.851	120.08
854.023	125.98
854.194	119.85
854.365	124.27
854.537	124.41
854.708	124.01
854.879	97.47
855.05	99.84
855.222	89.13
855.393	82.7
855.564	92.26
855.735	87.7
855.906	76.27
856.078	73.51
856.249	78.03
856.42	73.66
856.591	69.27
856.762	83.66
856.933	78.17
857.104	73.2
857.275	75.87
857.446	72.21
857.617	77.92
857.788	80.69
857.959	72.07
858.13	70.69
858.301	79.79
858.472	74.64
858.643	63.1
858.814	67.93
858.985	82.05
859.155	95.45
859.326	81.4
859.497	80.1
859.668	112.05
859.839	148.07
860.009	120.35
860.18	130.91
860.351	127.51
860.522	125.04
860.692	112.81
860.863	105.11
861.034	87.33
861.204	88.04
861.375	92.37
861.546	93.8
861.716	90.75
861.887	94.61
862.057	100
862.228	114.19
862.398	109.22
862.569	128.67
862.739	144.39
862.91	144.84
863.08	157.54
863.251	170.91
863.421	157.14
863.592	179.9
863.762	165.8
863.932	143.77
864.103	141.17
864.273	147.08
864.443	123
864.614	113.34
864.784	110.7
864.954	120.97
865.125	119.16
865.295	130.74
865.465	138.28
865.635	150.14
865.805	129.71
865.976	124.63
866.146	110.27
866.316	121.78
866.486	154.71
866.656	138.31
866.826	134.81
866.996	140.09
867.166	149.8
867.336	130.58
867.506	99.42
867.676	92.86
867.846	100.31
868.016	110.84
868.186	101.25
868.356	90.17
868.526	97.59
868.696	86.46
868.866	77.97
869.036	82.63
869.206	83.11
869.376	90.21
869.545	93.48
869.715	96.14
869.885	98.4
870.055	98.81
870.224	100.14
870.394	106.09
870.564	129.07
870.734	134.73
870.903	134.84
871.073	146.08
871.243	150.42
871.412	163.43
871.582	142.37
871.751	137.13
871.921	146.29
872.091	157.44
872.26	119.58
872.43	96.03
872.599	102.36
872.769	101.16
872.938	100.95
873.108	92.14
873.277	84.77
873.446	87.92
873.616	98.92
873.785	100.86
873.955	115.64
874.124	122.38
874.293	142.9
874.463	123.8
874.632	123.86
874.801	109.87
874.971	109.2
875.14	143.16
875.309	134.85
875.478	106.55
875.647	94
875.817	81.46
875.986	84.58
876.155	79.97
876.324	81.05
876.493	64.27
876.662	70.12
876.831	70.83
877	55.01
877.17	55.24
877.339	57.75
877.508	59.01
877.677	57.93
877.846	54.66
878.015	60.83
878.184	64.52
878.352	76.59
878.521	72.83
878.69	70.97
878.859	68.02
879.028	63.94
879.197	67.28
879.366	65.34
879.534	59.64
879.703	53.23
879.872	49.67
880.041	40.77
880.21	41.82
880.378	41.43
880.547	41.34
880.716	43.56
880.884	44.55
881.053	41.08
881.222	39.99
881.39	41.11
881.559	39.29
881.727	38.34
881.896	38.96
882.065	39.04
882.233	41.14
882.402	40.3
882.57	41.71
882.739	39.3
882.907	40.2
883.076	40.73
883.244	39.36
883.412	42.14
883.581	43.07
883.749	44.54
883.918	45.69
884.086	44.76
884.254	45.96
884.423	48.56
884.591	52.53
884.759	57.01
884.927	58.76
885.096	65.32
885.264	67.26
885.432	72.18
885.6	75.25
885.769	77.3
885.937	81.22
886.105	92.36
886.273	87.18
886.441	89.24
886.609	82.29
886.777	76.61
886.945	71.73
887.113	74.16
887.281	67.02
887.449	68.89
887.617	65.07
887.785	62.84
887.953	61.27
888.121	66.54
888.289	65.04
888.457	64.67
888.625	62.36
888.793	69.73
888.961	77.32
889.129	78.43
889.296	89.16
889.464	95.03
889.632	102.45
889.8	102.31
889.967	84.62
890.135	95.35
