Data from JASIL_2991_Reflection_01.txt Node
Date: Mon Nov 09 09:45:38 EST 2015
User: Geneva
Spectrometer: USB4E03002
Autoset integration time: false
Trigger mode: 4
Integration Time (sec): 1.000000E-1
Scans to average: 10
Electric dark correction enabled: false
Nonlinearity correction enabled: false
Boxcar width: 5
Stray light correction enabled: false
XAxis mode: Wavelengths
Stop averaging: false
Number of Pixels in Spectrum: 3648
>>>>>Begin Spectral Data<<<<<
177.575	13.52
177.794	-7.94
178.014	2.67
178.233	-3.43
178.452	13.23
178.672	17.33
178.891	27.5
179.11	24.26
179.33	42.86
179.549	23.39
179.768	12.93
179.987	23.24
180.207	65.14
180.426	59.15
180.645	45.55
180.864	20.77
181.084	12.31
181.303	7.79
181.522	1.33
181.741	-0.62
181.96	12.59
182.179	6.21
182.398	10.92
182.618	17.43
182.837	25.63
183.056	41.65
183.275	28.07
183.494	42.71
183.713	39.64
183.932	62.54
184.151	48.19
184.37	40.63
184.589	36.75
184.808	26.64
185.027	5.06
185.246	-21.7
185.465	1.46
185.684	11.1
185.903	0.34
186.122	4.43
186.341	-25.09
186.56	-43.07
186.779	0.52
186.998	23.53
187.216	17.83
187.435	9.72
187.654	33.84
187.873	12.13
188.092	40.56
188.311	55.48
188.53	50.14
188.748	46.23
188.967	39.46
189.186	21.14
189.405	-0
189.623	21.22
189.842	44.52
190.061	46.15
190.28	84
190.498	55.38
190.717	50
190.936	12.73
191.154	35.25
191.373	84.8
191.592	125.28
191.81	174.47
192.029	258.62
192.248	241.22
192.466	89.31
192.685	87.54
192.904	87.06
193.122	111.49
193.341	151.9
193.559	138.65
193.778	145.03
193.996	78.71
194.215	39.02
194.433	60.53
194.652	24.76
194.87	38.66
195.089	31.48
195.307	25.79
195.526	21.91
195.744	12.41
195.963	17.66
196.181	-17.12
196.399	-39.22
196.618	-3.34
196.836	-11.59
197.055	7.45
197.273	-10.98
197.491	-31.92
197.71	-34.78
197.928	-53.58
198.146	-36.62
198.365	-64.36
198.583	-25.14
198.801	-0.53
199.019	-32.78
199.238	-33.33
199.456	-46.55
199.674	-18.05
199.892	-3.21
200.111	-11.08
200.329	-22.34
200.547	38.99
200.765	37.04
200.983	-0.75
201.202	-49.57
201.42	-65.55
201.638	-106.47
201.856	-402.82
202.074	1129.73
202.292	817.07
202.51	-115.76
202.728	-88.49
202.946	-272.73
203.165	-165.9
203.383	-118.64
203.601	-175.17
203.819	-316.86
204.037	-167.62
204.255	-124.74
204.473	-83.82
204.691	-93.89
204.909	-156.99
205.127	-151.96
205.345	-147.6
205.562	-367.42
205.78	-114.84
205.998	-39.02
206.216	-74.07
206.434	-128.28
206.652	-86.87
206.87	-43.88
207.088	-82.14
207.306	-104.79
207.523	-119.07
207.741	-79.75
207.959	-82.13
208.177	-176.68
208.395	-122.26
208.612	-11.11
208.83	45.92
209.048	44.25
209.266	1.56
209.483	10.35
209.701	57.04
209.919	64.66
210.136	9.97
210.354	73.3
210.572	114.25
210.79	84.3
211.007	73.63
211.225	54.15
211.442	39.58
211.66	58.18
211.878	84.34
212.095	94.19
212.313	94.76
212.53	88.49
212.748	81.68
212.966	84.05
213.183	84.9
213.401	76.99
213.618	74.93
213.836	81.93
214.053	76.21
214.271	71.44
214.488	50.15
214.705	42.96
214.923	53.33
215.14	59.24
215.358	39.89
215.575	34.63
215.793	38.95
216.01	44.23
216.227	42.67
216.445	53.32
216.662	31.29
216.879	52.56
217.097	42.17
217.314	13.03
217.531	-26.16
217.749	-46.26
217.966	-45.14
218.183	-57.05
218.4	-204.65
218.618	-134.33
218.835	-88.53
219.052	-342.86
219.269	-785.96
219.487	-279.53
219.704	-682.54
219.921	708.77
220.138	174.36
220.355	193.15
220.572	0
220.79	-609.09
221.007	-128.03
221.224	-192.65
221.441	-46.52
221.658	-108.61
221.875	-90.36
222.092	-39.57
222.309	-30.09
222.526	-43.69
222.743	-54.87
222.96	-48.02
223.177	-22.98
223.394	-41.03
223.611	-36.44
223.828	-105.81
224.045	-72.55
224.262	-16.54
224.479	-36.7
224.696	-38.36
224.913	-45.21
225.13	-42.22
225.347	-27.27
225.564	-45.14
225.781	-44.27
225.997	-40.55
226.214	-21.41
226.431	-21.73
226.648	-35.99
226.865	-26.33
227.082	-29.76
227.298	-32.15
227.515	-30.72
227.732	-31.03
227.949	-28.19
228.165	-19.63
228.382	-15.13
228.599	-12.46
228.816	-14.69
229.032	-21.58
229.249	-29.21
229.466	-18.48
229.682	-18.11
229.899	-5.29
230.116	-10.96
230.332	-10.75
230.549	-12.14
230.765	-33.02
230.982	-26.36
231.199	-14.06
231.415	12.7
231.632	16.62
231.848	8.73
232.065	16
232.281	-5.06
232.498	20.09
232.714	36.69
232.931	36.94
233.147	41.86
233.364	43.08
233.58	37.22
233.797	15.14
234.013	13.58
234.23	7.26
234.446	13.6
234.662	24.59
234.879	11.1
235.095	6.57
235.312	-4.13
235.528	-16.64
235.744	-11.1
235.961	-8.19
236.177	7.18
236.393	5.27
236.61	6.66
236.826	2.5
237.042	5.67
237.258	6.82
237.475	5.26
237.691	5.85
237.907	5.19
238.123	-16.94
238.339	-22.49
238.556	-27.14
238.772	-39.9
238.988	-30.11
239.204	-25.37
239.42	-26.19
239.636	-14.31
239.853	-9.69
240.069	-8.84
240.285	-4.14
240.501	4.2
240.717	5.38
240.933	9.23
241.149	16.5
241.365	19.83
241.581	17.65
241.797	18.22
242.013	14.31
242.229	11.63
242.445	17.04
242.661	20.89
242.877	18.37
243.093	20.1
243.309	13.55
243.525	5.35
243.741	2.01
243.957	2.88
244.173	1.37
244.388	-0.29
244.604	0.29
244.82	-5.76
245.036	-6.18
245.252	-3.69
245.468	-2.81
245.683	-1.2
245.899	2.6
246.115	1.12
246.331	-0.1
246.547	-0.43
246.762	1.57
246.978	0.44
247.194	2.56
247.409	2.89
247.625	4.5
247.841	7.82
248.057	8.77
248.272	11.79
248.488	17.41
248.703	22.9
248.919	19.23
249.135	16.19
249.35	22.55
249.566	17.55
249.782	14.82
249.997	14.37
250.213	9.56
250.428	15.03
250.644	14.93
250.859	13.56
251.075	10.21
251.29	11.64
251.506	16.01
251.721	9.09
251.937	13.93
252.152	16.76
252.368	16.01
252.583	11.75
252.798	4.68
253.014	5.25
253.229	4.87
253.445	3.41
253.66	11.67
253.875	1.49
254.091	3.52
254.306	3.56
254.521	5.18
254.737	9.17
254.952	10.1
255.167	10.43
255.383	3.16
255.598	2.78
255.813	7.5
256.028	5.31
256.244	7.19
256.459	7.22
256.674	11.61
256.889	9.2
257.104	3.66
257.32	7.93
257.535	8.06
257.75	5.47
257.965	6.03
258.18	7.26
258.395	6.06
258.61	6.74
258.826	5.77
259.041	3.74
259.256	1.85
259.471	3.49
259.686	3.28
259.901	1
260.116	0.97
260.331	-2.2
260.546	-1.46
260.761	0
260.976	-3.13
261.191	0.37
261.406	-3.18
261.621	2.66
261.836	0
262.05	-5.32
262.265	-1.53
262.48	-0.7
262.695	0.16
262.91	-5.99
263.125	-6.07
263.34	-0.52
263.555	2.51
263.769	3.64
263.984	7.31
264.199	6.72
264.414	10.15
264.629	9.41
264.843	10.65
265.058	9.83
265.273	10.79
265.488	12.32
265.702	11.62
265.917	9.78
266.132	11.97
266.346	9.04
266.561	14.41
266.776	15.29
266.99	15.5
267.205	17.89
267.42	19.76
267.634	18
267.849	16.01
268.063	16.9
268.278	15.37
268.492	16.13
268.707	14.63
268.922	11.76
269.136	8.47
269.351	5
269.565	3.93
269.78	5.4
269.994	9.92
270.209	9.9
270.423	8.52
270.637	8.63
270.852	6.93
271.066	7.24
271.281	7.08
271.495	6.47
271.709	8.15
271.924	8.23
272.138	7.45
272.353	7.42
272.567	7.24
272.781	6.78
272.996	9.55
273.21	8.26
273.424	5.79
273.638	5.47
273.853	6.88
274.067	8.2
274.281	8.35
274.495	9.78
274.71	8.87
274.924	8.18
275.138	7.11
275.352	6.42
275.566	8.75
275.781	10.64
275.995	11.51
276.209	13.73
276.423	13.45
276.637	11.36
276.851	10.11
277.065	9.13
277.279	8.48
277.493	9.79
277.707	6.26
277.921	3.42
278.135	2.93
278.349	0.68
278.563	-3.76
278.777	-6.55
278.991	-7.56
279.205	-7.57
279.419	-8.08
279.633	-11
279.847	-15.1
280.061	-15.16
280.275	-10.8
280.489	-9.96
280.703	-8.24
280.917	-4.23
281.131	-1.89
281.344	2.05
281.558	1.29
281.772	0.83
281.986	2.43
282.2	5.54
282.414	7.34
282.627	7.85
282.841	7.86
283.055	6.2
283.269	5.41
283.482	4.86
283.696	4.66
283.91	5.35
284.123	3.65
284.337	5.2
284.551	3.53
284.764	6.51
284.978	5.99
285.192	6.63
285.405	6.85
285.619	5.87
285.833	6.99
286.046	4.87
286.26	1.82
286.473	3.56
286.687	2.21
286.9	5.4
287.114	-0.1
287.327	0.22
287.541	-2.02
287.754	-2.57
287.968	-1.59
288.181	-3.75
288.395	-2.94
288.608	-0.66
288.822	0.5
289.035	0.65
289.248	-1.58
289.462	-1.09
289.675	-1.28
289.889	-0.93
290.102	4.02
290.315	3.69
290.529	3.64
290.742	2.98
290.955	3.24
291.169	4.66
291.382	6.79
291.595	3.65
291.808	7.17
292.022	4.37
292.235	7.64
292.448	5.6
292.661	4.38
292.875	2.49
293.088	4.24
293.301	4.83
293.514	2.88
293.727	0.97
293.94	3.66
294.153	1
294.367	2.37
294.58	-0.74
294.793	-2.33
295.006	-2.43
295.219	0.15
295.432	-1.02
295.645	-1.15
295.858	-1.18
296.071	-0.27
296.284	-0.07
296.497	-0.27
296.71	-1.37
296.923	0.44
297.136	0.63
297.349	4.31
297.562	5.95
297.775	6.83
297.988	8.42
298.201	10.09
298.414	10.75
298.626	11.72
298.839	11.09
299.052	13.52
299.265	12.38
299.478	12.18
299.691	11.56
299.903	11.66
300.116	6.75
300.329	5.39
300.542	4.17
300.755	5.74
300.967	6.76
301.18	7.81
301.393	4.64
301.605	4.26
301.818	2.09
302.031	-0.72
302.243	-4.08
302.456	-1.01
302.669	-0.12
302.881	-0.42
303.094	-3.17
303.307	-4.55
303.519	-4.78
303.732	-3.85
303.944	-1.06
304.157	3.95
304.37	6.4
304.582	6
304.795	8.52
305.007	8.36
305.22	7.05
305.432	4.89
305.645	3.51
305.857	5.25
306.069	8.32
306.282	5.48
306.494	3.19
306.707	-1.71
306.919	0.48
307.132	0.38
307.344	-1.53
307.556	-1.1
307.769	4.05
307.981	4.31
308.193	2.67
308.406	1.11
308.618	4.01
308.83	6.26
309.043	11.35
309.255	12.25
309.467	11.08
309.679	12.2
309.892	13.54
310.104	12.15
310.316	13.07
310.528	15.37
310.74	14.9
310.953	14.59
311.165	14.42
311.377	10.86
311.589	8.11
311.801	9.23
312.013	9.2
312.225	10.35
312.437	11.4
312.649	11.4
312.862	8.87
313.074	7.97
313.286	9.92
313.498	8.68
313.71	8.12
313.922	9.64
314.134	11.8
314.346	10.94
314.558	9.51
314.77	7.98
314.982	9.88
315.193	12.13
315.405	12.28
315.617	10.69
315.829	9.58
316.041	12.52
316.253	11.61
316.465	7.86
316.677	7.64
316.888	9.39
317.1	9.34
317.312	6.5
317.524	3.35
317.736	7.5
317.947	5.91
318.159	5.53
318.371	6.64
318.583	6.09
318.794	6.75
319.006	8.23
319.218	4.82
319.43	4.94
319.641	7.79
319.853	8.14
320.064	3.22
320.276	3.4
320.488	4.79
320.699	4.24
320.911	7.95
321.123	11.52
321.334	8.52
321.546	9.87
321.757	8.56
321.969	8.51
322.18	11.28
322.392	11.51
322.603	7.46
322.815	8.82
323.026	10.61
323.238	8.67
323.449	6.78
323.661	9.4
323.872	7.3
324.083	9.88
324.295	6.8
324.506	3.95
324.718	4.11
324.929	8.4
325.14	6.38
325.352	6.21
325.563	8.56
325.774	8.09
325.986	7.93
326.197	10.12
326.408	8.51
326.62	9.56
326.831	13.68
327.042	12.93
327.253	14.09
327.464	13.75
327.676	13.49
327.887	12.98
328.098	12.3
328.309	13.72
328.52	9.95
328.732	11.18
328.943	11.22
329.154	8.5
329.365	12.2
329.576	10.9
329.787	12.49
329.998	9.25
330.209	7.92
330.42	10.85
330.631	7.11
330.842	12.12
331.053	12.33
331.264	11.23
331.475	12.17
331.686	13.08
331.897	12.77
332.108	10.91
332.319	13.26
332.53	12.13
332.741	11.59
332.952	14.79
333.163	11.52
333.374	12.39
333.585	12.5
333.795	11.75
334.006	12.57
334.217	14.77
334.428	16.89
334.639	18.02
334.849	17.36
335.06	17.95
335.271	16.5
335.482	18.2
335.692	15.31
335.903	17.34
336.114	18.33
336.325	17.41
336.535	15.12
336.746	15.2
336.957	15.2
337.167	15.42
337.378	15.48
337.589	15.28
337.799	15.02
338.01	17.58
338.22	17.91
338.431	15.2
338.642	12.72
338.852	13.05
339.063	11.18
339.273	11.22
339.484	13.55
339.694	11.16
339.905	10.4
340.115	12.31
340.326	10.09
340.536	9.51
340.746	9.72
340.957	10.54
341.167	11.75
341.378	11.8
341.588	9.07
341.799	8.46
342.009	8.77
342.219	8.13
342.43	6.21
342.64	7.45
342.85	9.32
343.061	10.93
343.271	10.09
343.481	10.54
343.691	10.86
343.902	12.76
344.112	12.14
344.322	10.99
344.532	13.54
344.743	11.98
344.953	10.74
345.163	7.78
345.373	7.85
345.583	7.05
345.793	5.44
346.004	6.17
346.214	3.85
346.424	3.87
346.634	4.07
346.844	3.42
347.054	7.35
347.264	6.77
347.474	7.41
347.684	9
347.894	11.19
348.104	11.87
348.314	11.91
348.524	12.53
348.734	14.81
348.944	15.43
349.154	13.32
349.364	12.74
349.574	15.11
349.784	15.7
349.994	15.45
350.204	14.97
350.413	15.03
350.623	16.86
350.833	17.48
351.043	13.79
351.253	15.63
351.463	17.19
351.672	15.14
351.882	15.52
352.092	14.09
352.302	15.36
352.511	14.67
352.721	13.07
352.931	12.53
353.141	10.87
353.35	13.36
353.56	11.55
353.77	8.97
353.979	9.92
354.189	8.51
354.399	8.76
354.608	8.34
354.818	8.02
355.027	9.06
355.237	7.84
355.447	10.19
355.656	8.46
355.866	9.16
356.075	11.46
356.285	11.45
356.494	10.33
356.704	11.09
356.913	9.22
357.123	9.67
357.332	9.12
357.542	8.54
357.751	6.93
357.96	7.41
358.17	7.9
358.379	6.06
358.589	5.9
358.798	7.28
359.007	8.02
359.217	7.49
359.426	6.92
359.635	5.95
359.845	6.16
360.054	6.37
360.263	8.16
360.472	8.19
360.682	8.22
360.891	8.15
361.1	8.65
361.309	8.16
361.519	8.49
361.728	10.36
361.937	10.77
362.146	11.26
362.355	12.3
362.564	10.41
362.774	8.55
362.983	9.23
363.192	9.53
363.401	9.24
363.61	8.67
363.819	9.53
364.028	7
364.237	8.63
364.446	8.76
364.655	8.49
364.864	9.44
365.073	10.77
365.282	9.94
365.491	11.13
365.7	10.88
365.909	11
366.118	9.95
366.327	9.71
366.536	8.87
366.745	7.92
366.954	8.48
367.162	8.32
367.371	7.31
367.58	8.11
367.789	6.07
367.998	7.63
368.207	9.01
368.415	10.2
368.624	11.4
368.833	11.83
369.042	12.1
369.25	11.4
369.459	11.19
369.668	12.14
369.877	12.33
370.085	13.81
370.294	12.8
370.503	11.42
370.711	11.85
370.92	10.95
371.129	10.28
371.337	9.36
371.546	8.91
371.754	10.7
371.963	10.32
372.171	10.93
372.38	10.26
372.589	9.23
372.797	7.81
373.006	6.92
373.214	5.99
373.423	7.14
373.631	8.76
373.84	8.68
374.048	7.06
374.256	6.77
374.465	6.46
374.673	6.25
374.882	6.66
375.09	7.86
375.298	7.12
375.507	8.28
375.715	7.42
375.923	6.54
376.132	7.21
376.34	6.25
376.548	7.26
376.757	5.99
376.965	5.2
377.173	5.8
377.381	4.36
377.59	5.01
377.798	5.42
378.006	4.4
378.214	4.16
378.423	4.55
378.631	5.27
378.839	3.67
379.047	5
379.255	4.56
379.463	4.26
379.671	6.01
379.879	4.68
380.088	4.65
380.296	4.22
380.504	5.81
380.712	5.06
380.92	5.37
381.128	7.67
381.336	7.72
381.544	9.8
381.752	8.31
381.96	8.37
382.168	9.14
382.376	9.23
382.584	9.11
382.791	7.87
382.999	7.15
383.207	6.14
383.415	6.17
383.623	6.67
383.831	6.34
384.039	6.63
384.247	6.9
384.454	6.29
384.662	5.82
384.87	6.62
385.078	7.36
385.285	8.3
385.493	8.06
385.701	7.04
385.909	6.35
386.116	6.43
386.324	8.49
386.532	8.25
386.739	9.81
386.947	10.77
387.155	10.86
387.362	11.12
387.57	9.83
387.778	11.5
387.985	12.7
388.193	12.69
388.4	12.34
388.608	10.41
388.816	9.19
389.023	8.59
389.231	7.41
389.438	8.74
389.646	8.38
389.853	10.55
390.061	8.96
390.268	7.42
390.475	7.95
390.683	6.73
390.89	8.37
391.098	9.24
391.305	8.53
391.512	9.33
391.72	8.53
391.927	7.86
392.135	5.71
392.342	6.22
392.549	6.46
392.756	6.43
392.964	7.67
393.171	6.82
393.378	6.49
393.586	7
393.793	6.64
394	6.2
394.207	7.92
394.414	9.57
394.622	8.75
394.829	8.7
395.036	7.79
395.243	7.81
395.45	9.52
395.657	9.27
395.864	8.25
396.072	8.27
396.279	9.93
396.486	8.63
396.693	8.69
396.9	10.2
397.107	11.2
397.314	10.92
397.521	10.1
397.728	8.86
397.935	8.56
398.142	9.13
398.349	8.62
398.556	6.69
398.763	6.38
398.97	5.48
399.177	5.27
399.383	4.94
399.59	4.43
399.797	4.3
400.004	4.58
400.211	4.59
400.418	5.79
400.625	7.09
400.831	8.97
401.038	9.36
401.245	8.65
401.452	8.33
401.658	8.47
401.865	10.07
402.072	10.68
402.279	9.55
402.485	10.84
402.692	9.36
402.899	8.73
403.105	7.45
403.312	7.42
403.519	7.65
403.725	7.53
403.932	7.05
404.138	6.67
404.345	6.36
404.552	6.21
404.758	5.74
404.965	6.87
405.171	7.12
405.378	7.5
405.584	8.13
405.791	10.28
405.997	10.6
406.204	10.77
406.41	10.46
406.617	10.89
406.823	11.17
407.029	10.96
407.236	10.28
407.442	10.6
407.649	10.85
407.855	10.06
408.061	8.31
408.268	8.53
408.474	9.17
408.68	9.16
408.887	8.55
409.093	9.19
409.299	8.83
409.505	10.02
409.712	8.75
409.918	8.48
410.124	9.45
410.33	9.16
410.537	10.33
410.743	9.17
410.949	9.09
411.155	8.88
411.361	8.68
411.567	8.74
411.773	8.63
411.98	8.84
412.186	9.51
412.392	7.64
412.598	8.15
412.804	6.83
413.01	6.79
413.216	7.23
413.422	7.19
413.628	6.45
413.834	7.76
414.04	6.2
414.246	6.68
414.452	5.63
414.658	5.72
414.864	4.31
415.07	3.91
415.275	4.59
415.481	6.04
415.687	6.03
415.893	7.34
416.099	5.71
416.305	6.62
416.511	7.11
416.716	7.15
416.922	8.04
417.128	8.71
417.334	8.67
417.539	8.76
417.745	8.06
417.951	8.15
418.157	7.29
418.362	7.76
418.568	7.37
418.774	7.31
418.979	7.7
419.185	7.27
419.391	6.97
419.596	7.14
419.802	6.98
420.008	6.71
420.213	2.8
420.419	2.91
420.624	3.02
420.83	3.09
421.035	3.08
421.241	3.06
421.446	2.64
421.652	2.75
421.857	2.36
422.063	2.23
422.268	1.85
422.474	5.49
422.679	5.57
422.885	5.46
423.09	5.63
423.295	5.3
423.501	4.75
423.706	5.01
423.911	5.11
424.117	5.35
424.322	5.79
424.527	5.86
424.733	6.22
424.938	5.8
425.143	5.51
425.349	5.2
425.554	5.99
425.759	6.25
425.964	6.37
426.169	6.3
426.375	6.03
426.58	5.15
426.785	5.5
426.99	5.43
427.195	6.52
427.4	7.12
427.605	7.67
427.811	6.64
428.016	6.92
428.221	7.18
428.426	7.64
428.631	8.16
428.836	8.42
429.041	7.98
429.246	7.95
429.451	7.44
429.656	6.91
429.861	6.03
430.066	6.07
430.271	6.87
430.476	6.76
430.681	6.32
430.886	6.16
431.09	6.7
431.295	6.31
431.5	7.07
431.705	7.14
431.91	7.62
432.115	7.55
432.32	7.44
432.524	6.84
432.729	6.12
432.934	5.87
433.139	6.09
433.343	5.4
433.548	6.12
433.753	5.73
433.958	5.83
434.162	5.5
434.367	5.42
434.572	4.63
434.776	4.3
434.981	4.68
435.186	4.65
435.39	4.93
435.595	5.17
435.799	4.92
436.004	5.33
436.209	5.41
436.413	5.64
436.618	6.37
436.822	6.69
437.027	6.66
437.231	7.07
437.436	7.2
437.64	6.57
437.845	5.63
438.049	5.87
438.253	5.29
438.458	4.48
438.662	3.77
438.867	3.53
439.071	3.8
439.275	4.03
439.48	3.92
439.684	4.21
439.888	4.22
440.093	4.28
440.297	4.43
440.501	5.17
440.706	5.86
440.91	6.38
441.114	6.36
441.318	6.37
441.523	6.37
441.727	5.91
441.931	5.7
442.135	5.81
442.339	5.87
442.543	5.73
442.748	4.93
442.952	4.5
443.156	4.51
443.36	4.93
443.564	4.97
443.768	5.11
443.972	4.98
444.176	5.06
444.38	5.24
444.584	5.91
444.788	5.9
444.992	5.92
445.196	5.52
445.4	5.89
445.604	5.75
445.808	5.83
446.012	5.72
446.216	6.27
446.42	6.63
446.624	6.4
446.828	6.51
447.032	6.36
447.235	6.13
447.439	6.57
447.643	6.87
447.847	6.52
448.051	6
448.254	6.07
448.458	5.88
448.662	5.96
448.866	5.8
449.069	5.97
449.273	6.11
449.477	6.56
449.681	6.96
449.884	6.17
450.088	6.47
450.292	7.5
450.495	7.59
450.699	8.39
450.902	8
451.106	8.53
451.31	7.72
451.513	8
451.717	8.56
451.92	8.65
452.124	8.79
452.327	8.51
452.531	8.27
452.734	7.71
452.938	6.78
453.141	6.7
453.345	6.25
453.548	6.38
453.752	6.58
453.955	6.55
454.158	5.87
454.362	5.9
454.565	6.36
454.769	6.49
454.972	6.96
455.175	6.89
455.379	6.36
455.582	6.65
455.785	7.09
455.988	5.94
456.192	4.82
456.395	5.05
456.598	4.68
456.801	4.37
457.005	4.56
457.208	4.18
457.411	4.14
457.614	4.19
457.817	3.95
458.021	3.83
458.224	3.9
458.427	3.5
458.63	3.5
458.833	3.24
459.036	3.06
459.239	2.55
459.442	3
459.645	3.39
459.848	3.63
460.051	3.93
460.254	4.09
460.457	4.35
460.66	4.89
460.863	4.72
461.066	5.15
461.269	5.33
461.472	5.71
461.675	5.71
461.878	5.29
462.081	5.04
462.284	4.78
462.486	4.91
462.689	4.97
462.892	5.02
463.095	5.75
463.298	5.56
463.5	6.39
463.703	6.23
463.906	5.86
464.109	6.2
464.311	6.87
464.514	7.06
464.717	6.81
464.92	7.31
465.122	6.87
465.325	6.13
465.528	6.28
465.73	5.7
465.933	5.67
466.135	5.17
466.338	5.03
466.541	4.98
466.743	5.18
466.946	5.76
467.148	5.19
467.351	6.17
467.553	6.19
467.756	6.5
467.958	6.73
468.161	6.79
468.363	6.72
468.566	6.71
468.768	6.03
468.971	5.35
469.173	5.12
469.375	4.84
469.578	4.12
469.78	4.5
469.983	4.3
470.185	4.05
470.387	4.11
470.59	5.42
470.792	5.42
470.994	5.57
471.196	5.76
471.399	5.2
471.601	5.51
471.803	5.89
472.005	6.42
472.208	6.49
472.41	5.83
472.612	5.56
472.814	4.55
473.016	4.52
473.218	4.93
473.421	4.83
473.623	4.39
473.825	4.29
474.027	4.01
474.229	3.47
474.431	3.82
474.633	4.28
474.835	4.35
475.037	4.87
475.239	4.95
475.441	5.04
475.643	5.74
475.845	6.14
476.047	6.41
476.249	6.42
476.451	6.31
476.653	5.63
476.855	5.93
477.057	5.63
477.258	5.6
477.46	6
477.662	6
477.864	5.8
478.066	5.67
478.268	5.47
478.469	5.62
478.671	6.43
478.873	6.91
479.075	6.37
479.276	6.91
479.478	7.04
479.68	6.61
479.882	6.36
480.083	5.92
480.285	6.03
480.487	6.39
480.688	6.23
480.89	5.53
481.091	5.23
481.293	5.51
481.495	5.44
481.696	5.32
481.898	5.29
482.099	5.34
482.301	5.7
482.502	5.65
482.704	5.55
482.905	5.52
483.107	5.65
483.308	5.85
483.51	5.77
483.711	5.66
483.913	5.69
484.114	5.68
484.315	5.55
484.517	5.3
484.718	5.24
484.92	4.98
485.121	5.04
485.322	5.14
485.524	5.07
485.725	5.21
485.926	5.15
486.127	4.94
486.329	4.95
486.53	5.14
486.731	5.1
486.932	5.24
487.134	5.34
487.335	5.35
487.536	5.15
487.737	5.13
487.938	5.07
488.139	5.21
488.341	5.51
488.542	5.9
488.743	5.77
488.944	5.7
489.145	5.51
489.346	5.48
489.547	5.32
489.748	5.19
489.949	5.19
490.15	5.37
490.351	5.36
490.552	5.18
490.753	5.07
490.954	5
491.155	5.14
491.356	5.26
491.557	5.49
491.758	5.89
491.959	6.14
492.159	5.94
492.36	5.96
492.561	6.27
492.762	6.17
492.963	6.09
493.164	6.45
493.364	6.71
493.565	6.85
493.766	6.85
493.967	6.27
494.167	6.15
494.368	5.85
494.569	5.64
494.769	5.23
494.97	5.34
495.171	5.23
495.371	4.98
495.572	4.61
495.773	4.41
495.973	4.12
496.174	5.07
496.375	4.79
496.575	5.13
496.776	5.39
496.976	5.51
497.177	5.63
497.377	5.68
497.578	5.58
497.778	5.74
497.979	5.89
498.179	6.15
498.38	5.77
498.58	6.09
498.78	6.26
498.981	5.73
499.181	5.58
499.382	5.61
499.582	5.54
499.782	5.64
499.983	5.9
500.183	5.75
500.383	5.45
500.584	4.87
500.784	5.02
500.984	5.03
501.184	5.56
501.385	5.82
501.585	5.7
501.785	5.85
501.985	5.84
502.185	6.02
502.386	5.66
502.586	5.93
502.786	6.21
502.986	6.23
503.186	6.43
503.386	6.58
503.586	6.55
503.786	6.59
503.987	6.39
504.187	6.62
504.387	6.59
504.587	7.05
504.787	7.47
504.987	7.42
505.187	7.28
505.387	6.76
505.587	5.83
505.786	6.04
505.986	6.42
506.186	6.02
506.386	6.24
506.586	6.24
506.786	6.93
506.986	6.5
507.186	6.58
507.386	7.21
507.585	8.12
507.785	8.13
507.985	8.3
508.185	8.28
508.384	8.57
508.584	8.04
508.784	7.66
508.984	7.71
509.183	7.9
509.383	7.78
509.583	7.44
509.782	6.79
509.982	6.86
510.182	6.51
510.381	6.39
510.581	6.98
510.781	7.95
510.98	8.18
511.18	8.19
511.379	8.23
511.579	8.17
511.778	8.42
511.978	8.78
512.177	9.33
512.377	9.36
512.576	9.53
512.776	9.41
512.975	8.46
513.175	8.26
513.374	8.12
513.573	8.22
513.773	8.44
513.972	8.55
514.172	8.7
514.371	8.45
514.57	8.46
514.77	8.8
514.969	8.49
515.168	8.76
515.367	9.3
515.567	9.1
515.766	8.87
515.965	9.11
516.164	8.74
516.364	8.59
516.563	8.9
516.762	8.93
516.961	8.85
517.16	9.48
517.359	9.55
517.559	9.54
517.758	9.57
517.957	9.75
518.156	9.45
518.355	10.13
518.554	9.98
518.753	9.83
518.952	10.08
519.151	10.09
519.35	9.76
519.549	9.85
519.748	9.85
519.947	9.9
520.146	9.72
520.345	10.5
520.544	10.1
520.743	10
520.942	10.28
521.141	10.62
521.339	10.53
521.538	10.69
521.737	10.52
521.936	10.83
522.135	10.62
522.333	11.02
522.532	10.76
522.731	10.64
522.93	11.06
523.129	11.26
523.327	10.94
523.526	11.07
523.725	10.94
523.923	11.41
524.122	11.06
524.321	11.51
524.519	11.36
524.718	11.31
524.917	11.33
525.115	11.33
525.314	11.07
525.512	11.23
525.711	11.32
525.909	11.4
526.108	11.39
526.306	11.6
526.505	11.31
526.703	11.72
526.902	11.65
527.1	11.71
527.299	11.86
527.497	12.08
527.696	12.1
527.894	11.95
528.092	12.04
528.291	12
528.489	11.93
528.688	12.09
528.886	11.82
529.084	12.04
529.283	12.08
529.481	12.04
529.679	11.76
529.877	11.91
530.076	12.3
530.274	12.35
530.472	12.56
530.67	12.65
530.869	12.92
531.067	12.85
531.265	12.84
531.463	12.86
531.661	12.81
531.859	13.15
532.057	13.08
532.255	12.64
532.454	12.73
532.652	12.8
532.85	12.66
533.048	12.52
533.246	12.71
533.444	12.91
533.642	12.82
533.84	13.02
534.038	12.73
534.236	13.01
534.434	13.54
534.632	13.31
534.83	13.48
535.027	13.75
535.225	13.64
535.423	13.89
535.621	13.72
535.819	13.62
536.017	13.56
536.215	14.16
536.412	13.95
536.61	14.02
536.808	14
537.006	13.7
537.203	13.64
537.401	14.05
537.599	13.84
537.797	13.88
537.994	14.26
538.192	14.41
538.39	14.29
538.587	14.35
538.785	14.13
538.983	14.39
539.18	14.62
539.378	14.69
539.575	14.55
539.773	14.69
539.97	14.46
540.168	14.7
540.366	14.68
540.563	14.54
540.761	14.46
540.958	14.62
541.155	14.45
541.353	14.57
541.55	14.95
541.748	15.15
541.945	15.31
542.143	15.63
542.34	15.64
542.537	15.59
542.735	15.55
542.932	15.81
543.129	15.91
543.327	16.28
543.524	16.02
543.721	15.61
543.919	15.4
544.116	15.07
544.313	15.34
544.51	15.56
544.708	15.2
544.905	15.42
545.102	15.58
545.299	15.57
545.496	15.96
545.693	16.41
545.891	16.65
546.088	16.5
546.285	16.99
546.482	16.51
546.679	15.99
546.876	16.66
547.073	16.5
547.27	16.64
547.467	16.82
547.664	16.6
547.861	15.98
548.058	15.61
548.255	15.88
548.452	15.48
548.649	15.99
548.846	15.83
549.043	15.9
549.24	16.5
549.437	16.32
549.633	16.46
549.83	16.38
550.027	16.25
550.224	16.48
550.421	16.76
550.618	16.57
550.814	16.35
551.011	16.73
551.208	16.75
551.405	16.67
551.601	16.63
551.798	16.17
551.995	16.39
552.191	16.67
552.388	16.48
552.585	16.17
552.781	16.43
552.978	16.32
553.175	16.5
553.371	16.55
553.568	16.26
553.764	15.61
553.961	16.26
554.157	16.21
554.354	17.07
554.55	17.29
554.747	17.46
554.943	17.41
555.14	18.38
555.336	18.12
555.533	17.3
555.729	17.01
555.926	17.44
556.122	17.02
556.318	16.85
556.515	16.2
556.711	16.3
556.907	16.85
557.104	16.85
557.3	16.88
557.496	17.11
557.693	17.74
557.889	18.43
558.085	18.46
558.281	18.53
558.478	18.78
558.674	18.87
558.87	19
559.066	17.86
559.262	17.68
559.459	17.03
559.655	17.24
559.851	17.29
560.047	17.32
560.243	17.59
560.439	18.1
560.635	17.75
560.831	17.92
561.027	17.67
561.223	18.27
561.419	18.37
561.615	18.4
561.811	18.65
562.007	18.43
562.203	18.09
562.399	17.36
562.595	16.76
562.791	16.68
562.987	16.29
563.183	16.35
563.379	16.09
563.575	17.08
563.771	17.98
563.966	17.35
564.162	17.75
564.358	18.06
564.554	18.62
564.75	19.23
564.945	19.81
565.141	19.69
565.337	19.86
565.533	20.28
565.728	19.43
565.924	18.36
566.12	18.56
566.315	18.55
566.511	18.11
566.707	17.93
566.902	17.58
567.098	17.29
567.293	17.83
567.489	17.95
567.684	17.56
567.88	17.66
568.076	17.73
568.271	16.93
568.467	17.45
568.662	18.07
568.858	18.78
569.053	19.01
569.248	19.14
569.444	18.57
569.639	18.76
569.835	19.64
570.03	19.75
570.225	20.1
570.421	20.88
570.616	20.02
570.812	18.93
571.007	18.3
571.202	17.72
571.397	18.16
571.593	19.06
571.788	19.03
571.983	19.01
572.178	19.14
572.374	19.19
572.569	18.81
572.764	19.18
572.959	19.54
573.154	20.02
573.35	20.59
573.545	19.67
573.74	19.63
573.935	19.25
574.13	18.94
574.325	19.28
574.52	19.09
574.715	19.29
574.91	19.34
575.105	20.13
575.3	19.51
575.495	19.16
575.69	19.82
575.885	19.36
576.08	19.99
576.275	19.93
576.47	19.81
576.665	20.68
576.86	21.65
577.055	21.33
577.25	21.15
577.444	21.29
577.639	21.63
577.834	20.91
578.029	21.08
578.224	20.66
578.418	21.14
578.613	20.7
578.808	19.89
579.003	19.32
579.197	20.13
579.392	19.74
579.587	20.21
579.781	20.14
579.976	20.54
580.171	20.47
580.365	19.97
580.56	19.85
580.755	20.42
580.949	20.9
581.144	21.27
581.338	21.77
581.533	22.19
581.727	22.06
581.922	21.55
582.116	21.75
582.311	21.83
582.505	22.72
582.7	23.03
582.894	23.32
583.089	23.5
583.283	23.01
583.478	22.96
583.672	23.5
583.866	23.39
584.061	24.29
584.255	24.31
584.449	24.24
584.644	23.93
584.838	23.16
585.032	22.74
585.226	22.32
585.421	22.57
585.615	22.39
585.809	21.91
586.003	22.35
586.198	21.83
586.392	21.8
586.586	22.31
586.78	22.22
586.974	23.22
587.168	23.61
587.363	23.71
587.557	23.4
587.751	22.78
587.945	23.04
588.139	23.09
588.333	23.52
588.527	23.57
588.721	23.36
588.915	23.28
589.109	22.67
589.303	21.7
589.497	21.31
589.691	20.98
589.885	20.96
590.079	20.5
590.273	20.12
590.466	19.65
590.66	19.21
590.854	18.97
591.048	19.28
591.242	18.86
591.436	19.54
591.629	19.67
591.823	20.4
592.017	20.11
592.211	20.17
592.404	20.09
592.598	20.47
592.792	20.08
592.986	20.58
593.179	20.06
593.373	20.34
593.567	19.79
593.76	19.69
593.954	19.37
594.147	19.79
594.341	20.27
594.535	20.55
594.728	20.53
594.922	21.12
595.115	20.45
595.309	20.46
595.502	20.41
595.696	20.07
595.889	19.82
596.083	20.05
596.276	20.03
596.47	19.62
596.663	19.63
596.856	20.17
597.05	20.35
597.243	20.48
597.437	20.79
597.63	20.28
597.823	21.39
598.017	22.19
598.21	21.94
598.403	21.63
598.596	21.53
598.79	21.57
598.983	20.89
599.176	20.72
599.369	21.07
599.563	21.18
599.756	22.4
599.949	22.12
600.142	21.35
600.335	21.47
600.528	21.62
600.722	22.29
600.915	21.93
601.108	21.37
601.301	21.38
601.494	21.11
601.687	21.51
601.88	20.63
602.073	20.38
602.266	20.42
602.459	20.76
602.652	20.81
602.845	20.47
603.038	20.22
603.231	20.62
603.424	20.51
603.617	20.69
603.809	20.14
604.002	20.23
604.195	20.64
604.388	20.73
604.581	20.08
604.774	20.08
604.966	20.64
605.159	20.74
605.352	20.93
605.545	21.53
605.737	21.44
605.93	21.5
606.123	21.87
606.316	21.55
606.508	22.06
606.701	21.35
606.894	21.1
607.086	19.6
607.279	19.78
607.471	18.83
607.664	18.05
607.857	17.15
608.049	17.18
608.242	16.69
608.434	16.84
608.627	15.74
608.819	16.19
609.012	16.86
609.204	17.92
609.397	17.88
609.589	18.3
609.782	18.89
609.974	18.77
610.166	19.32
610.359	19.89
610.551	19.57
610.743	21.01
610.936	21.37
611.128	21.59
611.32	21.92
611.513	22.65
611.705	23.05
611.897	23.12
612.09	24.39
612.282	24.54
612.474	24.88
612.666	25.63
612.858	24.71
613.051	25.88
613.243	25.59
613.435	25.42
613.627	24.39
613.819	24.08
614.011	24
614.203	23.74
614.395	22.63
614.588	21.93
614.78	21.93
614.972	22.03
615.164	21.14
615.356	20.79
615.548	20.28
615.74	21.79
615.932	21.89
616.124	21.2
616.315	20.98
616.507	20.29
616.699	20.26
616.891	19.96
617.083	20.81
617.275	20.56
617.467	21.57
617.659	21.7
617.85	20.94
618.042	21.41
618.234	21.55
618.426	22.28
618.618	23.02
618.809	24.47
619.001	23.69
619.193	23.2
619.384	23.8
619.576	23.42
619.768	22.95
619.959	22.18
620.151	21.89
620.343	22.13
620.534	21.94
620.726	22.48
620.917	21.34
621.109	22.87
621.301	22.82
621.492	23.29
621.684	22.4
621.875	23.13
622.067	23.46
622.258	23.2
622.45	24.58
622.641	24.68
622.832	23.96
623.024	24.43
623.215	24.14
623.407	23.39
623.598	23.11
623.789	23.53
623.981	22.95
624.172	23.12
624.363	23.53
624.555	22.03
624.746	22.09
624.937	22.42
625.129	22.05
625.32	21.03
625.511	21.48
625.702	21.23
625.893	21.01
626.085	21.38
626.276	22.03
626.467	22.46
626.658	23.09
626.849	22.82
627.04	23.05
627.231	23.38
627.422	24.54
627.614	24.99
627.805	25.14
627.996	25.97
628.187	25.93
628.378	25.07
628.569	24.7
628.76	23.82
628.951	23.57
629.142	23.2
629.332	22.13
629.523	21.56
629.714	20.9
629.905	20.81
630.096	20.07
630.287	20.55
630.478	19.66
630.669	18.73
630.859	20.33
631.05	20.4
631.241	21.22
631.432	22.06
631.623	21.08
631.813	22.14
632.004	21.64
632.195	21.65
632.385	20.52
632.576	20.95
632.767	20.73
632.957	19.86
633.148	19.78
633.339	19.95
633.529	20.68
633.72	21.97
633.91	21.27
634.101	22.23
634.292	22.34
634.482	22.55
634.673	23.73
634.863	24.48
635.054	25.39
635.244	26.04
635.435	24.82
635.625	24.04
635.815	23.85
636.006	23.79
636.196	23.67
636.387	23.02
636.577	23.49
636.767	24.22
636.958	23.6
637.148	23.31
637.338	23.71
637.529	24.68
637.719	24.77
637.909	23.99
638.099	24.74
638.29	24.42
638.48	25.25
638.67	25.26
638.86	23.63
639.05	24.63
639.241	23.4
639.431	22.43
639.621	22.12
639.811	22.1
640.001	23.24
640.191	22.03
640.381	21.94
640.571	21.27
640.761	21.02
640.951	22.42
641.141	21.52
641.331	22.16
641.521	22.32
641.711	21.73
641.901	22.46
642.091	20.22
642.281	21.13
642.471	21.06
642.661	21.74
642.851	21.05
643.041	20.27
643.231	21.1
643.42	21.01
643.61	19.22
643.8	20.71
643.99	20.81
644.18	22.92
644.369	22.24
644.559	22.25
644.749	21.58
644.939	21.91
645.128	21.78
645.318	21.45
645.508	20.38
645.697	21.86
645.887	21.67
646.076	20.69
646.266	20.46
646.456	20.27
646.645	19.46
646.835	20.57
647.024	22.1
647.214	22.33
647.403	22.14
647.593	23.79
647.782	24.11
647.972	23.78
648.161	24.02
648.351	22.91
648.54	23.52
648.73	22.93
648.919	22.51
649.108	21.51
649.298	21.8
649.487	21.66
649.677	21.36
649.866	20.77
650.055	20.47
650.244	20.35
650.434	21.3
650.623	21.5
650.812	22.97
651.002	24.08
651.191	25.09
651.38	24.59
651.569	25.93
651.758	25.91
651.947	25.83
652.137	26.4
652.326	25.33
652.515	24.23
652.704	24.33
652.893	23.92
653.082	22.9
653.271	22.56
653.46	21.39
653.649	19.44
653.838	19.79
654.027	20.52
654.216	19.96
654.405	22.01
654.594	22.99
654.783	22.51
654.972	23.01
655.161	22.09
655.35	20.62
655.539	21.67
655.728	22.33
655.916	21.51
656.105	20.16
656.294	21.82
656.483	19.9
656.672	19.47
656.86	19.32
657.049	19.09
657.238	19.1
657.427	21.29
657.615	21.76
657.804	22.7
657.993	22.96
658.181	24.66
658.37	23.25
658.559	24.53
658.747	25.45
658.936	24.95
659.125	23.34
659.313	24.1
659.502	23.37
659.69	22.55
659.879	21.85
660.067	21.94
660.256	20.85
660.444	20.41
660.633	20.19
660.821	19.19
661.01	20.92
661.198	22.08
661.387	21.87
661.575	21.72
661.763	22.23
661.952	22.89
662.14	22.97
662.328	23.12
662.517	24.54
662.705	24.29
662.893	25.21
663.082	23.44
663.27	24.72
663.458	25.08
663.646	24.5
663.834	24.46
664.023	22.25
664.211	20.8
664.399	20.05
664.587	20.4
664.775	20.32
664.963	18.88
665.152	20.01
665.34	19.49
665.528	18.7
665.716	18.83
665.904	19.77
666.092	22.15
666.28	22.93
666.468	24.81
666.656	24.31
666.844	24.75
667.032	26.48
667.22	26.72
667.408	26.12
667.596	26.37
667.784	27.35
667.971	26.88
668.159	26.04
668.347	26.65
668.535	25.55
668.723	25.46
668.911	25.04
669.098	23.75
669.286	23.63
669.474	25.02
669.662	25.09
669.849	24.41
670.037	23.99
670.225	23.84
670.413	23.02
670.6	23.36
670.788	22.22
670.976	21.81
671.163	21.92
671.351	20.43
671.538	19.8
671.726	19.38
671.913	19.18
672.101	20.44
672.289	20.62
672.476	20.61
672.664	21.32
672.851	21.42
673.039	21.37
673.226	20.78
673.413	21.76
673.601	19.8
673.788	20.19
673.976	20.98
674.163	21.72
674.35	20.94
674.538	22.61
674.725	21.75
674.912	23.28
675.1	23.67
675.287	23.63
675.474	24.25
675.662	25.62
675.849	26.14
676.036	25.31
676.223	23.87
676.411	24.54
676.598	23.81
676.785	24.5
676.972	23.16
677.159	23.76
677.346	24.48
677.533	24.07
677.721	24.97
677.908	24.7
678.095	24.48
678.282	23.88
678.469	24.14
678.656	24.48
678.843	24.52
679.03	24.9
679.217	24.61
679.404	24.94
679.591	26.57
679.778	26.64
679.964	26.3
680.151	25.61
680.338	25.96
680.525	25.13
680.712	23.86
680.899	23.55
681.086	23.3
681.272	24.02
681.459	23.77
681.646	20.89
681.833	20.92
682.02	20.89
682.206	22.25
682.393	23.86
682.58	23.39
682.766	23.78
682.953	24.59
683.14	24.68
683.326	23.95
683.513	23.22
683.7	23.25
683.886	23.25
684.073	23.81
684.259	23.21
684.446	20.97
684.632	22.07
684.819	22.22
685.005	20.69
685.192	20.51
685.378	22
685.565	22.65
685.751	22.84
685.938	22.02
686.124	22.11
686.31	21.42
686.497	22.74
686.683	22.77
686.87	22.5
687.056	22.81
687.242	23.47
687.429	21.92
687.615	20.68
687.801	21.87
687.987	21.28
688.174	20.73
688.36	20.69
688.546	20.25
688.732	20.5
688.918	19.47
689.105	18.43
689.291	19
689.477	18.14
689.663	18.95
689.849	18.57
690.035	20.81
690.221	21.84
690.407	21.2
690.593	20.73
690.779	18.93
690.965	20.26
691.151	19.69
691.337	18.25
691.523	19.41
691.709	20.91
691.895	20.29
692.081	19.18
692.267	17.65
692.453	19.77
692.639	19.01
692.825	19.34
693.011	20.12
693.196	21.6
693.382	20.73
693.568	18.92
693.754	17.78
693.94	18.26
694.125	17.61
694.311	16.34
694.497	18.12
694.682	18.31
694.868	19.06
695.054	18.4
695.239	18.77
695.425	20.12
695.611	23.1
695.796	24.65
695.982	24.18
696.168	23.02
696.353	22.98
696.539	20.29
696.724	21.75
696.91	22.95
697.095	23.66
697.281	23.59
697.466	24.06
697.652	23.15
697.837	21.21
698.023	22.17
698.208	22.03
698.393	23.2
698.579	23.09
698.764	22.49
698.949	22.29
699.135	20.92
699.32	19.04
699.505	17.52
699.691	17.97
699.876	19.38
700.061	19.2
700.246	20.01
700.432	20.98
700.617	23.3
700.802	25.26
700.987	25.35
701.172	27.62
701.358	28.18
701.543	28.89
701.728	26.93
701.913	26.14
702.098	25.7
702.283	28.15
702.468	27.94
702.653	24.83
702.838	21.5
703.023	19.81
703.208	19.14
703.393	21.71
703.578	22.6
703.763	24.14
703.948	24.81
704.133	24.15
704.318	22.54
704.503	21.68
704.688	24.46
704.873	24.28
705.057	23.33
705.242	24.27
705.427	26.07
705.612	23.91
705.797	22.92
705.981	21.58
706.166	20.46
706.351	20.4
706.536	20.7
706.72	19.43
706.905	22.03
707.09	24.07
707.274	23.48
707.459	22.15
707.644	23.91
707.828	25.05
708.013	26.01
708.197	28.63
708.382	27.41
708.567	28.06
708.751	28.58
708.936	26.49
709.12	26.52
709.305	24.29
709.489	23.88
709.673	26.26
709.858	27.4
710.042	26.25
710.227	24.13
710.411	24.59
710.596	23.29
710.78	21.88
710.964	23.57
711.149	23.01
711.333	25.2
711.517	24.57
711.702	22.66
711.886	20.19
712.07	22.99
712.254	24.23
712.438	24.01
712.623	23.08
712.807	25.86
712.991	24.44
713.175	25.1
713.359	25.03
713.544	25.2
713.728	26.58
713.912	26.99
714.096	26.05
714.28	26.73
714.464	26.37
714.648	28.19
714.832	28.47
715.016	28.66
715.2	27.54
715.384	26.6
715.568	26.41
715.752	25.23
715.936	25.95
716.12	24.99
716.304	22.73
716.488	21.4
716.671	22.7
716.855	20.07
717.039	20.13
717.223	21.88
717.407	20.91
717.59	23.19
717.774	24
717.958	22.54
718.142	22.32
718.325	25.13
718.509	27.49
718.693	25.65
718.877	25.97
719.06	26.25
719.244	25.56
719.428	26.14
719.611	22.95
719.795	20.58
719.978	18.75
720.162	19.42
720.345	17.83
720.529	17.52
720.713	15.38
720.896	14.17
721.08	14.14
721.263	13.27
721.446	15.57
721.63	17.36
721.813	17.21
721.997	17.86
722.18	17.35
722.364	18.96
722.547	20.21
722.73	23.73
722.914	25.88
723.097	27.26
723.28	26.46
723.464	27.07
723.647	27.12
723.83	28.6
724.013	30.93
724.197	30.45
724.38	29.6
724.563	30.01
724.746	28.64
724.929	26.38
725.112	25.31
725.296	26.56
725.479	22.88
725.662	21.29
725.845	18.33
726.028	18.58
726.211	20.07
726.394	20.53
726.577	19.15
726.76	18.85
726.943	18.67
727.126	19.48
727.309	17.55
727.492	21.9
727.675	20.5
727.858	21.53
728.041	19.66
728.224	19.47
728.407	19.02
728.589	17.69
728.772	17.28
728.955	19.93
729.138	19.16
729.321	21.55
729.503	18.96
729.686	21.48
729.869	22.21
730.052	25.24
730.234	23.29
730.417	20.72
730.6	23.14
730.782	23.03
730.965	21.97
731.148	21.9
731.33	21.26
731.513	19.78
731.695	19.03
731.878	19.85
732.061	17.92
732.243	20.22
732.426	21.06
732.608	20.78
732.791	23.61
732.973	25.65
733.156	22.68
733.338	23.42
733.52	26.36
733.703	24.46
733.885	22.27
734.068	22.59
734.25	23.14
734.432	25.85
734.615	25.56
734.797	21.9
734.979	20.16
735.162	23.36
735.344	24.57
735.526	23.11
735.708	26.24
735.891	31.32
736.073	30.22
736.255	29.9
736.437	30.14
736.619	28.55
736.802	27.93
736.984	26.42
737.166	26.54
737.348	25.9
737.53	28.96
737.712	28.26
737.894	26.75
738.076	29.24
738.258	26.26
738.44	26.5
738.622	27.3
738.804	30.64
738.986	31.93
739.168	35.44
739.35	33.21
739.532	28.97
739.714	27.76
739.896	25.3
740.078	25.64
740.259	27.85
740.441	27.64
740.623	26.78
740.805	24.16
740.987	27.51
741.168	24.13
741.35	25.62
741.532	25.2
741.714	30.1
741.895	32.22
742.077	28.68
742.259	30.03
742.44	26.01
742.622	24.16
742.804	27.15
742.985	24.36
743.167	20.74
743.348	21.59
743.53	23.69
743.711	16.01
743.893	14.98
744.075	18.13
744.256	16.86
744.438	20.43
744.619	27.1
744.8	24.81
744.982	22.84
745.163	21.86
745.345	20.07
745.526	21.12
745.707	29.04
745.889	28.34
746.07	25.23
746.252	26.32
746.433	24.88
746.614	24.9
746.795	27.38
746.977	29.02
747.158	35.79
747.339	37.43
747.52	36.69
747.702	32.64
747.883	34.95
748.064	39.09
748.245	41.66
748.426	38.97
748.607	34.78
748.788	35.39
748.97	38.3
749.151	36.38
749.332	37.24
749.513	33.77
749.694	38.25
749.875	34.8
750.056	31.57
750.237	29.06
750.418	31.71
750.599	30.92
750.78	27.78
750.96	26.06
751.141	25.01
751.322	23.32
751.503	22.09
751.684	18.6
751.865	21.26
752.046	19.55
752.226	19.91
752.407	18.99
752.588	20.17
752.769	19.95
752.949	20.13
753.13	17.29
753.311	21.57
753.492	22.86
753.672	22.1
753.853	17.64
754.034	21.31
754.214	22.83
754.395	26.18
754.575	26.19
754.756	28.93
754.937	30.04
755.117	32.9
755.298	30.36
755.478	35.08
755.659	32.03
755.839	37.12
756.02	33.83
756.2	33.19
756.381	32.74
756.561	31.1
756.741	27.81
756.922	24.82
757.102	23.75
757.283	20.09
757.463	17.43
757.643	19.96
757.823	18.72
758.004	19.63
758.184	17.73
758.364	19.12
758.545	22.66
758.725	23.21
758.905	22.91
759.085	21.76
759.265	25.77
759.446	26.89
759.626	21.1
759.806	19.74
759.986	19.17
760.166	19.98
760.346	14.19
760.526	12.6
760.706	12
760.886	13.42
761.066	13.27
761.246	9.41
761.426	11.02
761.606	13.91
761.786	13.07
761.966	15.37
762.146	15.8
762.326	16.48
762.506	16.94
762.686	17.63
762.866	17.61
763.046	21.22
763.225	23.6
763.405	20.51
763.585	21.25
763.765	21.48
763.945	21.65
764.124	18.68
764.304	20.83
764.484	17.01
764.664	17.39
764.843	19.29
765.023	16.74
765.203	15.4
765.382	19.2
765.562	18.77
765.741	20.93
765.921	19.16
766.101	25.68
766.28	23.8
766.46	32.99
766.639	34.42
766.819	32.64
766.998	32.95
767.178	34.32
767.357	31.73
767.537	34.18
767.716	37.23
767.896	37.11
768.075	35.23
768.254	38.64
768.434	34.17
768.613	35.19
768.792	35.83
768.972	34.39
769.151	30.17
769.33	28.33
769.51	27.1
769.689	24.39
769.868	24.05
770.047	24.95
770.226	23.89
770.406	22.39
770.585	15.37
770.764	16.47
770.943	14.33
771.122	19.68
771.301	25.03
771.48	19.8
771.66	26.17
771.839	28.43
772.018	28.99
772.197	32.31
772.376	33.64
772.555	38.89
772.734	33.48
772.913	39.2
773.092	39.68
773.271	39.14
773.449	46.47
773.628	38.72
773.807	40.42
773.986	42.67
774.165	38.18
774.344	36.87
774.523	33.5
774.701	34.47
774.88	32.52
775.059	34.63
775.238	32.89
775.417	30.81
775.595	31.33
775.774	30.45
775.953	26.47
776.131	32.65
776.31	29.76
776.489	32.9
776.667	32.04
776.846	34.37
777.025	29.55
777.203	33.28
777.382	31.67
777.56	30.49
777.739	28.48
777.917	29.51
778.096	28.11
778.274	28.39
778.453	28.96
778.631	33.62
778.81	31.84
778.988	34.44
779.166	33.6
779.345	28.24
779.523	25
779.702	26.42
779.88	27.95
780.058	25.11
780.237	28.51
780.415	29.98
780.593	30.55
780.771	34.06
780.95	35.2
781.128	31.62
781.306	39.24
781.484	44.64
781.662	47.28
781.841	43.41
782.019	43.69
782.197	43.42
782.375	43.36
782.553	43.13
782.731	36.36
782.909	38.04
783.087	35.52
783.265	30.51
783.443	24.61
783.621	26.46
783.799	27.32
783.977	22.1
784.155	23.14
784.333	20.19
784.511	20.96
784.689	20.03
784.867	19.51
785.045	24.16
785.223	28.58
785.4	40.26
785.578	35.73
785.756	40.29
785.934	42.89
786.112	43.09
786.289	41.34
786.467	36.81
786.645	42.19
786.823	41.77
787	42.73
787.178	41.88
787.356	30.82
787.533	30.44
787.711	33.85
787.889	30.52
788.066	32.81
788.244	37.29
788.421	39.55
788.599	39.07
788.776	41.44
788.954	39.62
789.131	40.7
789.309	48.12
789.486	49.02
789.664	43.14
789.841	48.03
790.019	45.26
790.196	44.38
790.373	47.11
790.551	43.9
790.728	38.04
790.906	36.84
791.083	43.63
791.26	45.1
791.437	43.47
791.615	43.97
791.792	40.76
791.969	41.04
792.146	41.38
792.324	39.84
792.501	45.44
792.678	41.23
792.855	39.35
793.032	34.94
793.209	25.87
793.387	28.36
793.564	31.61
793.741	31.1
793.918	25.06
794.095	22.66
794.272	21.36
794.449	17.92
794.626	23.68
794.803	27.36
794.98	27.94
795.157	29.97
795.334	34.08
795.511	28.66
795.688	31.49
795.864	39.5
796.041	48.84
796.218	49.22
796.395	52.13
796.572	52.77
796.749	53.7
796.925	47.53
797.102	49.79
797.279	41.77
797.456	34.7
797.632	29.02
797.809	23.59
797.986	19.1
798.162	17.11
798.339	13.57
798.516	14.89
798.692	8.96
798.869	1.89
799.046	2.13
799.222	5.62
799.399	19.86
799.575	29.91
799.752	31.98
799.928	27.17
800.105	29.51
800.281	34.74
800.458	22.89
800.634	30.07
800.811	32.18
800.987	35.24
801.163	25.51
801.34	23.16
801.516	15.81
801.692	23.72
801.869	33.5
802.045	40.41
802.221	34.43
802.398	44.35
802.574	35.76
802.75	36.53
802.926	39.44
803.103	47.77
803.279	47.9
803.455	45.38
803.631	38.28
803.807	37.35
803.983	28.24
804.16	23.36
804.336	21.89
804.512	28.49
804.688	30.57
804.864	21.82
805.04	13.81
805.216	16.59
805.392	18.19
805.568	29.77
805.744	25.83
805.92	32.94
806.096	42.52
806.272	42.56
806.448	40.19
806.623	40.63
806.799	41.95
806.975	50.75
807.151	49.79
807.327	42.73
807.503	35.34
807.678	35.26
807.854	25.92
808.03	13.57
808.206	-0.92
808.381	3.35
808.557	3.68
808.733	9.88
808.908	8.4
809.084	4.79
809.26	13.09
809.435	7.01
809.611	-1.42
809.787	8.43
809.962	21.3
810.138	36.02
810.313	30.47
810.489	36.06
810.664	25.55
810.84	20.85
811.015	14.9
811.191	3.48
811.366	20.71
811.542	31.04
811.717	29.15
811.892	25.34
812.068	15.46
812.243	23.32
812.419	19.48
812.594	9.78
812.769	8.35
812.944	17.41
813.12	25.76
813.295	12.69
813.47	8.87
813.645	5.01
813.821	8.61
813.996	11.79
814.171	6.38
814.346	13.71
814.521	28.49
814.697	22.71
814.872	12.82
815.047	9.07
815.222	12.79
815.397	15.36
815.572	13.58
815.747	16.09
815.922	20.19
816.097	17.35
816.272	16.56
816.447	13.59
816.622	20.72
816.797	30.66
816.972	36.83
817.147	42.41
817.322	34.09
817.496	36.6
817.671	33.55
817.846	30.52
818.021	30.19
818.196	27.7
818.371	33.94
818.545	32.87
818.72	36.02
818.895	40.54
819.069	42.28
819.244	46.45
819.419	44.37
819.594	39.83
819.768	37.16
819.943	37.36
820.117	30.69
820.292	27.77
820.467	26.57
820.641	23.1
820.816	20.34
820.99	17.26
821.165	14.56
821.339	14.6
821.514	16.03
821.688	15.56
821.863	15.07
822.037	17.64
822.212	19.29
822.386	19.08
822.56	17.57
822.735	18.39
822.909	18.27
823.084	20.69
823.258	20.93
823.432	20.16
823.606	20.94
823.781	19.78
823.955	18.96
824.129	16.24
824.303	20.46
824.478	23.97
824.652	24.59
824.826	28.68
825	29.92
825.174	30.6
825.348	31.5
825.523	35.64
825.697	35.22
825.871	32.55
826.045	33.41
826.219	29.18
826.393	30.16
826.567	29.48
826.741	28.47
826.915	24.65
827.089	25.89
827.263	22.21
827.437	16.72
827.611	15.41
827.784	15.04
827.958	8.82
828.132	14.38
828.306	14.11
828.48	10.1
828.654	16.78
828.827	23.46
829.001	18
829.175	21.25
829.349	27.56
829.522	33.53
829.696	40.4
829.87	39.93
830.044	41.27
830.217	35.21
830.391	26.03
830.565	19.76
830.738	16.03
830.912	19.3
831.085	23.69
831.259	12.31
831.432	17.79
831.606	11.58
831.779	25.57
831.953	17
832.126	26.54
832.3	29.97
832.473	26.26
832.647	24.96
832.82	27.45
832.994	28.69
833.167	30.32
833.34	30.25
833.514	34.91
833.687	31.21
833.86	43.58
834.034	35.36
834.207	38.66
834.38	40.87
834.553	39.33
834.727	37.94
834.9	33.13
835.073	37.46
835.246	35.77
835.419	37.87
835.593	37.84
835.766	22.01
835.939	26.52
836.112	10.99
836.285	14.8
836.458	22.66
836.631	26.98
836.804	33.43
836.977	22.07
837.15	25.15
837.323	9.33
837.496	-1.77
837.669	4.72
837.842	-1.34
838.015	-0.65
838.188	10.06
838.361	-8.3
838.533	7.25
838.706	-5.14
838.879	10.46
839.052	5
839.225	9.81
839.398	1.08
839.57	11.64
839.743	0.52
839.916	24.27
840.088	11
840.261	17.92
840.434	-10.4
840.607	1.93
840.779	3.87
840.952	2.29
841.124	4.16
841.297	26.14
841.47	34.14
841.642	56.05
841.815	42.72
841.987	47.44
842.16	48.01
842.332	58.27
842.505	54.37
842.677	60.4
842.85	66.43
843.022	57.12
843.194	52.58
843.367	33.81
843.539	29.99
843.712	41
843.884	38.86
844.056	32.58
844.229	24.32
844.401	12.56
844.573	0.76
844.745	0.87
844.918	9.42
845.09	9.08
845.262	-0.11
845.434	-12.37
845.606	-22.24
845.779	-60.6
845.951	-43.01
846.123	-50.55
846.295	-16.75
846.467	-39.2
846.639	-153.52
846.811	-231.82
846.983	-252.26
847.155	-152.63
847.327	-59.75
847.499	-94.58
847.671	-34.15
847.843	-64.6
848.015	-77.9
848.187	-90.53
848.359	-312.36
848.531	-329.63
848.703	-68.6
848.875	-61.29
849.047	-120.26
849.218	-38.14
849.39	20.62
849.562	27.88
849.734	17.88
849.905	31.86
850.077	21.57
850.249	31.05
850.421	63.97
850.592	58.25
850.764	37.36
850.936	63.69
851.107	57.75
851.279	18.1
851.451	8.35
851.622	18.03
851.794	30.51
851.965	18.9
852.137	27.65
852.308	4.77
852.48	6.69
852.651	29.78
852.823	0.87
852.994	-2.52
853.166	47.78
853.337	101.9
853.509	83.29
853.68	82.21
853.851	94.47
854.023	86.27
854.194	76.76
854.365	72.48
854.537	53.93
854.708	54.39
854.879	55.66
855.05	50.11
855.222	58.16
855.393	53.1
855.564	54.23
855.735	45.03
855.906	53.9
856.078	48.59
856.249	34.42
856.42	94.74
856.591	107.56
856.762	77.16
856.933	66.92
857.104	15.21
857.275	-6.46
857.446	11.07
857.617	-4.04
857.788	3.02
857.959	17.44
858.13	15.19
858.301	-16.45
858.472	-34.96
858.643	-25.04
858.814	-11.81
858.985	-1.93
859.155	14.23
859.326	-14.1
859.497	1.43
859.668	1.63
859.839	-3.28
860.009	-1
860.18	14.23
860.351	29
860.522	20.96
860.692	2.8
860.863	-9.16
861.034	-14.25
861.204	9.96
861.375	22.44
861.546	7.8
861.716	16.51
861.887	34.75
862.057	10.79
862.228	17.25
862.398	19.59
862.569	31.61
862.739	43.97
862.91	37.38
863.08	37.13
863.251	36.29
863.421	52.32
863.592	50.47
863.762	38.16
863.932	43.08
864.103	44.44
864.273	41.82
864.443	49.37
864.614	51.86
864.784	50.22
864.954	51.61
865.125	43.36
865.295	29.95
865.465	48.41
865.635	50.61
865.805	48.37
865.976	45.43
866.146	50.42
866.316	36.23
866.486	35.78
866.656	47.56
866.826	48.08
866.996	56.12
867.166	67.55
867.336	53.11
867.506	64.43
867.676	49.08
867.846	42.36
868.016	27.23
868.186	16.5
868.356	-69.71
868.526	-685.42
868.696	-40200
868.866	644.71
869.036	-366.06
869.206	-833.87
869.376	-1534.15
869.545	-295
869.715	-365.31
869.885	-391.24
870.055	-98.89
870.224	-61.36
870.394	-17.88
870.564	-25.06
870.734	-16.71
870.903	-71.55
871.073	36.11
871.243	71.47
871.412	126.34
871.582	111.14
871.751	208.14
871.921	146.21
872.091	121.93
872.26	71.28
872.43	83.29
872.599	63.88
872.769	44.5
872.938	20.46
873.108	10.85
873.277	21.11
873.446	1.02
873.616	-14.53
873.785	-11.42
873.955	-8.7
874.124	-16.92
874.293	-14.1
874.463	-17.9
874.632	-8.73
874.801	-3.01
874.971	-6.2
875.14	-6.27
875.309	10.15
875.478	0.83
875.647	-14.81
875.817	4.96
875.986	8.05
876.155	11.04
876.324	24.92
876.493	-19.64
876.662	-37.65
876.831	-26.7
877	-22.14
877.17	-28.55
877.339	-20.6
877.508	-17.39
877.677	-22.6
877.846	-8.22
878.015	-15.32
878.184	-14.26
878.352	8.59
878.521	18.43
878.69	28.71
878.859	16.9
879.028	39.14
879.197	25.68
879.366	17.92
879.534	19.83
879.703	27.6
879.872	23.49
880.041	16.07
880.21	10.33
880.378	12.64
880.547	11.32
880.716	13.45
880.884	6.58
881.053	18.21
881.222	20.6
881.39	17.64
881.559	11.46
881.727	16.19
881.896	20.23
882.065	23.15
882.233	18.96
882.402	12.63
882.57	16.85
882.739	23.15
882.907	11.78
883.076	9.27
883.244	20.06
883.412	20.85
883.581	11.76
883.749	11.03
883.918	11.6
884.086	19.81
884.254	26.71
884.423	17.09
884.591	3.2
884.759	21.01
884.927	30.27
885.096	4.97
885.264	-23.68
885.432	-31.83
885.6	-23.5
885.769	-19.14
885.937	-55.56
886.105	-31.22
886.273	-45.53
886.441	-27.48
886.609	-31.51
886.777	-17.67
886.945	-27.45
887.113	-13.45
887.281	4.53
887.449	-12.04
887.617	3.29
887.785	13.78
887.953	17.61
888.121	28.41
888.289	14.29
888.457	17.23
888.625	18.38
888.793	19.52
888.961	14.82
889.129	17.75
889.296	22.9
889.464	7.1
889.632	13.37
889.8	-12.78
889.967	-41.18
890.135	-13.39
