Data from JASIL_2912_Reflection_2.txt Node
Date: Sat Nov 07 20:32:47 EST 2015
User: Geneva
Spectrometer: USB4E03002
Autoset integration time: false
Trigger mode: 4
Integration Time (sec): 1.000000E-1
Scans to average: 10
Electric dark correction enabled: true
Nonlinearity correction enabled: false
Boxcar width: 5
Stray light correction enabled: false
XAxis mode: Wavelengths
Stop averaging: false
Number of Pixels in Spectrum: 3648
>>>>>Begin Spectral Data<<<<<
177.575	142.3
177.794	184.39
178.014	124
178.233	129.47
178.452	135.42
178.672	203.5
178.891	-795.35
179.11	201.69
179.33	130.41
179.549	142.67
179.768	114.29
179.987	94.06
180.207	106.72
180.426	87.69
180.645	106.12
180.864	100.22
181.084	107.18
181.303	90.78
181.522	103.17
181.741	119.15
181.96	108.97
182.179	116.59
182.398	141.31
182.618	135.46
182.837	129.58
183.056	100.13
183.275	106.02
183.494	89.89
183.713	92.3
183.932	92.15
184.151	89.13
184.37	102.15
184.589	107.8
184.808	91.94
185.027	85.29
185.246	92.63
185.465	102.66
185.684	96.73
185.903	111.82
186.122	115.9
186.341	107.29
186.56	100.49
186.779	105.1
186.998	101.32
187.216	97.67
187.435	100.79
187.654	97.23
187.873	100.72
188.092	116.79
188.311	93.53
188.53	87.79
188.748	77.06
188.967	80.58
189.186	79.34
189.405	77.27
189.623	84.93
189.842	98.48
190.061	102.43
190.28	89.57
190.498	81.94
190.717	89.05
190.936	93.81
191.154	96.1
191.373	96.09
191.592	88.38
191.81	90.13
192.029	82.08
192.248	68.06
192.466	61.77
192.685	67.05
192.904	66.17
193.122	65.88
193.341	68.97
193.559	71.46
193.778	70.12
193.996	71.59
194.215	71.17
194.433	78.54
194.652	76.64
194.87	78.72
195.089	81.18
195.307	85.11
195.526	87.05
195.744	85.52
195.963	87.76
196.181	89.01
196.399	89.54
196.618	92.15
196.836	95.54
197.055	96.26
197.273	95.96
197.491	97.51
197.71	93.07
197.928	93.19
198.146	96.83
198.365	91.96
198.583	83.14
198.801	81.41
199.019	70.37
199.238	66.33
199.456	60.19
199.674	69.34
199.892	64.41
200.111	71.62
200.329	77.72
200.547	60.93
200.765	73.2
200.983	79.9
201.202	88.25
201.42	102.74
201.638	101.82
201.856	99.27
202.074	86.29
202.292	80.77
202.51	78.65
202.728	87.31
202.946	102.21
203.165	91.23
203.383	93.34
203.601	87.37
203.819	76.7
204.037	68.53
204.255	69.54
204.473	70.22
204.691	73.66
204.909	66.65
205.127	58.83
205.345	55.23
205.562	65.45
205.78	61.99
205.998	63.85
206.216	72.61
206.434	75.98
206.652	80.44
206.87	75.71
207.088	76.56
207.306	78.08
207.523	77.91
207.741	74.28
207.959	76.42
208.177	72.44
208.395	66.47
208.612	62.31
208.83	62.94
209.048	59.1
209.266	60.02
209.483	55.41
209.701	57.33
209.919	58.68
210.136	55.92
210.354	56.46
210.572	64.83
210.79	68.59
211.007	68.52
211.225	64.59
211.442	65
211.66	69.64
211.878	70.84
212.095	112.65
212.313	103.14
212.53	107.44
212.748	102.66
212.966	95.22
213.183	94.42
213.401	94.9
213.618	95.62
213.836	97.16
214.053	96.81
214.271	92.95
214.488	54.92
214.705	55.14
214.923	55.33
215.14	52.04
215.358	51.49
215.575	51.82
215.793	55.16
216.01	59.5
216.227	55.32
216.445	58.94
216.662	63.17
216.879	72.42
217.097	77.49
217.314	74.1
217.531	74.82
217.749	74.44
217.966	72.28
218.183	69.25
218.4	57.21
218.618	61.13
218.835	53.12
219.052	49.74
219.269	44.82
219.487	47.5
219.704	44.99
219.921	42.88
220.138	42.61
220.355	40.53
220.572	39.09
220.79	45.51
221.007	43.63
221.224	41.84
221.441	42.13
221.658	42.97
221.875	38.41
222.092	40.08
222.309	39.18
222.526	40.51
222.743	44.05
222.96	44.71
223.177	40.64
223.394	40.91
223.611	44.02
223.828	42.49
224.045	39
224.262	39.36
224.479	35.54
224.696	36.34
224.913	33.84
225.13	31.64
225.347	30.9
225.564	30.29
225.781	28.3
225.997	26.38
226.214	24.92
226.431	23.51
226.648	22
226.865	22.2
227.082	21.51
227.298	21.2
227.515	20.83
227.732	20.58
227.949	20.4
228.165	19.55
228.382	19.07
228.599	18.63
228.816	18.96
229.032	19.06
229.249	18.66
229.466	18.84
229.682	19.2
229.899	19.48
230.116	18.99
230.332	18.64
230.549	19.72
230.765	20.73
230.982	21.63
231.199	21.9
231.415	22.04
231.632	22.12
231.848	22.06
232.065	20.77
232.281	20.46
232.498	20.56
232.714	21.05
232.931	21.65
233.147	21.58
233.364	20.59
233.58	20.29
233.797	20.76
234.013	21.36
234.23	21.07
234.446	20.19
234.662	20.18
234.879	21.32
235.095	21.05
235.312	20.66
235.528	21.06
235.744	22.1
235.961	21.83
236.177	20.15
236.393	20.39
236.61	20.76
236.826	22.26
237.042	21.42
237.258	19.9
237.475	20.63
237.691	20.53
237.907	19.77
238.123	19.49
238.339	18.6
238.556	19.84
238.772	19.28
238.988	18.71
239.204	18.46
239.42	18.65
239.636	18.67
239.853	17.94
240.069	17.9
240.285	17.59
240.501	17.03
240.717	17.56
240.933	17.21
241.149	16.31
241.365	16.16
241.581	16.1
241.797	15.92
242.013	15.69
242.229	15.92
242.445	15.38
242.661	15.26
242.877	15.58
243.093	15.25
243.309	14.75
243.525	15.38
243.741	15.71
243.957	15.71
244.173	15.4
244.388	15.26
244.604	14.49
244.82	14.29
245.036	13.98
245.252	13.87
245.468	13.73
245.683	13.83
245.899	13.67
246.115	13.58
246.331	13.16
246.547	12.94
246.762	13.02
246.978	13.13
247.194	13.06
247.409	13.15
247.625	13.2
247.841	13.07
248.057	13.21
248.272	13.03
248.488	12.62
248.703	12.92
248.919	13.54
249.135	13.58
249.35	13.72
249.566	13.89
249.782	13.93
249.997	13.48
250.213	13.29
250.428	12.79
250.644	13.56
250.859	13.88
251.075	14.01
251.29	13.12
251.506	12.61
251.721	12.32
251.937	12.59
252.152	12.59
252.368	12.85
252.583	13.25
252.798	13.86
253.014	13.66
253.229	13.01
253.445	12.77
253.66	13.99
253.875	14.24
254.091	14.7
254.306	14.13
254.521	13.81
254.737	13.53
254.952	13.39
255.167	12.92
255.383	12.69
255.598	13.06
255.813	12.5
256.028	12.32
256.244	12.62
256.459	12.33
256.674	11.95
256.889	11.52
257.104	11.3
257.32	11.26
257.535	11.16
257.75	10.71
257.965	10.57
258.18	10.64
258.395	10.42
258.61	10.35
258.826	10.2
259.041	10.36
259.256	10.41
259.471	10.35
259.686	10.1
259.901	10.11
260.116	10.31
260.331	10.15
260.546	10.17
260.761	10.02
260.976	9.99
261.191	10.04
261.406	10.01
261.621	10.27
261.836	10.3
262.05	10.39
262.265	10.15
262.48	9.9
262.695	10.19
262.91	10.4
263.125	10.77
263.34	10.86
263.555	11.31
263.769	11.33
263.984	11.42
264.199	11.55
264.414	11.62
264.629	11.57
264.843	11.91
265.058	12.06
265.273	11.67
265.488	11.39
265.702	11.36
265.917	11.17
266.132	10.95
266.346	10.61
266.561	10.37
266.776	10.54
266.99	10.54
267.205	10.44
267.42	10.31
267.634	10.32
267.849	10.42
268.063	10.38
268.278	10.44
268.492	10.44
268.707	10.28
268.922	10.4
269.136	10.19
269.351	9.89
269.565	9.86
269.78	9.64
269.994	9.52
270.209	9.41
270.423	9.37
270.637	9.1
270.852	9.12
271.066	9.21
271.281	9.19
271.495	9.14
271.709	9.53
271.924	9.39
272.138	9.64
272.353	9.69
272.567	9.59
272.781	9.33
272.996	9.57
273.21	9.67
273.424	9.59
273.638	9.42
273.853	9.57
274.067	9.31
274.281	9.31
274.495	9.27
274.71	9.34
274.924	9.43
275.138	9.69
275.352	9.45
275.566	9.52
275.781	9.65
275.995	9.91
276.209	10.1
276.423	9.92
276.637	9.94
276.851	9.84
277.065	9.62
277.279	9.56
277.493	9.33
277.707	9.45
277.921	9.24
278.135	9.03
278.349	8.65
278.563	8.23
278.777	8.67
278.991	8.82
279.205	8.69
279.419	8.87
279.633	9.16
279.847	9.48
280.061	9.33
280.275	9.07
280.489	9.25
280.703	9.2
280.917	9.29
281.131	9.01
281.344	8.96
281.558	8.85
281.772	8.85
281.986	8.5
282.2	8.38
282.414	8.36
282.627	8.61
282.841	8.7
283.055	8.95
283.269	9.08
283.482	9.11
283.696	8.93
283.91	9.01
284.123	8.89
284.337	9.05
284.551	8.98
284.764	9.01
284.978	8.76
285.192	8.61
285.405	8.52
285.619	8.33
285.833	8.42
286.046	8.39
286.26	8.49
286.473	8.45
286.687	8.37
286.9	8.49
287.114	8.55
287.327	8.82
287.541	8.69
287.754	8.68
287.968	8.97
288.181	8.9
288.395	8.91
288.608	8.98
288.822	8.97
289.035	8.79
289.248	8.68
289.462	8.68
289.675	8.63
289.889	8.66
290.102	8.58
290.315	8.51
290.529	8.46
290.742	8.54
290.955	8.5
291.169	8.59
291.382	8.84
291.595	8.99
291.808	8.91
292.022	8.87
292.235	9.22
292.448	9.35
292.661	9.06
292.875	9.02
293.088	8.82
293.301	8.75
293.514	8.76
293.727	8.67
293.94	8.53
294.153	8.46
294.367	8.53
294.58	8.17
294.793	8.1
295.006	8.36
295.219	8.52
295.432	8.52
295.645	8.5
295.858	8.38
296.071	8.29
296.284	8.23
296.497	8.18
296.71	8.12
296.923	8.35
297.136	8.31
297.349	8.23
297.562	8
297.775	8.06
297.988	8.16
298.201	8.25
298.414	8.51
298.626	8.43
298.839	8.49
299.052	8.65
299.265	8.56
299.478	8.48
299.691	8.5
299.903	8.69
300.116	8.79
300.329	8.61
300.542	8.65
300.755	8.61
300.967	8.64
301.18	8.66
301.393	8.38
301.605	8.44
301.818	8.67
302.031	8.8
302.243	8.77
302.456	8.89
302.669	8.98
302.881	9.27
303.094	9.25
303.307	9.22
303.519	9.3
303.732	9.5
303.944	9.3
304.157	9.5
304.37	9.29
304.582	9.16
304.795	8.85
305.007	8.96
305.22	8.8
305.432	8.81
305.645	8.87
305.857	8.94
306.069	8.65
306.282	8.73
306.494	8.7
306.707	8.64
306.919	8.77
307.132	8.63
307.344	8.22
307.556	8.21
307.769	8.33
307.981	8.51
308.193	8.37
308.406	8.53
308.618	8.56
308.83	8.25
309.043	8.32
309.255	8.47
309.467	8.68
309.679	9
309.892	8.89
310.104	8.74
310.316	8.6
310.528	8.78
310.74	8.82
310.953	8.98
311.165	9.25
311.377	9.11
311.589	9.07
311.801	9.24
312.013	9.28
312.225	9.48
312.437	9.77
312.649	9.95
312.862	9.61
313.074	9.42
313.286	9.43
313.498	9.42
313.71	9.93
313.922	9.87
314.134	9.9
314.346	9.9
314.558	9.86
314.77	9.77
314.982	9.92
315.193	10.12
315.405	10.45
315.617	10.31
315.829	10.15
316.041	10.12
316.253	10.21
316.465	10.04
316.677	10.15
316.888	10.22
317.1	10.14
317.312	10.23
317.524	10.45
317.736	10.62
317.947	10.98
318.159	11.31
318.371	10.97
318.583	11.04
318.794	11.16
319.006	11.07
319.218	11.26
319.43	11.37
319.641	11.57
319.853	11.78
320.064	12.1
320.276	12.07
320.488	12.33
320.699	12.74
320.911	13.3
321.123	13.84
321.334	14.3
321.546	14.74
321.757	15.3
321.969	15.33
322.18	15.62
322.392	15.79
322.603	16.08
322.815	16.38
323.026	16.7
323.238	16.72
323.449	16.98
323.661	17.33
323.872	17.6
324.083	18.01
324.295	18.55
324.506	19.08
324.718	19.62
324.929	20.08
325.14	20.72
325.352	21.4
325.563	21.92
325.774	22.35
325.986	22.86
326.197	23.46
326.408	23.84
326.62	24.07
326.831	24.37
327.042	24.71
327.253	25.2
327.464	25.41
327.676	25.7
327.887	26.19
328.098	26.6
328.309	27.01
328.52	27.3
328.732	27.8
328.943	28.47
329.154	28.84
329.365	29.42
329.576	29.75
329.787	30.04
329.998	30.39
330.209	30.54
330.42	30.73
330.631	30.96
330.842	31.1
331.053	30.97
331.264	31.25
331.475	31.47
331.686	31.17
331.897	31.27
332.108	31.4
332.319	31.43
332.53	31.61
332.741	31.7
332.952	31.66
333.163	31.65
333.374	31.9
333.585	31.86
333.795	31.85
334.006	32.11
334.217	32.17
334.428	32.17
334.639	32.29
334.849	32.07
335.06	32.15
335.271	32.06
335.482	32.08
335.692	31.88
335.903	31.69
336.114	31.78
336.325	31.86
336.535	31.94
336.746	31.96
336.957	31.84
337.167	31.89
337.378	31.85
337.589	32.03
337.799	31.86
338.01	31.88
338.22	31.74
338.431	31.37
338.642	31.27
338.852	31.15
339.063	30.87
339.273	30.69
339.484	30.66
339.694	30.78
339.905	30.63
340.115	30.64
340.326	30.62
340.536	30.62
340.746	30.71
340.957	30.67
341.167	30.57
341.378	30.73
341.588	30.9
341.799	30.84
342.009	30.43
342.219	30.34
342.43	30.31
342.64	30.21
342.85	30.12
343.061	30.04
343.271	29.85
343.481	29.81
343.691	29.76
343.902	29.62
344.112	29.53
344.322	29.64
344.532	29.46
344.743	29.39
344.953	29.25
345.163	29.28
345.373	29.27
345.583	29.3
345.793	29.25
346.004	29.26
346.214	29.23
346.424	29.38
346.634	29.39
346.844	29.49
347.054	29.42
347.264	29.61
347.474	29.65
347.684	29.64
347.894	29.59
348.104	29.52
348.314	29.26
348.524	28.98
348.734	28.7
348.944	28.53
349.154	28.65
349.364	28.44
349.574	28.28
349.784	28.25
349.994	28.06
350.204	27.94
350.413	27.86
350.623	27.81
350.833	27.93
351.043	27.81
351.253	27.8
351.463	27.5
351.672	27.83
351.882	27.75
352.092	27.6
352.302	27.71
352.511	27.75
352.721	27.62
352.931	27.63
353.141	27.8
353.35	27.91
353.56	27.73
353.77	27.76
353.979	27.63
354.189	27.6
354.399	27.49
354.608	27.24
354.818	27.17
355.027	27.11
355.237	27.09
355.447	26.8
355.656	26.69
355.866	26.65
356.075	26.58
356.285	26.52
356.494	26.36
356.704	26.33
356.913	26.42
357.123	26.37
357.332	26.4
357.542	26.42
357.751	26.4
357.96	26.42
358.17	26.39
358.379	26.31
358.589	26.23
358.798	26.21
359.007	26.25
359.217	26.28
359.426	26.16
359.635	26.21
359.845	26.14
360.054	26.07
360.263	26.07
360.472	26.1
360.682	26.06
360.891	25.99
361.1	26.04
361.309	25.93
361.519	25.83
361.728	25.81
361.937	25.72
362.146	25.64
362.355	25.56
362.564	25.42
362.774	25.41
362.983	25.43
363.192	25.38
363.401	25.37
363.61	25.39
363.819	25.4
364.028	25.39
364.237	25.34
364.446	25.21
364.655	25.38
364.864	25.43
365.073	25.34
365.282	25.25
365.491	25.22
365.7	25.18
365.909	25.29
366.118	25.18
366.327	25.06
366.536	24.99
366.745	25.1
366.954	25.07
367.162	25.13
367.371	25.22
367.58	25.32
367.789	25.34
367.998	25.37
368.207	25.14
368.415	25.18
368.624	25.3
368.833	25.21
369.042	25.28
369.25	25.2
369.459	25.13
369.668	24.94
369.877	24.87
370.085	24.75
370.294	24.64
370.503	24.61
370.711	24.55
370.92	24.51
371.129	24.54
371.337	24.4
371.546	24.27
371.754	24.24
371.963	24.24
372.171	24.21
372.38	24.16
372.589	24.14
372.797	24.2
373.006	24.18
373.214	24.12
373.423	24.14
373.631	24.06
373.84	24.06
374.048	24.02
374.256	23.94
374.465	23.9
374.673	23.89
374.882	23.76
375.09	23.77
375.298	23.84
375.507	23.71
375.715	23.67
375.923	23.63
376.132	23.72
376.34	23.7
376.548	23.74
376.757	23.7
376.965	23.77
377.173	23.86
377.381	23.85
377.59	23.79
377.798	23.91
378.006	23.82
378.214	23.91
378.423	23.79
378.631	23.74
378.839	23.82
379.047	23.78
379.255	23.71
379.463	23.7
379.671	23.64
379.879	23.65
380.088	23.68
380.296	23.7
380.504	23.67
380.712	23.67
380.92	23.6
381.128	23.55
381.336	23.45
381.544	23.37
381.752	23.33
381.96	23.3
382.168	23.21
382.376	23.16
382.584	23.23
382.791	23.21
382.999	23.21
383.207	23.25
383.415	23.22
383.623	23.27
383.831	23.36
384.039	23.33
384.247	23.27
384.454	23.26
384.662	23.07
384.87	23.07
385.078	22.99
385.285	22.8
385.493	22.74
385.701	22.68
385.909	22.6
386.116	22.53
386.324	22.43
386.532	22.32
386.739	22.25
386.947	22.37
387.155	22.29
387.362	22.27
387.57	22.38
387.778	22.34
387.985	22.26
388.193	22.36
388.4	22.41
388.608	22.54
388.816	22.65
389.023	22.61
389.231	22.45
389.438	22.42
389.646	22.36
389.853	22.35
390.061	22.34
390.268	22.3
390.475	22.15
390.683	22.07
390.89	21.98
391.098	21.94
391.305	21.99
391.512	22.04
391.72	21.94
391.927	21.95
392.135	21.91
392.342	21.84
392.549	21.88
392.756	21.92
392.964	21.89
393.171	21.83
393.378	21.85
393.586	21.79
393.793	21.81
394	21.85
394.207	21.75
394.414	21.66
394.622	21.71
394.829	21.7
395.036	21.77
395.243	21.73
395.45	21.53
395.657	21.47
395.864	21.43
396.072	21.37
396.279	21.33
396.486	21.39
396.693	21.41
396.9	21.36
397.107	21.25
397.314	21.16
397.521	21.13
397.728	21.21
397.935	21.23
398.142	21.2
398.349	21.14
398.556	21.07
398.763	20.99
398.97	20.97
399.177	20.94
399.383	20.96
399.59	20.89
399.797	20.95
400.004	20.98
400.211	20.94
400.418	20.91
400.625	20.89
400.831	20.95
401.038	20.97
401.245	21.02
401.452	21
401.658	20.96
401.865	20.94
402.072	20.86
402.279	20.82
402.485	20.76
402.692	20.71
402.899	20.67
403.105	20.62
403.312	20.64
403.519	20.62
403.725	20.66
403.932	20.64
404.138	20.56
404.345	20.51
404.552	20.61
404.758	20.64
404.965	20.6
405.171	20.61
405.378	20.61
405.584	20.62
405.791	20.5
405.997	20.46
406.204	20.57
406.41	20.61
406.617	20.62
406.823	20.49
407.029	20.47
407.236	20.54
407.442	20.58
407.649	20.59
407.855	20.39
408.061	20.47
408.268	20.41
408.474	20.27
408.68	20.3
408.887	20.28
409.093	20.29
409.299	20.26
409.505	20.14
409.712	20.09
409.918	20
410.124	20.07
410.33	20.04
410.537	20.02
410.743	20.02
410.949	19.95
411.155	19.99
411.361	19.92
411.567	19.86
411.773	19.97
411.98	20
412.186	20.13
412.392	20.15
412.598	20.15
412.804	20.17
413.01	20.14
413.216	20.14
413.422	20.03
413.628	20.07
413.834	20.02
414.04	19.97
414.246	19.91
414.452	19.77
414.658	19.84
414.864	19.78
415.07	19.73
415.275	19.74
415.481	19.69
415.687	19.65
415.893	19.66
416.099	19.67
416.305	19.63
416.511	19.6
416.716	19.56
416.922	19.48
417.128	19.46
417.334	19.47
417.539	19.47
417.745	19.49
417.951	19.5
418.157	19.48
418.362	19.46
418.568	19.48
418.774	19.52
418.979	19.57
419.185	19.6
419.391	19.62
419.596	19.63
419.802	19.62
420.008	19.58
420.213	19.37
420.419	19.37
420.624	19.35
420.83	19.38
421.035	19.33
421.241	19.3
421.446	19.23
421.652	19.18
421.857	19.15
422.063	19.1
422.268	19.08
422.474	19.27
422.679	19.28
422.885	19.29
423.09	19.22
423.295	19.22
423.501	19.25
423.706	19.27
423.911	19.26
424.117	19.27
424.322	19.31
424.527	19.37
424.733	19.35
424.938	19.35
425.143	19.37
425.349	19.38
425.554	19.39
425.759	19.36
425.964	19.37
426.169	19.43
426.375	19.43
426.58	19.43
426.785	19.44
426.99	19.53
427.195	19.5
427.4	19.5
427.605	19.56
427.811	19.53
428.016	19.6
428.221	19.62
428.426	19.58
428.631	19.56
428.836	19.57
429.041	19.57
429.246	19.55
429.451	19.58
429.656	19.63
429.861	19.6
430.066	19.65
430.271	19.6
430.476	19.57
430.681	19.59
430.886	19.63
431.09	19.63
431.295	19.54
431.5	19.46
431.705	19.41
431.91	19.37
432.115	19.4
432.32	19.37
432.524	19.36
432.729	19.3
432.934	19.29
433.139	19.31
433.343	19.28
433.548	19.37
433.753	19.39
433.958	19.44
434.162	19.4
434.367	19.39
434.572	19.44
434.776	19.41
434.981	19.46
435.186	19.45
435.39	19.4
435.595	19.41
435.799	19.33
436.004	19.4
436.209	19.4
436.413	19.38
436.618	19.34
436.822	19.3
437.027	19.3
437.231	19.3
437.436	19.27
437.64	19.28
437.845	19.29
438.049	19.33
438.253	19.24
438.458	19.19
438.662	19.24
438.867	19.25
439.071	19.28
439.275	19.31
439.48	19.33
439.684	19.33
439.888	19.34
440.093	19.33
440.297	19.32
440.501	19.38
440.706	19.42
440.91	19.4
441.114	19.4
441.318	19.38
441.523	19.37
441.727	19.32
441.931	19.33
442.135	19.28
442.339	19.28
442.543	19.29
442.748	19.29
442.952	19.23
443.156	19.22
443.36	19.21
443.564	19.17
443.768	19.1
443.972	19.11
444.176	19.11
444.38	19.13
444.584	19.1
444.788	19.02
444.992	19
445.196	19.02
445.4	18.96
445.604	18.95
445.808	18.92
446.012	18.95
446.216	18.91
446.42	18.9
446.624	18.88
446.828	18.86
447.032	18.89
447.235	18.85
447.439	18.86
447.643	18.92
447.847	18.91
448.051	18.94
448.254	18.94
448.458	18.99
448.662	19.01
448.866	18.98
449.069	18.94
449.273	18.98
449.477	19.03
449.681	19
449.884	18.91
450.088	18.92
450.292	18.89
450.495	18.83
450.699	18.88
450.902	18.83
451.106	18.89
451.31	19.02
451.513	18.94
451.717	18.9
451.92	18.89
452.124	18.92
452.327	18.95
452.531	18.92
452.734	18.96
452.938	18.89
453.141	18.9
453.345	18.88
453.548	18.8
453.752	18.88
453.955	18.94
454.158	18.93
454.362	18.89
454.565	18.87
454.769	18.87
454.972	18.88
455.175	18.9
455.379	18.89
455.582	18.8
455.785	18.76
455.988	18.66
456.192	18.6
456.395	18.55
456.598	18.57
456.801	18.51
457.005	18.53
457.208	18.51
457.411	18.48
457.614	18.4
457.817	18.4
458.021	18.33
458.224	18.32
458.427	18.26
458.63	18.24
458.833	18.2
459.036	18.17
459.239	18.13
459.442	18.09
459.645	18.03
459.848	18.05
460.051	18.03
460.254	18.07
460.457	18.06
460.66	18.12
460.863	18.16
461.066	18.15
461.269	18.15
461.472	18.21
461.675	18.25
461.878	18.32
462.081	18.35
462.284	18.37
462.486	18.32
462.689	18.3
462.892	18.28
463.095	18.24
463.298	18.27
463.5	18.25
463.703	18.18
463.906	18.15
464.109	18.1
464.311	18.07
464.514	18.07
464.717	18.12
464.92	18.14
465.122	18.11
465.325	18.08
465.528	18.12
465.73	18.14
465.933	18.12
466.135	18.01
466.338	17.97
466.541	17.94
466.743	17.86
466.946	17.79
467.148	17.76
467.351	17.76
467.553	17.73
467.756	17.72
467.958	17.71
468.161	17.7
468.363	17.71
468.566	17.7
468.768	17.7
468.971	17.78
469.173	17.78
469.375	17.78
469.578	17.64
469.78	17.7
469.983	17.62
470.185	17.58
470.387	17.57
470.59	17.61
470.792	17.66
470.994	17.64
471.196	17.58
471.399	17.55
471.601	17.48
471.803	17.54
472.005	17.5
472.208	17.46
472.41	17.42
472.612	17.38
472.814	17.4
473.016	17.42
473.218	17.48
473.421	17.49
473.623	17.51
473.825	17.56
474.027	17.54
474.229	17.49
474.431	17.48
474.633	17.51
474.835	17.55
475.037	17.47
475.239	17.43
475.441	17.33
475.643	17.31
475.845	17.3
476.047	17.24
476.249	17.27
476.451	17.24
476.653	17.23
476.855	17.18
477.057	17.18
477.258	17.18
477.46	17.15
477.662	17.16
477.864	17.15
478.066	17.13
478.268	17.15
478.469	17.12
478.671	17.11
478.873	17.11
479.075	17.1
479.276	17.02
479.478	17.06
479.68	17.03
479.882	17.02
480.083	17.03
480.285	17.02
480.487	16.99
480.688	16.95
480.89	16.97
481.091	16.9
481.293	16.91
481.495	16.9
481.696	16.84
481.898	16.81
482.099	16.73
482.301	16.68
482.502	16.63
482.704	16.56
482.905	16.53
483.107	16.49
483.308	16.49
483.51	16.46
483.711	16.44
483.913	16.42
484.114	16.4
484.315	16.39
484.517	16.39
484.718	16.39
484.92	16.42
485.121	16.42
485.322	16.43
485.524	16.42
485.725	16.38
485.926	16.37
486.127	16.37
486.329	16.34
486.53	16.35
486.731	16.31
486.932	16.29
487.134	16.26
487.335	16.27
487.536	16.26
487.737	16.27
487.938	16.29
488.139	16.28
488.341	16.29
488.542	16.3
488.743	16.29
488.944	16.34
489.145	16.33
489.346	16.37
489.547	16.34
489.748	16.33
489.949	16.3
490.15	16.28
490.351	16.25
490.552	16.23
490.753	16.19
490.954	16.15
491.155	16.1
491.356	16.12
491.557	16.1
491.758	16.08
491.959	16.07
492.159	16.07
492.36	16.06
492.561	16.08
492.762	16.08
492.963	16.11
493.164	16.14
493.364	16.21
493.565	16.23
493.766	16.24
493.967	16.28
494.167	16.26
494.368	16.26
494.569	16.27
494.769	16.27
494.97	16.25
495.171	16.24
495.371	16.24
495.572	16.23
495.773	16.15
495.973	16.14
496.174	16.1
496.375	16.15
496.575	16.16
496.776	16.14
496.976	16.16
497.177	16.14
497.377	16.18
497.578	16.17
497.778	16.15
497.979	16.18
498.179	16.17
498.38	16.2
498.58	16.14
498.78	16.14
498.981	16.19
499.181	16.17
499.382	16.18
499.582	16.12
499.782	16.13
499.983	16.15
500.183	16.13
500.383	16.11
500.584	16.08
500.784	16.09
500.984	16.06
501.184	15.97
501.385	15.98
501.585	15.99
501.785	16
501.985	15.99
502.185	15.99
502.386	16
502.586	16.03
502.786	16.05
502.986	16.03
503.186	16.05
503.386	16.09
503.586	16.06
503.786	16.05
503.987	16.07
504.187	16.06
504.387	16.05
504.587	16.01
504.787	15.99
504.987	15.96
505.187	15.98
505.387	15.93
505.587	15.94
505.786	15.95
505.986	15.97
506.186	15.97
506.386	15.99
506.586	15.95
506.786	15.97
506.986	15.93
507.186	15.92
507.386	15.88
507.585	15.86
507.785	15.86
507.985	15.84
508.185	15.81
508.384	15.77
508.584	15.73
508.784	15.73
508.984	15.76
509.183	15.75
509.383	15.72
509.583	15.71
509.782	15.72
509.982	15.7
510.182	15.67
510.381	15.7
510.581	15.73
510.781	15.74
510.98	15.72
511.18	15.7
511.379	15.68
511.579	15.71
511.778	15.75
511.978	15.73
512.177	15.75
512.377	15.78
512.576	15.74
512.776	15.7
512.975	15.7
513.175	15.68
513.374	15.71
513.573	15.77
513.773	15.77
513.972	15.75
514.172	15.84
514.371	15.82
514.57	15.83
514.77	15.84
514.969	15.83
515.168	15.81
515.367	15.84
515.567	15.81
515.766	15.78
515.965	15.73
516.164	15.75
516.364	15.68
516.563	15.66
516.762	15.57
516.961	15.54
517.16	15.55
517.359	15.53
517.559	15.5
517.758	15.46
517.957	15.42
518.156	15.46
518.355	15.43
518.554	15.46
518.753	15.45
518.952	15.48
519.151	15.48
519.35	15.47
519.549	15.47
519.748	15.5
519.947	15.54
520.146	15.57
520.345	15.54
520.544	15.52
520.743	15.46
520.942	15.44
521.141	15.45
521.339	15.48
521.538	15.49
521.737	15.48
521.936	15.42
522.135	15.4
522.333	15.41
522.532	15.41
522.731	15.42
522.93	15.42
523.129	15.39
523.327	15.42
523.526	15.38
523.725	15.36
523.923	15.38
524.122	15.41
524.321	15.37
524.519	15.35
524.718	15.35
524.917	15.37
525.115	15.35
525.314	15.38
525.512	15.35
525.711	15.33
525.909	15.29
526.108	15.25
526.306	15.23
526.505	15.21
526.703	15.18
526.902	15.16
527.1	15.11
527.299	15.12
527.497	15.09
527.696	15.06
527.894	15.07
528.092	15.06
528.291	15.05
528.489	15.04
528.688	15.06
528.886	15.07
529.084	15.07
529.283	15.09
529.481	15.09
529.679	15.11
529.877	15.16
530.076	15.16
530.274	15.2
530.472	15.25
530.67	15.26
530.869	15.24
531.067	15.25
531.265	15.22
531.463	15.26
531.661	15.26
531.859	15.27
532.057	15.24
532.255	15.22
532.454	15.21
532.652	15.19
532.85	15.2
533.048	15.23
533.246	15.24
533.444	15.27
533.642	15.27
533.84	15.28
534.038	15.28
534.236	15.31
534.434	15.34
534.632	15.36
534.83	15.39
535.027	15.4
535.225	15.4
535.423	15.39
535.621	15.41
535.819	15.38
536.017	15.38
536.215	15.36
536.412	15.33
536.61	15.35
536.808	15.36
537.006	15.33
537.203	15.35
537.401	15.36
537.599	15.38
537.797	15.38
537.994	15.37
538.192	15.39
538.39	15.42
538.587	15.44
538.785	15.44
538.983	15.43
539.18	15.44
539.378	15.41
539.575	15.44
539.773	15.44
539.97	15.42
540.168	15.44
540.366	15.43
540.563	15.45
540.761	15.45
540.958	15.44
541.155	15.45
541.353	15.45
541.55	15.48
541.748	15.47
541.945	15.48
542.143	15.49
542.34	15.52
542.537	15.54
542.735	15.55
542.932	15.58
543.129	15.61
543.327	15.62
543.524	15.65
543.721	15.68
543.919	15.72
544.116	15.79
544.313	15.86
544.51	15.87
544.708	15.9
544.905	15.9
545.102	15.95
545.299	15.99
545.496	16.06
545.693	16.07
545.891	16.11
546.088	16.12
546.285	16.15
546.482	16.15
546.679	16.19
546.876	16.2
547.073	16.28
547.27	16.27
547.467	16.28
547.664	16.3
547.861	16.34
548.058	16.36
548.255	16.42
548.452	16.43
548.649	16.48
548.846	16.5
549.043	16.56
549.24	16.57
549.437	16.63
549.633	16.69
549.83	16.76
550.027	16.84
550.224	16.86
550.421	16.85
550.618	16.83
550.814	16.88
551.011	16.91
551.208	16.96
551.405	16.93
551.601	16.96
551.798	16.97
551.995	16.97
552.191	17.01
552.388	17.03
552.585	17.11
552.781	17.15
552.978	17.16
553.175	17.23
553.371	17.26
553.568	17.37
553.764	17.41
553.961	17.46
554.157	17.53
554.354	17.55
554.55	17.58
554.747	17.64
554.943	17.75
555.14	17.81
555.336	17.85
555.533	17.89
555.729	17.93
555.926	17.99
556.122	18.06
556.318	18.12
556.515	18.17
556.711	18.26
556.907	18.27
557.104	18.28
557.3	18.34
557.496	18.41
557.693	18.47
557.889	18.56
558.085	18.58
558.281	18.68
558.478	18.72
558.674	18.75
558.87	18.79
559.066	18.89
559.262	18.93
559.459	19.01
559.655	19.09
559.851	19.14
560.047	19.24
560.243	19.32
560.439	19.34
560.635	19.39
560.831	19.5
561.027	19.6
561.223	19.57
561.419	19.61
561.615	19.67
561.811	19.71
562.007	19.77
562.203	19.76
562.399	19.82
562.595	19.87
562.791	19.91
562.987	19.92
563.183	19.97
563.379	20.15
563.575	20.29
563.771	20.36
563.966	20.42
564.162	20.57
564.358	20.63
564.554	20.67
564.75	20.73
564.945	20.84
565.141	20.99
565.337	21.02
565.533	21.06
565.728	21.16
565.924	21.23
566.12	21.28
566.315	21.35
566.511	21.43
566.707	21.53
566.902	21.66
567.098	21.74
567.293	21.86
567.489	21.94
567.684	22.03
567.88	22.07
568.076	22.19
568.271	22.33
568.467	22.36
568.662	22.43
568.858	22.51
569.053	22.62
569.248	22.68
569.444	22.71
569.639	22.8
569.835	22.88
570.03	23
570.225	23.04
570.421	23.12
570.616	23.21
570.812	23.34
571.007	23.39
571.202	23.44
571.397	23.51
571.593	23.56
571.788	23.74
571.983	23.78
572.178	23.87
572.374	24.01
572.569	24.07
572.764	24.15
572.959	24.29
573.154	24.41
573.35	24.5
573.545	24.7
573.74	24.77
573.935	24.84
574.13	25.01
574.325	25.09
574.52	25.18
574.715	25.32
574.91	25.42
575.105	25.47
575.3	25.58
575.495	25.68
575.69	25.72
575.885	25.84
576.08	25.92
576.275	25.98
576.47	26.03
576.665	26.11
576.86	26.21
577.055	26.33
577.25	26.44
577.444	26.55
577.639	26.71
577.834	26.77
578.029	26.93
578.224	26.96
578.418	27.13
578.613	27.24
578.808	27.27
579.003	27.34
579.197	27.45
579.392	27.48
579.587	27.59
579.781	27.59
579.976	27.72
580.171	27.8
580.365	27.96
580.56	28.01
580.755	28.09
580.949	28.25
581.144	28.3
581.338	28.33
581.533	28.54
581.727	28.63
581.922	28.75
582.116	28.8
582.311	28.88
582.505	28.91
582.7	29.02
582.894	29.11
583.089	29.16
583.283	29.31
583.478	29.45
583.672	29.56
583.866	29.61
584.061	29.69
584.255	29.85
584.449	30.01
584.644	30.12
584.838	30.24
585.032	30.4
585.226	30.54
585.421	30.61
585.615	30.7
585.809	30.72
586.003	30.79
586.198	30.92
586.392	30.98
586.586	30.96
586.78	30.99
586.974	31.05
587.168	31.05
587.363	31.11
587.557	31.16
587.751	31.2
587.945	31.26
588.139	31.42
588.333	31.45
588.527	31.5
588.721	31.63
588.915	31.75
589.109	31.77
589.303	31.88
589.497	31.92
589.691	31.96
589.885	32.04
590.079	32.08
590.273	32.06
590.466	32.13
590.66	32.2
590.854	32.22
591.048	32.27
591.242	32.31
591.436	32.39
591.629	32.54
591.823	32.71
592.017	32.82
592.211	32.87
592.404	32.94
592.598	32.97
592.792	32.98
592.986	33.08
593.179	33.16
593.373	33.27
593.567	33.32
593.76	33.32
593.954	33.3
594.147	33.32
594.341	33.39
594.535	33.41
594.728	33.44
594.922	33.48
595.115	33.52
595.309	33.53
595.502	33.57
595.696	33.57
595.889	33.65
596.083	33.7
596.276	33.71
596.47	33.76
596.663	33.82
596.856	33.88
597.05	33.94
597.243	33.97
597.437	34.04
597.63	34.1
597.823	34.23
598.017	34.23
598.21	34.3
598.403	34.34
598.596	34.42
598.79	34.56
598.983	34.7
599.176	34.74
599.369	34.84
599.563	34.95
599.756	35.04
599.949	35.03
600.142	35.05
600.335	35.1
600.528	35.27
600.722	35.27
600.915	35.29
601.108	35.28
601.301	35.38
601.494	35.42
601.687	35.35
601.88	35.32
602.073	35.32
602.266	35.38
602.459	35.36
602.652	35.26
602.845	35.31
603.038	35.29
603.231	35.32
603.424	35.26
603.617	35.21
603.809	35.27
604.002	35.26
604.195	35.29
604.388	35.31
604.581	35.39
604.774	35.5
604.966	35.47
605.159	35.49
605.352	35.52
605.545	35.62
605.737	35.63
605.93	35.69
606.123	35.75
606.316	35.83
606.508	35.87
606.701	35.89
606.894	35.88
607.086	35.97
607.279	36
607.471	36
607.664	36
607.857	36.12
608.049	36.16
608.242	36.25
608.434	36.22
608.627	36.27
608.819	36.31
609.012	36.41
609.204	36.49
609.397	36.51
609.589	36.6
609.782	36.7
609.974	36.77
610.166	36.86
610.359	36.89
610.551	36.95
610.743	37.03
610.936	37.06
611.128	37.07
611.32	37.1
611.513	37.14
611.705	37.1
611.897	37.12
612.09	37.11
612.282	37.09
612.474	36.99
612.666	37.11
612.858	37.11
613.051	37.1
613.243	37.02
613.435	37.02
613.627	37.09
613.819	37.12
614.011	37.16
614.203	37.09
614.395	37.13
614.588	37.12
614.78	37
614.972	36.96
615.164	36.84
615.356	36.87
615.548	36.83
615.74	36.74
615.932	36.71
616.124	36.55
616.315	36.6
616.507	36.55
616.699	36.56
616.891	36.58
617.083	36.56
617.275	36.65
617.467	36.61
617.659	36.63
617.85	36.54
618.042	36.59
618.234	36.62
618.426	36.66
618.618	36.6
618.809	36.63
619.001	36.66
619.193	36.59
619.384	36.61
619.576	36.55
619.768	36.49
619.959	36.63
620.151	36.64
620.343	36.73
620.534	36.7
620.726	36.76
620.917	36.75
621.109	36.76
621.301	36.86
621.492	36.89
621.684	36.99
621.875	37.06
622.067	37.05
622.258	37.06
622.45	36.96
622.641	36.9
622.832	36.76
623.024	36.73
623.215	36.72
623.407	36.64
623.598	36.52
623.789	36.5
623.981	36.4
624.172	36.36
624.363	36.31
624.555	36.37
624.746	36.37
624.937	36.45
625.129	36.48
625.32	36.41
625.511	36.45
625.702	36.47
625.893	36.49
626.085	36.5
626.276	36.44
626.467	36.4
626.658	36.27
626.849	36.27
627.04	36.26
627.231	36.27
627.422	36.24
627.614	36.16
627.805	36.24
627.996	36.19
628.187	36.25
628.378	36.26
628.569	36.3
628.76	36.39
628.951	36.38
629.142	36.3
629.332	36.29
629.523	36.36
629.714	36.4
629.905	36.36
630.096	36.29
630.287	36.24
630.478	36.25
630.669	36.17
630.859	36.14
631.05	36.06
631.241	36.12
631.432	36.14
631.623	36.17
631.813	36.13
632.004	36.09
632.195	36.08
632.385	36.05
632.576	36.12
632.767	36.12
632.957	36.11
633.148	36.18
633.339	36.11
633.529	36.13
633.72	35.93
633.91	35.97
634.101	35.87
634.292	35.89
634.482	35.8
634.673	35.75
634.863	35.75
635.054	35.81
635.244	35.8
635.435	35.81
635.625	35.66
635.815	35.73
636.006	35.62
636.196	35.71
636.387	35.73
636.577	35.79
636.767	35.83
636.958	35.95
637.148	35.88
637.338	35.81
637.529	35.81
637.719	35.95
637.909	35.96
638.099	35.98
638.29	35.88
638.48	35.89
638.67	35.86
638.86	35.78
639.05	35.69
639.241	35.68
639.431	35.73
639.621	35.71
639.811	35.64
640.001	35.62
640.191	35.52
640.381	35.53
640.571	35.52
640.761	35.53
640.951	35.54
641.141	35.53
641.331	35.44
641.521	35.43
641.711	35.35
641.901	35.28
642.091	35.32
642.281	35.33
642.471	35.31
642.661	35.27
642.851	35.39
643.041	35.4
643.231	35.32
643.42	35.44
643.61	35.42
643.8	35.49
643.99	35.45
644.18	35.31
644.369	35.48
644.559	35.55
644.749	35.5
644.939	35.35
645.128	35.32
645.318	35.31
645.508	35.23
645.697	35.19
645.887	35.25
646.076	35.35
646.266	35.4
646.456	35.34
646.645	35.38
646.835	35.47
647.024	35.44
647.214	35.38
647.403	35.4
647.593	35.32
647.782	35.33
647.972	35.33
648.161	35.31
648.351	35.3
648.54	35.27
648.73	35.18
648.919	35.09
649.108	34.99
649.298	35.04
649.487	35.03
649.677	35.03
649.866	35.01
650.055	34.97
650.244	34.99
650.434	35.11
650.623	35.12
650.812	35.14
651.002	35.18
651.191	35.32
651.38	35.33
651.569	35.43
651.758	35.49
651.947	35.61
652.137	35.63
652.326	35.51
652.515	35.41
652.704	35.49
652.893	35.42
653.082	35.44
653.271	35.46
653.46	35.55
653.649	35.6
653.838	35.62
654.027	35.58
654.216	35.52
654.405	35.58
654.594	35.63
654.783	35.52
654.972	35.58
655.161	35.53
655.35	35.48
655.539	35.29
655.728	35.21
655.916	35.09
656.105	35.04
656.294	35.01
656.483	35.07
656.672	35.08
656.86	35.07
657.049	35.09
657.238	35.08
657.427	35.2
657.615	35.21
657.804	35.13
657.993	35.18
658.181	35.21
658.37	35.23
658.559	35.13
658.747	35.1
658.936	35.12
659.125	35.23
659.313	35.18
659.502	35.1
659.69	35.15
659.879	35.25
660.067	35.28
660.256	35.26
660.444	35.27
660.633	35.28
660.821	35.28
661.01	35.24
661.198	35.08
661.387	35.14
661.575	35.18
661.763	35.28
661.952	35.15
662.14	35.17
662.328	35.14
662.517	35.12
662.705	35.13
662.893	35.24
663.082	35.4
663.27	35.38
663.458	35.45
663.646	35.32
663.834	35.22
664.023	35.23
664.211	35.18
664.399	35.15
664.587	35.24
664.775	35.18
664.963	35.05
665.152	35.06
665.34	35.09
665.528	34.97
665.716	35.17
665.904	35.18
666.092	35.25
666.28	35.29
666.468	35.29
666.656	35.14
666.844	35.33
667.032	35.42
667.22	35.23
667.408	35.17
667.596	35.33
667.784	35.27
667.971	35.23
668.159	35.28
668.347	35.23
668.535	35.27
668.723	35.38
668.911	35.26
669.098	35.17
669.286	35.21
669.474	35.33
669.662	35.23
669.849	35.16
670.037	35.1
670.225	34.98
670.413	35.08
670.6	35.01
670.788	34.97
670.976	35.04
671.163	35.05
671.351	35.06
671.538	34.95
671.726	34.92
671.913	34.96
672.101	35.04
672.289	35.05
672.476	34.93
672.664	35.09
672.851	35.1
673.039	35.07
673.226	35.02
673.413	34.98
673.601	35.07
673.788	35.07
673.976	34.98
674.163	35
674.35	35.06
674.538	35.1
674.725	34.94
674.912	34.96
675.1	35.01
675.287	35.19
675.474	35.23
675.662	35.26
675.849	35.27
676.036	35.23
676.223	35.18
676.411	35.17
676.598	35.19
676.785	35.3
676.972	35.26
677.159	35.14
677.346	34.87
677.533	34.85
677.721	34.83
677.908	34.84
678.095	34.84
678.282	34.87
678.469	34.83
678.656	34.88
678.843	34.89
679.03	35.04
679.217	35.19
679.404	35.3
679.591	35.23
679.778	35.21
679.964	35.21
680.151	35.3
680.338	35.38
680.525	35.29
680.712	35.26
680.899	35.25
681.086	35.15
681.272	34.91
681.459	34.97
681.646	35.11
681.833	35.16
682.02	35.14
682.206	35.35
682.393	35.29
682.58	35.39
682.766	35.38
682.953	35.5
683.14	35.55
683.326	35.73
683.513	35.66
683.7	35.75
683.886	35.62
684.073	35.57
684.259	35.26
684.446	35.4
684.632	35.41
684.819	35.43
685.005	35.22
685.192	35.22
685.378	35.2
685.565	35.29
685.751	35.1
685.938	35.11
686.124	35.2
686.31	35.34
686.497	35.18
686.683	35.13
686.87	35.09
687.056	35.13
687.242	34.95
687.429	34.94
687.615	34.91
687.801	35.05
687.987	35.18
688.174	35.17
688.36	35.12
688.546	35.07
688.732	35.09
688.918	35.02
689.105	35.18
689.291	35.33
689.477	35.41
689.663	35.45
689.849	35.39
690.035	35.42
690.221	35.45
690.407	35.5
690.593	35.55
690.779	35.71
690.965	35.76
691.151	35.69
691.337	35.66
691.523	35.63
691.709	35.79
691.895	35.74
692.081	35.73
692.267	35.7
692.453	35.75
692.639	35.78
692.825	35.6
693.011	35.62
693.196	35.54
693.382	35.42
693.568	35.39
693.754	35.11
693.94	35.08
694.125	34.9
694.311	35.01
694.497	34.9
694.682	34.85
694.868	34.88
695.054	34.93
695.239	35
695.425	35.01
695.611	35.15
695.796	35.21
695.982	35.27
696.168	35.38
696.353	35.23
696.539	35.22
696.724	35.14
696.91	35.18
697.095	35.16
697.281	35.1
697.466	35.15
697.652	35.08
697.837	35.06
698.023	34.99
698.208	34.88
698.393	35.04
698.579	34.99
698.764	34.91
698.949	34.93
699.135	34.87
699.32	34.9
699.505	34.94
699.691	34.77
699.876	34.75
700.061	34.77
700.246	34.86
700.432	34.78
700.617	34.72
700.802	34.78
700.987	34.84
701.172	34.81
701.358	34.78
701.543	34.94
701.728	35.05
701.913	35.19
702.098	35.26
702.283	35.31
702.468	35.22
702.653	35.48
702.838	35.53
703.023	35.5
703.208	35.58
703.393	35.62
703.578	35.55
703.763	35.51
703.948	35.41
704.133	35.39
704.318	35.47
704.503	35.6
704.688	35.63
704.873	35.61
705.057	35.57
705.242	35.66
705.427	35.54
705.612	35.52
705.797	35.69
705.981	35.62
706.166	35.8
706.351	35.52
706.536	35.5
706.72	35.5
706.905	35.65
707.09	35.72
707.274	35.72
707.459	35.87
707.644	35.82
707.828	35.7
708.013	35.74
708.197	35.67
708.382	35.95
708.567	35.81
708.751	35.85
708.936	35.47
709.12	35.4
709.305	35.35
709.489	35.2
709.673	35.19
709.858	35.28
710.042	35.32
710.227	35.21
710.411	35.17
710.596	35.19
710.78	35.17
710.964	35.53
711.149	35.62
711.333	35.62
711.517	35.69
711.702	35.68
711.886	35.67
712.07	35.68
712.254	35.75
712.438	35.67
712.623	35.74
712.807	35.63
712.991	35.58
713.175	35.62
713.359	35.52
713.544	35.37
713.728	35.46
713.912	35.51
714.096	35.44
714.28	35.41
714.464	35.49
714.648	35.47
714.832	35.53
715.016	35.51
715.2	35.21
715.384	35.41
715.568	35.64
715.752	35.36
715.936	35.33
716.12	35.35
716.304	35.36
716.488	35.1
716.671	35.09
716.855	35.2
717.039	35.28
717.223	35.48
717.407	35.32
717.59	35.38
717.774	35.64
717.958	35.66
718.142	35.58
718.325	35.57
718.509	35.78
718.693	35.68
718.877	35.7
719.06	35.6
719.244	35.39
719.428	35.4
719.611	35.2
719.795	35.16
719.978	35.24
720.162	35.37
720.345	35.37
720.529	35.45
720.713	35.52
720.896	35.34
721.08	35.33
721.263	35.59
721.446	35.65
721.63	35.64
721.813	35.64
721.997	35.49
722.18	35.27
722.364	35.25
722.547	35.11
722.73	35.01
722.914	34.98
723.097	34.92
723.28	34.95
723.464	34.81
723.647	34.81
723.83	34.93
724.013	34.89
724.197	35.15
724.38	35.3
724.563	35.38
724.746	35.61
724.929	35.65
725.112	36.03
725.296	35.9
725.479	35.92
725.662	35.99
725.845	35.81
726.028	35.82
726.211	35.77
726.394	35.82
726.577	35.67
726.76	35.51
726.943	35.38
727.126	35.05
727.309	35.24
727.492	35.3
727.675	35.24
727.858	35.12
728.041	35.11
728.224	35.06
728.407	34.86
728.589	34.9
728.772	34.97
728.955	35.07
729.138	35.26
729.321	35.07
729.503	35.36
729.686	35.41
729.869	35.6
730.052	35.85
730.234	35.75
730.417	35.66
730.6	35.78
730.782	35.66
730.965	35.55
731.148	35.58
731.33	35.6
731.513	35.29
731.695	35.14
731.878	35.2
732.061	34.88
732.243	35.04
732.426	35.04
732.608	34.99
732.791	35.17
732.973	35.23
733.156	34.93
733.338	34.89
733.52	34.92
733.703	34.95
733.885	35.02
734.068	35.09
734.25	35.21
734.432	35.35
734.615	35.27
734.797	35.13
734.979	35.15
735.162	35.41
735.344	35.53
735.526	35.5
735.708	35.55
735.891	35.35
736.073	35.39
736.255	35.13
736.437	35.22
736.619	35.27
736.802	35.17
736.984	34.97
737.166	34.95
737.348	34.92
737.53	34.9
737.712	34.82
737.894	34.86
738.076	34.88
738.258	34.96
738.44	35.05
738.622	35.04
738.804	35.18
738.986	35.36
739.168	35.1
739.35	35.23
739.532	35.28
739.714	35.55
739.896	35.51
740.078	35.57
740.259	35.38
740.441	35.28
740.623	35.23
740.805	35.27
740.987	35.31
741.168	35.45
741.35	35.11
741.532	35.05
741.714	34.99
741.895	35.02
742.077	34.81
742.259	34.94
742.44	34.91
742.622	35
742.804	34.82
742.985	34.81
743.167	34.86
743.348	34.93
743.53	34.89
743.711	34.74
743.893	34.83
744.075	34.94
744.256	34.91
744.438	34.88
744.619	34.94
744.8	35.02
744.982	34.95
745.163	34.88
745.345	35.12
745.526	35.33
745.707	35.57
745.889	35.28
746.07	35.3
746.252	35.57
746.433	35.46
746.614	35.27
746.795	34.95
746.977	35.13
747.158	35.42
747.339	35.38
747.52	35.51
747.702	35.21
747.883	35.34
748.064	35.48
748.245	35.23
748.426	35.3
748.607	35.42
748.788	35.47
748.97	35.41
749.151	35.14
749.332	35.14
749.513	34.64
749.694	34.87
749.875	35.03
750.056	35.01
750.237	34.98
750.418	34.93
750.599	34.85
750.78	35.18
750.96	35.12
751.141	35.04
751.322	34.79
751.503	35.23
751.684	34.96
751.865	34.79
752.046	34.53
752.226	34.57
752.407	34.63
752.588	34.51
752.769	34.63
752.949	34.49
753.13	34.62
753.311	34.94
753.492	34.48
753.672	35.11
753.853	35.2
754.034	35.3
754.214	35.5
754.395	35.38
754.575	35.34
754.756	35.08
754.937	35.15
755.117	35.06
755.298	35.04
755.478	35.14
755.659	34.64
755.839	34.79
756.02	34.85
756.2	34.47
756.381	34.37
756.561	34.62
756.741	34.96
756.922	35.06
757.102	35.04
757.283	34.82
757.463	34.79
757.643	34.82
757.823	34.64
758.004	34.55
758.184	34.71
758.364	35.28
758.545	35.32
758.725	35.08
758.905	35.09
759.085	35.24
759.265	35.26
759.446	35.36
759.626	35.43
759.806	35.09
759.986	35.16
760.166	35.27
760.346	35.06
760.526	35
760.706	34.97
760.886	34.97
761.066	34.85
761.246	34.81
761.426	34.8
761.606	34.62
761.786	34.74
761.966	34.61
762.146	34.75
762.326	34.67
762.506	34.38
762.686	34.5
762.866	34.41
763.046	34.5
763.225	34.52
763.405	34.35
763.585	34.34
763.765	34.48
763.945	34.5
764.124	34.24
764.304	34.32
764.484	34.46
764.664	34.29
764.843	34.4
765.023	34.33
765.203	34.36
765.382	34.43
765.562	34.66
765.741	34.54
765.921	34.7
766.101	34.86
766.28	34.84
766.46	35.01
766.639	35.19
766.819	35.13
766.998	35.3
767.178	35.26
767.357	35.32
767.537	35.09
767.716	35.1
767.896	34.8
768.075	34.5
768.254	34.12
768.434	33.95
768.613	33.98
768.792	33.93
768.972	33.73
769.151	33.59
769.33	33.66
769.51	34.04
769.689	34.34
769.868	34.83
770.047	35.38
770.226	35.82
770.406	36.29
770.585	35.82
770.764	35.86
770.943	36.05
771.122	36.14
771.301	36.58
771.48	36.41
771.66	36.1
771.839	35.71
772.018	35.23
772.197	35.07
772.376	34.85
772.555	35.45
772.734	35.36
772.913	35.07
773.092	35.02
773.271	34.67
773.449	34.51
773.628	34.88
773.807	34.84
773.986	34.97
774.165	34.74
774.344	34.69
774.523	34.31
774.701	33.97
774.88	34.59
775.059	34.65
775.238	34.67
775.417	34.96
775.595	34.91
775.774	35.09
775.953	35
776.131	35.07
776.31	35.04
776.489	34.73
776.667	35.05
776.846	34.38
777.025	34.55
777.203	34.53
777.382	34.51
777.56	34.23
777.739	34.6
777.917	34.69
778.096	34.82
778.274	35.17
778.453	35.59
778.631	35.69
778.81	35.81
778.988	35.89
779.166	35.97
779.345	35.78
779.523	35.86
779.702	35.77
779.88	36
780.058	35.75
780.237	35.28
780.415	35.29
780.593	35.09
780.771	35.22
780.95	35.22
781.128	35.62
781.306	35.59
781.484	35.74
781.662	35.01
781.841	35.38
782.019	35.37
782.197	35.68
782.375	35.8
782.553	36.29
782.731	36.33
782.909	36.16
783.087	36.09
783.265	36.4
783.443	36.45
783.621	36.8
783.799	36.72
783.977	37.12
784.155	36.75
784.333	37.04
784.511	36.41
784.689	36.42
784.867	36.71
785.045	36.23
785.223	35.8
785.4	35.33
785.578	34.8
785.756	34.2
785.934	34.26
786.112	34.59
786.289	34.3
786.467	34.55
786.645	34.13
786.823	34.06
787	34.14
787.178	33.9
787.356	34.09
787.533	34.51
787.711	34.66
787.889	34.35
788.066	34.23
788.244	34.25
788.421	34.4
788.599	34.15
788.776	33.94
788.954	33.85
789.131	34.4
789.309	34.33
789.486	34.55
789.664	34.8
789.841	35.2
790.019	34.87
790.196	34.97
790.373	34.98
790.551	36.02
790.728	35.96
790.906	36.53
791.083	35.72
791.26	35.8
791.437	35.9
791.615	35.69
791.792	35.5
791.969	35.84
792.146	35.91
792.324	36.08
792.501	35.98
792.678	35.87
792.855	34.9
793.032	35.71
793.209	35.84
793.387	35.43
793.564	35.6
793.741	35.04
793.918	34.97
794.095	34.13
794.272	33.71
794.449	33.12
794.626	33.85
794.803	34.35
794.98	33.9
795.157	34.39
795.334	34.41
795.511	33.99
795.688	34.66
795.864	34.61
796.041	35.12
796.218	35.35
796.395	35.97
796.572	35.39
796.749	35.8
796.925	36.12
797.102	35.59
797.279	36.01
797.456	35.82
797.632	35.73
797.809	36.19
797.986	36.16
798.162	36.07
798.339	35.57
798.516	35.98
798.692	35.67
798.869	35.34
799.046	35.73
799.222	35.87
799.399	36.06
799.575	35.69
799.752	35.27
799.928	35.45
800.105	35.96
800.281	35.77
800.458	35.97
800.634	35.5
800.811	35.95
800.987	35.61
801.163	35.02
801.34	35.35
801.516	35.37
801.692	36.12
801.869	36.04
802.045	35.83
802.221	35.78
802.398	34.9
802.574	35.6
802.75	35.69
802.926	36.01
803.103	36.41
803.279	36.83
803.455	37.28
803.631	36.54
803.807	36.68
803.983	36.47
804.16	36.36
804.336	36.13
804.512	36.23
804.688	36.25
804.864	35.94
805.04	35.39
805.216	34.73
805.392	35.21
805.568	35.3
805.744	35.39
805.92	35.52
806.096	36.69
806.272	37.83
806.448	37.96
806.623	37.4
806.799	37.16
806.975	37.59
807.151	37.27
807.327	36.1
807.503	35.95
807.678	35.55
807.854	35.96
808.03	35.74
808.206	35.64
808.381	35.24
808.557	35.24
808.733	35.29
808.908	34.59
809.084	35.06
809.26	35.35
809.435	35.35
809.611	35.97
809.787	35.46
809.962	35.29
810.138	35.32
810.313	34.86
810.489	35.13
810.664	35.22
810.84	36.03
811.015	36.7
811.191	36.72
811.366	37.11
811.542	37.03
811.717	37.03
811.892	37.93
812.068	37.61
812.243	38
812.419	37.71
812.594	37.7
812.769	37.59
812.944	37.63
813.12	37.68
813.295	37.16
813.47	36.63
813.645	36.96
813.821	35.78
813.996	36.36
814.171	35.82
814.346	35.96
814.521	36.44
814.697	37.02
814.872	35.97
815.047	35.86
815.222	36.61
815.397	36.27
815.572	36.39
815.747	36.4
815.922	35.68
816.097	36.51
816.272	37.04
816.447	36.5
816.622	36.38
816.797	36.59
816.972	36.91
817.147	36.3
817.322	36.24
817.496	35.42
817.671	36.23
817.846	36.16
818.021	35.38
818.196	35.03
818.371	35.05
818.545	34.16
818.72	34.29
818.895	34.34
819.069	34.09
819.244	34.78
819.419	34.86
819.594	34.28
819.768	34.28
819.943	34.31
820.117	34.51
820.292	34.48
820.467	34.68
820.641	34.49
820.816	34.43
820.99	34.42
821.165	34.15
821.339	34.03
821.514	34.07
821.688	33.79
821.863	33.62
822.037	33.38
822.212	33.26
822.386	33.03
822.56	32.98
822.735	32.91
822.909	32.89
823.084	32.86
823.258	32.82
823.432	32.64
823.606	32.89
823.781	33.12
823.955	33.21
824.129	33.27
824.303	33.38
824.478	33.34
824.652	33.37
824.826	33.3
825	33.33
825.174	33.52
825.348	33.37
825.523	33.21
825.697	33.25
825.871	33.27
826.045	33.46
826.219	33.49
826.393	33.86
826.567	33.64
826.741	33.81
826.915	33.7
827.089	33.46
827.263	33.63
827.437	33.59
827.611	33.27
827.784	33.3
827.958	33.18
828.132	32.92
828.306	32.67
828.48	32.9
828.654	32.78
828.827	33.23
829.001	33.39
829.175	33.51
829.349	33.92
829.522	34.27
829.696	34.42
829.87	35.08
830.044	36.44
830.217	36.6
830.391	36.87
830.565	36.4
830.738	36.86
830.912	36.91
831.085	36.89
831.259	36.97
831.432	37.33
831.606	37.28
831.779	36.27
831.953	35.32
832.126	34.77
832.3	34.72
832.473	35.02
832.647	34.12
832.82	34.12
832.994	34
833.167	33.75
833.34	33.6
833.514	33.39
833.687	33.5
833.86	33.9
834.034	33.87
834.207	33.67
834.38	33.55
834.553	33.7
834.727	33.89
834.9	34.15
835.073	34.16
835.246	34.13
835.419	34.14
835.593	33.78
835.766	33.45
835.939	33.88
836.112	33.88
836.285	34.33
836.458	35.11
836.631	34.57
836.804	34.32
836.977	34.05
837.15	33.98
837.323	34.14
837.496	34.55
837.669	33.49
837.842	34.11
838.015	34.56
838.188	33.58
838.361	32.41
838.533	31.92
838.706	32.93
838.879	33.34
839.052	33.46
839.225	34.09
839.398	34.49
839.57	35.91
839.743	35.67
839.916	35.21
840.088	35.85
840.261	36.35
840.434	37.44
840.607	36.3
840.779	37.87
840.952	37.58
841.124	37.54
841.297	38.25
841.47	38.26
841.642	38.14
841.815	38.16
841.987	37.8
842.16	37.3
842.332	36.65
842.505	37.38
842.677	35.35
842.85	35.04
843.022	35.12
843.194	33.97
843.367	34.05
843.539	32.93
843.712	32.67
843.884	32.88
844.056	33.96
844.229	35.56
844.401	36.22
844.573	37.97
844.745	39.57
844.918	38.52
845.09	38.28
845.262	38.17
845.434	39
845.606	39.3
845.779	39.97
845.951	38.83
846.123	38.42
846.295	36.91
846.467	36.68
846.639	36.9
846.811	37.75
846.983	37.55
847.155	38.17
847.327	38.57
847.499	38.32
847.671	38.44
847.843	39.44
848.015	38.42
848.187	40.34
848.359	38.85
848.531	37.99
848.703	37.82
848.875	36.81
849.047	36.29
849.218	36.07
849.39	37.99
849.562	36.86
849.734	38.51
849.905	40.89
850.077	39.71
850.249	40.74
850.421	40.69
850.592	38.15
850.764	40.33
850.936	41.14
851.107	41.39
851.279	40.71
851.451	43.66
851.622	40.78
851.794	38.5
851.965	39.46
852.137	38.39
852.308	38.39
852.48	42.32
852.651	41.76
852.823	42.41
852.994	41.99
853.166	42.65
853.337	41.74
853.509	42.48
853.68	44.26
853.851	43.97
854.023	44.39
854.194	44.82
854.365	42.71
854.537	42.1
854.708	39.81
854.879	39.62
855.05	40.05
855.222	40.59
855.393	39.91
855.564	37.57
855.735	36.75
855.906	35.51
856.078	34.68
856.249	35.06
856.42	34.82
856.591	36.43
856.762	36
856.933	34.77
857.104	33.45
857.275	35.95
857.446	37.9
857.617	36.11
857.788	39.1
857.959	41.67
858.13	43.62
858.301	45.46
858.472	44.13
858.643	45.12
858.814	45.01
858.985	44.14
859.155	43.81
859.326	43.44
859.497	46.15
859.668	46.31
859.839	47.97
860.009	47.85
860.18	46.99
860.351	46.78
860.522	46.14
860.692	45.18
860.863	46.98
861.034	47.12
861.204	46.8
861.375	47.72
861.546	45.43
861.716	41.38
861.887	42.41
862.057	41.26
862.228	40.41
862.398	41.05
862.569	43.58
862.739	42.88
862.91	40.31
863.08	40.27
863.251	39.75
863.421	40.39
863.592	42.24
863.762	41.9
863.932	43.12
864.103	44.82
864.273	44.66
864.443	42.83
864.614	43.51
864.784	44.91
864.954	46.05
865.125	47.51
865.295	47.2
865.465	44.49
865.635	42.07
865.805	42.39
865.976	42.53
866.146	43.79
866.316	43.93
866.486	44.9
866.656	45.73
866.826	44.01
866.996	41.48
867.166	43.62
867.336	44.96
867.506	45.25
867.676	45.53
867.846	45.85
868.016	45.35
868.186	47.48
868.356	44.96
868.526	42.83
868.696	44.11
868.866	42.21
869.036	40.69
869.206	40.09
869.376	41.82
869.545	41.25
869.715	41.16
869.885	39.93
870.055	38.02
870.224	39.29
870.394	43.06
870.564	43.15
870.734	45.69
870.903	44.94
871.073	45.71
871.243	44.6
871.412	46.67
871.582	45.62
871.751	47.3
871.921	48.11
872.091	46.77
872.26	44.96
872.43	41.96
872.599	41.99
872.769	42.49
872.938	42.87
873.108	40.94
873.277	39.02
873.446	38.82
873.616	36.09
873.785	36.84
873.955	39.79
874.124	38.7
874.293	41.32
874.463	41.82
874.632	41.19
874.801	40.76
874.971	42.2
875.14	43.08
875.309	42.05
875.478	44.56
875.647	41.87
875.817	38.48
875.986	39
876.155	39.74
876.324	38.35
876.493	40.78
876.662	40.04
876.831	39.15
877	40.84
877.17	41.43
877.339	40.21
877.508	41.67
877.677	42.41
877.846	42.73
878.015	43.24
878.184	43.13
878.352	40.71
878.521	41.65
878.69	42.8
878.859	40.38
879.028	40.38
879.197	40.58
879.366	37.9
879.534	38.2
879.703	36.4
879.872	34.92
880.041	35.22
880.21	34.78
880.378	33.98
880.547	32.6
880.716	32.4
880.884	32.13
881.053	31.65
881.222	32.06
881.39	31.49
881.559	31.76
881.727	32.02
881.896	31.4
882.065	31.66
882.233	31.88
882.402	32.57
882.57	32.57
882.739	32.55
882.907	32.49
883.076	32.4
883.244	32.42
883.412	32.61
883.581	32.43
883.749	33.07
883.918	32.92
884.086	33.09
884.254	33.64
884.423	34.31
884.591	34.83
884.759	35.32
884.927	35.08
885.096	35.52
885.264	36.72
885.432	38.43
885.6	37.33
885.769	36.3
885.937	36.46
886.105	35.89
886.273	34.67
886.441	34.03
886.609	34.92
886.777	36.61
886.945	38
887.113	36.55
887.281	32.56
887.449	33.97
887.617	36.67
887.785	36.16
887.953	34.86
888.121	35.57
888.289	34.38
888.457	34.25
888.625	32.9
888.793	32.19
888.961	31.82
889.129	34.46
889.296	35.21
889.464	33.95
889.632	33.49
889.8	33.25
889.967	32.49
890.135	36.51
