Data from JASIL_3306_Reflection_2.txt Node
Date: Tue Nov 17 19:49:30 EST 2015
User: Geneva
Spectrometer: USB4E03002
Autoset integration time: false
Trigger mode: 4
Integration Time (sec): 1.000000E-1
Scans to average: 10
Electric dark correction enabled: false
Nonlinearity correction enabled: false
Boxcar width: 5
Stray light correction enabled: false
XAxis mode: Wavelengths
Stop averaging: false
Number of Pixels in Spectrum: 3648
>>>>>Begin Spectral Data<<<<<
177.575	-492.08
177.794	-608.7
178.014	-633.71
178.233	-1264.15
178.452	-1343.33
178.672	-735.43
178.891	-1793.1
179.11	9130
179.33	1852.17
179.549	2049.02
179.768	-10400
179.987	897.73
180.207	561.48
180.426	961.64
180.645	1125.6
180.864	7682.35
181.084	831.93
181.303	561.16
181.522	773.56
181.741	720.22
181.96	1150.51
182.179	6447.06
182.398	-1288.31
182.618	-360.7
182.837	-324.76
183.056	-352.46
183.275	-369.44
183.494	-145.24
183.713	-138.36
183.932	-97.32
184.151	-87.4
184.37	-76.05
184.589	-110.86
184.808	-98.45
185.027	-108.48
185.246	-181.71
185.465	-155.38
185.684	-193.75
185.903	-287.06
186.122	-383.75
186.341	-855.75
186.56	-607.74
186.779	-3733.33
186.998	-399.47
187.216	-405
187.435	-394.55
187.654	-381.21
187.873	-325.89
188.092	-363.46
188.311	-520
188.53	-324.46
188.748	-151.21
188.967	-180.81
189.186	-102.74
189.405	-238.55
189.623	-184.38
189.842	-188.55
190.061	-119.16
190.28	-48.48
190.498	-92.32
190.717	-56.56
190.936	-87.61
191.154	-230.22
191.373	-488.51
191.592	1167.44
191.81	487.38
192.029	509.47
192.248	267.16
192.466	308.29
192.685	180.63
192.904	391.09
193.122	293.41
193.341	330.25
193.559	499.44
193.778	602.21
193.996	527.01
194.215	1486.96
194.433	829.29
194.652	741.26
194.87	670
195.089	792.31
195.307	1636.84
195.526	-893.88
195.744	-605.04
195.963	-595.33
196.181	-665.29
196.399	-990.8
196.618	1123.68
196.836	700.71
197.055	737.16
197.273	857.46
197.491	957.66
197.71	496.03
197.928	411.92
198.146	419.86
198.365	2695.24
198.583	1668.25
198.801	-791.94
199.019	-278.2
199.238	-218.97
199.456	-202.07
199.674	-276.04
199.892	-213.66
200.111	-190.38
200.329	-225.54
200.547	-283.33
200.765	1958.82
200.983	-946.15
201.202	1523.68
201.42	447.14
201.638	327.79
201.856	525.64
202.074	788
202.292	475.71
202.51	410.51
202.728	466.31
202.946	4085.71
203.165	2292.31
203.383	438.99
203.601	636.04
203.819	1267.27
204.037	-3512.12
204.255	-4444.44
204.473	-719.58
204.691	-595.29
204.909	-457.52
205.127	-2658.33
205.345	758.79
205.562	-809.3
205.78	-199.53
205.998	-183.56
206.216	-115.78
206.434	-219.37
206.652	-268.5
206.87	-559.88
207.088	-413.81
207.306	-614.45
207.523	-406.79
207.741	-303.68
207.959	-495.95
208.177	-560.62
208.395	-556.86
208.612	-592.13
208.83	-326.32
209.048	-334.69
209.266	-310.77
209.483	-196.86
209.701	-148.22
209.919	-133.12
210.136	-170.6
210.354	-170.9
210.572	-228.57
210.79	-256.33
211.007	-563.38
211.225	-6313.33
211.442	1271.19
211.66	3384
211.878	375.42
212.095	1170.68
212.313	1946.61
212.53	1030.81
212.748	919.52
212.966	678.26
213.183	838.52
213.401	-10833.33
213.618	-759.13
213.836	-669.28
214.053	-867.43
214.271	-572.12
214.488	-359.37
214.705	-243.93
214.923	-174.48
215.14	-95.43
215.358	-44.75
215.575	-50.9
215.793	-105.45
216.01	-291.47
216.227	-663.79
216.445	-612.5
216.662	-307.33
216.879	-382.17
217.097	-324.13
217.314	-459.92
217.531	15562.5
217.749	1494.06
217.966	891.76
218.183	571.63
218.4	921.94
218.618	905.92
218.835	526.91
219.052	497.79
219.269	464.65
219.487	226.62
219.704	222.79
219.921	269.81
220.138	344.37
220.355	302.04
220.572	308.94
220.79	290.67
221.007	376.54
221.224	575.29
221.441	585.23
221.658	632.05
221.875	-2902.86
222.092	-1344.32
222.309	3945.45
222.526	733.94
222.743	592.27
222.96	802.16
223.177	2511.63
223.394	1696.05
223.611	867.83
223.828	507.6
224.045	391.53
224.262	334.63
224.479	356.47
224.696	538.46
224.913	890.08
225.13	882.08
225.347	633.1
225.564	268.47
225.781	126.91
225.997	121.77
226.214	130.65
226.431	103.9
226.648	99.67
226.865	51.79
227.082	60.45
227.298	59.32
227.515	56.25
227.732	57.88
227.949	58.7
228.165	57.17
228.382	54.16
228.599	50.31
228.816	51.84
229.032	48.47
229.249	65.98
229.466	65.99
229.682	59.94
229.899	62.08
230.116	64.68
230.332	76.4
230.549	74.77
230.765	82.64
230.982	74.82
231.199	78.75
231.415	84.98
231.632	84.46
231.848	70.01
232.065	87.53
232.281	70.57
232.498	69.47
232.714	73.33
232.931	87.24
233.147	87.9
233.364	99.91
233.58	108.11
233.797	105.69
234.013	119.12
234.23	142.38
234.446	143.66
234.662	200.26
234.879	281.88
235.095	229.25
235.312	165.88
235.528	183.78
235.744	230.69
235.961	307.83
236.177	274.47
236.393	334.94
236.61	252.07
236.826	228.6
237.042	154.21
237.258	164.96
237.475	161.43
237.691	253.46
237.907	162.96
238.123	125.34
238.339	105.15
238.556	89.09
238.772	73.08
238.988	63.08
239.204	50.79
239.42	61.43
239.636	50.1
239.853	44.46
240.069	39.9
240.285	37.54
240.501	32.38
240.717	27.28
240.933	28.15
241.149	27.53
241.365	27.76
241.581	28.36
241.797	28.53
242.013	31.5
242.229	34.58
242.445	33.64
242.661	35.63
242.877	39.29
243.093	44.12
243.309	45.02
243.525	42.37
243.741	44.98
243.957	43.33
244.173	40.74
244.388	39.68
244.604	37.9
244.82	34.18
245.036	31.84
245.252	30.04
245.468	28.54
245.683	27.69
245.899	27.52
246.115	26.07
246.331	25.28
246.547	24.53
246.762	23.78
246.978	23.13
247.194	25.23
247.409	25.06
247.625	26.14
247.841	30.09
248.057	31.95
248.272	31.64
248.488	29.45
248.703	29.21
248.919	33.7
249.135	36.72
249.35	36.9
249.566	37.93
249.782	39.08
249.997	35.98
250.213	31.43
250.428	32.72
250.644	36.57
250.859	36.62
251.075	36.39
251.29	33.07
251.506	32.18
251.721	34.19
251.937	31.29
252.152	36.34
252.368	39.64
252.583	39.49
252.798	40.21
253.014	39.1
253.229	45.99
253.445	51.14
253.66	57.07
253.875	52.03
254.091	51.67
254.306	53.89
254.521	34.87
254.737	31.95
254.952	33.23
255.167	32.77
255.383	26.18
255.598	25.98
255.813	18.61
256.028	19.18
256.244	24.36
256.459	24.47
256.674	28.79
256.889	35.84
257.104	32.82
257.32	30.72
257.535	26.23
257.75	28.42
257.965	25.94
258.18	24.74
258.395	19.92
258.61	16.96
258.826	15.98
259.041	15.18
259.256	12.59
259.471	13.47
259.686	12.94
259.901	14.1
260.116	13.02
260.331	12.77
260.546	14.85
260.761	18.14
260.976	21.65
261.191	22.37
261.406	22.97
261.621	25
261.836	24.52
262.05	24.52
262.265	24.69
262.48	20.81
262.695	22.64
262.91	21.12
263.125	18.39
263.34	17.36
263.555	14.74
263.769	11.38
263.984	10.72
264.199	12.38
264.414	16.24
264.629	15.54
264.843	23.56
265.058	24.44
265.273	19.16
265.488	23.51
265.702	24.67
265.917	26.61
266.132	26.02
266.346	27.67
266.561	29.52
266.776	28.05
266.99	26.99
267.205	24.92
267.42	21.74
267.634	23
267.849	20.08
268.063	17.35
268.278	17.2
268.492	17.37
268.707	16
268.922	14.01
269.136	14.23
269.351	14.84
269.565	16.75
269.78	17.83
269.994	21.96
270.209	22.66
270.423	21.72
270.637	19.45
270.852	18.86
271.066	19.26
271.281	20.8
271.495	21.84
271.709	21.83
271.924	20.19
272.138	21.16
272.353	19.16
272.567	19.61
272.781	18.59
272.996	20.79
273.21	22.89
273.424	23.69
273.638	23.92
273.853	24.15
274.067	24.28
274.281	23.66
274.495	22.99
274.71	24.37
274.924	23.01
275.138	25.33
275.352	25.55
275.566	26.06
275.781	23.23
275.995	21.14
276.209	19.01
276.423	19.48
276.637	20.15
276.851	18.41
277.065	17.99
277.279	17.92
277.493	18.77
277.707	16.23
277.921	14.9
278.135	19.68
278.349	21.28
278.563	21.24
278.777	17.73
278.991	19.01
279.205	22.55
279.419	20.06
279.633	20.2
279.847	20.55
280.061	20.58
280.275	22.27
280.489	18.39
280.703	18.09
280.917	18.45
281.131	19.96
281.344	20.43
281.558	18.35
281.772	17.37
281.986	17.13
282.2	15.64
282.414	15.04
282.627	11.25
282.841	13.36
283.055	11.43
283.269	13.34
283.482	13.01
283.696	11.09
283.91	12.95
284.123	13.71
284.337	13.76
284.551	13.65
284.764	13.79
284.978	15.12
285.192	14.89
285.405	14.43
285.619	13.03
285.833	14.99
286.046	16.33
286.26	14.31
286.473	15.72
286.687	17.09
286.9	17.47
287.114	18.84
287.327	18.96
287.541	18.57
287.754	21.16
287.968	21.54
288.181	20.01
288.395	19.85
288.608	19.31
288.822	18.08
289.035	16.94
289.248	16.14
289.462	13.99
289.675	14.68
289.889	14.58
290.102	13.18
290.315	12.96
290.529	13.76
290.742	13.03
290.955	15.87
291.169	17.26
291.382	17.02
291.595	17.85
291.808	20.1
292.022	17.87
292.235	17.55
292.448	18.37
292.661	19
292.875	17.75
293.088	18.11
293.301	16.6
293.514	15.04
293.727	13.98
293.94	13.48
294.153	12.32
294.367	13.79
294.58	12.63
294.793	12.57
295.006	11.93
295.219	11.7
295.432	10.85
295.645	11.46
295.858	11.79
296.071	12.63
296.284	13.28
296.497	13.29
296.71	13.32
296.923	14.76
297.136	15.07
297.349	15.99
297.562	17.1
297.775	16.84
297.988	16.76
298.201	17.6
298.414	18
298.626	17.04
298.839	17.83
299.052	17.53
299.265	18.3
299.478	17.13
299.691	15.75
299.903	14.02
300.116	14.29
300.329	13.03
300.542	13.32
300.755	13.1
300.967	13.17
301.18	14.65
301.393	14.78
301.605	13.31
301.818	12.99
302.031	15.43
302.243	15.38
302.456	15.08
302.669	16.17
302.881	14.16
303.094	13.64
303.307	13.57
303.519	12.39
303.732	14.58
303.944	15.93
304.157	18.75
304.37	16.81
304.582	19.49
304.795	21.01
305.007	21.32
305.22	22.07
305.432	21.63
305.645	22.44
305.857	22.37
306.069	19.86
306.282	18.42
306.494	16.26
306.707	17.37
306.919	15.62
307.132	15.57
307.344	15.26
307.556	15.43
307.769	14.65
307.981	14.86
308.193	13.55
308.406	12.55
308.618	12.71
308.83	13.28
309.043	12.91
309.255	12.88
309.467	12.04
309.679	10.78
309.892	11.9
310.104	13.02
310.316	14.84
310.528	16.17
310.74	17.41
310.953	17.52
311.165	16.79
311.377	17.93
311.589	18.31
311.801	17.46
312.013	18.22
312.225	17.18
312.437	16.95
312.649	14.18
312.862	13.95
313.074	13.71
313.286	13.26
313.498	13.22
313.71	10.45
313.922	9.42
314.134	11.14
314.346	12.04
314.558	12.55
314.77	13.6
314.982	15.53
315.193	15.18
315.405	15.38
315.617	15.61
315.829	16.82
316.041	19.01
316.253	19.55
316.465	20.49
316.677	19.09
316.888	21.77
317.1	21.59
317.312	23.29
317.524	25.17
317.736	27.42
317.947	26.33
318.159	26.98
318.371	27.09
318.583	25.95
318.794	27.84
319.006	30.59
319.218	28.16
319.43	30.03
319.641	30.57
319.853	31.85
320.064	30.02
320.276	32.54
320.488	32.77
320.699	32.87
320.911	33.51
321.123	31.98
321.334	30
321.546	28.87
321.757	28.71
321.969	25.88
322.18	22.41
322.392	20.35
322.603	19.28
322.815	18.73
323.026	16.93
323.238	17.11
323.449	14.17
323.661	15.16
323.872	15.55
324.083	15.52
324.295	15.26
324.506	14.99
324.718	16.47
324.929	17.86
325.14	17.98
325.352	19.28
325.563	19.94
325.774	21.97
325.986	21.77
326.197	22.18
326.408	21.9
326.62	22.89
326.831	24.73
327.042	24.64
327.253	24.19
327.464	24.59
327.676	24.09
327.887	24.6
328.098	25.96
328.309	25.83
328.52	25.48
328.732	25.94
328.943	25.23
329.154	24.4
329.365	24.99
329.576	24.39
329.787	23.35
329.998	25.28
330.209	26.12
330.42	26.34
330.631	26.57
330.842	27.31
331.053	26.89
331.264	28.16
331.475	28.11
331.686	29.89
331.897	29.52
332.108	30.31
332.319	28.34
332.53	27.23
332.741	25.88
332.952	26.17
333.163	26.83
333.374	26.35
333.585	25.7
333.795	26.56
334.006	24.01
334.217	24.79
334.428	24.39
334.639	25.96
334.849	25.97
335.06	25.2
335.271	25.59
335.482	23.99
335.692	24.12
335.903	23.45
336.114	24.75
336.325	26.21
336.535	26.87
336.746	27.14
336.957	25.47
337.167	25.5
337.378	27.11
337.589	26.96
337.799	26.02
338.01	26.21
338.22	27
338.431	24.24
338.642	24.99
338.852	24.9
339.063	24.5
339.273	26.64
339.484	27.62
339.694	26.81
339.905	27.09
340.115	28.45
340.326	28.15
340.536	27.65
340.746	28.57
340.957	28.4
341.167	28.95
341.378	29.63
341.588	28.5
341.799	28.04
342.009	27.77
342.219	27.18
342.43	27.38
342.64	27.74
342.85	29.13
343.061	29.49
343.271	29.27
343.481	27.41
343.691	26.13
343.902	26.17
344.112	26.11
344.322	26.11
344.532	26.22
344.743	27.98
344.953	27.33
345.163	25.03
345.373	24.93
345.583	23.8
345.793	25.66
346.004	26.68
346.214	27.2
346.424	26.36
346.634	26.75
346.844	28.76
347.054	26.83
347.264	27.43
347.474	28.72
347.684	28.45
347.894	27.89
348.104	26.14
348.314	25.46
348.524	24.62
348.734	25.55
348.944	24.54
349.154	22.12
349.364	21.9
349.574	21.23
349.784	20.62
349.994	21.47
350.204	22.4
350.413	22.35
350.623	23.53
350.833	24.57
351.043	24.66
351.253	26.12
351.463	26.41
351.672	26.53
351.882	26.26
352.092	26.84
352.302	26.71
352.511	27.41
352.721	27.83
352.931	27.14
353.141	26.11
353.35	26.32
353.56	25.11
353.77	24.26
353.979	24.8
354.189	24.93
354.399	24.9
354.608	24.32
354.818	23.46
355.027	23.13
355.237	23.47
355.447	24.53
355.656	23.73
355.866	24.38
356.075	24.68
356.285	24.48
356.494	24.97
356.704	25.43
356.913	25.12
357.123	23.94
357.332	23.59
357.542	23.41
357.751	22.43
357.96	21.82
358.17	21.12
358.379	20.77
358.589	21.22
358.798	21.2
359.007	21.39
359.217	22.16
359.426	22.62
359.635	23.23
359.845	22.89
360.054	22.76
360.263	23.67
360.472	23.24
360.682	23.75
360.891	23.29
361.1	23.26
361.309	23.27
361.519	22.92
361.728	23.6
361.937	23.34
362.146	23.69
362.355	24.03
362.564	23.42
362.774	24.53
362.983	24.65
363.192	25.12
363.401	26.22
363.61	25.16
363.819	25.05
364.028	25.11
364.237	25.2
364.446	25.5
364.655	24.38
364.864	24.32
365.073	23.71
365.282	22.61
365.491	22.16
365.7	21.12
365.909	21.15
366.118	22.27
366.327	22.43
366.536	21.78
366.745	21.24
366.954	22.09
367.162	22.02
367.371	22.6
367.58	24.17
367.789	24.06
367.998	24.09
368.207	24.5
368.415	23.66
368.624	24.12
368.833	24.82
369.042	24.72
369.25	24.34
369.459	24.77
369.668	25.06
369.877	24.71
370.085	24.95
370.294	24.14
370.503	24.05
370.711	23.59
370.92	22.44
371.129	23.43
371.337	23.34
371.546	22.99
371.754	22.38
371.963	21.72
372.171	20.68
372.38	20.34
372.589	20.62
372.797	20.47
373.006	20.34
373.214	19.44
373.423	18.4
373.631	19.43
373.84	19.08
374.048	19.57
374.256	20.03
374.465	21.4
374.673	21.84
374.882	21.08
375.09	21.37
375.298	21.62
375.507	22.62
375.715	22.43
375.923	21.09
376.132	21.59
376.34	20.74
376.548	20.83
376.757	20.05
376.965	19.94
377.173	20.5
377.381	20.26
377.59	19.95
377.798	20.1
378.006	19.05
378.214	20.07
378.423	19.91
378.631	20.48
378.839	19.46
379.047	20.03
379.255	19.99
379.463	20.48
379.671	20.56
379.879	20.85
380.088	21.45
380.296	22.84
380.504	21.83
380.712	22.34
380.92	22.31
381.128	23.35
381.336	22.86
381.544	22.82
381.752	22.37
381.96	21.73
382.168	21.49
382.376	21.64
382.584	21.37
382.791	21.25
382.999	20.22
383.207	20.09
383.415	19.72
383.623	19.47
383.831	19.2
384.039	19.12
384.247	19.64
384.454	19.73
384.662	18.46
384.87	18.62
385.078	18.53
385.285	19.17
385.493	19.55
385.701	19.09
385.909	18.92
386.116	19.25
386.324	18.67
386.532	18.82
386.739	19.18
386.947	19.88
387.155	19.91
387.362	20.25
387.57	19.58
387.778	19.28
387.985	18.62
388.193	19.63
388.4	19.47
388.608	20.45
388.816	20.2
389.023	19.74
389.231	19.88
389.438	19.15
389.646	19.25
389.853	20.15
390.061	19.88
390.268	20.28
390.475	19.1
390.683	19.44
390.89	19.15
391.098	18.82
391.305	18.35
391.512	18.03
391.72	17.84
391.927	17.65
392.135	17.18
392.342	17.04
392.549	17.32
392.756	17.82
392.964	17.23
393.171	17.63
393.378	17.88
393.586	18.08
393.793	17.85
394	18.72
394.207	18.47
394.414	18.77
394.622	19.59
394.829	19.85
395.036	19.62
395.243	19.85
395.45	19.48
395.657	19.64
395.864	20.11
396.072	20.03
396.279	19.87
396.486	19.95
396.693	19.38
396.9	19.2
397.107	19
397.314	18.83
397.521	18.24
397.728	18.42
397.935	17.86
398.142	18.42
398.349	18.85
398.556	18.7
398.763	19.21
398.97	20.9
399.177	20.67
399.383	20.4
399.59	20.39
399.797	21.12
400.004	20.89
400.211	21.03
400.418	19.77
400.625	19.19
400.831	19.4
401.038	18.79
401.245	17.55
401.452	16.88
401.658	17.31
401.865	17.2
402.072	16.78
402.279	16.89
402.485	17.19
402.692	17.56
402.899	16.53
403.105	15.79
403.312	16.01
403.519	16.52
403.725	16.77
403.932	16.3
404.138	16.95
404.345	16.72
404.552	16.31
404.758	16.49
404.965	16.14
405.171	17.34
405.378	17.48
405.584	18.21
405.791	17.55
405.997	17.67
406.204	18.05
406.41	17.68
406.617	17.84
406.823	17.82
407.029	17.22
407.236	17.66
407.442	17.21
407.649	17.41
407.855	16.61
408.061	17.21
408.268	16.81
408.474	16.83
408.68	16.59
408.887	16.85
409.093	17.38
409.299	17.86
409.505	17.88
409.712	18.22
409.918	18.03
410.124	17.32
410.33	16.85
410.537	17.04
410.743	16.67
410.949	17.54
411.155	17.07
411.361	16.04
411.567	15.19
411.773	15.45
411.98	15.24
412.186	16.25
412.392	17.55
412.598	16.97
412.804	16.87
413.01	17.16
413.216	16.28
413.422	15.98
413.628	17.42
413.834	17.62
414.04	17.32
414.246	16.97
414.452	16.08
414.658	14.96
414.864	15.41
415.07	15.74
415.275	15.38
415.481	15.79
415.687	16.18
415.893	15.53
416.099	15.64
416.305	15.29
416.511	15.5
416.716	15.74
416.922	16.37
417.128	16.37
417.334	16.37
417.539	16.52
417.745	16.75
417.951	16.54
418.157	16.84
418.362	17.02
418.568	17.35
418.774	17.06
418.979	16.66
419.185	16.32
419.391	16
419.596	15.78
419.802	15.81
420.008	15.05
420.213	12.18
420.419	11.98
420.624	11.89
420.83	12.03
421.035	12.53
421.241	12.63
421.446	12.4
421.652	12.69
421.857	12.79
422.063	12.72
422.268	13.01
422.474	15.99
422.679	15.78
422.885	15.59
423.09	15.21
423.295	14.79
423.501	14.55
423.706	14.77
423.911	14.7
424.117	14.81
424.322	14.68
424.527	14.62
424.733	14.5
424.938	14.51
425.143	14.56
425.349	14.52
425.554	14.67
425.759	15.2
425.964	15.03
426.169	15.31
426.375	15.37
426.58	15.66
426.785	16.11
426.99	16.33
427.195	16.28
427.4	16.81
427.605	17.29
427.811	17.03
428.016	16.88
428.221	17.4
428.426	16.8
428.631	16.55
428.836	16.2
429.041	15.6
429.246	15.55
429.451	15.95
429.656	15.68
429.861	15.47
430.066	15.49
430.271	15.63
430.476	15.09
430.681	14.92
430.886	15.02
431.09	15.03
431.295	15.32
431.5	15.48
431.705	15.66
431.91	15.52
432.115	15.18
432.32	15.22
432.524	15.16
432.729	15.19
432.934	15.33
433.139	14.99
433.343	15.2
433.548	15.22
433.753	15.05
433.958	14.69
434.162	14.92
434.367	15.07
434.572	15.08
434.776	14.97
434.981	15.39
435.186	15.44
435.39	15.74
435.595	15.42
435.799	15.44
436.004	14.97
436.209	14.7
436.413	14.45
436.618	14.27
436.822	14.46
437.027	14.76
437.231	14.77
437.436	14.53
437.64	14.63
437.845	14.57
438.049	14.63
438.253	14.81
438.458	15.03
438.662	15.18
438.867	15.24
439.071	15.12
439.275	14.72
439.48	14.77
439.684	15.14
439.888	15.15
440.093	15.22
440.297	14.9
440.501	15.08
440.706	15.42
440.91	15.39
441.114	15.57
441.318	15.77
441.523	16.02
441.727	15.73
441.931	16.04
442.135	15.91
442.339	16.05
442.543	16.26
442.748	16.33
442.952	15.92
443.156	15.61
443.36	15.64
443.564	15.51
443.768	15.59
443.972	16.07
444.176	15.44
444.38	15.24
444.584	15.02
444.788	14.97
444.992	14.94
445.196	15.02
445.4	15.17
445.604	14.81
445.808	14.5
446.012	14.19
446.216	13.92
446.42	14
446.624	14.31
446.828	14.58
447.032	14.59
447.235	14.47
447.439	14.36
447.643	14.31
447.847	14.59
448.051	14.97
448.254	15.19
448.458	14.94
448.662	14.99
448.866	14.58
449.069	14.35
449.273	14.22
449.477	14.31
449.681	14.52
449.884	14.3
450.088	13.7
450.292	13.36
450.495	13.3
450.699	13.83
450.902	14.18
451.106	14.24
451.31	14.5
451.513	14.86
451.717	14.94
451.92	14.76
452.124	15.14
452.327	15.58
452.531	15.77
452.734	15.83
452.938	15.26
453.141	14.96
453.345	15.09
453.548	14.6
453.752	14.38
453.955	14.24
454.158	14.47
454.362	14.26
454.565	14.56
454.769	15.03
454.972	15.17
455.175	15.78
455.379	16.12
455.582	16.24
455.785	16.54
455.988	16.24
456.192	16.05
456.395	15.96
456.598	15.89
456.801	15.79
457.005	15.57
457.208	15.11
457.411	14.84
457.614	14.51
457.817	14.47
458.021	14.6
458.224	14.64
458.427	14.53
458.63	14.28
458.833	14.55
459.036	14.35
459.239	14.24
459.442	14.21
459.645	14.23
459.848	14.39
460.051	14.37
460.254	14.3
460.457	14.64
460.66	14.9
460.863	15.1
461.066	14.85
461.269	14.92
461.472	15.08
461.675	15.33
461.878	15.11
462.081	14.88
462.284	15.05
462.486	14.72
462.689	14.52
462.892	14.79
463.095	14.92
463.298	15.04
463.5	15.49
463.703	15.39
463.906	15.62
464.109	15.94
464.311	16.07
464.514	16.04
464.717	16.05
464.92	16.31
465.122	16.04
465.325	15.91
465.528	15.97
465.73	15.68
465.933	15.32
466.135	15.25
466.338	15.31
466.541	15.05
466.743	14.43
466.946	14.79
467.148	14.44
467.351	14.64
467.553	14.55
467.756	14.51
467.958	14.67
468.161	15.01
468.363	15.06
468.566	15
468.768	15.35
468.971	15.8
469.173	15.87
469.375	16.24
469.578	15.43
469.78	15.6
469.983	15.66
470.185	15.32
470.387	15.22
470.59	14.97
470.792	14.87
470.994	14.44
471.196	14.63
471.399	14.1
471.601	13.76
471.803	14.35
472.005	14.46
472.208	14.13
472.41	14.05
472.612	14.14
472.814	14.43
473.016	14.59
473.218	14.94
473.421	14.41
473.623	14.97
473.825	15.27
474.027	15.34
474.229	15.55
474.431	15.42
474.633	15.52
474.835	14.97
475.037	14.73
475.239	14.68
475.441	14.69
475.643	15.03
475.845	14.73
476.047	14.59
476.249	14.51
476.451	14.24
476.653	14.42
476.855	14.7
477.057	15.15
477.258	14.88
477.46	14.7
477.662	14.91
477.864	14.84
478.066	15.02
478.268	15.03
478.469	15.13
478.671	14.9
478.873	14.66
479.075	14.42
479.276	14.47
479.478	14.54
479.68	14.91
479.882	14.57
480.083	14.58
480.285	14.42
480.487	14.44
480.688	14.22
480.89	14.31
481.091	14.42
481.293	14.34
481.495	14.13
481.696	14.17
481.898	14.04
482.099	13.99
482.301	13.79
482.502	13.7
482.704	13.56
482.905	13.49
483.107	13.37
483.308	13.21
483.51	13.19
483.711	13.12
483.913	13.07
484.114	12.94
484.315	12.87
484.517	13.02
484.718	13.08
484.92	13.1
485.121	12.97
485.322	13.02
485.524	13.17
485.725	13.18
485.926	13.27
486.127	13.2
486.329	13.21
486.53	13.16
486.731	13
486.932	12.84
487.134	12.84
487.335	12.88
487.536	12.95
487.737	13.04
487.938	13.08
488.139	13.1
488.341	13.04
488.542	13.17
488.743	13.42
488.944	13.55
489.145	13.66
489.346	13.69
489.547	13.87
489.748	13.87
489.949	13.81
490.15	13.57
490.351	13.42
490.552	13.53
490.753	13.31
490.954	13.18
491.155	13.17
491.356	13.21
491.557	13.09
491.758	13.13
491.959	13.11
492.159	13.06
492.36	13.18
492.561	13.31
492.762	13.39
492.963	13.71
493.164	13.67
493.364	13.7
493.565	14.04
493.766	14.17
493.967	14.22
494.167	14.35
494.368	14.15
494.569	14.24
494.769	14.32
494.97	14.29
495.171	14.39
495.371	14.2
495.572	14.37
495.773	14.02
495.973	14.28
496.174	14.26
496.375	14.24
496.575	14.35
496.776	14.46
496.976	14.21
497.177	14.35
497.377	14.03
497.578	14.17
497.778	13.94
497.979	14.2
498.179	13.7
498.38	13.84
498.58	13.68
498.78	13.85
498.981	14.02
499.181	14.02
499.382	13.87
499.582	13.75
499.782	13.99
499.983	14.21
500.183	14.29
500.383	14.72
500.584	14.55
500.784	14.95
500.984	14.93
501.184	14.73
501.385	14.93
501.585	15.08
501.785	15.4
501.985	15.39
502.185	15.13
502.386	14.78
502.586	14.99
502.786	14.99
502.986	14.61
503.186	14.68
503.386	15.04
503.586	15.42
503.786	15.38
503.987	15.11
504.187	14.93
504.387	15.53
504.587	15.42
504.787	15.2
504.987	15.39
505.187	15.49
505.387	15.65
505.587	15.58
505.786	15.2
505.986	15.33
506.186	15.44
506.386	15.75
506.586	15.29
506.786	15.55
506.986	15.74
507.186	15.71
507.386	15.88
507.585	16.03
507.785	15.91
507.985	16.13
508.185	16.37
508.384	16.71
508.584	16.84
508.784	17.01
508.984	17.17
509.183	17.2
509.383	17.07
509.583	17.27
509.782	16.76
509.982	16.77
510.182	16.75
510.381	16.49
510.581	16.44
510.781	16.46
510.98	16.38
511.18	16.3
511.379	16.09
511.579	16.24
511.778	16.04
511.978	16.49
512.177	16.4
512.377	16.39
512.576	16.23
512.776	16.08
512.975	16.29
513.175	16.54
513.374	16.66
513.573	17.16
513.773	17.15
513.972	17.3
514.172	17.35
514.371	17.36
514.57	17.75
514.77	17.86
514.969	18
515.168	18.1
515.367	17.96
515.567	17.83
515.766	17.68
515.965	17.74
516.164	17.62
516.364	17.62
516.563	17.96
516.762	17.83
516.961	17.98
517.16	18.1
517.359	17.47
517.559	17.48
517.758	17.52
517.957	17.5
518.156	17.71
518.355	17.76
518.554	17.67
518.753	17.4
518.952	17.32
519.151	17.16
519.35	17.36
519.549	17.69
519.748	17.84
519.947	17.79
520.146	17.72
520.345	17.66
520.544	17.55
520.743	17.83
520.942	18.15
521.141	18.46
521.339	18.86
521.538	18.91
521.737	18.97
521.936	19.2
522.135	19.47
522.333	19.94
522.532	19.97
522.731	20.21
522.93	20.1
523.129	20.36
523.327	20.29
523.526	20.34
523.725	20.37
523.923	20.48
524.122	20.39
524.321	20.4
524.519	20.09
524.718	19.97
524.917	20.31
525.115	20.5
525.314	20.26
525.512	20.26
525.711	20.33
525.909	20.17
526.108	20.29
526.306	20.36
526.505	20.29
526.703	20.26
526.902	20.41
527.1	20.2
527.299	20.13
527.497	20.25
527.696	20.34
527.894	20.25
528.092	20.34
528.291	20.35
528.489	20.4
528.688	20.58
528.886	20.75
529.084	20.78
529.283	20.96
529.481	21.1
529.679	21.28
529.877	21.31
530.076	21.63
530.274	21.86
530.472	21.86
530.67	22.2
530.869	22.34
531.067	22.44
531.265	22.63
531.463	22.81
531.661	23
531.859	23.25
532.057	23.32
532.255	23.32
532.454	23.43
532.652	23.54
532.85	23.35
533.048	23.49
533.246	23.69
533.444	23.93
533.642	23.97
533.84	24.07
534.038	23.98
534.236	24.11
534.434	24.2
534.632	24.41
534.83	24.66
535.027	24.91
535.225	25.01
535.423	25.18
535.621	25.16
535.819	25.31
536.017	25.43
536.215	25.62
536.412	25.74
536.61	26.07
536.808	25.86
537.006	26.12
537.203	26.21
537.401	26.22
537.599	26.24
537.797	26.18
537.994	26.22
538.192	26.44
538.39	26.25
538.587	26.61
538.785	26.55
538.983	26.72
539.18	26.72
539.378	26.97
539.575	27.12
539.773	27.06
539.97	27.4
540.168	27.44
540.366	27.32
540.563	27.41
540.761	27.36
540.958	27.27
541.155	27.43
541.353	27.57
541.55	27.59
541.748	27.71
541.945	27.93
542.143	27.77
542.34	28.07
542.537	28.19
542.735	28.38
542.932	28.51
543.129	28.97
543.327	29.14
543.524	28.84
543.721	29.09
543.919	29.03
544.116	29.18
544.313	29.56
544.51	29.52
544.708	29.85
544.905	29.85
545.102	30.11
545.299	30.01
545.496	30.01
545.693	30.37
545.891	30.28
546.088	30.21
546.285	30.16
546.482	30.14
546.679	30.27
546.876	30.15
547.073	30.44
547.27	30.33
547.467	30.52
547.664	30.62
547.861	30.93
548.058	30.98
548.255	31.4
548.452	31.87
548.649	32.26
548.846	32.64
549.043	33.27
549.24	33.5
549.437	33.65
549.633	33.63
549.83	34.03
550.027	34.02
550.224	34.08
550.421	34.55
550.618	34.51
550.814	34.33
551.011	33.93
551.208	33.79
551.405	33.92
551.601	33.89
551.798	34.16
551.995	34.15
552.191	34.3
552.388	34.82
552.585	34.97
552.781	34.96
552.978	35.04
553.175	34.9
553.371	34.47
553.568	34.34
553.764	34.55
553.961	34.49
554.157	34.63
554.354	34.5
554.55	34.15
554.747	34.03
554.943	34.55
555.14	34.77
555.336	35.56
555.533	35.91
555.729	36.15
555.926	36.07
556.122	36.23
556.318	36.17
556.515	36.5
556.711	36.52
556.907	36.42
557.104	36.37
557.3	36.65
557.496	36.59
557.693	36.64
557.889	36.68
558.085	37.38
558.281	37.95
558.478	37.96
558.674	38.22
558.87	38.44
559.066	38.42
559.262	37.89
559.459	37.43
559.655	37.47
559.851	37.51
560.047	37.83
560.243	37.43
560.439	37.03
560.635	36.59
560.831	36.5
561.027	36.68
561.223	36.83
561.419	37.2
561.615	37.77
561.811	37.97
562.007	38.35
562.203	38.27
562.399	38.59
562.595	38.5
562.791	38.99
562.987	38.62
563.183	38.29
563.379	38.22
563.575	38.11
563.771	37.9
563.966	37.41
564.162	37.16
564.358	37.12
564.554	36.7
564.75	36.87
564.945	36.86
565.141	37.67
565.337	37.68
565.533	37.79
565.728	38.06
565.924	38.29
566.12	38.48
566.315	38.55
566.511	38.4
566.707	38.77
566.902	38.96
567.098	39.3
567.293	38.78
567.489	39.17
567.684	39.24
567.88	39.46
568.076	39.34
568.271	39.55
568.467	39.48
568.662	39.45
568.858	39.76
569.053	39.89
569.248	39.93
569.444	39.83
569.639	39.64
569.835	39.9
570.03	39.73
570.225	39.3
570.421	39.21
570.616	39.91
570.812	40.1
571.007	39.74
571.202	39.7
571.397	39.4
571.593	39.8
571.788	40.1
571.983	39.96
572.178	39.76
572.374	40
572.569	39.92
572.764	39.69
572.959	39.85
573.154	40.28
573.35	40.19
573.545	40.43
573.74	40.34
573.935	40.36
574.13	40.29
574.325	40.4
574.52	40.56
574.715	40.9
574.91	40.8
575.105	40.96
575.3	40.95
575.495	41.31
575.69	41.52
575.885	41.66
576.08	41.64
576.275	42.02
576.47	42.29
576.665	42.29
576.86	41.92
577.055	41.88
577.25	41.42
577.444	41.24
577.639	41.38
577.834	41.47
578.029	41.21
578.224	41.35
578.418	41
578.613	41.17
578.808	41.23
579.003	41.65
579.197	41.82
579.392	41.88
579.587	42.34
579.781	41.91
579.976	41.58
580.171	42.21
580.365	41.76
580.56	41.67
580.755	41.33
580.949	41.58
581.144	41.3
581.338	41.37
581.533	41.5
581.727	41.2
581.922	41.5
582.116	41.38
582.311	41
582.505	41.46
582.7	41.63
582.894	41.89
583.089	41.53
583.283	41.83
583.478	42.2
583.672	42.91
583.866	42.95
584.061	42.68
584.255	43.07
584.449	43.38
584.644	43.74
584.838	44.58
585.032	45.21
585.226	45.39
585.421	45.6
585.615	45.79
585.809	45.03
586.003	45.31
586.198	45.88
586.392	45.73
586.586	45.49
586.78	44.75
586.974	44
587.168	43.7
587.363	44.04
587.557	43.79
587.751	43.59
587.945	43.79
588.139	43.32
588.333	42.81
588.527	43.27
588.721	43.35
588.915	43.5
589.109	43.87
589.303	43.75
589.497	43.93
589.691	44.11
589.885	43.64
590.079	43.89
590.273	44.17
590.466	44.36
590.66	44.53
590.854	44.7
591.048	44.59
591.242	44.65
591.436	44.68
591.629	44.29
591.823	43.73
592.017	43.92
592.211	43.71
592.404	44.13
592.598	44.1
592.792	43.69
592.986	43.27
593.179	43.71
593.373	43.51
593.567	43.48
593.76	43.81
593.954	44.75
594.147	44.77
594.341	44.8
594.535	44.29
594.728	44.29
594.922	44.31
595.115	44.39
595.309	44.39
595.502	44.84
595.696	44.9
595.889	44.94
596.083	44.66
596.276	44.66
596.47	44.84
596.663	45
596.856	44.95
597.05	45.04
597.243	44.93
597.437	45.03
597.63	45.04
597.823	44.6
598.017	44.39
598.21	44.32
598.403	44.29
598.596	43.92
598.79	44.4
598.983	44.44
599.176	44.19
599.369	44.59
599.563	44.41
599.756	44.08
599.949	44.49
600.142	45.05
600.335	44.97
600.528	45.24
600.722	45.28
600.915	45.12
601.108	45.4
601.301	45.44
601.494	45.28
601.687	45.51
601.88	45.46
602.073	45.11
602.266	44.88
602.459	45.22
602.652	44.79
602.845	44.96
603.038	44.41
603.231	44.45
603.424	44.63
603.617	44.53
603.809	44.6
604.002	44.31
604.195	44.3
604.388	44.05
604.581	44.03
604.774	44.77
604.966	44.62
605.159	44.76
605.352	44.66
605.545	44.71
605.737	44.83
605.93	45.13
606.123	45.37
606.316	46.11
606.508	46.13
606.701	45.86
606.894	45.57
607.086	45.68
607.279	46.38
607.471	46.24
607.664	45.83
607.857	46.28
608.049	45.61
608.242	45.38
608.434	45.9
608.627	46.46
608.819	46.53
609.012	46.37
609.204	46.65
609.397	46.24
609.589	46.73
609.782	47.24
609.974	47.08
610.166	47.15
610.359	47.72
610.551	47.29
610.743	46.73
610.936	46.9
611.128	47.74
611.32	47.27
611.513	47.77
611.705	47.5
611.897	47.68
612.09	47.82
612.282	48.61
612.474	49.15
612.666	49.08
612.858	49.29
613.051	49.08
613.243	48.77
613.435	50.05
613.627	49.99
613.819	50.04
614.011	49.94
614.203	49.91
614.395	49.64
614.588	49.07
614.78	48.94
614.972	50.15
615.164	50.15
615.356	49.7
615.548	48.66
615.74	48.57
615.932	48.33
616.124	49.02
616.315	49.35
616.507	49.64
616.699	49.44
616.891	49.49
617.083	48.94
617.275	49.59
617.467	49.72
617.659	50.35
617.85	50.46
618.042	51.5
618.234	50.62
618.426	50.02
618.618	49.24
618.809	49.59
619.001	49.59
619.193	49.37
619.384	49.45
619.576	49.95
619.768	49.76
619.959	49.62
620.151	48.75
620.343	48.73
620.534	48.83
620.726	49.66
620.917	49.79
621.109	49.93
621.301	49.35
621.492	48.93
621.684	48.11
621.875	47.7
622.067	47.35
622.258	47.77
622.45	47.68
622.641	47.76
622.832	48.34
623.024	47.88
623.215	47.89
623.407	47.76
623.598	47.55
623.789	47.93
623.981	47.57
624.172	47.97
624.363	47.52
624.555	47.26
624.746	47.27
624.937	46.69
625.129	46.86
625.32	46.64
625.511	46.7
625.702	46.92
625.893	47.02
626.085	47.53
626.276	47.25
626.467	47.29
626.658	47.54
626.849	47.33
627.04	47.33
627.231	47.41
627.422	47.38
627.614	47.74
627.805	47.9
627.996	48.11
628.187	48.36
628.378	49.33
628.569	49.51
628.76	49.88
628.951	49.97
629.142	49.93
629.332	49.96
629.523	49.93
629.714	50.06
629.905	49.95
630.096	49.16
630.287	48.99
630.478	48.53
630.669	48.47
630.859	48.26
631.05	48.84
631.241	48.34
631.432	48.48
631.623	48.52
631.813	48.58
632.004	48.56
632.195	48.7
632.385	48.67
632.576	48.11
632.767	48.38
632.957	48.45
633.148	48.46
633.339	48.45
633.529	48.34
633.72	48.31
633.91	47.68
634.101	47.73
634.292	48.81
634.482	49.36
634.673	50.21
634.863	49.72
635.054	49.13
635.244	49.1
635.435	49.32
635.625	49.31
635.815	49.34
636.006	50.07
636.196	50.27
636.387	49.69
636.577	49.43
636.767	49.36
636.958	49.21
637.148	50.61
637.338	51.48
637.529	51.69
637.719	51.55
637.909	52.54
638.099	52.79
638.29	52.35
638.48	52.91
638.67	52.82
638.86	51.78
639.05	52.34
639.241	52.55
639.431	51.23
639.621	52.03
639.811	52.33
640.001	51.77
640.191	51.41
640.381	51.41
640.571	51.11
640.761	51.11
640.951	51.7
641.141	51.84
641.331	50.79
641.521	51.42
641.711	51.22
641.901	51.39
642.091	51.45
642.281	51.45
642.471	51.78
642.661	51.95
642.851	51.84
643.041	51.75
643.231	51.81
643.42	51.98
643.61	52.72
643.8	52.62
643.99	52.41
644.18	52.29
644.369	52.92
644.559	52.72
644.749	51.82
644.939	51.63
645.128	52.49
645.318	52.84
645.508	53.24
645.697	52.04
645.887	52.05
646.076	52.55
646.266	52.52
646.456	52.02
646.645	52.69
646.835	52.94
647.024	52.97
647.214	52.04
647.403	51.15
647.593	50.51
647.782	50.48
647.972	50.44
648.161	50.44
648.351	50.52
648.54	50.51
648.73	50.51
648.919	51
649.108	50.65
649.298	50.78
649.487	51.6
649.677	52.03
649.866	52.11
650.055	51.28
650.244	51.15
650.434	51.25
650.623	50.86
650.812	50.13
651.002	50.31
651.191	51
651.38	51.16
651.569	51.02
651.758	51.19
651.947	51.4
652.137	51.31
652.326	51.22
652.515	51.31
652.704	51.67
652.893	52.36
653.082	52.11
653.271	52.27
653.46	52.27
653.649	51.79
653.838	51.45
654.027	52.39
654.216	53.18
654.405	53.69
654.594	53.51
654.783	53.29
654.972	52.39
655.161	52.79
655.35	52.95
655.539	53.82
655.728	54.08
655.916	53.64
656.105	52.94
656.294	52.8
656.483	52.04
656.672	52.08
656.86	52.05
657.049	52.18
657.238	51.47
657.427	51.58
657.615	50.77
657.804	51.07
657.993	50.88
658.181	50.68
658.37	50.85
658.559	50.71
658.747	50.73
658.936	51
659.125	50.05
659.313	49.9
659.502	49.76
659.69	49.71
659.879	49.69
660.067	50.73
660.256	51.15
660.444	51.16
660.633	51.62
660.821	51.5
661.01	51.3
661.198	52.64
661.387	52.55
661.575	52.16
661.763	52.8
661.952	52.57
662.14	51.98
662.328	51.62
662.517	52.14
662.705	52.34
662.893	52.86
663.082	53.49
663.27	53.77
663.458	54.26
663.646	53.38
663.834	52.34
664.023	53.06
664.211	53.46
664.399	54.06
664.587	53.71
664.775	52.83
664.963	52.75
665.152	52
665.34	51.86
665.528	52.27
665.716	53.64
665.904	54.43
666.092	54.22
666.28	54.39
666.468	53.65
666.656	53.99
666.844	54.53
667.032	53.52
667.22	54.08
667.408	53.46
667.596	53.65
667.784	53.59
667.971	54.02
668.159	52.85
668.347	52.54
668.535	53.15
668.723	53.09
668.911	52.35
669.098	52.75
669.286	52.51
669.474	53.55
669.662	52.62
669.849	52.4
670.037	51.78
670.225	52.57
670.413	52.79
670.6	52.09
670.788	51.31
670.976	52.61
671.163	52.44
671.351	52.74
671.538	53.1
671.726	53.82
671.913	54.53
672.101	55.39
672.289	56.37
672.476	56.32
672.664	57.03
672.851	56.67
673.039	56.93
673.226	57.77
673.413	57.37
673.601	56.73
673.788	56.72
673.976	56.15
674.163	55.95
674.35	55.04
674.538	55.35
674.725	55.12
674.912	55.13
675.1	54.28
675.287	53.76
675.474	53.56
675.662	53.73
675.849	54.14
676.036	54.29
676.223	53.83
676.411	53.76
676.598	52.92
676.785	53.39
676.972	54.09
677.159	54.3
677.346	54.42
677.533	55.07
677.721	54.5
677.908	53.86
678.095	53.69
678.282	53.63
678.469	52.2
678.656	52.98
678.843	51.96
679.03	51.69
679.217	51.35
679.404	50.96
679.591	50.75
679.778	51.05
679.964	51.14
680.151	50.74
680.338	49.86
680.525	51.24
680.712	50.96
680.899	51.95
681.086	52.91
681.272	53.87
681.459	54.59
681.646	54.26
681.833	54.56
682.02	54.95
682.206	56.52
682.393	57.4
682.58	57.19
682.766	59.22
682.953	59.21
683.14	58.56
683.326	59.06
683.513	59.55
683.7	61.66
683.886	61.39
684.073	61.67
684.259	60.2
684.446	61.34
684.632	60.55
684.819	57.89
685.005	57.78
685.192	57.45
685.378	56.77
685.565	55.51
685.751	54.21
685.938	52.98
686.124	51.96
686.31	52.19
686.497	51.64
686.683	52.47
686.87	53.09
687.056	52.44
687.242	52.26
687.429	52.04
687.615	52.15
687.801	52.59
687.987	53.23
688.174	53.99
688.36	54.31
688.546	53.96
688.732	54.23
688.918	53.34
689.105	53.89
689.291	55.34
689.477	54.83
689.663	55.98
689.849	56.3
690.035	56.87
690.221	56.69
690.407	56.64
690.593	57.56
690.779	58.02
690.965	58.86
691.151	58.41
691.337	58.71
691.523	58.83
691.709	58.89
691.895	58.39
692.081	59.22
692.267	59.14
692.453	59.32
692.639	59.49
692.825	58
693.011	57.78
693.196	59
693.382	58
693.568	57.89
693.754	58.47
693.94	57.9
694.125	57.39
694.311	56.94
694.497	56.51
694.682	55.92
694.868	56.84
695.054	56.15
695.239	56.46
695.425	56.54
695.611	56.26
695.796	54.16
695.982	53.9
696.168	54.33
696.353	55.49
696.539	56.53
696.724	55.57
696.91	55.04
697.095	55.79
697.281	55.17
697.466	56.08
697.652	56.46
697.837	56.48
698.023	57.26
698.208	57.35
698.393	56.92
698.579	55.7
698.764	55.46
698.949	55.07
699.135	55.01
699.32	55.47
699.505	54.22
699.691	55.68
699.876	56.11
700.061	56.22
700.246	55
700.432	54.89
700.617	55.39
700.802	55.77
700.987	56.81
701.172	58.07
701.358	57.11
701.543	57.55
701.728	55.83
701.913	56.62
702.098	55.96
702.283	57.6
702.468	57.93
702.653	58.47
702.838	60.07
703.023	59.93
703.208	58.87
703.393	60.79
703.578	60.74
703.763	60.57
703.948	61.14
704.133	61.3
704.318	59.76
704.503	60.88
704.688	60.88
704.873	59.73
705.057	60.29
705.242	59.64
705.427	57.54
705.612	57.94
705.797	57.68
705.981	58.26
706.166	58.89
706.351	60.16
706.536	59.57
706.72	59.66
706.905	61.21
707.09	62.46
707.274	62.87
707.459	63.95
707.644	64.01
707.828	64.63
708.013	63.61
708.197	62.73
708.382	61.37
708.567	59.57
708.751	60.02
708.936	58.91
709.12	58.08
709.305	58.27
709.489	57.05
709.673	57.12
709.858	56.53
710.042	55.23
710.227	55.63
710.411	57.14
710.596	58.77
710.78	57.73
710.964	58.61
711.149	57.88
711.333	57.76
711.517	57.78
711.702	58.33
711.886	58.21
712.07	59.44
712.254	58.8
712.438	58.32
712.623	56.66
712.807	56.99
712.991	56.2
713.175	56.22
713.359	56.45
713.544	57.42
713.728	56.79
713.912	57.41
714.096	57.95
714.28	57.46
714.464	56.41
714.648	58.15
714.832	58.58
715.016	58.66
715.2	59.52
715.384	59.35
715.568	59.19
715.752	57.67
715.936	57.4
716.12	56.81
716.304	56.58
716.488	57.42
716.671	59.28
716.855	59.37
717.039	59.37
717.223	58.77
717.407	60.14
717.59	60.52
717.774	62.84
717.958	64.03
718.142	65.89
718.325	67.11
718.509	66.87
718.693	66.22
718.877	66.32
719.06	66.88
719.244	66.38
719.428	65.68
719.611	65.81
719.795	64.63
719.978	65.44
720.162	63.96
720.345	64.56
720.529	67.17
720.713	63.87
720.896	64.15
721.08	65.81
721.263	67.59
721.446	68.02
721.63	67.78
721.813	68.17
721.997	67.28
722.18	69.42
722.364	70.9
722.547	69.58
722.73	71.84
722.914	71.19
723.097	69.37
723.28	70.5
723.464	70.44
723.647	70.31
723.83	71.32
724.013	72
724.197	68.32
724.38	67.73
724.563	66.92
724.746	67.93
724.929	66.51
725.112	67.61
725.296	64.58
725.479	63.9
725.662	64.53
725.845	63.47
726.028	62.35
726.211	62.34
726.394	60.51
726.577	60.91
726.76	59.24
726.943	59.71
727.126	58.23
727.309	58.05
727.492	57.07
727.675	57.69
727.858	57.91
728.041	57.58
728.224	58.92
728.407	59.47
728.589	59.27
728.772	59.82
728.955	61.01
729.138	62.18
729.321	62.58
729.503	62.6
729.686	61.72
729.869	62.5
730.052	62.56
730.234	61.77
730.417	62.91
730.6	63.69
730.782	62.45
730.965	61.83
731.148	61.26
731.33	61.02
731.513	61.44
731.695	60.89
731.878	60.84
732.061	60.6
732.243	61.66
732.426	59.94
732.608	58.67
732.791	58.6
732.973	57.99
733.156	57.38
733.338	60.56
733.52	61.54
733.703	61.55
733.885	62.87
734.068	63.97
734.25	63.27
734.432	64.78
734.615	64.91
734.797	64.21
734.979	66.38
735.162	67.02
735.344	64.3
735.526	64.06
735.708	65.22
735.891	63.89
736.073	62.94
736.255	62.92
736.437	63.23
736.619	62.82
736.802	63.93
736.984	62.79
737.166	63.2
737.348	64.76
737.53	65.1
737.712	62.17
737.894	61.61
738.076	62.27
738.258	63.01
738.44	61.68
738.622	62.4
738.804	64.99
738.986	64.48
739.168	65.08
739.35	64.21
739.532	64.08
739.714	66.76
739.896	68.13
740.078	68.12
740.259	66.52
740.441	66.02
740.623	67.11
740.805	65.39
740.987	64.85
741.168	64.47
741.35	65.89
741.532	64.88
741.714	64.22
741.895	61.9
742.077	62.36
742.259	63.81
742.44	66.05
742.622	67.02
742.804	66.33
742.985	69.17
743.167	69.94
743.348	67.8
743.53	69.64
743.711	70.29
743.893	70.96
744.075	71.42
744.256	71.22
744.438	70.62
744.619	71.14
744.8	72.3
744.982	70.84
745.163	70.8
745.345	72.18
745.526	71.82
745.707	72.47
745.889	72.86
746.07	73.7
746.252	74.61
746.433	73.7
746.614	71.55
746.795	72.21
746.977	74.07
747.158	72.45
747.339	74.79
747.52	72.97
747.702	74
747.883	72.07
748.064	71.89
748.245	72
748.426	73.99
748.607	72.95
748.788	71.59
748.97	69.78
749.151	69.94
749.332	68.05
749.513	69.25
749.694	69.3
749.875	74.52
750.056	72.89
750.237	75.72
750.418	75.23
750.599	76.97
750.78	76.3
750.96	73.9
751.141	75.02
751.322	71.75
751.503	71.64
751.684	69.96
751.865	66.17
752.046	65.61
752.226	62.19
752.407	58.1
752.588	57.97
752.769	59.14
752.949	60.88
753.13	60.51
753.311	62.59
753.492	62.11
753.672	61.63
753.853	66.49
754.034	64.54
754.214	65.2
754.395	67.1
754.575	65.66
754.756	63.85
754.937	63.34
755.117	62.35
755.298	64.73
755.478	65.9
755.659	67.31
755.839	63.26
756.02	66.53
756.2	66.34
756.381	66.85
756.561	67.97
756.741	68.89
756.922	70.43
757.102	68.89
757.283	67.46
757.463	67.01
757.643	66.49
757.823	67.43
758.004	66.45
758.184	64.94
758.364	64.45
758.545	65.79
758.725	65.75
758.905	65.14
759.085	67.05
759.265	66.53
759.446	66.07
759.626	68.26
759.806	67.86
759.986	68.19
760.166	68.28
760.346	71.05
760.526	68.38
760.706	68.44
760.886	66.71
761.066	67.8
761.246	66.53
761.426	66.33
761.606	62.72
761.786	60.67
761.966	60.23
762.146	59.73
762.326	58.3
762.506	58.29
762.686	57.45
762.866	57.25
763.046	55.86
763.225	55.96
763.405	56.98
763.585	57.27
763.765	59.24
763.945	59.65
764.124	60.45
764.304	61.15
764.484	61.61
764.664	63.54
764.843	64.87
765.023	66.54
765.203	65.64
765.382	65.82
765.562	68.24
765.741	69.54
765.921	67.58
766.101	68.34
766.28	69.39
766.46	69.55
766.639	67.83
766.819	69.9
766.998	71.11
767.178	74.41
767.357	70.23
767.537	69.79
767.716	68.67
767.896	68.51
768.075	68.28
768.254	66.37
768.434	67.88
768.613	70.17
768.792	69.34
768.972	67.92
769.151	68.5
769.33	73.2
769.51	73.62
769.689	72.82
769.868	74.11
770.047	74.82
770.226	75.57
770.406	74.59
770.585	74.14
770.764	71.53
770.943	71.77
771.122	71.67
771.301	69.47
771.48	68.95
771.66	67.9
771.839	68.84
772.018	72.23
772.197	75.54
772.376	76.45
772.555	77.09
772.734	80.89
772.913	81.58
773.092	81.31
773.271	80.88
773.449	83.16
773.628	83.96
773.807	86.8
773.986	82.49
774.165	76.24
774.344	77.66
774.523	75.33
774.701	77.67
774.88	77.23
775.059	78.4
775.238	79.79
775.417	77.04
775.595	79.97
775.774	81.33
775.953	80.73
776.131	85.4
776.31	82.19
776.489	81.9
776.667	79.01
776.846	81.55
777.025	80.38
777.203	82.73
777.382	82.46
777.56	81.88
777.739	76.08
777.917	77.35
778.096	77.25
778.274	81.14
778.453	80.7
778.631	82.56
778.81	81.53
778.988	81.77
779.166	83.89
779.345	83.14
779.523	84.94
779.702	91.25
779.88	92.46
780.058	88.04
780.237	83.23
780.415	86.47
780.593	82.58
780.771	79.53
780.95	75.33
781.128	72.71
781.306	75.64
781.484	76.17
781.662	74.54
781.841	69.91
782.019	73.42
782.197	76.33
782.375	78.2
782.553	81.72
782.731	81.72
782.909	83.9
783.087	84.49
783.265	85.11
783.443	80.97
783.621	79.28
783.799	86.64
783.977	87.8
784.155	85.42
784.333	87.26
784.511	86.09
784.689	86.57
784.867	86.61
785.045	90.29
785.223	86.26
785.4	86.84
785.578	90.21
785.756	88.53
785.934	84.11
786.112	87.79
786.289	87.56
786.467	81.71
786.645	83.08
786.823	81.85
787	75.26
787.178	78.28
787.356	78.79
787.533	76.14
787.711	75.04
787.889	76.06
788.066	73.63
788.244	71
788.421	75.28
788.599	73.8
788.776	75.04
788.954	75.48
789.131	74.92
789.309	76.1
789.486	73.35
789.664	69.72
789.841	72.73
790.019	74.47
790.196	79.6
790.373	80.11
790.551	85.52
790.728	86.93
790.906	88.48
791.083	83.3
791.26	82.63
791.437	87.37
791.615	92.91
791.792	88.88
791.969	88.42
792.146	83.64
792.324	81.99
792.501	82.77
792.678	86.27
792.855	86.44
793.032	93.19
793.209	93.53
793.387	94.07
793.564	95.05
793.741	97.07
793.918	95.06
794.095	100.13
794.272	100.11
794.449	94.82
794.626	92.5
794.803	94.65
794.98	92.54
795.157	93.63
795.334	92.51
795.511	90.29
795.688	85.28
795.864	90.77
796.041	87.65
796.218	85.39
796.395	87.55
796.572	85.54
796.749	87.58
796.925	87.35
797.102	82.53
797.279	78.1
797.456	80.08
797.632	82.21
797.809	79.17
797.986	76.56
798.162	78.92
798.339	79.15
798.516	78.54
798.692	72.17
798.869	74.16
799.046	77.51
799.222	83.54
799.399	78.41
799.575	80.74
799.752	77.28
799.928	78.52
800.105	77.8
800.281	74.23
800.458	74.88
800.634	74.52
800.811	72.74
800.987	72.87
801.163	70.81
801.34	73.73
801.516	69.09
801.692	73.73
801.869	75.77
802.045	78.39
802.221	84.12
802.398	84.69
802.574	90.33
802.75	88.46
802.926	84.78
803.103	86.99
803.279	90.68
803.455	94.46
803.631	94.84
803.807	95.7
803.983	99.11
804.16	95.39
804.336	96.3
804.512	94.58
804.688	97.3
804.864	99.02
805.04	98.32
805.216	93.68
805.392	98.05
805.568	96.56
805.744	92.21
805.92	86.46
806.096	89.71
806.272	94.51
806.448	94.41
806.623	91.61
806.799	93.76
806.975	89.94
807.151	93.82
807.327	88.9
807.503	87.73
807.678	86.54
807.854	90.65
808.03	88.24
808.206	83.14
808.381	84.18
808.557	88.2
808.733	88.98
808.908	96.22
809.084	95.1
809.26	103.11
809.435	102.26
809.611	101.81
809.787	95.36
809.962	93.81
810.138	98.68
810.313	96.93
810.489	100.62
810.664	96.44
810.84	93.65
811.015	96.57
811.191	93.14
811.366	100.56
811.542	108.44
811.717	109.3
811.892	112.52
812.068	103.87
812.243	105.59
812.419	94.26
812.594	98.84
812.769	97.62
812.944	101.02
813.12	100.25
813.295	92.33
813.47	86.6
813.645	91.5
813.821	85.2
813.996	88.21
814.171	84.33
814.346	88.47
814.521	88.13
814.697	85.96
814.872	82.12
815.047	79.69
815.222	75.5
815.397	75.9
815.572	73.16
815.747	76.64
815.922	79.67
816.097	84.95
816.272	86.33
816.447	89.32
816.622	89.91
816.797	91.58
816.972	93.92
817.147	95.24
817.322	97.12
817.496	95.81
817.671	102.07
817.846	99.04
818.021	91.88
818.196	89.29
818.371	84.24
818.545	83.14
818.72	81.02
818.895	79.06
819.069	78.19
819.244	73.5
819.419	70.34
819.594	62.89
819.768	59.55
819.943	60.87
820.117	58.49
820.292	58.68
820.467	57.52
820.641	56.47
820.816	55.54
820.99	54.46
821.165	54.12
821.339	53.65
821.514	52.85
821.688	52.64
821.863	51.77
822.037	51.86
822.212	51.06
822.386	50.52
822.56	49.17
822.735	49.52
822.909	49.21
823.084	49.08
823.258	49.85
823.432	50.55
823.606	50.69
823.781	50.57
823.955	51.38
824.129	50.96
824.303	51.93
824.478	53.3
824.652	53.26
824.826	53.81
825	53.99
825.174	54.21
825.348	54.94
825.523	54.96
825.697	54.51
825.871	53.43
826.045	54.54
826.219	53.79
826.393	54.05
826.567	54.12
826.741	53.6
826.915	53.42
827.089	53.58
827.263	53.75
827.437	54.21
827.611	55.21
827.784	56.97
827.958	58.27
828.132	58.7
828.306	58.94
828.48	59.8
828.654	61.97
828.827	62.24
829.001	64.68
829.175	66.02
829.349	70.03
829.522	70.13
829.696	70.21
829.87	71.5
830.044	74.92
830.217	73.06
830.391	79.13
830.565	81.94
830.738	85.73
830.912	82.26
831.085	81.45
831.259	78.03
831.432	79.92
831.606	80.79
831.779	76.2
831.953	74.48
832.126	78.09
832.3	72.01
832.473	70.65
832.647	67.65
832.82	67.08
832.994	64.75
833.167	66.44
833.34	65.48
833.514	62.84
833.687	63.31
833.86	61.7
834.034	60.19
834.207	60.4
834.38	58.99
834.553	55.88
834.727	56.53
834.9	57.73
835.073	55.06
835.246	52.99
835.419	52.94
835.593	50.64
835.766	51.99
835.939	53.04
836.112	52.66
836.285	51.51
836.458	58.77
836.631	56.76
836.804	56.45
836.977	58.9
837.15	67.53
837.323	74.8
837.496	82.84
837.669	79.46
837.842	76.34
838.015	77.36
838.188	83.4
838.361	86.74
838.533	89.94
838.706	95.74
838.879	90.5
839.052	88.98
839.225	88.49
839.398	89.67
839.57	96.73
839.743	99.5
839.916	100.85
840.088	98.44
840.261	105.57
840.434	102.73
840.607	96.78
840.779	102.38
840.952	102.66
841.124	106.67
841.297	106.39
841.47	103.82
841.642	106.66
841.815	100.43
841.987	114.33
842.16	101.93
842.332	105.79
842.505	107.43
842.677	110.15
842.85	115.48
843.022	112.01
843.194	103.68
843.367	106.51
843.539	110.44
843.712	117.46
843.884	113.27
844.056	114.21
844.229	117.21
844.401	128.52
844.573	125.09
844.745	124.17
844.918	128.7
845.09	138.77
845.262	156.47
845.434	165.77
845.606	170
845.779	174.95
845.951	181.02
846.123	186.78
846.295	189.59
846.467	230.13
846.639	219.28
846.811	253.96
846.983	247.94
847.155	234.76
847.327	200.49
847.499	203.55
847.671	192.68
847.843	180.19
848.015	170.51
848.187	162.94
848.359	146.88
848.531	166.82
848.703	136.58
848.875	167.6
849.047	161.16
849.218	159.86
849.39	153.27
849.562	171.85
849.734	200
849.905	200.53
850.077	208.6
850.249	204.55
850.421	173.36
850.592	196.99
850.764	165.46
850.936	144.23
851.107	146.77
851.279	159.8
851.451	143.11
851.622	144.61
851.794	144.36
851.965	141.63
852.137	139.62
852.308	148.25
852.48	149.83
852.651	150.8
852.823	158.18
852.994	153.84
853.166	151.18
853.337	169.23
853.509	173.49
853.68	170.39
853.851	163.5
854.023	155.96
854.194	142.36
854.365	151.14
854.537	133.72
854.708	149.32
854.879	155.18
855.05	163.48
855.222	144.43
855.393	138.77
855.564	144.34
855.735	151.2
855.906	158.11
856.078	157.58
856.249	134.16
856.42	141.7
856.591	127.14
856.762	125.23
856.933	112.62
857.104	101.78
857.275	99.49
857.446	96.29
857.617	91.21
857.788	98.26
857.959	95.2
858.13	109.63
858.301	111.13
858.472	115.15
858.643	111.86
858.814	125.09
858.985	158.26
859.155	193.11
859.326	174.85
859.497	203.81
859.668	288.55
859.839	277.35
860.009	191.48
860.18	203.32
860.351	183.64
860.522	163.73
860.692	139.5
860.863	126.96
861.034	123.66
861.204	126.52
861.375	119.08
861.546	114.77
861.716	111.84
861.887	113.06
862.057	126.58
862.228	139.57
862.398	147.57
862.569	165.63
862.739	180.26
862.91	157.14
863.08	173.58
863.251	187.16
863.421	184.2
863.592	211.41
863.762	212.88
863.932	175.45
864.103	171.43
864.273	172.58
864.443	149.02
864.614	140.87
864.784	143
864.954	128.87
865.125	139.91
865.295	133.02
865.465	152.99
865.635	153.08
865.805	146.22
865.976	181.52
866.146	151.24
866.316	188.26
866.486	223.66
866.656	224.25
866.826	244.81
866.996	207.32
867.166	247.15
867.336	191.44
867.506	139.19
867.676	131.62
867.846	122.7
868.016	135.43
868.186	123.15
868.356	111.66
868.526	114.15
868.696	109.27
868.866	110.83
869.036	118.79
869.206	110.92
869.376	117.94
869.545	131.7
869.715	140.84
869.885	145.03
870.055	140.58
870.224	134.55
870.394	132.27
870.564	155.59
870.734	148.85
870.903	155.34
871.073	174.28
871.243	186.13
871.412	190.94
871.582	158.35
871.751	153.75
871.921	169
872.091	202.48
872.26	164.39
872.43	142.68
872.599	152.03
872.769	148.1
872.938	163.47
873.108	150.26
873.277	138.44
873.446	148.95
873.616	167.91
873.785	173.45
873.955	170.53
874.124	182.96
874.293	185.01
874.463	173.31
874.632	173.81
874.801	157.07
874.971	153.08
875.14	185.45
875.309	172.96
875.478	141.11
875.647	122.28
875.817	121.92
875.986	131.32
876.155	133.26
876.324	135.84
876.493	114.64
876.662	124.62
876.831	128.98
877	110.19
877.17	102.99
877.339	107.92
877.508	115.31
877.677	118.63
877.846	107.6
878.015	112.8
878.184	100.9
878.352	112
878.521	101.5
878.69	100.96
878.859	99.59
879.028	102.56
879.197	98.01
879.366	94.54
879.534	82.54
879.703	78.83
879.872	73.79
880.041	71.03
880.21	63.9
880.378	57.21
880.547	55.59
880.716	56.5
880.884	54.02
881.053	52.16
881.222	52.71
881.39	54.32
881.559	53.69
881.727	51.84
881.896	51.73
882.065	53.42
882.233	55.63
882.402	56.77
882.57	57.71
882.739	58.59
882.907	59.68
883.076	58.31
883.244	56.88
883.412	56.26
883.581	59.7
883.749	61.66
883.918	62.38
884.086	65.52
884.254	64.84
884.423	67.52
884.591	70.03
884.759	72.92
884.927	79.59
885.096	87.04
885.264	94.4
885.432	97.59
885.6	102.64
885.769	109.81
885.937	117.84
886.105	137.04
886.273	139.51
886.441	139.03
886.609	137.26
886.777	123.49
886.945	123.11
887.113	121.11
887.281	114.98
887.449	117.86
887.617	113.34
887.785	101.02
887.953	93.24
888.121	101.66
888.289	108.65
888.457	117.69
888.625	125.32
888.793	121.57
888.961	125
889.129	137.88
889.296	148.63
889.464	159.73
889.632	188.98
889.8	210.3
889.967	176.4
890.135	169.19
