Data from JASIL_3289_Reflection_2.txt Node
Date: Tue Nov 17 19:39:02 EST 2015
User: Geneva
Spectrometer: USB4E03002
Autoset integration time: false
Trigger mode: 4
Integration Time (sec): 1.000000E-1
Scans to average: 10
Electric dark correction enabled: false
Nonlinearity correction enabled: false
Boxcar width: 5
Stray light correction enabled: false
XAxis mode: Wavelengths
Stop averaging: false
Number of Pixels in Spectrum: 3648
>>>>>Begin Spectral Data<<<<<
177.575	-430.69
177.794	-613.04
178.014	-604.49
178.233	-1030.19
178.452	-800
178.672	-391.34
178.891	-882.76
179.11	4570
179.33	691.3
179.549	958.82
179.768	-3481.82
179.987	246.97
180.207	122.95
180.426	231.51
180.645	292.8
180.864	2458.82
181.084	307.83
181.303	162.5
181.522	162.64
181.741	124.72
181.96	159.6
182.179	611.76
182.398	28.57
182.618	105.47
182.837	132.86
183.056	214.21
183.275	242.22
183.494	140.62
183.713	110.34
183.932	96.42
184.151	76.52
184.37	86.87
184.589	67.11
184.808	57.3
185.027	40.64
185.246	36.96
185.465	5.29
185.684	-23.28
185.903	-54.69
186.122	-108.75
186.341	-314.16
186.56	-258.33
186.779	-2007.41
186.998	-217.46
187.216	-266.67
187.435	-244.24
187.654	-239.39
187.873	-109.82
188.092	-94.87
188.311	-148.57
188.53	-120.65
188.748	-54.45
188.967	-45.45
189.186	3.2
189.405	-23.28
189.623	-20
189.842	-87.71
190.061	-82.8
190.28	-43.85
190.498	-46.47
190.717	-11.83
190.936	3.63
191.154	-49.45
191.373	-179.31
191.592	669.77
191.81	264.08
192.029	213.68
192.248	45.1
192.466	0.55
192.685	19.79
192.904	36.63
193.122	18.32
193.341	50
193.559	-0.56
193.778	60.22
193.996	-10.9
194.215	-173.91
194.433	-50
194.652	-128.67
194.87	-138.12
195.089	-188.46
195.307	-640.35
195.526	185.71
195.744	207.91
195.963	117.33
196.181	166.12
196.399	163.22
196.618	-10.53
196.836	39.72
197.055	132.43
197.273	234.33
197.491	234.23
197.71	151.98
197.928	106.29
198.146	116.44
198.365	335.71
198.583	273.02
198.801	-58.87
199.019	9.59
199.238	32.82
199.456	4.13
199.674	5.62
199.892	-17.56
200.111	-33.33
200.329	-37.37
200.547	-38.78
200.765	535.29
200.983	-152.14
201.202	442.11
201.42	146.43
201.638	117.62
201.856	106.41
202.074	161.33
202.292	128.57
202.51	96.1
202.728	139.43
202.946	1035.71
203.165	375
203.383	114.8
203.601	132.99
203.819	282.73
204.037	-618.18
204.255	-500
204.473	-16.08
204.691	1.76
204.909	-10.62
205.127	214.58
205.345	-110.91
205.562	68.22
205.78	60.28
205.998	41.44
206.216	51.17
206.434	20.16
206.652	21.71
206.87	31.14
207.088	-20.48
207.306	-131.79
207.523	-161.54
207.741	-167.48
207.959	-242.79
208.177	-273.58
208.395	-192.65
208.612	-191.67
208.83	-120.74
209.048	-140.82
209.266	-130.66
209.483	-52.06
209.701	-28.74
209.919	-22.93
210.136	-7.47
210.354	5.22
210.572	28.57
210.79	-8
211.007	-88.03
211.225	206.67
211.442	-133.9
211.66	100
211.878	83.72
212.095	560.73
212.313	792.37
212.53	474.88
212.748	429.88
212.966	335.07
213.183	398.05
213.401	-4233.33
213.618	-331.35
213.836	-291.47
214.053	-383.03
214.271	-228.21
214.488	97.32
214.705	90.38
214.923	79.82
215.14	69.65
215.358	70.17
215.575	59.46
215.793	33.46
216.01	6.64
216.227	13.79
216.445	29.17
216.662	63.36
216.879	12.61
217.097	30.52
217.314	-16.34
217.531	925
217.749	194.06
217.966	110.44
218.183	73.7
218.4	-31.61
218.618	-20.39
218.835	71.89
219.052	79.78
219.269	57.91
219.487	71.94
219.704	56.59
219.921	69.81
220.138	91.72
220.355	87.58
220.572	75.81
220.79	108.98
221.007	163.74
221.224	185.93
221.441	189.02
221.658	241.45
221.875	-802.86
222.092	-411.36
222.309	1169.7
222.526	183.64
222.743	204.83
222.96	253.96
223.177	597.67
223.394	310.53
223.611	190.21
223.828	100.4
224.045	61.24
224.262	53.67
224.479	45.27
224.696	80.29
224.913	114.05
225.13	93.4
225.347	60.69
225.564	22.29
225.781	25.3
225.997	19.22
226.214	29.68
226.431	22.67
226.648	16.74
226.865	11.82
227.082	-1.93
227.298	10.08
227.515	12.18
227.732	17.94
227.949	14.23
228.165	7.8
228.382	7.37
228.599	5.75
228.816	6.14
229.032	13.21
229.249	15.64
229.466	27.5
229.682	23.87
229.899	16.68
230.116	21.2
230.332	25.89
230.549	33.1
230.765	25.34
230.982	17.28
231.199	16.66
231.415	3.64
231.632	6.85
231.848	-26.25
232.065	-28.72
232.281	-19.09
232.498	-24.44
232.714	-32.15
232.931	-41.95
233.147	-36.23
233.364	-21.52
233.58	-14.82
233.797	-6.44
234.013	-13.98
234.23	18.5
234.446	22.09
234.662	28.02
234.879	-20.52
235.095	13.58
235.312	30.19
235.528	38.94
235.744	13.13
235.961	2.27
236.177	-4.04
236.393	-19.32
236.61	-38.8
236.826	-32.41
237.042	-34.85
237.258	-10.92
237.475	-16.83
237.691	-44.62
237.907	-29.19
238.123	-5.34
238.339	-7.77
238.556	0.73
238.772	11.3
238.988	7.22
239.204	4.71
239.42	9.25
239.636	14.32
239.853	21.07
240.069	21.48
240.285	15.87
240.501	18.15
240.717	16.93
240.933	17.59
241.149	17.8
241.365	19.02
241.581	19.88
241.797	22.98
242.013	23.12
242.229	18.79
242.445	17.01
242.661	19.72
242.877	17.39
243.093	22.66
243.309	21.11
243.525	18.24
243.741	24.42
243.957	24.05
244.173	18.72
244.388	14.33
244.604	16.54
244.82	17.63
245.036	15.74
245.252	15.22
245.468	12.25
245.683	11.96
245.899	10.93
246.115	9.12
246.331	9.36
246.547	9.62
246.762	9.74
246.978	8.22
247.194	9.45
247.409	9.19
247.625	7.48
247.841	8.93
248.057	9.37
248.272	8.08
248.488	7.08
248.703	4.25
248.919	7.3
249.135	5.9
249.35	8.64
249.566	8.85
249.782	13.81
249.997	17.47
250.213	16.59
250.428	13.74
250.644	15.88
250.859	13.8
251.075	13.47
251.29	8.65
251.506	8.33
251.721	6.78
251.937	1.06
252.152	-4.09
252.368	-6.41
252.583	-13.28
252.798	-15.38
253.014	-20.05
253.229	-19.41
253.445	-14.78
253.66	-13.34
253.875	-9.92
254.091	-15.13
254.306	-8.52
254.521	-12.36
254.737	-18.23
254.952	-8.21
255.167	-6.75
255.383	-6.34
255.598	-3.87
255.813	-5.24
256.028	-7.56
256.244	-4.56
256.459	2.17
256.674	1.73
256.889	4.01
257.104	4.19
257.32	1.52
257.535	2.85
257.75	4.3
257.965	1.46
258.18	-0.35
258.395	-0.83
258.61	-1.11
258.826	-3.64
259.041	-3.76
259.256	-4.37
259.471	-3.41
259.686	-1.52
259.901	-2.05
260.116	-0.9
260.331	-0.14
260.546	0.8
260.761	3.46
260.976	4.25
261.191	4.43
261.406	5.26
261.621	3.34
261.836	1.9
262.05	-2.82
262.265	1.79
262.48	-3.03
262.695	-1.93
262.91	-5.94
263.125	-6.22
263.34	-14.11
263.555	-14.26
263.769	-18.43
263.984	-11.42
264.199	-6.36
264.414	-1.29
264.629	-4.98
264.843	0.76
265.058	-2.02
265.273	-1.88
265.488	-4.47
265.702	-0.16
265.917	2.99
266.132	4.04
266.346	5.35
266.561	4.85
266.776	3.86
266.99	3.72
267.205	3.03
267.42	1.81
267.634	2.5
267.849	2.02
268.063	-1.45
268.278	-2.03
268.492	-1.41
268.707	-2.29
268.922	-3.19
269.136	-3.01
269.351	-2.54
269.565	-4.26
269.78	-3.16
269.994	-0.93
270.209	1.58
270.423	1.86
270.637	0.91
270.852	1.6
271.066	2.67
271.281	3.83
271.495	4.89
271.709	4.93
271.924	5.75
272.138	8.22
272.353	7.37
272.567	8.49
272.781	8.12
272.996	9.36
273.21	8.72
273.424	8.29
273.638	8.79
273.853	9.25
274.067	8.51
274.281	8.6
274.495	6.84
274.71	10.14
274.924	7.32
275.138	10.47
275.352	9.2
275.566	9.56
275.781	7.91
275.995	4.43
276.209	2.33
276.423	2.48
276.637	0.4
276.851	-1.95
277.065	-2.54
277.279	-4.31
277.493	-6.96
277.707	-7.71
277.921	-6.73
278.135	-4.22
278.349	-4.44
278.563	-4.65
278.777	-5.11
278.991	-3.25
279.205	1.28
279.419	-4.28
279.633	-2.48
279.847	0.66
280.061	0.66
280.275	-1.31
280.489	-3.68
280.703	-3.77
280.917	-2.99
281.131	-1.95
281.344	-1.4
281.558	-5.13
281.772	-3.76
281.986	-1.24
282.2	-3.04
282.414	-0.19
282.627	-0.48
282.841	1.85
283.055	2.65
283.269	3.78
283.482	2.57
283.696	2
283.91	4.87
284.123	7.4
284.337	8.26
284.551	9.55
284.764	7.64
284.978	8.49
285.192	7.99
285.405	7.82
285.619	7.65
285.833	9.6
286.046	11.69
286.26	11.63
286.473	10.2
286.687	8.12
286.9	8.59
287.114	9.88
287.327	9.93
287.541	8.96
287.754	10.87
287.968	9.88
288.181	8.92
288.395	5.86
288.608	6.29
288.822	6.77
289.035	6.94
289.248	6.09
289.462	5.4
289.675	5.13
289.889	6.17
290.102	4.62
290.315	5.35
290.529	5.35
290.742	7.09
290.955	7.8
291.169	6.71
291.382	5.54
291.595	4.01
291.808	4.05
292.022	4.47
292.235	3.23
292.448	3.72
292.661	5.17
292.875	3.96
293.088	2.89
293.301	0.06
293.514	-0.6
293.727	0.47
293.94	1.04
294.153	1
294.367	0.98
294.58	1.29
294.793	0.98
295.006	-1.71
295.219	-1.17
295.432	-2.48
295.645	-0.98
295.858	1.01
296.071	0.56
296.284	1.56
296.497	1.77
296.71	2.46
296.923	2.58
297.136	2.41
297.349	3.56
297.562	4
297.775	5.08
297.988	3.16
298.201	4.32
298.414	4.34
298.626	2.74
298.839	2.76
299.052	2.2
299.265	2.95
299.478	4.42
299.691	4.3
299.903	2.15
300.116	1.36
300.329	1.74
300.542	0.11
300.755	1.51
300.967	2.18
301.18	2.9
301.393	2.56
301.605	1.35
301.818	0.87
302.031	2.05
302.243	3.78
302.456	5.16
302.669	6.38
302.881	6.07
303.094	6.49
303.307	6.53
303.519	6.42
303.732	8.11
303.944	8.76
304.157	8.95
304.37	9.15
304.582	8.29
304.795	8.39
305.007	8.53
305.22	7.93
305.432	7.85
305.645	8.39
305.857	7.26
306.069	4.59
306.282	4.4
306.494	3
306.707	2.31
306.919	2.63
307.132	2.56
307.344	2.58
307.556	2.41
307.769	1.69
307.981	2.42
308.193	1.81
308.406	2.63
308.618	0.91
308.83	1.78
309.043	1.78
309.255	2.99
309.467	3.86
309.679	2.71
309.892	3.87
310.104	4.41
310.316	4.76
310.528	6.12
310.74	5.35
310.953	6.21
311.165	7.38
311.377	9.56
311.589	10.68
311.801	10.11
312.013	10.59
312.225	9.04
312.437	8.9
312.649	7.31
312.862	7.78
313.074	9.08
313.286	10.15
313.498	10.34
313.71	8.03
313.922	6.11
314.134	6.14
314.346	8.86
314.558	11.72
314.77	11.53
314.982	12.04
315.193	9.77
315.405	9.19
315.617	7.62
315.829	7.14
316.041	8.12
316.253	6.45
316.465	7.77
316.677	6.61
316.888	7.2
317.1	7.51
317.312	9.18
317.524	10.74
317.736	13.91
317.947	15.81
318.159	15.36
318.371	15.11
318.583	16.68
318.794	15.41
319.006	15.22
319.218	13.93
319.43	14.27
319.641	13.71
319.853	14.45
320.064	10.61
320.276	11.84
320.488	11.66
320.699	10.38
320.911	10.67
321.123	10.97
321.334	11.28
321.546	11.08
321.757	11.42
321.969	10.71
322.18	10.62
322.392	11.52
322.603	9.82
322.815	9.84
323.026	8.49
323.238	7.05
323.449	5.76
323.661	5.73
323.872	5.85
324.083	4.48
324.295	5.01
324.506	4.05
324.718	3.82
324.929	6.09
325.14	7.66
325.352	8.81
325.563	10.1
325.774	10.56
325.986	10.16
326.197	10.06
326.408	9.37
326.62	9.63
326.831	9.95
327.042	12.55
327.253	11.14
327.464	8.38
327.676	10.32
327.887	10.81
328.098	12.64
328.309	12.54
328.52	12.71
328.732	13.32
328.943	12.51
329.154	11.39
329.365	10.4
329.576	10.86
329.787	13.29
329.998	12.72
330.209	12.97
330.42	12.61
330.631	13.21
330.842	13.79
331.053	13.68
331.264	14.02
331.475	14.78
331.686	15.05
331.897	12.55
332.108	12.08
332.319	10.48
332.53	9.19
332.741	7.73
332.952	6.3
333.163	4.56
333.374	7.8
333.585	8.08
333.795	9.93
334.006	7.95
334.217	9.98
334.428	8.88
334.639	8.85
334.849	9.65
335.06	11.41
335.271	13.4
335.482	13.82
335.692	11.74
335.903	11.01
336.114	10.93
336.325	12.02
336.535	11.87
336.746	13.89
336.957	12.79
337.167	13.15
337.378	13.3
337.589	12.86
337.799	12.71
338.01	13.71
338.22	15.34
338.431	14.79
338.642	15.2
338.852	15.81
339.063	14.98
339.273	17.02
339.484	16.6
339.694	15.01
339.905	13.71
340.115	14.53
340.326	13.82
340.536	12.59
340.746	12.21
340.957	11.03
341.167	11.31
341.378	11.89
341.588	11.12
341.799	11.4
342.009	10.97
342.219	10.85
342.43	11.71
342.64	10.82
342.85	11.58
343.061	11.94
343.271	13.03
343.481	11.47
343.691	10.78
343.902	12.15
344.112	12.52
344.322	12.59
344.532	14.29
344.743	14.79
344.953	15.57
345.163	15.11
345.373	15.49
345.583	16.11
345.793	16.75
346.004	18.36
346.214	18.1
346.424	18.37
346.634	18.81
346.844	19.08
347.054	17.68
347.264	17.72
347.474	17.05
347.684	16.8
347.894	15.61
348.104	14.57
348.314	12.93
348.524	12.64
348.734	13.41
348.944	14.43
349.154	12.6
349.364	12.7
349.574	12.71
349.784	12.59
349.994	12.38
350.204	12.99
350.413	13.27
350.623	12.39
350.833	13.53
351.043	12.53
351.253	11.55
351.463	11.27
351.672	11.52
351.882	11.06
352.092	12.34
352.302	11.85
352.511	11.92
352.721	12.58
352.931	12.6
353.141	10.78
353.35	10.14
353.56	9.61
353.77	10.22
353.979	10.59
354.189	10.02
354.399	9.64
354.608	10.34
354.818	10.15
355.027	10.52
355.237	10.79
355.447	11.26
355.656	11.43
355.866	12.09
356.075	12.21
356.285	12.25
356.494	13.44
356.704	13.98
356.913	14
357.123	13.82
357.332	13.4
357.542	12.87
357.751	12.98
357.96	12.76
358.17	12.43
358.379	11.9
358.589	12.31
358.798	12.25
359.007	12.36
359.217	12.46
359.426	11.82
359.635	12.54
359.845	13.21
360.054	12.63
360.263	12.78
360.472	13.29
360.682	13.59
360.891	13.32
361.1	12.87
361.309	12.71
361.519	12.23
361.728	12.89
361.937	13.25
362.146	13.87
362.355	14.1
362.564	13.06
362.774	13.1
362.983	13.06
363.192	12.82
363.401	13.26
363.61	12.02
363.819	12.89
364.028	12.66
364.237	11.79
364.446	11.51
364.655	10.61
364.864	11.5
365.073	10.93
365.282	10.75
365.491	10.96
365.7	11.89
365.909	11.72
366.118	11.24
366.327	11.33
366.536	10.51
366.745	9.93
366.954	11
367.162	11.34
367.371	12.27
367.58	13.55
367.789	13.6
367.998	12.29
368.207	12.75
368.415	13.38
368.624	13.03
368.833	13.83
369.042	13.67
369.25	13.65
369.459	13.92
369.668	13.32
369.877	12.59
370.085	12.06
370.294	11.42
370.503	12.28
370.711	10.97
370.92	10.89
371.129	10.98
371.337	10.73
371.546	10.6
371.754	9.83
371.963	9.61
372.171	8.83
372.38	8.33
372.589	8.95
372.797	8.35
373.006	8.74
373.214	8.56
373.423	8.42
373.631	9.3
373.84	8.14
374.048	8.64
374.256	8.41
374.465	9.89
374.673	11.29
374.882	10.17
375.09	10.06
375.298	10.77
375.507	11.12
375.715	10.85
375.923	10.08
376.132	11.51
376.34	10.96
376.548	11.73
376.757	11.68
376.965	11.37
377.173	12.7
377.381	13.1
377.59	12.77
377.798	12.77
378.006	12.18
378.214	12.73
378.423	12.35
378.631	12.1
378.839	11.44
379.047	12.08
379.255	12.57
379.463	12.24
379.671	12.71
379.879	12.12
380.088	11.75
380.296	13.13
380.504	12.88
380.712	13.25
380.92	13.99
381.128	14.77
381.336	13.16
381.544	11.9
381.752	11.46
381.96	11.21
382.168	11
382.376	12.15
382.584	11.04
382.791	11.07
382.999	10.13
383.207	8.96
383.415	9.05
383.623	9.5
383.831	9.61
384.039	10.65
384.247	9.68
384.454	10.65
384.662	10.28
384.87	11.2
385.078	10.77
385.285	10.92
385.493	12.53
385.701	12.2
385.909	12.55
386.116	13.03
386.324	12.13
386.532	12.75
386.739	12.66
386.947	12.06
387.155	11.11
387.362	11.9
387.57	11.39
387.778	9.85
387.985	8.48
388.193	7.83
388.4	7.9
388.608	8.28
388.816	8.14
389.023	7.86
389.231	8.77
389.438	9.17
389.646	9.58
389.853	11.03
390.061	11.76
390.268	12.24
390.475	11.68
390.683	11.43
390.89	11.06
391.098	10.97
391.305	10.65
391.512	10.42
391.72	10.41
391.927	9.9
392.135	9.22
392.342	9.26
392.549	9.17
392.756	9.46
392.964	8.96
393.171	10.35
393.378	10.4
393.586	10.31
393.793	9.85
394	9.93
394.207	10.01
394.414	10.31
394.622	10.12
394.829	10.42
395.036	10.05
395.243	10.18
395.45	8.87
395.657	8.12
395.864	8.28
396.072	9.3
396.279	9.69
396.486	9.31
396.693	9.03
396.9	9.49
397.107	9.92
397.314	11.16
397.521	11.4
397.728	11.71
397.935	12.39
398.142	12.77
398.349	11.45
398.556	11.07
398.763	11.57
398.97	11.69
399.177	11.89
399.383	11.4
399.59	10.53
399.797	10.57
400.004	10.18
400.211	10.02
400.418	9.55
400.625	9.95
400.831	10.38
401.038	9.31
401.245	9.48
401.452	8.75
401.658	8.97
401.865	8.8
402.072	8.92
402.279	9.58
402.485	9.88
402.692	10.34
402.899	9.58
403.105	9.09
403.312	9.79
403.519	9.93
403.725	9.81
403.932	10.27
404.138	11.25
404.345	11.34
404.552	11.49
404.758	12.59
404.965	11.92
405.171	12.71
405.378	13.16
405.584	13.39
405.791	12.66
405.997	13.62
406.204	13.77
406.41	13.45
406.617	13.17
406.823	11.83
407.029	10.32
407.236	10.74
407.442	11.02
407.649	10.75
407.855	10.38
408.061	11.48
408.268	11.63
408.474	11.32
408.68	10.62
408.887	10.99
409.093	12.02
409.299	12.52
409.505	12.82
409.712	13.08
409.918	12.93
410.124	12.53
410.33	11.95
410.537	11.5
410.743	10.89
410.949	11.94
411.155	11.44
411.361	10.53
411.567	10.26
411.773	9.83
411.98	9.63
412.186	10.64
412.392	11.22
412.598	11.43
412.804	11.11
413.01	12.29
413.216	11.95
413.422	12.22
413.628	13.12
413.834	12.53
414.04	12.55
414.246	12.58
414.452	11.82
414.658	11.26
414.864	10.98
415.07	10.91
415.275	10.06
415.481	9.93
415.687	10.05
415.893	10.03
416.099	10.95
416.305	11.09
416.511	10.93
416.716	11.04
416.922	11.78
417.128	11.7
417.334	12.14
417.539	12.28
417.745	12.6
417.951	12.22
418.157	12.45
418.362	12.4
418.568	12.36
418.774	11.88
418.979	11.95
419.185	11.69
419.391	12.01
419.596	12.16
419.802	12.41
420.008	11.82
420.213	12.28
420.419	11.94
420.624	11.87
420.83	12.06
421.035	12.65
421.241	12.6
421.446	12.47
421.652	12.56
421.857	12.25
422.063	12.28
422.268	12.57
422.474	12.28
422.679	12.52
422.885	12.63
423.09	12.22
423.295	12.18
423.501	12.31
423.706	12.55
423.911	12.39
424.117	12.41
424.322	12.35
424.527	12.31
424.733	12.44
424.938	12.11
425.143	11.86
425.349	11.94
425.554	11.45
425.759	11.39
425.964	11.09
426.169	11.15
426.375	11.57
426.58	11.34
426.785	11.38
426.99	10.96
427.195	11.23
427.4	11.3
427.605	11.74
427.811	12.07
428.016	11.87
428.221	12.46
428.426	12.81
428.631	12.03
428.836	11.85
429.041	12.02
429.246	12.32
429.451	12.31
429.656	12.31
429.861	12.33
430.066	12.38
430.271	12.94
430.476	12.46
430.681	11.74
430.886	11.65
431.09	11.91
431.295	11.79
431.5	12.28
431.705	12.4
431.91	12.82
432.115	12.28
432.32	12.26
432.524	11.88
432.729	12.13
432.934	12.32
433.139	12.58
433.343	12.05
433.548	12.23
433.753	12.07
433.958	11.47
434.162	11.04
434.367	11.61
434.572	11.5
434.776	11.4
434.981	11.25
435.186	11.08
435.39	11.18
435.595	11.57
435.799	11.68
436.004	11.29
436.209	11.8
436.413	11.76
436.618	11.39
436.822	11.63
437.027	12
437.231	12.15
437.436	12.51
437.64	12.43
437.845	12.47
438.049	12.24
438.253	12.36
438.458	12.55
438.662	12.77
438.867	12.8
439.071	12.68
439.275	12.48
439.48	12.54
439.684	12.56
439.888	12.92
440.093	12.95
440.297	13.13
440.501	13.19
440.706	13.18
440.91	13.01
441.114	13.29
441.318	13.2
441.523	13.01
441.727	12.59
441.931	12.5
442.135	12.17
442.339	12.05
442.543	11.65
442.748	11.73
442.952	11.54
443.156	11.49
443.36	11.41
443.564	11.43
443.768	11.75
443.972	12.2
444.176	12.04
444.38	11.96
444.584	11.95
444.788	12.1
444.992	12.18
445.196	12.04
445.4	12.33
445.604	12.08
445.808	12.12
446.012	11.84
446.216	11.81
446.42	12.02
446.624	12.17
446.828	12.53
447.032	12.53
447.235	12.59
447.439	12.68
447.643	12.61
447.847	12.74
448.051	12.89
448.254	13.29
448.458	13.2
448.662	12.99
448.866	13.39
449.069	12.95
449.273	12.92
449.477	12.52
449.681	12.73
449.884	12.66
450.088	12.79
450.292	12.63
450.495	12.36
450.699	12.48
450.902	12.71
451.106	11.9
451.31	12.14
451.513	12.33
451.717	12.38
451.92	12.48
452.124	12.63
452.327	12.88
452.531	13.06
452.734	13.2
452.938	12.73
453.141	12.69
453.345	12.78
453.548	12.38
453.752	12.43
453.955	12.51
454.158	12.15
454.362	12.22
454.565	11.71
454.769	11.69
454.972	11.74
455.175	12.24
455.379	12.04
455.582	12.39
455.785	12.48
455.988	12.17
456.192	11.87
456.395	11.79
456.598	11.56
456.801	11.98
457.005	12.02
457.208	11.81
457.411	11.62
457.614	11.57
457.817	11.16
458.021	11.49
458.224	11.57
458.427	11.76
458.63	11.79
458.833	12.07
459.036	12.02
459.239	11.76
459.442	11.78
459.645	11.8
459.848	11.93
460.051	12.13
460.254	12.16
460.457	12.46
460.66	12.56
460.863	12.82
461.066	12.51
461.269	12.42
461.472	12.47
461.675	12.73
461.878	12.5
462.081	12.5
462.284	12.46
462.486	11.49
462.689	10.67
462.892	11.02
463.095	10.84
463.298	10.9
463.5	11.34
463.703	11.53
463.906	11.28
464.109	11.81
464.311	11.69
464.514	11.67
464.717	12.28
464.92	12.8
465.122	12.57
465.325	12.91
465.528	12.67
465.73	12.37
465.933	12.14
466.135	12.06
466.338	11.97
466.541	11.68
466.743	11.9
466.946	12.08
467.148	11.98
467.351	11.82
467.553	11.2
467.756	11.42
467.958	11.17
468.161	11.43
468.363	11.32
468.566	11.09
468.768	11.43
468.971	11.35
469.173	11.6
469.375	11.43
469.578	11.05
469.78	11.04
469.983	11.02
470.185	10.99
470.387	10.88
470.59	10.59
470.792	10.53
470.994	10.26
471.196	10.4
471.399	9.71
471.601	10.2
471.803	10.35
472.005	10.77
472.208	10.56
472.41	10.64
472.612	10.71
472.814	11.37
473.016	11.86
473.218	12.42
473.421	11.76
473.623	12.08
473.825	11.75
474.027	11.85
474.229	11.95
474.431	11.84
474.633	11.96
474.835	11.78
475.037	11.62
475.239	11.58
475.441	11.73
475.643	12.47
475.845	12.47
476.047	12.78
476.249	12.82
476.451	12.57
476.653	13.09
476.855	13.27
477.057	13.65
477.258	13.39
477.46	13.26
477.662	12.7
477.864	12.58
478.066	12.89
478.268	12.94
478.469	13.11
478.671	13.11
478.873	12.76
479.075	12.58
479.276	12.71
479.478	12.95
479.68	12.85
479.882	12.92
480.083	12.91
480.285	12.68
480.487	12.68
480.688	12.6
480.89	12.6
481.091	12.56
481.293	12.44
481.495	12.21
481.696	12.15
481.898	12.35
482.099	12.46
482.301	12.4
482.502	12.39
482.704	12.24
482.905	12.18
483.107	12.17
483.308	12.18
483.51	12.24
483.711	12.22
483.913	12.22
484.114	12.12
484.315	12.09
484.517	12.13
484.718	12.16
484.92	12.18
485.121	12.14
485.322	12.07
485.524	12.13
485.725	12.12
485.926	12.27
486.127	12.34
486.329	12.37
486.53	12.27
486.731	12.12
486.932	11.94
487.134	12
487.335	12.02
487.536	12.09
487.737	12.11
487.938	12.19
488.139	12.07
488.341	11.92
488.542	11.9
488.743	12.05
488.944	12.2
489.145	12.25
489.346	12.17
489.547	12.26
489.748	12.29
489.949	12.29
490.15	12.14
490.351	12.19
490.552	12.32
490.753	12.17
490.954	12.11
491.155	12.09
491.356	12.21
491.557	12.26
491.758	12.24
491.959	12.29
492.159	12.34
492.36	12.39
492.561	12.29
492.762	12.4
492.963	12.51
493.164	12.61
493.364	12.67
493.565	12.74
493.766	12.57
493.967	12.75
494.167	12.64
494.368	12.36
494.569	12.35
494.769	12.51
494.97	12.39
495.171	12.73
495.371	12.44
495.572	12.57
495.773	12.53
495.973	12.6
496.174	12.5
496.375	12.6
496.575	12.55
496.776	12.44
496.976	12.19
497.177	12.13
497.377	11.82
497.578	11.91
497.778	11.78
497.979	12.12
498.179	12.06
498.38	12.19
498.58	12.08
498.78	12.37
498.981	12.48
499.181	12.87
499.382	12.92
499.582	12.9
499.782	13.17
499.983	13.52
500.183	13.1
500.383	13.19
500.584	12.93
500.784	13.07
500.984	13.01
501.184	13.02
501.385	12.77
501.585	12.87
501.785	13.02
501.985	12.66
502.185	12.28
502.386	12.39
502.586	12.76
502.786	12.93
502.986	12.69
503.186	12.63
503.386	12.76
503.586	13.03
503.786	13.17
503.987	13.34
504.187	13.42
504.387	13.52
504.587	13.37
504.787	13.25
504.987	13.28
505.187	13.37
505.387	13.26
505.587	13.57
505.786	13.6
505.986	13.61
506.186	13.56
506.386	13.67
506.586	13.69
506.786	13.8
506.986	13.67
507.186	13.67
507.386	13.85
507.585	14.13
507.785	14.11
507.985	14.06
508.185	14.03
508.384	14.28
508.584	14.5
508.784	14.71
508.984	14.85
509.183	15
509.383	15.23
509.583	15.41
509.782	15.22
509.982	15.11
510.182	15.09
510.381	15.02
510.581	14.57
510.781	14.46
510.98	14.34
511.18	14.29
511.379	14
511.579	13.92
511.778	14.01
511.978	14.34
512.177	14.29
512.377	14.44
512.576	14.4
512.776	14.6
512.975	14.67
513.175	14.63
513.374	14.68
513.573	15.05
513.773	15.11
513.972	14.87
514.172	14.81
514.371	14.64
514.57	14.74
514.77	15.19
514.969	14.76
515.168	15
515.367	15.21
515.567	15.33
515.766	15.6
515.965	15.5
516.164	15.61
516.364	15.6
516.563	15.78
516.762	15.65
516.961	15.48
517.16	15.86
517.359	15.71
517.559	15.61
517.758	15.74
517.957	15.58
518.156	15.83
518.355	15.91
518.554	15.9
518.753	15.8
518.952	15.89
519.151	15.82
519.35	16.15
519.549	16.41
519.748	16.53
519.947	16.5
520.146	16.46
520.345	16.26
520.544	16.29
520.743	16.19
520.942	16.37
521.141	16.63
521.339	16.7
521.538	16.48
521.737	16.4
521.936	16.61
522.135	16.52
522.333	16.77
522.532	17.16
522.731	17
522.93	17.31
523.129	17.59
523.327	17.56
523.526	17.71
523.725	17.8
523.923	17.85
524.122	17.78
524.321	18
524.519	18.08
524.718	17.96
524.917	18.3
525.115	18.46
525.314	18.36
525.512	18.36
525.711	18.36
525.909	18.27
526.108	18.29
526.306	18.26
526.505	18.25
526.703	18.25
526.902	18.23
527.1	18.2
527.299	18.25
527.497	18.32
527.696	18.3
527.894	18.32
528.092	18.44
528.291	18.45
528.489	18.53
528.688	18.61
528.886	18.68
529.084	18.8
529.283	18.82
529.481	18.7
529.679	18.81
529.877	19.07
530.076	19.13
530.274	19.24
530.472	19.26
530.67	19.28
530.869	19.44
531.067	19.6
531.265	19.78
531.463	20.17
531.661	20.41
531.859	20.5
532.057	20.48
532.255	20.66
532.454	20.64
532.652	20.63
532.85	20.69
533.048	20.75
533.246	20.91
533.444	20.95
533.642	20.85
533.84	21.06
534.038	21.03
534.236	20.93
534.434	21.05
534.632	21.29
534.83	21.53
535.027	21.73
535.225	21.72
535.423	21.46
535.621	21.32
535.819	21.32
536.017	21.19
536.215	21.29
536.412	21.57
536.61	21.39
536.808	21.28
537.006	21.29
537.203	21.33
537.401	21.48
537.599	21.71
537.797	21.82
537.994	21.94
538.192	22.15
538.39	22
538.587	21.85
538.785	21.9
538.983	22
539.18	22.08
539.378	22.15
539.575	22.14
539.773	22.12
539.97	22.37
540.168	22.41
540.366	22.31
540.563	22.39
540.761	22.48
540.958	22.66
541.155	22.72
541.353	22.86
541.55	22.81
541.748	22.94
541.945	23.04
542.143	22.89
542.34	22.94
542.537	23.03
542.735	23.29
542.932	23.3
543.129	23.35
543.327	23.5
543.524	23.38
543.721	23.52
543.919	23.24
544.116	23.19
544.313	23.43
544.51	23.44
544.708	23.58
544.905	23.6
545.102	23.69
545.299	23.72
545.496	23.67
545.693	23.8
545.891	23.73
546.088	23.85
546.285	23.98
546.482	24.04
546.679	24.22
546.876	24.33
547.073	24.22
547.27	24.41
547.467	24.43
547.664	24.72
547.861	25.01
548.058	25.43
548.255	25.78
548.452	25.93
548.649	25.86
548.846	25.87
549.043	25.76
549.24	26.21
549.437	26.07
549.633	26.23
549.83	26.19
550.027	25.9
550.224	25.52
550.421	25.55
550.618	25.43
550.814	25.46
551.011	25.12
551.208	25.03
551.405	25.14
551.601	25.15
551.798	25.06
551.995	24.66
552.191	24.86
552.388	25.33
552.585	25.55
552.781	25.65
552.978	25.85
553.175	26.06
553.371	25.87
553.568	25.46
553.764	25.72
553.961	25.95
554.157	26.02
554.354	25.82
554.55	25.87
554.747	25.83
554.943	26.06
555.14	26.02
555.336	25.88
555.533	26.11
555.729	26.33
555.926	25.99
556.122	25.95
556.318	26.4
556.515	26.94
556.711	26.95
556.907	26.75
557.104	26.9
557.3	26.87
557.496	27.04
557.693	27.37
557.889	27.26
558.085	27.51
558.281	27.88
558.478	27.99
558.674	28.03
558.87	27.67
559.066	27.76
559.262	27.57
559.459	27.39
559.655	27.42
559.851	27.39
560.047	27.71
560.243	27.66
560.439	27.17
560.635	27.27
560.831	27.19
561.027	27.6
561.223	27.58
561.419	27.44
561.615	27.98
561.811	28.02
562.007	28.09
562.203	28.13
562.399	28.39
562.595	28.68
562.791	28.82
562.987	28.85
563.183	28.59
563.379	28.74
563.575	29.12
563.771	29.23
563.966	29.04
564.162	29.3
564.358	29.57
564.554	29.1
564.75	29.16
564.945	28.93
565.141	29.25
565.337	29.46
565.533	29.67
565.728	29.71
565.924	29.68
566.12	30.11
566.315	29.99
566.511	29.49
566.707	30.31
566.902	30.69
567.098	31.05
567.293	30.97
567.489	31.19
567.684	31.22
567.88	31.28
568.076	31.18
568.271	31.43
568.467	31.39
568.662	31.81
568.858	31.86
569.053	31.07
569.248	30.88
569.444	30.69
569.639	30.65
569.835	30.69
570.03	30.65
570.225	30.87
570.421	30.68
570.616	30.89
570.812	31.1
571.007	31.06
571.202	31.72
571.397	31.8
571.593	31.88
571.788	31.88
571.983	32.13
572.178	32.2
572.374	31.82
572.569	31.91
572.764	32.07
572.959	32.08
573.154	32.08
573.35	32.07
573.545	32.25
573.74	32.21
573.935	32.22
574.13	32.16
574.325	32.08
574.52	32.44
574.715	32.76
574.91	32.74
575.105	32.92
575.3	33.3
575.495	33.36
575.69	33.45
575.885	33.93
576.08	34.22
576.275	34.41
576.47	34.98
576.665	35.06
576.86	34.63
577.055	34.93
577.25	34.77
577.444	35.11
577.639	34.91
577.834	35.24
578.029	35.19
578.224	35.05
578.418	34.69
578.613	34.58
578.808	34.65
579.003	35.05
579.197	34.85
579.392	34.72
579.587	34.48
579.781	34.7
579.976	34.55
580.171	34.71
580.365	34.66
580.56	34.51
580.755	34.3
580.949	34.44
581.144	34.65
581.338	34.43
581.533	34.42
581.727	34.24
581.922	34.28
582.116	34.7
582.311	34.74
582.505	34.93
582.7	35.03
582.894	35.21
583.089	35.12
583.283	34.54
583.478	35.23
583.672	35.37
583.866	35.17
584.061	34.81
584.255	34.59
584.449	34.55
584.644	34.59
584.838	35.22
585.032	35.19
585.226	35.55
585.421	35.98
585.615	36.23
585.809	36.21
586.003	36.18
586.198	37.14
586.392	36.93
586.586	37.06
586.78	37.11
586.974	36.68
587.168	36.8
587.363	36.97
587.557	36.91
587.751	36.38
587.945	36.75
588.139	36.53
588.333	36.25
588.527	36.14
588.721	36.14
588.915	36.2
589.109	36.62
589.303	36.44
589.497	36.39
589.691	36.58
589.885	36.56
590.079	36.48
590.273	37.23
590.466	36.99
590.66	37.62
590.854	37.13
591.048	36.93
591.242	36.87
591.436	36.8
591.629	36.25
591.823	35.76
592.017	35.62
592.211	35.84
592.404	36.12
592.598	36.41
592.792	36.24
592.986	36.77
593.179	36.76
593.373	36.83
593.567	36.79
593.76	37.41
593.954	37.9
594.147	38.3
594.341	38.13
594.535	38.3
594.728	38.12
594.922	37.72
595.115	37.4
595.309	37.55
595.502	37.64
595.696	37.95
595.889	37.65
596.083	37.65
596.276	37.62
596.47	37.79
596.663	37.09
596.856	37.07
597.05	37.35
597.243	37.68
597.437	38.12
597.63	38.53
597.823	38.37
598.017	38.72
598.21	38.48
598.403	38.39
598.596	37.92
598.79	38.27
598.983	38.8
599.176	38.25
599.369	38.1
599.563	37.72
599.756	37.48
599.949	38.08
600.142	37.96
600.335	38.42
600.528	38.49
600.722	38.85
600.915	38.44
601.108	38.5
601.301	39.21
601.494	39.5
601.687	39.61
601.88	39.43
602.073	39.12
602.266	39.76
602.459	40.07
602.652	40.04
602.845	40.01
603.038	40.41
603.231	39.92
603.424	40.31
603.617	40.13
603.809	39.92
604.002	39.65
604.195	39.89
604.388	39.66
604.581	39.57
604.774	39.85
604.966	39.89
605.159	39.54
605.352	39.68
605.545	39.23
605.737	39.69
605.93	40.42
606.123	40.67
606.316	40.51
606.508	39.99
606.701	39.05
606.894	38.86
607.086	38.68
607.279	38.76
607.471	39.36
607.664	39.13
607.857	39.28
608.049	39.13
608.242	39.36
608.434	39.73
608.627	40.41
608.819	40.97
609.012	40.89
609.204	41.14
609.397	41.54
609.589	41.36
609.782	41.39
609.974	40.77
610.166	40.63
610.359	40.02
610.551	39.58
610.743	39.11
610.936	39.51
611.128	39.99
611.32	39.82
611.513	39.79
611.705	39.71
611.897	40.05
612.09	40.71
612.282	41.05
612.474	41.93
612.666	42.85
612.858	42.95
613.051	42.63
613.243	41.77
613.435	42.28
613.627	41.83
613.819	41.82
614.011	41.31
614.203	41.19
614.395	41.39
614.588	41.46
614.78	41.19
614.972	42.26
615.164	42.37
615.356	43.18
615.548	43.06
615.74	43.34
615.932	42.89
616.124	43.53
616.315	43.55
616.507	43.5
616.699	43.25
616.891	43.1
617.083	42.55
617.275	42.94
617.467	42.55
617.659	42.88
617.85	42.64
618.042	43.95
618.234	43.21
618.426	42.82
618.618	42.02
618.809	42.07
619.001	42.2
619.193	42.05
619.384	41.66
619.576	41.79
619.768	41.93
619.959	42.39
620.151	41.83
620.343	42.85
620.534	43.17
620.726	43.57
620.917	44.03
621.109	43.87
621.301	43.82
621.492	43.63
621.684	44.02
621.875	44.11
622.067	43.84
622.258	44.49
622.45	44.55
622.641	44.65
622.832	45.4
623.024	44.7
623.215	45.45
623.407	45
623.598	45.11
623.789	45.4
623.981	45.03
624.172	45.55
624.363	44.84
624.555	44.33
624.746	44.25
624.937	43.92
625.129	44.03
625.32	43.52
625.511	43.9
625.702	44.35
625.893	44.01
626.085	43.63
626.276	43.46
626.467	43.29
626.658	43.61
626.849	43.74
627.04	43.61
627.231	43.9
627.422	43.99
627.614	44.5
627.805	44.11
627.996	43.95
628.187	44.4
628.378	44.65
628.569	44.39
628.76	44.24
628.951	44.06
629.142	44.24
629.332	44.1
629.523	43.96
629.714	43.1
629.905	43.28
630.096	43.4
630.287	43.47
630.478	42.91
630.669	43.44
630.859	43.3
631.05	43.35
631.241	42.43
631.432	42.49
631.623	43.08
631.813	42.97
632.004	42.95
632.195	42.75
632.385	42.76
632.576	42.97
632.767	42.78
632.957	43.5
633.148	43.79
633.339	44.75
633.529	45.29
633.72	44.29
633.91	44.48
634.101	44.58
634.292	45.16
634.482	45.19
634.673	45.65
634.863	45.43
635.054	44.52
635.244	44.75
635.435	45.01
635.625	44.75
635.815	45.59
636.006	45.41
636.196	46.1
636.387	46.48
636.577	46.68
636.767	46.49
636.958	46.99
637.148	48.09
637.338	48.27
637.529	47.8
637.719	47.62
637.909	47.39
638.099	48.17
638.29	47.71
638.48	47.66
638.67	47.57
638.86	47.84
639.05	48.38
639.241	48.41
639.431	47.87
639.621	48.71
639.811	48.68
640.001	48.54
640.191	48.58
640.381	48.57
640.571	48.53
640.761	49.18
640.951	48.93
641.141	49.05
641.331	48.29
641.521	47.98
641.711	47.51
641.901	47.63
642.091	47.92
642.281	47.15
642.471	47.47
642.661	46.88
642.851	45.84
643.041	45.19
643.231	44.89
643.42	44.83
643.61	45.24
643.8	45.12
643.99	45.57
644.18	45.04
644.369	46.71
644.559	45.77
644.749	46.07
644.939	46.55
645.128	47.62
645.318	48.45
645.508	49.04
645.697	49.17
645.887	49.91
646.076	49.9
646.266	50.75
646.456	49.91
646.645	51.05
646.835	51.48
647.024	50.86
647.214	50.87
647.403	50.06
647.593	49.17
647.782	50.01
647.972	48.99
648.161	49.09
648.351	48.99
648.54	48.68
648.73	48.7
648.919	48.86
649.108	48.97
649.298	49.06
649.487	49.62
649.677	50.58
649.866	49.82
650.055	49.5
650.244	49.67
650.434	49.71
650.623	49.52
650.812	49.25
651.002	48.77
651.191	49.86
651.38	49.54
651.569	48.68
651.758	48.78
651.947	48.74
652.137	49.6
652.326	49.02
652.515	48.69
652.704	48.89
652.893	48.34
653.082	47.87
653.271	47.24
653.46	45.98
653.649	46.64
653.838	46.41
654.027	46.68
654.216	46.81
654.405	46.88
654.594	47.18
654.783	47.22
654.972	48.68
655.161	48.43
655.35	48.82
655.539	49.88
655.728	49.18
655.916	48.79
656.105	48.57
656.294	48.06
656.483	48.06
656.672	47.73
656.86	47.54
657.049	46.96
657.238	47.78
657.427	47.35
657.615	47.6
657.804	48.52
657.993	48.87
658.181	49.09
658.37	49.1
658.559	48.99
658.747	49.31
658.936	49.75
659.125	48.69
659.313	48.02
659.502	47.86
659.69	47.49
659.879	47.12
660.067	47.02
660.256	47.12
660.444	47.49
660.633	47.15
660.821	47.11
661.01	46.74
661.198	47.77
661.387	48.43
661.575	48.84
661.763	49.45
661.952	50.26
662.14	50.39
662.328	49.8
662.517	50.75
662.705	51.24
662.893	52.5
663.082	52.71
663.27	53.04
663.458	53.04
663.646	53.25
663.834	52.69
664.023	51.8
664.211	50.83
664.399	51.49
664.587	50.65
664.775	50.43
664.963	49.25
665.152	49.5
665.34	49.25
665.528	49.17
665.716	50.38
665.904	51.83
666.092	51.34
666.28	52.52
666.468	52
666.656	51.51
666.844	52.28
667.032	51
667.22	51.38
667.408	51.4
667.596	51.33
667.784	50.87
667.971	49.78
668.159	50.03
668.347	50.31
668.535	50.41
668.723	50.8
668.911	50.61
669.098	51.18
669.286	50.25
669.474	50.71
669.662	50.39
669.849	49.26
670.037	49.65
670.225	50.08
670.413	49.66
670.6	50
670.788	49.97
670.976	50.2
671.163	50.5
671.351	50.69
671.538	50.16
671.726	50.94
671.913	51.09
672.101	50.87
672.289	50.76
672.476	50.7
672.664	50.5
672.851	49.78
673.039	49.75
673.226	49.86
673.413	50.42
673.601	49.83
673.788	49.91
673.976	49.49
674.163	49.91
674.35	49.24
674.538	49.16
674.725	48.57
674.912	49.25
675.1	49.03
675.287	48.91
675.474	47.84
675.662	48.68
675.849	48.78
676.036	49.5
676.223	48.73
676.411	49.7
676.598	49.42
676.785	50.87
676.972	51.22
677.159	51.23
677.346	50.81
677.533	52.03
677.721	51.56
677.908	50.93
678.095	50.27
678.282	50.1
678.469	48.7
678.656	49.25
678.843	47.94
679.03	48.08
679.217	48.2
679.404	47.81
679.591	47.87
679.778	48.68
679.964	49.25
680.151	49.93
680.338	50.41
680.525	51.14
680.712	50.91
680.899	52.04
681.086	51.62
681.272	51.59
681.459	53.26
681.646	52.06
681.833	51.77
682.02	51.59
682.206	52.51
682.393	52.11
682.58	52.67
682.766	55.22
682.953	54.5
683.14	55.44
683.326	55.44
683.513	55.24
683.7	57.65
683.886	58.04
684.073	59.21
684.259	58.22
684.446	58.81
684.632	57.84
684.819	55.11
685.005	55.99
685.192	54.56
685.378	54.99
685.565	54.88
685.751	53.05
685.938	51.85
686.124	50.2
686.31	50.07
686.497	50.51
686.683	51.43
686.87	51.64
687.056	50.91
687.242	51.1
687.429	51.09
687.615	50.44
687.801	50.79
687.987	51.69
688.174	52.22
688.36	52.63
688.546	52.63
688.732	51.9
688.918	51.47
689.105	52.48
689.291	53.04
689.477	52.54
689.663	53.23
689.849	53.06
690.035	53.14
690.221	53.18
690.407	53.94
690.593	53.07
690.779	53.72
690.965	54.64
691.151	53.87
691.337	53.8
691.523	54.29
691.709	54.75
691.895	55.39
692.081	54.84
692.267	55.1
692.453	53.96
692.639	55.05
692.825	54.88
693.011	53.15
693.196	53.6
693.382	53.73
693.568	54.62
693.754	55.2
693.94	55.51
694.125	56.02
694.311	54.95
694.497	55.38
694.682	55.11
694.868	55.78
695.054	56.49
695.239	57.47
695.425	57.45
695.611	56.3
695.796	55.17
695.982	54
696.168	53.73
696.353	54.82
696.539	54.28
696.724	53.47
696.91	52.43
697.095	52.69
697.281	51.62
697.466	50.88
697.652	50.87
697.837	50.39
698.023	51.62
698.208	51.47
698.393	50.94
698.579	52.23
698.764	52.18
698.949	53
699.135	53.36
699.32	54.02
699.505	54.79
699.691	55.56
699.876	56.54
700.061	56.78
700.246	57.4
700.432	58.8
700.617	58.59
700.802	58.47
700.987	58.38
701.172	57.93
701.358	57.31
701.543	58.27
701.728	58.29
701.913	58.59
702.098	57.41
702.283	57.86
702.468	56.95
702.653	55.77
702.838	57.8
703.023	56.88
703.208	57.73
703.393	58.74
703.578	58.45
703.763	57.74
703.948	57.91
704.133	57.5
704.318	58.24
704.503	58.17
704.688	58.9
704.873	57.72
705.057	59.97
705.242	59.03
705.427	58.54
705.612	56.73
705.797	57.39
705.981	57.61
706.166	59.27
706.351	58.11
706.536	58.58
706.72	58.8
706.905	58.92
707.09	58.46
707.274	59.45
707.459	59.27
707.644	61.31
707.828	60.55
708.013	60.29
708.197	59.1
708.382	58.78
708.567	58.33
708.751	58.83
708.936	60.24
709.12	60.45
709.305	59.65
709.489	58.13
709.673	56.7
709.858	56.07
710.042	55.1
710.227	55.02
710.411	56.1
710.596	55.76
710.78	54.56
710.964	53.34
711.149	51.91
711.333	51.76
711.517	52.38
711.702	53.55
711.886	54
712.07	54.18
712.254	54.9
712.438	54.13
712.623	53.15
712.807	53.96
712.991	54.25
713.175	54.82
713.359	55.88
713.544	56.88
713.728	57.89
713.912	59.31
714.096	59.83
714.28	59.07
714.464	58.86
714.648	59.34
714.832	59.81
715.016	60.69
715.2	60.79
715.384	60.84
715.568	60.58
715.752	59.09
715.936	57.58
716.12	56.87
716.304	57.79
716.488	57.83
716.671	60.32
716.855	59.81
717.039	58.93
717.223	60.09
717.407	59.93
717.59	58.91
717.774	60.51
717.958	62.2
718.142	64.21
718.325	63.49
718.509	64.36
718.693	63.83
718.877	63.75
719.06	64.56
719.244	63.41
719.428	64.17
719.611	65.42
719.795	63.74
719.978	64.57
720.162	63.52
720.345	64.6
720.529	65.37
720.713	64.96
720.896	65.17
721.08	66.09
721.263	66.42
721.446	66.76
721.63	66.87
721.813	67.9
721.997	66.54
722.18	67.09
722.364	68.45
722.547	66.74
722.73	66.38
722.914	65.66
723.097	64.24
723.28	64.94
723.464	64.37
723.647	64.3
723.83	64.38
724.013	66.34
724.197	65.51
724.38	64.82
724.563	65.51
724.746	66.11
724.929	66.73
725.112	69.11
725.296	66.62
725.479	65.01
725.662	66.83
725.845	65.53
726.028	62.32
726.211	61.96
726.394	61.36
726.577	60.25
726.76	58.47
726.943	57.88
727.126	55.03
727.309	55.41
727.492	55.97
727.675	54.69
727.858	54.44
728.041	54.62
728.224	54.55
728.407	52.63
728.589	53.59
728.772	53.79
728.955	54.82
729.138	55.43
729.321	56.92
729.503	57.12
729.686	55.67
729.869	55.55
730.052	55.38
730.234	56.19
730.417	56.83
730.6	57.51
730.782	56.96
730.965	56.42
731.148	56.15
731.33	56.61
731.513	56.59
731.695	59.38
731.878	59.83
732.061	61.36
732.243	61.09
732.426	61.02
732.608	60.23
732.791	61.4
732.973	61.81
733.156	63.36
733.338	62.99
733.52	63.34
733.703	61.48
733.885	63.52
734.068	63.14
734.25	64.23
734.432	67.48
734.615	68.98
734.797	68.34
734.979	68.69
735.162	67.71
735.344	67.51
735.526	68.81
735.708	70.62
735.891	69.39
736.073	69.29
736.255	68.31
736.437	65.57
736.619	64.42
736.802	66.06
736.984	65.71
737.166	64.09
737.348	63.94
737.53	63.14
737.712	59.5
737.894	58.4
738.076	58.21
738.258	57.44
738.44	58.84
738.622	58.45
738.804	58.88
738.986	58.07
739.168	59.22
739.35	61.53
739.532	60.86
739.714	63.24
739.896	66.75
740.078	67.14
740.259	68.16
740.441	66.59
740.623	67.87
740.805	66.35
740.987	66.41
741.168	67.49
741.35	66.65
741.532	66.62
741.714	67.16
741.895	62.86
742.077	62.52
742.259	62.63
742.44	63.99
742.622	65.55
742.804	65.84
742.985	67.72
743.167	69.24
743.348	65.78
743.53	68.42
743.711	67.52
743.893	68.72
744.075	71.26
744.256	70.37
744.438	70.74
744.619	68.27
744.8	68.98
744.982	68.25
745.163	68.78
745.345	70.56
745.526	67.55
745.707	67.75
745.889	68.74
746.07	68.51
746.252	70.28
746.433	68.98
746.614	69.96
746.795	71.17
746.977	73.66
747.158	69.64
747.339	69.68
747.52	70.66
747.702	73.21
747.883	71.66
748.064	73.06
748.245	70.86
748.426	71.34
748.607	70.71
748.788	67.91
748.97	65.88
749.151	66.32
749.332	68.27
749.513	67.96
749.694	69.57
749.875	74.01
750.056	70.42
750.237	73.94
750.418	73.23
750.599	74.23
750.78	74.02
750.96	73.2
751.141	75.05
751.322	73.09
751.503	73.91
751.684	71
751.865	66.76
752.046	67.58
752.226	63.42
752.407	61.56
752.588	62.17
752.769	63.63
752.949	65.14
753.13	63.64
753.311	61.93
753.492	63.27
753.672	61.59
753.853	65.25
754.034	64.78
754.214	64.91
754.395	66.95
754.575	64.01
754.756	63.06
754.937	60.89
755.117	63.13
755.298	65.85
755.478	64.3
755.659	64.71
755.839	61.91
756.02	62.95
756.2	64.5
756.381	63.22
756.561	64.76
756.741	66.19
756.922	67.08
757.102	66.78
757.283	66.23
757.463	66.9
757.643	67.03
757.823	67.71
758.004	65.59
758.184	64.65
758.364	65.94
758.545	65.13
758.725	65.49
758.905	65.31
759.085	64.87
759.265	65.25
759.446	66.41
759.626	66.44
759.806	67.9
759.986	68.52
760.166	69.99
760.346	69.57
760.526	68.78
760.706	68.76
760.886	67.94
761.066	67.67
761.246	66.49
761.426	62.8
761.606	61.83
761.786	59.24
761.966	60.18
762.146	59.15
762.326	58.9
762.506	58.72
762.686	56.47
762.866	56.82
763.046	55.03
763.225	54.99
763.405	56.11
763.585	55.35
763.765	57.37
763.945	57.73
764.124	58.62
764.304	59.47
764.484	61.84
764.664	63.57
764.843	64.16
765.023	66.77
765.203	65.16
765.382	66.58
765.562	69.47
765.741	69.04
765.921	67.5
766.101	66.68
766.28	65.87
766.46	64.46
766.639	63.53
766.819	65.34
766.998	65.09
767.178	67.61
767.357	65.45
767.537	66.44
767.716	65.74
767.896	65.99
768.075	67.67
768.254	69.21
768.434	69.13
768.613	71.88
768.792	69.45
768.972	69.75
769.151	71.14
769.33	71.79
769.51	68.75
769.689	67.52
769.868	68.51
770.047	67.65
770.226	67.84
770.406	69.48
770.585	68.65
770.764	68.05
770.943	68.52
771.122	71.03
771.301	72.89
771.48	74.05
771.66	76.78
771.839	79.44
772.018	82.85
772.197	85.16
772.376	84.69
772.555	86.04
772.734	88.23
772.913	89.82
773.092	85.6
773.271	82.12
773.449	84.37
773.628	83.27
773.807	82.37
773.986	78.31
774.165	74.46
774.344	71.44
774.523	66.44
774.701	67.14
774.88	68.69
775.059	68.19
775.238	72
775.417	73.33
775.595	73.55
775.774	72.3
775.953	71.91
776.131	73.35
776.31	75.02
776.489	76.18
776.667	74.83
776.846	75.08
777.025	76.96
777.203	79.48
777.382	76.88
777.56	77.7
777.739	74.54
777.917	72.94
778.096	74.09
778.274	77.42
778.453	80.55
778.631	81.97
778.81	81.26
778.988	83.28
779.166	84.42
779.345	84.65
779.523	84.3
779.702	87.78
779.88	91.47
780.058	86.47
780.237	81.98
780.415	82.27
780.593	77.8
780.771	75.3
780.95	69.8
781.128	68.5
781.306	71.48
781.484	71.48
781.662	71.8
781.841	68.76
782.019	73.63
782.197	78
782.375	74.93
782.553	76.04
782.731	78.15
782.909	81.83
783.087	76.71
783.265	77.64
783.443	79.79
783.621	82.42
783.799	90.15
783.977	87.5
784.155	85.05
784.333	88.02
784.511	92.3
784.689	90.17
784.867	86.92
785.045	90.34
785.223	83.63
785.4	82.89
785.578	83.77
785.756	78.96
785.934	76.8
786.112	76.5
786.289	76.75
786.467	72.25
786.645	73.59
786.823	73.95
787	71.97
787.178	72.02
787.356	69.28
787.533	65.16
787.711	66.25
787.889	69.41
788.066	68.43
788.244	67.49
788.421	69.59
788.599	72.28
788.776	71.05
788.954	72.94
789.131	75.07
789.309	77.72
789.486	78.92
789.664	80.09
789.841	81.71
790.019	82.92
790.196	87.71
790.373	89.19
790.551	84.31
790.728	88.18
790.906	87.12
791.083	89.86
791.26	88.44
791.437	89.64
791.615	91.87
791.792	86.71
791.969	84.45
792.146	81.39
792.324	78.49
792.501	80.94
792.678	80.85
792.855	81.99
793.032	80.73
793.209	80.85
793.387	82.18
793.564	81.06
793.741	83.83
793.918	85.12
794.095	84.47
794.272	87.26
794.449	86.02
794.626	83.16
794.803	85.61
794.98	86.79
795.157	86.97
795.334	83.22
795.511	83.97
795.688	81.44
795.864	82
796.041	83.02
796.218	83.6
796.395	85.74
796.572	85.91
796.749	85.77
796.925	80.34
797.102	79.54
797.279	81.29
797.456	79.81
797.632	81.22
797.809	80.26
797.986	75.53
798.162	73.45
798.339	73.31
798.516	74.96
798.692	69.11
798.869	71.14
799.046	69.76
799.222	71.33
799.399	69.46
799.575	68.34
799.752	69.22
799.928	70.68
800.105	74.07
800.281	69.8
800.458	69.39
800.634	69.26
800.811	68.14
800.987	70.65
801.163	68.7
801.34	73.2
801.516	72.45
801.692	75.65
801.869	78.8
802.045	76.95
802.221	77.83
802.398	81.34
802.574	87.69
802.75	89.52
802.926	90.84
803.103	90.32
803.279	91.76
803.455	93.49
803.631	92.67
803.807	91.23
803.983	89.27
804.16	90.27
804.336	85.95
804.512	86.67
804.688	85.18
804.864	84.42
805.04	82.3
805.216	78.21
805.392	81.53
805.568	81.63
805.744	82.85
805.92	83.63
806.096	89.58
806.272	93.41
806.448	85.8
806.623	86.67
806.799	88.72
806.975	94.2
807.151	91.04
807.327	81.9
807.503	78.46
807.678	74.3
807.854	74.36
808.03	71.21
808.206	70.11
808.381	77.22
808.557	78.17
808.733	76.17
808.908	79.53
809.084	80.99
809.26	85.37
809.435	87.47
809.611	93.26
809.787	93.91
809.962	91.49
810.138	91.49
810.313	85.97
810.489	89.16
810.664	88.09
810.84	87.8
811.015	86.56
811.191	89.32
811.366	91.8
811.542	92.34
811.717	90.45
811.892	95.62
812.068	94.23
812.243	100.49
812.419	93.95
812.594	90.48
812.769	88.43
812.944	96.66
813.12	99.71
813.295	93.42
813.47	89.52
813.645	92.5
813.821	87.12
813.996	80.5
814.171	75.64
814.346	75.63
814.521	80.93
814.697	79
814.872	74.75
815.047	72.16
815.222	72.01
815.397	73.18
815.572	67.45
815.747	69.47
815.922	75.69
816.097	77.73
816.272	77.42
816.447	78.41
816.622	78.51
816.797	79.78
816.972	76.95
817.147	72.68
817.322	73.94
817.496	75.06
817.671	76.5
817.846	79.09
818.021	72.68
818.196	74.47
818.371	71.05
818.545	65.87
818.72	65.07
818.895	67.37
819.069	69.56
819.244	68.56
819.419	64.95
819.594	61.44
819.768	55.29
819.943	54.2
820.117	50.71
820.292	49.59
820.467	49.35
820.641	46.19
820.816	44.53
820.99	43.62
821.165	41.4
821.339	40.87
821.514	40.13
821.688	40.08
821.863	40.25
822.037	40.37
822.212	39.51
822.386	39.21
822.56	39.15
822.735	38.8
822.909	38.55
823.084	38.82
823.258	39.07
823.432	39.14
823.606	39.19
823.781	39.26
823.955	38.44
824.129	38.46
824.303	38.49
824.478	38.92
824.652	38.85
824.826	39.59
825	40.01
825.174	39.97
825.348	41.75
825.523	41.35
825.697	40.6
825.871	40.82
826.045	41.68
826.219	42.16
826.393	41.34
826.567	42.6
826.741	43.69
826.915	42.64
827.089	44.54
827.263	42.52
827.437	43.24
827.611	43.89
827.784	46.76
827.958	47.94
828.132	48.37
828.306	51.3
828.48	51.9
828.654	50.42
828.827	52.09
829.001	53.65
829.175	56.88
829.349	57.86
829.522	57.16
829.696	57.07
829.87	59.33
830.044	60.02
830.217	57.93
830.391	59.44
830.565	64.92
830.738	64.15
830.912	62.42
831.085	60.68
831.259	60.07
831.432	65.25
831.606	61.16
831.779	56.59
831.953	54.9
832.126	57.17
832.3	56.42
832.473	54.12
832.647	53.57
832.82	52.97
832.994	51.61
833.167	53.08
833.34	49.98
833.514	48.5
833.687	48.22
833.86	50.25
834.034	48.63
834.207	45.58
834.38	43.96
834.553	44.1
834.727	44.2
834.9	43.18
835.073	42.87
835.246	45.41
835.419	47.88
835.593	49.97
835.766	47.52
835.939	51.82
836.112	56.73
836.285	56.4
836.458	55.49
836.631	61.42
836.804	69.74
836.977	73.09
837.15	77.28
837.323	84.25
837.496	80.42
837.669	80.98
837.842	75.27
838.015	81.77
838.188	85.14
838.361	84.89
838.533	81.94
838.706	79.41
838.879	77.2
839.052	76.24
839.225	75.17
839.398	77.39
839.57	79.08
839.743	84.05
839.916	78.63
840.088	81.43
840.261	91.21
840.434	87.58
840.607	88.97
840.779	88.46
840.952	86.22
841.124	86.29
841.297	87.6
841.47	90.88
841.642	90.95
841.815	81.97
841.987	90.11
842.16	80.69
842.332	83.3
842.505	82.7
842.677	84.18
842.85	92.64
843.022	101.53
843.194	94.5
843.367	95.24
843.539	89.96
843.712	103.2
843.884	99.36
844.056	103.36
844.229	106.04
844.401	115.17
844.573	124.88
844.745	110.94
844.918	121.3
845.09	132.63
845.262	149.77
845.434	168.66
845.606	161.15
845.779	165.73
845.951	153.82
846.123	147.7
846.295	157.02
846.467	167.76
846.639	173.21
846.811	164.43
846.983	179.86
847.155	173.36
847.327	155.22
847.499	157.16
847.671	166.25
847.843	169.56
848.015	159.06
848.187	142.93
848.359	144.31
848.531	159.07
848.703	145.22
848.875	163.17
849.047	154.21
849.218	146.26
849.39	150.84
849.562	156.56
849.734	183.33
849.905	190.46
850.077	209.32
850.249	179
850.421	141.57
850.592	137.85
850.764	124.44
850.936	107.15
851.107	107.74
851.279	105.11
851.451	94.73
851.622	96.29
851.794	97.63
851.965	102.59
852.137	111.3
852.308	119.22
852.48	120.19
852.651	116.82
852.823	128.86
852.994	130.32
853.166	137.84
853.337	149.1
853.509	142.2
853.68	136.85
853.851	128
854.023	121.08
854.194	113.73
854.365	120.8
854.537	110.92
854.708	114.18
854.879	100.84
855.05	102.91
855.222	93.65
855.393	96.95
855.564	98.21
855.735	105.21
855.906	110.86
856.078	112.38
856.249	111.94
856.42	119.34
856.591	124.55
856.762	138.91
856.933	131.03
857.104	124.09
857.275	113.84
857.446	104.9
857.617	92.94
857.788	81.56
857.959	78.35
858.13	78.49
858.301	62.16
858.472	51.62
858.643	36.64
858.814	33.7
858.985	40.97
859.155	58.21
859.326	82.99
859.497	98.1
859.668	137.35
859.839	154.14
860.009	107.48
860.18	145.44
860.351	152.6
860.522	166.31
860.692	150.99
860.863	123.7
861.034	101.78
861.204	96.79
861.375	97.05
861.546	100.75
861.716	97.41
861.887	103.73
862.057	106.7
862.228	109.85
862.398	98.71
862.569	109.07
862.739	131.96
862.91	136.66
863.08	134.26
863.251	140.68
863.421	130.95
863.592	152.14
863.762	148.7
863.932	135.47
864.103	141.53
864.273	142.09
864.443	131.35
864.614	123.02
864.784	119.16
864.954	119.76
865.125	111.9
865.295	110.38
865.465	123.56
865.635	110.36
865.805	104.26
865.976	100.29
866.146	99.63
866.316	106.22
866.486	125.14
866.656	108.61
866.826	141.73
866.996	155.95
867.166	210.37
867.336	145.11
867.506	113.54
867.676	96.69
867.846	89.08
868.016	102.04
868.186	101.39
868.356	91.93
868.526	98.44
868.696	92.61
868.866	77.6
869.036	82.86
869.206	81.53
869.376	90.53
869.545	96.19
869.715	110.95
869.885	106.38
870.055	90.5
870.224	86.18
870.394	89.99
870.564	107.67
870.734	123.61
870.903	117.37
871.073	128.3
871.243	130.36
871.412	141.04
871.582	116.08
871.751	112.05
871.921	137.01
872.091	178.37
872.26	144.21
872.43	107.53
872.599	109.8
872.769	98.26
872.938	97.72
873.108	81.79
873.277	81.18
873.446	92.03
873.616	108.52
873.785	99.83
873.955	82.11
874.124	72.38
874.293	74.06
874.463	60.12
874.632	62.32
874.801	61.32
874.971	70.84
875.14	75.22
875.309	60.26
875.478	35.01
875.647	43.14
875.817	51.62
875.986	55.72
876.155	63.31
876.324	66.99
876.493	68.98
876.662	70.06
876.831	71.08
877	68.6
877.17	71.16
877.339	79.59
877.508	80.13
877.677	77.28
877.846	84.86
878.015	84.06
878.184	74.37
878.352	69.25
878.521	75.14
878.69	73.05
878.859	60.33
879.028	55.76
879.197	52.68
879.366	52.33
879.534	48.9
879.703	38.83
879.872	40.66
880.041	38.52
880.21	36.83
880.378	31.39
880.547	31.67
880.716	32.73
880.884	34.97
881.053	34.43
881.222	34.97
881.39	35.2
881.559	35.48
881.727	33.44
881.896	33.49
882.065	34.42
882.233	34.91
882.402	33.34
882.57	35.5
882.739	33.45
882.907	33.7
883.076	34.4
883.244	33.5
883.412	33.26
883.581	33.68
883.749	33.19
883.918	34.55
884.086	35.74
884.254	36.69
884.423	38.46
884.591	41.15
884.759	42.76
884.927	43.5
885.096	46.59
885.264	48.74
885.432	50.32
885.6	53.08
885.769	51.47
885.937	55.98
886.105	65.96
886.273	60
886.441	61.84
886.609	64.57
886.777	60.04
886.945	60.1
887.113	65.92
887.281	66.21
887.449	70.16
887.617	72.43
887.785	70.55
887.953	67.65
888.121	73.48
888.289	77.42
888.457	66.74
888.625	68.25
888.793	64.78
888.961	62.68
889.129	66.83
889.296	71.59
889.464	69.13
889.632	65.85
889.8	60.57
889.967	54.55
890.135	39.73
