Data from JASIL_3900_Reflection_3.txt Node
Date: Sat Nov 07 20:07:41 EST 2015
User: Geneva
Spectrometer: USB4E03002
Autoset integration time: false
Trigger mode: 4
Integration Time (sec): 1.000000E-1
Scans to average: 10
Electric dark correction enabled: true
Nonlinearity correction enabled: false
Boxcar width: 5
Stray light correction enabled: false
XAxis mode: Wavelengths
Stop averaging: false
Number of Pixels in Spectrum: 3648
>>>>>Begin Spectral Data<<<<<
177.575	108.4
177.794	111.7
178.014	95.09
178.233	110.46
178.452	9.63
178.672	-46.91
178.891	257.73
179.11	401.71
179.33	231.86
179.549	169.08
179.768	107.93
179.987	117.84
180.207	117.37
180.426	115.16
180.645	149.04
180.864	126.6
181.084	135.87
181.303	230.4
181.522	189.92
181.741	174.24
181.96	141.49
182.179	144.39
182.398	160.4
182.618	172.1
182.837	188.22
183.056	294.13
183.275	348.99
183.494	261.39
183.713	181.26
183.932	216.53
184.151	234.05
184.37	263.56
184.589	188.02
184.808	137.55
185.027	144.35
185.246	142.24
185.465	88.44
185.684	79.73
185.903	79.38
186.122	86.31
186.341	98.15
186.56	113.62
186.779	107.86
186.998	101.47
187.216	135.32
187.435	122.92
187.654	111.45
187.873	167.79
188.092	143.69
188.311	142.33
188.53	138.79
188.748	116.53
188.967	96.19
189.186	104.6
189.405	114.75
189.623	113.91
189.842	113.42
190.061	128.11
190.28	141.9
190.498	146.71
190.717	140.06
190.936	137.67
191.154	152.89
191.373	132.65
191.592	128.87
191.81	138.23
192.029	138.06
192.248	153.3
192.466	113.55
192.685	98.15
192.904	105.96
193.122	119.37
193.341	118.18
193.559	113.63
193.778	128.63
193.996	124.86
194.215	128.02
194.433	127.67
194.652	126.47
194.87	144.7
195.089	153.06
195.307	136.91
195.526	113.17
195.744	131.89
195.963	116.71
196.181	114.9
196.399	143.37
196.618	136.74
196.836	137.86
197.055	128.36
197.273	126.18
197.491	121.23
197.71	119.69
197.928	131.61
198.146	121.36
198.365	135.91
198.583	142.97
198.801	113.7
199.019	101.72
199.238	117.74
199.456	116.94
199.674	140.84
199.892	185.84
200.111	181.33
200.329	184.11
200.547	168.1
200.765	185.44
200.983	147.75
201.202	139.32
201.42	156.92
201.638	116.58
201.856	134.79
202.074	140.8
202.292	120.34
202.51	137.63
202.728	123.3
202.946	134.41
203.165	109.99
203.383	111.32
203.601	122.46
203.819	118.84
204.037	140.14
204.255	146.03
204.473	130.19
204.691	152.73
204.909	145.73
205.127	155.58
205.345	140.94
205.562	133.28
205.78	140.24
205.998	121.59
206.216	117.1
206.434	108.22
206.652	91.51
206.87	87.62
207.088	87.28
207.306	89.66
207.523	86.13
207.741	98.42
207.959	102.12
208.177	130.24
208.395	128.24
208.612	135.22
208.83	142.46
209.048	169.43
209.266	158.32
209.483	127.06
209.701	150.26
209.919	164.83
210.136	145.78
210.354	175.75
210.572	117.9
210.79	126.91
211.007	113.06
211.225	100.77
211.442	112.4
211.66	125.64
211.878	139.1
212.095	123.25
212.313	114.04
212.53	118.1
212.748	113.72
212.966	110.84
213.183	110.35
213.401	120.14
213.618	120.55
213.836	106.27
214.053	106.86
214.271	101.05
214.488	99.14
214.705	124.75
214.923	127.16
215.14	137.15
215.358	156.24
215.575	152.67
215.793	144.59
216.01	158.07
216.227	166.27
216.445	150.47
216.662	142.77
216.879	142.69
217.097	127.82
217.314	113.55
217.531	108.88
217.749	88.17
217.966	87.41
218.183	69.71
218.4	64.13
218.618	65.99
218.835	61.65
219.052	59.16
219.269	61.93
219.487	58.59
219.704	71.12
219.921	65.11
220.138	72.95
220.355	76.91
220.572	85.01
220.79	86.58
221.007	95.7
221.224	96.83
221.441	107.89
221.658	101.21
221.875	105.57
222.092	93.37
222.309	90.06
222.526	89.79
222.743	85.93
222.96	85.42
223.177	83.87
223.394	65.19
223.611	72.39
223.828	65.88
224.045	61.96
224.262	61.26
224.479	62.77
224.696	64.83
224.913	68.32
225.13	66.97
225.347	67.39
225.564	65.2
225.781	61.67
225.997	50.53
226.214	46.18
226.431	40.16
226.648	38
226.865	37.56
227.082	32.97
227.298	26.88
227.515	27.03
227.732	25.96
227.949	24.99
228.165	24.89
228.382	22.83
228.599	22.4
228.816	22.23
229.032	23.22
229.249	23.64
229.466	27.6
229.682	28.69
229.899	25.87
230.116	22.72
230.332	19.28
230.549	20.5
230.765	24.53
230.982	24.96
231.199	27.27
231.415	22.33
231.632	22.23
231.848	18.52
232.065	16.97
232.281	19.13
232.498	26.06
232.714	32.18
232.931	35.13
233.147	36.66
233.364	35.27
233.58	35.01
233.797	39.05
234.013	38.44
234.23	34.77
234.446	34.22
234.662	36.97
234.879	36.66
235.095	32.19
235.312	31.33
235.528	30.69
235.744	32.41
235.961	33.29
236.177	27.88
236.393	26.01
236.61	32.32
236.826	33.48
237.042	29.98
237.258	28.32
237.475	30.76
237.691	28.86
237.907	22.34
238.123	20.86
238.339	17.11
238.556	21.26
238.772	23.44
238.988	21.05
239.204	22
239.42	23.14
239.636	24.38
239.853	23.4
240.069	22.63
240.285	24.13
240.501	22.22
240.717	21.45
240.933	19.16
241.149	17.12
241.365	16.46
241.581	16.27
241.797	15.67
242.013	14.82
242.229	15.04
242.445	13.65
242.661	13.95
242.877	15.3
243.093	17.01
243.309	17.82
243.525	18.56
243.741	20.09
243.957	20.24
244.173	19.71
244.388	17.19
244.604	15.99
244.82	15.94
245.036	14.2
245.252	13.81
245.468	13.41
245.683	12.94
245.899	12.1
246.115	11.41
246.331	11.02
246.547	10.97
246.762	11.32
246.978	11.51
247.194	11.75
247.409	11.78
247.625	11.69
247.841	10.74
248.057	10.94
248.272	11.23
248.488	11.1
248.703	11.03
248.919	11.88
249.135	12.68
249.35	12.62
249.566	13.54
249.782	14.77
249.997	14.67
250.213	15.55
250.428	15.06
250.644	16.32
250.859	17.7
251.075	17.97
251.29	16.64
251.506	17.03
251.721	16.39
251.937	16.16
252.152	15.89
252.368	15.73
252.583	16.09
252.798	17.49
253.014	17.19
253.229	15.22
253.445	14.32
253.66	16.11
253.875	14.88
254.091	14.77
254.306	15.62
254.521	14.88
254.737	15.54
254.952	14.38
255.167	13.48
255.383	12.86
255.598	13.21
255.813	12.56
256.028	13.26
256.244	12.85
256.459	14.8
256.674	13.03
256.889	12.3
257.104	10.69
257.32	11.76
257.535	11.24
257.75	10.27
257.965	10.33
258.18	10.45
258.395	9.06
258.61	8.92
258.826	7.94
259.041	8.44
259.256	8.55
259.471	8.8
259.686	7.77
259.901	7.58
260.116	8.12
260.331	7.69
260.546	8.03
260.761	8.36
260.976	9.08
261.191	9.47
261.406	9.25
261.621	9.44
261.836	10.07
262.05	10.55
262.265	10.93
262.48	9.86
262.695	10.54
262.91	10.56
263.125	11.62
263.34	11.13
263.555	12.17
263.769	11.55
263.984	12.59
264.199	12.48
264.414	13.51
264.629	13.73
264.843	14.52
265.058	14.91
265.273	13.26
265.488	11.94
265.702	11.61
265.917	11.62
266.132	11.33
266.346	10.98
266.561	10.36
266.776	10.35
266.99	9.38
267.205	9.52
267.42	9.19
267.634	9.4
267.849	9.71
268.063	9.62
268.278	9.21
268.492	9.4
268.707	8.32
268.922	8.86
269.136	8.39
269.351	8.17
269.565	7.98
269.78	8.05
269.994	8.15
270.209	7.9
270.423	8.04
270.637	8.11
270.852	8.59
271.066	8.98
271.281	8.57
271.495	9.11
271.709	10.09
271.924	9.68
272.138	9.68
272.353	9.88
272.567	9.85
272.781	9.92
272.996	9.76
273.21	9.48
273.424	9.37
273.638	9.29
273.853	9.2
274.067	8.74
274.281	9.52
274.495	9.26
274.71	9.37
274.924	9.37
275.138	10.21
275.352	10.53
275.566	11.12
275.781	11.59
275.995	12.11
276.209	12.01
276.423	12.04
276.637	11.75
276.851	11.85
277.065	11.66
277.279	11.79
277.493	10.64
277.707	10.07
277.921	8.81
278.135	7.76
278.349	7.46
278.563	7
278.777	6.49
278.991	6.19
279.205	6.21
279.419	6.04
279.633	7
279.847	7.17
280.061	7.54
280.275	7.7
280.489	8.1
280.703	7.89
280.917	8
281.131	8.53
281.344	8.87
281.558	9
281.772	9.33
281.986	8.83
282.2	8.75
282.414	8.39
282.627	8.72
282.841	9.19
283.055	9.44
283.269	8.86
283.482	8.71
283.696	8
283.91	7.28
284.123	6.75
284.337	6.49
284.551	6.11
284.764	5.96
284.978	5.91
285.192	5.51
285.405	4.93
285.619	4.86
285.833	4.82
286.046	4.91
286.26	5.18
286.473	5.61
286.687	5.81
286.9	6.66
287.114	6.71
287.327	6.48
287.541	6.17
287.754	6.57
287.968	7.07
288.181	7.37
288.395	7.81
288.608	8.24
288.822	7.85
289.035	7.18
289.248	6.38
289.462	6.78
289.675	6.64
289.889	6.83
290.102	6.84
290.315	7.07
290.529	6.88
290.742	6.73
290.955	6.64
291.169	6.63
291.382	6.89
291.595	7.59
291.808	7.22
292.022	7
292.235	7.35
292.448	7.04
292.661	7.06
292.875	6.47
293.088	5.8
293.301	4.97
293.514	4.74
293.727	5.1
293.94	5.19
294.153	4.58
294.367	4.99
294.58	4.59
294.793	4.96
295.006	4.77
295.219	5.25
295.432	5.73
295.645	5.86
295.858	5.98
296.071	5.78
296.284	5.5
296.497	5.64
296.71	5.27
296.923	5.72
297.136	5.43
297.349	5.69
297.562	5.62
297.775	5.64
297.988	5.89
298.201	5.74
298.414	6.1
298.626	5.78
298.839	6.05
299.052	6.96
299.265	6.72
299.478	6.81
299.691	6.49
299.903	6.25
300.116	6.18
300.329	5.96
300.542	6.1
300.755	6.06
300.967	6.34
301.18	6.47
301.393	6.1
301.605	6.32
301.818	6.62
302.031	7.15
302.243	7.39
302.456	7.5
302.669	7.46
302.881	8.26
303.094	8.06
303.307	7.46
303.519	7.19
303.732	6.84
303.944	6.84
304.157	6.84
304.37	6.12
304.582	5.55
304.795	5.25
305.007	5.89
305.22	5.53
305.432	5.71
305.645	6.28
305.857	6.78
306.069	6.52
306.282	6.33
306.494	6.17
306.707	5.91
306.919	6.27
307.132	6.02
307.344	5.32
307.556	5.41
307.769	5.39
307.981	5.65
308.193	5.62
308.406	5.82
308.618	5.81
308.83	5.74
309.043	6.34
309.255	6.54
309.467	6.84
309.679	7.43
309.892	7.13
310.104	6.75
310.316	6.67
310.528	6.6
310.74	6.54
310.953	6.34
311.165	6.46
311.377	6.17
311.589	5.95
311.801	5.91
312.013	5.59
312.225	5.85
312.437	6.24
312.649	6.19
312.862	6.38
313.074	6.21
313.286	6.37
313.498	6.56
313.71	6.58
313.922	6.87
314.134	7.15
314.346	7.19
314.558	7.27
314.77	7.67
314.982	7.79
315.193	7.2
315.405	7.57
315.617	7.15
315.829	6.72
316.041	7.22
316.253	7.55
316.465	7.51
316.677	7.23
316.888	7
317.1	6.88
317.312	7.03
317.524	7.6
317.736	7.55
317.947	8.29
318.159	8.82
318.371	8.33
318.583	8.14
318.794	7.6
319.006	7.35
319.218	7.37
319.43	6.84
319.641	6.89
319.853	7.8
320.064	8.08
320.276	7.78
320.488	7.58
320.699	7.51
320.911	7.43
321.123	8.01
321.334	8.72
321.546	9.12
321.757	9.24
321.969	8.93
322.18	8.12
322.392	7.78
322.603	7.6
322.815	7.68
323.026	7.73
323.238	6.87
323.449	6.63
323.661	6.39
323.872	6.22
324.083	6.36
324.295	6.57
324.506	6.35
324.718	6.83
324.929	7.13
325.14	7.23
325.352	7.44
325.563	8.47
325.774	8.76
325.986	9.01
326.197	9.35
326.408	9.3
326.62	9.42
326.831	9.99
327.042	9.79
327.253	9.52
327.464	9.71
327.676	9.63
327.887	9.4
328.098	9.8
328.309	9.7
328.52	9.56
328.732	9.48
328.943	9.53
329.154	9.08
329.365	9.95
329.576	10.34
329.787	10
329.998	9.96
330.209	10.15
330.42	9.65
330.631	9.88
330.842	9.82
331.053	10.19
331.264	10.57
331.475	10.8
331.686	10.11
331.897	10.56
332.108	10.8
332.319	11.21
332.53	11.49
332.741	11.68
332.952	11.93
333.163	12.14
333.374	12.01
333.585	11.68
333.795	11.73
334.006	12.19
334.217	12.02
334.428	12.44
334.639	12.06
334.849	11.79
335.06	11.73
335.271	11.58
335.482	11.52
335.692	11.53
335.903	11.24
336.114	11.33
336.325	11.05
336.535	11.39
336.746	11.04
336.957	11.25
337.167	11.35
337.378	11.27
337.589	11.64
337.799	11.51
338.01	11.22
338.22	11.31
338.431	11.05
338.642	11.22
338.852	10.82
339.063	10.04
339.273	10.45
339.484	10.37
339.694	10.5
339.905	10.37
340.115	10.41
340.326	10.84
340.536	10.79
340.746	11.3
340.957	11.07
341.167	11.04
341.378	12.14
341.588	11.76
341.799	11.76
342.009	11.67
342.219	11.26
342.43	11.44
342.64	11.54
342.85	11.26
343.061	10.69
343.271	10.92
343.481	10.81
343.691	10.11
343.902	9.78
344.112	9.55
344.322	9.49
344.532	9.94
344.743	9.51
344.953	8.87
345.163	8.92
345.373	9.11
345.583	8.97
345.793	9.05
346.004	9.55
346.214	10.13
346.424	10.49
346.634	10.72
346.844	10.71
347.054	10.87
347.264	11.58
347.474	11.94
347.684	11.88
347.894	12.09
348.104	12.53
348.314	12.6
348.524	12.24
348.734	11.91
348.944	11.44
349.154	11.01
349.364	11.22
349.574	11.04
349.784	10.65
349.994	10.78
350.204	10.44
350.413	9.92
350.623	9.67
350.833	9.59
351.043	9.24
351.253	9.54
351.463	9.64
351.672	9.5
351.882	9.29
352.092	9.57
352.302	9.66
352.511	9.97
352.721	9.93
352.931	9.52
353.141	9.55
353.35	10.07
353.56	9.88
353.77	10.01
353.979	9.9
354.189	9.98
354.399	9.6
354.608	9.36
354.818	8.94
355.027	8.85
355.237	9.17
355.447	9.06
355.656	9.04
355.866	9.07
356.075	9.08
356.285	9.28
356.494	9.31
356.704	9.65
356.913	9.72
357.123	9.92
357.332	10.1
357.542	9.97
357.751	9.77
357.96	9.89
358.17	9.97
358.379	9.6
358.589	9.58
358.798	9.54
359.007	9.66
359.217	9.47
359.426	9.43
359.635	9.19
359.845	9.42
360.054	9.47
360.263	9.39
360.472	9.42
360.682	9.61
360.891	9.26
361.1	9.02
361.309	8.69
361.519	8.73
361.728	8.65
361.937	8.81
362.146	8.61
362.355	8.73
362.564	8.41
362.774	8.14
362.983	8.12
363.192	8.58
363.401	9.18
363.61	9.3
363.819	9.47
364.028	9.38
364.237	9.18
364.446	9.27
364.655	9.48
364.864	9.54
365.073	9.67
365.282	9.6
365.491	9.19
365.7	8.93
365.909	9.16
366.118	8.83
366.327	8.81
366.536	9.03
366.745	8.92
366.954	8.93
367.162	9.14
367.371	9.05
367.58	9.1
367.789	9.23
367.998	9.16
368.207	8.91
368.415	9.38
368.624	9.56
368.833	9.31
369.042	9.55
369.25	9.4
369.459	9.54
369.668	9.53
369.877	9.36
370.085	9.07
370.294	9.01
370.503	8.79
370.711	8.62
370.92	8.57
371.129	8.7
371.337	8.28
371.546	8.3
371.754	8.24
371.963	8.15
372.171	7.94
372.38	7.98
372.589	8.1
372.797	8.14
373.006	7.99
373.214	7.89
373.423	7.73
373.631	7.66
373.84	7.7
374.048	7.51
374.256	7.59
374.465	7.83
374.673	8
374.882	7.8
375.09	7.95
375.298	7.88
375.507	7.62
375.715	7.69
375.923	7.47
376.132	7.34
376.34	7.24
376.548	7.28
376.757	7.33
376.965	7.37
377.173	7.54
377.381	7.76
377.59	7.84
377.798	8.2
378.006	7.9
378.214	8.26
378.423	8.22
378.631	8.41
378.839	8.22
379.047	7.97
379.255	7.88
379.463	7.77
379.671	7.31
379.879	7.23
380.088	7.22
380.296	7.68
380.504	7.73
380.712	7.76
380.92	7.7
381.128	8.04
381.336	7.96
381.544	8.05
381.752	7.91
381.96	8.06
382.168	8.02
382.376	7.95
382.584	7.93
382.791	7.99
382.999	8.09
383.207	7.98
383.415	7.8
383.623	8.01
383.831	7.9
384.039	7.97
384.247	7.81
384.454	7.9
384.662	7.81
384.87	7.85
385.078	7.84
385.285	7.54
385.493	7.54
385.701	7.46
385.909	7.41
386.116	7.44
386.324	7.3
386.532	7.38
386.739	7.33
386.947	7.35
387.155	7.04
387.362	6.96
387.57	7.25
387.778	7.18
387.985	7.25
388.193	7.33
388.4	7.56
388.608	7.82
388.816	7.85
389.023	7.74
389.231	7.57
389.438	7.73
389.646	7.66
389.853	7.49
390.061	7.45
390.268	7.61
390.475	7.3
390.683	7.08
390.89	6.98
391.098	7.03
391.305	7.08
391.512	7.24
391.72	7.03
391.927	7.14
392.135	7.26
392.342	7.26
392.549	7.2
392.756	7.32
392.964	7.36
393.171	7.4
393.378	7.4
393.586	7.37
393.793	7.19
394	7.38
394.207	7.33
394.414	7.35
394.622	7.45
394.829	7.36
395.036	7.52
395.243	7.4
395.45	7.26
395.657	7.28
395.864	7.42
396.072	7.73
396.279	7.74
396.486	7.88
396.693	7.84
396.9	7.85
397.107	7.83
397.314	7.7
397.521	7.72
397.728	7.8
397.935	7.97
398.142	7.78
398.349	7.68
398.556	7.67
398.763	7.35
398.97	7.21
399.177	7.21
399.383	7.18
399.59	7.31
399.797	7.4
400.004	7.34
400.211	7.35
400.418	7.3
400.625	7.27
400.831	7.21
401.038	7.38
401.245	7.56
401.452	7.54
401.658	7.5
401.865	7.37
402.072	7.35
402.279	7.27
402.485	7.14
402.692	7.23
402.899	7.16
403.105	7.3
403.312	7.35
403.519	7.26
403.725	7.29
403.932	7.4
404.138	7.47
404.345	7.31
404.552	7.25
404.758	7.21
404.965	7.05
405.171	6.94
405.378	6.76
405.584	6.75
405.791	6.58
405.997	6.42
406.204	6.44
406.41	6.41
406.617	6.52
406.823	6.79
407.029	6.82
407.236	7
407.442	7.13
407.649	7.3
407.855	7.05
408.061	7.25
408.268	7.49
408.474	7.28
408.68	7.22
408.887	7.32
409.093	7.16
409.299	7.15
409.505	7.27
409.712	7.19
409.918	6.98
410.124	7.09
410.33	7.09
410.537	6.94
410.743	7.16
410.949	7.24
411.155	7.28
411.361	7.33
411.567	7.38
411.773	7.23
411.98	7.36
412.186	7.7
412.392	7.86
412.598	7.87
412.804	7.9
413.01	7.76
413.216	7.76
413.422	7.69
413.628	7.7
413.834	7.57
414.04	7.79
414.246	7.83
414.452	7.66
414.658	7.54
414.864	7.42
415.07	7.44
415.275	7.41
415.481	7.22
415.687	7.25
415.893	7.21
416.099	7.3
416.305	7.07
416.511	7.04
416.716	6.91
416.922	6.87
417.128	6.89
417.334	6.98
417.539	7.03
417.745	7.04
417.951	7.01
418.157	7.01
418.362	7.01
418.568	6.98
418.774	6.96
418.979	6.98
419.185	6.99
419.391	6.97
419.596	6.88
419.802	6.85
420.008	6.87
420.213	6.98
420.419	6.96
420.624	6.89
420.83	6.89
421.035	6.89
421.241	6.94
421.446	6.91
421.652	6.92
421.857	6.89
422.063	6.93
422.268	6.92
422.474	6.77
422.679	6.81
422.885	6.84
423.09	6.88
423.295	6.86
423.501	6.78
423.706	6.83
423.911	6.79
424.117	6.86
424.322	6.84
424.527	6.94
424.733	6.94
424.938	6.92
425.143	6.93
425.349	6.93
425.554	7.01
425.759	7.08
425.964	7.14
426.169	7.18
426.375	7.14
426.58	7.18
426.785	7.14
426.99	7.26
427.195	7.29
427.4	7.31
427.605	7.44
427.811	7.47
428.016	7.68
428.221	7.58
428.426	7.63
428.631	7.57
428.836	7.54
429.041	7.5
429.246	7.38
429.451	7.45
429.656	7.51
429.861	7.43
430.066	7.39
430.271	7.22
430.476	7.23
430.681	7.25
430.886	7.42
431.09	7.5
431.295	7.41
431.5	7.39
431.705	7.31
431.91	7.23
432.115	7.23
432.32	7.22
432.524	7.18
432.729	7.05
432.934	6.97
433.139	6.95
433.343	6.89
433.548	7.04
433.753	7.13
433.958	7.16
434.162	7.14
434.367	7.1
434.572	7.08
434.776	7.1
434.981	7.18
435.186	7.32
435.39	7.24
435.595	7.35
435.799	7.34
436.004	7.22
436.209	7.15
436.413	7.18
436.618	7.17
436.822	7.27
437.027	7.18
437.231	7.24
437.436	7.14
437.64	7.08
437.845	6.94
438.049	6.93
438.253	6.91
438.458	7
438.662	7
438.867	7.04
439.071	7.04
439.275	7.15
439.48	7.21
439.684	7.12
439.888	7.12
440.093	7.17
440.297	7.16
440.501	7.36
440.706	7.29
440.91	7.29
441.114	7.3
441.318	7.14
441.523	7.13
441.727	7.09
441.931	7.25
442.135	7.32
442.339	7.4
442.543	7.44
442.748	7.25
442.952	7.2
443.156	7.27
443.36	7.33
443.564	7.45
443.768	7.34
443.972	7.3
444.176	7.24
444.38	7.3
444.584	7.23
444.788	7.21
444.992	7.25
445.196	7.31
445.4	7.23
445.604	7.2
445.808	7.15
446.012	7.19
446.216	7.14
446.42	7.24
446.624	7.2
446.828	7.17
447.032	7.11
447.235	7.06
447.439	7.05
447.643	7.15
447.847	7.21
448.051	7.24
448.254	7.23
448.458	7.34
448.662	7.25
448.866	7.17
449.069	7.16
449.273	7.33
449.477	7.38
449.681	7.35
449.884	7.22
450.088	7.13
450.292	7.03
450.495	6.97
450.699	6.97
450.902	7.04
451.106	7.09
451.31	7.21
451.513	7.05
451.717	7.11
451.92	7.2
452.124	7.12
452.327	7.19
452.531	7.28
452.734	7.36
452.938	7.34
453.141	7.3
453.345	7.31
453.548	7.35
453.752	7.3
453.955	7.34
454.158	7.33
454.362	7.44
454.565	7.4
454.769	7.5
454.972	7.5
455.175	7.48
455.379	7.42
455.582	7.38
455.785	7.35
455.988	7.38
456.192	7.27
456.395	7.19
456.598	7.17
456.801	7.1
457.005	7.02
457.208	7.05
457.411	7.1
457.614	7.1
457.817	7.03
458.021	6.95
458.224	7.03
458.427	7.06
458.63	7.09
458.833	7.13
459.036	7.1
459.239	7.11
459.442	7.12
459.645	7.04
459.848	7.13
460.051	7.21
460.254	7.33
460.457	7.3
460.66	7.33
460.863	7.35
461.066	7.31
461.269	7.43
461.472	7.5
461.675	7.49
461.878	7.6
462.081	7.54
462.284	7.56
462.486	7.42
462.689	7.49
462.892	7.4
463.095	7.46
463.298	7.45
463.5	7.42
463.703	7.34
463.906	7.41
464.109	7.44
464.311	7.43
464.514	7.51
464.717	7.62
464.92	7.55
465.122	7.53
465.325	7.53
465.528	7.54
465.73	7.48
465.933	7.52
466.135	7.29
466.338	7.28
466.541	7.21
466.743	7.06
466.946	6.95
467.148	7.05
467.351	7.05
467.553	7.03
467.756	7.09
467.958	7.12
468.161	7.13
468.363	7.21
468.566	7.14
468.768	7.14
468.971	7.18
469.173	7.21
469.375	7.08
469.578	6.94
469.78	6.95
469.983	6.92
470.185	6.92
470.387	6.91
470.59	7.05
470.792	7.07
470.994	7.15
471.196	7.15
471.399	7.21
471.601	7.18
471.803	7.32
472.005	7.28
472.208	7.24
472.41	7.24
472.612	7.18
472.814	7.21
473.016	7.25
473.218	7.27
473.421	7.29
473.623	7.35
473.825	7.49
474.027	7.55
474.229	7.59
474.431	7.6
474.633	7.59
474.835	7.65
475.037	7.53
475.239	7.51
475.441	7.51
475.643	7.53
475.845	7.45
476.047	7.36
476.249	7.34
476.451	7.29
476.653	7.24
476.855	7.22
477.057	7.2
477.258	7.19
477.46	7.14
477.662	7.18
477.864	7.13
478.066	7.13
478.268	7.19
478.469	7.08
478.671	7.07
478.873	7.07
479.075	7.12
479.276	7.1
479.478	7.24
479.68	7.23
479.882	7.17
480.083	7.14
480.285	7.08
480.487	7
480.688	7.01
480.89	7.03
481.091	6.96
481.293	6.97
481.495	6.94
481.696	6.84
481.898	6.88
482.099	6.86
482.301	6.82
482.502	6.82
482.704	6.78
482.905	6.77
483.107	6.72
483.308	6.74
483.51	6.7
483.711	6.71
483.913	6.72
484.114	6.66
484.315	6.67
484.517	6.71
484.718	6.71
484.92	6.76
485.121	6.77
485.322	6.78
485.524	6.77
485.725	6.79
485.926	6.8
486.127	6.79
486.329	6.79
486.53	6.81
486.731	6.79
486.932	6.78
487.134	6.75
487.335	6.75
487.536	6.78
487.737	6.81
487.938	6.81
488.139	6.78
488.341	6.77
488.542	6.82
488.743	6.76
488.944	6.77
489.145	6.76
489.346	6.79
489.547	6.84
489.748	6.86
489.949	6.83
490.15	6.82
490.351	6.81
490.552	6.85
490.753	6.82
490.954	6.8
491.155	6.77
491.356	6.8
491.557	6.8
491.758	6.81
491.959	6.82
492.159	6.81
492.36	6.81
492.561	6.81
492.762	6.83
492.963	6.88
493.164	7.01
493.364	7.11
493.565	7.16
493.766	7.22
493.967	7.23
494.167	7.28
494.368	7.3
494.569	7.3
494.769	7.31
494.97	7.35
495.171	7.38
495.371	7.29
495.572	7.24
495.773	7.17
495.973	7.12
496.174	7.1
496.375	7.11
496.575	7.13
496.776	7.14
496.976	7.15
497.177	7.15
497.377	7.17
497.578	7.23
497.778	7.26
497.979	7.35
498.179	7.36
498.38	7.38
498.58	7.37
498.78	7.41
498.981	7.49
499.181	7.48
499.382	7.36
499.582	7.3
499.782	7.24
499.983	7.36
500.183	7.39
500.383	7.34
500.584	7.37
500.784	7.37
500.984	7.4
501.184	7.31
501.385	7.33
501.585	7.42
501.785	7.37
501.985	7.49
502.185	7.46
502.386	7.41
502.586	7.49
502.786	7.51
502.986	7.52
503.186	7.5
503.386	7.58
503.586	7.61
503.786	7.62
503.987	7.68
504.187	7.67
504.387	7.59
504.587	7.57
504.787	7.62
504.987	7.63
505.187	7.71
505.387	7.68
505.587	7.68
505.786	7.8
505.986	7.82
506.186	7.84
506.386	7.81
506.586	7.81
506.786	7.85
506.986	7.78
507.186	7.77
507.386	7.66
507.585	7.66
507.785	7.62
507.985	7.58
508.185	7.54
508.384	7.5
508.584	7.49
508.784	7.5
508.984	7.56
509.183	7.64
509.383	7.65
509.583	7.67
509.782	7.69
509.982	7.69
510.182	7.67
510.381	7.71
510.581	7.8
510.781	7.83
510.98	7.86
511.18	7.89
511.379	7.84
511.579	7.89
511.778	7.89
511.978	7.98
512.177	8.02
512.377	8.07
512.576	8.13
512.776	8.09
512.975	8.2
513.175	8.24
513.374	8.21
513.573	8.29
513.773	8.26
513.972	8.31
514.172	8.3
514.371	8.41
514.57	8.49
514.77	8.56
514.969	8.55
515.168	8.51
515.367	8.48
515.567	8.49
515.766	8.5
515.965	8.51
516.164	8.53
516.364	8.55
516.563	8.51
516.762	8.44
516.961	8.45
517.16	8.54
517.359	8.52
517.559	8.55
517.758	8.58
517.957	8.57
518.156	8.64
518.355	8.66
518.554	8.69
518.753	8.76
518.952	8.71
519.151	8.73
519.35	8.81
519.549	8.82
519.748	8.92
519.947	8.91
520.146	8.96
520.345	8.9
520.544	8.93
520.743	8.93
520.942	8.88
521.141	9
521.339	9.03
521.538	8.96
521.737	9.01
521.936	9
522.135	9.03
522.333	8.96
522.532	9.05
522.731	9.01
522.93	9
523.129	9.09
523.327	9.18
523.526	9.13
523.725	9.17
523.923	9.21
524.122	9.21
524.321	9.23
524.519	9.35
524.718	9.38
524.917	9.43
525.115	9.49
525.314	9.44
525.512	9.5
525.711	9.5
525.909	9.47
526.108	9.47
526.306	9.5
526.505	9.53
526.703	9.52
526.902	9.52
527.1	9.56
527.299	9.55
527.497	9.58
527.696	9.54
527.894	9.58
528.092	9.61
528.291	9.62
528.489	9.62
528.688	9.64
528.886	9.68
529.084	9.71
529.283	9.72
529.481	9.78
529.679	9.83
529.877	9.9
530.076	9.96
530.274	10.05
530.472	10.11
530.67	10.19
530.869	10.18
531.067	10.21
531.265	10.24
531.463	10.31
531.661	10.3
531.859	10.33
532.057	10.34
532.255	10.31
532.454	10.29
532.652	10.31
532.85	10.31
533.048	10.41
533.246	10.41
533.444	10.46
533.642	10.46
533.84	10.48
534.038	10.47
534.236	10.52
534.434	10.59
534.632	10.65
534.83	10.69
535.027	10.74
535.225	10.69
535.423	10.73
535.621	10.65
535.819	10.62
536.017	10.68
536.215	10.69
536.412	10.68
536.61	10.72
536.808	10.76
537.006	10.76
537.203	10.78
537.401	10.81
537.599	10.83
537.797	10.97
537.994	11.1
538.192	11.12
538.39	11.2
538.587	11.17
538.785	11.23
538.983	11.24
539.18	11.28
539.378	11.3
539.575	11.36
539.773	11.4
539.97	11.35
540.168	11.32
540.366	11.32
540.563	11.34
540.761	11.39
540.958	11.38
541.155	11.33
541.353	11.33
541.55	11.36
541.748	11.34
541.945	11.33
542.143	11.35
542.34	11.4
542.537	11.4
542.735	11.42
542.932	11.44
543.129	11.42
543.327	11.49
543.524	11.52
543.721	11.53
543.919	11.61
544.116	11.69
544.313	11.78
544.51	11.82
544.708	11.88
544.905	11.84
545.102	11.93
545.299	11.98
545.496	12.06
545.693	12.05
545.891	12.1
546.088	12.06
546.285	12.05
546.482	12.01
546.679	12.03
546.876	11.99
547.073	12.11
547.27	12.13
547.467	12.14
547.664	12.14
547.861	12.15
548.058	12.25
548.255	12.38
548.452	12.41
548.649	12.51
548.846	12.51
549.043	12.61
549.24	12.56
549.437	12.57
549.633	12.59
549.83	12.68
550.027	12.92
550.224	12.87
550.421	12.71
550.618	12.71
550.814	12.74
551.011	12.81
551.208	12.81
551.405	12.82
551.601	12.73
551.798	12.88
551.995	12.8
552.191	12.67
552.388	12.71
552.585	12.76
552.781	12.71
552.978	12.71
553.175	12.75
553.371	12.83
553.568	12.78
553.764	12.85
553.961	12.82
554.157	12.91
554.354	12.87
554.55	12.84
554.747	12.87
554.943	13.04
555.14	12.93
555.336	12.93
555.533	12.93
555.729	13.08
555.926	13.17
556.122	13.05
556.318	13.07
556.515	13.12
556.711	13.13
556.907	13.21
557.104	13.17
557.3	13.26
557.496	13.28
557.693	13.35
557.889	13.4
558.085	13.45
558.281	13.67
558.478	13.77
558.674	13.79
558.87	13.82
559.066	13.83
559.262	13.89
559.459	13.92
559.655	13.88
559.851	13.89
560.047	13.96
560.243	13.92
560.439	13.92
560.635	13.88
560.831	13.96
561.027	14.06
561.223	14.12
561.419	14.08
561.615	14.15
561.811	14.27
562.007	14.29
562.203	14.18
562.399	14.28
562.595	14.19
562.791	14.17
562.987	14.09
563.183	14.08
563.379	14.12
563.575	14.15
563.771	14.13
563.966	14.01
564.162	14.09
564.358	14.13
564.554	14.08
564.75	14.08
564.945	14.16
565.141	14.18
565.337	14.18
565.533	14.08
565.728	14.12
565.924	14.2
566.12	14.17
566.315	14.06
566.511	14.03
566.707	13.95
566.902	14.05
567.098	14.06
567.293	14.11
567.489	14.12
567.684	14.32
567.88	14.29
568.076	14.34
568.271	14.55
568.467	14.62
568.662	14.57
568.858	14.74
569.053	14.69
569.248	14.63
569.444	14.6
569.639	14.55
569.835	14.51
570.03	14.63
570.225	14.58
570.421	14.56
570.616	14.66
570.812	14.83
571.007	14.76
571.202	14.79
571.397	14.76
571.593	14.75
571.788	14.83
571.983	14.81
572.178	14.75
572.374	14.8
572.569	14.77
572.764	14.64
572.959	14.59
573.154	14.56
573.35	14.54
573.545	14.69
573.74	14.74
573.935	14.75
574.13	14.67
574.325	14.72
574.52	14.79
574.715	14.85
574.91	14.93
575.105	14.91
575.3	14.97
575.495	15
575.69	14.96
575.885	15.07
576.08	15.16
576.275	15.21
576.47	15.17
576.665	15.08
576.86	15.03
577.055	14.97
577.25	14.88
577.444	14.9
577.639	15.04
577.834	14.98
578.029	15.01
578.224	14.88
578.418	15.09
578.613	15.14
578.808	15.13
579.003	15.16
579.197	15.32
579.392	15.44
579.587	15.44
579.781	15.25
579.976	15.33
580.171	15.23
580.365	15.28
580.56	15.1
580.755	15.1
580.949	14.96
581.144	15.04
581.338	14.91
581.533	15
581.727	15.04
581.922	15.24
582.116	15.21
582.311	15.22
582.505	15.24
582.7	15.3
582.894	15.36
583.089	15.47
583.283	15.39
583.478	15.5
583.672	15.52
583.866	15.59
584.061	15.54
584.255	15.54
584.449	15.6
584.644	15.38
584.838	15.38
585.032	15.39
585.226	15.43
585.421	15.52
585.615	15.49
585.809	15.38
586.003	15.28
586.198	15.28
586.392	15.32
586.586	15.26
586.78	15.42
586.974	15.39
587.168	15.3
587.363	15.33
587.557	15.27
587.751	15.2
587.945	15.14
588.139	15.3
588.333	15.33
588.527	15.33
588.721	15.47
588.915	15.54
589.109	15.52
589.303	15.62
589.497	15.54
589.691	15.51
589.885	15.53
590.079	15.56
590.273	15.35
590.466	15.27
590.66	15.24
590.854	15.14
591.048	14.93
591.242	14.98
591.436	14.91
591.629	14.96
591.823	15.11
592.017	15.3
592.211	15.33
592.404	15.49
592.598	15.51
592.792	15.5
592.986	15.42
593.179	15.61
593.373	15.61
593.567	15.57
593.76	15.58
593.954	15.57
594.147	15.47
594.341	15.53
594.535	15.39
594.728	15.34
594.922	15.38
595.115	15.42
595.309	15.31
595.502	15.34
595.696	15.31
595.889	15.25
596.083	15.24
596.276	15.19
596.47	15.14
596.663	15.23
596.856	15.3
597.05	15.32
597.243	15.4
597.437	15.53
597.63	15.52
597.823	15.72
598.017	15.82
598.21	15.84
598.403	15.95
598.596	16.08
598.79	16.13
598.983	16.18
599.176	16
599.369	15.89
599.563	15.86
599.756	16.05
599.949	16.02
600.142	15.98
600.335	15.86
600.528	15.83
600.722	15.84
600.915	15.78
601.108	15.75
601.301	16.04
601.494	16.08
601.687	16.02
601.88	15.8
602.073	15.72
602.266	15.75
602.459	15.85
602.652	15.89
602.845	15.9
603.038	15.78
603.231	15.84
603.424	15.69
603.617	15.73
603.809	15.75
604.002	15.87
604.195	15.92
604.388	15.89
604.581	15.81
604.774	15.8
604.966	15.76
605.159	15.92
605.352	15.83
605.545	16.02
605.737	16.13
605.93	16.24
606.123	16.3
606.316	16.41
606.508	16.51
606.701	16.65
606.894	16.66
607.086	16.59
607.279	16.54
607.471	16.58
607.664	16.37
607.857	16.31
608.049	16.31
608.242	16.26
608.434	16.14
608.627	16.09
608.819	16.09
609.012	16.04
609.204	16.11
609.397	16.27
609.589	16.3
609.782	16.4
609.974	16.33
610.166	16.38
610.359	16.42
610.551	16.46
610.743	16.38
610.936	16.52
611.128	16.46
611.32	16.5
611.513	16.42
611.705	16.4
611.897	16.45
612.09	16.45
612.282	16.22
612.474	16.25
612.666	16.26
612.858	16.39
613.051	16.23
613.243	16.26
613.435	16.24
613.627	16.15
613.819	16.17
614.011	16.31
614.203	16.45
614.395	16.59
614.588	16.49
614.78	16.53
614.972	16.6
615.164	16.62
615.356	16.7
615.548	16.69
615.74	16.91
615.932	16.83
616.124	16.62
616.315	16.57
616.507	16.67
616.699	16.89
616.891	17.02
617.083	16.98
617.275	16.86
617.467	16.86
617.659	16.87
617.85	16.73
618.042	16.97
618.234	16.87
618.426	16.93
618.618	16.95
618.809	16.77
619.001	16.67
619.193	16.59
619.384	16.79
619.576	16.86
619.768	16.88
619.959	16.87
620.151	16.86
620.343	17.19
620.534	17.12
620.726	17.17
620.917	17.14
621.109	16.97
621.301	17.11
621.492	16.8
621.684	16.83
621.875	16.8
622.067	16.74
622.258	16.59
622.45	16.34
622.641	16.28
622.832	16.22
623.024	16.19
623.215	16.44
623.407	16.37
623.598	16.56
623.789	16.56
623.981	16.51
624.172	16.55
624.363	16.6
624.555	16.73
624.746	16.66
624.937	16.54
625.129	16.59
625.32	16.5
625.511	16.43
625.702	16.29
625.893	16.22
626.085	16.38
626.276	16.29
626.467	16.18
626.658	16.26
626.849	16.35
627.04	16.33
627.231	16.42
627.422	16.34
627.614	16.34
627.805	16.54
627.996	16.46
628.187	16.28
628.378	16.31
628.569	16.37
628.76	16.27
628.951	16.34
629.142	16.34
629.332	16.22
629.523	16.32
629.714	16.41
629.905	16.34
630.096	16.42
630.287	16.55
630.478	16.64
630.669	16.73
630.859	16.84
631.05	16.65
631.241	16.88
631.432	16.94
631.623	17.01
631.813	17.08
632.004	17.12
632.195	17.14
632.385	17.09
632.576	17.04
632.767	16.96
632.957	16.7
633.148	16.78
633.339	16.69
633.529	16.7
633.72	16.59
633.91	16.51
634.101	16.3
634.292	16.35
634.482	16.26
634.673	16.44
634.863	16.35
635.054	16.46
635.244	16.37
635.435	16.33
635.625	16.06
635.815	16
636.006	15.92
636.196	16.22
636.387	16.29
636.577	16.48
636.767	16.19
636.958	16.35
637.148	16.5
637.338	16.75
637.529	16.74
637.719	17.06
637.909	17.23
638.099	17.37
638.29	17.38
638.48	17.48
638.67	17.29
638.86	17.57
639.05	17.67
639.241	17.56
639.431	17.34
639.621	17.41
639.811	17.31
640.001	17.18
640.191	17.04
640.381	16.76
640.571	16.43
640.761	16.52
640.951	16.34
641.141	16.16
641.331	16.14
641.521	16.16
641.711	16.13
641.901	16.22
642.091	16.22
642.281	16.16
642.471	16.26
642.661	16.48
642.851	16.64
643.041	16.83
643.231	16.86
643.42	16.87
643.61	17.03
643.8	16.95
643.99	16.73
644.18	16.78
644.369	17.04
644.559	17.11
644.749	16.9
644.939	16.71
645.128	16.58
645.318	16.54
645.508	16.55
645.697	16.5
645.887	16.63
646.076	16.92
646.266	16.8
646.456	16.85
646.645	16.88
646.835	17.12
647.024	17.17
647.214	17.18
647.403	17.17
647.593	17.04
647.782	16.95
647.972	17.08
648.161	16.82
648.351	17.06
648.54	16.99
648.73	16.83
648.919	16.73
649.108	16.54
649.298	16.69
649.487	16.93
649.677	16.98
649.866	17.13
650.055	16.98
650.244	16.83
650.434	16.8
650.623	16.73
650.812	16.8
651.002	16.79
651.191	16.98
651.38	16.83
651.569	16.69
651.758	16.57
651.947	16.67
652.137	16.71
652.326	16.89
652.515	16.78
652.704	16.74
652.893	16.81
653.082	16.93
653.271	16.93
653.46	16.89
653.649	17
653.838	17.16
654.027	17.07
654.216	16.95
654.405	17.11
654.594	17.17
654.783	17.27
654.972	17.21
655.161	17.07
655.35	17.01
655.539	17.14
655.728	17.2
655.916	17.34
656.105	17.5
656.294	17.58
656.483	17.63
656.672	17.53
656.86	17.4
657.049	17.46
657.238	17.53
657.427	17.64
657.615	17.6
657.804	17.5
657.993	17.4
658.181	17.13
658.37	17.28
658.559	17.2
658.747	17.29
658.936	17.34
659.125	17.32
659.313	17.18
659.502	17.22
659.69	17.23
659.879	17.2
660.067	17.38
660.256	17.41
660.444	17.25
660.633	17.24
660.821	17.27
661.01	17.31
661.198	17.52
661.387	17.74
661.575	17.58
661.763	17.45
661.952	17.52
662.14	17.42
662.328	17.64
662.517	17.52
662.705	17.41
662.893	17.31
663.082	17.71
663.27	17.5
663.458	17.42
663.646	17.47
663.834	17.67
664.023	17.65
664.211	17.55
664.399	17.48
664.587	17.66
664.775	17.7
664.963	17.83
665.152	17.55
665.34	17.53
665.528	17.38
665.716	17.27
665.904	17.23
666.092	17.27
666.28	17.29
666.468	17.12
666.656	17.03
666.844	17.38
667.032	17.2
667.22	17.07
667.408	17.26
667.596	17.56
667.784	17.61
667.971	17.42
668.159	17.23
668.347	17.21
668.535	17.34
668.723	17.24
668.911	17.05
669.098	17.01
669.286	17.01
669.474	16.8
669.662	16.61
669.849	16.62
670.037	16.84
670.225	16.84
670.413	16.81
670.6	16.66
670.788	16.97
670.976	16.95
671.163	17.27
671.351	17.32
671.538	17.1
671.726	17.4
671.913	17.47
672.101	17.53
672.289	17.53
672.476	17.57
672.664	17.8
672.851	17.67
673.039	17.76
673.226	17.71
673.413	17.75
673.601	17.93
673.788	17.55
673.976	17.58
674.163	17.59
674.35	17.62
674.538	17.72
674.725	17.43
674.912	17.31
675.1	17.23
675.287	17.35
675.474	17.33
675.662	17.43
675.849	17.72
676.036	17.58
676.223	17.51
676.411	17.45
676.598	17.08
676.785	17.47
676.972	17.48
677.159	17.34
677.346	17
677.533	16.89
677.721	16.81
677.908	16.62
678.095	16.59
678.282	16.61
678.469	16.66
678.656	16.97
678.843	16.64
679.03	16.7
679.217	16.74
679.404	16.73
679.591	16.58
679.778	16.83
679.964	16.96
680.151	17.05
680.338	16.97
680.525	17.06
680.712	17.1
680.899	17.18
681.086	17.25
681.272	17.33
681.459	17.4
681.646	17.64
681.833	17.43
682.02	17.33
682.206	17.48
682.393	17.56
682.58	17.55
682.766	17.51
682.953	17.84
683.14	17.76
683.326	17.77
683.513	17.93
683.7	18.06
683.886	18.16
684.073	18.07
684.259	17.93
684.446	18.18
684.632	18.39
684.819	18.52
685.005	18.1
685.192	18.05
685.378	18.01
685.565	17.93
685.751	17.74
685.938	17.53
686.124	17.8
686.31	17.88
686.497	17.4
686.683	17.27
686.87	17.22
687.056	17.33
687.242	17.25
687.429	17.29
687.615	17.2
687.801	17.3
687.987	17.61
688.174	17.45
688.36	17.22
688.546	17.47
688.732	17.39
688.918	17.06
689.105	17.26
689.291	17.36
689.477	17.52
689.663	17.49
689.849	17.57
690.035	17.59
690.221	17.74
690.407	18.33
690.593	18.46
690.779	18.5
690.965	18.67
691.151	18.49
691.337	18.24
691.523	18.22
691.709	18.52
691.895	18.47
692.081	18.2
692.267	18.29
692.453	17.99
692.639	18.28
692.825	18.08
693.011	18.26
693.196	18.48
693.382	18.67
693.568	18.48
693.754	18.51
693.94	18.29
694.125	18.37
694.311	18.09
694.497	17.81
694.682	17.56
694.868	17.72
695.054	17.45
695.239	17.31
695.425	17.42
695.611	17.38
695.796	17.13
695.982	16.99
696.168	17.04
696.353	16.97
696.539	17.16
696.724	17.05
696.91	17.15
697.095	17.35
697.281	17.27
697.466	17.09
697.652	17.36
697.837	17.46
698.023	17.72
698.208	17.77
698.393	18.01
698.579	17.78
698.764	17.55
698.949	17.46
699.135	17.26
699.32	17.32
699.505	17.62
699.691	17.26
699.876	17.15
700.061	17.07
700.246	16.97
700.432	16.82
700.617	17.02
700.802	17.15
700.987	17.45
701.172	17.78
701.358	17.75
701.543	17.96
701.728	18.1
701.913	18.48
702.098	18.78
702.283	18.86
702.468	18.73
702.653	19.08
702.838	19.45
703.023	19.21
703.208	18.98
703.393	19.06
703.578	18.72
703.763	18.61
703.948	18.45
704.133	18.34
704.318	18.2
704.503	18.51
704.688	18.37
704.873	17.98
705.057	17.94
705.242	17.83
705.427	18.01
705.612	18.05
705.797	18.35
705.981	18.09
706.166	17.84
706.351	17.49
706.536	17.21
706.72	16.89
706.905	17.23
707.09	17.05
707.274	17.36
707.459	17.22
707.644	17.29
707.828	17.47
708.013	17.63
708.197	17.62
708.382	18.18
708.567	18.36
708.751	18.5
708.936	18.32
709.12	18.42
709.305	18.36
709.489	18.16
709.673	18.4
709.858	18.23
710.042	18.16
710.227	18.4
710.411	18.36
710.596	18.29
710.78	18.27
710.964	18.41
711.149	18.58
711.333	18.56
711.517	18.68
711.702	18.67
711.886	18.47
712.07	18.55
712.254	18.26
712.438	18.17
712.623	18.27
712.807	18.32
712.991	18.25
713.175	18.1
713.359	18.1
713.544	18.15
713.728	18
713.912	18.19
714.096	18.13
714.28	18.23
714.464	18.17
714.648	18.33
714.832	18.35
715.016	18.54
715.2	18.69
715.384	18.87
715.568	18.67
715.752	18.49
715.936	18.73
716.12	18.87
716.304	18.99
716.488	18.83
716.671	18.66
716.855	18.89
717.039	18.75
717.223	18.44
717.407	18.23
717.59	18.58
717.774	18.78
717.958	18.47
718.142	18.26
718.325	18.32
718.509	18.82
718.693	18.58
718.877	18.35
719.06	18.09
719.244	18.36
719.428	18.36
719.611	18.28
719.795	18.02
719.978	18.29
720.162	18.5
720.345	18.48
720.529	18.13
720.713	18.65
720.896	18.71
721.08	19.23
721.263	19.26
721.446	19.73
721.63	19.61
721.813	19.73
721.997	19.63
722.18	19.66
722.364	19.56
722.547	19.72
722.73	19.6
722.914	19.15
723.097	18.77
723.28	19.19
723.464	18.75
723.647	19.13
723.83	19.21
724.013	19.12
724.197	19.23
724.38	19.81
724.563	19.57
724.746	19.42
724.929	20.47
725.112	20.75
725.296	20.33
725.479	20.23
725.662	19.95
725.845	19.98
726.028	19.51
726.211	19.29
726.394	19.03
726.577	19.23
726.76	18.94
726.943	18.26
727.126	18.25
727.309	18.55
727.492	18.67
727.675	18.54
727.858	18.46
728.041	18.87
728.224	19.41
728.407	19.05
728.589	19.31
728.772	19.67
728.955	19.84
729.138	19.89
729.321	19.38
729.503	19.81
729.686	19.98
729.869	19.81
730.052	20.1
730.234	19.43
730.417	19.65
730.6	19.39
730.782	19.15
730.965	18.82
731.148	18.86
731.33	19.03
731.513	18.8
731.695	18.86
731.878	19.07
732.061	18.4
732.243	18.75
732.426	18.24
732.608	18.44
732.791	18.45
732.973	18.69
733.156	18.48
733.338	18.03
733.52	17.61
733.703	17.36
733.885	17.14
734.068	17.61
734.25	17.73
734.432	18
734.615	17.66
734.797	17.49
734.979	17.2
735.162	17.32
735.344	18.11
735.526	18.52
735.708	18.45
735.891	18.67
736.073	18.91
736.255	18.52
736.437	18.78
736.619	18.41
736.802	19.02
736.984	19.5
737.166	19.45
737.348	18.97
737.53	18.74
737.712	19.15
737.894	19.07
738.076	18.72
738.258	18.93
738.44	18.92
738.622	19.59
738.804	19.3
738.986	18.84
739.168	18.63
739.35	19.06
739.532	19.01
739.714	19
739.896	19.11
740.078	19.15
740.259	18.95
740.441	19.01
740.623	18.86
740.805	18.64
740.987	18.9
741.168	18.77
741.35	18.59
741.532	18.76
741.714	18.49
741.895	18.73
742.077	18.85
742.259	18.88
742.44	18.96
742.622	19.02
742.804	19.09
742.985	19.29
743.167	19.49
743.348	19.5
743.53	19.39
743.711	19.7
743.893	19.97
744.075	19.22
744.256	19.46
744.438	19.2
744.619	19.39
744.8	19.78
744.982	19.23
745.163	18.74
745.345	18.87
745.526	19.6
745.707	19.85
745.889	19.15
746.07	20
746.252	20.28
746.433	20.13
746.614	19.88
746.795	18.74
746.977	19.22
747.158	20.1
747.339	20.52
747.52	19.77
747.702	19.35
747.883	19.55
748.064	19.54
748.245	18.8
748.426	19.01
748.607	19.19
748.788	19.94
748.97	20.1
749.151	19.96
749.332	18.9
749.513	19.07
749.694	19.39
749.875	19.79
750.056	19.53
750.237	19.96
750.418	19.51
750.599	19.35
750.78	19.86
750.96	19.2
751.141	19.35
751.322	19.55
751.503	19.56
751.684	20.01
751.865	19.4
752.046	19.16
752.226	19.24
752.407	19.54
752.588	19.69
752.769	19.34
752.949	19.27
753.13	19.1
753.311	18.72
753.492	18.7
753.672	18.54
753.853	19.44
754.034	19.73
754.214	19.19
754.395	18.92
754.575	18.81
754.756	19.16
754.937	20.09
755.117	20.04
755.298	21.16
755.478	20.8
755.659	20.58
755.839	20.1
756.02	20.04
756.2	20.26
756.381	20.82
756.561	21.41
756.741	21.47
756.922	21.17
757.102	21.47
757.283	21.11
757.463	21.47
757.643	21.32
757.823	20.65
758.004	20.31
758.184	20.42
758.364	20.8
758.545	20.61
758.725	20.48
758.905	20.56
759.085	20.86
759.265	20.49
759.446	20.21
759.626	20.17
759.806	20.4
759.986	21.03
760.166	21.46
760.346	21.15
760.526	20.55
760.706	19.89
760.886	19.54
761.066	19
761.246	19.14
761.426	19.5
761.606	19.11
761.786	18.87
761.966	18.29
762.146	18.11
762.326	17.84
762.506	17.87
762.686	17.78
762.866	18.21
763.046	18.21
763.225	18.26
763.405	18.01
763.585	18.02
763.765	18.24
763.945	18.5
764.124	18.2
764.304	18.51
764.484	18.5
764.664	18.96
764.843	18.55
765.023	18.73
765.203	18.83
765.382	19.09
765.562	19.26
765.741	19.51
765.921	19.63
766.101	19.68
766.28	19.76
766.46	20.18
766.639	19.85
766.819	19.64
766.998	19.59
767.178	19.48
767.357	19.34
767.537	19.29
767.716	19.48
767.896	18.78
768.075	18.84
768.254	17.95
768.434	17.94
768.613	18.44
768.792	18.75
768.972	19.23
769.151	19.28
769.33	18.77
769.51	20.15
769.689	19.81
769.868	20.76
770.047	21.49
770.226	22.33
770.406	22.21
770.585	22.12
770.764	22.12
770.943	21.69
771.122	21.75
771.301	22.54
771.48	21.15
771.66	21.3
771.839	21.17
772.018	20.49
772.197	20.61
772.376	20.7
772.555	20.74
772.734	20.69
772.913	20.55
773.092	20.28
773.271	19.75
773.449	20.27
773.628	20.38
773.807	20.25
773.986	20.5
774.165	19.92
774.344	20.18
774.523	19.85
774.701	20.03
774.88	19.83
775.059	19.94
775.238	20.38
775.417	20.34
775.595	19.78
775.774	19.46
775.953	19.56
776.131	19.57
776.31	18.63
776.489	18.99
776.667	18.42
776.846	18.43
777.025	19.13
777.203	18.4
777.382	18.28
777.56	18.77
777.739	18.74
777.917	18.18
778.096	18.51
778.274	19.49
778.453	19.5
778.631	20.32
778.81	20.07
778.988	19.28
779.166	19.58
779.345	19.87
779.523	20
779.702	20.95
779.88	21.65
780.058	21.42
780.237	21.19
780.415	20.97
780.593	20.08
780.771	20.85
780.95	21.71
781.128	22.34
781.306	21.8
781.484	21.83
781.662	20.58
781.841	20.77
782.019	20.72
782.197	21.38
782.375	21.07
782.553	21.95
782.731	21.21
782.909	20.85
783.087	20.14
783.265	21.16
783.443	20.82
783.621	21.61
783.799	21.29
783.977	21.39
784.155	20.27
784.333	22.25
784.511	21.59
784.689	22.36
784.867	22.35
785.045	22.47
785.223	20.96
785.4	20.53
785.578	19.9
785.756	19.73
785.934	19.73
786.112	19.76
786.289	18.48
786.467	19.36
786.645	18.79
786.823	19.33
787	18.65
787.178	18.86
787.356	18.84
787.533	18.82
787.711	18.78
787.889	18.83
788.066	19.12
788.244	18.94
788.421	18.85
788.599	18.72
788.776	18.4
788.954	19.33
789.131	19.74
789.309	20.12
789.486	20.84
789.664	21.46
789.841	21.49
790.019	21.2
790.196	22.25
790.373	21.7
790.551	22.08
790.728	22.11
790.906	22.52
791.083	22.48
791.26	21.96
791.437	21.71
791.615	21.6
791.792	21.74
791.969	21.91
792.146	21
792.324	20.94
792.501	21.19
792.678	20.93
792.855	19.74
793.032	19.01
793.209	19.04
793.387	19.37
793.564	19.42
793.741	18.87
793.918	19.89
794.095	18.95
794.272	19.19
794.449	18.42
794.626	19.26
794.803	20.13
794.98	21.01
795.157	21.19
795.334	20.5
795.511	19.91
795.688	20.37
795.864	19.61
796.041	20.8
796.218	21.15
796.395	21.82
796.572	21.09
796.749	20.37
796.925	20.54
797.102	20.9
797.279	21.27
797.456	21.16
797.632	21.12
797.809	21.5
797.986	21.09
798.162	20.94
798.339	19.81
798.516	20.21
798.692	21.55
798.869	20.2
799.046	20.63
799.222	21.44
799.399	21.04
799.575	21.5
799.752	21.03
799.928	22.08
800.105	22.23
800.281	22.44
800.458	21.8
800.634	20.75
800.811	21.72
800.987	21.47
801.163	20.69
801.34	21.47
801.516	20.5
801.692	20.77
801.869	20.2
802.045	20.38
802.221	20.58
802.398	20.41
802.574	20.88
802.75	21.33
802.926	22.01
803.103	22.09
803.279	21.05
803.455	21.94
803.631	21.23
803.807	20.95
803.983	21.29
804.16	21.65
804.336	21.84
804.512	21.59
804.688	20.86
804.864	19.23
805.04	18.86
805.216	20.08
805.392	19.45
805.568	19.49
805.744	19.9
805.92	19.6
806.096	20.87
806.272	21.89
806.448	22.68
806.623	23.34
806.799	24.23
806.975	24.91
807.151	25.19
807.327	25.39
807.503	25.17
807.678	24.57
807.854	24.2
808.03	24.38
808.206	23.17
808.381	22.52
808.557	22.35
808.733	22.19
808.908	22.17
809.084	21.83
809.26	22.3
809.435	22.91
809.611	23.28
809.787	22.87
809.962	22.54
810.138	23.26
810.313	23.97
810.489	23.67
810.664	24.08
810.84	23.66
811.015	24.86
811.191	24.9
811.366	26.01
811.542	25.87
811.717	26.54
811.892	26.84
812.068	27.19
812.243	26.69
812.419	26.35
812.594	26.24
812.769	26.26
812.944	25.59
813.12	25.08
813.295	24.53
813.47	24.84
813.645	25.71
813.821	24.92
813.996	25.22
814.171	25.19
814.346	25.68
814.521	25.79
814.697	26.98
814.872	26.22
815.047	25.77
815.222	26.09
815.397	24.32
815.572	22.14
815.747	21.59
815.922	21.11
816.097	22.27
816.272	23.13
816.447	23.6
816.622	23.14
816.797	23.4
816.972	24.62
817.147	22.75
817.322	22.84
817.496	23.28
817.671	23.4
817.846	23.36
818.021	21.59
818.196	21.87
818.371	21.04
818.545	20.83
818.72	21.53
818.895	20.41
819.069	21.16
819.244	22.79
819.419	23.66
819.594	23.43
819.768	23.42
819.943	23.2
820.117	22.19
820.292	21.72
820.467	21.68
820.641	21.1
820.816	21
820.99	20.62
821.165	20.14
821.339	19.77
821.514	19.87
821.688	19.43
821.863	19.24
822.037	18.92
822.212	19.04
822.386	18.64
822.56	18.53
822.735	18.47
822.909	18.57
823.084	18.4
823.258	18.24
823.432	18
823.606	18.23
823.781	18.36
823.955	18.87
824.129	18.77
824.303	18.81
824.478	18.89
824.652	18.97
824.826	18.53
825	18.68
825.174	19.1
825.348	18.91
825.523	18.76
825.697	18.68
825.871	18.44
826.045	19
826.219	19.15
826.393	19.23
826.567	19.02
826.741	19.67
826.915	19.41
827.089	19.21
827.263	19.49
827.437	19.47
827.611	19.41
827.784	19.28
827.958	18.8
828.132	19.12
828.306	19.38
828.48	19.96
828.654	19.86
828.827	20.61
829.001	20.75
829.175	21.18
829.349	21.87
829.522	21.99
829.696	22.91
829.87	23.48
830.044	24.59
830.217	24.43
830.391	24.84
830.565	24.63
830.738	24.85
830.912	24.7
831.085	25.19
831.259	25.5
831.432	26.33
831.606	25.91
831.779	24.92
831.953	23.77
832.126	23.74
832.3	22.98
832.473	23.04
832.647	22.3
832.82	22.6
832.994	21.79
833.167	20.76
833.34	20.35
833.514	20.17
833.687	20.26
833.86	20.53
834.034	20.26
834.207	19.99
834.38	20.02
834.553	20.26
834.727	20.41
834.9	20.31
835.073	20.53
835.246	20.89
835.419	21.31
835.593	21.43
835.766	21.58
835.939	21.78
836.112	21.55
836.285	22.4
836.458	23.18
836.631	22.65
836.804	23.13
836.977	22.75
837.15	23.19
837.323	22.7
837.496	22.02
837.669	19.89
837.842	20.31
838.015	22.88
838.188	22.13
838.361	20.75
838.533	20.98
838.706	21.55
838.879	23.09
839.052	21.92
839.225	22.06
839.398	22.37
839.57	24.06
839.743	24.02
839.916	22.68
840.088	22.98
840.261	23.36
840.434	23.39
840.607	23.15
840.779	23.84
840.952	24.68
841.124	24.01
841.297	26.12
841.47	26.69
841.642	25.96
841.815	27.14
841.987	27.33
842.16	27.21
842.332	27.51
842.505	29.31
842.677	27.7
842.85	27.83
843.022	29.92
843.194	28.57
843.367	27.1
843.539	27.78
843.712	27.57
843.884	27.8
844.056	29.43
844.229	29.35
844.401	26.94
844.573	28.27
844.745	28.05
844.918	26.16
845.09	25.37
845.262	26.13
845.434	28.83
845.606	28.13
845.779	29.4
845.951	28.16
846.123	28.47
846.295	29.93
846.467	31.27
846.639	33.88
846.811	35.09
846.983	35.41
847.155	36.02
847.327	33.43
847.499	32.43
847.671	31.84
847.843	33.22
848.015	33.37
848.187	30.92
848.359	28.21
848.531	27.5
848.703	25.66
848.875	25.32
849.047	24.2
849.218	25.69
849.39	26.46
849.562	23.37
849.734	24.08
849.905	26.12
850.077	26.53
850.249	29.71
850.421	28.4
850.592	28.2
850.764	29.58
850.936	31.58
851.107	31.91
851.279	34.2
851.451	33.8
851.622	33.34
851.794	29.79
851.965	31.32
852.137	29.09
852.308	29.24
852.48	31.65
852.651	33.63
852.823	32.57
852.994	30.38
853.166	31.84
853.337	34.73
853.509	33.37
853.68	35.82
853.851	37.41
854.023	40.36
854.194	38.35
854.365	38.78
854.537	36.22
854.708	35.89
854.879	39.48
855.05	37.18
855.222	38.59
855.393	37.91
855.564	38.53
855.735	36.97
855.906	33.94
856.078	35.12
856.249	38.82
856.42	39.35
856.591	41.08
856.762	36.8
856.933	36.65
857.104	36.06
857.275	38.89
857.446	37.44
857.617	37.57
857.788	40.09
857.959	41.05
858.13	37.91
858.301	39.49
858.472	37.24
858.643	40.39
858.814	41.25
858.985	39.89
859.155	38.72
859.326	40.61
859.497	40.66
859.668	39.67
859.839	42.61
860.009	43.15
860.18	39.7
860.351	39.4
860.522	38.11
860.692	37.82
860.863	37.82
861.034	39.96
861.204	39.92
861.375	40.65
861.546	38.81
861.716	35.46
861.887	36.31
862.057	38.02
862.228	39.11
862.398	39.4
862.569	37.87
862.739	38.83
862.91	37.55
863.08	35.73
863.251	37.89
863.421	36.53
863.592	37.37
863.762	36.47
863.932	35.7
864.103	36
864.273	34.21
864.443	34.35
864.614	34.2
864.784	32.66
864.954	31.37
865.125	30.74
865.295	34.68
865.465	31.68
865.635	32.26
865.805	34.14
865.976	34.25
866.146	38.84
866.316	38.64
866.486	39.98
866.656	39.91
866.826	40.45
866.996	37.62
867.166	38.07
867.336	41.34
867.506	39.97
867.676	39.59
867.846	40.77
868.016	35.67
868.186	36.9
868.356	32.64
868.526	32.2
868.696	33.73
868.866	33.67
869.036	33.95
869.206	32.91
869.376	33.26
869.545	34.24
869.715	33.02
869.885	35.25
870.055	36.44
870.224	40.71
870.394	42.59
870.564	41.33
870.734	41.01
870.903	39.24
871.073	34.27
871.243	35.04
871.412	33.81
871.582	31.72
871.751	33.37
871.921	35.58
872.091	31.97
872.26	31.18
872.43	31.89
872.599	34.12
872.769	31.38
872.938	37.4
873.108	36.29
873.277	36.26
873.446	36.93
873.616	33.03
873.785	29.15
873.955	30.66
874.124	31.73
874.293	31.75
874.463	30.58
874.632	33.81
874.801	31.11
874.971	31.32
875.14	33.51
875.309	31.26
875.478	31.74
875.647	32.65
875.817	32.04
875.986	30.64
876.155	32.06
876.324	31.37
876.493	31.22
876.662	30.7
876.831	28.28
877	24.22
877.17	27.8
877.339	29.07
877.508	27.82
877.677	28.59
877.846	26.77
878.015	25.03
878.184	23.36
878.352	22.77
878.521	23.96
878.69	26.81
878.859	28.04
879.028	25.94
879.197	26.33
879.366	25.68
879.534	24.88
879.703	24.07
879.872	22.92
880.041	23.85
880.21	21.82
880.378	21.41
880.547	20.13
880.716	19.72
880.884	20.33
881.053	19.69
881.222	20.02
881.39	20.44
881.559	20.58
881.727	20.96
881.896	20.42
882.065	20.8
882.233	20.84
882.402	20.91
882.57	20.72
882.739	20.09
882.907	19.73
883.076	19.53
883.244	18.87
883.412	19.2
883.581	18.86
883.749	19.35
883.918	19.01
884.086	19.23
884.254	19.11
884.423	19.57
884.591	19.6
884.759	20.43
884.927	20.01
885.096	20.75
885.264	20.98
885.432	21.27
885.6	20.56
885.769	20.64
885.937	20.42
886.105	22.09
886.273	21.53
886.441	22.94
886.609	24.19
886.777	25.79
886.945	25.6
887.113	25.71
887.281	25.47
887.449	26.49
887.617	29.7
887.785	30.87
887.953	30.64
888.121	30.99
888.289	28.61
888.457	28.15
888.625	27.56
888.793	28.61
888.961	28.11
889.129	31.78
889.296	32.4
889.464	30.73
889.632	29.58
889.8	28.34
889.967	30.14
890.135	35.58
