Data from JASIL_3336_Reflection_1.txt Node
Date: Tue Nov 17 20:21:52 EST 2015
User: Geneva
Spectrometer: USB4E03002
Autoset integration time: false
Trigger mode: 4
Integration Time (sec): 1.000000E-1
Scans to average: 10
Electric dark correction enabled: false
Nonlinearity correction enabled: false
Boxcar width: 5
Stray light correction enabled: false
XAxis mode: Wavelengths
Stop averaging: false
Number of Pixels in Spectrum: 3648
>>>>>Begin Spectral Data<<<<<
177.575	-403.96
177.794	-510.87
178.014	-597.75
178.233	-837.74
178.452	-848.33
178.672	-437.8
178.891	-912.07
179.11	3790
179.33	884.78
179.549	860.78
179.768	-5090.91
179.987	578.03
180.207	309.84
180.426	488.36
180.645	708.8
180.864	4788.24
181.084	590.36
181.303	487.05
181.522	635.63
181.741	569.66
181.96	1060.61
182.179	5594.12
182.398	-859.74
182.618	-357.71
182.837	-359.52
183.056	-413.11
183.275	-299.44
183.494	-82.26
183.713	-35.99
183.932	-32.38
184.151	-6.69
184.37	8.23
184.589	-17.11
184.808	-26.86
185.027	5.56
185.246	-6.42
185.465	0.35
185.684	-33.62
185.903	-108.74
186.122	-265.42
186.341	-543.36
186.56	-407.14
186.779	-2540.74
186.998	-254.5
187.216	-273.89
187.435	-352.12
187.654	-264.24
187.873	-158.48
188.092	-280.77
188.311	-319.29
188.53	-118.48
188.748	-82.75
188.967	-104.04
189.186	-55.48
189.405	-138.55
189.623	-101.56
189.842	-118.16
190.061	-90.91
190.28	-65.06
190.498	-75.31
190.717	-33.27
190.936	-7.69
191.154	-62.09
191.373	-56.32
191.592	227.91
191.81	162.14
192.029	182.11
192.248	81.86
192.466	148.07
192.685	86.95
192.904	220.3
193.122	192.31
193.341	282.77
193.559	320.9
193.778	430.39
193.996	404.27
194.215	937.68
194.433	429.29
194.652	454.55
194.87	351.25
195.089	443.85
195.307	726.32
195.526	-424.49
195.744	-218.71
195.963	-334
196.181	-386.78
196.399	-514.94
196.618	757.89
196.836	573.05
197.055	558.11
197.273	723.88
197.491	630.63
197.71	340.08
197.928	252.65
198.146	254.79
198.365	1314.29
198.583	780.95
198.801	-312.9
199.019	-92.73
199.238	-41.03
199.456	-33.33
199.674	-68.93
199.892	-81.95
200.111	-103.05
200.329	-137.63
200.547	-179.81
200.765	1094.12
200.983	-537.61
201.202	1001.32
201.42	345
201.638	239.45
201.856	383.76
202.074	558.67
202.292	333.21
202.51	229.13
202.728	275.99
202.946	2410.71
203.165	1865.38
203.383	371.12
203.601	546.7
203.819	690.91
204.037	-2312.12
204.255	-2659.26
204.473	-445.45
204.691	-472.94
204.909	-376.11
205.127	-2008.33
205.345	603.03
205.562	-603.1
205.78	-118.2
205.998	-90.09
206.216	-124.95
206.434	-180.89
206.652	-211.31
206.87	-467.07
207.088	-344.76
207.306	-493.06
207.523	-371.04
207.741	-246.32
207.959	-373.87
208.177	-496.89
208.395	-501.96
208.612	-509.72
208.83	-299.69
209.048	-293
209.266	-251.93
209.483	-121.22
209.701	-145.37
209.919	-134.82
210.136	-194.46
210.354	-205.47
210.572	-227.02
210.79	-270.33
211.007	-502.82
211.225	-5040
211.442	1286.44
211.66	3176
211.878	335.55
212.095	941.88
212.313	1468.64
212.53	793.36
212.748	667.33
212.966	491.01
213.183	600.39
213.401	-7088.89
213.618	-465.48
213.836	-419.11
214.053	-573.39
214.271	-455.13
214.488	-217.86
214.705	-148.95
214.923	-85.76
215.14	-41.79
215.358	-52.2
215.575	-40.69
215.793	-116.93
216.01	-368.25
216.227	-631.9
216.445	-493.75
216.662	-193.97
216.879	-262.17
217.097	-134.59
217.314	-257.2
217.531	10287.5
217.749	791.09
217.966	438.46
218.183	268.86
218.4	391.61
218.618	407.24
218.835	250.6
219.052	233.82
219.269	217.51
219.487	162.3
219.704	141.55
219.921	126.11
220.138	179.77
220.355	152.34
220.572	155.69
220.79	159.51
221.007	192.42
221.224	286.69
221.441	243.18
221.658	247.86
221.875	-474.29
222.092	-355.68
222.309	1151.52
222.526	203.64
222.743	226.09
222.96	333.81
223.177	962.79
223.394	726.32
223.611	348.25
223.828	289.2
224.045	202.93
224.262	171.56
224.479	147.51
224.696	273.56
224.913	410.74
225.13	397.17
225.347	174.48
225.564	94.9
225.781	47.19
225.997	57.06
226.214	46.88
226.431	50.3
226.648	46.09
226.865	35.03
227.082	35.46
227.298	50.21
227.515	41.28
227.732	49.91
227.949	44.29
228.165	40.79
228.382	38.09
228.599	41.91
228.816	39.05
229.032	43.49
229.249	50.24
229.466	48.08
229.682	39.81
229.899	54.31
230.116	48.8
230.332	57.3
230.549	61.69
230.765	61.39
230.982	53.72
231.199	59.36
231.415	54.4
231.632	62.07
231.848	53.97
232.065	49.86
232.281	29.75
232.498	40.15
232.714	26.91
232.931	33
233.147	23.79
233.364	27.37
233.58	25.82
233.797	38.43
234.013	33.4
234.23	57.52
234.446	64.42
234.662	81.84
234.879	105.46
235.095	108.11
235.312	100
235.528	125.22
235.744	146.91
235.961	210.86
236.177	176.81
236.393	230.68
236.61	191.49
236.826	174.35
237.042	151.13
237.258	126.82
237.475	116.33
237.691	116.15
237.907	80
238.123	80
238.339	69.39
238.556	64.53
238.772	48.49
238.988	41.76
239.204	41.36
239.42	38.21
239.636	34.53
239.853	37.8
240.069	40.43
240.285	35.47
240.501	30.56
240.717	25.26
240.933	24.93
241.149	22.47
241.365	21.48
241.581	16.6
241.797	18.43
242.013	19.9
242.229	17.28
242.445	14.21
242.661	13.1
242.877	14.15
243.093	19.45
243.309	15.5
243.525	16.17
243.741	17.78
243.957	19.35
244.173	12.97
244.388	16.68
244.604	19.61
244.82	20.95
245.036	21.92
245.252	17.83
245.468	17.14
245.683	18.52
245.899	17.2
246.115	16.57
246.331	16.58
246.547	17.56
246.762	16.01
246.978	14.44
247.194	13.82
247.409	11.85
247.625	13.32
247.841	11
248.057	11.99
248.272	12.31
248.488	9.43
248.703	7.92
248.919	8.16
249.135	7.65
249.35	8.02
249.566	7.47
249.782	14.77
249.997	15.29
250.213	17.6
250.428	15.18
250.644	20.72
250.859	21.07
251.075	22.87
251.29	22.9
251.506	22.16
251.721	25.52
251.937	25.33
252.152	26.42
252.368	25.68
252.583	22.42
252.798	20.54
253.014	18.16
253.229	22.11
253.445	22.62
253.66	26.77
253.875	29.76
254.091	25.08
254.306	29.82
254.521	18.64
254.737	20.25
254.952	26.9
255.167	22.78
255.383	20.88
255.598	25.06
255.813	19.74
256.028	16.63
256.244	13.39
256.459	15.62
256.674	17.34
256.889	21.71
257.104	18.33
257.32	14.21
257.535	16.44
257.75	15.83
257.965	11.06
258.18	11.45
258.395	10.26
258.61	10.69
258.826	9.24
259.041	8.26
259.256	6.13
259.471	6.41
259.686	6.84
259.901	6.31
260.116	6.36
260.331	7.17
260.546	7.57
260.761	8.29
260.976	10.42
261.191	12.51
261.406	14.42
261.621	15.55
261.836	17.3
262.05	18.06
262.265	20.16
262.48	21.09
262.695	22.94
262.91	18.54
263.125	17.64
263.34	14.07
263.555	7.07
263.769	1.94
263.984	-1.71
264.199	0.68
264.414	4.59
264.629	-0.46
264.843	4.03
265.058	0.86
265.273	-0.09
265.488	1.51
265.702	4.64
265.917	9.68
266.132	9.86
266.346	13.88
266.561	14.81
266.776	12.64
266.99	16.69
267.205	14.75
267.42	15.91
267.634	18.43
267.849	18.51
268.063	14.38
268.278	11.99
268.492	13.17
268.707	11.38
268.922	9.1
269.136	11.33
269.351	10.45
269.565	12.09
269.78	11.35
269.994	12.44
270.209	11.32
270.423	12.13
270.637	11.86
270.852	10.89
271.066	11.94
271.281	13.08
271.495	12.3
271.709	13.82
271.924	13.39
272.138	14.27
272.353	13.27
272.567	12.42
272.781	10.89
272.996	9.81
273.21	12.27
273.424	10.66
273.638	10.28
273.853	11.35
274.067	8.02
274.281	6.66
274.495	6.5
274.71	9.95
274.924	8.78
275.138	12.78
275.352	14.74
275.566	11.88
275.781	10.81
275.995	10.6
276.209	10.17
276.423	10.32
276.637	9
276.851	6.89
277.065	3.59
277.279	3.41
277.493	0.9
277.707	-0.31
277.921	0.33
278.135	5.75
278.349	3.33
278.563	3.1
278.777	2.24
278.991	4.61
279.205	9.21
279.419	9.19
279.633	12.17
279.847	14.49
280.061	15.24
280.275	18.05
280.489	14.2
280.703	15.26
280.917	15.11
281.131	16.15
281.344	15.52
281.558	12.19
281.772	12.9
281.986	12.35
282.2	10.87
282.414	10.7
282.627	7.51
282.841	8.49
283.055	8.22
283.269	8.67
283.482	9.41
283.696	9.49
283.91	10.45
284.123	10.61
284.337	11.7
284.551	12.38
284.764	12.31
284.978	12.7
285.192	11.81
285.405	11.91
285.619	11.9
285.833	11.69
286.046	12.11
286.26	11.79
286.473	11.51
286.687	10.31
286.9	11.61
287.114	12.42
287.327	12.98
287.541	15.38
287.754	16.85
287.968	15.43
288.181	15.02
288.395	15.52
288.608	16.75
288.822	18.31
289.035	17.87
289.248	16.6
289.462	16.31
289.675	16.59
289.889	16.3
290.102	15.77
290.315	16.43
290.529	16.55
290.742	15.13
290.955	14.74
291.169	12.74
291.382	12.8
291.595	12.72
291.808	13.49
292.022	12.63
292.235	12.73
292.448	11.92
292.661	12.58
292.875	13.61
293.088	14.54
293.301	13.9
293.514	13.38
293.727	12.74
293.94	11.59
294.153	9.63
294.367	11.53
294.58	10.36
294.793	10.28
295.006	8.96
295.219	7.28
295.432	6.05
295.645	7.13
295.858	7.84
296.071	8.67
296.284	8.99
296.497	9.53
296.71	8.39
296.923	8.09
297.136	8.49
297.349	10.17
297.562	11.04
297.775	11.66
297.988	11.05
298.201	11.44
298.414	11.9
298.626	10.76
298.839	11.54
299.052	12.5
299.265	14.36
299.478	15.4
299.691	14.21
299.903	13.23
300.116	12.97
300.329	12.02
300.542	11.12
300.755	11.09
300.967	13.2
301.18	12.39
301.393	11.37
301.605	9.66
301.818	8.87
302.031	9.22
302.243	9.49
302.456	10.09
302.669	11.06
302.881	10.88
303.094	11.15
303.307	9.83
303.519	12.08
303.732	12.68
303.944	14
304.157	15.22
304.37	15.43
304.582	16.25
304.795	15.98
305.007	18.67
305.22	18.65
305.432	18.08
305.645	20.07
305.857	18.15
306.069	17.26
306.282	16.87
306.494	13.48
306.707	13.76
306.919	12.58
307.132	13.72
307.344	11.39
307.556	11.91
307.769	10.49
307.981	8.24
308.193	9.06
308.406	9.08
308.618	7.75
308.83	9.85
309.043	9.39
309.255	9.51
309.467	9.13
309.679	7.53
309.892	7.61
310.104	9.74
310.316	10.71
310.528	10.1
310.74	9.99
310.953	10.98
311.165	10.71
311.377	12.46
311.589	13.72
311.801	13.31
312.013	14.77
312.225	14.46
312.437	12.6
312.649	11.59
312.862	12.32
313.074	11.98
313.286	11.98
313.498	12.45
313.71	10.97
313.922	9.96
314.134	10.15
314.346	11.24
314.558	11.85
314.77	12.18
314.982	14.53
315.193	13.27
315.405	13.87
315.617	14.41
315.829	14.73
316.041	15.22
316.253	15.05
316.465	17.3
316.677	15.8
316.888	17.53
317.1	18.02
317.312	18.66
317.524	20.41
317.736	22.7
317.947	20.96
318.159	20.22
318.371	20.31
318.583	21.18
318.794	19.63
319.006	21.86
319.218	18.97
319.43	18.8
319.641	20.15
319.853	20.12
320.064	19.83
320.276	22.06
320.488	22.34
320.699	20.78
320.911	20.26
321.123	18.56
321.334	17.13
321.546	18.55
321.757	18.31
321.969	16.17
322.18	16.45
322.392	14.61
322.603	14.47
322.815	13.69
323.026	14.1
323.238	13.9
323.449	13.13
323.661	11.55
323.872	10.27
324.083	11.48
324.295	11.08
324.506	8.76
324.718	7.65
324.929	7.2
325.14	7.8
325.352	7.24
325.563	7.69
325.774	10.33
325.986	12.48
326.197	13.36
326.408	12.18
326.62	11.88
326.831	12.29
327.042	14.22
327.253	13.81
327.464	14
327.676	14
327.887	14.03
328.098	13.15
328.309	11.94
328.52	11.31
328.732	13.09
328.943	14.46
329.154	15.29
329.365	14.91
329.576	14.97
329.787	13.8
329.998	15.17
330.209	16.09
330.42	17.22
330.631	16.23
330.842	17.6
331.053	15.63
331.264	16.34
331.475	16.5
331.686	17.63
331.897	15.58
332.108	17.28
332.319	16.1
332.53	14.71
332.741	13.32
332.952	12.94
333.163	13.36
333.374	15.67
333.585	14.43
333.795	14.29
334.006	13.4
334.217	14.81
334.428	12.99
334.639	12.76
334.849	13.89
335.06	14.25
335.271	15.34
335.482	14.09
335.692	12.7
335.903	11.78
336.114	13
336.325	12.35
336.535	12.87
336.746	13.38
336.957	14.5
337.167	13.61
337.378	14.04
337.589	15.18
337.799	15.01
338.01	14.59
338.22	15.33
338.431	14.42
338.642	16.13
338.852	16.64
339.063	16.06
339.273	16.05
339.484	16.37
339.694	14.97
339.905	14
340.115	13.71
340.326	14.3
340.536	13.54
340.746	12.88
340.957	11.42
341.167	11.13
341.378	12.69
341.588	12.58
341.799	12.69
342.009	13.35
342.219	14.48
342.43	15.5
342.64	15.28
342.85	15.69
343.061	16.75
343.271	17.65
343.481	17.57
343.691	16.84
343.902	17.05
344.112	16.53
344.322	16.69
344.532	16.03
344.743	17.69
344.953	17.56
345.163	17.42
345.373	17.44
345.583	16.61
345.793	17.93
346.004	18.53
346.214	17.95
346.424	19.53
346.634	19.19
346.844	19.43
347.054	17.72
347.264	18.71
347.474	17.9
347.684	17.93
347.894	18.13
348.104	14.85
348.314	14.73
348.524	14.55
348.734	14.94
348.944	15.44
349.154	14.01
349.364	13.28
349.574	12.93
349.784	14.67
349.994	14.29
350.204	15.33
350.413	16.59
350.623	16.29
350.833	17.42
351.043	16.41
351.253	16.76
351.463	17.32
351.672	18.25
351.882	16.92
352.092	15.77
352.302	16.02
352.511	15.25
352.721	15.16
352.931	14.5
353.141	13.19
353.35	12.9
353.56	12.23
353.77	12.93
353.979	12.13
354.189	12.25
354.399	11.9
354.608	11.29
354.818	11.32
355.027	11.78
355.237	11.63
355.447	11.89
355.656	11.1
355.866	11.72
356.075	11.3
356.285	12.23
356.494	12.45
356.704	13.79
356.913	13.86
357.123	13.88
357.332	13.67
357.542	13.83
357.751	14.24
357.96	13.95
358.17	13.51
358.379	12.82
358.589	13.05
358.798	13.84
359.007	13.91
359.217	13.87
359.426	12.94
359.635	12.58
359.845	12.56
360.054	11.63
360.263	12.24
360.472	12.46
360.682	13.25
360.891	13.37
361.1	13.07
361.309	13.39
361.519	13.27
361.728	13.51
361.937	14.04
362.146	14.22
362.355	15.32
362.564	14.39
362.774	13.91
362.983	13.58
363.192	12.56
363.401	12.29
363.61	11.18
363.819	11.72
364.028	12.02
364.237	12.04
364.446	11.7
364.655	10.75
364.864	12.45
365.073	12.47
365.282	11.49
365.491	11.88
365.7	12.91
365.909	13.04
366.118	12.57
366.327	12.68
366.536	11.65
366.745	12.06
366.954	12.57
367.162	12.04
367.371	12.8
367.58	14.21
367.789	14.3
367.998	13.9
368.207	13.35
368.415	13.76
368.624	13.4
368.833	14.51
369.042	13.63
369.25	13.73
369.459	13.92
369.668	12.8
369.877	12.63
370.085	12.85
370.294	12.47
370.503	13.23
370.711	12.22
370.92	12.53
371.129	11.9
371.337	12.6
371.546	12.19
371.754	12.2
371.963	13.26
372.171	12.5
372.38	11.63
372.589	11.79
372.797	10.84
373.006	11.28
373.214	9.89
373.423	9.12
373.631	9.26
373.84	8.42
374.048	7.31
374.256	6.88
374.465	8.36
374.673	9.44
374.882	8.26
375.09	8.36
375.298	9.03
375.507	9.2
375.715	9.96
375.923	10.12
376.132	10.74
376.34	10.48
376.548	10.96
376.757	10.12
376.965	9.48
377.173	10.68
377.381	10.86
377.59	9.62
377.798	10.13
378.006	9.75
378.214	10.04
378.423	10.52
378.631	11.45
378.839	10.92
379.047	11.24
379.255	11.69
379.463	11.6
379.671	11.88
379.879	12.74
380.088	12.8
380.296	14.08
380.504	13.86
380.712	13.48
380.92	13.42
381.128	13.94
381.336	13.69
381.544	12.97
381.752	12.33
381.96	11.38
382.168	10.66
382.376	11.16
382.584	10.68
382.791	10
382.999	9.94
383.207	9.2
383.415	8.76
383.623	8.71
383.831	9.38
384.039	9.89
384.247	10.55
384.454	10.82
384.662	10.22
384.87	10.03
385.078	9.17
385.285	8.66
385.493	8.89
385.701	8.53
385.909	8.51
386.116	8.67
386.324	7.37
386.532	6.86
386.739	7.3
386.947	7.87
387.155	8.36
387.362	8.92
387.57	8.42
387.778	8.2
387.985	7.68
388.193	7.51
388.4	6.9
388.608	8.04
388.816	8.71
389.023	9.12
389.231	9.01
389.438	8.49
389.646	8.99
389.853	10.27
390.061	10.53
390.268	10.99
390.475	10.86
390.683	10.55
390.89	10.76
391.098	10.85
391.305	10.38
391.512	10.65
391.72	10.44
391.927	10.48
392.135	9.82
392.342	9.9
392.549	10.12
392.756	10.37
392.964	10.28
393.171	10.63
393.378	10.29
393.586	9.82
393.793	9.6
394	9.68
394.207	9.22
394.414	9.25
394.622	9.2
394.829	9.26
395.036	9.54
395.243	9.91
395.45	9.44
395.657	9.05
395.864	8.71
396.072	8.56
396.279	8.58
396.486	8.58
396.693	8.61
396.9	8.69
397.107	9.07
397.314	8.64
397.521	8.43
397.728	8.41
397.935	7.94
398.142	8.26
398.349	7.46
398.556	7.4
398.763	7.81
398.97	8.49
399.177	8.45
399.383	8.19
399.59	8.66
399.797	8.75
400.004	8.66
400.211	9.39
400.418	9.52
400.625	10.02
400.831	10
401.038	9.28
401.245	8.4
401.452	8.92
401.658	8.93
401.865	9.11
402.072	9.17
402.279	9
402.485	9.41
402.692	9.23
402.899	8.88
403.105	9.16
403.312	9.82
403.519	10.38
403.725	9.82
403.932	9.91
404.138	9.48
404.345	9.27
404.552	9.2
404.758	9.75
404.965	9.65
405.171	10.09
405.378	9.67
405.584	9.88
405.791	9.85
405.997	9.39
406.204	9.48
406.41	9.43
406.617	9.88
406.823	9.13
407.029	7.58
407.236	8.24
407.442	8.15
407.649	7.97
407.855	7.57
408.061	7.68
408.268	8.02
408.474	7.25
408.68	7.1
408.887	6.76
409.093	8.16
409.299	8.73
409.505	8.14
409.712	8.69
409.918	8.7
410.124	8
410.33	7.78
410.537	8.07
410.743	8.26
410.949	8.71
411.155	8.53
411.361	7.7
411.567	7.55
411.773	7.67
411.98	6.68
412.186	7.54
412.392	8
412.598	7.96
412.804	7.38
413.01	7.64
413.216	7.51
413.422	7.69
413.628	7.85
413.834	7.72
414.04	7.39
414.246	7.63
414.452	6.64
414.658	6.4
414.864	6.79
415.07	7.19
415.275	6.73
415.481	6.75
415.687	7.15
415.893	6.88
416.099	7.28
416.305	7.16
416.511	7.22
416.716	7.68
416.922	8
417.128	7.53
417.334	7.63
417.539	7.63
417.745	7.67
417.951	6.97
418.157	7.19
418.362	7.31
418.568	7.24
418.774	7.08
418.979	7.11
419.185	6.98
419.391	6.86
419.596	6.53
419.802	6.69
420.008	6.24
420.213	6.61
420.419	6.36
420.624	6.15
420.83	6.36
421.035	6.46
421.241	6.06
421.446	6.26
421.652	6.29
421.857	6.48
422.063	6.32
422.268	6.46
422.474	6.08
422.679	6.38
422.885	6.3
423.09	6.42
423.295	6.49
423.501	6.59
423.706	6.37
423.911	6.32
424.117	6.16
424.322	6.5
424.527	6.27
424.733	6.75
424.938	6.42
425.143	6.49
425.349	6.15
425.554	6.02
425.759	6.16
425.964	6.09
426.169	6.58
426.375	6.69
426.58	6.53
426.785	6.96
426.99	6.6
427.195	6.91
427.4	6.96
427.605	7.65
427.811	7.96
428.016	7.79
428.221	8.12
428.426	8.41
428.631	8.6
428.836	8.33
429.041	8.39
429.246	8.35
429.451	8.32
429.656	8.56
429.861	8.45
430.066	8.61
430.271	8.99
430.476	8.9
430.681	7.57
430.886	7.5
431.09	7.49
431.295	7.32
431.5	7.56
431.705	7.59
431.91	7.35
432.115	7.28
432.32	6.85
432.524	6.54
432.729	6.61
432.934	7.23
433.139	6.98
433.343	7.03
433.548	7.13
433.753	6.81
433.958	6.79
434.162	6.95
434.367	6.82
434.572	6.7
434.776	6.95
434.981	7.2
435.186	7.26
435.39	7.48
435.595	7.27
435.799	7.05
436.004	7.24
436.209	7.35
436.413	6.78
436.618	6.78
436.822	6.96
437.027	6.86
437.231	6.58
437.436	6.32
437.64	6.27
437.845	6.26
438.049	6.22
438.253	6.14
438.458	6.05
438.662	6.5
438.867	6.48
439.071	6.47
439.275	6.6
439.48	6.59
439.684	6.85
439.888	7.11
440.093	7.01
440.297	7.26
440.501	7.3
440.706	7.4
440.91	7.23
441.114	7.44
441.318	7.63
441.523	7.76
441.727	7.53
441.931	7.72
442.135	7.54
442.339	7.81
442.543	7.77
442.748	7.76
442.952	7.81
443.156	7.75
443.36	7.51
443.564	7.21
443.768	7.09
443.972	7.98
444.176	7.63
444.38	7.48
444.584	7.34
444.788	7.25
444.992	7.31
445.196	7.02
445.4	7.09
445.604	6.81
445.808	6.91
446.012	6.58
446.216	6.03
446.42	5.94
446.624	6.02
446.828	6.29
447.032	6.13
447.235	6.22
447.439	6.26
447.643	6.4
447.847	6.98
448.051	7.06
448.254	7.3
448.458	7.5
448.662	7.54
448.866	7.85
449.069	7.69
449.273	7.96
449.477	8.2
449.681	8.46
449.884	8.26
450.088	7.81
450.292	7.68
450.495	7.66
450.699	7.52
450.902	7.79
451.106	7.41
451.31	7.74
451.513	7.91
451.717	7.53
451.92	7.23
452.124	7.33
452.327	7.61
452.531	8.03
452.734	8.04
452.938	7.74
453.141	7.74
453.345	8.08
453.548	7.96
453.752	7.99
453.955	7.93
454.158	8.1
454.362	8.02
454.565	7.73
454.769	7.8
454.972	8.33
455.175	8.83
455.379	8.91
455.582	9.03
455.785	8.67
455.988	8.36
456.192	8.38
456.395	8.46
456.598	8.53
456.801	8.72
457.005	8.01
457.208	7.66
457.411	7.47
457.614	6.94
457.817	6.69
458.021	6.72
458.224	6.63
458.427	6.62
458.63	6.44
458.833	6.19
459.036	5.99
459.239	5.9
459.442	5.74
459.645	5.6
459.848	5.88
460.051	5.75
460.254	5.69
460.457	5.77
460.66	5.73
460.863	5.77
461.066	6.22
461.269	6.19
461.472	6.67
461.675	6.83
461.878	6.99
462.081	6.76
462.284	6.84
462.486	7.21
462.689	7.32
462.892	7.67
463.095	7.81
463.298	7.24
463.5	7.77
463.703	7.67
463.906	7.41
464.109	7.51
464.311	7.78
464.514	7.62
464.717	7.54
464.92	7.71
465.122	7.55
465.325	7.55
465.528	8
465.73	8.1
465.933	7.61
466.135	7.8
466.338	7.69
466.541	7.53
466.743	7.7
466.946	7.65
467.148	7.73
467.351	7.68
467.553	7.48
467.756	7.33
467.958	6.97
468.161	7.7
468.363	7.69
468.566	7.75
468.768	7.94
468.971	7.78
469.173	8.03
469.375	8.26
469.578	8.28
469.78	8.65
469.983	8.78
470.185	8.59
470.387	8.41
470.59	8.36
470.792	8.38
470.994	8.02
471.196	8.13
471.399	7.79
471.601	7.51
471.803	7.2
472.005	6.97
472.208	7.23
472.41	7.41
472.612	7.26
472.814	7.69
473.016	7.56
473.218	8.14
473.421	7.78
473.623	7.84
473.825	7.71
474.027	8.33
474.229	8.77
474.431	8.25
474.633	8.44
474.835	8.1
475.037	7.77
475.239	7.68
475.441	7.09
475.643	7.77
475.845	7.86
476.047	8.16
476.249	7.5
476.451	6.93
476.653	7.11
476.855	7.02
477.057	7.46
477.258	7.19
477.46	6.9
477.662	7.38
477.864	7.15
478.066	7.18
478.268	6.98
478.469	7.34
478.671	7.39
478.873	7.11
479.075	7
479.276	6.94
479.478	6.92
479.68	7.33
479.882	7.06
480.083	7.08
480.285	6.84
480.487	6.68
480.688	6.66
480.89	6.72
481.091	6.81
481.293	6.72
481.495	6.61
481.696	6.49
481.898	6.34
482.099	6.51
482.301	6.27
482.502	6.2
482.704	6.13
482.905	6.04
483.107	6.04
483.308	5.88
483.51	5.92
483.711	5.86
483.913	5.96
484.114	5.95
484.315	5.7
484.517	5.8
484.718	5.86
484.92	5.99
485.121	5.98
485.322	6
485.524	6.17
485.725	6.14
485.926	6.14
486.127	6.2
486.329	6.3
486.53	6.32
486.731	6.25
486.932	6.11
487.134	6.15
487.335	6.06
487.536	6.1
487.737	6.13
487.938	6.17
488.139	6.24
488.341	6.12
488.542	6.07
488.743	6.21
488.944	6.48
489.145	6.61
489.346	6.48
489.547	6.53
489.748	6.4
489.949	6.37
490.15	6.42
490.351	6.36
490.552	6.46
490.753	6.42
490.954	6.31
491.155	6.07
491.356	6.06
491.557	5.94
491.758	6.16
491.959	6.15
492.159	6.1
492.36	6.12
492.561	6.12
492.762	6.18
492.963	6.18
493.164	6.37
493.364	6.66
493.565	6.86
493.766	7.05
493.967	6.94
494.167	6.93
494.368	6.82
494.569	6.59
494.769	6.68
494.97	6.49
495.171	6.56
495.371	6.42
495.572	6.31
495.773	6.36
495.973	6.49
496.174	6.64
496.375	6.92
496.575	7.05
496.776	7.11
496.976	7.07
497.177	7.09
497.377	7.14
497.578	7.22
497.778	7.33
497.979	7.38
498.179	7.02
498.38	6.99
498.58	6.75
498.78	7.08
498.981	7.42
499.181	7.52
499.382	7.68
499.582	7.54
499.782	7.86
499.983	7.98
500.183	7.9
500.383	8.04
500.584	7.83
500.784	7.98
500.984	8
501.184	7.84
501.385	7.81
501.585	7.87
501.785	8.08
501.985	7.91
502.185	7.99
502.386	7.89
502.586	8.21
502.786	8.47
502.986	8.39
503.186	8.21
503.386	8.15
503.586	8.53
503.786	8.69
503.987	8.76
504.187	8.64
504.387	8.66
504.587	8.73
504.787	8.79
504.987	8.75
505.187	8.66
505.387	8.72
505.587	8.79
505.786	8.79
505.986	8.9
506.186	8.85
506.386	9.06
506.586	8.84
506.786	9.01
506.986	8.94
507.186	8.8
507.386	9.09
507.585	9.23
507.785	9.12
507.985	8.97
508.185	8.86
508.384	9.42
508.584	9.44
508.784	9.8
508.984	9.84
509.183	10.01
509.383	10.15
509.583	10.27
509.782	9.95
509.982	10.01
510.182	10.03
510.381	9.82
510.581	9.35
510.781	9.72
510.98	9.61
511.18	9.72
511.379	9.67
511.579	9.78
511.778	9.72
511.978	10.08
512.177	10.03
512.377	10.05
512.576	10.16
512.776	10.09
512.975	9.68
513.175	9.74
513.374	9.67
513.573	9.64
513.773	9.85
513.972	9.81
514.172	10.02
514.371	10.29
514.57	10.72
514.77	10.75
514.969	10.79
515.168	11.03
515.367	10.96
515.567	11.23
515.766	11.25
515.965	11.02
516.164	10.75
516.364	10.3
516.563	10.28
516.762	10.17
516.961	10.34
517.16	10.47
517.359	10.33
517.559	10.24
517.758	10.13
517.957	10.39
518.156	10.68
518.355	11.14
518.554	11.36
518.753	11.09
518.952	11.03
519.151	11.03
519.35	11.37
519.549	11.5
519.748	11.75
519.947	11.7
520.146	11.7
520.345	11.59
520.544	11.25
520.743	11.17
520.942	11.39
521.141	11.56
521.339	11.63
521.538	11.74
521.737	11.77
521.936	11.78
522.135	11.73
522.333	12.01
522.532	12.27
522.731	12.56
522.93	12.89
523.129	13.29
523.327	13.34
523.526	13.5
523.725	13.15
523.923	13.22
524.122	13.27
524.321	13.48
524.519	13.28
524.718	13.1
524.917	13.22
525.115	13.25
525.314	13.27
525.512	13.34
525.711	13.18
525.909	13.16
526.108	13.17
526.306	13.03
526.505	13.04
526.703	13.06
526.902	13.07
527.1	13.11
527.299	13.14
527.497	13.18
527.696	13.17
527.894	13.25
528.092	13.33
528.291	13.39
528.489	13.45
528.688	13.45
528.886	13.47
529.084	13.53
529.283	13.63
529.481	13.63
529.679	13.71
529.877	13.89
530.076	13.97
530.274	14.16
530.472	14.1
530.67	14.43
530.869	14.55
531.067	14.63
531.265	14.78
531.463	14.75
531.661	14.91
531.859	14.98
532.057	14.8
532.255	14.95
532.454	14.92
532.652	14.97
532.85	14.92
533.048	14.96
533.246	15.15
533.444	15.09
533.642	15.12
533.84	15.23
534.038	15.33
534.236	15.48
534.434	15.35
534.632	15.54
534.83	15.65
535.027	15.88
535.225	16.12
535.423	16.16
535.621	16.41
535.819	16.5
536.017	16.52
536.215	16.45
536.412	16.45
536.61	16.52
536.808	16.4
537.006	16.73
537.203	16.61
537.401	16.53
537.599	16.49
537.797	16.44
537.994	16.59
538.192	16.68
538.39	16.64
538.587	17.11
538.785	17.09
538.983	17.23
539.18	17.27
539.378	17.18
539.575	17.23
539.773	17.22
539.97	17.23
540.168	17.33
540.366	17.28
540.563	17.37
540.761	17.16
540.958	17.3
541.155	17.37
541.353	17.36
541.55	17.46
541.748	17.48
541.945	17.64
542.143	17.6
542.34	17.59
542.537	17.72
542.735	17.76
542.932	17.99
543.129	18.03
543.327	18.07
543.524	17.92
543.721	18.12
543.919	18.4
544.116	18.18
544.313	18.61
544.51	18.66
544.708	18.68
544.905	18.75
545.102	18.58
545.299	18.73
545.496	18.84
545.693	19.15
545.891	18.98
546.088	18.8
546.285	19.09
546.482	19.04
546.679	19.14
546.876	19.2
547.073	19.34
547.27	19.79
547.467	19.9
547.664	19.93
547.861	20.1
548.058	20.67
548.255	20.9
548.452	20.98
548.649	21
548.846	21.65
549.043	21.97
549.24	21.93
549.437	21.72
549.633	21.78
549.83	21.84
550.027	21.82
550.224	21.55
550.421	21.9
550.618	21.97
550.814	21.97
551.011	21.26
551.208	20.95
551.405	21.02
551.601	21.01
551.798	21.13
551.995	21.45
552.191	21.46
552.388	21.94
552.585	22.24
552.781	22.22
552.978	22.4
553.175	22.41
553.371	22.6
553.568	22.64
553.764	22.85
553.961	22.91
554.157	22.8
554.354	22.76
554.55	22.58
554.747	22.25
554.943	22.95
555.14	23.09
555.336	23.37
555.533	23.18
555.729	23.53
555.926	23.42
556.122	23.4
556.318	23.67
556.515	23.69
556.711	24
556.907	24.04
557.104	23.45
557.3	23.36
557.496	23.52
557.693	23.9
557.889	24.01
558.085	24.06
558.281	24.17
558.478	23.85
558.674	24.2
558.87	24.07
559.066	24.22
559.262	24.22
559.459	24.34
559.655	24.7
559.851	24.6
560.047	24.58
560.243	24.69
560.439	24.9
560.635	25.86
560.831	25.59
561.027	25.36
561.223	25.16
561.419	25.56
561.615	25.92
561.811	25.59
562.007	25.69
562.203	25.97
562.399	26.7
562.595	26.61
562.791	26.21
562.987	26.64
563.183	26.9
563.379	26.87
563.575	27.19
563.771	27.21
563.966	27.43
564.162	27.63
564.358	27.49
564.554	27.17
564.75	27.41
564.945	27.4
565.141	27.88
565.337	27.87
565.533	28.32
565.728	28.24
565.924	28.21
566.12	28.09
566.315	28.18
566.511	28.44
566.707	28.72
566.902	29.03
567.098	29.14
567.293	28.77
567.489	29.05
567.684	29.02
567.88	28.82
568.076	28.92
568.271	29.35
568.467	29.46
568.662	29.02
568.858	29.21
569.053	28.82
569.248	28.69
569.444	28.81
569.639	28.91
569.835	29.44
570.03	29.75
570.225	30.07
570.421	30.23
570.616	30.51
570.812	31.02
571.007	31.09
571.202	31.74
571.397	31.71
571.593	31.69
571.788	31.8
571.983	31.21
572.178	31.13
572.374	30.57
572.569	30.34
572.764	30.14
572.959	29.89
573.154	29.89
573.35	29.66
573.545	30
573.74	30.23
573.935	30.16
574.13	30.69
574.325	30.9
574.52	31.16
574.715	31.43
574.91	31.57
575.105	31.84
575.3	32.02
575.495	32.15
575.69	32.23
575.885	32.27
576.08	32.41
576.275	32.58
576.47	32.66
576.665	32.87
576.86	32.92
577.055	33.29
577.25	33.06
577.444	32.73
577.639	32.63
577.834	33.19
578.029	33.34
578.224	33.04
578.418	32.78
578.613	32.75
578.808	32.73
579.003	32.84
579.197	32.45
579.392	33
579.587	32.99
579.781	33.17
579.976	32.71
580.171	32.77
580.365	32.81
580.56	32.65
580.755	32.56
580.949	32.45
581.144	32.25
581.338	32.51
581.533	32.18
581.727	32.57
581.922	32.46
582.116	32.85
582.311	32.84
582.505	33.43
582.7	33.55
582.894	34.03
583.089	34.2
583.283	34.17
583.478	34.17
583.672	34.2
583.866	34.36
584.061	34.47
584.255	34.39
584.449	34.55
584.644	34.21
584.838	34.2
585.032	34.15
585.226	34.4
585.421	35.03
585.615	35.36
585.809	35.88
586.003	35.96
586.198	36.15
586.392	36.1
586.586	36.11
586.78	36.37
586.974	37.14
587.168	37.1
587.363	37.51
587.557	37.06
587.751	36.86
587.945	36.98
588.139	37.02
588.333	37.16
588.527	37.02
588.721	37.41
588.915	37.12
589.109	36.1
589.303	35.93
589.497	36.34
589.691	36.27
589.885	36.17
590.079	36.01
590.273	35.69
590.466	35.73
590.66	36.2
590.854	35.67
591.048	35.8
591.242	36.76
591.436	37.41
591.629	36.98
591.823	37.33
592.017	38.04
592.211	38.2
592.404	38.7
592.598	38.9
592.792	38.93
592.986	39.08
593.179	39.34
593.373	39.24
593.567	39.26
593.76	39.34
593.954	39.51
594.147	38.91
594.341	39.13
594.535	39.22
594.728	38.75
594.922	38.58
595.115	38.68
595.309	38.79
595.502	39.05
595.696	38.99
595.889	38.68
596.083	39.02
596.276	39.36
596.47	39.31
596.663	39.34
596.856	39.8
597.05	40.09
597.243	40.59
597.437	40.92
597.63	40.54
597.823	40.38
598.017	40.55
598.21	40.2
598.403	40.5
598.596	40.26
598.79	40.35
598.983	40.42
599.176	39.95
599.369	39.25
599.563	39.09
599.756	39.44
599.949	39.43
600.142	39.77
600.335	39.81
600.528	39.28
600.722	39.57
600.915	39.32
601.108	39.45
601.301	39.81
601.494	39.74
601.687	39.73
601.88	39.69
602.073	39.7
602.266	39.69
602.459	39.43
602.652	39.57
602.845	39.53
603.038	39.51
603.231	39.38
603.424	39.84
603.617	39.91
603.809	40.07
604.002	39.81
604.195	39.9
604.388	39.87
604.581	39.95
604.774	40.69
604.966	40.59
605.159	40.5
605.352	40.64
605.545	39.9
605.737	40.28
605.93	40.88
606.123	41.08
606.316	41.12
606.508	40.73
606.701	41.02
606.894	40.07
607.086	40.66
607.279	40.81
607.471	40.76
607.664	40.98
607.857	41.13
608.049	40.82
608.242	40.96
608.434	40.87
608.627	41.8
608.819	41.99
609.012	42.18
609.204	42.03
609.397	42.45
609.589	42.63
609.782	42.74
609.974	42.62
610.166	42.49
610.359	42.35
610.551	42.76
610.743	42.45
610.936	42.63
611.128	43.33
611.32	43.54
611.513	43.2
611.705	43.18
611.897	43.57
612.09	43.43
612.282	43.96
612.474	44.66
612.666	45.49
612.858	45.81
613.051	45.48
613.243	44.21
613.435	44.28
613.627	44.37
613.819	44.03
614.011	43.37
614.203	43.82
614.395	43.5
614.588	43.12
614.78	42.52
614.972	42.96
615.164	43.85
615.356	44.6
615.548	43.54
615.74	43.72
615.932	43.71
616.124	44.04
616.315	43.85
616.507	43.76
616.699	44.24
616.891	44.19
617.083	43.89
617.275	43.67
617.467	43.55
617.659	44.41
617.85	44.49
618.042	45.29
618.234	45.16
618.426	45.16
618.618	44.86
618.809	44.85
619.001	44.85
619.193	44.99
619.384	44.63
619.576	44.98
619.768	44.35
619.959	44.34
620.151	43.51
620.343	43.57
620.534	43.68
620.726	43.94
620.917	43.58
621.109	43.46
621.301	43.56
621.492	43.65
621.684	43.15
621.875	44.22
622.067	43.79
622.258	44.39
622.45	45.14
622.641	45.38
622.832	45.46
623.024	45.16
623.215	45.06
623.407	43.91
623.598	43.64
623.789	43.62
623.981	43
624.172	43.38
624.363	43.04
624.555	42.65
624.746	42.05
624.937	41.92
625.129	42.11
625.32	42.67
625.511	43.15
625.702	43.18
625.893	43.85
626.085	43.93
626.276	43.86
626.467	44.03
626.658	43.91
626.849	43.99
627.04	44.79
627.231	45.03
627.422	44.87
627.614	44.81
627.805	44.45
627.996	44.7
628.187	44.8
628.378	45.06
628.569	45.18
628.76	45.36
628.951	46.11
629.142	45.66
629.332	45.28
629.523	44.65
629.714	44.88
629.905	45.8
630.096	45.31
630.287	45.1
630.478	44.98
630.669	44.36
630.859	44.58
631.05	44.33
631.241	43.56
631.432	43.97
631.623	44.76
631.813	44.7
632.004	44.23
632.195	44.18
632.385	44.79
632.576	44.63
632.767	45.74
632.957	45.65
633.148	45.11
633.339	45.27
633.529	45.3
633.72	44.91
633.91	44.97
634.101	45.35
634.292	45.71
634.482	45.19
634.673	45.47
634.863	44.49
635.054	43.65
635.244	44.74
635.435	45.09
635.625	45.1
635.815	45.16
636.006	45.2
636.196	45.64
636.387	45.13
636.577	45.87
636.767	46.11
636.958	45.96
637.148	47.36
637.338	47.63
637.529	47.78
637.719	47.96
637.909	48.66
638.099	48.43
638.29	47.61
638.48	48.12
638.67	47.86
638.86	47.54
639.05	48.11
639.241	47.31
639.431	46.73
639.621	47.92
639.811	47.82
640.001	47.72
640.191	47.98
640.381	48.25
640.571	48.16
640.761	49.1
640.951	49.57
641.141	50.11
641.331	50.11
641.521	49.6
641.711	48.07
641.901	47.74
642.091	47.75
642.281	47.51
642.471	47.92
642.661	48.09
642.851	46.91
643.041	45.87
643.231	45.73
643.42	46.28
643.61	46.82
643.8	47.15
643.99	47.6
644.18	47.11
644.369	48.24
644.559	47.86
644.749	47.77
644.939	47.57
645.128	48.84
645.318	48.66
645.508	48.05
645.697	47.32
645.887	47.54
646.076	47.97
646.266	48.04
646.456	46.92
646.645	47.27
646.835	47.36
647.024	47.8
647.214	47.85
647.403	47.47
647.593	48.03
647.782	48.95
647.972	48.79
648.161	48.99
648.351	49.33
648.54	49.44
648.73	49.78
648.919	49.71
649.108	48.81
649.298	48.43
649.487	49.59
649.677	49.68
649.866	49.45
650.055	49.28
650.244	48.66
650.434	48.49
650.623	48.31
650.812	47.96
651.002	47.98
651.191	49.2
651.38	48.37
651.569	47.49
651.758	47.52
651.947	47.41
652.137	47.48
652.326	47.45
652.515	46.92
652.704	47.4
652.893	47.06
653.082	47.47
653.271	47.32
653.46	47.55
653.649	47.36
653.838	46.43
654.027	47.32
654.216	47.85
654.405	48.76
654.594	49.71
654.783	48.84
654.972	48.98
655.161	47.7
655.35	47.89
655.539	48.37
655.728	49.24
655.916	49.52
656.105	49.49
656.294	49.4
656.483	48.66
656.672	48.24
656.86	48.42
657.049	48.36
657.238	48.76
657.427	48.23
657.615	48.31
657.804	47.85
657.993	48.02
658.181	47.5
658.37	48.06
658.559	47.42
658.747	47.32
658.936	47.94
659.125	48.88
659.313	49.21
659.502	49.14
659.69	48.59
659.879	49.29
660.067	49.19
660.256	49.09
660.444	49.33
660.633	49.93
660.821	50.41
661.01	50.33
661.198	48.95
661.387	48.67
661.575	49.63
661.763	50.45
661.952	49.81
662.14	49.76
662.328	50.09
662.517	49.66
662.705	49.01
662.893	48.82
663.082	48.37
663.27	48.83
663.458	49.03
663.646	48.46
663.834	48.21
664.023	47.62
664.211	47.38
664.399	47.64
664.587	47.27
664.775	47.89
664.963	48.49
665.152	49.9
665.34	49.9
665.528	49.52
665.716	50.09
665.904	50.88
666.092	51.29
666.28	52.49
666.468	51.43
666.656	51.89
666.844	52.83
667.032	51.96
667.22	50.78
667.408	50.21
667.596	50.83
667.784	51.01
667.971	50.9
668.159	51.17
668.347	50.4
668.535	51.02
668.723	50.11
668.911	49.93
669.098	49.38
669.286	49.79
669.474	50.64
669.662	50.82
669.849	50.15
670.037	49.28
670.225	49.31
670.413	49.41
670.6	48.95
670.788	48.86
670.976	48.42
671.163	49.26
671.351	48.55
671.538	49.23
671.726	49.81
671.913	49.75
672.101	49.67
672.289	49.77
672.476	50.49
672.664	50.91
672.851	50.83
673.039	51.83
673.226	52.59
673.413	53.79
673.601	52.91
673.788	51.86
673.976	50.77
674.163	51
674.35	50.41
674.538	50.04
674.725	49.59
674.912	49.6
675.1	48.69
675.287	48.52
675.474	47.9
675.662	47.95
675.849	47.83
676.036	49
676.223	49.28
676.411	49.8
676.598	49.42
676.785	50.84
676.972	51.7
677.159	51.49
677.346	50.47
677.533	51.46
677.721	51.54
677.908	51.72
678.095	51.76
678.282	51.32
678.469	49.74
678.656	50.43
678.843	49.16
679.03	49.58
679.217	49.99
679.404	49.8
679.591	49.48
679.778	49.3
679.964	49.99
680.151	49.02
680.338	49.16
680.525	50.78
680.712	51.17
680.899	51.27
681.086	51.92
681.272	51.84
681.459	51.97
681.646	50.95
681.833	51.58
682.02	51.09
682.206	52.26
682.393	51.92
682.58	51.5
682.766	53.06
682.953	53.79
683.14	52.94
683.326	52.58
683.513	54.18
683.7	55.07
683.886	54.75
684.073	55.24
684.259	55.62
684.446	57.3
684.632	58.05
684.819	54.81
685.005	55.58
685.192	54.68
685.378	55.27
685.565	53.7
685.751	53.54
685.938	53.53
686.124	51.81
686.31	51.13
686.497	51.09
686.683	51.35
686.87	51.45
687.056	50.11
687.242	50.14
687.429	50.61
687.615	51.42
687.801	51.67
687.987	51.01
688.174	51.99
688.36	52.11
688.546	50.93
688.732	50.01
688.918	50.18
689.105	51.15
689.291	51.17
689.477	50.02
689.663	49.6
689.849	50
690.035	50.56
690.221	50.4
690.407	50.59
690.593	51.24
690.779	52.33
690.965	53.5
691.151	53.51
691.337	55.07
691.523	55.2
691.709	55.66
691.895	55
692.081	55.36
692.267	55.13
692.453	55.27
692.639	54.76
692.825	53.28
693.011	51.55
693.196	52.08
693.382	50.15
693.568	50.32
693.754	51.19
693.94	52.34
694.125	51.54
694.311	52.26
694.497	52.6
694.682	53.31
694.868	53.29
695.054	55.15
695.239	55.36
695.425	56.03
695.611	55.92
695.796	54.12
695.982	52.72
696.168	52.98
696.353	52.52
696.539	52.23
696.724	51.66
696.91	51.25
697.095	50.82
697.281	49.57
697.466	49.68
697.652	49.61
697.837	49.59
698.023	50.16
698.208	50.23
698.393	50.49
698.579	50.28
698.764	49.51
698.949	49.43
699.135	48.44
699.32	48.85
699.505	48.5
699.691	48.94
699.876	48.44
700.061	48.52
700.246	48.81
700.432	49.22
700.617	49.65
700.802	51.07
700.987	52.65
701.172	55.88
701.358	54.79
701.543	54.9
701.728	55.42
701.913	56.79
702.098	57.49
702.283	57.99
702.468	57.53
702.653	57.27
702.838	57.52
703.023	56.84
703.208	55.07
703.393	57.6
703.578	59.38
703.763	58.86
703.948	58.66
704.133	57.82
704.318	58.04
704.503	58.24
704.688	58.13
704.873	57.3
705.057	58.2
705.242	58.09
705.427	57.1
705.612	54.08
705.797	54.95
705.981	56.09
706.166	56.22
706.351	55.59
706.536	55.56
706.72	55.84
706.905	55.63
707.09	56.31
707.274	56.18
707.459	56.76
707.644	57.7
707.828	56.81
708.013	55.86
708.197	55.73
708.382	54.59
708.567	53.96
708.751	55.24
708.936	54.92
709.12	54.71
709.305	55.05
709.489	53.79
709.673	53.37
709.858	53.65
710.042	53.86
710.227	54.32
710.411	55.03
710.596	55.77
710.78	53.89
710.964	53.99
711.149	53.59
711.333	53.61
711.517	52.95
711.702	54.12
711.886	54.39
712.07	55.1
712.254	54.47
712.438	54.93
712.623	53.69
712.807	55.09
712.991	55.19
713.175	54.56
713.359	54.4
713.544	56.12
713.728	56.41
713.912	56.18
714.096	57.14
714.28	56.24
714.464	56.05
714.648	56.64
714.832	55.7
715.016	55.57
715.2	56.22
715.384	56.79
715.568	56.84
715.752	55.47
715.936	55.09
716.12	53.03
716.304	53.17
716.488	53.07
716.671	54.05
716.855	56.47
717.039	58.05
717.223	58.24
717.407	58.78
717.59	57.78
717.774	59.28
717.958	59.78
718.142	61.14
718.325	62.29
718.509	61.94
718.693	61.12
718.877	59.26
719.06	59.38
719.244	59.15
719.428	58.48
719.611	59.41
719.795	57.52
719.978	57.5
720.162	57.08
720.345	56.18
720.529	57.64
720.713	57.99
720.896	57.78
721.08	57.99
721.263	57.94
721.446	57.78
721.63	56.82
721.813	59.36
721.997	60.17
722.18	59.28
722.364	61.61
722.547	59.59
722.73	59.94
722.914	60.08
723.097	59.31
723.28	59.29
723.464	58.45
723.647	58.89
723.83	58.61
724.013	59.55
724.197	59.8
724.38	59.06
724.563	60.53
724.746	59.59
724.929	59.53
725.112	59.52
725.296	57.98
725.479	57.76
725.662	58.87
725.845	57.36
726.028	55.65
726.211	54.4
726.394	53.76
726.577	52.91
726.76	52.68
726.943	52.68
727.126	53.62
727.309	53.73
727.492	52.7
727.675	52.31
727.858	53.42
728.041	52.34
728.224	53.33
728.407	52.4
728.589	53.55
728.772	54.74
728.955	55.37
729.138	54.83
729.321	56.09
729.503	57.81
729.686	56.48
729.869	55.17
730.052	56.93
730.234	57.63
730.417	59.94
730.6	59.71
730.782	58.55
730.965	58.24
731.148	58.42
731.33	57.55
731.513	57.15
731.695	58.7
731.878	60.38
732.061	59.09
732.243	59.24
732.426	57.49
732.608	56.5
732.791	58.09
732.973	58.08
733.156	59
733.338	60.24
733.52	59.2
733.703	57.22
733.885	58.78
734.068	60
734.25	60.52
734.432	63.59
734.615	64.77
734.797	63.35
734.979	63.4
735.162	64.03
735.344	63.47
735.526	63.97
735.708	64.48
735.891	62.93
736.073	62.8
736.255	62.03
736.437	59.93
736.619	59.13
736.802	58.31
736.984	59.88
737.166	56.25
737.348	58.07
737.53	58.04
737.712	56.45
737.894	55.43
738.076	56.58
738.258	55.43
738.44	54.82
738.622	55.43
738.804	59.16
738.986	57.67
739.168	61.2
739.35	58.55
739.532	60.79
739.714	65.33
739.896	66.85
740.078	64.64
740.259	66.32
740.441	66.3
740.623	67.25
740.805	62.83
740.987	62.61
741.168	61.06
741.35	62.63
741.532	61.21
741.714	60.17
741.895	56.49
742.077	57.48
742.259	57.87
742.44	56.87
742.622	55.88
742.804	57.76
742.985	58.66
743.167	59.01
743.348	57.83
743.53	60.43
743.711	60.61
743.893	62.81
744.075	66.26
744.256	67.77
744.438	69.57
744.619	70.06
744.8	69.87
744.982	70.51
745.163	72.76
745.345	73.82
745.526	71.77
745.707	70.41
745.889	70.48
746.07	67.81
746.252	67.03
746.433	65.7
746.614	65.67
746.795	69.11
746.977	68.08
747.158	65.18
747.339	64.25
747.52	64.38
747.702	64.08
747.883	63.3
748.064	65.83
748.245	66.16
748.426	68.08
748.607	67.97
748.788	65.98
748.97	67.52
749.151	68.48
749.332	70.64
749.513	70.19
749.694	71.31
749.875	74.1
750.056	70.12
750.237	70.75
750.418	69.71
750.599	69.66
750.78	65.45
750.96	63.76
751.141	64.15
751.322	62.41
751.503	63
751.684	62.38
751.865	61.42
752.046	64.5
752.226	61.53
752.407	60.22
752.588	62.2
752.769	65.73
752.949	66.69
753.13	64.12
753.311	61.7
753.492	61.01
753.672	62.49
753.853	63.87
754.034	60.69
754.214	61.24
754.395	62.48
754.575	60.93
754.756	59.85
754.937	60.12
755.117	62.01
755.298	65.5
755.478	66.61
755.659	64.46
755.839	63.14
756.02	63.34
756.2	65.42
756.381	65.74
756.561	65.67
756.741	67.25
756.922	65.15
757.102	62.54
757.283	60.33
757.463	60.74
757.643	59.48
757.823	62.05
758.004	61.56
758.184	60.62
758.364	62.22
758.545	63.11
758.725	62.58
758.905	62.86
759.085	66.58
759.265	68.89
759.446	68.24
759.626	70.28
759.806	68.2
759.986	68.46
760.166	68.36
760.346	67.59
760.526	66.37
760.706	64.84
760.886	64.88
761.066	63.24
761.246	60.09
761.426	58.34
761.606	58.31
761.786	57.61
761.966	56.05
762.146	54.63
762.326	52.85
762.506	52.71
762.686	52.91
762.866	53.31
763.046	52.54
763.225	53.95
763.405	54.25
763.585	52.29
763.765	52
763.945	54.32
764.124	54.41
764.304	55.87
764.484	55.73
764.664	55.32
764.843	56.6
765.023	58
765.203	56.4
765.382	58.35
765.562	60.96
765.741	63.45
765.921	63.02
766.101	63.69
766.28	64.31
766.46	65.68
766.639	65.3
766.819	64.91
766.998	66.2
767.178	69.21
767.357	69.36
767.537	69.01
767.716	66.23
767.896	65.07
768.075	66.52
768.254	65.25
768.434	65.24
768.613	69.12
768.792	66.91
768.972	66.62
769.151	66.17
769.33	66.87
769.51	68.01
769.689	68.51
769.868	68.44
770.047	67.75
770.226	68.33
770.406	69.05
770.585	67.81
770.764	68.21
770.943	66.83
771.122	68.58
771.301	67.8
771.48	67.8
771.66	67.79
771.839	67.24
772.018	69.45
772.197	69.4
772.376	69.25
772.555	68.98
772.734	72.79
772.913	74.28
773.092	73.69
773.271	72.16
773.449	72.3
773.628	71.13
773.807	76.34
773.986	74.33
774.165	74.02
774.344	74.8
774.523	74.26
774.701	70.35
774.88	71.7
775.059	70.72
775.238	73.47
775.417	73.43
775.595	77.48
775.774	77.59
775.953	76.86
776.131	81.49
776.31	80.18
776.489	80.06
776.667	81.74
776.846	80.86
777.025	82.2
777.203	84.39
777.382	81.95
777.56	80.28
777.739	75.16
777.917	75.58
778.096	74.48
778.274	74.37
778.453	75.33
778.631	75.93
778.81	74.53
778.988	74.33
779.166	71.58
779.345	72.8
779.523	73.91
779.702	76.77
779.88	78.51
780.058	74.94
780.237	74.62
780.415	75.99
780.593	73.19
780.771	73.02
780.95	72.06
781.128	72.58
781.306	73.72
781.484	74.89
781.662	74.31
781.841	70.75
782.019	73.88
782.197	73.66
782.375	75.86
782.553	77.04
782.731	78.94
782.909	76.81
783.087	75.06
783.265	76.03
783.443	73.34
783.621	74.03
783.799	79.87
783.977	80.61
784.155	79.66
784.333	77.82
784.511	78.57
784.689	75.91
784.867	76.04
785.045	75.85
785.223	76.21
785.4	76.57
785.578	77.35
785.756	76.54
785.934	72.44
786.112	71.39
786.289	67.91
786.467	66.01
786.645	69.2
786.823	69.9
787	66.8
787.178	63.95
787.356	65.16
787.533	66.75
787.711	64.66
787.889	64.67
788.066	63.29
788.244	63.48
788.421	65.67
788.599	64.16
788.776	64.41
788.954	69.83
789.131	72.14
789.309	70.77
789.486	67.34
789.664	67.79
789.841	69.16
790.019	72.11
790.196	75.93
790.373	77.38
790.551	76.78
790.728	76.25
790.906	73.57
791.083	68.21
791.26	70.28
791.437	73.01
791.615	74.86
791.792	74.93
791.969	75.64
792.146	72.3
792.324	69.6
792.501	71.22
792.678	74.13
792.855	74.21
793.032	76.4
793.209	76.05
793.387	79.37
793.564	76.49
793.741	77.73
793.918	77.7
794.095	79.17
794.272	79.72
794.449	76.69
794.626	75.13
794.803	77.57
794.98	78.15
795.157	80.84
795.334	77.24
795.511	78.1
795.688	75.16
795.864	77.06
796.041	79.3
796.218	79.95
796.395	83.4
796.572	82.36
796.749	82.5
796.925	82.32
797.102	78.29
797.279	77.81
797.456	78.4
797.632	80.63
797.809	80.58
797.986	73.72
798.162	72.38
798.339	72.53
798.516	73.04
798.692	72.22
798.869	74.96
799.046	70.72
799.222	70.23
799.399	66
799.575	67.14
799.752	66.48
799.928	72.65
800.105	71.76
800.281	70.31
800.458	68.32
800.634	65.69
800.811	62.54
800.987	66.09
801.163	64.78
801.34	68.55
801.516	67.92
801.692	68.63
801.869	66.84
802.045	67.18
802.221	68.39
802.398	72.73
802.574	74.38
802.75	75.2
802.926	75.02
803.103	77.67
803.279	79.81
803.455	79.51
803.631	80.48
803.807	80.18
803.983	82.85
804.16	80.41
804.336	77.22
804.512	79.92
804.688	82.63
804.864	82.68
805.04	83.43
805.216	82.46
805.392	85.54
805.568	80.2
805.744	76.39
805.92	73.8
806.096	76.24
806.272	80.08
806.448	74.04
806.623	70.98
806.799	71.02
806.975	68.81
807.151	70.7
807.327	66.56
807.503	68.57
807.678	68.59
807.854	71.89
808.03	76.74
808.206	73.35
808.381	77.16
808.557	74.8
808.733	75.37
808.908	77.46
809.084	77.85
809.26	80.37
809.435	81.12
809.611	85.06
809.787	80.77
809.962	76.18
810.138	80.06
810.313	77.1
810.489	81.78
810.664	82.07
810.84	85.87
811.015	86.03
811.191	87.11
811.366	91.93
811.542	95.96
811.717	100.14
811.892	99.78
812.068	96.17
812.243	96.64
812.419	95.45
812.594	97.61
812.769	92.18
812.944	92.68
813.12	94.93
813.295	86.49
813.47	87.63
813.645	86.65
813.821	83.65
813.996	84.11
814.171	85.98
814.346	84.96
814.521	85.25
814.697	79.99
814.872	77.11
815.047	70.31
815.222	71.73
815.397	67.34
815.572	67.03
815.747	71.5
815.922	72.97
816.097	72.58
816.272	71.77
816.447	76.44
816.622	81.53
816.797	85.65
816.972	91.63
817.147	90.47
817.322	89.12
817.496	87.17
817.671	89.79
817.846	91.91
818.021	88.81
818.196	88.83
818.371	80.75
818.545	79.79
818.72	78.12
818.895	76.02
819.069	75.09
819.244	71.14
819.419	65.37
819.594	58.4
819.768	53.24
819.943	52.68
820.117	50.16
820.292	49.06
820.467	46.01
820.641	43.81
820.816	41.53
820.99	40.96
821.165	40.14
821.339	40.18
821.514	39.4
821.688	39.24
821.863	37.82
822.037	37.44
822.212	37.34
822.386	38.24
822.56	37.87
822.735	38.58
822.909	38.45
823.084	38.76
823.258	38.85
823.432	39.77
823.606	39.89
823.781	40.57
823.955	41.05
824.129	41.3
824.303	40.69
824.478	41.4
824.652	41.67
824.826	41.63
825	42.23
825.174	42.79
825.348	42.81
825.523	41.86
825.697	40.99
825.871	41.68
826.045	41.86
826.219	41.45
826.393	40.96
826.567	40.91
826.741	41.92
826.915	43.1
827.089	42.97
827.263	42.29
827.437	44.51
827.611	46.49
827.784	45.86
827.958	46.96
828.132	46.41
828.306	47.89
828.48	49.84
828.654	50.83
828.827	49.6
829.001	52.43
829.175	54.29
829.349	54.71
829.522	56.01
829.696	59.4
829.87	56.74
830.044	61.92
830.217	59.73
830.391	59.09
830.565	60.18
830.738	62.7
830.912	61.88
831.085	64.17
831.259	64.42
831.432	60.69
831.606	59.49
831.779	58.78
831.953	58.15
832.126	60.13
832.3	59.5
832.473	57.44
832.647	55.73
832.82	53.94
832.994	50.65
833.167	51.15
833.34	51.88
833.514	50.67
833.687	51.06
833.86	50.43
834.034	48.58
834.207	47.2
834.38	46.8
834.553	46.37
834.727	46.89
834.9	46.81
835.073	46.58
835.246	47.87
835.419	46.21
835.593	44.48
835.766	42.99
835.939	47.34
836.112	49.62
836.285	49.24
836.458	48.79
836.631	49.38
836.804	54.98
836.977	57.74
837.15	59.73
837.323	67.2
837.496	75.71
837.669	79.46
837.842	78.53
838.015	84.14
838.188	85.56
838.361	85.06
838.533	87.75
838.706	80.15
838.879	75.1
839.052	75.71
839.225	73.56
839.398	74.31
839.57	78.24
839.743	75.7
839.916	73.69
840.088	73.13
840.261	80.11
840.434	74.83
840.607	81.21
840.779	84.37
840.952	85.51
841.124	91.29
841.297	91.27
841.47	90.29
841.642	95.77
841.815	87.89
841.987	97.86
842.16	92.15
842.332	96.4
842.505	95.06
842.677	94.33
842.85	97.78
843.022	93.97
843.194	86.6
843.367	87.65
843.539	90.11
843.712	98.76
843.884	102.73
844.056	102.64
844.229	109.79
844.401	118.18
844.573	117.72
844.745	113.49
844.918	130.66
845.09	144.83
845.262	155.53
845.434	160.48
845.606	167.71
845.779	156
845.951	155.38
846.123	162
846.295	179.19
846.467	220.63
846.639	200.11
846.811	206.82
846.983	207.55
847.155	202.71
847.327	175.39
847.499	168.63
847.671	169.11
847.843	160.03
848.015	140.13
848.187	128.57
848.359	122.82
848.531	141.53
848.703	128.01
848.875	144.13
849.047	136.47
849.218	140.22
849.39	130.2
849.562	138.29
849.734	163.87
849.905	160.45
850.077	172.4
850.249	154.49
850.421	132.29
850.592	126.34
850.764	109.24
850.936	99.92
851.107	102.86
851.279	123.39
851.451	99.65
851.622	92.38
851.794	106.46
851.965	108.91
852.137	112.7
852.308	110.82
852.48	111.5
852.651	121.25
852.823	125.92
852.994	132.49
853.166	119.25
853.337	138.54
853.509	139.33
853.68	120.55
853.851	113.5
854.023	106.78
854.194	104.87
854.365	120.72
854.537	112.61
854.708	115.07
854.879	103.45
855.05	115.95
855.222	103.78
855.393	106.1
855.564	111.32
855.735	119.92
855.906	120.51
856.078	120.68
856.249	105.71
856.42	103.22
856.591	105.89
856.762	101.22
856.933	101.9
857.104	97.83
857.275	99.35
857.446	105.2
857.617	96.47
857.788	95.59
857.959	103.1
858.13	119.25
858.301	106.68
858.472	103.73
858.643	106.02
858.814	105.25
858.985	135.9
859.155	168.91
859.326	174.85
859.497	197.92
859.668	298.19
859.839	264.92
860.009	171.83
860.18	241.7
860.351	223.42
860.522	194.84
860.692	171.07
860.863	132.72
861.034	117.13
861.204	101.13
861.375	82.07
861.546	82.92
861.716	78.91
861.887	85.9
862.057	84.01
862.228	83.81
862.398	93.2
862.569	110.62
862.739	144.69
862.91	139.14
863.08	141.06
863.251	161.28
863.421	161.04
863.592	186.12
863.762	179.98
863.932	157.58
864.103	164.69
864.273	165.68
864.443	137.3
864.614	124.35
864.784	124.32
864.954	135.13
865.125	136.51
865.295	125.75
865.465	137.44
865.635	132.77
865.805	126.27
865.976	137.1
866.146	119.18
866.316	141.73
866.486	163.03
866.656	141.83
866.826	141.92
866.996	157.32
867.166	197.97
867.336	173.7
867.506	117.87
867.676	110.63
867.846	97.56
868.016	104.24
868.186	99.05
868.356	90.04
868.526	95.57
868.696	91.24
868.866	89.23
869.036	94.82
869.206	87.84
869.376	95.86
869.545	104.13
869.715	107.3
869.885	119.8
870.055	121.14
870.224	111.45
870.394	107.32
870.564	128.72
870.734	121.98
870.903	122.29
871.073	133.27
871.243	149.26
871.412	154.05
871.582	139.38
871.751	124.1
871.921	125.11
872.091	156.34
872.26	138.58
872.43	130.36
872.599	138.6
872.769	133.53
872.938	152.75
873.108	137.09
873.277	125.2
873.446	137.52
873.616	141.44
873.785	140.46
873.955	141.23
874.124	133.05
874.293	126.13
874.463	110.69
874.632	111.39
874.801	92.39
874.971	97.24
875.14	114.8
875.309	105.86
875.478	84.56
875.647	83.27
875.817	81.39
875.986	93.01
876.155	97.2
876.324	102.55
876.493	92.06
876.662	95.8
876.831	96.61
877	90.26
877.17	89.68
877.339	103.02
877.508	122.38
877.677	135.65
877.846	139.38
878.015	129.86
878.184	113.77
878.352	117.76
878.521	112.25
878.69	102.99
878.859	84.78
879.028	85.81
879.197	76.76
879.366	64.89
879.534	56.12
879.703	47.06
879.872	46.61
880.041	41.62
880.21	43.68
880.378	38.75
880.547	38.29
880.716	43.54
880.884	42.47
881.053	40.83
881.222	40.07
881.39	38.46
881.559	37.56
881.727	37.18
881.896	36.72
882.065	35.47
882.233	39.09
882.402	37.27
882.57	36.79
882.739	36.38
882.907	37.67
883.076	38.05
883.244	39.43
883.412	39.39
883.581	38.5
883.749	40.86
883.918	41.36
884.086	40.95
884.254	44.69
884.423	48.21
884.591	48.4
884.759	51.4
884.927	49.5
885.096	49.87
885.264	53.33
885.432	58.79
885.6	58.25
885.769	61.2
885.937	61.64
886.105	62.91
886.273	60.66
886.441	58.12
886.609	57.88
886.777	64.25
886.945	63.92
887.113	70.7
887.281	71.29
887.449	74.05
887.617	78.26
887.785	81.56
887.953	83.26
888.121	90.07
888.289	99.02
888.457	96.95
888.625	96.9
888.793	100.72
888.961	112.46
889.129	116.95
889.296	121.93
889.464	124.1
889.632	123.54
889.8	124.87
889.967	112.41
890.135	104.84
