Data from JASIL_2911_Reflection_1.txt Node
Date: Sat Nov 07 20:29:20 EST 2015
User: Geneva
Spectrometer: USB4E03002
Autoset integration time: false
Trigger mode: 4
Integration Time (sec): 1.000000E-1
Scans to average: 10
Electric dark correction enabled: true
Nonlinearity correction enabled: false
Boxcar width: 5
Stray light correction enabled: false
XAxis mode: Wavelengths
Stop averaging: false
Number of Pixels in Spectrum: 3648
>>>>>Begin Spectral Data<<<<<
177.575	98.35
177.794	149.41
178.014	104.5
178.233	120.62
178.452	82.06
178.672	90.66
178.891	-1594.19
179.11	219.83
179.33	232.62
179.549	160.53
179.768	137.53
179.987	104.36
180.207	128.99
180.426	111.76
180.645	116.47
180.864	117.13
181.084	111.03
181.303	109.16
181.522	118.36
181.741	108.47
181.96	109.93
182.179	113
182.398	134.24
182.618	121.58
182.837	118.48
183.056	122.38
183.275	115.56
183.494	107.38
183.713	100.24
183.932	104.24
184.151	100.31
184.37	101.32
184.589	108.34
184.808	97.41
185.027	116.37
185.246	119.72
185.465	118.73
185.684	110.1
185.903	122.09
186.122	130.23
186.341	118.87
186.56	123.52
186.779	130.39
186.998	117.95
187.216	117.47
187.435	93.21
187.654	89.94
187.873	91.1
188.092	102.5
188.311	99.05
188.53	99.47
188.748	99.09
188.967	95.23
189.186	99.49
189.405	105.88
189.623	96.4
189.842	101.71
190.061	101.76
190.28	98.16
190.498	88.58
190.717	91.8
190.936	92.41
191.154	84.29
191.373	87.86
191.592	94.03
191.81	96.49
192.029	107.82
192.248	110.63
192.466	109.57
192.685	107.44
192.904	108.61
193.122	98.72
193.341	98.42
193.559	98.99
193.778	102.27
193.996	91.61
194.215	93.89
194.433	91.57
194.652	80.49
194.87	74.92
195.089	82.12
195.307	82.77
195.526	85.79
195.744	80.74
195.963	90.72
196.181	83.06
196.399	87.73
196.618	86.49
196.836	94.57
197.055	102.27
197.273	105.48
197.491	103.69
197.71	111.11
197.928	112.15
198.146	118.71
198.365	110.19
198.583	107.22
198.801	107.82
199.019	102.26
199.238	93.23
199.456	95.21
199.674	102.65
199.892	100.59
200.111	99.93
200.329	100.95
200.547	91.54
200.765	84.98
200.983	101.93
201.202	102.62
201.42	100.94
201.638	101.25
201.856	88.77
202.074	79.14
202.292	79.37
202.51	72.7
202.728	80.64
202.946	80.74
203.165	87.27
203.383	86.15
203.601	83.99
203.819	77.98
204.037	76.2
204.255	81.63
204.473	79.8
204.691	75.04
204.909	79.25
205.127	71.95
205.345	75.29
205.562	80.13
205.78	75.73
205.998	76.11
206.216	71.7
206.434	68.55
206.652	69.54
206.87	74.87
207.088	77.59
207.306	76.04
207.523	81.14
207.741	82.33
207.959	85.16
208.177	86.27
208.395	82.64
208.612	93.71
208.83	96.46
209.048	94.85
209.266	87.31
209.483	89.29
209.701	86.49
209.919	78.16
210.136	73.47
210.354	68.42
210.572	67.08
210.79	73.13
211.007	67.37
211.225	64.92
211.442	64.78
211.66	70.29
211.878	70.6
212.095	123.54
212.313	120.69
212.53	122.9
212.748	115.36
212.966	111.56
213.183	103.15
213.401	111.17
213.618	113.07
213.836	113.35
214.053	109.43
214.271	106.91
214.488	60.1
214.705	59.26
214.923	62.09
215.14	60.18
215.358	58.67
215.575	58.01
215.793	56.32
216.01	57.95
216.227	55.39
216.445	57.21
216.662	60.66
216.879	61.64
217.097	66.62
217.314	61.8
217.531	65.73
217.749	69.32
217.966	72.14
218.183	68.56
218.4	55.12
218.618	56.23
218.835	53.66
219.052	49.73
219.269	48.52
219.487	47.53
219.704	47.98
219.921	45.87
220.138	44.3
220.355	39.55
220.572	43.84
220.79	50.37
221.007	51.1
221.224	47.92
221.441	47.76
221.658	52.23
221.875	48.93
222.092	45.76
222.309	43.87
222.526	42.75
222.743	45.65
222.96	44
223.177	43.43
223.394	43.01
223.611	42.6
223.828	40.25
224.045	37.93
224.262	37.63
224.479	36.99
224.696	36.92
224.913	36.21
225.13	34.48
225.347	32.52
225.564	31.68
225.781	28.7
225.997	28.26
226.214	26.89
226.431	24.22
226.648	22.86
226.865	21.72
227.082	21
227.298	20.08
227.515	19.57
227.732	19.35
227.949	19.05
228.165	19.26
228.382	18.4
228.599	18.27
228.816	18.94
229.032	19.06
229.249	19.52
229.466	19.51
229.682	19.79
229.899	20.05
230.116	20
230.332	19.77
230.549	19.65
230.765	21.01
230.982	21.13
231.199	21.7
231.415	21.76
231.632	22.25
231.848	23.35
232.065	23.18
232.281	22.78
232.498	22.75
232.714	23.37
232.931	23.74
233.147	23.45
233.364	23.36
233.58	21.89
233.797	22.42
234.013	22.64
234.23	21.99
234.446	21.45
234.662	21.24
234.879	20.92
235.095	20.62
235.312	20.59
235.528	20.96
235.744	21.28
235.961	20.93
236.177	19.98
236.393	19.67
236.61	20.24
236.826	20.26
237.042	20.94
237.258	21.03
237.475	20.94
237.691	21.04
237.907	20.33
238.123	19.95
238.339	20.48
238.556	20.64
238.772	20.66
238.988	19.7
239.204	19.35
239.42	19.13
239.636	19.12
239.853	18.32
240.069	17.9
240.285	18.26
240.501	17.91
240.717	17.49
240.933	17.26
241.149	16.9
241.365	16.86
241.581	16.82
241.797	16.48
242.013	16.16
242.229	16.78
242.445	16.46
242.661	15.89
242.877	16.14
243.093	16.42
243.309	16.12
243.525	15.98
243.741	15.94
243.957	15.71
244.173	15.95
244.388	15.83
244.604	14.74
244.82	14.67
245.036	14.26
245.252	13.54
245.468	13.43
245.683	13.55
245.899	13.19
246.115	12.98
246.331	12.88
246.547	12.66
246.762	12.63
246.978	12.88
247.194	12.66
247.409	12.84
247.625	13.05
247.841	12.96
248.057	13.11
248.272	13.16
248.488	13.54
248.703	13.58
248.919	13.91
249.135	14.01
249.35	13.8
249.566	14.38
249.782	13.85
249.997	13.86
250.213	13.56
250.428	12.97
250.644	13.72
250.859	13.35
251.075	13.73
251.29	13.27
251.506	13.04
251.721	12.76
251.937	12.82
252.152	13.14
252.368	13.17
252.583	13.4
252.798	13.88
253.014	13.55
253.229	13.61
253.445	13.63
253.66	13.98
253.875	14.28
254.091	14.82
254.306	14.46
254.521	14.48
254.737	14.48
254.952	14.23
255.167	13.61
255.383	13.46
255.598	13.26
255.813	12.2
256.028	12.44
256.244	12.19
256.459	11.87
256.674	11.05
256.889	10.14
257.104	9.66
257.32	10.07
257.535	10.03
257.75	9.69
257.965	9.84
258.18	10.13
258.395	9.77
258.61	9.81
258.826	9.59
259.041	9.92
259.256	10.17
259.471	10.32
259.686	10.01
259.901	9.99
260.116	10.13
260.331	9.82
260.546	9.81
260.761	9.8
260.976	9.79
261.191	9.96
261.406	9.82
261.621	9.8
261.836	9.79
262.05	9.85
262.265	9.9
262.48	9.88
262.695	10.32
262.91	10.23
263.125	10.89
263.34	11.08
263.555	11.39
263.769	11.45
263.984	11.55
264.199	11.36
264.414	11.59
264.629	11.78
264.843	12
265.058	11.86
265.273	11.41
265.488	10.71
265.702	10.47
265.917	10.43
266.132	10.4
266.346	10.41
266.561	10.2
266.776	10.21
266.99	9.87
267.205	9.84
267.42	9.76
267.634	9.75
267.849	10.06
268.063	9.93
268.278	9.83
268.492	9.73
268.707	9.46
268.922	9.99
269.136	9.76
269.351	9.61
269.565	9.54
269.78	9.42
269.994	9.49
270.209	9.59
270.423	9.75
270.637	9.57
270.852	9.51
271.066	9.52
271.281	9.34
271.495	9.3
271.709	9.51
271.924	9.47
272.138	9.7
272.353	9.88
272.567	9.6
272.781	9.55
272.996	9.7
273.21	9.64
273.424	9.7
273.638	9.35
273.853	9.6
274.067	9.71
274.281	9.65
274.495	9.58
274.71	9.55
274.924	9.59
275.138	9.46
275.352	9.47
275.566	9.74
275.781	9.86
275.995	10.2
276.209	10.13
276.423	9.73
276.637	9.41
276.851	9.36
277.065	9.22
277.279	9.1
277.493	9.11
277.707	9.19
277.921	9
278.135	8.58
278.349	8.23
278.563	8.12
278.777	8.47
278.991	8.9
279.205	8.99
279.419	9.08
279.633	9.25
279.847	9.28
280.061	9.23
280.275	8.96
280.489	9.28
280.703	9.44
280.917	9.46
281.131	9.2
281.344	9.14
281.558	8.85
281.772	8.76
281.986	8.68
282.2	8.67
282.414	8.49
282.627	8.65
282.841	8.65
283.055	8.71
283.269	8.6
283.482	8.8
283.696	8.68
283.91	8.72
284.123	8.66
284.337	8.78
284.551	8.52
284.764	8.6
284.978	8.5
285.192	8.43
285.405	8.35
285.619	8.39
285.833	8.38
286.046	8.22
286.26	8.37
286.473	8.27
286.687	8.03
286.9	8.29
287.114	8.01
287.327	8.01
287.541	7.86
287.754	7.96
287.968	8.01
288.181	7.99
288.395	8.16
288.608	8.19
288.822	8.27
289.035	8.22
289.248	8.12
289.462	8.48
289.675	8.58
289.889	8.74
290.102	8.57
290.315	8.52
290.529	8.48
290.742	8.56
290.955	8.56
291.169	8.68
291.382	8.76
291.595	8.94
291.808	8.64
292.022	8.64
292.235	8.66
292.448	8.81
292.661	8.72
292.875	8.65
293.088	8.62
293.301	8.32
293.514	8.11
293.727	8.26
293.94	8.24
294.153	8.31
294.367	8.42
294.58	8.23
294.793	8.2
295.006	8.31
295.219	8.45
295.432	8.42
295.645	8.64
295.858	8.66
296.071	8.48
296.284	8.29
296.497	8.25
296.71	8.11
296.923	8.23
297.136	8.26
297.349	8.39
297.562	8.1
297.775	8.18
297.988	8.18
298.201	8.28
298.414	8.57
298.626	8.63
298.839	8.77
299.052	8.9
299.265	9
299.478	8.88
299.691	8.71
299.903	8.98
300.116	9.02
300.329	8.79
300.542	8.87
300.755	8.88
300.967	9.09
301.18	9.01
301.393	8.88
301.605	8.74
301.818	8.81
302.031	8.97
302.243	9.03
302.456	8.82
302.669	9.03
302.881	9.24
303.094	9.07
303.307	8.78
303.519	8.85
303.732	8.92
303.944	9.03
304.157	9.08
304.37	9.04
304.582	9.02
304.795	9.15
305.007	9.32
305.22	8.99
305.432	8.95
305.645	9.27
305.857	9.26
306.069	9.24
306.282	9.2
306.494	9.18
306.707	9.18
306.919	9.07
307.132	8.88
307.344	8.48
307.556	8.51
307.769	8.8
307.981	8.73
308.193	8.75
308.406	8.67
308.618	8.56
308.83	8.4
309.043	8.3
309.255	8.43
309.467	8.5
309.679	8.72
309.892	8.79
310.104	8.49
310.316	8.46
310.528	8.33
310.74	8.45
310.953	8.44
311.165	8.6
311.377	8.43
311.589	8.33
311.801	8.46
312.013	8.49
312.225	8.5
312.437	8.75
312.649	8.98
312.862	9.05
313.074	8.92
313.286	9.05
313.498	8.99
313.71	9.3
313.922	9.6
314.134	9.41
314.346	9.42
314.558	9.37
314.77	9.46
314.982	9.46
315.193	9.5
315.405	9.67
315.617	9.45
315.829	9.43
316.041	9.67
316.253	9.4
316.465	9.52
316.677	9.48
316.888	9.43
317.1	9.31
317.312	9.01
317.524	9.06
317.736	9.29
317.947	9.66
318.159	9.87
318.371	9.39
318.583	9.49
318.794	9.43
319.006	9.21
319.218	9.27
319.43	9.03
319.641	9.28
319.853	9.46
320.064	9.62
320.276	9.43
320.488	9.24
320.699	9.47
320.911	9.43
321.123	9.64
321.334	10.01
321.546	10.23
321.757	10.39
321.969	10.22
322.18	9.92
322.392	9.51
322.603	9.58
322.815	9.74
323.026	9.62
323.238	9.26
323.449	9.22
323.661	9.11
323.872	9.04
324.083	9.29
324.295	9.4
324.506	9.51
324.718	9.59
324.929	9.44
325.14	9.62
325.352	9.82
325.563	10.23
325.774	10.33
325.986	10.43
326.197	10.63
326.408	10.59
326.62	10.51
326.831	10.73
327.042	10.76
327.253	10.94
327.464	10.92
327.676	11.03
327.887	11.02
328.098	11
328.309	11.04
328.52	11.03
328.732	11.03
328.943	11.41
329.154	11.43
329.365	11.77
329.576	11.91
329.787	11.96
329.998	12
330.209	12.23
330.42	12.41
330.631	12.53
330.842	12.51
331.053	12.45
331.264	12.38
331.475	12.42
331.686	12.16
331.897	12.22
332.108	12.23
332.319	12.08
332.53	12.05
332.741	11.85
332.952	11.98
333.163	11.95
333.374	12.07
333.585	12.16
333.795	12.19
334.006	12.24
334.217	12.29
334.428	12.32
334.639	12.57
334.849	12.37
335.06	12.49
335.271	12.22
335.482	12.26
335.692	12.19
335.903	12.1
336.114	12.15
336.325	12.28
336.535	12.34
336.746	12.41
336.957	12.31
337.167	12.33
337.378	12.42
337.589	12.76
337.799	12.75
338.01	12.87
338.22	12.8
338.431	12.72
338.642	12.78
338.852	12.72
339.063	12.42
339.273	12.37
339.484	12.51
339.694	12.59
339.905	12.37
340.115	12.45
340.326	12.43
340.536	12.46
340.746	12.38
340.957	12.27
341.167	12.3
341.378	12.63
341.588	12.68
341.799	12.63
342.009	12.49
342.219	12.39
342.43	12.33
342.64	12.15
342.85	12.06
343.061	12.16
343.271	12.17
343.481	12.16
343.691	11.81
343.902	11.76
344.112	11.7
344.322	11.86
344.532	12
344.743	11.99
344.953	11.97
345.163	11.86
345.373	11.74
345.583	11.76
345.793	11.64
346.004	11.9
346.214	11.93
346.424	12.08
346.634	11.8
346.844	11.81
347.054	11.78
347.264	11.99
347.474	12.24
347.684	12.36
347.894	12.31
348.104	12.4
348.314	12.34
348.524	12.29
348.734	12.03
348.944	12.06
349.154	11.93
349.364	11.94
349.574	11.87
349.784	11.85
349.994	11.83
350.204	11.68
350.413	11.56
350.623	11.46
350.833	11.43
351.043	11.47
351.253	11.43
351.463	11.45
351.672	11.56
351.882	11.44
352.092	11.43
352.302	11.47
352.511	11.52
352.721	11.59
352.931	11.5
353.141	11.48
353.35	11.61
353.56	11.52
353.77	11.67
353.979	11.51
354.189	11.54
354.399	11.37
354.608	11.09
354.818	11.12
355.027	11.09
355.237	11.24
355.447	11.19
355.656	11.03
355.866	11.03
356.075	10.89
356.285	10.8
356.494	10.84
356.704	10.88
356.913	11.01
357.123	10.94
357.332	10.86
357.542	10.85
357.751	10.81
357.96	10.98
358.17	10.99
358.379	10.97
358.589	11.14
358.798	11
359.007	11.09
359.217	11.04
359.426	10.96
359.635	10.95
359.845	10.86
360.054	10.87
360.263	10.82
360.472	10.79
360.682	10.77
360.891	10.54
361.1	10.59
361.309	10.51
361.519	10.48
361.728	10.59
361.937	10.6
362.146	10.65
362.355	10.6
362.564	10.42
362.774	10.48
362.983	10.49
363.192	10.69
363.401	10.77
363.61	10.64
363.819	10.61
364.028	10.49
364.237	10.32
364.446	10.16
364.655	10.2
364.864	10.35
365.073	10.41
365.282	10.39
365.491	10.21
365.7	10.09
365.909	10.26
366.118	10.3
366.327	10.29
366.536	10.43
366.745	10.62
366.954	10.78
367.162	10.79
367.371	10.72
367.58	10.79
367.789	10.93
367.998	10.98
368.207	10.95
368.415	10.94
368.624	10.97
368.833	10.93
369.042	10.88
369.25	10.79
369.459	10.69
369.668	10.58
369.877	10.43
370.085	10.29
370.294	10.19
370.503	10.01
370.711	10.07
370.92	10.11
371.129	10.05
371.337	9.84
371.546	9.65
371.754	9.71
371.963	9.71
372.171	9.68
372.38	9.67
372.589	9.8
372.797	9.82
373.006	9.71
373.214	9.73
373.423	9.75
373.631	9.88
373.84	9.94
374.048	9.84
374.256	9.87
374.465	9.93
374.673	9.89
374.882	9.76
375.09	9.81
375.298	9.8
375.507	9.65
375.715	9.67
375.923	9.45
376.132	9.42
376.34	9.43
376.548	9.3
376.757	9.32
376.965	9.37
377.173	9.42
377.381	9.5
377.59	9.55
377.798	9.55
378.006	9.39
378.214	9.49
378.423	9.44
378.631	9.36
378.839	9.45
379.047	9.27
379.255	9.15
379.463	9.07
379.671	8.95
379.879	8.9
380.088	8.9
380.296	9.03
380.504	9.06
380.712	9.09
380.92	9.16
381.128	9.17
381.336	9.09
381.544	9.16
381.752	9.22
381.96	9.23
382.168	9.17
382.376	9.23
382.584	9.27
382.791	9.33
382.999	9.38
383.207	9.32
383.415	9.38
383.623	9.48
383.831	9.44
384.039	9.34
384.247	9.29
384.454	9.28
384.662	9.17
384.87	9.12
385.078	9.06
385.285	8.88
385.493	8.85
385.701	8.68
385.909	8.65
386.116	8.69
386.324	8.7
386.532	8.69
386.739	8.69
386.947	8.74
387.155	8.7
387.362	8.63
387.57	8.75
387.778	8.8
387.985	8.85
388.193	8.85
388.4	8.91
388.608	8.92
388.816	8.91
389.023	8.86
389.231	8.74
389.438	8.71
389.646	8.66
389.853	8.69
390.061	8.57
390.268	8.51
390.475	8.51
390.683	8.46
390.89	8.46
391.098	8.46
391.305	8.53
391.512	8.54
391.72	8.48
391.927	8.5
392.135	8.38
392.342	8.38
392.549	8.44
392.756	8.4
392.964	8.33
393.171	8.27
393.378	8.26
393.586	8.17
393.793	8.2
394	8.14
394.207	8.14
394.414	8.2
394.622	8.29
394.829	8.18
395.036	8.22
395.243	8.19
395.45	8.19
395.657	8.21
395.864	8.2
396.072	8.11
396.279	8.22
396.486	8.18
396.693	8.15
396.9	8.05
397.107	7.97
397.314	7.94
397.521	8
397.728	8.01
397.935	8
398.142	7.99
398.349	8.11
398.556	8
398.763	7.93
398.97	7.93
399.177	7.92
399.383	7.96
399.59	7.9
399.797	7.86
400.004	7.82
400.211	7.87
400.418	7.84
400.625	7.73
400.831	7.82
401.038	7.84
401.245	7.81
401.452	7.89
401.658	7.88
401.865	7.85
402.072	7.85
402.279	7.87
402.485	7.76
402.692	7.79
402.899	7.76
403.105	7.72
403.312	7.79
403.519	7.79
403.725	7.69
403.932	7.79
404.138	7.82
404.345	7.79
404.552	7.8
404.758	7.88
404.965	7.85
405.171	7.85
405.378	7.79
405.584	7.8
405.791	7.7
405.997	7.71
406.204	7.66
406.41	7.74
406.617	7.76
406.823	7.69
407.029	7.67
407.236	7.76
407.442	7.89
407.649	7.89
407.855	7.79
408.061	7.88
408.268	7.93
408.474	7.82
408.68	7.67
408.887	7.67
409.093	7.64
409.299	7.61
409.505	7.49
409.712	7.39
409.918	7.43
410.124	7.43
410.33	7.4
410.537	7.31
410.743	7.39
410.949	7.44
411.155	7.49
411.361	7.52
411.567	7.49
411.773	7.52
411.98	7.52
412.186	7.62
412.392	7.69
412.598	7.64
412.804	7.71
413.01	7.67
413.216	7.66
413.422	7.63
413.628	7.64
413.834	7.52
414.04	7.56
414.246	7.51
414.452	7.4
414.658	7.36
414.864	7.38
415.07	7.33
415.275	7.34
415.481	7.32
415.687	7.17
415.893	7.14
416.099	7.21
416.305	7.08
416.511	7.09
416.716	7.05
416.922	7.03
417.128	7.04
417.334	7.07
417.539	7.01
417.745	6.97
417.951	6.99
418.157	6.99
418.362	6.97
418.568	6.98
418.774	6.96
418.979	7.01
419.185	7
419.391	6.94
419.596	6.88
419.802	6.89
420.008	6.91
420.213	6.64
420.419	6.67
420.624	6.65
420.83	6.68
421.035	6.66
421.241	6.6
421.446	6.6
421.652	6.61
421.857	6.65
422.063	6.61
422.268	6.63
422.474	6.9
422.679	6.84
422.885	6.85
423.09	6.82
423.295	6.82
423.501	6.84
423.706	6.83
423.911	6.81
424.117	6.75
424.322	6.79
424.527	6.76
424.733	6.72
424.938	6.73
425.143	6.7
425.349	6.71
425.554	6.77
425.759	6.75
425.964	6.75
426.169	6.76
426.375	6.8
426.58	6.79
426.785	6.8
426.99	6.84
427.195	6.85
427.4	6.89
427.605	6.91
427.811	6.89
428.016	6.94
428.221	6.94
428.426	6.93
428.631	6.96
428.836	6.93
429.041	6.95
429.246	6.95
429.451	6.97
429.656	7
429.861	6.96
430.066	6.97
430.271	6.95
430.476	6.98
430.681	7
430.886	6.99
431.09	7
431.295	6.96
431.5	7
431.705	6.91
431.91	6.84
432.115	6.85
432.32	6.79
432.524	6.79
432.729	6.74
432.934	6.71
433.139	6.72
433.343	6.71
433.548	6.77
433.753	6.74
433.958	6.79
434.162	6.83
434.367	6.84
434.572	6.86
434.776	6.85
434.981	6.88
435.186	6.9
435.39	6.89
435.595	6.88
435.799	6.81
436.004	6.81
436.209	6.77
436.413	6.77
436.618	6.73
436.822	6.68
437.027	6.63
437.231	6.59
437.436	6.56
437.64	6.56
437.845	6.57
438.049	6.64
438.253	6.59
438.458	6.58
438.662	6.6
438.867	6.58
439.071	6.63
439.275	6.66
439.48	6.73
439.684	6.72
439.888	6.73
440.093	6.74
440.297	6.68
440.501	6.74
440.706	6.75
440.91	6.73
441.114	6.77
441.318	6.72
441.523	6.73
441.727	6.69
441.931	6.72
442.135	6.72
442.339	6.71
442.543	6.75
442.748	6.73
442.952	6.71
443.156	6.71
443.36	6.72
443.564	6.74
443.768	6.68
443.972	6.69
444.176	6.65
444.38	6.65
444.584	6.64
444.788	6.57
444.992	6.54
445.196	6.54
445.4	6.48
445.604	6.45
445.808	6.43
446.012	6.44
446.216	6.39
446.42	6.42
446.624	6.4
446.828	6.37
447.032	6.37
447.235	6.35
447.439	6.35
447.643	6.43
447.847	6.49
448.051	6.52
448.254	6.53
448.458	6.58
448.662	6.58
448.866	6.55
449.069	6.56
449.273	6.66
449.477	6.68
449.681	6.69
449.884	6.63
450.088	6.58
450.292	6.54
450.495	6.5
450.699	6.55
450.902	6.53
451.106	6.53
451.31	6.57
451.513	6.49
451.717	6.51
451.92	6.53
452.124	6.56
452.327	6.56
452.531	6.57
452.734	6.59
452.938	6.55
453.141	6.6
453.345	6.6
453.548	6.58
453.752	6.62
453.955	6.65
454.158	6.63
454.362	6.6
454.565	6.61
454.769	6.61
454.972	6.66
455.175	6.66
455.379	6.59
455.582	6.59
455.785	6.59
455.988	6.59
456.192	6.57
456.395	6.58
456.598	6.58
456.801	6.56
457.005	6.52
457.208	6.49
457.411	6.48
457.614	6.5
457.817	6.49
458.021	6.46
458.224	6.44
458.427	6.4
458.63	6.4
458.833	6.38
459.036	6.34
459.239	6.35
459.442	6.34
459.645	6.32
459.848	6.33
460.051	6.32
460.254	6.36
460.457	6.37
460.66	6.41
460.863	6.45
461.066	6.44
461.269	6.49
461.472	6.56
461.675	6.57
461.878	6.6
462.081	6.58
462.284	6.61
462.486	6.58
462.689	6.61
462.892	6.61
463.095	6.57
463.298	6.61
463.5	6.56
463.703	6.49
463.906	6.5
464.109	6.57
464.311	6.57
464.514	6.61
464.717	6.63
464.92	6.62
465.122	6.6
465.325	6.66
465.528	6.69
465.73	6.74
465.933	6.73
466.135	6.63
466.338	6.57
466.541	6.57
466.743	6.53
466.946	6.54
467.148	6.56
467.351	6.55
467.553	6.51
467.756	6.43
467.958	6.41
468.161	6.43
468.363	6.5
468.566	6.47
468.768	6.45
468.971	6.45
469.173	6.43
469.375	6.42
469.578	6.3
469.78	6.32
469.983	6.36
470.185	6.39
470.387	6.4
470.59	6.44
470.792	6.5
470.994	6.49
471.196	6.49
471.399	6.45
471.601	6.41
471.803	6.45
472.005	6.46
472.208	6.45
472.41	6.44
472.612	6.37
472.814	6.37
473.016	6.37
473.218	6.44
473.421	6.39
473.623	6.43
473.825	6.46
474.027	6.52
474.229	6.48
474.431	6.47
474.633	6.5
474.835	6.6
475.037	6.56
475.239	6.55
475.441	6.47
475.643	6.53
475.845	6.5
476.047	6.53
476.249	6.53
476.451	6.54
476.653	6.55
476.855	6.52
477.057	6.45
477.258	6.44
477.46	6.43
477.662	6.48
477.864	6.46
478.066	6.43
478.268	6.39
478.469	6.38
478.671	6.38
478.873	6.37
479.075	6.35
479.276	6.33
479.478	6.39
479.68	6.35
479.882	6.36
480.083	6.34
480.285	6.35
480.487	6.36
480.688	6.35
480.89	6.34
481.091	6.31
481.293	6.34
481.495	6.33
481.696	6.3
481.898	6.3
482.099	6.26
482.301	6.23
482.502	6.22
482.704	6.16
482.905	6.14
483.107	6.1
483.308	6.08
483.51	6.05
483.711	6.06
483.913	6.07
484.114	6.05
484.315	6.06
484.517	6.08
484.718	6.09
484.92	6.14
485.121	6.15
485.322	6.16
485.524	6.19
485.725	6.21
485.926	6.2
486.127	6.16
486.329	6.16
486.53	6.15
486.731	6.12
486.932	6.12
487.134	6.1
487.335	6.11
487.536	6.12
487.737	6.12
487.938	6.11
488.139	6.13
488.341	6.14
488.542	6.19
488.743	6.19
488.944	6.24
489.145	6.24
489.346	6.29
489.547	6.29
489.748	6.3
489.949	6.28
490.15	6.27
490.351	6.25
490.552	6.26
490.753	6.23
490.954	6.21
491.155	6.17
491.356	6.17
491.557	6.15
491.758	6.15
491.959	6.15
492.159	6.16
492.36	6.18
492.561	6.19
492.762	6.2
492.963	6.19
493.164	6.27
493.364	6.33
493.565	6.39
493.766	6.42
493.967	6.45
494.167	6.45
494.368	6.47
494.569	6.48
494.769	6.53
494.97	6.53
495.171	6.57
495.371	6.5
495.572	6.46
495.773	6.41
495.973	6.4
496.174	6.39
496.375	6.43
496.575	6.44
496.776	6.47
496.976	6.46
497.177	6.46
497.377	6.5
497.578	6.52
497.778	6.55
497.979	6.59
498.179	6.63
498.38	6.64
498.58	6.64
498.78	6.64
498.981	6.66
499.181	6.66
499.382	6.67
499.582	6.63
499.782	6.66
499.983	6.69
500.183	6.69
500.383	6.67
500.584	6.69
500.784	6.74
500.984	6.76
501.184	6.75
501.385	6.79
501.585	6.81
501.785	6.82
501.985	6.88
502.185	6.91
502.386	6.92
502.586	6.9
502.786	6.93
502.986	6.91
503.186	6.93
503.386	6.96
503.586	6.99
503.786	6.99
503.987	7.04
504.187	7.01
504.387	7
504.587	7.02
504.787	7.05
504.987	7.03
505.187	7.04
505.387	7.06
505.587	7.1
505.786	7.11
505.986	7.12
506.186	7.1
506.386	7.14
506.586	7.14
506.786	7.15
506.986	7.15
507.186	7.18
507.386	7.19
507.585	7.16
507.785	7.16
507.985	7.15
508.185	7.21
508.384	7.21
508.584	7.18
508.784	7.21
508.984	7.24
509.183	7.28
509.383	7.25
509.583	7.24
509.782	7.3
509.982	7.31
510.182	7.28
510.381	7.3
510.581	7.36
510.781	7.43
510.98	7.49
511.18	7.51
511.379	7.52
511.579	7.59
511.778	7.66
511.978	7.69
512.177	7.73
512.377	7.79
512.576	7.79
512.776	7.77
512.975	7.78
513.175	7.76
513.374	7.77
513.573	7.8
513.773	7.82
513.972	7.8
514.172	7.85
514.371	7.89
514.57	7.95
514.77	8
514.969	8.03
515.168	8.08
515.367	8.13
515.567	8.15
515.766	8.17
515.965	8.19
516.164	8.24
516.364	8.24
516.563	8.22
516.762	8.2
516.961	8.19
517.16	8.26
517.359	8.23
517.559	8.24
517.758	8.27
517.957	8.26
518.156	8.28
518.355	8.29
518.554	8.33
518.753	8.36
518.952	8.37
519.151	8.4
519.35	8.38
519.549	8.41
519.748	8.45
519.947	8.48
520.146	8.52
520.345	8.52
520.544	8.56
520.743	8.54
520.942	8.56
521.141	8.61
521.339	8.63
521.538	8.67
521.737	8.68
521.936	8.67
522.135	8.7
522.333	8.73
522.532	8.78
522.731	8.78
522.93	8.81
523.129	8.83
523.327	8.88
523.526	8.88
523.725	8.9
523.923	8.94
524.122	8.96
524.321	8.93
524.519	8.94
524.718	8.99
524.917	9
525.115	9.03
525.314	9.03
525.512	9.04
525.711	9.05
525.909	9.05
526.108	9.06
526.306	9.09
526.505	9.15
526.703	9.14
526.902	9.14
527.1	9.15
527.299	9.15
527.497	9.16
527.696	9.16
527.894	9.18
528.092	9.19
528.291	9.19
528.489	9.19
528.688	9.19
528.886	9.21
529.084	9.23
529.283	9.25
529.481	9.29
529.679	9.32
529.877	9.35
530.076	9.39
530.274	9.44
530.472	9.49
530.67	9.54
530.869	9.56
531.067	9.59
531.265	9.6
531.463	9.66
531.661	9.65
531.859	9.67
532.057	9.69
532.255	9.67
532.454	9.69
532.652	9.71
532.85	9.73
533.048	9.77
533.246	9.81
533.444	9.83
533.642	9.83
533.84	9.85
534.038	9.91
534.236	9.94
534.434	9.99
534.632	10.03
534.83	10.07
535.027	10.1
535.225	10.1
535.423	10.12
535.621	10.15
535.819	10.18
536.017	10.21
536.215	10.2
536.412	10.21
536.61	10.26
536.808	10.28
537.006	10.29
537.203	10.35
537.401	10.38
537.599	10.4
537.797	10.44
537.994	10.46
538.192	10.51
538.39	10.57
538.587	10.59
538.785	10.6
538.983	10.62
539.18	10.66
539.378	10.66
539.575	10.67
539.773	10.67
539.97	10.67
540.168	10.68
540.366	10.68
540.563	10.69
540.761	10.71
540.958	10.72
541.155	10.71
541.353	10.72
541.55	10.74
541.748	10.76
541.945	10.8
542.143	10.83
542.34	10.86
542.537	10.86
542.735	10.89
542.932	10.91
543.129	10.94
543.327	11.01
543.524	11.07
543.721	11.08
543.919	11.12
544.116	11.17
544.313	11.24
544.51	11.29
544.708	11.36
544.905	11.39
545.102	11.49
545.299	11.55
545.496	11.59
545.693	11.58
545.891	11.64
546.088	11.68
546.285	11.71
546.482	11.72
546.679	11.76
546.876	11.79
547.073	11.83
547.27	11.81
547.467	11.8
547.664	11.83
547.861	11.85
548.058	11.91
548.255	11.95
548.452	12.02
548.649	12.11
548.846	12.11
549.043	12.09
549.24	12.11
549.437	12.13
549.633	12.17
549.83	12.21
550.027	12.26
550.224	12.28
550.421	12.27
550.618	12.24
550.814	12.25
551.011	12.3
551.208	12.38
551.405	12.39
551.601	12.44
551.798	12.48
551.995	12.5
552.191	12.53
552.388	12.52
552.585	12.55
552.781	12.56
552.978	12.59
553.175	12.67
553.371	12.71
553.568	12.77
553.764	12.81
553.961	12.85
554.157	12.91
554.354	12.96
554.55	13.02
554.747	13.05
554.943	13.12
555.14	13.12
555.336	13.1
555.533	13.15
555.729	13.19
555.926	13.24
556.122	13.29
556.318	13.29
556.515	13.3
556.711	13.33
556.907	13.38
557.104	13.45
557.3	13.51
557.496	13.55
557.693	13.52
557.889	13.5
558.085	13.51
558.281	13.59
558.478	13.63
558.674	13.62
558.87	13.62
559.066	13.65
559.262	13.65
559.459	13.65
559.655	13.7
559.851	13.76
560.047	13.86
560.243	13.84
560.439	13.8
560.635	13.83
560.831	13.89
561.027	13.94
561.223	13.95
561.419	14
561.615	14.05
561.811	14.05
562.007	14.13
562.203	14.08
562.399	14.14
562.595	14.2
562.791	14.24
562.987	14.26
563.183	14.28
563.379	14.31
563.575	14.36
563.771	14.3
563.966	14.31
564.162	14.31
564.358	14.33
564.554	14.36
564.75	14.33
564.945	14.34
565.141	14.37
565.337	14.35
565.533	14.39
565.728	14.39
565.924	14.47
566.12	14.49
566.315	14.54
566.511	14.55
566.707	14.56
566.902	14.66
567.098	14.73
567.293	14.75
567.489	14.79
567.684	14.81
567.88	14.81
568.076	14.83
568.271	14.94
568.467	14.91
568.662	14.92
568.858	14.96
569.053	14.94
569.248	14.89
569.444	14.88
569.639	14.9
569.835	14.87
570.03	14.89
570.225	14.89
570.421	14.86
570.616	14.96
570.812	15.05
571.007	15.06
571.202	15.07
571.397	15.09
571.593	15.11
571.788	15.2
571.983	15.26
572.178	15.26
572.374	15.31
572.569	15.31
572.764	15.26
572.959	15.23
573.154	15.2
573.35	15.23
573.545	15.24
573.74	15.26
573.935	15.23
574.13	15.2
574.325	15.21
574.52	15.25
574.715	15.27
574.91	15.3
575.105	15.38
575.3	15.42
575.495	15.44
575.69	15.49
575.885	15.56
576.08	15.59
576.275	15.62
576.47	15.64
576.665	15.59
576.86	15.62
577.055	15.62
577.25	15.57
577.444	15.58
577.639	15.65
577.834	15.62
578.029	15.66
578.224	15.63
578.418	15.7
578.613	15.71
578.808	15.68
579.003	15.71
579.197	15.74
579.392	15.73
579.587	15.75
579.781	15.68
579.976	15.7
580.171	15.62
580.365	15.62
580.56	15.58
580.755	15.63
580.949	15.66
581.144	15.62
581.338	15.59
581.533	15.7
581.727	15.69
581.922	15.73
582.116	15.7
582.311	15.76
582.505	15.79
582.7	15.78
582.894	15.79
583.089	15.79
583.283	15.84
583.478	15.9
583.672	15.83
583.866	15.85
584.061	15.83
584.255	15.87
584.449	15.83
584.644	15.82
584.838	15.93
585.032	15.99
585.226	16.05
585.421	16.02
585.615	16.03
585.809	16.09
586.003	16.1
586.198	16.12
586.392	16.14
586.586	16.2
586.78	16.19
586.974	16.19
587.168	16.05
587.363	16.07
587.557	16.06
587.751	16.1
587.945	16.12
588.139	16.19
588.333	16.28
588.527	16.29
588.721	16.34
588.915	16.39
589.109	16.3
589.303	16.42
589.497	16.42
589.691	16.43
589.885	16.43
590.079	16.37
590.273	16.34
590.466	16.3
590.66	16.34
590.854	16.27
591.048	16.3
591.242	16.37
591.436	16.32
591.629	16.33
591.823	16.38
592.017	16.36
592.211	16.41
592.404	16.4
592.598	16.32
592.792	16.32
592.986	16.35
593.179	16.33
593.373	16.37
593.567	16.4
593.76	16.46
593.954	16.49
594.147	16.54
594.341	16.5
594.535	16.5
594.728	16.57
594.922	16.54
595.115	16.54
595.309	16.49
595.502	16.51
595.696	16.51
595.889	16.48
596.083	16.45
596.276	16.42
596.47	16.45
596.663	16.48
596.856	16.46
597.05	16.47
597.243	16.44
597.437	16.52
597.63	16.5
597.823	16.52
598.017	16.47
598.21	16.5
598.403	16.51
598.596	16.53
598.79	16.56
598.983	16.58
599.176	16.57
599.369	16.59
599.563	16.63
599.756	16.67
599.949	16.73
600.142	16.74
600.335	16.74
600.528	16.79
600.722	16.77
600.915	16.81
601.108	16.81
601.301	16.87
601.494	16.9
601.687	16.86
601.88	16.82
602.073	16.7
602.266	16.78
602.459	16.79
602.652	16.74
602.845	16.79
603.038	16.71
603.231	16.72
603.424	16.68
603.617	16.7
603.809	16.68
604.002	16.66
604.195	16.7
604.388	16.69
604.581	16.68
604.774	16.69
604.966	16.61
605.159	16.61
605.352	16.62
605.545	16.72
605.737	16.74
605.93	16.78
606.123	16.79
606.316	16.8
606.508	16.83
606.701	16.9
606.894	16.92
607.086	17.01
607.279	17.05
607.471	17.01
607.664	16.93
607.857	16.86
608.049	16.93
608.242	16.94
608.434	16.85
608.627	16.79
608.819	16.76
609.012	16.78
609.204	16.78
609.397	16.74
609.589	16.76
609.782	16.78
609.974	16.85
610.166	16.84
610.359	16.98
610.551	17.08
610.743	17.1
610.936	17.18
611.128	17.18
611.32	17.15
611.513	17.24
611.705	17.25
611.897	17.24
612.09	17.28
612.282	17.21
612.474	17.02
612.666	17.11
612.858	17.25
613.051	17.13
613.243	17.14
613.435	17.19
613.627	17.19
613.819	17.24
614.011	17.5
614.203	17.42
614.395	17.47
614.588	17.52
614.78	17.46
614.972	17.4
615.164	17.39
615.356	17.41
615.548	17.41
615.74	17.49
615.932	17.49
616.124	17.26
616.315	17.32
616.507	17.32
616.699	17.3
616.891	17.26
617.083	17.29
617.275	17.33
617.467	17.32
617.659	17.34
617.85	17.28
618.042	17.3
618.234	17.33
618.426	17.34
618.618	17.33
618.809	17.33
619.001	17.34
619.193	17.28
619.384	17.29
619.576	17.3
619.768	17.3
619.959	17.31
620.151	17.25
620.343	17.23
620.534	17.17
620.726	17.21
620.917	17.29
621.109	17.31
621.301	17.29
621.492	17.28
621.684	17.3
621.875	17.2
622.067	17.26
622.258	17.29
622.45	17.34
622.641	17.32
622.832	17.28
623.024	17.25
623.215	17.32
623.407	17.34
623.598	17.37
623.789	17.36
623.981	17.38
624.172	17.33
624.363	17.31
624.555	17.27
624.746	17.3
624.937	17.25
625.129	17.26
625.32	17.28
625.511	17.33
625.702	17.23
625.893	17.26
626.085	17.31
626.276	17.26
626.467	17.23
626.658	17.22
626.849	17.26
627.04	17.29
627.231	17.31
627.422	17.27
627.614	17.18
627.805	17.26
627.996	17.19
628.187	17.16
628.378	17.18
628.569	17.22
628.76	17.27
628.951	17.19
629.142	17.21
629.332	17.14
629.523	17.13
629.714	17.17
629.905	17.21
630.096	17.15
630.287	17.18
630.478	17.16
630.669	17.2
630.859	17.21
631.05	17.23
631.241	17.3
631.432	17.33
631.623	17.4
631.813	17.47
632.004	17.37
632.195	17.45
632.385	17.4
632.576	17.52
632.767	17.54
632.957	17.52
633.148	17.6
633.339	17.49
633.529	17.48
633.72	17.36
633.91	17.31
634.101	17.29
634.292	17.3
634.482	17.29
634.673	17.29
634.863	17.32
635.054	17.37
635.244	17.3
635.435	17.43
635.625	17.42
635.815	17.44
636.006	17.41
636.196	17.48
636.387	17.49
636.577	17.63
636.767	17.58
636.958	17.52
637.148	17.48
637.338	17.54
637.529	17.4
637.719	17.45
637.909	17.51
638.099	17.58
638.29	17.56
638.48	17.54
638.67	17.43
638.86	17.45
639.05	17.53
639.241	17.51
639.431	17.46
639.621	17.5
639.811	17.48
640.001	17.49
640.191	17.46
640.381	17.43
640.571	17.4
640.761	17.42
640.951	17.33
641.141	17.29
641.331	17.34
641.521	17.34
641.711	17.31
641.901	17.29
642.091	17.27
642.281	17.22
642.471	17.33
642.661	17.48
642.851	17.56
643.041	17.68
643.231	17.67
643.42	17.74
643.61	17.79
643.8	17.87
643.99	17.94
644.18	17.94
644.369	18.01
644.559	17.97
644.749	17.89
644.939	17.82
645.128	17.73
645.318	17.67
645.508	17.65
645.697	17.62
645.887	17.56
646.076	17.54
646.266	17.55
646.456	17.58
646.645	17.67
646.835	17.67
647.024	17.62
647.214	17.72
647.403	17.71
647.593	17.66
647.782	17.68
647.972	17.75
648.161	17.76
648.351	17.78
648.54	17.83
648.73	17.75
648.919	17.69
649.108	17.71
649.298	17.66
649.487	17.62
649.677	17.51
649.866	17.57
650.055	17.45
650.244	17.55
650.434	17.55
650.623	17.44
650.812	17.43
651.002	17.48
651.191	17.61
651.38	17.65
651.569	17.64
651.758	17.75
651.947	17.77
652.137	17.83
652.326	17.72
652.515	17.73
652.704	17.74
652.893	17.76
653.082	17.77
653.271	17.65
653.46	17.6
653.649	17.69
653.838	17.71
654.027	17.73
654.216	17.69
654.405	17.67
654.594	17.68
654.783	17.77
654.972	17.71
655.161	17.71
655.35	17.68
655.539	17.62
655.728	17.71
655.916	17.7
656.105	17.72
656.294	17.81
656.483	17.81
656.672	17.82
656.86	17.65
657.049	17.69
657.238	17.67
657.427	17.8
657.615	17.82
657.804	17.75
657.993	17.7
658.181	17.65
658.37	17.57
658.559	17.59
658.747	17.63
658.936	17.74
659.125	17.85
659.313	17.92
659.502	17.92
659.69	17.9
659.879	17.9
660.067	17.95
660.256	17.83
660.444	17.91
660.633	17.96
660.821	17.86
661.01	17.91
661.198	17.81
661.387	17.81
661.575	17.71
661.763	17.78
661.952	17.82
662.14	17.82
662.328	17.94
662.517	17.86
662.705	17.76
662.893	17.8
663.082	17.78
663.27	17.67
663.458	17.69
663.646	17.72
663.834	17.66
664.023	17.67
664.211	17.7
664.399	17.76
664.587	17.86
664.775	17.88
664.963	17.88
665.152	17.92
665.34	17.99
665.528	17.86
665.716	17.93
665.904	18
666.092	18.01
666.28	17.97
666.468	17.87
666.656	17.92
666.844	18.02
667.032	17.99
667.22	17.94
667.408	17.94
667.596	18.12
667.784	18.09
667.971	18.04
668.159	18.04
668.347	17.99
668.535	17.97
668.723	17.8
668.911	17.78
669.098	17.79
669.286	17.84
669.474	17.88
669.662	17.76
669.849	17.84
670.037	17.87
670.225	17.74
670.413	17.71
670.6	17.7
670.788	17.77
670.976	17.79
671.163	17.91
671.351	17.86
671.538	17.82
671.726	17.88
671.913	17.73
672.101	17.78
672.289	17.89
672.476	17.97
672.664	18.08
672.851	18.07
673.039	18.02
673.226	17.98
673.413	17.96
673.601	17.94
673.788	17.93
673.976	18.01
674.163	17.99
674.35	17.95
674.538	17.97
674.725	17.91
674.912	17.87
675.1	17.99
675.287	18.02
675.474	17.98
675.662	18.07
675.849	18.07
676.036	17.99
676.223	18.04
676.411	18.01
676.598	17.97
676.785	18.11
676.972	18.04
677.159	18.01
677.346	17.86
677.533	17.99
677.721	18.02
677.908	17.98
678.095	17.98
678.282	17.92
678.469	17.96
678.656	18.05
678.843	17.99
679.03	18.15
679.217	18.22
679.404	18.27
679.591	18.19
679.778	18.14
679.964	18.08
680.151	18.1
680.338	18.16
680.525	18.18
680.712	18.28
680.899	18.24
681.086	18.25
681.272	18.2
681.459	18.17
681.646	18.3
681.833	18.31
682.02	18.38
682.206	18.54
682.393	18.54
682.58	18.57
682.766	18.42
682.953	18.6
683.14	18.56
683.326	18.6
683.513	18.68
683.7	18.62
683.886	18.63
684.073	18.53
684.259	18.39
684.446	18.41
684.632	18.4
684.819	18.39
685.005	18.22
685.192	18.2
685.378	18.17
685.565	18.21
685.751	18.15
685.938	18.12
686.124	18.35
686.31	18.27
686.497	18.1
686.683	18.02
686.87	18.04
687.056	18.04
687.242	18.04
687.429	18.02
687.615	18.1
687.801	18.14
687.987	18.21
688.174	18.11
688.36	18.14
688.546	18.29
688.732	18.3
688.918	18.2
689.105	18.24
689.291	18.22
689.477	18.27
689.663	18.11
689.849	18.11
690.035	18.19
690.221	18.15
690.407	18.41
690.593	18.55
690.779	18.67
690.965	18.77
691.151	18.85
691.337	18.89
691.523	18.95
691.709	19.03
691.895	19.18
692.081	19.09
692.267	19.19
692.453	19.06
692.639	19.03
692.825	18.94
693.011	18.9
693.196	18.81
693.382	18.7
693.568	18.53
693.754	18.55
693.94	18.42
694.125	18.38
694.311	18.38
694.497	18.31
694.682	18.16
694.868	18.22
695.054	18.2
695.239	18.17
695.425	18.23
695.611	18.24
695.796	18.09
695.982	18.04
696.168	18.12
696.353	18.07
696.539	18.04
696.724	18
696.91	18.08
697.095	18.13
697.281	18.24
697.466	18.18
697.652	18.3
697.837	18.36
698.023	18.38
698.208	18.27
698.393	18.31
698.579	18.35
698.764	18.32
698.949	18.15
699.135	18.15
699.32	18.09
699.505	18.08
699.691	17.94
699.876	17.81
700.061	17.83
700.246	17.89
700.432	17.71
700.617	17.58
700.802	17.61
700.987	17.8
701.172	17.79
701.358	17.83
701.543	18.07
701.728	18.09
701.913	18.3
702.098	18.32
702.283	18.36
702.468	18.49
702.653	18.79
702.838	19.03
703.023	18.88
703.208	18.82
703.393	18.69
703.578	18.73
703.763	18.92
703.948	18.91
704.133	19.07
704.318	19.16
704.503	19.23
704.688	19.17
704.873	18.96
705.057	18.98
705.242	19
705.427	18.99
705.612	18.75
705.797	18.75
705.981	18.66
706.166	18.63
706.351	18.4
706.536	18.29
706.72	18.27
706.905	18.19
707.09	18.25
707.274	18.25
707.459	18.39
707.644	18.41
707.828	18.24
708.013	18.3
708.197	18.13
708.382	18.22
708.567	18.21
708.751	18.32
708.936	18.43
709.12	18.32
709.305	18.49
709.489	18.41
709.673	18.33
709.858	18.43
710.042	18.38
710.227	18.5
710.411	18.58
710.596	18.62
710.78	18.41
710.964	18.58
711.149	18.7
711.333	18.55
711.517	18.44
711.702	18.68
711.886	18.6
712.07	18.63
712.254	18.6
712.438	18.51
712.623	18.56
712.807	18.63
712.991	18.48
713.175	18.55
713.359	18.57
713.544	18.72
713.728	18.61
713.912	18.8
714.096	18.85
714.28	18.86
714.464	18.92
714.648	18.85
714.832	18.84
715.016	18.87
715.2	18.71
715.384	18.81
715.568	18.85
715.752	18.77
715.936	18.69
716.12	18.78
716.304	18.76
716.488	18.68
716.671	18.88
716.855	19.05
717.039	19.13
717.223	19.23
717.407	19.16
717.59	19.22
717.774	19.33
717.958	19.4
718.142	19.36
718.325	19.28
718.509	19.35
718.693	19.15
718.877	18.98
719.06	18.76
719.244	18.74
719.428	18.7
719.611	18.73
719.795	18.73
719.978	18.74
720.162	18.73
720.345	18.8
720.529	18.74
720.713	18.84
720.896	18.72
721.08	18.77
721.263	19.03
721.446	19.16
721.63	19.03
721.813	18.99
721.997	18.79
722.18	18.81
722.364	18.76
722.547	18.89
722.73	18.86
722.914	19
723.097	19.08
723.28	18.91
723.464	18.87
723.647	18.94
723.83	19.11
724.013	19.1
724.197	19.12
724.38	19.27
724.563	19.26
724.746	19.26
724.929	19.5
725.112	19.53
725.296	19.5
725.479	19.37
725.662	19.32
725.845	19.21
726.028	19.15
726.211	19.11
726.394	19.12
726.577	19.01
726.76	19.04
726.943	18.88
727.126	18.9
727.309	18.87
727.492	18.97
727.675	18.94
727.858	18.8
728.041	19.05
728.224	19.24
728.407	19.13
728.589	19.23
728.772	19.28
728.955	19.25
729.138	19.2
729.321	19.21
729.503	19.38
729.686	19.49
729.869	19.67
730.052	19.6
730.234	19.25
730.417	19.3
730.6	19.27
730.782	19.28
730.965	19.26
731.148	19.39
731.33	19.45
731.513	19.33
731.695	19.34
731.878	19.32
732.061	19.03
732.243	19.19
732.426	19
732.608	19.08
732.791	19.2
732.973	19.19
733.156	19.2
733.338	18.92
733.52	18.89
733.703	18.86
733.885	19.17
734.068	19.33
734.25	19.49
734.432	19.71
734.615	19.67
734.797	19.32
734.979	19.25
735.162	19.12
735.344	19.53
735.526	19.51
735.708	19.33
735.891	19.07
736.073	19.11
736.255	19.06
736.437	19.03
736.619	19.07
736.802	19.14
736.984	19.23
737.166	19.28
737.348	19.13
737.53	19.11
737.712	19.29
737.894	19.42
738.076	19.55
738.258	19.44
738.44	19.43
738.622	19.51
738.804	19.5
738.986	19.66
739.168	19.64
739.35	19.66
739.532	19.71
739.714	19.93
739.896	19.72
740.078	19.67
740.259	19.59
740.441	19.49
740.623	19.26
740.805	19.41
740.987	19.25
741.168	19.07
741.35	19.12
741.532	19.18
741.714	18.87
741.895	19.07
742.077	19.2
742.259	19.11
742.44	19.14
742.622	19.35
742.804	19.11
742.985	19.16
743.167	19.24
743.348	19.25
743.53	18.96
743.711	19.08
743.893	19.16
744.075	18.64
744.256	18.9
744.438	19
744.619	18.97
744.8	19.45
744.982	19.58
745.163	19.43
745.345	19.46
745.526	19.78
745.707	19.75
745.889	19.34
746.07	19.68
746.252	19.81
746.433	19.68
746.614	19.42
746.795	18.89
746.977	18.94
747.158	19.31
747.339	19.49
747.52	19.6
747.702	19.36
747.883	19.5
748.064	19.82
748.245	19.68
748.426	19.97
748.607	20.37
748.788	20.3
748.97	20.17
749.151	19.94
749.332	19.69
749.513	19.68
749.694	20.04
749.875	20.27
750.056	20.04
750.237	20
750.418	19.83
750.599	19.73
750.78	20.33
750.96	20.34
751.141	20.28
751.322	20.27
751.503	20.47
751.684	20.42
751.865	19.98
752.046	19.75
752.226	19.85
752.407	19.88
752.588	19.7
752.769	19.61
752.949	19.25
753.13	19.45
753.311	19.36
753.492	18.77
753.672	18.9
753.853	19.23
754.034	19.36
754.214	19.31
754.395	19.07
754.575	19.23
754.756	18.98
754.937	19.14
755.117	19.23
755.298	19.62
755.478	19.55
755.659	19.21
755.839	19.01
756.02	19.22
756.2	19.27
756.381	19.25
756.561	19.2
756.741	19.42
756.922	19.68
757.102	19.56
757.283	19.5
757.463	19.85
757.643	20.14
757.823	20.16
758.004	19.85
758.184	19.76
758.364	20.39
758.545	20.42
758.725	20.37
758.905	20.35
759.085	20.2
759.265	20.17
759.446	20.11
759.626	19.91
759.806	19.92
759.986	20.24
760.166	20.33
760.346	20.04
760.526	19.96
760.706	19.91
760.886	20.04
761.066	20.13
761.246	19.83
761.426	19.88
761.606	19.82
761.786	19.54
761.966	19.44
762.146	19.42
762.326	19.46
762.506	19.44
762.686	19.46
762.866	19.29
763.046	19.41
763.225	19.47
763.405	19.4
763.585	19.25
763.765	19.59
763.945	19.41
764.124	19.23
764.304	19.26
764.484	19.22
764.664	19.13
764.843	19.26
765.023	18.93
765.203	18.94
765.382	18.91
765.562	19.23
765.741	19.09
765.921	19.43
766.101	19.61
766.28	19.51
766.46	19.77
766.639	20.14
766.819	20.12
766.998	20.48
767.178	20.47
767.357	20.7
767.537	20.52
767.716	20.79
767.896	20.43
768.075	20.42
768.254	20.23
768.434	20.18
768.613	20.09
768.792	19.88
768.972	19.91
769.151	19.88
769.33	19.32
769.51	19.78
769.689	19.54
769.868	19.98
770.047	20.63
770.226	21.03
770.406	20.92
770.585	20.7
770.764	20.67
770.943	20.62
771.122	20.47
771.301	21.41
771.48	21.27
771.66	21.23
771.839	21.02
772.018	20.59
772.197	20.22
772.376	19.98
772.555	20.02
772.734	20.26
772.913	20.17
773.092	20.04
773.271	19.34
773.449	19.12
773.628	19.29
773.807	19.36
773.986	19.37
774.165	19.25
774.344	19.57
774.523	19.08
774.701	18.92
774.88	19.03
775.059	19.1
775.238	19.48
775.417	19.66
775.595	19.33
775.774	18.94
775.953	18.79
776.131	19.06
776.31	19.04
776.489	19.43
776.667	19.65
776.846	19.24
777.025	19.53
777.203	19.42
777.382	19.57
777.56	19.58
777.739	19.89
777.917	19.89
778.096	19.72
778.274	19.96
778.453	20.16
778.631	20.19
778.81	20.49
778.988	20.55
779.166	20.35
779.345	19.93
779.523	20.35
779.702	20.86
779.88	21.01
780.058	20.87
780.237	20.44
780.415	20.22
780.593	20.19
780.771	20.36
780.95	20.41
781.128	20.72
781.306	21.11
781.484	21.03
781.662	19.89
781.841	20.17
782.019	20.72
782.197	21.08
782.375	21.3
782.553	21.4
782.731	21.44
782.909	21.69
783.087	22.02
783.265	22.04
783.443	22
783.621	22.61
783.799	22.29
783.977	22.15
784.155	21.86
784.333	22.56
784.511	22.23
784.689	22.14
784.867	22.04
785.045	21.72
785.223	21.3
785.4	21.09
785.578	20.96
785.756	20.71
785.934	20.36
786.112	20.62
786.289	19.71
786.467	19.98
786.645	19.69
786.823	19.5
787	19.41
787.178	19.47
787.356	19.6
787.533	19.8
787.711	20.29
787.889	20.56
788.066	20.31
788.244	20.6
788.421	20.78
788.599	21
788.776	21.15
788.954	21.04
789.131	20.87
789.309	20.74
789.486	20.89
789.664	20.97
789.841	20.89
790.019	20.75
790.196	20.72
790.373	20.36
790.551	20.68
790.728	20.55
790.906	21.2
791.083	21.09
791.26	21.49
791.437	21.35
791.615	21.02
791.792	20.94
791.969	21.21
792.146	20.84
792.324	21.14
792.501	21.41
792.678	21.8
792.855	21.26
793.032	21.72
793.209	21.52
793.387	21.54
793.564	21.56
793.741	21.69
793.918	22.08
794.095	22.03
794.272	21.31
794.449	20.64
794.626	20.82
794.803	21.34
794.98	21.08
795.157	20.87
795.334	20.68
795.511	20.38
795.688	20.31
795.864	19.92
796.041	19.97
796.218	20.8
796.395	21.18
796.572	20.56
796.749	19.75
796.925	19.91
797.102	20
797.279	20.1
797.456	20.24
797.632	20.2
797.809	20.32
797.986	20.62
798.162	20.03
798.339	19.58
798.516	20.45
798.692	20.92
798.869	20.82
799.046	20.53
799.222	20.71
799.399	20.94
799.575	21.48
799.752	21.78
799.928	21.77
800.105	22.38
800.281	21.96
800.458	21.12
800.634	20.84
800.811	21.12
800.987	21.45
801.163	20.96
801.34	20.81
801.516	20.65
801.692	20.78
801.869	20.84
802.045	20.7
802.221	20.8
802.398	20.61
802.574	20.76
802.75	21.37
802.926	21.92
803.103	22.57
803.279	22.75
803.455	22.84
803.631	22.41
803.807	22.43
803.983	22.93
804.16	23.57
804.336	24.18
804.512	24.73
804.688	24.2
804.864	24.02
805.04	24.14
805.216	24.71
805.392	24.31
805.568	24.37
805.744	24.74
805.92	24.32
806.096	24.26
806.272	24.54
806.448	24.68
806.623	24.28
806.799	24
806.975	24.23
807.151	23.29
807.327	22.55
807.503	22.19
807.678	21.58
807.854	21.37
808.03	21.27
808.206	21.19
808.381	20.65
808.557	21.3
808.733	21.09
808.908	20.48
809.084	20.58
809.26	21.59
809.435	21.99
809.611	22.22
809.787	21.83
809.962	21.97
810.138	22.39
810.313	22.96
810.489	22.35
810.664	22.73
810.84	22.4
811.015	23.55
811.191	23.55
811.366	23.77
811.542	24.09
811.717	24.65
811.892	25.73
812.068	25.21
812.243	24.65
812.419	24.78
812.594	24.66
812.769	25.25
812.944	25.17
813.12	25.39
813.295	25.04
813.47	24.83
813.645	25
813.821	24.28
813.996	24.58
814.171	24.34
814.346	24.14
814.521	24.92
814.697	25.82
814.872	24.84
815.047	24.58
815.222	25.13
815.397	24.95
815.572	24.61
815.747	24.5
815.922	24.25
816.097	24.71
816.272	25.12
816.447	24.2
816.622	23.68
816.797	23.46
816.972	23.16
817.147	22.97
817.322	22.91
817.496	22.63
817.671	22.41
817.846	22.19
818.021	21.86
818.196	21.89
818.371	22.49
818.545	22.03
818.72	22.39
818.895	22.33
819.069	21.33
819.244	21.74
819.419	21.74
819.594	21.37
819.768	21.31
819.943	20.94
820.117	20.62
820.292	20.17
820.467	20.14
820.641	19.87
820.816	19.94
820.99	19.97
821.165	19.79
821.339	19.68
821.514	19.76
821.688	19.62
821.863	19.47
822.037	19.31
822.212	19.3
822.386	19.23
822.56	19.3
822.735	19.36
822.909	19.37
823.084	19.3
823.258	19.17
823.432	19.09
823.606	19.12
823.781	19.41
823.955	19.5
824.129	19.47
824.303	19.61
824.478	19.41
824.652	19.2
824.826	18.99
825	18.99
825.174	19.24
825.348	19.06
825.523	19.01
825.697	19.01
825.871	19.22
826.045	19.48
826.219	19.26
826.393	19.52
826.567	19.53
826.741	19.96
826.915	20.02
827.089	20.2
827.263	20.39
827.437	20.51
827.611	20.58
827.784	20.53
827.958	20.42
828.132	20.54
828.306	20.59
828.48	20.84
828.654	20.94
828.827	21.09
829.001	20.82
829.175	21.15
829.349	21.47
829.522	21.19
829.696	21.55
829.87	22.35
830.044	23.29
830.217	23.76
830.391	23.84
830.565	23.14
830.738	23.46
830.912	23.97
831.085	23.93
831.259	24.21
831.432	24.38
831.606	24.66
831.779	23.57
831.953	22.68
832.126	22.45
832.3	22.15
832.473	22.51
832.647	22.03
832.82	21.84
832.994	21.72
833.167	21.19
833.34	21.16
833.514	20.7
833.687	20.91
833.86	21.26
834.034	21.12
834.207	20.78
834.38	20.55
834.553	20.85
834.727	20.73
834.9	20.57
835.073	20.5
835.246	20.32
835.419	20.44
835.593	20.26
835.766	20.03
835.939	20.72
836.112	20.75
836.285	21.44
836.458	21.42
836.631	21.76
836.804	22.24
836.977	22.23
837.15	22.46
837.323	22.2
837.496	22.48
837.669	22.19
837.842	21.48
838.015	22.24
838.188	21.28
838.361	20.58
838.533	19.74
838.706	19.77
838.879	20
839.052	20.96
839.225	21.22
839.398	21.59
839.57	22.61
839.743	22.8
839.916	22.46
840.088	23.86
840.261	24.93
840.434	26.11
840.607	25.84
840.779	26.99
840.952	26.47
841.124	26.94
841.297	27.9
841.47	27.88
841.642	27.19
841.815	27.49
841.987	26.28
842.16	26.2
842.332	26.28
842.505	26.64
842.677	25.31
842.85	24.78
843.022	25.61
843.194	24.54
843.367	25.05
843.539	25.84
843.712	27.89
843.884	28.69
844.056	29.58
844.229	30.56
844.401	29.58
844.573	32.36
844.745	34.36
844.918	33.36
845.09	32.7
845.262	31.07
845.434	30.94
845.606	30.84
845.779	30.92
845.951	30.52
846.123	29.73
846.295	31.42
846.467	30.23
846.639	29.27
846.811	29.9
846.983	30.4
847.155	31.97
847.327	32.01
847.499	31.75
847.671	31.16
847.843	29.94
848.015	29.07
848.187	28.02
848.359	26.78
848.531	25.94
848.703	23.77
848.875	24.19
849.047	23.17
849.218	23.07
849.39	21.49
849.562	23.82
849.734	23.6
849.905	25.02
850.077	25.82
850.249	27.83
850.421	28.87
850.592	29.68
850.764	29.58
850.936	29.91
851.107	31.6
851.279	32.17
851.451	31.3
851.622	32.06
851.794	31.92
851.965	33.2
852.137	31.6
852.308	32.13
852.48	34.19
852.651	34.36
852.823	33.74
852.994	32.19
853.166	33.7
853.337	34.11
853.509	31.66
853.68	32.33
853.851	30.26
854.023	30.54
854.194	30.69
854.365	30.09
854.537	30.32
854.708	30.88
854.879	31.21
855.05	30.83
855.222	29.26
855.393	31.65
855.564	31.02
855.735	31.16
855.906	29.48
856.078	28.7
856.249	28.49
856.42	27.44
856.591	28.21
856.762	28.26
856.933	27.45
857.104	27.57
857.275	26.83
857.446	26.62
857.617	26.89
857.788	28.1
857.959	28.52
858.13	29.37
858.301	32.16
858.472	30.09
858.643	30.82
858.814	31.06
858.985	30.66
859.155	31.45
859.326	32.19
859.497	33.26
859.668	33.37
859.839	35.46
860.009	34.47
860.18	31.8
860.351	31.04
860.522	30.41
860.692	28.89
860.863	30.89
861.034	31.66
861.204	32.86
861.375	32.99
861.546	35.71
861.716	32.76
861.887	35.01
862.057	35.83
862.228	36.24
862.398	36.06
862.569	37.03
862.739	39.27
862.91	38.06
863.08	36.95
863.251	36.54
863.421	35.72
863.592	37.36
863.762	35.17
863.932	34.12
864.103	34.15
864.273	33.36
864.443	34.01
864.614	30.77
864.784	30.92
864.954	30.92
865.125	32.98
865.295	32.07
865.465	29.28
865.635	29.41
865.805	31.56
865.976	32.78
866.146	33.57
866.316	33.89
866.486	35.42
866.656	35.48
866.826	33.67
866.996	32.34
867.166	34.72
867.336	37.73
867.506	38.87
867.676	39.13
867.846	39.97
868.016	38
868.186	38.9
868.356	36.46
868.526	36.73
868.696	37.61
868.866	37.71
869.036	34.55
869.206	34.18
869.376	33.99
869.545	30.88
869.715	30.46
869.885	33.19
870.055	30.27
870.224	30.74
870.394	32.63
870.564	34.73
870.734	35.49
870.903	36.18
871.073	34.22
871.243	34.84
871.412	37.07
871.582	38.74
871.751	38.03
871.921	40.45
872.091	39.16
872.26	37.86
872.43	35.93
872.599	33.52
872.769	33.22
872.938	33.9
873.108	33.4
873.277	32.17
873.446	29.4
873.616	27.69
873.785	26.91
873.955	28.85
874.124	27.72
874.293	27.67
874.463	29.06
874.632	29.39
874.801	28.49
874.971	28.06
875.14	29.28
875.309	30.28
875.478	32.27
875.647	30.55
875.817	29.41
875.986	30.3
876.155	30.01
876.324	29.22
876.493	29.85
876.662	31.35
876.831	31.06
877	31.72
877.17	32.81
877.339	32.75
877.508	33.44
877.677	35.49
877.846	34.26
878.015	35.84
878.184	35.41
878.352	33.49
878.521	33.53
878.69	34.55
878.859	32.77
879.028	30.46
879.197	29.62
879.366	28.3
879.534	26.59
879.703	25.6
879.872	24.13
880.041	24.51
880.21	24.24
880.378	23.44
880.547	21.77
880.716	21.57
880.884	21.25
881.053	21.09
881.222	21.21
881.39	21.12
881.559	21.1
881.727	21.31
881.896	21.19
882.065	21.14
882.233	21
882.402	21.27
882.57	21.39
882.739	21.5
882.907	21.31
883.076	21.41
883.244	21.3
883.412	21.57
883.581	21.66
883.749	21.41
883.918	21.59
884.086	22.19
884.254	22.48
884.423	23.05
884.591	23.91
884.759	24.18
884.927	24.41
885.096	25.11
885.264	27.15
885.432	27.97
885.6	27.98
885.769	27.41
885.937	27.35
886.105	29.02
886.273	29.42
886.441	28.7
886.609	30.57
886.777	31.12
886.945	31.99
887.113	30.88
887.281	30.19
887.449	31.88
887.617	33
887.785	32.7
887.953	30.34
888.121	29.78
888.289	29.38
888.457	29.22
888.625	30.52
888.793	32.16
888.961	30.29
889.129	30.9
889.296	32.52
889.464	34.04
889.632	35.23
889.8	37.91
889.967	38.1
890.135	42.29
