Data from JASIL_3194_Reflection_01.txt Node
Date: Fri Nov 13 14:12:34 EST 2015
User: Geneva
Spectrometer: USB4E03002
Autoset integration time: false
Trigger mode: 4
Integration Time (sec): 1.000000E-1
Scans to average: 10
Electric dark correction enabled: false
Nonlinearity correction enabled: false
Boxcar width: 5
Stray light correction enabled: false
XAxis mode: Wavelengths
Stop averaging: false
Number of Pixels in Spectrum: 3648
>>>>>Begin Spectral Data<<<<<
177.575	143.99
177.794	147.26
178.014	139.5
178.233	130.51
178.452	131.5
178.672	126.97
178.891	125.83
179.11	135.76
179.33	130.75
179.549	139.83
179.768	148.07
179.987	147.39
180.207	151.43
180.426	153.5
180.645	181.35
180.864	167.09
181.084	173.34
181.303	157.65
181.522	136.64
181.741	134.85
181.96	119.99
182.179	110.72
182.398	120.14
182.618	107.81
182.837	99.62
183.056	83.69
183.275	90.85
183.494	93.53
183.713	109.05
183.932	106.3
184.151	109.13
184.37	111.55
184.589	114.71
184.808	122.44
185.027	134.9
185.246	140.64
185.465	142.5
185.684	146.07
185.903	136.57
186.122	122.42
186.341	126.77
186.56	128.33
186.779	118.27
186.998	117.72
187.216	107.77
187.435	99.21
187.654	104.85
187.873	108.86
188.092	103.3
188.311	100.81
188.53	104.67
188.748	107.27
188.967	105.21
189.186	110.32
189.405	103.48
189.623	96.75
189.842	102.92
190.061	91.85
190.28	84.28
190.498	91.93
190.717	89.19
190.936	92.6
191.154	100.04
191.373	99.82
191.592	101.62
191.81	110.19
192.029	111.55
192.248	115.26
192.466	127.38
192.685	127.4
192.904	127.6
193.122	133.46
193.341	124.04
193.559	112.27
193.778	122.09
193.996	117.12
194.215	102.82
194.433	102.35
194.652	103.73
194.87	104.63
195.089	113.55
195.307	112.07
195.526	129.84
195.744	140.41
195.963	144.59
196.181	130.59
196.399	133.12
196.618	140.16
196.836	141.88
197.055	144.59
197.273	135.06
197.491	135.39
197.71	135.57
197.928	125.87
198.146	120.51
198.365	115.73
198.583	113.62
198.801	118.81
199.019	121.58
199.238	134.17
199.456	119.64
199.674	125
199.892	125.64
200.111	128.15
200.329	136.54
200.547	140.56
200.765	144.26
200.983	147.83
201.202	141.46
201.42	150.82
201.638	130.23
201.856	126.47
202.074	119.76
202.292	104.7
202.51	96.09
202.728	88.29
202.946	84.09
203.165	88.34
203.383	87.32
203.601	91.66
203.819	91.71
204.037	102.52
204.255	104.39
204.473	109.14
204.691	117.93
204.909	127.43
205.127	137.43
205.345	136.69
205.562	123.06
205.78	121.84
205.998	110.17
206.216	100.06
206.434	93.16
206.652	99.3
206.87	89.79
207.088	99.02
207.306	101.45
207.523	94.57
207.741	106.08
207.959	103.29
208.177	96.7
208.395	97.86
208.612	98.06
208.83	84.85
209.048	82.78
209.266	89.82
209.483	86.7
209.701	85.75
209.919	83.79
210.136	76.92
210.354	85.88
210.572	92.26
210.79	98.89
211.007	90.56
211.225	102.95
211.442	98.58
211.66	87.53
211.878	84.63
212.095	50.29
212.313	53.2
212.53	53.04
212.748	51.5
212.966	52.22
213.183	54.42
213.401	57.34
213.618	60.1
213.836	64.2
214.053	72.47
214.271	75.71
214.488	128.77
214.705	127.73
214.923	126.3
215.14	129.76
215.358	132.95
215.575	116.35
215.793	124.06
216.01	123.9
216.227	120.71
216.445	104.31
216.662	93.78
216.879	96.95
217.097	101.28
217.314	110.63
217.531	109.09
217.749	111.15
217.966	108.61
218.183	111.1
218.4	109.89
218.618	103.89
218.835	124.28
219.052	120.46
219.269	120.69
219.487	106.51
219.704	109.19
219.921	111.85
220.138	122.51
220.355	119.85
220.572	126.42
220.79	126.89
221.007	145.39
221.224	129.23
221.441	137.75
221.658	132.96
221.875	142.17
222.092	118.98
222.309	116.12
222.526	114.4
222.743	121.47
222.96	111.66
223.177	112.16
223.394	103.32
223.611	107.77
223.828	100.86
224.045	99.54
224.262	97.12
224.479	105.63
224.696	113.24
224.913	109.13
225.13	103.2
225.347	107.29
225.564	106.07
225.781	106.64
225.997	108.32
226.214	108.73
226.431	107.46
226.648	110.27
226.865	100.96
227.082	87.25
227.298	75.34
227.515	71.58
227.732	71.9
227.949	69.78
228.165	66.72
228.382	61.82
228.599	63.56
228.816	59.24
229.032	52.9
229.249	56.76
229.466	60.93
229.682	66.31
229.899	75.13
230.116	75.93
230.332	73.65
230.549	75.46
230.765	82.05
230.982	75.4
231.199	81.09
231.415	88.26
231.632	95.78
231.848	93.54
232.065	96.08
232.281	93.42
232.498	89.83
232.714	86.08
232.931	92.23
233.147	83.08
233.364	87.52
233.58	83.77
233.797	82.54
234.013	75.55
234.23	76.08
234.446	73.31
234.662	75.22
234.879	71.36
235.095	73.81
235.312	68.56
235.528	75.51
235.744	75.69
235.961	76
236.177	73.57
236.393	73.77
236.61	76.89
236.826	75.56
237.042	74.3
237.258	76.85
237.475	76.64
237.691	76.2
237.907	73.13
238.123	72
238.339	70.76
238.556	73.68
238.772	72.24
238.988	70.57
239.204	70.17
239.42	67.38
239.636	63.39
239.853	61.76
240.069	62.32
240.285	64.28
240.501	61.1
240.717	65.26
240.933	62.7
241.149	62.62
241.365	58.73
241.581	56.79
241.797	58.13
242.013	58.03
242.229	59
242.445	60.87
242.661	62.76
242.877	64.58
243.093	62.25
243.309	61.76
243.525	61.56
243.741	60.87
243.957	62.46
244.173	61.94
244.388	61.33
244.604	58.49
244.82	52.19
245.036	45.16
245.252	47.01
245.468	43.73
245.683	43.45
245.899	39.59
246.115	40.41
246.331	39.88
246.547	36.55
246.762	36.91
246.978	37.31
247.194	37.49
247.409	39.36
247.625	37.36
247.841	38.21
248.057	41.42
248.272	44.17
248.488	44.55
248.703	46.29
248.919	48.89
249.135	49.61
249.35	53.76
249.566	55.61
249.782	57.4
249.997	61.77
250.213	61.85
250.428	59.71
250.644	59.46
250.859	57
251.075	55.73
251.29	56.48
251.506	58.08
251.721	55.34
251.937	55.47
252.152	51.74
252.368	52.68
252.583	54.54
252.798	56.99
253.014	57.93
253.229	56.52
253.445	56.25
253.66	56.58
253.875	55.55
254.091	58.94
254.306	59.44
254.521	61.15
254.737	59.23
254.952	57.47
255.167	53.74
255.383	55.36
255.598	57.57
255.813	55.25
256.028	54.66
256.244	53.42
256.459	55.85
256.674	58.6
256.889	58.97
257.104	53.79
257.32	51.45
257.535	46.02
257.75	40.1
257.965	39.19
258.18	37.88
258.395	37.85
258.61	34.88
258.826	30.1
259.041	25.22
259.256	24.82
259.471	26.86
259.686	26.66
259.901	28.54
260.116	28.76
260.331	28.56
260.546	31.01
260.761	30.23
260.976	33.85
261.191	37.64
261.406	42.57
261.621	44.59
261.836	43.95
262.05	43.8
262.265	46.62
262.48	50.81
262.695	53.22
262.91	54.27
263.125	56.62
263.34	58.2
263.555	55.01
263.769	52.28
263.984	49.66
264.199	48.16
264.414	51.22
264.629	47.75
264.843	46.49
265.058	45.17
265.273	39.01
265.488	35.45
265.702	34.29
265.917	34.52
266.132	37.98
266.346	36.45
266.561	38.38
266.776	38.11
266.99	39.59
267.205	41.41
267.42	39.7
267.634	41.36
267.849	42.05
268.063	40.94
268.278	42.31
268.492	40.19
268.707	39.79
268.922	40.19
269.136	41.34
269.351	40.41
269.565	35.84
269.78	35.72
269.994	36.23
270.209	35.79
270.423	35.92
270.637	33.73
270.852	31.89
271.066	34.04
271.281	35.24
271.495	32.98
271.709	31.93
271.924	31.8
272.138	36.43
272.353	36.06
272.567	38.12
272.781	37.68
272.996	40.63
273.21	42.06
273.424	41.93
273.638	38.89
273.853	40.08
274.067	40.45
274.281	38.95
274.495	37.99
274.71	36.47
274.924	35.8
275.138	39.83
275.352	39.94
275.566	40.26
275.781	38.34
275.995	39.85
276.209	39.83
276.423	42.24
276.637	47.59
276.851	43.74
277.065	45.15
277.279	44.19
277.493	38.84
277.707	36.75
277.921	33.85
278.135	36.41
278.349	35.08
278.563	34.39
278.777	33.21
278.991	29.84
279.205	30.46
279.419	30.86
279.633	30.57
279.847	32.24
280.061	34.27
280.275	36.24
280.489	34.4
280.703	34.75
280.917	35.8
281.131	34.87
281.344	35.56
281.558	36.5
281.772	36.16
281.986	34.33
282.2	36.53
282.414	35.67
282.627	35.94
282.841	38.29
283.055	39.1
283.269	36.95
283.482	35.68
283.696	34.37
283.91	35.56
284.123	35.56
284.337	37.03
284.551	33.09
284.764	32.93
284.978	31.06
285.192	31.22
285.405	29.49
285.619	29.01
285.833	31.11
286.046	32.03
286.26	30.15
286.473	28.97
286.687	29.06
286.9	31.8
287.114	29.61
287.327	32.01
287.541	30.27
287.754	30.2
287.968	35.79
288.181	34.43
288.395	32.47
288.608	32.44
288.822	34.59
289.035	32.82
289.248	32.52
289.462	34.03
289.675	33.82
289.889	34.53
290.102	35.04
290.315	29.8
290.529	31.17
290.742	33.95
290.955	35.34
291.169	35.83
291.382	36.81
291.595	36.47
291.808	38.58
292.022	35.21
292.235	33.76
292.448	32.35
292.661	34.33
292.875	32.66
293.088	33.58
293.301	31.93
293.514	28.22
293.727	30.42
293.94	30.41
294.153	27.02
294.367	28.34
294.58	26.69
294.793	27.56
295.006	28.18
295.219	26.4
295.432	24.23
295.645	23.28
295.858	23.1
296.071	21.56
296.284	20.22
296.497	21.91
296.71	20.52
296.923	23.16
297.136	23.26
297.349	21.96
297.562	23.54
297.775	24.66
297.988	24.69
298.201	25.5
298.414	25.59
298.626	27.71
298.839	26.17
299.052	29.32
299.265	28.61
299.478	30.73
299.691	30.6
299.903	31.69
300.116	30.85
300.329	30.29
300.542	32.34
300.755	32.07
300.967	31.73
301.18	32.78
301.393	33.44
301.605	33.14
301.818	32.02
302.031	32.16
302.243	31.72
302.456	33.26
302.669	35.83
302.881	35.79
303.094	37.31
303.307	38.94
303.519	39.74
303.732	40.77
303.944	40.99
304.157	42.06
304.37	41.8
304.582	44.31
304.795	45.06
305.007	45.43
305.22	43.91
305.432	43.92
305.645	42.99
305.857	41.86
306.069	38.87
306.282	39.94
306.494	38.41
306.707	40.74
306.919	38.09
307.132	35.25
307.344	34.65
307.556	36.82
307.769	35.41
307.981	33.66
308.193	32.94
308.406	33.16
308.618	33.28
308.83	32.7
309.043	32.44
309.255	32.18
309.467	33.35
309.679	32.38
309.892	29.2
310.104	29.82
310.316	31.01
310.528	32.04
310.74	31.2
310.953	29.51
311.165	29.18
311.377	27.79
311.589	25.71
311.801	24.82
312.013	29.58
312.225	30.43
312.437	29.99
312.649	30.92
312.862	30.69
313.074	32.7
313.286	34.28
313.498	35.26
313.71	35.76
313.922	38.52
314.134	39.94
314.346	35.88
314.558	37.97
314.77	39.37
314.982	39.24
315.193	37.79
315.405	36.16
315.617	37.14
315.829	38.67
316.041	37.46
316.253	38.85
316.465	39.74
316.677	41.79
316.888	43.5
317.1	41.79
317.312	41.63
317.524	43.23
317.736	44.1
317.947	44.44
318.159	43.09
318.371	43.76
318.583	43.87
318.794	41.58
319.006	39.17
319.218	37.6
319.43	40.92
319.641	39.99
319.853	40.1
320.064	39.76
320.276	36.68
320.488	36.06
320.699	36.58
320.911	34
321.123	36.22
321.334	37.17
321.546	35.44
321.757	34
321.969	34.57
322.18	33.13
322.392	34.37
322.603	33.4
322.815	34.96
323.026	36.39
323.238	38.32
323.449	37.03
323.661	36.29
323.872	39
324.083	36.05
324.295	34.69
324.506	34.66
324.718	34.73
324.929	34.58
325.14	34.29
325.352	31.38
325.563	31.34
325.774	32.39
325.986	32.09
326.197	31.7
326.408	32.57
326.62	33.55
326.831	35.56
327.042	34.49
327.253	36.81
327.464	37.07
327.676	38.13
327.887	36.46
328.098	35.87
328.309	35.99
328.52	35.34
328.732	37.62
328.943	36.81
329.154	36.26
329.365	38.45
329.576	38.32
329.787	38.86
329.998	41.81
330.209	43.78
330.42	41.69
330.631	41.42
330.842	40
331.053	39.72
331.264	40.33
331.475	38.56
331.686	37.15
331.897	37.35
332.108	35.07
332.319	32.65
332.53	30.68
332.741	32.67
332.952	32.49
333.163	32.44
333.374	30.8
333.585	32.04
333.795	34.87
334.006	35.83
334.217	33.19
334.428	34.3
334.639	35
334.849	34.56
335.06	34.32
335.271	36
335.482	36.04
335.692	37.37
335.903	36.82
336.114	33.55
336.325	35.8
336.535	36.44
336.746	36.15
336.957	35.85
337.167	37.41
337.378	37.62
337.589	35.96
337.799	36.49
338.01	36.04
338.22	35.44
338.431	37.07
338.642	35.81
338.852	36.22
339.063	36.07
339.273	37.2
339.484	36.47
339.694	37.13
339.905	36.19
340.115	37.4
340.326	37.99
340.536	37.31
340.746	35.72
340.957	32.97
341.167	33.7
341.378	31.97
341.588	31.24
341.799	30.02
342.009	30.02
342.219	31.08
342.43	30.93
342.64	30.59
342.85	32.02
343.061	32.08
343.271	33.62
343.481	32.54
343.691	32.56
343.902	30.9
344.112	30.87
344.322	30.63
344.532	30.97
344.743	30.36
344.953	29.49
345.163	28.55
345.373	28.54
345.583	28.17
345.793	29.51
346.004	31.94
346.214	32.35
346.424	34.58
346.634	34.53
346.844	34.13
347.054	32.61
347.264	35.15
347.474	34.85
347.684	35.7
347.894	33
348.104	33.11
348.314	31.95
348.524	32.3
348.734	30.45
348.944	28.88
349.154	28.47
349.364	29.57
349.574	25.11
349.784	26.78
349.994	27.88
350.204	29.66
350.413	28.3
350.623	27.79
350.833	28.28
351.043	27.3
351.253	27.19
351.463	28.42
351.672	27.79
351.882	30.28
352.092	29.31
352.302	28.26
352.511	28.47
352.721	29.12
352.931	29.39
353.141	28.08
353.35	28.83
353.56	29.22
353.77	28.7
353.979	27.96
354.189	27.7
354.399	29.2
354.608	29.79
354.818	31.99
355.027	31.95
355.237	32.55
355.447	33.27
355.656	32.6
355.866	31.82
356.075	31.63
356.285	32.87
356.494	33.29
356.704	32.28
356.913	30.98
357.123	28.84
357.332	28.22
357.542	27.62
357.751	27
357.96	27.09
358.17	26.27
358.379	25.67
358.589	25.89
358.798	24.05
359.007	23.59
359.217	24.2
359.426	23.62
359.635	22.41
359.845	23.04
360.054	23.35
360.263	23.14
360.472	24.75
360.682	23.85
360.891	21.51
361.1	22.52
361.309	22
361.519	21.62
361.728	20.87
361.937	22.22
362.146	22.44
362.355	21.75
362.564	22.68
362.774	22.69
362.983	23.25
363.192	24.18
363.401	24.21
363.61	23.56
363.819	24.05
364.028	26.19
364.237	25.84
364.446	24.43
364.655	24.55
364.864	25.82
365.073	25.24
365.282	26.43
365.491	27.26
365.7	26.74
365.909	27.36
366.118	28.4
366.327	27.91
366.536	28.77
366.745	29.73
366.954	30.52
367.162	28.54
367.371	28.38
367.58	28.43
367.789	28.62
367.998	28.79
368.207	28.9
368.415	27.41
368.624	26.77
368.833	25.22
369.042	24.04
369.25	23.57
369.459	24.26
369.668	23.46
369.877	24.56
370.085	23.66
370.294	23.12
370.503	23.66
370.711	23.44
370.92	23.16
371.129	24.4
371.337	25.38
371.546	24.98
371.754	25.15
371.963	25.94
372.171	23.84
372.38	23.95
372.589	23.83
372.797	22.37
373.006	22.88
373.214	23.01
373.423	22.09
373.631	21.13
373.84	21.61
374.048	21.12
374.256	21.23
374.465	22.72
374.673	22.25
374.882	23.81
375.09	24.07
375.298	23.61
375.507	24.19
375.715	24.89
375.923	23.8
376.132	23.63
376.34	23.78
376.548	24.47
376.757	22.66
376.965	22.94
377.173	22.37
377.381	23.71
377.59	24.18
377.798	23.77
378.006	23.12
378.214	24.74
378.423	24.89
378.631	24.79
378.839	23.52
379.047	25.43
379.255	25.96
379.463	26.07
379.671	26.46
379.879	26.07
380.088	26.57
380.296	27.22
380.504	28.59
380.712	28.02
380.92	27.8
381.128	28.54
381.336	28.27
381.544	28.26
381.752	28.11
381.96	27.1
382.168	28.05
382.376	26.68
382.584	26.66
382.791	24.67
382.999	25.04
383.207	25.16
383.415	25.4
383.623	25.61
383.831	27.43
384.039	27.08
384.247	26.79
384.454	26.29
384.662	27.84
384.87	27.04
385.078	27.23
385.285	27.27
385.493	27.13
385.701	26.74
385.909	24.61
386.116	24.23
386.324	24.5
386.532	24.93
386.739	25.78
386.947	26.35
387.155	26.56
387.362	27.85
387.57	28.46
387.778	27.65
387.985	27.18
388.193	28.6
388.4	27.52
388.608	26.91
388.816	25.84
389.023	24.06
389.231	22.79
389.438	21.96
389.646	21.85
389.853	21.52
390.061	21.76
390.268	22.09
390.475	21.7
390.683	21.91
390.89	23.05
391.098	24.74
391.305	26.08
391.512	26.57
391.72	26.96
391.927	24.68
392.135	24.36
392.342	24.37
392.549	25.15
392.756	25.02
392.964	24.85
393.171	24.76
393.378	23.73
393.586	22.79
393.793	22.13
394	21.37
394.207	22.66
394.414	22.65
394.622	23.98
394.829	22.38
395.036	22.22
395.243	22.34
395.45	21.57
395.657	20.96
395.864	22.4
396.072	22.59
396.279	23.44
396.486	23.62
396.693	24.68
396.9	24.13
397.107	25.06
397.314	26.4
397.521	25.81
397.728	25.88
397.935	26.43
398.142	24.51
398.349	25.14
398.556	25.41
398.763	26.54
398.97	25.55
399.177	25.61
399.383	25.15
399.59	24.86
399.797	25.71
400.004	25.66
400.211	25.24
400.418	25.87
400.625	26
400.831	25.46
401.038	23.85
401.245	24.34
401.452	23.92
401.658	24.26
401.865	22.95
402.072	23.15
402.279	23.03
402.485	22.89
402.692	23.06
402.899	23.19
403.105	23.43
403.312	24.84
403.519	24.85
403.725	24.95
403.932	24.99
404.138	25.66
404.345	24.75
404.552	25.22
404.758	25.95
404.965	25.83
405.171	25.87
405.378	26.82
405.584	25.92
405.791	25.94
405.997	26.41
406.204	27.23
406.41	27.31
406.617	27.39
406.823	26.49
407.029	26.55
407.236	26.83
407.442	26.75
407.649	26.51
407.855	27.12
408.061	26.57
408.268	27.5
408.474	27.45
408.68	28.35
408.887	28.92
409.093	29.01
409.299	28.9
409.505	28.96
409.712	28.13
409.918	27.51
410.124	27.08
410.33	27.57
410.537	26.21
410.743	25.7
410.949	24.99
411.155	25.53
411.361	26.07
411.567	25.94
411.773	25.32
411.98	25.82
412.186	26.9
412.392	27.66
412.598	28.22
412.804	28.31
413.01	27.82
413.216	28.16
413.422	27.42
413.628	27.24
413.834	26.73
414.04	26.7
414.246	27.09
414.452	26.43
414.658	26.36
414.864	25.92
415.07	26.67
415.275	26.63
415.481	26.88
415.687	26.75
415.893	26.77
416.099	27.55
416.305	27.74
416.511	27.31
416.716	26.46
416.922	26.4
417.128	25.84
417.334	24.51
417.539	24.65
417.745	24.05
417.951	23.15
418.157	23.19
418.362	22.83
418.568	22.02
418.774	21.4
418.979	21.77
419.185	21.07
419.391	20.98
419.596	21.33
419.802	21.1
420.008	20.84
420.213	21.48
420.419	21.45
420.624	20.84
420.83	21.51
421.035	21.63
421.241	21.83
421.446	21.92
421.652	21.84
421.857	21.63
422.063	21.6
422.268	21.59
422.474	21.35
422.679	21.15
422.885	21.93
423.09	21.68
423.295	21.57
423.501	21.48
423.706	21.32
423.911	20.84
424.117	20.51
424.322	20.95
424.527	21.26
424.733	21.05
424.938	20.89
425.143	20.27
425.349	20.75
425.554	20.6
425.759	20.59
425.964	20.95
426.169	21.56
426.375	22.5
426.58	22.41
426.785	22.37
426.99	23.1
427.195	23.02
427.4	23.76
427.605	23.09
427.811	24.27
428.016	23.8
428.221	23.78
428.426	23.37
428.631	22.91
428.836	22.84
429.041	22.58
429.246	22.79
429.451	24.35
429.656	23.84
429.861	23.86
430.066	24
430.271	24.58
430.476	23.63
430.681	24.41
430.886	24.33
431.09	24.15
431.295	24.57
431.5	24.09
431.705	23.47
431.91	23.63
432.115	23.88
432.32	23.16
432.524	22.54
432.729	23.23
432.934	23.17
433.139	23.42
433.343	23.62
433.548	23.36
433.753	23.35
433.958	22.71
434.162	23.05
434.367	22.8
434.572	22.45
434.776	22.89
434.981	22.19
435.186	22.27
435.39	21.9
435.595	22.05
435.799	22.03
436.004	21.33
436.209	22.11
436.413	21.67
436.618	21.53
436.822	22.15
437.027	21.45
437.231	22.49
437.436	22
437.64	21.86
437.845	21.19
438.049	21.14
438.253	21.54
438.458	20.87
438.662	21.22
438.867	21.23
439.071	21.07
439.275	21.41
439.48	20.84
439.684	20.74
439.888	20.94
440.093	21.06
440.297	20.95
440.501	21.14
440.706	21.26
440.91	20.83
441.114	21.09
441.318	21.24
441.523	21.6
441.727	21.87
441.931	22.26
442.135	22.2
442.339	22.29
442.543	23.03
442.748	22.79
442.952	22.6
443.156	22.6
443.36	22.84
443.564	22.77
443.768	22.59
443.972	23.25
444.176	22.72
444.38	22.6
444.584	22.61
444.788	21.41
444.992	21.58
445.196	21.74
445.4	21.55
445.604	20.82
445.808	20.52
446.012	20.38
446.216	19.43
446.42	19.62
446.624	20.1
446.828	20.06
447.032	20.62
447.235	20.29
447.439	19.94
447.643	20.01
447.847	20.54
448.051	20.97
448.254	21.09
448.458	21.56
448.662	21.87
448.866	21.43
449.069	21.61
449.273	21.65
449.477	22.08
449.681	22.28
449.884	22.69
450.088	22.5
450.292	22.2
450.495	22.78
450.699	22.89
450.902	22.97
451.106	23.01
451.31	23.16
451.513	23.34
451.717	22.89
451.92	22.79
452.124	22.73
452.327	22.7
452.531	22.22
452.734	21.99
452.938	21.52
453.141	21.6
453.345	21.57
453.548	21.35
453.752	21.55
453.955	22.09
454.158	22.8
454.362	22.44
454.565	23.04
454.769	24.18
454.972	24.29
455.175	24.08
455.379	23.92
455.582	24.26
455.785	24
455.988	23.65
456.192	23.65
456.395	23.42
456.598	23.88
456.801	23.13
457.005	22.51
457.208	21.83
457.411	22.3
457.614	21.23
457.817	20.69
458.021	20.6
458.224	20.41
458.427	20.16
458.63	20.27
458.833	19.72
459.036	19.59
459.239	20.01
459.442	20.14
459.645	20.09
459.848	20.51
460.051	20.98
460.254	21
460.457	21.1
460.66	21.48
460.863	21.23
461.066	21.44
461.269	21.78
461.472	21.23
461.675	20.9
461.878	21.09
462.081	21.07
462.284	21.06
462.486	21.75
462.689	21.57
462.892	21.61
463.095	21.71
463.298	22.04
463.5	22.43
463.703	22.68
463.906	23.59
464.109	23.32
464.311	23.97
464.514	23.99
464.717	23.9
464.92	23.84
465.122	23.59
465.325	23.67
465.528	23.75
465.73	23.27
465.933	23
466.135	22.39
466.338	22.56
466.541	22.49
466.743	22.13
466.946	22.09
467.148	21.77
467.351	21.61
467.553	21.27
467.756	20.71
467.958	20.81
468.161	21.05
468.363	21.05
468.566	20.53
468.768	20.62
468.971	21.5
469.173	21.27
469.375	21.58
469.578	21.64
469.78	21.92
469.983	23.06
470.185	23.45
470.387	23.26
470.59	23.62
470.792	23.89
470.994	23.97
471.196	23.17
471.399	23.64
471.601	23.77
471.803	23.65
472.005	23.86
472.208	22.89
472.41	22.81
472.612	22.99
472.814	22.62
473.016	22.63
473.218	22.27
473.421	22.19
473.623	21.6
473.825	22.08
474.027	22.26
474.229	22.01
474.431	22.75
474.633	22.37
474.835	22.66
475.037	23.25
475.239	23.73
475.441	23.83
475.643	23.62
475.845	23.78
476.047	23.36
476.249	23.73
476.451	24.23
476.653	23.73
476.855	23.9
477.057	24.12
477.258	24
477.46	23.84
477.662	23.89
477.864	24.13
478.066	24.34
478.268	24.07
478.469	23.28
478.671	22.38
478.873	22.68
479.075	22.4
479.276	22.25
479.478	22.26
479.68	21.59
479.882	21.36
480.083	21.24
480.285	20.67
480.487	20.83
480.688	20.82
480.89	21.04
481.091	20.3
481.293	20.08
481.495	19.18
481.696	18.4
481.898	18.39
482.099	17.87
482.301	17.47
482.502	17.53
482.704	17.23
482.905	16.93
483.107	16.67
483.308	16.65
483.51	16.43
483.711	16.46
483.913	16.57
484.114	16.51
484.315	16.56
484.517	16.65
484.718	16.55
484.92	16.68
485.121	16.92
485.322	17.06
485.524	17.2
485.725	17.46
485.926	17.43
486.127	17.62
486.329	17.62
486.53	17.6
486.731	17.6
486.932	17.31
487.134	17.16
487.335	17.24
487.536	17.24
487.737	17.19
487.938	17.29
488.139	17.52
488.341	17.32
488.542	17.44
488.743	17.89
488.944	18.15
489.145	18.51
489.346	18.93
489.547	18.87
489.748	19.14
489.949	19.42
490.15	19.34
490.351	19.14
490.552	19.21
490.753	19.28
490.954	19.11
491.155	18.88
491.356	18.81
491.557	18.65
491.758	18.55
491.959	18.38
492.159	18.22
492.36	18.4
492.561	18.73
492.762	19.21
492.963	19.29
493.164	19.43
493.364	19.93
493.565	20.06
493.766	20.57
493.967	21.04
494.167	21.16
494.368	21.43
494.569	21.31
494.769	21.22
494.97	21.13
495.171	21.24
495.371	21.07
495.572	20.69
495.773	20.53
495.973	20.18
496.174	20.5
496.375	20.44
496.575	20.6
496.776	20.91
496.976	20.91
497.177	20.82
497.377	20.58
497.578	20.81
497.778	20.91
497.979	21.46
498.179	21.61
498.38	21.5
498.58	21.75
498.78	21.52
498.981	20.94
499.181	21.48
499.382	21.46
499.582	21.74
499.782	21.75
499.983	21.97
500.183	21.85
500.383	22.05
500.584	21.56
500.784	21.6
500.984	21.55
501.184	21.89
501.385	21.81
501.585	21.94
501.785	21.72
501.985	21.68
502.185	21.63
502.386	21.86
502.586	21.49
502.786	22.09
502.986	21.86
503.186	21.75
503.386	21.98
503.586	21.8
503.786	21.94
503.987	22.12
504.187	22.5
504.387	22.67
504.587	22.64
504.787	23.02
504.987	23.01
505.187	23.22
505.387	23.9
505.587	23.81
505.786	23.85
505.986	23.22
506.186	23.06
506.386	22.89
506.586	22.79
506.786	22.51
506.986	22.49
507.186	22.29
507.386	22.44
507.585	21.67
507.785	21.54
507.985	21.21
508.185	21.46
508.384	21.9
508.584	21.69
508.784	21.67
508.984	21.73
509.183	21.3
509.383	21.75
509.583	21.89
509.782	22.04
509.982	21.96
510.182	22.15
510.381	22.08
510.581	21.36
510.781	21.61
510.98	21.52
511.18	21.6
511.379	21.78
511.579	21.22
511.778	20.87
511.978	21.09
512.177	21.1
512.377	20.83
512.576	20.91
512.776	21.32
512.975	21.15
513.175	21.42
513.374	21.55
513.573	22.06
513.773	22.19
513.972	22.81
514.172	23.14
514.371	23.42
514.57	24.17
514.77	24.5
514.969	24.13
515.168	24.71
515.367	24.73
515.567	24.57
515.766	24.13
515.965	24.07
516.164	23.71
516.364	23.33
516.563	23.16
516.762	22.57
516.961	22.22
517.16	21.85
517.359	21.35
517.559	21.1
517.758	21.13
517.957	20.97
518.156	21.11
518.355	20.85
518.554	21.03
518.753	21.1
518.952	21.3
519.151	21.44
519.35	22.52
519.549	22.77
519.748	23.36
519.947	23.39
520.146	23.55
520.345	24.09
520.544	24.71
520.743	25.05
520.942	25.08
521.141	25.17
521.339	25.14
521.538	24.67
521.737	24.63
521.936	23.93
522.135	24.17
522.333	24.3
522.532	23.6
522.731	23.04
522.93	22.56
523.129	22.66
523.327	22.65
523.526	22.31
523.725	22.42
523.923	22.07
524.122	22.37
524.321	22.15
524.519	22.49
524.718	22.24
524.917	22.34
525.115	22.31
525.314	21.97
525.512	21.81
525.711	21.91
525.909	21.34
526.108	21.48
526.306	21.26
526.505	21.05
526.703	20.62
526.902	20.3
527.1	19.98
527.299	19.67
527.497	19.46
527.696	19.01
527.894	18.91
528.092	19.09
528.291	18.93
528.489	18.86
528.688	19.01
528.886	18.98
529.084	19.3
529.283	19.46
529.481	19.8
529.679	20.03
529.877	20.65
530.076	20.63
530.274	20.73
530.472	20.89
530.67	20.95
530.869	20.75
531.067	21
531.265	20.95
531.463	20.96
531.661	20.5
531.859	20.47
532.057	20.29
532.255	20.72
532.454	20.66
532.652	20.7
532.85	21
533.048	21.04
533.246	21.01
533.444	21.16
533.642	21.2
533.84	21.64
534.038	21.68
534.236	21.92
534.434	22.26
534.632	22.44
534.83	22.43
535.027	22.39
535.225	22.51
535.423	22.5
535.621	22.52
535.819	22.3
536.017	22.09
536.215	22.59
536.412	22.41
536.61	22.11
536.808	22.43
537.006	22.84
537.203	22.97
537.401	22.97
537.599	23.17
537.797	23.18
537.994	23.82
538.192	24.15
538.39	23.95
538.587	24.06
538.785	24.03
538.983	23.83
539.18	23.56
539.378	23.12
539.575	23.18
539.773	22.97
539.97	22.82
540.168	22.77
540.366	22.7
540.563	22.51
540.761	22.4
540.958	22.5
541.155	22.21
541.353	22.17
541.55	22.2
541.748	22.29
541.945	22.07
542.143	22.21
542.34	22.14
542.537	22.32
542.735	22.54
542.932	22.87
543.129	22.96
543.327	23.52
543.524	23.84
543.721	23.98
543.919	24.2
544.116	24.79
544.313	24.94
544.51	25.04
544.708	24.99
544.905	24.82
545.102	25.08
545.299	24.98
545.496	24.83
545.693	24.31
545.891	24.67
546.088	24.32
546.285	24.5
546.482	24.74
546.679	24.87
546.876	24.79
547.073	25.53
547.27	25.46
547.467	25.66
547.664	26.15
547.861	26.74
548.058	26.78
548.255	27.08
548.452	27.07
548.649	27.11
548.846	26.7
549.043	27.35
549.24	26.96
549.437	26.78
549.633	26.88
549.83	26.72
550.027	27.04
550.224	27.53
550.421	27.59
550.618	28.08
550.814	27.79
551.011	27.97
551.208	27.78
551.405	27.67
551.601	27.61
551.798	27.85
551.995	27.45
552.191	27.17
552.388	26.8
552.585	27.37
552.781	27.22
552.978	27.23
553.175	27.41
553.371	27.57
553.568	28.23
553.764	28.81
553.961	28.42
554.157	29.2
554.354	29.54
554.55	29.83
554.747	29.86
554.943	30.15
555.14	30.67
555.336	31.33
555.533	31.03
555.729	31.53
555.926	31.58
556.122	31.81
556.318	31.69
556.515	31.8
556.711	31.84
556.907	32.46
557.104	32.42
557.3	32.1
557.496	31.93
557.693	32.01
557.889	31.37
558.085	31.23
558.281	31.46
558.478	31.92
558.674	31.71
558.87	31.83
559.066	30.33
559.262	30.41
559.459	30.86
559.655	31
559.851	30.97
560.047	30.91
560.243	31.27
560.439	31.16
560.635	31.06
560.831	31.45
561.027	30.68
561.223	31
561.419	30.93
561.615	31.27
561.811	31.34
562.007	31.92
562.203	32.64
562.399	32.53
562.595	33.2
562.791	32.82
562.987	32.1
563.183	32.55
563.379	33.01
563.575	33.08
563.771	32.97
563.966	32.85
564.162	33
564.358	32.15
564.554	31.83
564.75	30.76
564.945	30.77
565.141	30.98
565.337	30.97
565.533	30.9
565.728	31
565.924	30.66
566.12	31.34
566.315	31.14
566.511	31.45
566.707	31.75
566.902	32.49
567.098	33.11
567.293	33.69
567.489	34.2
567.684	34.74
567.88	34.19
568.076	34.08
568.271	33.84
568.467	34.32
568.662	33.92
568.858	33.97
569.053	34.21
569.248	33.58
569.444	33.54
569.639	33.31
569.835	33.29
570.03	34.28
570.225	35.01
570.421	34.72
570.616	34.33
570.812	35.39
571.007	34.94
571.202	34.22
571.397	34.74
571.593	34.6
571.788	34.65
571.983	34.29
572.178	34.41
572.374	34.71
572.569	34.58
572.764	35.18
572.959	34.5
573.154	34.81
573.35	35.03
573.545	35.23
573.74	35.47
573.935	35.41
574.13	36.05
574.325	35.47
574.52	35.02
574.715	35.15
574.91	34.89
575.105	35.05
575.3	35.77
575.495	36.13
575.69	36.09
575.885	36.35
576.08	36.58
576.275	36.59
576.47	36.47
576.665	36.22
576.86	36.67
577.055	36.24
577.25	36.59
577.444	36.88
577.639	37.08
577.834	36.75
578.029	37
578.224	37.33
578.418	36.91
578.613	36.62
578.808	37.57
579.003	37.42
579.197	38.02
579.392	37.92
579.587	37.06
579.781	37.17
579.976	37.47
580.171	36.98
580.365	38.01
580.56	38.76
580.755	39.81
580.949	39.45
581.144	40.32
581.338	40.42
581.533	40.38
581.727	40.57
581.922	40.69
582.116	41.44
582.311	41.39
582.505	40.19
582.7	40.28
582.894	40.56
583.089	40.55
583.283	40.33
583.478	40.43
583.672	40.46
583.866	41.11
584.061	41.41
584.255	41.08
584.449	41.82
584.644	42.36
584.838	42.23
585.032	41.69
585.226	42.24
585.421	41.9
585.615	41.14
585.809	42.03
586.003	41.77
586.198	41.57
586.392	41.05
586.586	41.26
586.78	41.15
586.974	41.23
587.168	41.27
587.363	41.17
587.557	41.37
587.751	41.84
587.945	41.37
588.139	41.25
588.333	40.82
588.527	41.24
588.721	40.08
588.915	40.04
589.109	39.53
589.303	39.35
589.497	39.4
589.691	39.34
589.885	39.76
590.079	40.26
590.273	40.15
590.466	41.07
590.66	41.09
590.854	42.39
591.048	42.68
591.242	43.39
591.436	44.09
591.629	44.6
591.823	44.73
592.017	44.36
592.211	43.9
592.404	44.43
592.598	43.96
592.792	43.55
592.986	43.03
593.179	42.87
593.373	42.57
593.567	42.51
593.76	41.84
593.954	41.47
594.147	42.12
594.341	42.39
594.535	42.74
594.728	42.75
594.922	42.73
595.115	42.82
595.309	42.88
595.502	42.84
595.696	43.01
595.889	43.1
596.083	43.49
596.276	43
596.47	42.85
596.663	42.17
596.856	41.75
597.05	42.13
597.243	42.23
597.437	41.97
597.63	42.15
597.823	42.27
598.017	42.06
598.21	41.71
598.403	41.89
598.596	42
598.79	42.84
598.983	43.52
599.176	43.26
599.369	43.39
599.563	44.15
599.756	44.99
599.949	44.82
600.142	45.07
600.335	44.94
600.528	45.34
600.722	45.56
600.915	44.94
601.108	44.81
601.301	45.16
601.494	45.33
601.687	44.37
601.88	43.17
602.073	43.55
602.266	43.66
602.459	44.06
602.652	43.79
602.845	43.38
603.038	43.65
603.231	43.35
603.424	43.48
603.617	43.14
603.809	43.64
604.002	43.72
604.195	43.44
604.388	43.14
604.581	43.36
604.774	43.87
604.966	43.71
605.159	43.42
605.352	43.86
605.545	44.09
605.737	44.28
605.93	44.34
606.123	44.9
606.316	44.84
606.508	45.54
606.701	45.29
606.894	44.73
607.086	45.02
607.279	46.23
607.471	46.5
607.664	46.14
607.857	45.87
608.049	45.93
608.242	45.83
608.434	45.56
608.627	45.19
608.819	45.2
609.012	45.33
609.204	46
609.397	45.48
609.589	45.67
609.782	46.23
609.974	46.48
610.166	46.83
610.359	47.9
610.551	48.81
610.743	49.49
610.936	50.16
611.128	50.72
611.32	51.01
611.513	50.73
611.705	50.72
611.897	50.38
612.09	50.89
612.282	50.97
612.474	50
612.666	49.79
612.858	50.27
613.051	49.44
613.243	48.48
613.435	48.92
613.627	48.74
613.819	48.88
614.011	49.85
614.203	50.02
614.395	49.35
614.588	48.73
614.78	48.38
614.972	48.51
615.164	49.9
615.356	50.75
615.548	50.2
615.74	50.89
615.932	50.41
616.124	48.88
616.315	49.09
616.507	49.9
616.699	50.64
616.891	50.9
617.083	50.28
617.275	49.54
617.467	49.68
617.659	49.81
617.85	50.18
618.042	50.66
618.234	51.94
618.426	51.82
618.618	50.77
618.809	50.3
619.001	49.99
619.193	49.84
619.384	50.19
619.576	50.44
619.768	50.05
619.959	49.5
620.151	49.26
620.343	49.34
620.534	49.22
620.726	50.41
620.917	51.93
621.109	52.4
621.301	52.25
621.492	52.15
621.684	51.7
621.875	51.54
622.067	51.41
622.258	51.7
622.45	50.94
622.641	51.49
622.832	52.07
623.024	50.45
623.215	50.39
623.407	50.65
623.598	50.45
623.789	50.04
623.981	50.57
624.172	51.29
624.363	51.51
624.555	51.5
624.746	50.96
624.937	50.08
625.129	50.61
625.32	50.36
625.511	50.44
625.702	50.11
625.893	50.53
626.085	50.22
626.276	49.48
626.467	49.15
626.658	49.21
626.849	49.18
627.04	48.87
627.231	49.22
627.422	50.06
627.614	50.31
627.805	50.97
627.996	51.56
628.187	51.81
628.378	52.43
628.569	52.67
628.76	53.52
628.951	53.62
629.142	54.05
629.332	53.58
629.523	53.03
629.714	52.88
629.905	52.26
630.096	51.12
630.287	51.82
630.478	52.13
630.669	51.74
630.859	50.8
631.05	50.34
631.241	50.05
631.432	50.42
631.623	51.38
631.813	51.45
632.004	51.98
632.195	52.04
632.385	51.23
632.576	50.2
632.767	51.11
632.957	51.5
633.148	52.24
633.339	53.04
633.529	52.68
633.72	52.38
633.91	52.64
634.101	52.95
634.292	54.09
634.482	54.43
634.673	54.79
634.863	54.71
635.054	55.14
635.244	55.38
635.435	54.98
635.625	55.92
635.815	54.68
636.006	54.36
636.196	54.52
636.387	54.13
636.577	54.01
636.767	54.97
636.958	54.98
637.148	54.21
637.338	53.43
637.529	53.42
637.719	53.45
637.909	54.84
638.099	54.59
638.29	54.14
638.48	53.84
638.67	53.58
638.86	52.95
639.05	51.96
639.241	52.18
639.431	52.78
639.621	53.62
639.811	53.33
640.001	52.82
640.191	52.98
640.381	53.18
640.571	54.09
640.761	54.25
640.951	54.73
641.141	55.48
641.331	55.78
641.521	56.22
641.711	55.5
641.901	55.09
642.091	55.91
642.281	56.23
642.471	55.8
642.661	54.57
642.851	55.17
643.041	54.69
643.231	55.03
643.42	55.65
643.61	55.7
643.8	55.81
643.99	56.41
644.18	56.7
644.369	56.75
644.559	57.43
644.749	57.81
644.939	57.61
645.128	58.09
645.318	58.31
645.508	58.41
645.697	57.76
645.887	58.03
646.076	57.57
646.266	57.2
646.456	58.02
646.645	58.17
646.835	58.3
647.024	58.4
647.214	58.07
647.403	56.91
647.593	56.76
647.782	57.17
647.972	56.57
648.161	56.87
648.351	56.63
648.54	55.82
648.73	55.28
648.919	54.14
649.108	54.13
649.298	54.57
649.487	55.42
649.677	55.21
649.866	54.99
650.055	56.15
650.244	56.23
650.434	55.48
650.623	56.45
650.812	56.56
651.002	57.16
651.191	56.72
651.38	57.51
651.569	57.84
651.758	57.48
651.947	57.12
652.137	57.22
652.326	57.12
652.515	58.21
652.704	57.47
652.893	56.71
653.082	57.04
653.271	57.77
653.46	55.42
653.649	55.18
653.838	54.57
654.027	54.36
654.216	55.14
654.405	55.03
654.594	54.69
654.783	54.41
654.972	55.1
655.161	55.03
655.35	54.33
655.539	55.65
655.728	54.91
655.916	55.59
656.105	56.38
656.294	56.22
656.483	57.37
656.672	57.19
656.86	57.1
657.049	57.96
657.238	57.88
657.427	59.21
657.615	59.46
657.804	59.38
657.993	59.12
658.181	58.33
658.37	57.57
658.559	55.96
658.747	56.34
658.936	56.17
659.125	57
659.313	56.66
659.502	55.55
659.69	54.91
659.879	55.65
660.067	56.43
660.256	57.54
660.444	56.55
660.633	57.58
660.821	57.73
661.01	58.22
661.198	56.63
661.387	57.39
661.575	57.7
661.763	58.23
661.952	57.56
662.14	58.44
662.328	58.06
662.517	59.06
662.705	58.01
662.893	57.18
663.082	57.22
663.27	57.91
663.458	58.41
663.646	58.68
663.834	59.44
664.023	61.68
664.211	60.68
664.399	60.56
664.587	60.69
664.775	62.18
664.963	64.07
665.152	63.99
665.34	62.72
665.528	62.62
665.716	63.94
665.904	62.88
666.092	61.88
666.28	61.96
666.468	61.75
666.656	61.07
666.844	61.86
667.032	59.26
667.22	59.41
667.408	61.03
667.596	60.58
667.784	59.11
667.971	59.45
668.159	59.88
668.347	61.36
668.535	61.47
668.723	62.4
668.911	60.32
669.098	60.94
669.286	60.5
669.474	59.5
669.662	60.71
669.849	60.4
670.037	61.28
670.225	60.84
670.413	60.2
670.6	60.82
670.788	60.76
670.976	61.67
671.163	62.74
671.351	63.39
671.538	64.23
671.726	62.91
671.913	64.02
672.101	63.43
672.289	62.16
672.476	60.79
672.664	60.92
672.851	60.07
673.039	61.06
673.226	61.75
673.413	62.2
673.601	60.92
673.788	61.08
673.976	60.86
674.163	60.81
674.35	60.96
674.538	61.1
674.725	60.56
674.912	60.67
675.1	60.07
675.287	59.96
675.474	60.01
675.662	60.8
675.849	61.52
676.036	62.37
676.223	61.87
676.411	61.05
676.598	60.93
676.785	61.88
676.972	62.3
677.159	61.67
677.346	61.31
677.533	60.3
677.721	59.97
677.908	59.16
678.095	58.34
678.282	59.05
678.469	60.16
678.656	61.02
678.843	59.77
679.03	59.4
679.217	59.02
679.404	58.2
679.591	58.51
679.778	58.72
679.964	59.17
680.151	58.89
680.338	58.57
680.525	59.27
680.712	58.85
680.899	60.14
681.086	60.44
681.272	61.76
681.459	62.33
681.646	62.46
681.833	62.73
682.02	62.62
682.206	62.38
682.393	62.57
682.58	61.58
682.766	62.4
682.953	62.46
683.14	62.62
683.326	61.29
683.513	61.86
683.7	61.86
683.886	61.84
684.073	62.69
684.259	62.99
684.446	64.01
684.632	64.2
684.819	63.87
685.005	63.53
685.192	63.74
685.378	64.23
685.565	63.07
685.751	63.29
685.938	63.54
686.124	62.95
686.31	63.04
686.497	61.77
686.683	61.36
686.87	60.7
687.056	59.8
687.242	59.06
687.429	59.28
687.615	60.33
687.801	59.53
687.987	59.32
688.174	58.69
688.36	59.74
688.546	60.75
688.732	61.95
688.918	62.69
689.105	62.96
689.291	63.59
689.477	64.48
689.663	63.49
689.849	64.21
690.035	63.56
690.221	63.93
690.407	63.04
690.593	62.81
690.779	63.38
690.965	62.93
691.151	63.59
691.337	62.59
691.523	60.93
691.709	62.52
691.895	62.33
692.081	63.09
692.267	63.24
692.453	63.59
692.639	62.93
692.825	62.31
693.011	62.01
693.196	62.11
693.382	64.36
693.568	66.63
693.754	64.75
693.94	65.07
694.125	64.89
694.311	65.33
694.497	64.29
694.682	65.4
694.868	66.21
695.054	68.13
695.239	67.45
695.425	66.86
695.611	66.52
695.796	67.51
695.982	67.32
696.168	66.74
696.353	66.67
696.539	66.43
696.724	65.52
696.91	64.3
697.095	62.25
697.281	61.5
697.466	60.75
697.652	59.09
697.837	59.02
698.023	58.7
698.208	56.86
698.393	56.99
698.579	57.07
698.764	57.39
698.949	57.62
699.135	57.9
699.32	59.04
699.505	60.02
699.691	61.05
699.876	60.35
700.061	60
700.246	62.68
700.432	61.97
700.617	63.86
700.802	63.64
700.987	64.25
701.172	64.14
701.358	64.35
701.543	62.88
701.728	63.43
701.913	63.1
702.098	63.57
702.283	64.66
702.468	66.32
702.653	64.21
702.838	63.84
703.023	64.87
703.208	66.45
703.393	64.29
703.578	65.21
703.763	64.73
703.948	64.53
704.133	64.62
704.318	62.82
704.503	62.45
704.688	64.53
704.873	66.03
705.057	64.82
705.242	63.14
705.427	63.81
705.612	61.72
705.797	62.64
705.981	65.65
706.166	66.31
706.351	67.7
706.536	66.16
706.72	65.36
706.905	64.64
707.09	64.61
707.274	67.29
707.459	67.25
707.644	69.18
707.828	68.41
708.013	66.68
708.197	67.41
708.382	66.58
708.567	67.73
708.751	68.97
708.936	69.52
709.12	69.48
709.305	67.11
709.489	67.14
709.673	67.65
709.858	68.62
710.042	69.87
710.227	68.57
710.411	67.15
710.596	66.45
710.78	64.9
710.964	64.79
711.149	64.19
711.333	64.43
711.517	64.2
711.702	63.73
711.886	63.33
712.07	61.94
712.254	61.85
712.438	63.97
712.623	64.18
712.807	64.13
712.991	64.61
713.175	65.4
713.359	65.99
713.544	65.01
713.728	64.49
713.912	64.09
714.096	65.84
714.28	65.01
714.464	64.71
714.648	64.98
714.832	64.62
715.016	64.15
715.2	63.73
715.384	62.7
715.568	65.09
715.752	65.01
715.936	65.33
716.12	62.17
716.304	63.29
716.488	63.98
716.671	64.04
716.855	64.41
717.039	62.14
717.223	62.1
717.407	63.28
717.59	62.54
717.774	61.97
717.958	62.36
718.142	64.74
718.325	65.22
718.509	63.49
718.693	63.01
718.877	63.29
719.06	63.91
719.244	64.04
719.428	63.68
719.611	64.88
719.795	66.5
719.978	64.86
720.162	64.44
720.345	63.34
720.529	64.51
720.713	65.36
720.896	65.25
721.08	66.2
721.263	64.72
721.446	66.57
721.63	66.35
721.813	65.61
721.997	64.83
722.18	66.29
722.364	67.63
722.547	69.99
722.73	70.07
722.914	69.74
723.097	69.59
723.28	70.4
723.464	68.39
723.647	69.13
723.83	68.93
724.013	71.53
724.197	68.41
724.38	68.61
724.563	64.83
724.746	66.48
724.929	66.5
725.112	66.36
725.296	67.41
725.479	68.17
725.662	68.69
725.845	69.86
726.028	69.16
726.211	69.57
726.394	68.57
726.577	70.26
726.76	68.64
726.943	68.58
727.126	70.27
727.309	69.45
727.492	68.74
727.675	66.52
727.858	64.8
728.041	65.34
728.224	66.26
728.407	66.95
728.589	68.37
728.772	67.29
728.955	68.12
729.138	67.06
729.321	67.13
729.503	68.04
729.686	66.81
729.869	67.19
730.052	66.87
730.234	65.93
730.417	66.37
730.6	63.82
730.782	63.57
730.965	63.55
731.148	65.06
731.33	64.83
731.513	65.37
731.695	67.56
731.878	69.19
732.061	68.03
732.243	69.42
732.426	69.55
732.608	71.71
732.791	73.88
732.973	73.99
733.156	71.4
733.338	72.59
733.52	71.63
733.703	71.15
733.885	69.64
734.068	69.81
734.25	71.08
734.432	70.85
734.615	69.5
734.797	70.53
734.979	70.4
735.162	72.15
735.344	72.67
735.526	71.47
735.708	72.13
735.891	72.52
736.073	73.54
736.255	73.1
736.437	72.37
736.619	72.01
736.802	70.42
736.984	69.98
737.166	68.58
737.348	68.27
737.53	69.99
737.712	71.84
737.894	72.34
738.076	71.68
738.258	69.59
738.44	71.88
738.622	74.3
738.804	75.1
738.986	76.23
739.168	78.21
739.35	78.66
739.532	80.11
739.714	77.77
739.896	77.3
740.078	79.75
740.259	79.05
740.441	77.51
740.623	74.93
740.805	72.82
740.987	71.81
741.168	69.31
741.35	70.32
741.532	67.17
741.714	65.31
741.895	66.85
742.077	65.06
742.259	68.22
742.44	69.59
742.622	69.11
742.804	69.93
742.985	69.38
743.167	71.52
743.348	69.28
743.53	70.86
743.711	72.77
743.893	73.05
744.075	74.02
744.256	73.08
744.438	72.19
744.619	73.55
744.8	74.58
744.982	73.65
745.163	73.03
745.345	77.14
745.526	77.2
745.707	75.79
745.889	74.46
746.07	77.04
746.252	80.57
746.433	81.35
746.614	82.04
746.795	82.52
746.977	84.3
747.158	84.57
747.339	80.75
747.52	81.09
747.702	83.74
747.883	83.77
748.064	81.44
748.245	79.31
748.426	77.05
748.607	75.69
748.788	71.16
748.97	73.94
749.151	73.54
749.332	74.77
749.513	75.05
749.694	74.23
749.875	77.84
750.056	79.75
750.237	78.28
750.418	82.11
750.599	81.14
750.78	86.1
750.96	84.73
751.141	85.73
751.322	84.09
751.503	83.05
751.684	81.48
751.865	78.79
752.046	75.89
752.226	72.95
752.407	72.44
752.588	74.62
752.769	75.46
752.949	72.76
753.13	70.98
753.311	69.2
753.492	70.27
753.672	71.45
753.853	70.36
754.034	68.23
754.214	69.75
754.395	67.07
754.575	66.75
754.756	64.29
754.937	66.82
755.117	68.19
755.298	68.58
755.478	67.41
755.659	67.57
755.839	68.34
756.02	70.9
756.2	71.66
756.381	72.05
756.561	73.15
756.741	76.75
756.922	75.34
757.102	75.04
757.283	78.43
757.463	80.12
757.643	79.96
757.823	82.57
758.004	80.9
758.184	80.18
758.364	82.69
758.545	77.76
758.725	76.01
758.905	73.82
759.085	73.06
759.265	70.48
759.446	68.93
759.626	67.77
759.806	64.04
759.986	64.27
760.166	66.99
760.346	63.33
760.526	67.48
760.706	64.95
760.886	65.04
761.066	67.14
761.246	66.14
761.426	67.02
761.606	67.25
761.786	65.53
761.966	65.18
762.146	62.86
762.326	62.52
762.506	60.07
762.686	60.75
762.866	61.35
763.046	60.86
763.225	61.57
763.405	60.37
763.585	60.39
763.765	63.22
763.945	63.88
764.124	64.56
764.304	68.23
764.484	69.91
764.664	72.11
764.843	73.25
765.023	74.01
765.203	75.84
765.382	77.55
765.562	77.96
765.741	77.44
765.921	78.69
766.101	80.2
766.28	78.02
766.46	80.91
766.639	77.73
766.819	78.8
766.998	78.3
767.178	76.39
767.357	75.85
767.537	76.26
767.716	76.67
767.896	77.31
768.075	78.7
768.254	78.52
768.434	76.97
768.613	80.24
768.792	81.18
768.972	83.02
769.151	86.53
769.33	86.48
769.51	87.87
769.689	87.82
769.868	87.35
770.047	85.19
770.226	83.17
770.406	83.25
770.585	84.58
770.764	82.32
770.943	81.09
771.122	80.3
771.301	80.58
771.48	79.87
771.66	83.25
771.839	81.72
772.018	80.92
772.197	85.07
772.376	87.24
772.555	84.99
772.734	83.43
772.913	84.11
773.092	84.7
773.271	84.33
773.449	83.59
773.628	82.62
773.807	83.14
773.986	82.27
774.165	80.45
774.344	81.07
774.523	81.18
774.701	84.36
774.88	84.95
775.059	82.93
775.238	82.44
775.417	82.39
775.595	82.27
775.774	82.47
775.953	83.94
776.131	83.78
776.31	80.87
776.489	79.99
776.667	78.33
776.846	75.01
777.025	75.9
777.203	78.64
777.382	77.25
777.56	75.03
777.739	74.42
777.917	73.99
778.096	76
778.274	77.96
778.453	79.3
778.631	80.14
778.81	81.17
778.988	81.77
779.166	82.05
779.345	83.08
779.523	82.97
779.702	85.19
779.88	87.14
780.058	88.88
780.237	88.02
780.415	90.12
780.593	89.42
780.771	87.47
780.95	87.37
781.128	84.53
781.306	82.96
781.484	86.69
781.662	87.89
781.841	85.51
782.019	81.78
782.197	81.71
782.375	80.87
782.553	81.38
782.731	82.44
782.909	81.01
783.087	81.27
783.265	82.2
783.443	77.78
783.621	75.79
783.799	78.7
783.977	82.86
784.155	84.53
784.333	82.56
784.511	84.49
784.689	85.34
784.867	84.16
785.045	86.13
785.223	87.22
785.4	87.95
785.578	86.44
785.756	82.98
785.934	82.42
786.112	83.62
786.289	83.26
786.467	83.73
786.645	82.58
786.823	84.41
787	81.66
787.178	80.29
787.356	82
787.533	83.61
787.711	83.56
787.889	79.61
788.066	75.44
788.244	74
788.421	73.32
788.599	75.68
788.776	73.38
788.954	76.58
789.131	79.1
789.309	80.12
789.486	82.39
789.664	85.08
789.841	86.87
790.019	87.86
790.196	92.24
790.373	92.34
790.551	88.73
790.728	88.7
790.906	91.73
791.083	84.47
791.26	79.46
791.437	77.33
791.615	77.61
791.792	76.83
791.969	80.57
792.146	78.79
792.324	78.97
792.501	83.18
792.678	86.58
792.855	83.21
793.032	90.13
793.209	93.46
793.387	93.91
793.564	92.72
793.741	88.72
793.918	89.32
794.095	90.66
794.272	91.59
794.449	87.31
794.626	85.82
794.803	79.68
794.98	77.57
795.157	79.42
795.334	82.14
795.511	81.81
795.688	84.63
795.864	81.98
796.041	76.65
796.218	72.54
796.395	75.57
796.572	75.19
796.749	79.33
796.925	82.23
797.102	79.48
797.279	73.97
797.456	73.88
797.632	73.23
797.809	74.83
797.986	81.48
798.162	84.67
798.339	83.32
798.516	87.28
798.692	84.75
798.869	83.04
799.046	85.52
799.222	85.61
799.399	86.4
799.575	89.83
799.752	88.49
799.928	87.27
800.105	88.85
800.281	88.05
800.458	85.18
800.634	85.92
800.811	88.1
800.987	85.31
801.163	90.11
801.34	86.42
801.516	85.64
801.692	85.24
801.869	81.51
802.045	79.35
802.221	81.41
802.398	83.6
802.574	86.01
802.75	83.08
802.926	84.8
803.103	80.27
803.279	86.01
803.455	86.9
803.631	86.83
803.807	88.64
803.983	89.84
804.16	90
804.336	89.91
804.512	90.55
804.688	92.59
804.864	90.23
805.04	95.05
805.216	93.51
805.392	92.71
805.568	90.17
805.744	92.55
805.92	90.48
806.096	86.95
806.272	83.81
806.448	81.76
806.623	80.38
806.799	81.35
806.975	77.35
807.151	72.62
807.327	74.45
807.503	74.48
807.678	78.17
807.854	78.83
808.03	80.42
808.206	82.98
808.381	84.45
808.557	85.25
808.733	86.59
808.908	87.06
809.084	90.6
809.26	86.44
809.435	86.33
809.611	83.07
809.787	84.51
809.962	84.11
810.138	82.44
810.313	84.14
810.489	86.08
810.664	84.21
810.84	85.26
811.015	85.51
811.191	87.61
811.366	88.73
811.542	87.43
811.717	85.32
811.892	83.73
812.068	82.57
812.243	77.56
812.419	76.85
812.594	81.06
812.769	78.7
812.944	76.73
813.12	73.99
813.295	74.54
813.47	76.03
813.645	75.11
813.821	79.13
813.996	77.35
814.171	78.97
814.346	76.88
814.521	75.09
814.697	74.51
814.872	73.31
815.047	76.28
815.222	76.38
815.397	76.65
815.572	78.16
815.747	69.8
815.922	70.2
816.097	73.61
816.272	72.81
816.447	70.42
816.622	71.3
816.797	70.42
816.972	73.86
817.147	74.05
817.322	71.21
817.496	72.12
817.671	79.66
817.846	86.16
818.021	84.43
818.196	82.96
818.371	82.91
818.545	81.53
818.72	83.59
818.895	79.32
819.069	77.69
819.244	78.91
819.419	75.8
819.594	71.7
819.768	67.32
819.943	66.15
820.117	65.62
820.292	62.12
820.467	63.17
820.641	62.33
820.816	60.36
820.99	59.21
821.165	57.17
821.339	55.19
821.514	54.48
821.688	53.11
821.863	52.28
822.037	51.85
822.212	52.65
822.386	51.77
822.56	51.07
822.735	50.59
822.909	50.99
823.084	51.63
823.258	53.78
823.432	54.11
823.606	54.44
823.781	55.77
823.955	55.68
824.129	56.91
824.303	58.44
824.478	58.95
824.652	59.46
824.826	58.55
825	59.18
825.174	60.02
825.348	61.49
825.523	64.1
825.697	64.48
825.871	65.3
826.045	64.18
826.219	63.28
826.393	63.49
826.567	63.47
826.741	65.18
826.915	65.7
827.089	65.75
827.263	66.8
827.437	66.37
827.611	67.57
827.784	70.04
827.958	69.01
828.132	68.55
828.306	68.06
828.48	72.76
828.654	74.21
828.827	72.77
829.001	75.02
829.175	75.15
829.349	76.7
829.522	75.26
829.696	75.19
829.87	76.86
830.044	78.13
830.217	79.57
830.391	78.04
830.565	77.72
830.738	78.99
830.912	74.69
831.085	72.34
831.259	70.61
831.432	70.31
831.606	69.2
831.779	72.35
831.953	73.33
832.126	73.39
832.3	70.9
832.473	70.43
832.647	71.44
832.82	70.75
832.994	71.45
833.167	71.62
833.34	70.37
833.514	70.03
833.687	69.13
833.86	67.31
834.034	68.7
834.207	67.72
834.38	66.3
834.553	65.49
834.727	67.03
834.9	68.89
835.073	69.15
835.246	70.69
835.419	70.29
835.593	72.58
835.766	71.99
835.939	74.76
836.112	81.82
836.285	87.55
836.458	89.22
836.631	90.79
836.804	95.21
836.977	100.08
837.15	100.68
837.323	103.7
837.496	106.23
837.669	116.15
837.842	112.03
838.015	109.44
838.188	107.36
838.361	108.97
838.533	108.19
838.706	100.17
838.879	95.13
839.052	94.59
839.225	92.86
839.398	88.13
839.57	87.03
839.743	85.88
839.916	83.09
840.088	81.76
840.261	81.36
840.434	84.71
840.607	84.67
840.779	87.12
840.952	88.56
841.124	93.7
841.297	96.14
841.47	98.47
841.642	106.55
841.815	108.28
841.987	109.86
842.16	105.05
842.332	102.48
842.505	103.04
842.677	102.37
842.85	107.27
843.022	105.3
843.194	106.12
843.367	98.79
843.539	89.08
843.712	85.48
843.884	86.94
844.056	96.3
844.229	93.71
844.401	95.08
844.573	92.55
844.745	87.86
844.918	86.33
845.09	83.56
845.262	93.81
845.434	101.63
845.606	103.79
845.779	101.84
845.951	100.21
846.123	100.14
846.295	102.81
846.467	108.64
846.639	109.66
846.811	119.42
846.983	120.3
847.155	116.44
847.327	110.25
847.499	114.37
847.671	117.26
847.843	112.11
848.015	105.23
848.187	100.45
848.359	102.76
848.531	99.09
848.703	88.66
848.875	87.06
849.047	85.28
849.218	85.9
849.39	84.51
849.562	82.79
849.734	83.16
849.905	89.4
850.077	87.8
850.249	87.35
850.421	91.48
850.592	91.93
850.764	97.77
850.936	94.09
851.107	93.65
851.279	96.3
851.451	97.59
851.622	98.06
851.794	95.84
851.965	93.71
852.137	87.29
852.308	86.43
852.48	89.61
852.651	86.37
852.823	91.03
852.994	89.46
853.166	83.66
853.337	84.41
853.509	79.61
853.68	77.69
853.851	83.53
854.023	81.76
854.194	80.26
854.365	77.57
854.537	76.85
854.708	74.26
854.879	75.78
855.05	77.2
855.222	73.99
855.393	83.52
855.564	90.2
855.735	90.51
855.906	95.82
856.078	102.03
856.249	103.67
856.42	108.22
856.591	107.04
856.762	103.71
856.933	106.35
857.104	115.17
857.275	104.36
857.446	100.66
857.617	100.9
857.788	101.34
857.959	93.75
858.13	89.54
858.301	84.64
858.472	86.04
858.643	85.79
858.814	87.84
858.985	84.67
859.155	89.65
859.326	96.35
859.497	93.66
859.668	94.73
859.839	94.3
860.009	98.11
860.18	102.59
860.351	108.07
860.522	118.74
860.692	122.35
860.863	125.98
861.034	126.63
861.204	119.96
861.375	120.05
861.546	116.97
861.716	117.56
861.887	111.46
862.057	103.64
862.228	98.91
862.398	94.71
862.569	90.44
862.739	88.87
862.91	88.3
863.08	89.4
863.251	92.83
863.421	91.59
863.592	90.01
863.762	93.32
863.932	98.93
864.103	103.7
864.273	101.42
864.443	102.03
864.614	100.91
864.784	98.51
864.954	102.07
865.125	94.67
865.295	91.59
865.465	91.1
865.635	96.94
865.805	99.65
865.976	96.72
866.146	102.2
866.316	105.13
866.486	104.6
866.656	108.98
866.826	110.47
866.996	111.67
867.166	123.86
867.336	126.79
867.506	115.8
867.676	109.76
867.846	109.85
868.016	99.52
868.186	106.35
868.356	107.88
868.526	102.54
868.696	97.09
868.866	102.49
869.036	101.32
869.206	102.19
869.376	106.58
869.545	111.4
869.715	109.35
869.885	123.66
870.055	113.14
870.224	105.21
870.394	115.79
870.564	114.08
870.734	111.1
870.903	107.56
871.073	106.45
871.243	106.24
871.412	110.16
871.582	111.59
871.751	105.34
871.921	107.09
872.091	110.79
872.26	104.33
872.43	104.59
872.599	112.87
872.769	104.4
872.938	108.8
873.108	107.8
873.277	93.79
873.446	94.19
873.616	97.67
873.785	91.77
873.955	99.65
874.124	98.66
874.293	96.32
874.463	90.19
874.632	97.64
874.801	96.82
874.971	95.51
875.14	101.36
875.309	102.95
875.478	97.35
875.647	101.69
875.817	93.14
875.986	90.15
876.155	91.6
876.324	92.64
876.493	91.6
876.662	89.59
876.831	89.05
877	89.59
877.17	87.44
877.339	90.77
877.508	92.98
877.677	93.06
877.846	92.77
878.015	87.8
878.184	92.21
878.352	89.82
878.521	91.65
878.69	89.47
878.859	89.45
879.028	91.18
879.197	89.27
879.366	85.3
879.534	84.56
879.703	86.53
879.872	92.7
880.041	84.33
880.21	81.69
880.378	80.37
880.547	80.15
880.716	73.87
880.884	70.04
881.053	67.49
881.222	65.69
881.39	65.59
881.559	65.91
881.727	64.18
881.896	64.15
882.065	64.15
882.233	62.15
882.402	62.54
882.57	63.03
882.739	64.97
882.907	64.32
883.076	65.43
883.244	65.46
883.412	67.16
883.581	66.64
883.749	66.25
883.918	68.66
884.086	68.25
884.254	68.9
884.423	72.62
884.591	71.27
884.759	74.41
884.927	74.26
885.096	76.2
885.264	72.59
885.432	76.32
885.6	85.67
885.769	79.61
885.937	80.74
886.105	78.51
886.273	80.58
886.441	83.32
886.609	89.12
886.777	93.34
886.945	91.65
887.113	95.52
887.281	95.19
887.449	92.66
887.617	97.49
887.785	100.04
887.953	99.36
888.121	101.01
888.289	99.2
888.457	92.07
888.625	89.39
888.793	89
888.961	85.72
889.129	86.68
889.296	88.94
889.464	90.73
889.632	91.59
889.8	92.95
889.967	92.42
890.135	97.34
