Data from JASIL_3244_Reflection_2.txt Node
Date: Mon Nov 16 20:33:56 EST 2015
User: Geneva
Spectrometer: USB4E03002
Autoset integration time: false
Trigger mode: 4
Integration Time (sec): 1.000000E-1
Scans to average: 10
Electric dark correction enabled: false
Nonlinearity correction enabled: false
Boxcar width: 5
Stray light correction enabled: false
XAxis mode: Wavelengths
Stop averaging: false
Number of Pixels in Spectrum: 3648
>>>>>Begin Spectral Data<<<<<
177.575	-476.92
177.794	-536.43
178.014	-596.39
178.233	-824.3
178.452	-1231.33
178.672	-782.58
178.891	-1077.36
179.11	3356.76
179.33	1124.11
179.549	-5768.18
179.768	1089.83
179.987	1364.52
180.207	846.45
180.426	431.01
180.645	534.95
180.864	822.08
181.084	407.71
181.303	334.49
181.522	629.09
181.741	1845.07
181.96	431.62
182.179	562.08
182.398	587.56
182.618	534.32
182.837	505.04
183.056	396.03
183.275	276.8
183.494	264.42
183.713	320.99
183.932	270.02
184.151	279.87
184.37	263.51
184.589	214.55
184.808	205.21
185.027	208.77
185.246	266.61
185.465	400.49
185.684	468.49
185.903	1871.26
186.122	696.41
186.341	787.64
186.56	412.11
186.779	651.3
186.998	836.92
187.216	805.51
187.435	632.93
187.654	620
187.873	280.92
188.092	205.22
188.311	198.54
188.53	318.21
188.748	338.51
188.967	780.8
189.186	497.32
189.405	574.03
189.623	607.87
189.842	516.46
190.061	525.84
190.28	1587.18
190.498	-1702.5
190.717	1204.76
190.936	-2303.39
191.154	-1116.96
191.373	-24350
191.592	-13236.36
191.81	-793.68
192.029	-1166.41
192.248	-351.87
192.466	-321.74
192.685	-344.5
192.904	-451.28
193.122	-276.27
193.341	-664.32
193.559	-633.5
193.778	-649.7
193.996	-741.22
194.215	28900
194.433	-2326.19
194.652	514.29
194.87	436.8
195.089	420.52
195.307	478.42
195.526	1489.83
195.744	744.74
195.963	440.11
196.181	9162.5
196.399	-651.28
196.618	3745
196.836	12050
197.055	-730.33
197.273	-1489.66
197.491	-915.56
197.71	-1770.59
197.928	1132.5
198.146	1926.19
198.365	-9080
198.583	475.76
198.801	668.42
199.019	1363.64
199.238	-2442.86
199.456	1004.72
199.674	509.75
199.892	385.93
200.111	503.08
200.329	486.04
200.547	395.21
200.765	354.97
200.983	397.89
201.202	303.81
201.42	537.8
201.638	382.78
201.856	442.33
202.074	1144.63
202.292	1409.09
202.51	970.07
202.728	1460.82
202.946	-3570
203.165	4957.58
203.383	-1656.7
203.601	-1970.93
203.819	3330
204.037	14950
204.255	1555.67
204.473	719.63
204.691	1049.33
204.909	684.08
205.127	766.05
205.345	887.5
205.562	708.91
205.78	435.91
205.998	426.12
206.216	430.71
206.434	395.95
206.652	362.73
206.87	288.79
207.088	235.97
207.306	267.98
207.523	267.33
207.741	215.53
207.959	221.3
208.177	267.82
208.395	232.17
208.612	231.96
208.83	240.06
209.048	259.15
209.266	310.82
209.483	329.65
209.701	296.32
209.919	334.03
210.136	349.6
210.354	784
210.572	709.5
210.79	1143.7
211.007	727.51
211.225	1029.46
211.442	-5776.19
211.66	-1645.83
211.878	-675
212.095	126.61
212.313	96.91
212.53	91.64
212.748	78.46
212.966	64.23
213.183	75.06
213.401	80.31
213.618	94.56
213.836	100.51
214.053	99.49
214.271	93.43
214.488	866.39
214.705	529.82
214.923	408.71
215.14	423.84
215.358	370.46
215.575	520.28
215.793	519.18
216.01	723.93
216.227	276.38
216.445	224.85
216.662	264.87
216.879	261.54
217.097	238.05
217.314	236.02
217.531	271.83
217.749	306.2
217.966	423.67
218.183	369.15
218.4	432.25
218.618	517.32
218.835	542.56
219.052	375.27
219.269	290.47
219.487	451.74
219.704	342.23
219.921	288.98
220.138	219.3
220.355	183.5
220.572	177.71
220.79	180.97
221.007	228.4
221.224	275.99
221.441	248.99
221.658	312.08
221.875	196.15
222.092	187.36
222.309	203.26
222.526	236.69
222.743	243.88
222.96	259.43
223.177	143.52
223.394	129.88
223.611	107.36
223.828	118.89
224.045	136.49
224.262	160.73
224.479	115.37
224.696	93.56
224.913	111.27
225.13	103.82
225.347	92.72
225.564	95.8
225.781	79.6
225.997	83.92
226.214	66.72
226.431	52.15
226.648	44.96
226.865	41.77
227.082	41.31
227.298	36.75
227.515	29.57
227.732	28.18
227.949	22.35
228.165	22.53
228.382	16.08
228.599	19.58
228.816	20.67
229.032	22.61
229.249	21.52
229.466	23.9
229.682	21.87
229.899	22.2
230.116	24.54
230.332	26.42
230.549	30.13
230.765	35.33
230.982	34.4
231.199	40.78
231.415	39.72
231.632	43.6
231.848	44.78
232.065	50.06
232.281	46.22
232.498	50.13
232.714	53.54
232.931	50.34
233.147	48.44
233.364	52.47
233.58	43.3
233.797	52.62
234.013	49.47
234.23	46.1
234.446	42.38
234.662	46.56
234.879	45.82
235.095	43.85
235.312	48.41
235.528	48.25
235.744	49.17
235.961	49.96
236.177	43.31
236.393	51.36
236.61	54.77
236.826	54.34
237.042	57.53
237.258	55.8
237.475	52.86
237.691	45.29
237.907	45.46
238.123	39.82
238.339	43.95
238.556	42.02
238.772	34.17
238.988	28.17
239.204	30.01
239.42	30.06
239.636	28.83
239.853	29.78
240.069	29.32
240.285	27.92
240.501	26.6
240.717	23.5
240.933	20.16
241.149	18.15
241.365	17.79
241.581	16.58
241.797	14.81
242.013	15.96
242.229	15.32
242.445	14.1
242.661	14.7
242.877	13.07
243.093	12.3
243.309	12.34
243.525	14.83
243.741	19.13
243.957	20.33
244.173	21.53
244.388	20.28
244.604	20.48
244.82	21.34
245.036	18.98
245.252	19.07
245.468	18.52
245.683	17.24
245.899	15.51
246.115	13.8
246.331	13.58
246.547	12.48
246.762	11.35
246.978	12.16
247.194	11.22
247.409	11.51
247.625	12.64
247.841	13.19
248.057	14.66
248.272	14.81
248.488	17.06
248.703	18.11
248.919	19.07
249.135	21.07
249.35	19.61
249.566	22.38
249.782	24.25
249.997	24.4
250.213	23.79
250.428	21.46
250.644	23.74
250.859	20.15
251.075	17.24
251.29	19.08
251.506	17.27
251.721	18.6
251.937	17.71
252.152	17.98
252.368	17.14
252.583	19.53
252.798	21.26
253.014	20.56
253.229	22.1
253.445	25.16
253.66	27.95
253.875	31.69
254.091	34.23
254.306	36.91
254.521	39.51
254.737	41.07
254.952	38.29
255.167	39.36
255.383	39.22
255.598	38.43
255.813	35.15
256.028	32.15
256.244	33.37
256.459	30.67
256.674	29.76
256.889	27.01
257.104	22.98
257.32	20.95
257.535	17.19
257.75	16.31
257.965	14.94
258.18	14.4
258.395	12.46
258.61	10.01
258.826	10.3
259.041	8.7
259.256	8.58
259.471	9.75
259.686	9.7
259.901	10.55
260.116	10.9
260.331	11.52
260.546	11.62
260.761	12.06
260.976	12.6
261.191	12.69
261.406	14.61
261.621	15.43
261.836	16.04
262.05	17.39
262.265	18.63
262.48	20.3
262.695	20.05
262.91	19.91
263.125	21.93
263.34	24.33
263.555	26.16
263.769	23.79
263.984	22.79
264.199	21.38
264.414	20.85
264.629	19.43
264.843	16.67
265.058	15.42
265.273	16.15
265.488	14.99
265.702	15.01
265.917	13.49
266.132	14.86
266.346	15.76
266.561	16.04
266.776	16.29
266.99	16.36
267.205	16.49
267.42	15.94
267.634	16.57
267.849	17.16
268.063	18.02
268.278	19.42
268.492	19.23
268.707	19.6
268.922	19.16
269.136	18.22
269.351	17.46
269.565	16.53
269.78	16.74
269.994	15.53
270.209	14.91
270.423	12
270.637	10.76
270.852	8.75
271.066	8.76
271.281	10.6
271.495	9.74
271.709	10.26
271.924	12.02
272.138	12.4
272.353	13.78
272.567	12.32
272.781	12.29
272.996	11.93
273.21	13.02
273.424	13.02
273.638	12.59
273.853	13.03
274.067	12.47
274.281	11.24
274.495	11.23
274.71	9.7
274.924	10.29
275.138	11.01
275.352	10.54
275.566	12.89
275.781	11.36
275.995	9.36
276.209	11.14
276.423	13.58
276.637	12.96
276.851	15.24
277.065	16.44
277.279	17.87
277.493	18.02
277.707	17.17
277.921	15.79
278.135	17.72
278.349	19.73
278.563	19.17
278.777	17.61
278.991	18.56
279.205	16.21
279.419	14.76
279.633	13.37
279.847	13.86
280.061	14.78
280.275	14.88
280.489	13.63
280.703	12.83
280.917	12.54
281.131	11.12
281.344	11.96
281.558	11.45
281.772	11.28
281.986	12.88
282.2	13.31
282.414	12.52
282.627	12.13
282.841	10.94
283.055	11.94
283.269	12.17
283.482	13.13
283.696	12.51
283.91	13.09
284.123	12.85
284.337	11.52
284.551	11.05
284.764	11.04
284.978	10.5
285.192	11.3
285.405	10.25
285.619	9.43
285.833	9.8
286.046	8.99
286.26	8.49
286.473	8.69
286.687	8.84
286.9	8.85
287.114	10.43
287.327	11.79
287.541	10.52
287.754	9.72
287.968	10.3
288.181	9.32
288.395	9.33
288.608	10.84
288.822	11.51
289.035	12.55
289.248	12.05
289.462	10.55
289.675	10.18
289.889	11.27
290.102	11.25
290.315	11.82
290.529	11.82
290.742	11.88
290.955	11.52
291.169	11.43
291.382	10.79
291.595	11.61
291.808	12.02
292.022	12.27
292.235	12.12
292.448	13.62
292.661	12.83
292.875	14.88
293.088	15.79
293.301	14.01
293.514	12.98
293.727	12.04
293.94	9.93
294.153	11.06
294.367	10.84
294.58	10.31
294.793	9.11
295.006	9.33
295.219	7.88
295.432	7.69
295.645	8.68
295.858	9.37
296.071	10.11
296.284	10.62
296.497	9.43
296.71	9.16
296.923	9.77
297.136	10.05
297.349	9.8
297.562	10.17
297.775	10.44
297.988	10.06
298.201	10.83
298.414	9.49
298.626	10.47
298.839	10.38
299.052	9.97
299.265	10.46
299.478	11.85
299.691	11.45
299.903	11.44
300.116	11.8
300.329	12.39
300.542	11.64
300.755	13.8
300.967	13.63
301.18	14.88
301.393	15.72
301.605	15.6
301.818	13.59
302.031	14.08
302.243	14.28
302.456	14.52
302.669	14.67
302.881	14.82
303.094	13.8
303.307	13.83
303.519	14.02
303.732	14.11
303.944	13.58
304.157	14.3
304.37	15.29
304.582	15.44
304.795	14.92
305.007	14.8
305.22	15.06
305.432	15.54
305.645	15.19
305.857	14.52
306.069	14.43
306.282	14.03
306.494	12.73
306.707	11.73
306.919	11.55
307.132	10.27
307.344	10.05
307.556	10.03
307.769	10.74
307.981	12.12
308.193	10.9
308.406	10.47
308.618	11.13
308.83	12.21
309.043	13.45
309.255	14.78
309.467	15.76
309.679	15.61
309.892	15.07
310.104	14.56
310.316	13.9
310.528	15.2
310.74	15
310.953	14.97
311.165	15.28
311.377	14.81
311.589	14.19
311.801	13.9
312.013	13.8
312.225	14.57
312.437	14.04
312.649	13.89
312.862	13.97
313.074	12.4
313.286	13.24
313.498	13.16
313.71	12.25
313.922	12.42
314.134	12.88
314.346	12.94
314.558	13.36
314.77	13.1
314.982	12.84
315.193	12.11
315.405	14.42
315.617	13.83
315.829	14.3
316.041	14.73
316.253	13.17
316.465	13.14
316.677	11.7
316.888	11.56
317.1	11.32
317.312	12.14
317.524	12.51
317.736	13.72
317.947	14.42
318.159	14.78
318.371	14.96
318.583	15.96
318.794	14.75
319.006	15.47
319.218	14.28
319.43	16.05
319.641	15.24
319.853	14.68
320.064	12.66
320.276	12.95
320.488	12.96
320.699	13.02
320.911	13.18
321.123	14.25
321.334	17.85
321.546	18.88
321.757	18.18
321.969	19.62
322.18	21.29
322.392	21.36
322.603	19.74
322.815	17.84
323.026	18.25
323.238	18.23
323.449	15.82
323.661	13.72
323.872	12.91
324.083	12.95
324.295	11.83
324.506	11.95
324.718	12.29
324.929	12.59
325.14	14.81
325.352	14.81
325.563	15.4
325.774	16.29
325.986	16.96
326.197	17.93
326.408	18.62
326.62	19.1
326.831	17.61
327.042	18.2
327.253	18.26
327.464	17.66
327.676	16.69
327.887	17.15
328.098	18.28
328.309	19.06
328.52	18.96
328.732	18.71
328.943	18.54
329.154	19.49
329.365	19.45
329.576	19.55
329.787	19.06
329.998	20.92
330.209	18.94
330.42	19.71
330.631	19.11
330.842	18.12
331.053	18.83
331.264	19.07
331.475	18.17
331.686	17.87
331.897	18.43
332.108	18.92
332.319	17.59
332.53	17.95
332.741	17.27
332.952	16.34
333.163	16.98
333.374	16.02
333.585	15.29
333.795	15.62
334.006	15.36
334.217	14.73
334.428	13.2
334.639	13.71
334.849	13.38
335.06	13.41
335.271	14.42
335.482	15.17
335.692	15.14
335.903	15.44
336.114	16.5
336.325	16.18
336.535	17.14
336.746	19.7
336.957	20.21
337.167	19.97
337.378	20.15
337.589	18.41
337.799	17.27
338.01	18.6
338.22	17.84
338.431	18.35
338.642	18.34
338.852	17.07
339.063	15.87
339.273	15.08
339.484	15.59
339.694	15.79
339.905	16.94
340.115	16.99
340.326	16.4
340.536	17.36
340.746	17.05
340.957	17.19
341.167	16.97
341.378	17.22
341.588	17.54
341.799	18.09
342.009	17.66
342.219	17.54
342.43	17.83
342.64	17.35
342.85	17.1
343.061	15.69
343.271	15.83
343.481	15.44
343.691	14.34
343.902	13.83
344.112	13.86
344.322	13.33
344.532	14.11
344.743	13.91
344.953	13.34
345.163	13.57
345.373	14.17
345.583	15.42
345.793	15.97
346.004	16.3
346.214	16.22
346.424	15.61
346.634	16
346.844	15.65
347.054	15.57
347.264	16.47
347.474	17.39
347.684	17.56
347.894	16.18
348.104	16.73
348.314	16.43
348.524	17.47
348.734	17.47
348.944	17.15
349.154	16.89
349.364	16.82
349.574	15.44
349.784	15.55
349.994	14.56
350.204	14.05
350.413	14.18
350.623	14.77
350.833	13.45
351.043	12.85
351.253	12.63
351.463	11.82
351.672	11.49
351.882	12.76
352.092	12.24
352.302	12.92
352.511	13.16
352.721	12.21
352.931	11.96
353.141	12.09
353.35	12.06
353.56	13.15
353.77	14.08
353.979	15.07
354.189	14.58
354.399	13.74
354.608	14.42
354.818	14.47
355.027	14.7
355.237	14.15
355.447	13.61
355.656	14.03
355.866	12.93
356.075	12.51
356.285	11.4
356.494	11.25
356.704	11.41
356.913	11.07
357.123	10.96
357.332	10.53
357.542	9.91
357.751	10.37
357.96	10.98
358.17	10.84
358.379	11.26
358.589	11.06
358.798	10.48
359.007	10.26
359.217	8.31
359.426	7.96
359.635	8.31
359.845	8.87
360.054	9.27
360.263	9.17
360.472	8.83
360.682	9
360.891	9.41
361.1	9.87
361.309	9.79
361.519	11.2
361.728	11.75
361.937	11.62
362.146	11.91
362.355	11.71
362.564	11.41
362.774	11.68
362.983	11.66
363.192	12.08
363.401	12.55
363.61	12.28
363.819	12.47
364.028	11.49
364.237	11.52
364.446	10.63
364.655	10.83
364.864	11.12
365.073	11.63
365.282	11.24
365.491	10.73
365.7	10.49
365.909	11.26
366.118	10.85
366.327	12.37
366.536	12.68
366.745	13.13
366.954	13.33
367.162	14.03
367.371	14.43
367.58	14.23
367.789	14.61
367.998	14.19
368.207	13.96
368.415	14.41
368.624	13.53
368.833	13.42
369.042	13.9
369.25	13.46
369.459	12.53
369.668	12.13
369.877	12.69
370.085	12.47
370.294	13.39
370.503	13.28
370.711	12.65
370.92	12.66
371.129	12.89
371.337	13.16
371.546	12.83
371.754	12.56
371.963	11.51
372.171	11.31
372.38	11.47
372.589	11.4
372.797	11.03
373.006	10.85
373.214	11.73
373.423	11.08
373.631	10.59
373.84	10.3
374.048	9.73
374.256	10.83
374.465	11.01
374.673	11.21
374.882	9.38
375.09	10.11
375.298	10.95
375.507	9.37
375.715	9.88
375.923	9.23
376.132	9.28
376.34	9.89
376.548	9.79
376.757	9.3
376.965	8.81
377.173	10.51
377.381	10.06
377.59	9.76
377.798	10.08
378.006	9.49
378.214	10.16
378.423	10.39
378.631	10.33
378.839	9.66
379.047	9.84
379.255	10.09
379.463	9.88
379.671	10.43
379.879	10
380.088	10.65
380.296	11.7
380.504	12.31
380.712	11.84
380.92	11.85
381.128	12.34
381.336	12.91
381.544	13.27
381.752	12.74
381.96	12.6
382.168	12.87
382.376	12.39
382.584	11.47
382.791	10.62
382.999	10.9
383.207	10.51
383.415	10.56
383.623	9.38
383.831	8.02
384.039	7.91
384.247	7.85
384.454	8.29
384.662	8.32
384.87	7.75
385.078	7.64
385.285	8.14
385.493	8.29
385.701	8.49
385.909	8.14
386.116	9.47
386.324	9.45
386.532	8.95
386.739	7.98
386.947	7.93
387.155	9.7
387.362	10.08
387.57	9.67
387.778	10.18
387.985	9.69
388.193	10.78
388.4	10.24
388.608	10.53
388.816	10.08
389.023	10.14
389.231	10.19
389.438	9.2
389.646	8.92
389.853	8.95
390.061	8.9
390.268	8.98
390.475	8.08
390.683	7.72
390.89	8.18
391.098	8.23
391.305	8.8
391.512	8.16
391.72	7.52
391.927	8.07
392.135	8.65
392.342	8.06
392.549	8.2
392.756	8.9
392.964	9.38
393.171	9.12
393.378	9.58
393.586	9.06
393.793	9.33
394	9.92
394.207	9.44
394.414	8.84
394.622	9.33
394.829	9.1
395.036	9.25
395.243	8.94
395.45	8.35
395.657	8.36
395.864	8.6
396.072	9.28
396.279	8.99
396.486	9.09
396.693	9.86
396.9	9.54
397.107	9.88
397.314	9.71
397.521	10.25
397.728	10.31
397.935	10.64
398.142	10.3
398.349	9.66
398.556	9.61
398.763	9.74
398.97	9.23
399.177	9.21
399.383	9.28
399.59	9.02
399.797	8.47
400.004	8.53
400.211	8.22
400.418	9.16
400.625	9.51
400.831	9.93
401.038	9.3
401.245	9.48
401.452	9.59
401.658	9.73
401.865	9.86
402.072	9.63
402.279	9.5
402.485	9.48
402.692	9.07
402.899	8.98
403.105	8.54
403.312	9.12
403.519	8.67
403.725	8.23
403.932	7.56
404.138	7.38
404.345	7.84
404.552	8.14
404.758	8.26
404.965	7.52
405.171	7.66
405.378	7.77
405.584	6.93
405.791	7
405.997	6.99
406.204	7.1
406.41	7.32
406.617	6.96
406.823	6.98
407.029	6.57
407.236	6.86
407.442	7.05
407.649	7.24
407.855	7.75
408.061	8.01
408.268	8.88
408.474	9.26
408.68	8.78
408.887	9.06
409.093	8.99
409.299	9.14
409.505	9.29
409.712	8.6
409.918	8.13
410.124	8.03
410.33	7.41
410.537	6.98
410.743	7.04
410.949	7.82
411.155	7.15
411.361	7.13
411.567	7.41
411.773	7.67
411.98	7.85
412.186	7.79
412.392	7.73
412.598	7.8
412.804	8.09
413.01	7.68
413.216	7.55
413.422	8.07
413.628	8.09
413.834	7.21
414.04	7.08
414.246	7.12
414.452	7.47
414.658	7.8
414.864	8.03
415.07	7.8
415.275	8.05
415.481	7.98
415.687	8.18
415.893	7.7
416.099	8.34
416.305	8.48
416.511	8.41
416.716	7.98
416.922	7.75
417.128	7.77
417.334	7.36
417.539	7.18
417.745	6.99
417.951	6.24
418.157	6.25
418.362	6.01
418.568	5.71
418.774	5.27
418.979	5.33
419.185	5.04
419.391	4.96
419.596	5.08
419.802	5.04
420.008	4.77
420.213	7.19
420.419	7.32
420.624	7.38
420.83	7.42
421.035	7.56
421.241	7.45
421.446	7.63
421.652	7.47
421.857	7.54
422.063	7.4
422.268	7.52
422.474	5.46
422.679	5.28
422.885	5.35
423.09	5.13
423.295	5.2
423.501	5.22
423.706	5.04
423.911	5.05
424.117	4.8
424.322	4.75
424.527	4.6
424.733	4.5
424.938	4.73
425.143	4.49
425.349	4.68
425.554	4.96
425.759	5.1
425.964	5.3
426.169	5.48
426.375	5.84
426.58	6.1
426.785	6.2
426.99	6.34
427.195	6.22
427.4	6
427.605	6.04
427.811	5.61
428.016	5.5
428.221	5.66
428.426	5.69
428.631	5.92
428.836	5.76
429.041	6.05
429.246	6.41
429.451	6.49
429.656	6.64
429.861	6.47
430.066	6.27
430.271	6.48
430.476	6.28
430.681	6.41
430.886	5.85
431.09	5.78
431.295	5.6
431.5	5.13
431.705	5.29
431.91	5.08
432.115	4.93
432.32	5.1
432.524	5.13
432.729	4.98
432.934	4.65
433.139	4.81
433.343	4.87
433.548	4.6
433.753	4.42
433.958	4.43
434.162	4.52
434.367	4.66
434.572	4.93
434.776	4.69
434.981	4.86
435.186	4.99
435.39	4.99
435.595	4.97
435.799	4.84
436.004	5.05
436.209	4.85
436.413	4.97
436.618	5.06
436.822	5.23
437.027	5.28
437.231	4.66
437.436	4.54
437.64	4.35
437.845	4.44
438.049	4.63
438.253	4.84
438.458	4.65
438.662	4.96
438.867	4.82
439.071	4.73
439.275	4.84
439.48	5.34
439.684	5.69
439.888	5.68
440.093	5.8
440.297	5.54
440.501	5.34
440.706	5.48
440.91	5.47
441.114	5.34
441.318	5.52
441.523	5.43
441.727	5.45
441.931	5.27
442.135	5.13
442.339	5.22
442.543	5.72
442.748	6.22
442.952	6.09
443.156	5.73
443.36	5.99
443.564	5.92
443.768	5.53
443.972	5.92
444.176	5.62
444.38	5.8
444.584	5.43
444.788	5.17
444.992	4.71
445.196	4.8
445.4	4.78
445.604	4.76
445.808	4.44
446.012	4.94
446.216	4.28
446.42	4.36
446.624	4.69
446.828	4.8
447.032	4.9
447.235	5.11
447.439	4.97
447.643	5.22
447.847	5.32
448.051	5.38
448.254	5.24
448.458	5.47
448.662	5.42
448.866	5.12
449.069	4.9
449.273	4.75
449.477	4.47
449.681	4.6
449.884	4.3
450.088	4.32
450.292	4.73
450.495	4.54
450.699	4.53
450.902	4.66
451.106	4.66
451.31	4.96
451.513	5.37
451.717	5.51
451.92	5.57
452.124	5.76
452.327	5.81
452.531	5.55
452.734	5.58
452.938	5.69
453.141	5.65
453.345	5.53
453.548	5.49
453.752	5.52
453.955	5.76
454.158	5.77
454.362	5.73
454.565	5.61
454.769	5.73
454.972	6.41
455.175	6.2
455.379	6.23
455.582	6.2
455.785	6.04
455.988	5.79
456.192	5.44
456.395	5.49
456.598	5.8
456.801	5.63
457.005	5.25
457.208	4.5
457.411	4.82
457.614	5.18
457.817	5.16
458.021	5.21
458.224	4.89
458.427	4.85
458.63	4.93
458.833	4.38
459.036	4.44
459.239	4.41
459.442	4.53
459.645	4.37
459.848	4.26
460.051	4.22
460.254	4.3
460.457	4.41
460.66	4.35
460.863	4.18
461.066	4.33
461.269	4.36
461.472	4.41
461.675	4.44
461.878	4.71
462.081	4.81
462.284	5.04
462.486	5.01
462.689	5.46
462.892	5.85
463.095	5.9
463.298	6.32
463.5	6.44
463.703	6.32
463.906	6.09
464.109	6.07
464.311	6.19
464.514	6.45
464.717	6.34
464.92	5.99
465.122	6.09
465.325	5.87
465.528	5.53
465.73	5.11
465.933	5.28
466.135	5.59
466.338	5.07
466.541	4.56
466.743	4.17
466.946	4.26
467.148	4.53
467.351	4.28
467.553	4.65
467.756	5
467.958	5.59
468.161	5.5
468.363	5.62
468.566	5.89
468.768	6.04
468.971	6.25
469.173	6.22
469.375	5.77
469.578	5.56
469.78	5.11
469.983	4.91
470.185	4.79
470.387	4.95
470.59	4.98
470.792	4.97
470.994	4.72
471.196	4.62
471.399	4.83
471.601	5.2
471.803	5.44
472.005	5.7
472.208	5.5
472.41	5.18
472.612	5.22
472.814	5.13
473.016	5.05
473.218	5.27
473.421	5.29
473.623	5.03
473.825	4.78
474.027	5.04
474.229	5.26
474.431	5.56
474.633	5.55
474.835	5.83
475.037	5.58
475.239	5.75
475.441	5.79
475.643	5.98
475.845	6.01
476.047	6.14
476.249	5.87
476.451	5.4
476.653	5
476.855	5.05
477.057	4.71
477.258	4.65
477.46	4.73
477.662	4.44
477.864	4.1
478.066	4.16
478.268	4.22
478.469	3.86
478.671	3.98
478.873	4.37
479.075	4.59
479.276	4.53
479.478	4.5
479.68	4.54
479.882	4.62
480.083	4.64
480.285	4.62
480.487	4.72
480.688	5.3
480.89	5.17
481.091	4.87
481.293	4.64
481.495	4.55
481.696	4.71
481.898	4.46
482.099	4.45
482.301	4.29
482.502	4.05
482.704	3.74
482.905	3.53
483.107	3.48
483.308	3.36
483.51	3.24
483.711	3.22
483.913	3.03
484.114	3.02
484.315	3
484.517	2.95
484.718	2.95
484.92	2.95
485.121	2.87
485.322	2.92
485.524	2.98
485.725	3.17
485.926	3.1
486.127	3.23
486.329	3.12
486.53	3.08
486.731	3.13
486.932	3.2
487.134	3.28
487.335	3.41
487.536	3.37
487.737	3.45
487.938	3.46
488.139	3.58
488.341	3.51
488.542	3.67
488.743	3.84
488.944	4.03
489.145	3.98
489.346	4.03
489.547	3.91
489.748	3.99
489.949	3.94
490.15	3.88
490.351	3.72
490.552	3.68
490.753	3.53
490.954	3.33
491.155	3.26
491.356	3.4
491.557	3.44
491.758	3.48
491.959	3.32
492.159	3.52
492.36	3.49
492.561	3.69
492.762	3.8
492.963	3.91
493.164	4.15
493.364	4.05
493.565	4.19
493.766	4.33
493.967	4.39
494.167	4.74
494.368	4.51
494.569	4.49
494.769	4.41
494.97	4.66
495.171	4.72
495.371	4.64
495.572	4.91
495.773	4.79
495.973	4.76
496.174	4.84
496.375	4.76
496.575	4.61
496.776	4.4
496.976	4.15
497.177	3.84
497.377	3.96
497.578	3.97
497.778	4.01
497.979	4.04
498.179	3.79
498.38	3.65
498.58	3.72
498.78	3.76
498.981	4.1
499.181	4.47
499.382	4.83
499.582	4.64
499.782	4.77
499.983	4.62
500.183	4.6
500.383	4.62
500.584	4.69
500.784	4.72
500.984	4.95
501.184	4.63
501.385	4.82
501.585	4.85
501.785	5.27
501.985	5.36
502.185	5.62
502.386	5.79
502.586	5.72
502.786	5.77
502.986	5.95
503.186	6.1
503.386	6.41
503.586	6.17
503.786	6
503.987	5.59
504.187	5.52
504.387	5.42
504.587	5.42
504.787	5.76
504.987	5.87
505.187	5.75
505.387	5.79
505.587	5.55
505.786	5.64
505.986	5.59
506.186	5.84
506.386	5.95
506.586	5.97
506.786	5.66
506.986	5.54
507.186	5.33
507.386	5.32
507.585	5.14
507.785	5.34
507.985	5.44
508.185	5.4
508.384	5.42
508.584	5.14
508.784	5.11
508.984	5.06
509.183	5.27
509.383	5.4
509.583	5.41
509.782	5.56
509.982	5.54
510.182	5.46
510.381	5.68
510.581	5.68
510.781	5.85
510.98	5.88
511.18	6.08
511.379	5.86
511.579	5.8
511.778	5.87
511.978	5.8
512.177	5.86
512.377	5.74
512.576	5.61
512.776	5.95
512.975	5.9
513.175	5.85
513.374	6.01
513.573	6.08
513.773	6.41
513.972	6.37
514.172	6.37
514.371	6.45
514.57	6.8
514.77	6.91
514.969	6.74
515.168	6.73
515.367	6.95
515.567	7.22
515.766	7.24
515.965	7.24
516.164	7.27
516.364	7.44
516.563	7.33
516.762	7.24
516.961	7.4
517.16	7.4
517.359	7.58
517.559	7.63
517.758	7.43
517.957	7.55
518.156	7.52
518.355	7.45
518.554	7.45
518.753	7.51
518.952	7.41
519.151	7.31
519.35	7.06
519.549	7.03
519.748	7.14
519.947	7.04
520.146	7.2
520.345	7.09
520.544	7.37
520.743	7.5
520.942	7.66
521.141	7.88
521.339	8.06
521.538	8.36
521.737	8.36
521.936	8.21
522.135	8.15
522.333	8.15
522.532	8.28
522.731	8.12
522.93	7.91
523.129	8.02
523.327	8.17
523.526	8.22
523.725	8.32
523.923	8.33
524.122	8.3
524.321	8.58
524.519	8.52
524.718	8.5
524.917	8.43
525.115	8.45
525.314	8.46
525.512	8.41
525.711	8.26
525.909	8.17
526.108	8.16
526.306	8.28
526.505	8.16
526.703	8.08
526.902	8.07
527.1	8.09
527.299	8.18
527.497	8.12
527.696	8.14
527.894	8.17
528.092	8.09
528.291	8.15
528.489	8.12
528.688	8.16
528.886	8.11
529.084	8.18
529.283	8.17
529.481	8.12
529.679	8.21
529.877	8.19
530.076	8.32
530.274	8.58
530.472	8.58
530.67	8.66
530.869	8.89
531.067	9.13
531.265	9.24
531.463	9.4
531.661	9.42
531.859	9.4
532.057	9.48
532.255	9.44
532.454	9.43
532.652	9.53
532.85	9.52
533.048	9.47
533.246	9.42
533.444	9.38
533.642	9.5
533.84	9.58
534.038	9.57
534.236	9.72
534.434	9.62
534.632	9.61
534.83	9.7
535.027	9.84
535.225	9.85
535.423	10.19
535.621	10.25
535.819	10.11
536.017	10.03
536.215	10.18
536.412	9.85
536.61	10.15
536.808	10.36
537.006	10.3
537.203	10.62
537.401	10.62
537.599	10.59
537.797	10.82
537.994	10.99
538.192	11.19
538.39	11.34
538.587	11.6
538.785	11.6
538.983	11.53
539.18	11.67
539.378	11.3
539.575	11.45
539.773	11.48
539.97	11.48
540.168	11.59
540.366	11.56
540.563	11.59
540.761	11.57
540.958	11.54
541.155	11.66
541.353	11.58
541.55	11.56
541.748	11.66
541.945	11.6
542.143	11.56
542.34	11.69
542.537	11.71
542.735	11.63
542.932	11.94
543.129	11.92
543.327	11.9
543.524	12.04
543.721	12.08
543.919	12.17
544.116	12.4
544.313	12.48
544.51	12.32
544.708	12.61
544.905	12.89
545.102	12.89
545.299	13.13
545.496	13.27
545.693	13.38
545.891	13.71
546.088	13.73
546.285	13.82
546.482	13.84
546.679	13.83
546.876	13.89
547.073	13.92
547.27	13.59
547.467	13.54
547.664	13.49
547.861	13.56
548.058	13.51
548.255	13.5
548.452	13.5
548.649	13.7
548.846	13.93
549.043	13.99
549.24	14.27
549.437	14.67
549.633	14.94
549.83	15.13
550.027	15.08
550.224	14.92
550.421	15.13
550.618	15.26
550.814	15.19
551.011	15.69
551.208	15.49
551.405	15.35
551.601	15.39
551.798	15.42
551.995	15.4
552.191	15.54
552.388	15.87
552.585	15.71
552.781	15.7
552.978	15.88
553.175	15.2
553.371	15.46
553.568	15.58
553.764	15.7
553.961	15.42
554.157	15.51
554.354	15.67
554.55	15.45
554.747	15.7
554.943	15.55
555.14	15.58
555.336	16.26
555.533	16.46
555.729	16.28
555.926	16.67
556.122	17.18
556.318	17.41
556.515	17.63
556.711	18.07
556.907	18.15
557.104	18.6
557.3	18.64
557.496	18.29
557.693	18.13
557.889	18.39
558.085	18.37
558.281	18.78
558.478	18.76
558.674	19.13
558.87	19.16
559.066	19.28
559.262	19.07
559.459	19.05
559.655	19.5
559.851	19.99
560.047	20.06
560.243	19.94
560.439	19.77
560.635	19.41
560.831	18.93
561.027	18.92
561.223	18.81
561.419	18.97
561.615	19.17
561.811	18.99
562.007	19.09
562.203	19.27
562.399	19.39
562.595	19.5
562.791	19.85
562.987	20.41
563.183	20.66
563.379	20.96
563.575	21
563.771	21.05
563.966	21.03
564.162	20.63
564.358	20.58
564.554	20.31
564.75	20.22
564.945	20.33
565.141	19.87
565.337	19.96
565.533	19.98
565.728	19.79
565.924	20.03
566.12	20.27
566.315	20.31
566.511	20.42
566.707	20.66
566.902	20.72
567.098	20.99
567.293	21.38
567.489	20.85
567.684	20.95
567.88	21.19
568.076	21.24
568.271	21.26
568.467	21.33
568.662	21.12
568.858	21.27
569.053	21.35
569.248	21.29
569.444	21.05
569.639	21.58
569.835	21.36
570.03	21.48
570.225	21.34
570.421	21.39
570.616	21.53
570.812	21.69
571.007	21.33
571.202	21.14
571.397	21.29
571.593	21.39
571.788	21.34
571.983	21.32
572.178	21.42
572.374	21.52
572.569	21.45
572.764	21.49
572.959	21.66
573.154	22.2
573.35	22.68
573.545	22.66
573.74	22.65
573.935	22.81
574.13	22.97
574.325	23.19
574.52	23.13
574.715	23.2
574.91	23.22
575.105	23.03
575.3	23.15
575.495	22.8
575.69	22.86
575.885	23.26
576.08	23.37
576.275	23.73
576.47	23.53
576.665	24
576.86	24.13
577.055	24.35
577.25	24.44
577.444	24.09
577.639	24.29
577.834	24.6
578.029	24.62
578.224	24.67
578.418	25.01
578.613	25.04
578.808	24.93
579.003	25.06
579.197	25.18
579.392	25.15
579.587	25.17
579.781	25.17
579.976	25.07
580.171	24.72
580.365	24.42
580.56	23.93
580.755	23.99
580.949	23.65
581.144	23.83
581.338	23.81
581.533	24.27
581.727	24.73
581.922	24.76
582.116	24.72
582.311	24.76
582.505	25.34
582.7	25.07
582.894	25.5
583.089	25.49
583.283	25.61
583.478	25.87
583.672	25.81
583.866	25.72
584.061	25.82
584.255	25.81
584.449	26.12
584.644	25.72
584.838	26.38
585.032	26.3
585.226	26.63
585.421	26.52
585.615	26.37
585.809	27.01
586.003	27.33
586.198	27.46
586.392	27.71
586.586	27.35
586.78	27.79
586.974	27.74
587.168	27.41
587.363	27.64
587.557	27.55
587.751	27.67
587.945	27.2
588.139	27.07
588.333	27.1
588.527	26.56
588.721	27.09
588.915	27.16
589.109	27.17
589.303	27.28
589.497	27.34
589.691	27.6
589.885	27.35
590.079	27.22
590.273	27.25
590.466	27.06
590.66	27.39
590.854	27.3
591.048	27.05
591.242	26.87
591.436	26.47
591.629	26.25
591.823	26.15
592.017	26.15
592.211	26.48
592.404	26.54
592.598	26.36
592.792	26.28
592.986	26.55
593.179	26.58
593.373	26.26
593.567	27.03
593.76	26.98
593.954	26.87
594.147	26.81
594.341	26.61
594.535	26.7
594.728	27.02
594.922	27.21
595.115	26.72
595.309	26.65
595.502	27.21
595.696	26.87
595.889	27.06
596.083	26.9
596.276	27.02
596.47	27.08
596.663	26.81
596.856	26.91
597.05	26.63
597.243	26.61
597.437	27.15
597.63	27.11
597.823	27.3
598.017	27.27
598.21	27.56
598.403	27.84
598.596	27.91
598.79	27.97
598.983	28.15
599.176	28.62
599.369	28.81
599.563	28.37
599.756	28.36
599.949	28.54
600.142	28.51
600.335	28.73
600.528	28.43
600.722	28.07
600.915	28.43
601.108	28.35
601.301	28.25
601.494	28.42
601.687	28.8
601.88	28.52
602.073	28.71
602.266	28.46
602.459	28.24
602.652	28.4
602.845	28.59
603.038	28.31
603.231	28.46
603.424	28.49
603.617	28.59
603.809	28.36
604.002	28.34
604.195	28.05
604.388	28.13
604.581	28.36
604.774	28.52
604.966	28.44
605.159	28.54
605.352	27.94
605.545	27.92
605.737	27.8
605.93	27.95
606.123	28.51
606.316	28.46
606.508	28.45
606.701	28.57
606.894	28.4
607.086	28.76
607.279	28.97
607.471	29.37
607.664	29.57
607.857	29.6
608.049	29.42
608.242	29.23
608.434	29.44
608.627	29.83
608.819	29.27
609.012	29.68
609.204	29.79
609.397	29.55
609.589	29.76
609.782	29.73
609.974	29.77
610.166	29.78
610.359	28.85
610.551	29.05
610.743	29.12
610.936	29.28
611.128	28.24
611.32	27.89
611.513	27.99
611.705	28.61
611.897	28.66
612.09	28.78
612.282	28.88
612.474	30.01
612.666	29.62
612.858	29.36
613.051	29.69
613.243	30.45
613.435	30.58
613.627	30.7
613.819	30.46
614.011	30.89
614.203	31.4
614.395	31.71
614.588	31.6
614.78	32.04
614.972	32.14
615.164	32.29
615.356	32.66
615.548	32.69
615.74	33.57
615.932	33.41
616.124	32.8
616.315	32.24
616.507	31.91
616.699	31.61
616.891	31.63
617.083	31.67
617.275	31.8
617.467	32.05
617.659	32.28
617.85	32.04
618.042	32.43
618.234	33.07
618.426	33.06
618.618	32.6
618.809	33.09
619.001	33.44
619.193	33.15
619.384	32.95
619.576	32.8
619.768	33.07
619.959	32.43
620.151	31.77
620.343	31.61
620.534	31.37
620.726	31.42
620.917	30.98
621.109	30.65
621.301	31.2
621.492	31.22
621.684	30.87
621.875	30.68
622.067	30.78
622.258	30.83
622.45	30.57
622.641	30.67
622.832	30.69
623.024	31
623.215	30.22
623.407	29.68
623.598	30.08
623.789	29.73
623.981	30.43
624.172	30.41
624.363	30.09
624.555	30.29
624.746	29.98
624.937	30.37
625.129	30.7
625.32	30.84
625.511	31.48
625.702	31.06
625.893	31.17
626.085	30.41
626.276	30.96
626.467	31.28
626.658	31.2
626.849	31.41
627.04	31.54
627.231	31.33
627.422	31.83
627.614	32.01
627.805	32.12
627.996	32.7
628.187	32.65
628.378	32.53
628.569	32.9
628.76	32.95
628.951	32.91
629.142	32.93
629.332	32.8
629.523	32.99
629.714	32.81
629.905	33.2
630.096	32.52
630.287	32.56
630.478	32.36
630.669	32.33
630.859	32.39
631.05	32.72
631.241	32.57
631.432	33.26
631.623	33.1
631.813	32.81
632.004	32.17
632.195	31.68
632.385	31.84
632.576	31.84
632.767	31.45
632.957	31.58
633.148	32.11
633.339	32.69
633.529	31.95
633.72	31.77
633.91	31.58
634.101	31.95
634.292	32.67
634.482	32.61
634.673	32.33
634.863	32.6
635.054	32.43
635.244	31.72
635.435	31.13
635.625	31.69
635.815	31.67
636.006	32.1
636.196	31.96
636.387	32.4
636.577	32.3
636.767	32.15
636.958	31.94
637.148	32.49
637.338	32.81
637.529	33.75
637.719	33.34
637.909	33.68
638.099	33.71
638.29	33.45
638.48	33.7
638.67	34.03
638.86	34.85
639.05	34.85
639.241	34.72
639.431	35.25
639.621	34.86
639.811	34.9
640.001	34.76
640.191	34.59
640.381	35.05
640.571	34.43
640.761	33.99
640.951	33.69
641.141	34.41
641.331	34.47
641.521	34.23
641.711	34.33
641.901	34.36
642.091	34.61
642.281	34.45
642.471	34.26
642.661	34.47
642.851	34.78
643.041	34.75
643.231	34.51
643.42	33.9
643.61	33.89
643.8	33.93
643.99	33.49
644.18	33.35
644.369	33.49
644.559	34.1
644.749	34.61
644.939	34.22
645.128	34.3
645.318	33.82
645.508	34.67
645.697	35
645.887	34.82
646.076	35.41
646.266	35.27
646.456	35.04
646.645	35.08
646.835	34.28
647.024	34.17
647.214	33.61
647.403	33.98
647.593	33.73
647.782	32.94
647.972	32.84
648.161	32.39
648.351	32.65
648.54	32.57
648.73	32
648.919	32.17
649.108	32.44
649.298	32.66
649.487	32.7
649.677	32.64
649.866	32.97
650.055	33.25
650.244	33.5
650.434	32.92
650.623	33.42
650.812	34.3
651.002	34.35
651.191	35.12
651.38	36.01
651.569	35.5
651.758	35.38
651.947	35.66
652.137	35.23
652.326	34.78
652.515	34.8
652.704	35.49
652.893	35.02
653.082	34.89
653.271	34.67
653.46	33.95
653.649	34.27
653.838	33.87
654.027	33.74
654.216	33.94
654.405	34.91
654.594	35.9
654.783	35.25
654.972	35.05
655.161	35.75
655.35	35.12
655.539	35.19
655.728	35.03
655.916	34.81
656.105	34.83
656.294	34.42
656.483	34.22
656.672	33.23
656.86	33.12
657.049	33.24
657.238	32.27
657.427	32.77
657.615	32.49
657.804	32.4
657.993	32.36
658.181	31.36
658.37	31.9
658.559	31.76
658.747	32.34
658.936	32.49
659.125	32.25
659.313	32.91
659.502	33.07
659.69	33.67
659.879	33.8
660.067	34.74
660.256	35.58
660.444	35.75
660.633	36.18
660.821	36.12
661.01	35.92
661.198	35.86
661.387	36.27
661.575	36.06
661.763	35.88
661.952	35.84
662.14	35.91
662.328	36.37
662.517	36.96
662.705	36.19
662.893	36.15
663.082	36.32
663.27	36.2
663.458	35.46
663.646	35.49
663.834	35.29
664.023	35.95
664.211	35.88
664.399	35.76
664.587	34.01
664.775	34.11
664.963	34.5
665.152	34.27
665.34	34.98
665.528	34.72
665.716	35.64
665.904	36.11
666.092	35.78
666.28	35.66
666.468	34.98
666.656	36.09
666.844	36.82
667.032	36.2
667.22	36.43
667.408	36.53
667.596	37.03
667.784	36.79
667.971	36.37
668.159	36.54
668.347	35.84
668.535	36.4
668.723	36.35
668.911	36.24
669.098	36.88
669.286	36.56
669.474	36.08
669.662	36.18
669.849	35.68
670.037	36.59
670.225	36.39
670.413	36.54
670.6	37.29
670.788	37.76
670.976	37.58
671.163	37.38
671.351	37.73
671.538	37.81
671.726	37.78
671.913	38.28
672.101	36.67
672.289	36.71
672.476	36.54
672.664	35.73
672.851	34.98
673.039	34.8
673.226	34.85
673.413	34.81
673.601	35.13
673.788	35.26
673.976	35.6
674.163	37.03
674.35	37.05
674.538	37.2
674.725	37.64
674.912	38.76
675.1	38.25
675.287	38.37
675.474	38.69
675.662	38.01
675.849	38.17
676.036	36.48
676.223	36.02
676.411	37.01
676.598	37.01
676.785	37.3
676.972	36.86
677.159	37.67
677.346	37.85
677.533	37.56
677.721	38.58
677.908	38.77
678.095	39.42
678.282	39.31
678.469	37.89
678.656	37.4
678.843	36.9
679.03	36.25
679.217	36.22
679.404	36.15
679.591	36.15
679.778	36.59
679.964	36.18
680.151	36.08
680.338	35.74
680.525	36.31
680.712	37.6
680.899	36.9
681.086	37.12
681.272	37.81
681.459	38.06
681.646	37.82
681.833	37.14
682.02	37.59
682.206	38.67
682.393	39.41
682.58	40.07
682.766	40.05
682.953	41.12
683.14	40.9
683.326	40.69
683.513	40.05
683.7	39.86
683.886	39.96
684.073	39.49
684.259	38.76
684.446	38.6
684.632	38.15
684.819	37.84
685.005	38.09
685.192	38.48
685.378	38.61
685.565	38.93
685.751	39.51
685.938	39.42
686.124	39.44
686.31	39.42
686.497	40.31
686.683	40.3
686.87	40.35
687.056	39.77
687.242	39.7
687.429	39.4
687.615	39.09
687.801	38.98
687.987	39.38
688.174	39.67
688.36	39.63
688.546	39.24
688.732	39.72
688.918	40.16
689.105	40.15
689.291	40.51
689.477	41.5
689.663	42.23
689.849	43.19
690.035	42.91
690.221	43.06
690.407	44.19
690.593	44.1
690.779	43.71
690.965	42.82
691.151	42.57
691.337	42.21
691.523	41.69
691.709	41.15
691.895	40.59
692.081	41.23
692.267	41.07
692.453	40.3
692.639	39.53
692.825	39.88
693.011	40.87
693.196	41.04
693.382	40.94
693.568	41.33
693.754	40.97
693.94	41.1
694.125	40.49
694.311	40.39
694.497	39.39
694.682	40.02
694.868	38.92
695.054	38.51
695.239	39.36
695.425	39.69
695.611	37.93
695.796	38.36
695.982	37.98
696.168	38.04
696.353	38.69
696.539	39.64
696.724	40.29
696.91	41.19
697.095	40.77
697.281	39.92
697.466	39.76
697.652	39.83
697.837	39.93
698.023	40.22
698.208	39.53
698.393	38.14
698.579	37.74
698.764	36.88
698.949	36
699.135	36.43
699.32	36.65
699.505	36.36
699.691	35.74
699.876	35.24
700.061	34.69
700.246	34.92
700.432	35.79
700.617	36.36
700.802	36.32
700.987	37.87
701.172	37.78
701.358	37.91
701.543	37.94
701.728	39.61
701.913	40.44
702.098	40.59
702.283	41.23
702.468	41.29
702.653	40.64
702.838	41.44
703.023	40.84
703.208	40.03
703.393	40.45
703.578	42.02
703.763	41.72
703.948	40.68
704.133	41.9
704.318	40.96
704.503	41.65
704.688	42.11
704.873	41.79
705.057	42.06
705.242	42
705.427	42.56
705.612	41.62
705.797	41.79
705.981	42.66
706.166	40.77
706.351	41.5
706.536	41.8
706.72	42.13
706.905	43.91
707.09	43.67
707.274	44.68
707.459	43.92
707.644	43.46
707.828	43.84
708.013	43.16
708.197	43.75
708.382	44.42
708.567	43.82
708.751	42.58
708.936	40.61
709.12	40.38
709.305	40.27
709.489	40.76
709.673	41.25
709.858	41.41
710.042	41.67
710.227	41.58
710.411	41.42
710.596	40.52
710.78	41.2
710.964	41.55
711.149	41.63
711.333	41.1
711.517	40.73
711.702	42.07
711.886	41.47
712.07	41.89
712.254	42.62
712.438	42.08
712.623	43.53
712.807	43.61
712.991	43.63
713.175	42.43
713.359	42.89
713.544	41.97
713.728	40.83
713.912	41.5
714.096	42.5
714.28	41.1
714.464	41.98
714.648	40.36
714.832	40.77
715.016	40.3
715.2	41.16
715.384	40.12
715.568	40.92
715.752	40.58
715.936	39.63
716.12	37.74
716.304	37.93
716.488	36.93
716.671	37.66
716.855	36.57
717.039	36.69
717.223	36.12
717.407	37.58
717.59	37.8
717.774	38.19
717.958	38.69
718.142	39.4
718.325	41.25
718.509	40.88
718.693	41.68
718.877	42.26
719.06	42.28
719.244	43.53
719.428	43.07
719.611	45.24
719.795	45.95
719.978	47.03
720.162	47.35
720.345	47.09
720.529	47.69
720.713	47.81
720.896	48.07
721.08	49.1
721.263	49.32
721.446	50.8
721.63	49.43
721.813	48.11
721.997	47.43
722.18	46.36
722.364	46.89
722.547	47.01
722.73	47.03
722.914	47.2
723.097	48.12
723.28	48.1
723.464	47.53
723.647	46.96
723.83	47.59
724.013	47.26
724.197	48.67
724.38	46.05
724.563	46.35
724.746	46.33
724.929	45.3
725.112	43.95
725.296	43.78
725.479	43.11
725.662	41.41
725.845	39.69
726.028	40.34
726.211	39.51
726.394	41.11
726.577	41.14
726.76	40.58
726.943	42
727.126	42.99
727.309	41.38
727.492	41.74
727.675	42.5
727.858	44.95
728.041	44.83
728.224	44.6
728.407	44.29
728.589	43.36
728.772	42.4
728.955	41.68
729.138	40.99
729.321	42.34
729.503	42.47
729.686	43.61
729.869	43.33
730.052	41.65
730.234	43.02
730.417	42.02
730.6	43.04
730.782	43.91
730.965	43.62
731.148	43.7
731.33	43.33
731.513	43.57
731.695	42.99
731.878	41.72
732.061	41.49
732.243	40.4
732.426	42.33
732.608	40.61
732.791	40.12
732.973	40.77
733.156	40.97
733.338	41.37
733.52	41.77
733.703	40.85
733.885	41.1
734.068	42.04
734.25	42.39
734.432	41.4
734.615	43.61
734.797	45.04
734.979	45.53
735.162	45.59
735.344	46.29
735.526	45.56
735.708	48.29
735.891	47.79
736.073	47.5
736.255	48.68
736.437	48.69
736.619	48.41
736.802	49.11
736.984	48.97
737.166	49.52
737.348	49.24
737.53	48.59
737.712	49.13
737.894	49.64
738.076	49.39
738.258	49.04
738.44	49.93
738.622	48.75
738.804	48.32
738.986	48.23
739.168	48.96
739.35	48.35
739.532	49.67
739.714	49.19
739.896	49.16
740.078	50.42
740.259	49.13
740.441	48.49
740.623	51.01
740.805	50.68
740.987	50.41
741.168	49.05
741.35	49.37
741.532	48.29
741.714	46.96
741.895	49.52
742.077	48.51
742.259	49.24
742.44	50.44
742.622	49.39
742.804	49.87
742.985	49.4
743.167	49.37
743.348	49.59
743.53	49.74
743.711	49.14
743.893	47.33
744.075	48.97
744.256	49.48
744.438	49.32
744.619	52.15
744.8	51.61
744.982	53
745.163	55
745.345	54.63
745.526	56.46
745.707	56.69
745.889	56.45
746.07	56.75
746.252	55.67
746.433	55.62
746.614	53.32
746.795	51.99
746.977	53.29
747.158	51.69
747.339	50.81
747.52	49.13
747.702	50.47
747.883	52.34
748.064	51.86
748.245	52.44
748.426	52.25
748.607	51.92
748.788	56.18
748.97	54.57
749.151	53.58
749.332	53.83
749.513	55.65
749.694	53.15
749.875	53.31
750.056	54.18
750.237	52.97
750.418	53.74
750.599	53.82
750.78	49.93
750.96	50.57
751.141	50.14
751.322	51
751.503	47.97
751.684	50.82
751.865	48.25
752.046	48.02
752.226	49.31
752.407	48.59
752.588	49.16
752.769	50.07
752.949	47.06
753.13	46.65
753.311	47.25
753.492	48.35
753.672	48.77
753.853	49.93
754.034	48.89
754.214	46.87
754.395	46.52
754.575	45.52
754.756	45.47
754.937	48.54
755.117	50.25
755.298	49.56
755.478	50.57
755.659	49.14
755.839	48.74
756.02	50.44
756.2	54.35
756.381	55.5
756.561	56.67
756.741	57.21
756.922	56.73
757.102	57.68
757.283	59.48
757.463	59.51
757.643	60
757.823	60.39
758.004	59.5
758.184	56.81
758.364	54.06
758.545	53.19
758.725	52.83
758.905	53.82
759.085	52.43
759.265	50.88
759.446	50.55
759.626	49.71
759.806	48.43
759.986	46.99
760.166	47.66
760.346	48.94
760.526	48.54
760.706	49.45
760.886	47.43
761.066	47.57
761.246	47.54
761.426	45.91
761.606	44.89
761.786	45.03
761.966	47.04
762.146	47.06
762.326	44.58
762.506	45.1
762.686	44.42
762.866	43.85
763.046	43.35
763.225	41.29
763.405	40.92
763.585	41.06
763.765	42.41
763.945	41.42
764.124	40.62
764.304	43.61
764.484	42.8
764.664	41.48
764.843	42.89
765.023	43.13
765.203	43.93
765.382	45.44
765.562	46.27
765.741	45.58
765.921	46.79
766.101	49.26
766.28	48.2
766.46	48.35
766.639	48.4
766.819	47.69
766.998	47.45
767.178	48.34
767.357	49.12
767.537	50.64
767.716	50.34
767.896	49.2
768.075	46.7
768.254	47.87
768.434	48.71
768.613	51.22
768.792	52.49
768.972	51.49
769.151	54.54
769.33	53.99
769.51	50.42
769.689	52.96
769.868	52.23
770.047	51.94
770.226	50.07
770.406	48.57
770.585	47.4
770.764	48.06
770.943	50.43
771.122	49.14
771.301	53.73
771.48	57.21
771.66	58.08
771.839	58.56
772.018	63.45
772.197	67.6
772.376	71.55
772.555	75.79
772.734	71.7
772.913	72.1
773.092	70.19
773.271	63.73
773.449	64.47
773.628	58.91
773.807	60.12
773.986	54.97
774.165	51.94
774.344	53.25
774.523	49.66
774.701	54.1
774.88	56.27
775.059	58.72
775.238	61.27
775.417	60.15
775.595	61.78
775.774	60.04
775.953	62.32
776.131	61
776.31	55.96
776.489	56.94
776.667	55.55
776.846	52.14
777.025	50.65
777.203	50.55
777.382	52.63
777.56	52.87
777.739	54.46
777.917	56.25
778.096	57.38
778.274	60.1
778.453	60.76
778.631	60.18
778.81	63.18
778.988	66.26
779.166	65.46
779.345	62.14
779.523	62.52
779.702	63.78
779.88	63.95
780.058	61.76
780.237	58.88
780.415	58.57
780.593	59.34
780.771	59.3
780.95	59.62
781.128	61.53
781.306	60.88
781.484	60.23
781.662	62.13
781.841	60.48
782.019	61.41
782.197	60.59
782.375	56.66
782.553	53.99
782.731	55.42
782.909	52.83
783.087	48.84
783.265	53.71
783.443	54.01
783.621	51.43
783.799	49.01
783.977	51.04
784.155	56.03
784.333	57.68
784.511	59.77
784.689	56.88
784.867	56.8
785.045	60.88
785.223	59.21
785.4	63.88
785.578	62.41
785.756	64.1
785.934	64.71
786.112	61.9
786.289	64.64
786.467	66.4
786.645	67.51
786.823	67.08
787	68.64
787.178	65.62
787.356	60.43
787.533	61.37
787.711	61.37
787.889	61.24
788.066	59.91
788.244	60.88
788.421	59.52
788.599	59.73
788.776	61.1
788.954	58.83
789.131	58.44
789.309	58.47
789.486	60.16
789.664	62.96
789.841	59.47
790.019	62.66
790.196	62.51
790.373	62.28
790.551	59.38
790.728	64.48
790.906	65.18
791.083	69.4
791.26	70.85
791.437	67.25
791.615	67.46
791.792	70.74
791.969	71.34
792.146	67.78
792.324	66.09
792.501	68.81
792.678	60.2
792.855	58.75
793.032	59.91
793.209	57.4
793.387	57.27
793.564	53.64
793.741	56.11
793.918	56.63
794.095	57.38
794.272	61.72
794.449	62.24
794.626	65.98
794.803	66.84
794.98	59.99
795.157	65.12
795.334	63.78
795.511	64.41
795.688	61.08
795.864	60.29
796.041	60.22
796.218	58.45
796.395	55.59
796.572	55.08
796.749	55.93
796.925	58.7
797.102	56.5
797.279	59.28
797.456	60.71
797.632	61.17
797.809	66.55
797.986	68.47
798.162	70.61
798.339	73.41
798.516	77.4
798.692	74.87
798.869	79.22
799.046	82.05
799.222	77.73
799.399	78.87
799.575	80
799.752	68.25
799.928	64.14
800.105	61.91
800.281	62.87
800.458	62.71
800.634	60.02
800.811	60.42
800.987	65.03
801.163	64.56
801.34	62.89
801.516	63.23
801.692	69.26
801.869	74.44
802.045	74.58
802.221	69.91
802.398	66.7
802.574	67.8
802.75	68.3
802.926	66.89
803.103	70.67
803.279	64.61
803.455	61.68
803.631	64.61
803.807	66.89
803.983	74.18
804.16	81.13
804.336	86.82
804.512	91.9
804.688	90.8
804.864	86.08
805.04	90.61
805.216	101.35
805.392	103.08
805.568	97.65
805.744	86.41
805.92	77.61
806.096	72.74
806.272	74.52
806.448	68.92
806.623	70.21
806.799	73.58
806.975	67.1
807.151	61.56
807.327	64.44
807.503	64.55
807.678	69.8
807.854	73.66
808.03	79.27
808.206	77.25
808.381	79.55
808.557	72.31
808.733	71.36
808.908	73.63
809.084	75.67
809.26	76.35
809.435	74.94
809.611	72.41
809.787	71.85
809.962	70.63
810.138	72.4
810.313	76.25
810.489	83.17
810.664	78.56
810.84	76.4
811.015	76.1
811.191	75.05
811.366	75.67
811.542	79.92
811.717	81.24
811.892	77.87
812.068	73.9
812.243	75.36
812.419	72.31
812.594	75.48
812.769	81.27
812.944	88.1
813.12	84.06
813.295	86.41
813.47	83.33
813.645	85.9
813.821	89.01
813.996	91.97
814.171	91.39
814.346	97.6
814.521	100.91
814.697	98.02
814.872	89.82
815.047	92.51
815.222	89.95
815.397	93.77
815.572	95.09
815.747	92.77
815.922	86.09
816.097	79.57
816.272	75.75
816.447	73.11
816.622	71.28
816.797	70.68
816.972	73.2
817.147	71.54
817.322	70.73
817.496	65.23
817.671	63.33
817.846	69.88
818.021	71.53
818.196	68.19
818.371	71.08
818.545	67.07
818.72	64.63
818.895	62.87
819.069	61.51
819.244	58.14
819.419	60.42
819.594	59.73
819.768	53.81
819.943	51.52
820.117	48.89
820.292	45.68
820.467	45.16
820.641	45.43
820.816	43.71
820.99	43.18
821.165	41.85
821.339	39.12
821.514	39.13
821.688	38.07
821.863	38.08
822.037	38.14
822.212	37.75
822.386	37.91
822.56	37.3
822.735	37.26
822.909	37.39
823.084	36.71
823.258	37.21
823.432	37.89
823.606	39.32
823.781	39.06
823.955	40
824.129	39.99
824.303	40.54
824.478	40.65
824.652	40.76
824.826	40.94
825	42.81
825.174	44.39
825.348	43.11
825.523	41.55
825.697	41.51
825.871	42.03
826.045	43.53
826.219	44.72
826.393	45.63
826.567	43.86
826.741	44.21
826.915	43.78
827.089	43.28
827.263	43.71
827.437	44.24
827.611	45.53
827.784	46.06
827.958	46.25
828.132	45.37
828.306	46.55
828.48	48.49
828.654	49.26
828.827	50.28
829.001	53.81
829.175	54.26
829.349	58.32
829.522	60.66
829.696	60.41
829.87	63.94
830.044	67.52
830.217	67.41
830.391	73.91
830.565	73.16
830.738	73.19
830.912	67.93
831.085	65.09
831.259	62.1
831.432	61.4
831.606	66.82
831.779	64.28
831.953	62.51
832.126	60.54
832.3	57.18
832.473	59.29
832.647	61.38
832.82	59.46
832.994	61.93
833.167	58.42
833.34	56.25
833.514	52.52
833.687	51.82
833.86	51.57
834.034	54.12
834.207	53.73
834.38	52.94
834.553	53.4
834.727	53.89
834.9	57.58
835.073	63.1
835.246	68.14
835.419	71.36
835.593	75.37
835.766	77.46
835.939	78.2
836.112	80.58
836.285	81.18
836.458	83.37
836.631	87.44
836.804	82.48
836.977	81.27
837.15	78.56
837.323	80.2
837.496	71.57
837.669	74.01
837.842	74.19
838.015	74.07
838.188	75.82
838.361	75.36
838.533	74
838.706	76.01
838.879	73.16
839.052	78.1
839.225	86.44
839.398	94.17
839.57	86.08
839.743	84.98
839.916	87.48
840.088	84.18
840.261	87.14
840.434	98.6
840.607	93.25
840.779	102.66
840.952	98.99
841.124	85.51
841.297	90.95
841.47	103.59
841.642	102.44
841.815	109.85
841.987	122.9
842.16	120.85
842.332	109.83
842.505	124.7
842.677	119.7
842.85	132.48
843.022	140.42
843.194	139.22
843.367	129.97
843.539	133.77
843.712	107.11
843.884	109.17
844.056	110.44
844.229	107.01
844.401	108.34
844.573	105.68
844.745	96.25
844.918	101.16
845.09	98.73
845.262	100.4
845.434	95.14
845.606	102.89
845.779	102.53
845.951	115.54
846.123	108.8
846.295	114.27
846.467	120.16
846.639	127.23
846.811	137.67
846.983	148.19
847.155	158.2
847.327	155.46
847.499	170.4
847.671	197.83
847.843	184.5
848.015	277.13
848.187	250.87
848.359	271.6
848.531	288.84
848.703	266.09
848.875	297.46
849.047	243.77
849.218	305.91
849.39	281.05
849.562	233.44
849.734	215.28
849.905	178.81
850.077	205.71
850.249	240.81
850.421	250.87
850.592	197.63
850.764	202.22
850.936	230.19
851.107	258.08
851.279	272.87
851.451	231.36
851.622	211.96
851.794	188.6
851.965	150.21
852.137	136.95
852.308	134.2
852.48	150.73
852.651	148.17
852.823	134.56
852.994	118.94
853.166	118.41
853.337	119.57
853.509	133.91
853.68	172.8
853.851	175.75
854.023	214.97
854.194	206.92
854.365	226.9
854.537	216.49
854.708	353.13
854.879	688.21
855.05	609.68
855.222	519.76
855.393	324.94
855.564	326.84
855.735	307.62
855.906	248.7
856.078	290.54
856.249	315.6
856.42	296.89
856.591	257.54
856.762	239.91
856.933	309.87
857.104	375
857.275	419.9
857.446	256.47
857.617	248.44
857.788	237.52
857.959	200.25
858.13	173.15
858.301	189.69
858.472	222.06
858.643	224.7
858.814	237.41
858.985	229.48
859.155	250.92
859.326	331.15
859.497	332.09
859.668	289.04
859.839	494.81
860.009	355.15
860.18	254
860.351	201.21
860.522	182.98
860.692	150.3
860.863	146.37
861.034	133.13
861.204	125.68
861.375	128.9
861.546	137.15
861.716	130.35
861.887	128.66
862.057	159.94
862.228	129.83
862.398	161.57
862.569	162.43
862.739	154.98
862.91	150.88
863.08	179.94
863.251	179.33
863.421	188.27
863.592	166.3
863.762	173.79
863.932	146.52
864.103	191.65
864.273	155.66
864.443	163.21
864.614	151.51
864.784	160.81
864.954	150
865.125	159.14
865.295	159.37
865.465	142.86
865.635	173.9
865.805	168.84
865.976	174.19
866.146	170.75
866.316	189.96
866.486	237.62
866.656	171.79
866.826	195.08
866.996	201.87
867.166	226.79
867.336	246.11
867.506	197.31
867.676	202.72
867.846	174.67
868.016	180.13
868.186	168.84
868.356	152.2
868.526	181.34
868.696	197.7
868.866	201.3
869.036	170.54
869.206	145.63
869.376	152.33
869.545	148.59
869.715	182
869.885	227.74
870.055	257.02
870.224	311.23
870.394	448.53
870.564	320.63
870.734	333.04
870.903	290.59
871.073	365.51
871.243	305.96
871.412	321.18
871.582	264.16
871.751	229.97
871.921	229.5
872.091	208.83
872.26	182.19
872.43	144.5
872.599	145.22
872.769	171.74
872.938	159.06
873.108	210.67
873.277	229.2
873.446	290.34
873.616	261.36
873.785	289.64
873.955	393.97
874.124	310.04
874.293	916.92
874.463	1052.1
874.632	1325
874.801	1429.41
874.971	437.5
875.14	457.18
875.309	296.74
875.478	285.57
875.647	266.57
875.817	213.7
875.986	241.32
876.155	217.59
876.324	219.66
876.493	200.36
876.662	196.38
876.831	215.97
877	199.2
877.17	234.78
877.339	266.55
877.508	193.08
877.677	214.5
877.846	227.26
878.015	202.79
878.184	156.98
878.352	150.34
878.521	134.97
878.69	132.17
878.859	119.13
879.028	125.54
879.197	117.22
879.366	134.2
879.534	116.22
879.703	91.72
879.872	74.96
880.041	94.63
880.21	84.16
880.378	83.44
880.547	81.94
880.716	82.9
880.884	69.83
881.053	61.98
881.222	56.12
881.39	52.94
881.559	53.52
881.727	48.96
881.896	47.37
882.065	47.52
882.233	47.18
882.402	46.75
882.57	42.36
882.739	44.23
882.907	48.11
883.076	51
883.244	51.44
883.412	51.97
883.581	53.06
883.749	53.69
883.918	55.69
884.086	57.59
884.254	56.96
884.423	60.03
884.591	63.46
884.759	59.68
884.927	56.59
885.096	57.27
885.264	63.79
885.432	76.39
885.6	76.86
885.769	80.12
885.937	90.66
886.105	95.32
886.273	95.9
886.441	96.93
886.609	106.67
886.777	119.19
886.945	142.51
887.113	141.82
887.281	148.66
887.449	156.53
887.617	158.19
887.785	164.67
887.953	159.74
888.121	155.51
888.289	158.86
888.457	188.85
888.625	229.53
888.793	172.9
888.961	174.01
889.129	122.63
889.296	122.71
889.464	121.01
889.632	104.01
889.8	121.01
889.967	133.95
890.135	144.59
