Data from JASIL_3022_Reflection_02.txt Node
Date: Mon Nov 09 10:46:31 EST 2015
User: Geneva
Spectrometer: USB4E03002
Autoset integration time: false
Trigger mode: 4
Integration Time (sec): 1.000000E-1
Scans to average: 10
Electric dark correction enabled: false
Nonlinearity correction enabled: false
Boxcar width: 5
Stray light correction enabled: false
XAxis mode: Wavelengths
Stop averaging: false
Number of Pixels in Spectrum: 3648
>>>>>Begin Spectral Data<<<<<
177.575	99.72
177.794	123.26
178.014	107.84
178.233	178.71
178.452	177.29
178.672	454.39
178.891	586.96
179.11	170.73
179.33	1545.45
179.549	133.97
179.768	175.9
179.987	479.17
180.207	-498.33
180.426	-207.46
180.645	-72.32
180.864	-31.41
181.084	-26.32
181.303	-17.13
181.522	-35.08
181.741	-57.61
181.96	-170.64
182.179	-39.7
182.398	-61.42
182.618	-131.94
182.837	-284.47
183.056	-667.37
183.275	475.56
183.494	-621.11
183.713	-1410
183.932	-340.43
184.151	-654.55
184.37	26.18
184.589	-827.78
184.808	72.22
185.027	-12.73
185.246	-67.84
185.465	-43.38
185.684	-122.54
185.903	-38.16
186.122	-41.09
186.341	-31.9
186.56	-67.8
186.779	-253.06
186.998	312.09
187.216	130.4
187.435	29.17
187.654	-1.04
187.873	-3.65
188.092	-12.09
188.311	-6.02
188.53	6.41
188.748	-22.95
188.967	-95.24
189.186	187.1
189.405	156.74
189.623	184.11
189.842	138.1
190.061	-4220
190.28	-58.51
190.498	-30.48
190.717	26.67
190.936	24.71
191.154	36.73
191.373	-1.01
191.592	-6.29
191.81	-30.13
192.029	-25.93
192.248	-51.52
192.466	42.04
192.685	18.72
192.904	121.74
193.122	126.09
193.341	-2780
193.559	983.33
193.778	107.95
193.996	-210.71
194.215	-259.57
194.433	-44.95
194.652	-121.52
194.87	17.45
195.089	19.27
195.307	40.67
195.526	-29.63
195.744	-20
195.963	-13.24
196.181	59.57
196.399	-115.06
196.618	-163.5
196.836	-15.07
197.055	-43.93
197.273	64.56
197.491	77
197.71	34.34
197.928	25.3
198.146	67.35
198.365	49.3
198.583	-466.67
198.801	36.28
199.019	20.46
199.238	43.71
199.456	-0
199.674	50
199.892	60.19
200.111	-101
200.329	-266.07
200.547	1250
200.765	-229.87
200.983	192.72
201.202	187.5
201.42	94.2
201.638	71.27
201.856	154.07
202.074	49.49
202.292	25.4
202.51	-69.44
202.728	-2850
202.946	103.03
203.165	-631.58
203.383	259.62
203.601	977.27
203.819	-48.84
204.037	151.25
204.255	20
204.473	71.43
204.691	-51.96
204.909	404.76
205.127	-554.55
205.345	-672.55
205.562	727.78
205.78	-684
205.998	-389.86
206.216	-252.83
206.434	-549.44
206.652	-7885.71
206.87	928.81
207.088	384.85
207.306	366.24
207.523	379.55
207.741	380.22
207.959	152.7
208.177	123.84
208.395	222.97
208.612	154.48
208.83	140.67
209.048	105.03
209.266	177.94
209.483	-14.75
209.701	51.72
209.919	-3600
210.136	-34.55
210.354	83.33
210.572	151.06
210.79	597.22
211.007	2.19
211.225	-91.23
211.442	-607.89
211.66	261.48
211.878	609.21
212.095	756.6
212.313	13066.67
212.53	359.84
212.748	237.44
212.966	1058.54
213.183	18450
213.401	267.26
213.618	184.14
213.836	209.16
214.053	261.97
214.271	235.57
214.488	136.61
214.705	105.67
214.923	95.38
215.14	149.61
215.358	122.91
215.575	105.67
215.793	312.12
216.01	312.5
216.227	44.44
216.445	66.82
216.662	153.06
216.879	79.25
217.097	62.44
217.314	-30.65
217.531	151.72
217.749	-53.49
217.966	-73.85
218.183	7.71
218.4	40.67
218.618	46.13
218.835	36.86
219.052	28.25
219.269	9.65
219.487	6.67
219.704	-72.65
219.921	-51.38
220.138	-54.32
220.355	-30.96
220.572	-12666.67
220.79	540.74
221.007	469.85
221.224	634.38
221.441	439.6
221.658	-175.83
221.875	-106.34
222.092	27.45
222.309	33.97
222.526	22.7
222.743	0.86
222.96	27.94
223.177	49.6
223.394	56.93
223.611	70.87
223.828	77.28
224.045	71.48
224.262	66.34
224.479	25.16
224.696	16.93
224.913	4.78
225.13	2.56
225.347	8.2
225.564	-13.74
225.781	-25.07
225.997	-21.58
226.214	-22.4
226.431	-13.47
226.648	-9.07
226.865	-0.29
227.082	2.51
227.298	7.81
227.515	9.64
227.732	8.34
227.949	7.88
228.165	6.35
228.382	8.56
228.599	10.66
228.816	9.66
229.032	1.47
229.249	-1.1
229.466	-3.32
229.682	-11.81
229.899	-8.13
230.116	-9.2
230.332	3.17
230.549	3.11
230.765	-9.15
230.982	-4.31
231.199	-10.19
231.415	-3.89
231.632	-10.08
231.848	0.91
232.065	10.96
232.281	-3.37
232.498	-11.25
232.714	-9.22
232.931	2.98
233.147	-1.36
233.364	-10.4
233.58	-13.06
233.797	-4.03
234.013	-1.27
234.23	-13.86
234.446	-14.3
234.662	-0.24
234.879	2.77
235.095	3.19
235.312	-0.24
235.528	-3.35
235.744	2.26
235.961	5.36
236.177	-7.78
236.393	-8.23
236.61	-15.3
236.826	-15.59
237.042	-19.23
237.258	-8.17
237.475	-12.86
237.691	-16.61
237.907	-5
238.123	-3.42
238.339	5.43
238.556	18.11
238.772	20.52
238.988	24.68
239.204	28.15
239.42	29.15
239.636	20.85
239.853	19.59
240.069	17.04
240.285	10.49
240.501	11.07
240.717	9.25
240.933	2.58
241.149	3.83
241.365	2.2
241.581	-0.4
241.797	0.26
242.013	2.77
242.229	3.43
242.445	5.13
242.661	7.23
242.877	4.77
243.093	2.06
243.309	7.05
243.525	0.22
243.741	8.64
243.957	9.12
244.173	2.11
244.388	0.64
244.604	3.73
244.82	5.08
245.036	6.8
245.252	8.12
245.468	7.68
245.683	6.91
245.899	7.21
246.115	4.71
246.331	5.03
246.547	8.11
246.762	7.93
246.978	5.41
247.194	4.73
247.409	3.46
247.625	-0.48
247.841	-1
248.057	-0.55
248.272	0.59
248.488	-1.25
248.703	-3.47
248.919	-7.7
249.135	-6.51
249.35	-5.8
249.566	-8.12
249.782	-9.61
249.997	-4.47
250.213	-3.34
250.428	-3.09
250.644	-2.16
250.859	-1.7
251.075	1.73
251.29	1.24
251.506	5.17
251.721	3.99
251.937	1.16
252.152	4.59
252.368	2.5
252.583	4.5
252.798	8.77
253.014	8.37
253.229	11.56
253.445	4.63
253.66	0.63
253.875	-12.32
254.091	-15.15
254.306	-10.98
254.521	-10.32
254.737	-15.67
254.952	-14.83
255.167	-18.69
255.383	-17.96
255.598	-19.57
255.813	-15.49
256.028	-10.92
256.244	-2.46
256.459	3.19
256.674	5.95
256.889	5.3
257.104	8.4
257.32	6.12
257.535	4.13
257.75	6.11
257.965	6.75
258.18	8.15
258.395	7.41
258.61	6.42
258.826	5.84
259.041	4.32
259.256	2.34
259.471	0.58
259.686	0.6
259.901	2.91
260.116	-1.23
260.331	-0.32
260.546	-1.1
260.761	0.98
260.976	1.18
261.191	-0.75
261.406	0.27
261.621	5.24
261.836	9.98
262.05	11.7
262.265	5.63
262.48	10.18
262.695	10.13
262.91	10.73
263.125	6.47
263.34	3.13
263.555	2.05
263.769	0.44
263.984	0.65
264.199	4.27
264.414	1.61
264.629	1.77
264.843	1.56
265.058	1.04
265.273	-1.36
265.488	-0.86
265.702	-0.14
265.917	1.9
266.132	4.62
266.346	3.23
266.561	0.63
266.776	1.21
266.99	1.57
267.205	2.97
267.42	1.95
267.634	1.67
267.849	2.06
268.063	2.75
268.278	2.73
268.492	2.72
268.707	1.33
268.922	-1.24
269.136	-1.31
269.351	-1.59
269.565	-2.25
269.78	-3.34
269.994	-1.22
270.209	-0.07
270.423	0.29
270.637	-0.62
270.852	1.26
271.066	2.27
271.281	2.66
271.495	4.08
271.709	4.81
271.924	4.74
272.138	5.22
272.353	3.08
272.567	2.62
272.781	2.12
272.996	3.36
273.21	0.73
273.424	1.92
273.638	0.51
273.853	0.49
274.067	0.85
274.281	-1.16
274.495	0.49
274.71	0.04
274.924	-1.4
275.138	1.15
275.352	0.43
275.566	0.34
275.781	-3.49
275.995	-1.98
276.209	-5.33
276.423	-6.01
276.637	-6.74
276.851	-8.84
277.065	-6.2
277.279	-5.2
277.493	-4.94
277.707	-5.07
277.921	-2.32
278.135	0.6
278.349	2.2
278.563	2.72
278.777	3.16
278.991	5.76
279.205	6.22
279.419	3.23
279.633	4.47
279.847	2.73
280.061	1.97
280.275	-0.71
280.489	0.5
280.703	-2.15
280.917	-1
281.131	-0.36
281.344	-3.67
281.558	-2.94
281.772	-2.11
281.986	-1.68
282.2	-2.37
282.414	-0.88
282.627	0.41
282.841	-4.76
283.055	-2.82
283.269	-3.72
283.482	-4.26
283.696	-2.96
283.91	-3.79
284.123	-2.15
284.337	-3.79
284.551	-3.36
284.764	-4.87
284.978	-4.39
285.192	-1.05
285.405	0.3
285.619	0.75
285.833	0.14
286.046	0.78
286.26	-0.32
286.473	-1.4
286.687	-0.92
286.9	-0.39
287.114	-0.46
287.327	-2.46
287.541	-3.24
287.754	-3.63
287.968	-1.82
288.181	-1.7
288.395	-3.59
288.608	-2.2
288.822	-2.03
289.035	-0.52
289.248	-0.81
289.462	0.53
289.675	0.1
289.889	0.1
290.102	-1.58
290.315	-2.28
290.529	0.03
290.742	3.36
290.955	3.22
291.169	3.22
291.382	2.45
291.595	2.76
291.808	2.87
292.022	1.32
292.235	0.71
292.448	1.99
292.661	3.69
292.875	1.8
293.088	-1.41
293.301	0.95
293.514	-0.83
293.727	-0.83
293.94	-1.77
294.153	-2.06
294.367	1.47
294.58	-1.13
294.793	0.09
295.006	-1.22
295.219	-1.4
295.432	-0.29
295.645	-0.84
295.858	0.83
296.071	0.82
296.284	0.67
296.497	1.21
296.71	-0.34
296.923	2.71
297.136	-0.15
297.349	-1.65
297.562	-2.39
297.775	-1.96
297.988	-1.66
298.201	-3.8
298.414	-4.06
298.626	-3.34
298.839	-4.42
299.052	-1.77
299.265	-3.07
299.478	-1.79
299.691	-0.43
299.903	0.57
300.116	1.88
300.329	2.41
300.542	6.76
300.755	4.79
300.967	3.39
301.18	3.15
301.393	1.49
301.605	1.11
301.818	1.37
302.031	0.99
302.243	0.66
302.456	-1.59
302.669	-3.19
302.881	-5.42
303.094	-6.98
303.307	-5.43
303.519	-4.7
303.732	-7.47
303.944	-8.73
304.157	-7.5
304.37	-9.4
304.582	-10.27
304.795	-8.51
305.007	-9.11
305.22	-10.26
305.432	-8.08
305.645	-9.7
305.857	-8.89
306.069	-7.15
306.282	-4.29
306.494	-2.75
306.707	-0.69
306.919	2.21
307.132	0.97
307.344	0.61
307.556	2.56
307.769	2.7
307.981	4.67
308.193	5.25
308.406	5.9
308.618	4.85
308.83	1.73
309.043	2.98
309.255	1.89
309.467	2.03
309.679	2.08
309.892	0.28
310.104	2.04
310.316	1.4
310.528	0.13
310.74	0.53
310.953	1.29
311.165	1.42
311.377	1.32
311.589	0.75
311.801	2.6
312.013	4.66
312.225	6.12
312.437	3.83
312.649	1.1
312.862	1.4
313.074	-1.53
313.286	0.74
313.498	3.95
313.71	4.87
313.922	6.94
314.134	3.1
314.346	1.42
314.558	0.03
314.77	1.75
314.982	5.99
315.193	6.47
315.405	8.96
315.617	6.06
315.829	8.42
316.041	8.59
316.253	9
316.465	10.33
316.677	11.16
316.888	12.81
317.1	15.43
317.312	13.46
317.524	13.11
317.736	13.06
317.947	14.23
318.159	12.24
318.371	12.05
318.583	10.96
318.794	12.26
319.006	10.48
319.218	9.12
319.43	5.33
319.641	5.38
319.853	6.25
320.064	6.08
320.276	6.8
320.488	7.56
320.699	7.07
320.911	7.18
321.123	7.67
321.334	9.5
321.546	10.32
321.757	12.88
321.969	15.74
322.18	14.83
322.392	15.68
322.603	14.64
322.815	10.51
323.026	9.37
323.238	8.36
323.449	8.87
323.661	9.88
323.872	8.55
324.083	7.01
324.295	4.22
324.506	2.94
324.718	1.79
324.929	0.1
325.14	0.42
325.352	-0.99
325.563	-1.75
325.774	-3.21
325.986	-5.74
326.197	-4.97
326.408	-5.14
326.62	-3.72
326.831	-2.81
327.042	-1.26
327.253	1.91
327.464	5.78
327.676	7.91
327.887	9.14
328.098	9.24
328.309	9.61
328.52	11.1
328.732	12.3
328.943	10.77
329.154	10.98
329.365	9.72
329.576	7.83
329.787	5.54
329.998	3.88
330.209	5.69
330.42	6.46
330.631	7.9
330.842	5.11
331.053	5.14
331.264	7.05
331.475	8.41
331.686	8.69
331.897	9.19
332.108	9.6
332.319	11.34
332.53	8.88
332.741	10.01
332.952	8.79
333.163	9.66
333.374	9.1
333.585	8.84
333.795	8.16
334.006	8.13
334.217	7.46
334.428	5.65
334.639	5.51
334.849	6.34
335.06	4.51
335.271	6.07
335.482	6.23
335.692	7.03
335.903	6
336.114	4.97
336.325	5.68
336.535	7.6
336.746	7.9
336.957	8.08
337.167	7.42
337.378	6.14
337.589	6.54
337.799	6.86
338.01	7.33
338.22	9.58
338.431	9.52
338.642	7.96
338.852	3.58
339.063	3.32
339.273	1.87
339.484	3.24
339.694	4.15
339.905	3.77
340.115	3.01
340.326	2.38
340.536	1.19
340.746	1.22
340.957	0.2
341.167	2.45
341.378	2.93
341.588	3.38
341.799	2.39
342.009	5.13
342.219	3.62
342.43	3.81
342.64	2.93
342.85	4.07
343.061	3.53
343.271	5.21
343.481	5.61
343.691	5.7
343.902	5.32
344.112	7.09
344.322	3.1
344.532	4.44
344.743	4.56
344.953	6.24
345.163	6.87
345.373	9
345.583	7.77
345.793	8.45
346.004	9.61
346.214	10.34
346.424	7.72
346.634	10.41
346.844	11.28
347.054	13.07
347.264	10.36
347.474	9.32
347.684	8.4
347.894	8.85
348.104	8.34
348.314	6.42
348.524	6.75
348.734	8.16
348.944	6.66
349.154	6.55
349.364	5.68
349.574	8.49
349.784	7.73
349.994	6.82
350.204	6.01
350.413	4.91
350.623	5.55
350.833	3.92
351.043	1.78
351.253	3.09
351.463	0.33
351.672	-1.59
351.882	-2.13
352.092	-2.13
352.302	-0.05
352.511	2.63
352.721	4.59
352.931	4.12
353.141	3.82
353.35	5.62
353.56	7.59
353.77	8.77
353.979	9.6
354.189	8.06
354.399	9.01
354.608	9.97
354.818	7.87
355.027	6.2
355.237	6.75
355.447	8.89
355.656	8.34
355.866	6.2
356.075	7.32
356.285	7.21
356.494	9.07
356.704	7.71
356.913	7.12
357.123	7.78
357.332	7.88
357.542	8.13
357.751	7.34
357.96	7.63
358.17	7.13
358.379	6.03
358.589	5.91
358.798	4.36
359.007	6.44
359.217	6.17
359.426	6.94
359.635	7.01
359.845	6.6
360.054	6.82
360.263	5.36
360.472	5.97
360.682	5.78
360.891	5.88
361.1	6.81
361.309	4.91
361.519	3.3
361.728	2.58
361.937	3.11
362.146	3.54
362.355	2.87
362.564	4.41
362.774	5.13
362.983	5.04
363.192	5.6
363.401	4.5
363.61	6.27
363.819	6.52
364.028	7.43
364.237	7.1
364.446	7.23
364.655	7.33
364.864	9
365.073	8.17
365.282	8.57
365.491	8.87
365.7	11.75
365.909	11.25
366.118	12.81
366.327	13.19
366.536	13.92
366.745	13.94
366.954	14.77
367.162	13.43
367.371	14.32
367.58	13.53
367.789	12.11
367.998	9.9
368.207	10.78
368.415	9.65
368.624	8.27
368.833	8.36
369.042	7.4
369.25	5.94
369.459	5.91
369.668	4.76
369.877	4.3
370.085	5.22
370.294	6.24
370.503	3.82
370.711	3.49
370.92	3.91
371.129	2.52
371.337	2.19
371.546	3.05
371.754	2.1
371.963	2.54
372.171	4.89
372.38	4.99
372.589	3.34
372.797	4.63
373.006	6.22
373.214	6.71
373.423	6.95
373.631	8.41
373.84	8.43
374.048	8.52
374.256	7.74
374.465	7.93
374.673	7.28
374.882	7.65
375.09	7.24
375.298	5.6
375.507	4.71
375.715	5.16
375.923	5.23
376.132	5.15
376.34	6.34
376.548	6.6
376.757	5.1
376.965	6.02
377.173	5.97
377.381	7.83
377.59	8.24
377.798	8.58
378.006	7.79
378.214	7.56
378.423	8.34
378.631	8.62
378.839	8.15
379.047	9.19
379.255	9.07
379.463	8.18
379.671	6.08
379.879	6.62
380.088	6.68
380.296	7.15
380.504	6.86
380.712	5.63
380.92	4.71
381.128	5.11
381.336	3.93
381.544	4.19
381.752	4.85
381.96	5.19
382.168	5.4
382.376	6.82
382.584	6.41
382.791	6.39
382.999	6.17
383.207	7.59
383.415	8.62
383.623	8.97
383.831	7.3
384.039	8.28
384.247	9.36
384.454	8.42
384.662	8.41
384.87	8.82
385.078	8.8
385.285	9.02
385.493	8.44
385.701	8.81
385.909	9.73
386.116	9.94
386.324	9.56
386.532	8.01
386.739	9.26
386.947	8.6
387.155	9.18
387.362	9.44
387.57	9.57
387.778	8.9
387.985	7.55
388.193	6.78
388.4	8.43
388.608	7.81
388.816	8.81
389.023	8.32
389.231	7.79
389.438	6.85
389.646	6.57
389.853	6.7
390.061	7.02
390.268	8.11
390.475	8.72
390.683	8.82
390.89	8.96
391.098	8.45
391.305	8.44
391.512	9.16
391.72	9.57
391.927	9.44
392.135	9.72
392.342	9.69
392.549	8.16
392.756	7.36
392.964	7.78
393.171	8.19
393.378	8.9
393.586	8.77
393.793	7.78
394	7.32
394.207	8.34
394.414	8.03
394.622	7.82
394.829	8.05
395.036	9.29
395.243	8.71
395.45	8.45
395.657	8.79
395.864	7.74
396.072	7.83
396.279	8.78
396.486	8.49
396.693	8.31
396.9	7.14
397.107	7.63
397.314	6.19
397.521	4.92
397.728	4.76
397.935	2.68
398.142	4.48
398.349	3.99
398.556	2.84
398.763	1.76
398.97	1.41
399.177	1.79
399.383	2.55
399.59	3.27
399.797	3.12
400.004	4.74
400.211	6.17
400.418	4.91
400.625	5.99
400.831	5.42
401.038	5.75
401.245	7.19
401.452	7.5
401.658	6.4
401.865	6.64
402.072	7.26
402.279	6.21
402.485	5.74
402.692	6.97
402.899	6.44
403.105	8.26
403.312	8.22
403.519	8.37
403.725	8.66
403.932	8.96
404.138	9.13
404.345	8.38
404.552	8.33
404.758	8.79
404.965	7.65
405.171	7.89
405.378	7.07
405.584	7.07
405.791	6.29
405.997	7.61
406.204	8.22
406.41	6.81
406.617	8.43
406.823	7.95
407.029	8.48
407.236	9.21
407.442	9.14
407.649	8.86
407.855	8.54
408.061	8.37
408.268	6.77
408.474	5.33
408.68	6.18
408.887	5.52
409.093	6.07
409.299	5.17
409.505	5.36
409.712	4.66
409.918	5.5
410.124	6.29
410.33	5.39
410.537	5.87
410.743	5.86
410.949	3.97
411.155	4.49
411.361	3.88
411.567	4.07
411.773	4
411.98	5.27
412.186	4.44
412.392	4.24
412.598	4.96
412.804	4.88
413.01	6.37
413.216	7.77
413.422	8.05
413.628	8.07
413.834	8.14
414.04	7.94
414.246	7.72
414.452	7.64
414.658	7.9
414.864	8.71
415.07	8.77
415.275	7.59
415.481	7.52
415.687	6.16
415.893	5.77
416.099	5.87
416.305	5.49
416.511	5.26
416.716	5.05
416.922	4.27
417.128	3.48
417.334	3.43
417.539	3.55
417.745	3.61
417.951	4.1
418.157	5.04
418.362	3.96
418.568	3.91
418.774	3.5
418.979	3.13
419.185	4.26
419.391	3.84
419.596	3.48
419.802	3.53
420.008	3.52
420.213	-0.73
420.419	-1.37
420.624	-0.78
420.83	-0.71
421.035	-0.45
421.241	0.75
421.446	-0.3
421.652	0.24
421.857	0.47
422.063	0.53
422.268	0.61
422.474	4.63
422.679	4.59
422.885	4.43
423.09	4.29
423.295	4.31
423.501	3.66
423.706	4.02
423.911	4.36
424.117	4.07
424.322	4.37
424.527	4.47
424.733	5.04
424.938	5.38
425.143	5.93
425.349	6.17
425.554	5.72
425.759	5.85
425.964	6.08
426.169	5.99
426.375	6.31
426.58	6.09
426.785	5.35
426.99	4.77
427.195	4.72
427.4	4.17
427.605	3.61
427.811	4.26
428.016	3.31
428.221	2.27
428.426	1.09
428.631	1.02
428.836	1.46
429.041	2.47
429.246	2.67
429.451	2.53
429.656	2.52
429.861	3.54
430.066	3.45
430.271	3.92
430.476	4.75
430.681	5.7
430.886	5.77
431.09	5.35
431.295	5.15
431.5	4.83
431.705	4.62
431.91	4.54
432.115	4.53
432.32	4
432.524	5.04
432.729	4.8
432.934	4.45
433.139	4.68
433.343	4.49
433.548	4.37
433.753	4.82
433.958	4.86
434.162	4.89
434.367	4.92
434.572	4.92
434.776	4.44
434.981	4.23
435.186	3.89
435.39	3.4
435.595	3.44
435.799	3.63
436.004	3.67
436.209	3.73
436.413	3.94
436.618	3.15
436.822	3.9
437.027	3.94
437.231	4.27
437.436	4.22
437.64	4.06
437.845	4.57
438.049	4.37
438.253	3.85
438.458	3.96
438.662	3.73
438.867	3.61
439.071	3.29
439.275	3.09
439.48	2.98
439.684	3.09
439.888	3.3
440.093	2.95
440.297	2.88
440.501	3.17
440.706	3.43
440.91	3.67
441.114	3.69
441.318	4.17
441.523	3.48
441.727	3.01
441.931	3.48
442.135	3.82
442.339	3.9
442.543	4.32
442.748	4.19
442.952	3.77
443.156	3.64
443.36	4.39
443.564	4.14
443.768	4.87
443.972	5.3
444.176	4.67
444.38	4.76
444.584	4.95
444.788	4.51
444.992	4.61
445.196	4.43
445.4	4.21
445.604	3.89
445.808	3.95
446.012	3.91
446.216	3.44
446.42	3.76
446.624	3.53
446.828	3.04
447.032	3.46
447.235	3.19
447.439	3.39
447.643	3.84
447.847	3.62
448.051	3.84
448.254	3.5
448.458	3.69
448.662	4.62
448.866	4.16
449.069	4.31
449.273	3.95
449.477	3.86
449.681	4
449.884	4.11
450.088	4.36
450.292	3.86
450.495	4.16
450.699	4.59
450.902	3.56
451.106	4.24
451.31	4.26
451.513	4.14
451.717	5.06
451.92	4.95
452.124	5.06
452.327	4.97
452.531	5.02
452.734	4.66
452.938	4.45
453.141	4.32
453.345	4.04
453.548	3.92
453.752	4.61
453.955	4.08
454.158	3.93
454.362	3.32
454.565	3.9
454.769	3.41
454.972	4.24
455.175	3.64
455.379	3.89
455.582	3.76
455.785	4.4
455.988	3.61
456.192	3.59
456.395	4.03
456.598	4.18
456.801	3.24
457.005	3.8
457.208	3.21
457.411	3.52
457.614	3.69
457.817	3.83
458.021	3.23
458.224	3.44
458.427	3.52
458.63	3.71
458.833	3.7
459.036	4.14
459.239	4.11
459.442	4.29
459.645	4.34
459.848	4.35
460.051	3.87
460.254	3.9
460.457	3.75
460.66	3.4
460.863	3.25
461.066	3.33
461.269	2.95
461.472	2.36
461.675	1.94
461.878	1.7
462.081	1.45
462.284	1.33
462.486	1.41
462.689	1.84
462.892	2.83
463.095	2.51
463.298	2.63
463.5	2.59
463.703	3.39
463.906	3.81
464.109	3.76
464.311	3.55
464.514	4.28
464.717	4.88
464.92	4.84
465.122	3.97
465.325	4.41
465.528	4.32
465.73	4.55
465.933	4.67
466.135	4.29
466.338	3.92
466.541	4.23
466.743	3.8
466.946	3.32
467.148	2.84
467.351	3.47
467.553	3.55
467.756	3.56
467.958	3.4
468.161	2.76
468.363	2.94
468.566	3.63
468.768	3.88
468.971	4.46
469.173	4.51
469.375	4.77
469.578	4.78
469.78	4.3
469.983	4.44
470.185	4.72
470.387	4.63
470.59	4.96
470.792	4.84
470.994	4.77
471.196	4.61
471.399	5.69
471.601	5.63
471.803	5.19
472.005	5.18
472.208	5.07
472.41	5.01
472.612	4.99
472.814	5.08
473.016	6.25
473.218	5.76
473.421	5.13
473.623	4.39
473.825	4.88
474.027	5.14
474.229	5.06
474.431	4.8
474.633	4.85
474.835	5.15
475.037	4.99
475.239	3.87
475.441	3.9
475.643	3.75
475.845	3.39
476.047	2.79
476.249	2.4
476.451	2.32
476.653	2.85
476.855	2.77
477.057	2.87
477.258	2.52
477.46	3.1
477.662	3.25
477.864	3.94
478.066	4.81
478.268	5.06
478.469	4.92
478.671	5.26
478.873	4.91
479.075	4.78
479.276	5.46
479.478	5.03
479.68	5.07
479.882	5.04
480.083	4.59
480.285	4.19
480.487	3.78
480.688	3.8
480.89	3.54
481.091	3.46
481.293	3.31
481.495	3.12
481.696	3.61
481.898	3.48
482.099	3.55
482.301	3.56
482.502	3.56
482.704	3.62
482.905	3.82
483.107	3.86
483.308	3.94
483.51	4.03
483.711	4.03
483.913	3.82
484.114	3.64
484.315	3.43
484.517	3.61
484.718	3.54
484.92	3.74
485.121	3.43
485.322	3.41
485.524	3.4
485.725	3.48
485.926	3.47
486.127	3.7
486.329	3.75
486.53	3.92
486.731	4.1
486.932	4.21
487.134	3.97
487.335	4.09
487.536	4.29
487.737	4.03
487.938	3.97
488.139	3.87
488.341	3.86
488.542	3.95
488.743	3.87
488.944	3.77
489.145	3.7
489.346	3.98
489.547	3.78
489.748	3.51
489.949	3.93
490.15	3.92
490.351	3.9
490.552	3.82
490.753	3.72
490.954	3.88
491.155	3.77
491.356	3.55
491.557	3.63
491.758	4.01
491.959	4.11
492.159	4.12
492.36	4.2
492.561	4.35
492.762	4.32
492.963	4.52
493.164	4.67
493.364	4.31
493.565	3.99
493.766	3.4
493.967	3.08
494.167	2.93
494.368	2.86
494.569	2.72
494.769	2.66
494.97	2.6
495.171	3.1
495.371	3.19
495.572	3.46
495.773	4.03
495.973	4.5
496.174	4.54
496.375	4.82
496.575	4.65
496.776	5
496.976	4.79
497.177	5.07
497.377	4.75
497.578	4.28
497.778	4.56
497.979	4.56
498.179	4.33
498.38	4.49
498.58	4.07
498.78	4.19
498.981	4.18
499.181	4.29
499.382	4.3
499.582	4.15
499.782	4.55
499.983	4.09
500.183	4.09
500.383	4.37
500.584	4.49
500.784	5.2
500.984	5.16
501.184	4.87
501.385	5.06
501.585	4.84
501.785	4.54
501.985	4.18
502.185	4.81
502.386	5.46
502.586	6.06
502.786	5.68
502.986	5.71
503.186	5.69
503.386	5.75
503.586	5.72
503.786	5.61
503.987	5.61
504.187	5.79
504.387	5.53
504.587	5.01
504.787	4.26
504.987	4.55
505.187	4.62
505.387	4.9
505.587	4.88
505.786	4.98
505.986	5.38
506.186	5.95
506.386	5.8
506.586	5.71
506.786	6.12
506.986	6.02
507.186	6.16
507.386	6.19
507.585	6.37
507.785	6.52
507.985	6.58
508.185	6.8
508.384	7.19
508.584	7.47
508.784	7.68
508.984	7.55
509.183	7.79
509.383	7.55
509.583	7.18
509.782	6.99
509.982	7.06
510.182	6.89
510.381	6.73
510.581	6.17
510.781	6.35
510.98	6.46
511.18	6.23
511.379	6.21
511.579	6.3
511.778	6.44
511.978	6.6
512.177	6.92
512.377	7.04
512.576	7.42
512.776	7.35
512.975	7.12
513.175	6.57
513.374	6.55
513.573	6.81
513.773	6.42
513.972	6.55
514.172	6.24
514.371	6.19
514.57	6.18
514.77	6.22
514.969	6.23
515.168	6.19
515.367	6.61
515.567	7.04
515.766	7.09
515.965	7.51
516.164	7.36
516.364	7.55
516.563	7.46
516.762	7.69
516.961	7.23
517.16	7.13
517.359	7.11
517.559	7.34
517.758	7.18
517.957	6.78
518.156	6.88
518.355	7.2
518.554	7.2
518.753	7.16
518.952	6.62
519.151	6.79
519.35	7.43
519.549	7.69
519.748	7.79
519.947	7.59
520.146	8.13
520.345	8.74
520.544	8.77
520.743	8.83
520.942	8.65
521.141	9.35
521.339	9.56
521.538	9.55
521.737	9.52
521.936	9.22
522.135	9.65
522.333	9.23
522.532	8.46
522.731	8.4
522.93	7.96
523.129	8.09
523.327	8.35
523.526	8.39
523.725	8.15
523.923	8.3
524.122	8.62
524.321	8.82
524.519	9.21
524.718	9.14
524.917	8.89
525.115	9.39
525.314	9.51
525.512	9.19
525.711	9.01
525.909	9.07
526.108	8.87
526.306	8.69
526.505	8.61
526.703	8.4
526.902	8.46
527.1	8.73
527.299	8.66
527.497	8.71
527.696	8.76
527.894	8.93
528.092	8.88
528.291	9.02
528.489	9.38
528.688	9.28
528.886	9.61
529.084	9.81
529.283	9.55
529.481	9.76
529.679	9.57
529.877	9.63
530.076	9.72
530.274	10.13
530.472	10.01
530.67	9.69
530.869	9.72
531.067	9.78
531.265	10.07
531.463	10.45
531.661	10.67
531.859	10.86
532.057	10.91
532.255	10.84
532.454	10.71
532.652	10.84
532.85	10.9
533.048	11.07
533.246	10.97
533.444	10.74
533.642	10.84
533.84	10.64
534.038	10.65
534.236	10.49
534.434	10.57
534.632	10.71
534.83	10.8
535.027	10.73
535.225	10.48
535.423	10.55
535.621	10.99
535.819	11
536.017	11.02
536.215	11.17
536.412	11.7
536.61	11.81
536.808	11.86
537.006	11.92
537.203	11.76
537.401	12.2
537.599	12.73
537.797	12.28
537.994	12.21
538.192	12.44
538.39	12.64
538.587	12.44
538.785	12.27
538.983	12.02
539.18	12.09
539.378	12.18
539.575	12.28
539.773	11.47
539.97	11.54
540.168	11.53
540.366	11.22
540.563	11.03
540.761	11.1
540.958	11.15
541.155	11.26
541.353	11.16
541.55	11.19
541.748	11.17
541.945	11.63
542.143	11.59
542.34	11.89
542.537	12.25
542.735	12.48
542.932	12.21
543.129	12.2
543.327	12.66
543.524	12.77
543.721	12.91
543.919	12.95
544.116	13.11
544.313	13.25
544.51	13.26
544.708	13.38
544.905	13.26
545.102	13.58
545.299	13.58
545.496	13.28
545.693	13.29
545.891	13.57
546.088	13.7
546.285	13.53
546.482	13.9
546.679	13.68
546.876	13.87
547.073	14.53
547.27	14.89
547.467	14.93
547.664	15.01
547.861	15.3
548.058	15.25
548.255	15.23
548.452	15.65
548.649	15.38
548.846	15.59
549.043	15.59
549.24	15.25
549.437	15.16
549.633	15.09
549.83	15.01
550.027	14.67
550.224	14.6
550.421	14.96
550.618	15.23
550.814	15.68
551.011	15.88
551.208	15.46
551.405	15.8
551.601	15.04
551.798	16.09
551.995	16.38
552.191	16.51
552.388	16.89
552.585	16.61
552.781	16.95
552.978	16.57
553.175	16.61
553.371	17.47
553.568	17.02
553.764	17.95
553.961	17.44
554.157	17.65
554.354	18.54
554.55	18.53
554.747	19.16
554.943	18.96
555.14	18.94
555.336	19.67
555.533	19.39
555.729	20.01
555.926	20.05
556.122	20.85
556.318	20.83
556.515	21.17
556.711	21.93
556.907	22.05
557.104	21.84
557.3	22.72
557.496	22.13
557.693	22.22
557.889	22.13
558.085	22.66
558.281	22.23
558.478	23.17
558.674	23.17
558.87	22.78
559.066	22.51
559.262	23.21
559.459	22.98
559.655	22.9
559.851	22.62
560.047	22.86
560.243	22.42
560.439	22.77
560.635	22.26
560.831	22.9
561.027	22.99
561.223	23.42
561.419	23.75
561.615	23.82
561.811	23.6
562.007	24.3
562.203	23.97
562.399	24.26
562.595	24.51
562.791	24.88
562.987	23.74
563.183	23.65
563.379	23.54
563.575	22.18
563.771	22.12
563.966	22.21
564.162	21.88
564.358	22.1
564.554	22.08
564.75	21.68
564.945	21.24
565.141	21.49
565.337	21.62
565.533	21.35
565.728	22.39
565.924	22.28
566.12	22.83
566.315	22.29
566.511	22.97
566.707	22.69
566.902	23.2
567.098	23.48
567.293	23.45
567.489	23.29
567.684	23.64
567.88	23.22
568.076	23.4
568.271	23.19
568.467	23.77
568.662	22.94
568.858	23.28
569.053	23.07
569.248	23.21
569.444	23.47
569.639	23.78
569.835	23.63
570.03	23.41
570.225	23.44
570.421	23.56
570.616	23.54
570.812	23.49
571.007	23.5
571.202	23.49
571.397	23.3
571.593	23.65
571.788	23.49
571.983	23.45
572.178	23.88
572.374	24.11
572.569	24.3
572.764	24.54
572.959	24.95
573.154	25.02
573.35	24.57
573.545	24.48
573.74	24.14
573.935	24.35
574.13	24.7
574.325	25.1
574.52	25.27
574.715	25.13
574.91	25.11
575.105	25.76
575.3	25.83
575.495	26.52
575.69	27.29
575.885	28.02
576.08	28.38
576.275	28.73
576.47	28.51
576.665	28.58
576.86	29.16
577.055	29.75
577.25	28.85
577.444	29.13
577.639	29.35
577.834	29.12
578.029	28.13
578.224	27.21
578.418	27.14
578.613	26.48
578.808	26.55
579.003	25.92
579.197	26.24
579.392	26.11
579.587	26.73
579.781	25.98
579.976	26.34
580.171	26.02
580.365	26.85
580.56	26.68
580.755	28.26
580.949	28.08
581.144	28.51
581.338	28.46
581.533	29.54
581.727	29.62
581.922	30.91
582.116	30.73
582.311	32.05
582.505	31.54
582.7	32.54
582.894	32.56
583.089	33.39
583.283	33.12
583.478	32.44
583.672	31.68
583.866	31.47
584.061	30.75
584.255	30.77
584.449	30.41
584.644	31.92
584.838	31.06
585.032	30.37
585.226	30.05
585.421	29.88
585.615	30.15
585.809	30.73
586.003	30.72
586.198	31.24
586.392	30.74
586.586	29.55
586.78	28.16
586.974	27.95
587.168	27.94
587.363	27.12
587.557	27.46
587.751	27.14
587.945	26.62
588.139	26.65
588.333	25.83
588.527	25.85
588.721	27.16
588.915	27.71
589.109	28.04
589.303	27.95
589.497	27.49
589.691	27.78
589.885	27.36
590.079	28.2
590.273	28.21
590.466	29.44
590.66	29.11
590.854	28.58
591.048	28.88
591.242	28.98
591.436	28.83
591.629	29.85
591.823	29.26
592.017	30.49
592.211	30.01
592.404	29.5
592.598	28.58
592.792	29.28
592.986	29.38
593.179	29.14
593.373	28.82
593.567	29.6
593.76	29.65
593.954	29.55
594.147	28.8
594.341	29.06
594.535	29.29
594.728	28.8
594.922	28.64
595.115	28.94
595.309	28.82
595.502	28.57
595.696	28.03
595.889	27.82
596.083	28.41
596.276	27.88
596.47	28.05
596.663	28.46
596.856	29.46
597.05	29.79
597.243	29.84
597.437	30.43
597.63	30.92
597.823	30.73
598.017	30.93
598.21	31.35
598.403	32.47
598.596	32.27
598.79	32.13
598.983	31.73
599.176	31.08
599.369	31.34
599.563	31.79
599.756	32.36
599.949	33.09
600.142	33.6
600.335	33.22
600.528	33.6
600.722	34.07
600.915	32.83
601.108	32.88
601.301	32.71
601.494	33.06
601.687	32.58
601.88	31.94
602.073	31.79
602.266	32.02
602.459	31.39
602.652	31.15
602.845	30.52
603.038	31.58
603.231	31.49
603.424	31.84
603.617	31
603.809	30.91
604.002	30.2
604.195	29.97
604.388	29.35
604.581	30.45
604.774	30.74
604.966	31.23
605.159	30.72
605.352	30.91
605.545	31.46
605.737	31.46
605.93	31.36
606.123	32.76
606.316	33.48
606.508	33.05
606.701	31.89
606.894	31.43
607.086	30.74
607.279	30.53
607.471	30.5
607.664	29.71
607.857	29.95
608.049	29.8
608.242	29.67
608.434	29.64
608.627	30.47
608.819	30.9
609.012	31.27
609.204	31.51
609.397	32.31
609.589	32.4
609.782	32.71
609.974	34.11
610.166	34.62
610.359	35.16
610.551	34.79
610.743	34.56
610.936	34.33
611.128	34.85
611.32	35.16
611.513	35.16
611.705	35.43
611.897	36.33
612.09	35.91
612.282	35.92
612.474	35.52
612.666	36.29
612.858	36.76
613.051	38.05
613.243	37.67
613.435	38.02
613.627	38.12
613.819	38.89
614.011	38.63
614.203	37.8
614.395	37.54
614.588	37.76
614.78	38.24
614.972	38.34
615.164	37.69
615.356	38.37
615.548	39.03
615.74	39.94
615.932	38.6
616.124	39.29
616.315	39.8
616.507	40.33
616.699	40.87
616.891	40.56
617.083	40.98
617.275	40.87
617.467	40.2
617.659	39.4
617.85	39.05
618.042	40.14
618.234	39.37
618.426	39.7
618.618	39.69
618.809	39.1
619.001	38.76
619.193	38.69
619.384	38.78
619.576	38.92
619.768	37.73
619.959	37.08
620.151	36.84
620.343	37.21
620.534	36.55
620.726	37.12
620.917	37.24
621.109	36.82
621.301	36.31
621.492	37.12
621.684	37.21
621.875	38.68
622.067	38.71
622.258	38.23
622.45	38.61
622.641	37.65
622.832	36.89
623.024	37.45
623.215	37.3
623.407	38.48
623.598	37.55
623.789	37.77
623.981	37.42
624.172	37.66
624.363	37.69
624.555	36.84
624.746	38.04
624.937	37.5
625.129	36.11
625.32	36.39
625.511	34.72
625.702	35.04
625.893	34.24
626.085	34.98
626.276	34.1
626.467	34.07
626.658	34.72
626.849	33.77
627.04	33.86
627.231	34.95
627.422	34.3
627.614	34.64
627.805	34.35
627.996	35.11
628.187	33.76
628.378	34.7
628.569	35.21
628.76	36.11
628.951	37.21
629.142	37.23
629.332	37.08
629.523	37.67
629.714	38.16
629.905	38.28
630.096	37.74
630.287	38.99
630.478	39.17
630.669	38.76
630.859	37.4
631.05	37.91
631.241	38.92
631.432	39.6
631.623	40.71
631.813	40.03
632.004	40.13
632.195	40.07
632.385	38.92
632.576	38.96
632.767	38.67
632.957	38.62
633.148	38.02
633.339	37.36
633.529	37.27
633.72	36.87
633.91	37.93
634.101	38.73
634.292	39.1
634.482	39.68
634.673	39.95
634.863	40.42
635.054	40.52
635.244	40.21
635.435	41.13
635.625	40.56
635.815	39.48
636.006	38.4
636.196	37.32
636.387	38.74
636.577	39.26
636.767	39.84
636.958	40.34
637.148	40.32
637.338	40.23
637.529	40.27
637.719	40.64
637.909	41.94
638.099	42.27
638.29	41.96
638.48	41.29
638.67	41.27
638.86	40.71
639.05	40.17
639.241	40.89
639.431	42.4
639.621	42.54
639.811	43.38
640.001	43.35
640.191	45.22
640.381	46.22
640.571	45.7
640.761	46.07
640.951	46.27
641.141	47.82
641.331	47.33
641.521	47.48
641.711	46.6
641.901	46
642.091	46.42
642.281	46.44
642.471	46.3
642.661	45.42
642.851	45.55
643.041	45.45
643.231	44.95
643.42	45.65
643.61	45.02
643.8	45.01
643.99	44.54
644.18	43.88
644.369	41.74
644.559	41.11
644.749	41.48
644.939	40.96
645.128	41.55
645.318	39.87
645.508	39.4
645.697	39.29
645.887	39.12
646.076	40.36
646.266	39.61
646.456	39.84
646.645	41.56
646.835	43.03
647.024	42.87
647.214	41.53
647.403	42.8
647.593	43.34
647.782	42.72
647.972	43.61
648.161	42.98
648.351	44.28
648.54	45.37
648.73	44.47
648.919	42.51
649.108	42.27
649.298	42.98
649.487	42.86
649.677	43.27
649.866	43.88
650.055	42.85
650.244	42.82
650.434	41.98
650.623	42.05
650.812	42.29
651.002	43.83
651.191	43.5
651.38	44.13
651.569	43.97
651.758	43.96
651.947	43.77
652.137	43.75
652.326	44.82
652.515	45.17
652.704	45.77
652.893	45.96
653.082	45.83
653.271	47.38
653.46	46.44
653.649	46.6
653.838	46.01
654.027	44.98
654.216	45.56
654.405	43.33
654.594	43.88
654.783	43.35
654.972	43.07
655.161	44.45
655.35	44.06
655.539	44.62
655.728	45.6
655.916	45.77
656.105	46.75
656.294	46.11
656.483	46.67
656.672	45.83
656.86	45.97
657.049	45.45
657.238	43.76
657.427	43.71
657.615	42.9
657.804	41.76
657.993	41.67
658.181	41.63
658.37	42.18
658.559	41.43
658.747	41.99
658.936	41.51
659.125	41.59
659.313	41.2
659.502	41.61
659.69	42.39
659.879	42.67
660.067	41.99
660.256	41.91
660.444	41.17
660.633	41.29
660.821	41.27
661.01	42.34
661.198	43.61
661.387	45.25
661.575	44.54
661.763	44.16
661.952	44.82
662.14	46.27
662.328	47.12
662.517	48.93
662.705	50.6
662.893	50.35
663.082	49.75
663.27	50.23
663.458	50.28
663.646	50.73
663.834	50.03
664.023	49.17
664.211	48.53
664.399	48.91
664.587	48.56
664.775	48.76
664.963	48.82
665.152	49.18
665.34	48.19
665.528	46.49
665.716	46.23
665.904	48.62
666.092	48.87
666.28	48.64
666.468	48.72
666.656	48.11
666.844	48.09
667.032	47.57
667.22	46.54
667.408	45.89
667.596	46.67
667.784	45.73
667.971	44.68
668.159	44.96
668.347	44.48
668.535	44.39
668.723	44.78
668.911	44.03
669.098	43.86
669.286	43.87
669.474	45.37
669.662	45.02
669.849	45.95
670.037	45.43
670.225	46.18
670.413	48.15
670.6	47.81
670.788	47.64
670.976	48.09
671.163	49.45
671.351	50.04
671.538	50.35
671.726	51.07
671.913	50.62
672.101	50.45
672.289	49.53
672.476	48.62
672.664	48.79
672.851	49.69
673.039	48.8
673.226	48.72
673.413	48.29
673.601	47.61
673.788	48.1
673.976	47.59
674.163	48.26
674.35	49.72
674.538	50.15
674.725	49.02
674.912	49.13
675.1	50.14
675.287	49.26
675.474	49.34
675.662	49.11
675.849	48.31
676.036	48.43
676.223	47.76
676.411	47.45
676.598	46.07
676.785	47.24
676.972	46.19
677.159	45.59
677.346	45.79
677.533	45.63
677.721	45.65
677.908	46.57
678.095	47.47
678.282	46.54
678.469	45.59
678.656	45.55
678.843	44.61
679.03	43.54
679.217	44.1
679.404	43.85
679.591	44.15
679.778	43.95
679.964	43.66
680.151	42.97
680.338	44.22
680.525	43.23
680.712	45.19
680.899	45.51
681.086	47.13
681.272	46.65
681.459	46.67
681.646	47.34
681.833	46.53
682.02	46.47
682.206	47.27
682.393	46.08
682.58	47.66
682.766	46.46
682.953	47.36
683.14	46.98
683.326	47.91
683.513	49.22
683.7	48.61
683.886	48.56
684.073	47.92
684.259	45.8
684.446	46.24
684.632	46.35
684.819	45.8
685.005	44.11
685.192	43.97
685.378	42.54
685.565	41.43
685.751	42.2
685.938	41.67
686.124	41.26
686.31	43.24
686.497	43.8
686.683	42.53
686.87	42.77
687.056	42.43
687.242	42.37
687.429	42.35
687.615	42.39
687.801	42.37
687.987	44.26
688.174	45.63
688.36	45.67
688.546	45.81
688.732	47.06
688.918	46.4
689.105	48.19
689.291	47.72
689.477	47.31
689.663	48.21
689.849	47.42
690.035	45.62
690.221	44
690.407	44.07
690.593	43.95
690.779	44.21
690.965	44.91
691.151	43.7
691.337	44.29
691.523	44.12
691.709	42.42
691.895	43.08
692.081	44.06
692.267	44.18
692.453	45.19
692.639	45.51
692.825	45.52
693.011	47.02
693.196	48.84
693.382	48.43
693.568	50.1
693.754	51.83
693.94	50.85
694.125	51.2
694.311	52.5
694.497	51.47
694.682	51.15
694.868	49.93
695.054	50.82
695.239	49.51
695.425	48.79
695.611	47.53
695.796	46.35
695.982	46.64
696.168	45.3
696.353	44.19
696.539	43.44
696.724	42.38
696.91	41.72
697.095	39.53
697.281	38.37
697.466	38.93
697.652	39.24
697.837	38.81
698.023	38.05
698.208	38.29
698.393	38.95
698.579	38.86
698.764	39.89
698.949	40.03
699.135	39.71
699.32	41.85
699.505	41.31
699.691	41.85
699.876	43.04
700.061	41.55
700.246	43.33
700.432	44.55
700.617	46.99
700.802	47.27
700.987	48.58
701.172	51.5
701.358	51.17
701.543	53.11
701.728	53.23
701.913	53.81
702.098	58.23
702.283	58.16
702.468	57.19
702.653	58.6
702.838	56.48
703.023	57.15
703.208	55.78
703.393	55.56
703.578	54
703.763	54.48
703.948	53.81
704.133	53.21
704.318	53.15
704.503	52.52
704.688	49.61
704.873	50.86
705.057	50.16
705.242	49.3
705.427	50.29
705.612	50.36
705.797	50.42
705.981	51.82
706.166	53.44
706.351	53.11
706.536	54.27
706.72	55.04
706.905	55.48
707.09	55.02
707.274	55.23
707.459	55.27
707.644	56.14
707.828	55.77
708.013	56.23
708.197	55.11
708.382	55.98
708.567	56.68
708.751	54.86
708.936	54.36
709.12	56.64
709.305	58.12
709.489	56.23
709.673	57.5
709.858	56.43
710.042	55.12
710.227	54.31
710.411	53.44
710.596	53.2
710.78	53.9
710.964	54.22
711.149	52.4
711.333	51.54
711.517	53.65
711.702	52.46
711.886	53.66
712.07	55.76
712.254	56.53
712.438	56.52
712.623	55.69
712.807	58.3
712.991	58.31
713.175	58.71
713.359	58.68
713.544	56.83
713.728	56.68
713.912	57.84
714.096	55.32
714.28	54.58
714.464	52.3
714.648	52.32
714.832	50.15
715.016	47.85
715.2	47.42
715.384	45.37
715.568	47.6
715.752	46.59
715.936	42.97
716.12	41.13
716.304	39.77
716.488	41.72
716.671	40.44
716.855	38.07
717.039	39.51
717.223	37.91
717.407	38.17
717.59	35.32
717.774	34.16
717.958	34.9
718.142	37.58
718.325	37.4
718.509	35.27
718.693	35.93
718.877	40.5
719.06	43.2
719.244	44.21
719.428	47.97
719.611	48.92
719.795	54.54
719.978	55.19
720.162	54.2
720.345	56.39
720.529	57.75
720.713	59.16
720.896	53.35
721.08	55.04
721.263	52.37
721.446	48.88
721.63	48.85
721.813	42.63
721.997	43.76
722.18	45.33
722.364	42.98
722.547	43.75
722.73	40.87
722.914	44.05
723.097	40.55
723.28	40.64
723.464	41.74
723.647	42.99
723.83	42.67
724.013	44.87
724.197	42.27
724.38	42.5
724.563	41.58
724.746	46.09
724.929	44.55
725.112	45.68
725.296	47.66
725.479	48.24
725.662	45.65
725.845	47.67
726.028	43.9
726.211	42.23
726.394	44.21
726.577	43.7
726.76	41.24
726.943	41.13
727.126	39.15
727.309	39.66
727.492	38.99
727.675	42.53
727.858	43.05
728.041	45
728.224	47.44
728.407	48.35
728.589	49.37
728.772	50.53
728.955	51.86
729.138	54.46
729.321	54.93
729.503	55.22
729.686	54.81
729.869	54.26
730.052	56.13
730.234	56.93
730.417	54.58
730.6	54.24
730.782	54.16
730.965	53.97
731.148	52.41
731.33	52.12
731.513	55.09
731.695	53.77
731.878	56.47
732.061	56.89
732.243	57.71
732.426	59.48
732.608	60.57
732.791	59.87
732.973	61.48
733.156	63.1
733.338	64.18
733.52	60.86
733.703	60.32
733.885	59.75
734.068	58.96
734.25	61.6
734.432	65.43
734.615	67.79
734.797	73.12
734.979	72.03
735.162	73.38
735.344	74.73
735.526	76.12
735.708	77.51
735.891	79.69
736.073	77.09
736.255	72.47
736.437	73.21
736.619	71.36
736.802	68.43
736.984	68.62
737.166	68.15
737.348	68.56
737.53	68.68
737.712	70.83
737.894	68.99
738.076	72.09
738.258	75.71
738.44	72.5
738.622	74.11
738.804	71.77
738.986	72.24
739.168	72
739.35	70.89
739.532	70.21
739.714	69.59
739.896	69.55
740.078	67.31
740.259	66.95
740.441	69.82
740.623	70.03
740.805	69.26
740.987	71.75
741.168	72.71
741.35	76.16
741.532	77.47
741.714	78.57
741.895	77.67
742.077	84.08
742.259	84.25
742.44	86.17
742.622	85.19
742.804	91.88
742.985	92.41
743.167	90.43
743.348	88.98
743.53	88.24
743.711	90.93
743.893	92.2
744.075	90.39
744.256	86.79
744.438	82.38
744.619	81.9
744.8	80.57
744.982	79.79
745.163	79.44
745.345	82.19
745.526	86.41
745.707	83.63
745.889	82.7
746.07	79.18
746.252	81.85
746.433	84.08
746.614	86.88
746.795	85.09
746.977	82.54
747.158	81.68
747.339	76.47
747.52	73.99
747.702	77.2
747.883	76.63
748.064	79.12
748.245	81.32
748.426	76.33
748.607	75.06
748.788	78.87
748.97	80.71
749.151	83.87
749.332	89.12
749.513	89.12
749.694	87.46
749.875	87.89
750.056	91.67
750.237	89.64
750.418	94.6
750.599	96.05
750.78	92.59
750.96	92.21
751.141	92.05
751.322	89.03
751.503	88.78
751.684	83.6
751.865	84.83
752.046	82
752.226	79.28
752.407	80.31
752.588	75.71
752.769	75.31
752.949	73.91
753.13	76.18
753.311	71.65
753.492	71.35
753.672	77.48
753.853	76.3
754.034	77.33
754.214	79.6
754.395	82.88
754.575	84.2
754.756	83.72
754.937	87.78
755.117	87.23
755.298	91.11
755.478	91.88
755.659	89.93
755.839	89.22
756.02	86.77
756.2	83.05
756.381	79.35
756.561	81.37
756.741	80.94
756.922	75.59
757.102	72.19
757.283	70.99
757.463	69.85
757.643	67.51
757.823	64.9
758.004	64.89
758.184	67.48
758.364	66.3
758.545	61.88
758.725	56.5
758.905	53.78
759.085	50.4
759.265	49.2
759.446	45.87
759.626	44.3
759.806	41.58
759.986	37.65
760.166	36.02
760.346	37.27
760.526	39.47
760.706	42.18
760.886	42.87
761.066	41.8
761.246	40.31
761.426	40.5
761.606	38.72
761.786	37.91
761.966	37.39
762.146	34.58
762.326	32.22
762.506	29.13
762.686	27.48
762.866	29.5
763.046	30.41
763.225	30.65
763.405	32.74
763.585	36.39
763.765	39.01
763.945	43.45
764.124	49.34
764.304	53.12
764.484	58.57
764.664	65.75
764.843	66.93
765.023	71.7
765.203	75.73
765.382	78.62
765.562	78.15
765.741	82.8
765.921	83.21
766.101	83.1
766.28	90.35
766.46	87.72
766.639	85.58
766.819	83.82
766.998	88.74
767.178	90.14
767.357	91.06
767.537	91.77
767.716	91.17
767.896	89.7
768.075	95.94
768.254	91.5
768.434	97.12
768.613	97.58
768.792	105.06
768.972	103.85
769.151	107.29
769.33	105.28
769.51	103.45
769.689	107.42
769.868	108.18
770.047	102.03
770.226	105.02
770.406	105.16
770.585	107.09
770.764	100.65
770.943	97.22
771.122	96.59
771.301	105.49
771.48	108.3
771.66	106.58
771.839	107.96
772.018	112.49
772.197	106.49
772.376	100.88
772.555	101.63
772.734	104.03
772.913	112.06
773.092	113.7
773.271	113.17
773.449	124.01
773.628	123.28
773.807	126.45
773.986	127.46
774.165	137.38
774.344	138.24
774.523	137.44
774.701	133.06
774.88	122.56
775.059	120.52
775.238	110.45
775.417	104.19
775.595	103.89
775.774	94.98
775.953	93.19
776.131	89.93
776.31	92.26
776.489	97.47
776.667	102.36
776.846	104.13
777.025	107.29
777.203	106.64
777.382	104.76
777.56	115.17
777.739	130.21
777.917	126.92
778.096	127.64
778.274	125.41
778.453	121.08
778.631	112.39
778.81	118.41
778.988	113.44
779.166	123.02
779.345	114.58
779.523	103.21
779.702	96.48
779.88	93.48
780.058	96.36
780.237	99.03
780.415	102.49
780.593	104
780.771	101.36
780.95	97.05
781.128	96.99
781.306	109.04
781.484	107.97
781.662	115.09
781.841	117.34
782.019	110.36
782.197	110.94
782.375	104.59
782.553	110.75
782.731	112.95
782.909	126.73
783.087	119.08
783.265	105.84
783.443	114.2
783.621	107.2
783.799	112.54
783.977	113.45
784.155	110.74
784.333	106.2
784.511	92.85
784.689	95.94
784.867	95.91
785.045	100.09
785.223	103.33
785.4	94.59
785.578	99.77
785.756	106.08
785.934	101.83
786.112	103.11
786.289	108.55
786.467	114.46
786.645	107.57
786.823	103.69
787	103.11
787.178	101.33
787.356	101.65
787.533	96.25
787.711	90.51
787.889	95.41
788.066	94.5
788.244	88.1
788.421	88.54
788.599	91.23
788.776	90.04
788.954	89.7
789.131	90.45
789.309	95.27
789.486	92.79
789.664	96.98
789.841	97.38
790.019	102.42
790.196	115.4
790.373	112.35
790.551	117.55
790.728	120.47
790.906	119.29
791.083	139.7
791.26	124.35
791.437	137.55
791.615	134.53
791.792	129.59
791.969	120.94
792.146	113.66
792.324	126.52
792.501	122.19
792.678	123.72
792.855	125.83
793.032	107.6
793.209	112.24
793.387	101.01
793.564	102.07
793.741	96.53
793.918	101.22
794.095	102.6
794.272	99.17
794.449	91.68
794.626	93.63
794.803	92.4
794.98	93.36
795.157	92.16
795.334	97.71
795.511	90.23
795.688	96.79
795.864	93.38
796.041	104.37
796.218	92.99
796.395	93.59
796.572	82.18
796.749	75.28
796.925	82.27
797.102	82.35
797.279	78.84
797.456	76.19
797.632	68.67
797.809	64.81
797.986	58.39
798.162	63.51
798.339	64.85
798.516	66.68
798.692	71.32
798.869	62.9
799.046	64.97
799.222	71.98
799.399	78.7
799.575	85.97
799.752	94.5
799.928	95.19
800.105	99.66
800.281	102.75
800.458	113.82
800.634	121.43
800.811	118.66
800.987	113.2
801.163	104.66
801.34	112.45
801.516	97.93
801.692	81.07
801.869	82.14
802.045	77.91
802.221	74.65
802.398	67.11
802.574	58.8
802.75	60.89
802.926	63.28
803.103	62.64
803.279	69.91
803.455	76.66
803.631	80.74
803.807	78.15
803.983	73.72
804.16	81.52
804.336	84.34
804.512	86.86
804.688	94.73
804.864	93.49
805.04	97.18
805.216	74.15
805.392	69.47
805.568	71.31
805.744	67.48
805.92	71.55
806.096	74.82
806.272	78.54
806.448	85.32
806.623	76.69
806.799	77.82
806.975	80.17
807.151	77.4
807.327	85.11
807.503	85.69
807.678	91.87
807.854	80.17
808.03	86.89
808.206	76.81
808.381	84.9
808.557	96.93
808.733	102.41
808.908	101.8
809.084	115.93
809.26	114.9
809.435	117.2
809.611	106.14
809.787	129.77
809.962	98.17
810.138	93.31
810.313	66.59
810.489	68.87
810.664	73.1
810.84	84.49
811.015	79.42
811.191	78.93
811.366	89.87
811.542	101.83
811.717	93.82
811.892	97.98
812.068	117.43
812.243	143.06
812.419	156.75
812.594	128.51
812.769	93.6
812.944	81.71
813.12	74.38
813.295	73.42
813.47	59.88
813.645	64.34
813.821	78.32
813.996	87.89
814.171	92.98
814.346	99.9
814.521	99.72
814.697	106.49
814.872	105.13
815.047	125.21
815.222	125.99
815.397	144.56
815.572	125.29
815.747	110.33
815.922	102.82
816.097	90.18
816.272	74.85
816.447	61.42
816.622	54.98
816.797	60.96
816.972	53.91
817.147	58.71
817.322	58.6
817.496	59.96
817.671	63.11
817.846	53.17
818.021	57.29
818.196	52.07
818.371	57.21
818.545	60.85
818.72	60.47
818.895	55.48
819.069	43.44
819.244	34.17
819.419	31.77
819.594	24.97
819.768	26.79
819.943	21.88
820.117	24.31
820.292	24.32
820.467	25.81
820.641	24.23
820.816	24.77
820.99	23.78
821.165	24.58
821.339	23.95
821.514	26.37
821.688	25.75
821.863	26.48
822.037	27.33
822.212	28.97
822.386	29.45
822.56	31.52
822.735	31.35
822.909	34.66
823.084	36.61
823.258	39.62
823.432	40.09
823.606	42.54
823.781	44.08
823.955	43.79
824.129	43.77
824.303	40.19
824.478	39.1
824.652	41.28
824.826	38.03
825	36.62
825.174	36.74
825.348	37
825.523	36.55
825.697	36.38
825.871	34.88
826.045	35.67
826.219	35.66
826.393	35.67
826.567	34.44
826.741	35.24
826.915	34.39
827.089	35.56
827.263	33.07
827.437	28.84
827.611	30.06
827.784	32.71
827.958	24.79
828.132	23.05
828.306	19.53
828.48	17.64
828.654	34.78
828.827	36.51
829.001	39.48
829.175	52.74
829.349	57.57
829.522	63.11
829.696	61.3
829.87	74.48
830.044	80.48
830.217	81.55
830.391	84.58
830.565	55.34
830.738	58.46
830.912	47.52
831.085	41.8
831.259	44.89
831.432	38.83
831.606	44.25
831.779	40.57
831.953	55.09
832.126	55.05
832.3	53.74
832.473	53.69
832.647	51.63
832.82	49.6
832.994	42.56
833.167	40.63
833.34	35.32
833.514	32.05
833.687	34.62
833.86	30.89
834.034	31.27
834.207	32.86
834.38	38.64
834.553	44.24
834.727	51.37
834.9	61.69
835.073	72.8
835.246	82.21
835.419	83.84
835.593	84.77
835.766	102.38
835.939	132.57
836.112	140.5
836.285	157.8
836.458	121.46
836.631	105.73
836.804	89.85
836.977	74.26
837.15	72.44
837.323	73.1
837.496	100.78
837.669	116.8
837.842	86.49
838.015	82.15
838.188	64.91
838.361	74.43
838.533	76.65
838.706	81.07
838.879	86.93
839.052	101.37
839.225	90.21
839.398	85.22
839.57	71.06
839.743	76.03
839.916	86.87
840.088	90.21
840.261	77.67
840.434	65.27
840.607	62.31
840.779	63.31
840.952	59.51
841.124	71.92
841.297	74.97
841.47	80.35
841.642	93.96
841.815	58.66
841.987	47.05
842.16	105.52
842.332	100
842.505	81.64
842.677	46.01
842.85	41.6
843.022	48.52
843.194	49.65
843.367	50.17
843.539	21.86
843.712	68.24
843.884	68.59
844.056	45.91
844.229	53.33
844.401	101.82
844.573	158.36
844.745	137.81
844.918	152.67
845.09	175
845.262	138.92
845.434	231.49
845.606	431.25
845.779	-1340.91
845.951	15925
846.123	-1926.47
846.295	1332.65
846.467	-1552.63
846.639	-3486.96
846.811	881.82
846.983	382.05
847.155	887.5
847.327	722.64
847.499	251.71
847.671	199.38
847.843	272.73
848.015	315.46
848.187	256.33
848.359	202.28
848.531	251.21
848.703	334.5
848.875	381.53
849.047	1400
849.218	3781.25
849.39	-687.65
849.562	13760
849.734	-2342.86
849.905	11485.71
850.077	-1075.68
850.249	-478.57
850.421	1231.75
850.592	754.47
850.764	398.39
850.936	311.04
851.107	361.04
851.279	284.13
851.451	244.33
851.622	343.02
851.794	205.65
851.965	230.67
852.137	254.04
852.308	3255.56
852.48	-174.07
852.651	-118.85
852.823	-150.79
852.994	-722.22
853.166	500
853.337	-311.11
853.509	125.13
853.68	4950
853.851	196.67
854.023	63.64
854.194	94.07
854.365	109.91
854.537	99.67
854.708	95.79
854.879	40.71
855.05	110.37
855.222	87.46
855.393	207.05
855.564	118.15
855.735	160.06
855.906	219.53
856.078	237.28
856.249	130.14
856.42	123.5
856.591	211.83
856.762	-2115.79
856.933	-1207.69
857.104	-470.67
857.275	8550
857.446	516.92
857.617	-6566.67
857.788	21300
857.959	250.29
858.13	748.98
858.301	172.67
858.472	170
858.643	140.58
858.814	158.96
858.985	153.52
859.155	174.48
859.326	315.84
859.497	104.72
859.668	19.05
859.839	44.64
860.009	97.62
860.18	156.5
860.351	142.95
860.522	115.86
860.692	128.75
860.863	150.43
861.034	95.91
861.204	99.73
861.375	111.63
861.546	87.28
861.716	58.84
861.887	82.53
862.057	314.71
862.228	426.19
862.398	-1.06
862.569	-178.43
862.739	27.27
862.91	406.52
863.08	4742.86
863.251	-2585.71
863.421	-772
863.592	-7625
863.762	-544.16
863.932	851.22
864.103	-520
864.273	97.89
864.443	32.14
864.614	28.16
864.784	-82.8
864.954	-35.38
865.125	-73.24
865.295	-64.29
865.465	-61.5
865.635	-36.67
865.805	-51
865.976	-21.66
866.146	3.8
866.316	15.28
866.486	36.05
866.656	55.43
866.826	60.58
866.996	78.75
867.166	65.98
867.336	58.47
867.506	59.8
867.676	77.11
867.846	81.24
868.016	67.06
868.186	103.71
868.356	275.9
868.526	-13.13
868.696	552.94
868.866	25.37
869.036	-629.63
869.206	235.14
869.376	-570.37
869.545	628
869.715	1204.76
869.885	-429.41
870.055	-247.01
870.224	198.71
870.394	349.01
870.564	529.46
870.734	609.82
870.903	306.02
871.073	535.92
871.243	491.94
871.412	432.57
871.582	908.7
871.751	-3286.36
871.921	-455.7
872.091	-105.37
872.26	-122.12
872.43	-126.46
872.599	-177.82
872.769	-136.11
872.938	-195.13
873.108	-98.15
873.277	-162.9
873.446	2915.38
873.616	-218.28
873.785	108.95
873.955	108.33
874.124	137.6
874.293	237.11
874.463	1151.35
874.632	-434.78
874.801	-307.27
874.971	-81.88
875.14	-70.38
875.309	-21.41
875.478	-189.01
875.647	-14.85
875.817	-6.77
875.986	0.79
876.155	9100
876.324	68.18
876.493	89.62
876.662	79.59
876.831	68.32
877	108.18
877.17	88.59
877.339	89.38
877.508	169.19
877.677	0
877.846	-629.17
878.015	-80
878.184	-266.95
878.352	-6366.67
878.521	770.59
878.69	235.98
878.859	179.03
879.028	162.64
879.197	140.7
879.366	86.23
879.534	74.45
879.703	77.23
879.872	73.25
880.041	43.39
880.21	45.39
880.378	39.58
880.547	31
880.716	31.88
880.884	25.69
881.053	27.08
881.222	25.12
881.39	23.96
881.559	25.19
881.727	18.96
881.896	16.5
882.065	8.17
882.233	0.27
882.402	1.55
882.57	-7.58
882.739	-11.6
882.907	-16.89
883.076	-7.48
883.244	-15.42
883.412	-20.19
883.581	-6.41
883.749	-3.96
883.918	-15.17
884.086	-14
884.254	-11.72
884.423	1.29
884.591	31.14
884.759	33.46
884.927	35.08
885.096	43.5
885.264	11.73
885.432	16.92
885.6	15.75
885.769	56.78
885.937	62.78
886.105	46.22
886.273	36.62
886.441	22.36
886.609	31.21
886.777	45.4
886.945	49.29
887.113	85.34
887.281	88.91
887.449	107.26
887.617	78.6
887.785	94.49
887.953	160
888.121	312.17
888.289	580
888.457	1259.62
888.625	510.71
888.793	-1276.32
888.961	1559.38
889.129	4441.67
889.296	893.75
889.464	1242.31
889.632	1044.62
889.8	523.15
889.967	237.26
890.135	175.42
