Data from JASIL_3263_Reflection_2.txt Node
Date: Mon Nov 16 20:55:31 EST 2015
User: Geneva
Spectrometer: USB4E03002
Autoset integration time: false
Trigger mode: 4
Integration Time (sec): 1.000000E-1
Scans to average: 10
Electric dark correction enabled: false
Nonlinearity correction enabled: false
Boxcar width: 5
Stray light correction enabled: false
XAxis mode: Wavelengths
Stop averaging: false
Number of Pixels in Spectrum: 3648
>>>>>Begin Spectral Data<<<<<
177.575	-523.08
177.794	-536.43
178.014	-622.89
178.233	-1045.79
178.452	-1472.29
178.672	-1069.7
178.891	-1463.21
179.11	4943.24
179.33	1750
179.549	-8704.55
179.768	1588.14
179.987	1890.32
180.207	1144.52
180.426	619.51
180.645	687.54
180.864	1286.36
181.084	555.53
181.303	512.27
181.522	928.64
181.741	2843.66
181.96	630.2
182.179	808.55
182.398	937.33
182.618	865.25
182.837	837.39
183.056	690.08
183.275	411.6
183.494	364.65
183.713	396.05
183.932	339.22
184.151	339.39
184.37	322.17
184.589	270.72
184.808	240.99
185.027	256.71
185.246	301.69
185.465	444.25
185.684	517.45
185.903	2236.78
186.122	835.87
186.341	980.34
186.56	498.42
186.779	917.1
186.998	1340
187.216	1419.69
187.435	1151.5
187.654	1105.41
187.873	565.65
188.092	453.97
188.311	390.21
188.53	618.56
188.748	623.29
188.967	1493.6
189.186	813.03
189.405	914.72
189.623	910.65
189.842	851.44
190.061	891.87
190.28	2255.13
190.498	-2383.75
190.717	1718.25
190.936	-3647.46
191.154	-1778.57
191.373	-39150
191.592	-21136.36
191.81	-1274.71
192.029	-1740.46
192.248	-542.25
192.466	-514.73
192.685	-591.62
192.904	-816.48
193.122	-606.13
193.341	-1288.11
193.559	-1239.09
193.778	-1325.45
193.996	-1606.87
194.215	57800
194.433	-5400
194.652	1139.41
194.87	978.35
195.089	856.77
195.307	1044.74
195.526	3159.32
195.744	1585.96
195.963	1042.31
196.181	23712.5
196.399	-1605.13
196.618	8875
196.836	30100
197.055	-1453.28
197.273	-3155.17
197.491	-2250
197.71	-3974.51
197.928	2601.25
198.146	5190.48
198.365	-21300
198.583	1079.22
198.801	1476.02
199.019	3335.06
199.238	-6088.1
199.456	2517.92
199.674	1156.78
199.892	843.41
200.111	1043.08
200.329	1024.15
200.547	767.61
200.765	676.7
200.983	730.12
201.202	555
201.42	885.04
201.638	569.1
201.856	679.26
202.074	1898.35
202.292	2336.36
202.51	1589.12
202.728	2278.35
202.946	-5260
203.165	7121.21
203.383	-2221.65
203.601	-2748.84
203.819	5038
204.037	23370
204.255	2370.1
204.473	1119.16
204.691	1536.67
204.909	1017.96
205.127	1169.77
205.345	1385.8
205.562	1152.48
205.78	740.94
205.998	814.69
206.216	689.29
206.434	697.3
206.652	648.48
206.87	454.96
207.088	370.57
207.306	446.87
207.523	404.38
207.741	332.61
207.959	354.47
208.177	416.18
208.395	320.42
208.612	359.14
208.83	338.06
209.048	361.86
209.266	470.86
209.483	496.24
209.701	397.54
209.919	451.98
210.136	440.56
210.354	1012
210.572	933.48
210.79	1560.74
211.007	939.74
211.225	1473.64
211.442	-8014.29
211.66	-2120.83
211.878	-879.86
212.095	218.78
212.313	235.64
212.53	347.63
212.748	194.13
212.966	178.17
213.183	175.78
213.401	166.59
213.618	156.37
213.836	193.91
214.053	206.4
214.271	220.63
214.488	1656.3
214.705	880.73
214.923	600.65
215.14	639.5
215.358	539.38
215.575	784.91
215.793	831.05
216.01	1215.34
216.227	444.89
216.445	342.9
216.662	393.74
216.879	396.92
217.097	349.27
217.314	393.81
217.531	511.03
217.749	576.67
217.966	734.67
218.183	566.67
218.4	650.49
218.618	780.71
218.835	755.37
219.052	502.93
219.269	404.43
219.487	619.44
219.704	440.6
219.921	328.88
220.138	248.11
220.355	244.76
220.572	293.57
220.79	311.35
221.007	365.6
221.224	539.51
221.441	476.52
221.658	654.03
221.875	419.02
222.092	437.92
222.309	660.14
222.526	749.6
222.743	637.41
222.96	828.3
223.177	382.38
223.394	404.44
223.611	290.18
223.828	350.76
224.045	336.7
224.262	374.63
224.479	261.32
224.696	179.12
224.913	214.97
225.13	172.39
225.347	142.83
225.564	137.85
225.781	110.56
225.997	106.55
226.214	94.58
226.431	83.77
226.648	72.44
226.865	68.92
227.082	72.76
227.298	56.56
227.515	52.13
227.732	47.42
227.949	43.47
228.165	46.39
228.382	43.13
228.599	37.11
228.816	35.21
229.032	39.84
229.249	36.34
229.466	36.05
229.682	42.7
229.899	46.71
230.116	47.85
230.332	51.01
230.549	52.26
230.765	52.98
230.982	56.28
231.199	61.26
231.415	65.54
231.632	71.73
231.848	76.25
232.065	75.84
232.281	70.9
232.498	75.48
232.714	84.92
232.931	80.4
233.147	80.22
233.364	84.95
233.58	80.81
233.797	81.77
234.013	81.04
234.23	76.72
234.446	78.12
234.662	78.83
234.879	83.03
235.095	74.48
235.312	79.05
235.528	80.67
235.744	77.6
235.961	82.17
236.177	77.04
236.393	83.46
236.61	94.43
236.826	94.14
237.042	96.27
237.258	91.72
237.475	91.07
237.691	94.99
237.907	92.45
238.123	93.46
238.339	81.1
238.556	80.02
238.772	71.77
238.988	61.18
239.204	60.01
239.42	57.31
239.636	54.3
239.853	52.9
240.069	47.84
240.285	46.05
240.501	43.81
240.717	40.52
240.933	35.47
241.149	33.68
241.365	32.46
241.581	30.28
241.797	30.17
242.013	30.37
242.229	30.08
242.445	29.86
242.661	30.65
242.877	31.91
243.093	33.72
243.309	38.58
243.525	39.21
243.741	41.28
243.957	43.25
244.173	43.22
244.388	43.34
244.604	43.39
244.82	41.44
245.036	39.29
245.252	34.41
245.468	32.31
245.683	28.75
245.899	27.29
246.115	25.16
246.331	23.22
246.547	21.2
246.762	19.86
246.978	19.46
247.194	19.12
247.409	18.5
247.625	19.97
247.841	19.55
248.057	19.19
248.272	18.58
248.488	21.51
248.703	24.27
248.919	26.33
249.135	27.32
249.35	27.96
249.566	30.05
249.782	30.36
249.997	30.3
250.213	31.86
250.428	31.79
250.644	35.38
250.859	31.03
251.075	29
251.29	30.96
251.506	32.37
251.721	34.04
251.937	34.02
252.152	34.28
252.368	35.84
252.583	35.61
252.798	39.96
253.014	40.12
253.229	43.44
253.445	46.02
253.66	47.55
253.875	47.84
254.091	52.08
254.306	53.64
254.521	56.68
254.737	51.8
254.952	54.43
255.167	48.26
255.383	48.92
255.598	46.24
255.813	42.29
256.028	40.18
256.244	40.58
256.459	35.23
256.674	32.98
256.889	32.07
257.104	32.32
257.32	28.86
257.535	27.48
257.75	24.31
257.965	22.37
258.18	21.8
258.395	21.13
258.61	19.6
258.826	19.3
259.041	18.56
259.256	17.87
259.471	18.24
259.686	17.91
259.901	17.66
260.116	18.13
260.331	18.73
260.546	18.83
260.761	18.93
260.976	19.41
261.191	20.44
261.406	21.15
261.621	22.23
261.836	22.62
262.05	24.88
262.265	26.99
262.48	27.29
262.695	28.39
262.91	28.29
263.125	28.1
263.34	30.96
263.555	30.98
263.769	32.32
263.984	31.59
264.199	32.16
264.414	31.15
264.629	30.26
264.843	28.78
265.058	29.96
265.273	29.38
265.488	30.06
265.702	28.11
265.917	28.43
266.132	26.94
266.346	27.64
266.561	27.62
266.776	28.93
266.99	28.59
267.205	29.84
267.42	26.56
267.634	26.99
267.849	26.14
268.063	26.75
268.278	25.68
268.492	26.37
268.707	25.77
268.922	24.22
269.136	22.83
269.351	22.16
269.565	20.34
269.78	20.57
269.994	20.21
270.209	20.29
270.423	19.14
270.637	18.33
270.852	17.78
271.066	18.33
271.281	19.84
271.495	18.69
271.709	20.3
271.924	21.61
272.138	21.94
272.353	21.68
272.567	20.43
272.781	20.66
272.996	20.8
273.21	20.17
273.424	20.2
273.638	19.7
273.853	21.78
274.067	20.91
274.281	21.36
274.495	22.36
274.71	22.65
274.924	23.22
275.138	23.15
275.352	23
275.566	23.88
275.781	22.52
275.995	21.55
276.209	20.19
276.423	21.17
276.637	20.8
276.851	21.02
277.065	22.85
277.279	23.06
277.493	22.99
277.707	23.88
277.921	24.89
278.135	24.65
278.349	26.47
278.563	26.35
278.777	25.2
278.991	24.72
279.205	24.98
279.419	22.81
279.633	24.16
279.847	23.6
280.061	22.59
280.275	21.27
280.489	23.76
280.703	21.24
280.917	20.88
281.131	21.05
281.344	21.63
281.558	20.7
281.772	20.91
281.986	19.76
282.2	20.39
282.414	18.87
282.627	19.65
282.841	17.74
283.055	19.13
283.269	19.66
283.482	19.02
283.696	17.99
283.91	17.88
284.123	17.85
284.337	17.68
284.551	16.68
284.764	17.74
284.978	16.48
285.192	16.89
285.405	16.55
285.619	15.54
285.833	15.38
286.046	15.71
286.26	15.39
286.473	14.98
286.687	15.19
286.9	15.76
287.114	16.92
287.327	17.94
287.541	17.77
287.754	17.2
287.968	18.27
288.181	18.72
288.395	17.91
288.608	20.09
288.822	21.09
289.035	21.37
289.248	21.19
289.462	19.42
289.675	19.61
289.889	19.4
290.102	18.51
290.315	19.67
290.529	19.86
290.742	19.49
290.955	18.5
291.169	18.64
291.382	18.33
291.595	19.59
291.808	20.02
292.022	19.65
292.235	20.13
292.448	21.95
292.661	20.32
292.875	21.88
293.088	22.67
293.301	22.13
293.514	20.17
293.727	19.93
293.94	18.67
294.153	20.09
294.367	19.88
294.58	18.14
294.793	18.09
295.006	17.76
295.219	16.73
295.432	17.31
295.645	16.71
295.858	16.99
296.071	17.18
296.284	16.93
296.497	16
296.71	16.2
296.923	17.38
297.136	16.05
297.349	15.62
297.562	15.64
297.775	15.96
297.988	15.88
298.201	17.02
298.414	16.46
298.626	16.88
298.839	16.57
299.052	15.76
299.265	16.03
299.478	17.49
299.691	18.85
299.903	18.64
300.116	18.16
300.329	17.98
300.542	16.95
300.755	16.97
300.967	16.09
301.18	16.7
301.393	17.66
301.605	16.83
301.818	16.41
302.031	16.18
302.243	15.04
302.456	15.47
302.669	17.3
302.881	18.11
303.094	18.59
303.307	19.84
303.519	19.87
303.732	19.62
303.944	19.72
304.157	20.01
304.37	21.25
304.582	22.7
304.795	21.26
305.007	19.21
305.22	18.63
305.432	19.02
305.645	19.66
305.857	20.26
306.069	21.17
306.282	21.47
306.494	21.12
306.707	19.47
306.919	18.43
307.132	18.79
307.344	20.18
307.556	19.78
307.769	19.92
307.981	18.57
308.193	18.06
308.406	16.94
308.618	17.08
308.83	17.87
309.043	18.07
309.255	19.28
309.467	19.66
309.679	19.4
309.892	19.08
310.104	18.34
310.316	17.57
310.528	16.79
310.74	15.84
310.953	15.48
311.165	15.62
311.377	15.15
311.589	14.4
311.801	14.19
312.013	13.86
312.225	15.91
312.437	15.27
312.649	16.04
312.862	18
313.074	18.58
313.286	20.85
313.498	20.6
313.71	20.87
313.922	21.84
314.134	21.91
314.346	21.73
314.558	19.49
314.77	21.1
314.982	22.22
315.193	20.63
315.405	22.11
315.617	19.65
315.829	21.05
316.041	21.56
316.253	21.17
316.465	21.5
316.677	22.54
316.888	23.53
317.1	23.41
317.312	22.7
317.524	22.15
317.736	21.17
317.947	22.72
318.159	21.9
318.371	20.73
318.583	19.59
318.794	20.69
319.006	19.56
319.218	17.88
319.43	17.3
319.641	17.13
319.853	18.61
320.064	19.71
320.276	18.36
320.488	17.55
320.699	19.03
320.911	20.95
321.123	19.81
321.334	20.34
321.546	23.47
321.757	22.91
321.969	23.39
322.18	23.39
322.392	22.26
322.603	22.58
322.815	22.33
323.026	21.54
323.238	21.12
323.449	20.07
323.661	20.49
323.872	19.15
324.083	19.08
324.295	18.46
324.506	17.9
324.718	17.53
324.929	17.82
325.14	17.57
325.352	17.45
325.563	17.89
325.774	18.14
325.986	17.68
326.197	17.71
326.408	17.94
326.62	18.12
326.831	17.61
327.042	18.12
327.253	18.08
327.464	19.34
327.676	18.88
327.887	17.88
328.098	18.11
328.309	19.63
328.52	20.23
328.732	20.65
328.943	20.94
329.154	21.11
329.365	20.37
329.576	20.45
329.787	18.66
329.998	20.49
330.209	20.24
330.42	20.88
330.631	20.02
330.842	18.4
331.053	19.03
331.264	18.98
331.475	18.81
331.686	20.81
331.897	20.13
332.108	21.87
332.319	20.4
332.53	19.62
332.741	18.9
332.952	18.27
333.163	18.98
333.374	18.09
333.585	17.6
333.795	18.81
334.006	17.58
334.217	16.66
334.428	14.21
334.639	14.03
334.849	13.66
335.06	14.19
335.271	15.23
335.482	16.44
335.692	17.03
335.903	17.15
336.114	17.75
336.325	17.17
336.535	18.06
336.746	19.84
336.957	20.94
337.167	21.06
337.378	21.66
337.589	19.83
337.799	19.16
338.01	18.8
338.22	18.71
338.431	18.18
338.642	18.03
338.852	18.06
339.063	16.85
339.273	16.03
339.484	17.56
339.694	17.24
339.905	17.75
340.115	17.48
340.326	18.24
340.536	18.79
340.746	18.73
340.957	18.2
341.167	17.88
341.378	19.32
341.588	18.76
341.799	18.31
342.009	17.51
342.219	18.38
342.43	18.03
342.64	16.79
342.85	16.16
343.061	15.23
343.271	15.69
343.481	15.97
343.691	14.3
343.902	15.1
344.112	14.96
344.322	14.89
344.532	14.58
344.743	15.64
344.953	16.16
345.163	16.81
345.373	16.62
345.583	17.92
345.793	17.76
346.004	18.42
346.214	18.67
346.424	19.08
346.634	18.61
346.844	18.86
347.054	18.47
347.264	18.36
347.474	18.53
347.684	18.36
347.894	17.43
348.104	17.63
348.314	17.54
348.524	16.11
348.734	15.08
348.944	16.18
349.154	15.88
349.364	14.94
349.574	14.23
349.784	13.54
349.994	13.94
350.204	14.06
350.413	13.79
350.623	13.03
350.833	13.41
351.043	13.4
351.253	12.51
351.463	12.47
351.672	12.78
351.882	13.42
352.092	13.3
352.302	14.12
352.511	14.17
352.721	14.3
352.931	14.85
353.141	15.46
353.35	15.46
353.56	15.4
353.77	15.42
353.979	16.65
354.189	16.68
354.399	17.29
354.608	17.37
354.818	17.02
355.027	16.96
355.237	16.75
355.447	16.07
355.656	16.43
355.866	16.87
356.075	16.22
356.285	14.23
356.494	13.42
356.704	12.83
356.913	12.37
357.123	13
357.332	11.87
357.542	11.69
357.751	11.76
357.96	12.13
358.17	11.49
358.379	11.93
358.589	12.16
358.798	12.52
359.007	11.88
359.217	10.18
359.426	9.77
359.635	10.54
359.845	10.41
360.054	10.53
360.263	10.4
360.472	9.86
360.682	9.32
360.891	9.51
361.1	9.44
361.309	9.5
361.519	10.98
361.728	10.59
361.937	10.52
362.146	10.93
362.355	11.12
362.564	10.9
362.774	11.93
362.983	12.1
363.192	12.62
363.401	12.54
363.61	12.53
363.819	12.4
364.028	12.62
364.237	12.8
364.446	12.97
364.655	12.78
364.864	13.13
365.073	13.32
365.282	13.62
365.491	13.47
365.7	13.89
365.909	14.68
366.118	14.03
366.327	14.3
366.536	15.21
366.745	14.69
366.954	15.37
367.162	15.72
367.371	15.17
367.58	15.14
367.789	15.05
367.998	15.36
368.207	15.38
368.415	16.35
368.624	16.36
368.833	15.56
369.042	15.77
369.25	15.74
369.459	14.95
369.668	14.68
369.877	14.34
370.085	13.66
370.294	13.04
370.503	12.39
370.711	11.26
370.92	10.25
371.129	11.02
371.337	10.41
371.546	9.32
371.754	9.55
371.963	10.08
372.171	10.52
372.38	11.2
372.589	11.51
372.797	11.63
373.006	12.21
373.214	12.92
373.423	11.64
373.631	12.71
373.84	12.48
374.048	11.42
374.256	11.05
374.465	11.55
374.673	10.95
374.882	10.23
375.09	10.02
375.298	10.67
375.507	9.95
375.715	10.22
375.923	9.06
376.132	8.7
376.34	9.46
376.548	9.83
376.757	8.98
376.965	9.62
377.173	10.01
377.381	10.61
377.59	10.19
377.798	10.59
378.006	10.45
378.214	11.64
378.423	12.69
378.631	12.43
378.839	11.6
379.047	11.66
379.255	11.47
379.463	11.15
379.671	10.96
379.879	9.95
380.088	10.54
380.296	10.58
380.504	11.04
380.712	10.93
380.92	10.48
381.128	10.97
381.336	11.15
381.544	11
381.752	10.92
381.96	10.38
382.168	10.78
382.376	10
382.584	9.85
382.791	8.59
382.999	8.76
383.207	9.03
383.415	9.42
383.623	8.99
383.831	8.69
384.039	8.97
384.247	9.97
384.454	10.97
384.662	11.22
384.87	10.99
385.078	10.93
385.285	10.58
385.493	10.57
385.701	10.23
385.909	10.43
386.116	11.26
386.324	11.17
386.532	10.59
386.739	10.01
386.947	9.83
387.155	10.97
387.362	11.44
387.57	11.64
387.778	11.81
387.985	11.89
388.193	11.72
388.4	11.13
388.608	11.52
388.816	11.17
389.023	11.18
389.231	11.44
389.438	10.79
389.646	10.48
389.853	10.28
390.061	9.9
390.268	9.09
390.475	8.72
390.683	8.27
390.89	7.72
391.098	7.7
391.305	7.83
391.512	7.32
391.72	6.48
391.927	6.3
392.135	6.91
392.342	7.22
392.549	7.55
392.756	8.18
392.964	8.58
393.171	8.96
393.378	9.02
393.586	8.1
393.793	7.87
394	8.89
394.207	9.12
394.414	8.69
394.622	8.86
394.829	9.42
395.036	9.38
395.243	9.39
395.45	9.77
395.657	10.38
395.864	11.24
396.072	12.25
396.279	11.66
396.486	11.55
396.693	12.04
396.9	12.05
397.107	11.6
397.314	11.61
397.521	11.76
397.728	11.07
397.935	10.6
398.142	9.8
398.349	9.16
398.556	9.21
398.763	9.08
398.97	8.31
399.177	8.13
399.383	8.2
399.59	8.24
399.797	8.49
400.004	8.87
400.211	8.93
400.418	10.12
400.625	10.77
400.831	10.37
401.038	10.11
401.245	9.95
401.452	10.05
401.658	10.04
401.865	9.81
402.072	8.76
402.279	8.03
402.485	7.8
402.692	7.34
402.899	6.9
403.105	7.06
403.312	7.67
403.519	7.82
403.725	7
403.932	7.03
404.138	6.72
404.345	7.52
404.552	8.03
404.758	8.15
404.965	7.62
405.171	7.97
405.378	8.26
405.584	8.07
405.791	7.97
405.997	8.71
406.204	8.68
406.41	9.15
406.617	8.03
406.823	8.01
407.029	8.01
407.236	8.72
407.442	8.46
407.649	8.43
407.855	8.46
408.061	8.78
408.268	9.02
408.474	9.52
408.68	9.05
408.887	9.88
409.093	9.76
409.299	9.58
409.505	9.45
409.712	9.46
409.918	9.41
410.124	9.15
410.33	8.81
410.537	8.39
410.743	7.8
410.949	7.84
411.155	7.21
411.361	7.32
411.567	7.77
411.773	7.13
411.98	6.81
412.186	6.7
412.392	6.82
412.598	6.26
412.804	6.67
413.01	6.53
413.216	7.15
413.422	7.88
413.628	7.72
413.834	6.99
414.04	7.86
414.246	8.28
414.452	8.69
414.658	8.72
414.864	9.11
415.07	9.18
415.275	9.58
415.481	9.29
415.687	9.19
415.893	8.7
416.099	9.25
416.305	8.76
416.511	8.2
416.716	7.55
416.922	7.18
417.128	6.76
417.334	6.42
417.539	5.75
417.745	5.7
417.951	5.19
418.157	4.89
418.362	4.45
418.568	4.26
418.774	3.99
418.979	4.28
419.185	4.24
419.391	4.64
419.596	4.42
419.802	4.5
420.008	4.13
420.213	6.62
420.419	6.91
420.624	7.04
420.83	6.91
421.035	7.09
421.241	6.74
421.446	6.94
421.652	6.8
421.857	6.61
422.063	6.54
422.268	6.87
422.474	4.7
422.679	4.59
422.885	4.48
423.09	4.5
423.295	4.49
423.501	4.54
423.706	4.25
423.911	4.22
424.117	4.2
424.322	4.12
424.527	3.83
424.733	3.72
424.938	3.84
425.143	3.67
425.349	3.57
425.554	3.99
425.759	4.24
425.964	4.22
426.169	4.46
426.375	4.75
426.58	4.7
426.785	4.78
426.99	5.17
427.195	5.26
427.4	5.16
427.605	5.66
427.811	5.12
428.016	5
428.221	5.48
428.426	5.23
428.631	5.7
428.836	6.16
429.041	6.24
429.246	6.45
429.451	6.6
429.656	6.99
429.861	6.74
430.066	6.92
430.271	7.47
430.476	7.01
430.681	7.08
430.886	6.83
431.09	6.52
431.295	6.83
431.5	6.47
431.705	6.17
431.91	5.96
432.115	5.99
432.32	6.16
432.524	5.8
432.729	5.95
432.934	5.69
433.139	5.42
433.343	5.7
433.548	5.19
433.753	5.07
433.958	5.42
434.162	5.43
434.367	5.52
434.572	5.53
434.776	5.31
434.981	5.3
435.186	5.09
435.39	5.35
435.595	5.64
435.799	5.78
436.004	5.64
436.209	5.11
436.413	5.11
436.618	5.21
436.822	4.98
437.027	4.28
437.231	3.83
437.436	4.34
437.64	4.15
437.845	3.69
438.049	3.84
438.253	3.7
438.458	3.95
438.662	3.93
438.867	3.67
439.071	3.66
439.275	4.25
439.48	4.49
439.684	4.31
439.888	3.99
440.093	4.23
440.297	4.02
440.501	4.2
440.706	4.18
440.91	4.14
441.114	4.16
441.318	4.64
441.523	4.67
441.727	5.05
441.931	5.14
442.135	5.13
442.339	5.03
442.543	5.24
442.748	5.57
442.952	5.68
443.156	5.92
443.36	5.69
443.564	5.29
443.768	5.02
443.972	5.07
444.176	4.63
444.38	4.69
444.584	4.48
444.788	4.25
444.992	3.98
445.196	3.62
445.4	3.53
445.604	3.79
445.808	3.65
446.012	3.81
446.216	3.61
446.42	3.81
446.624	4.19
446.828	3.98
447.032	3.99
447.235	4.01
447.439	4.12
447.643	4.1
447.847	4.26
448.051	4.46
448.254	4.51
448.458	4.3
448.662	4.17
448.866	4.1
449.069	4.47
449.273	4.67
449.477	4.59
449.681	4.74
449.884	4.35
450.088	4.26
450.292	3.89
450.495	3.85
450.699	3.98
450.902	4.41
451.106	4.26
451.31	4.45
451.513	4.54
451.717	4.79
451.92	5.14
452.124	5.41
452.327	5.23
452.531	5.55
452.734	5.31
452.938	5.45
453.141	5.19
453.345	5.17
453.548	5
453.752	5.18
453.955	5.3
454.158	4.71
454.362	4.77
454.565	4.82
454.769	4.56
454.972	5.24
455.175	5.15
455.379	5.25
455.582	4.92
455.785	4.96
455.988	4.8
456.192	4.45
456.395	4.77
456.598	4.92
456.801	4.64
457.005	4.64
457.208	4.17
457.411	4.14
457.614	4.17
457.817	4.6
458.021	4.63
458.224	4.48
458.427	4.21
458.63	4.45
458.833	4.32
459.036	4.29
459.239	4.09
459.442	4.02
459.645	4.03
459.848	4.08
460.051	3.85
460.254	3.96
460.457	3.73
460.66	3.8
460.863	3.38
461.066	3.31
461.269	3.51
461.472	3.5
461.675	3.67
461.878	3.76
462.081	3.96
462.284	4.09
462.486	3.94
462.689	4.11
462.892	4.37
463.095	4.61
463.298	4.95
463.5	5.08
463.703	5.37
463.906	5.36
464.109	5.32
464.311	5.32
464.514	5.57
464.717	5.93
464.92	6.12
465.122	6.4
465.325	6.09
465.528	5.74
465.73	5.45
465.933	5.6
466.135	5.97
466.338	5.91
466.541	5.48
466.743	5.15
466.946	4.79
467.148	4.9
467.351	4.58
467.553	4.86
467.756	5.22
467.958	5.58
468.161	5.53
468.363	5.09
468.566	5.16
468.768	5.25
468.971	5.34
469.173	5.16
469.375	4.89
469.578	4.87
469.78	4.66
469.983	4.47
470.185	4.56
470.387	4.29
470.59	4.42
470.792	4.39
470.994	3.95
471.196	3.84
471.399	4.05
471.601	4.3
471.803	4.34
472.005	4.23
472.208	4.1
472.41	3.55
472.612	3.77
472.814	3.67
473.016	3.65
473.218	3.97
473.421	4.22
473.623	4.19
473.825	3.91
474.027	4.14
474.229	4.36
474.431	4.47
474.633	4.82
474.835	4.93
475.037	4.64
475.239	4.22
475.441	4.36
475.643	4.35
475.845	4.22
476.047	4.43
476.249	4.15
476.451	3.79
476.653	3.81
476.855	3.69
477.057	3.59
477.258	3.72
477.46	4
477.662	4.2
477.864	4.17
478.066	4.11
478.268	3.99
478.469	3.84
478.671	3.98
478.873	3.84
479.075	3.7
479.276	3.4
479.478	3.53
479.68	3.47
479.882	3.08
480.083	2.81
480.285	2.68
480.487	2.65
480.688	2.97
480.89	2.94
481.091	3.04
481.293	2.9
481.495	2.97
481.696	2.83
481.898	2.66
482.099	2.59
482.301	2.53
482.502	2.48
482.704	2.32
482.905	2.06
483.107	1.94
483.308	1.72
483.51	1.64
483.711	1.52
483.913	1.4
484.114	1.47
484.315	1.55
484.517	1.5
484.718	1.52
484.92	1.6
485.121	1.64
485.322	1.65
485.524	1.69
485.725	1.91
485.926	1.98
486.127	2.01
486.329	2
486.53	1.91
486.731	1.92
486.932	1.93
487.134	1.79
487.335	1.67
487.536	1.65
487.737	1.7
487.938	1.61
488.139	1.5
488.341	1.46
488.542	1.48
488.743	1.51
488.944	1.6
489.145	1.67
489.346	1.78
489.547	1.94
489.748	2.08
489.949	2.15
490.15	2.11
490.351	2.25
490.552	2.3
490.753	2.26
490.954	2.15
491.155	2.12
491.356	2.02
491.557	2.13
491.758	2.18
491.959	2.04
492.159	2.27
492.36	2.3
492.561	2.38
492.762	2.54
492.963	2.49
493.164	2.62
493.364	2.64
493.565	2.91
493.766	2.92
493.967	2.93
494.167	3.26
494.368	2.99
494.569	2.92
494.769	2.99
494.97	3.11
495.171	3.15
495.371	3.29
495.572	3.52
495.773	3.18
495.973	3.19
496.174	3.38
496.375	3.51
496.575	3.6
496.776	3.56
496.976	3.33
497.177	3.26
497.377	3.54
497.578	3.51
497.778	3.46
497.979	3.73
498.179	3.64
498.38	3.7
498.58	3.62
498.78	3.6
498.981	3.77
499.181	4.11
499.382	4.16
499.582	3.87
499.782	3.75
499.983	3.64
500.183	3.62
500.383	3.56
500.584	3.15
500.784	3.19
500.984	3.2
501.184	3.35
501.385	3.18
501.585	3.36
501.785	3.78
501.985	3.82
502.185	3.77
502.386	3.6
502.586	3.78
502.786	4.15
502.986	4.11
503.186	4.11
503.386	4.02
503.586	3.96
503.786	3.89
503.987	3.58
504.187	3.63
504.387	3.96
504.587	3.94
504.787	4.08
504.987	4.15
505.187	4.41
505.387	4.31
505.587	4.21
505.786	4.41
505.986	4.43
506.186	4.58
506.386	4.61
506.586	4.44
506.786	4.61
506.986	4.31
507.186	4.38
507.386	4.04
507.585	4.25
507.785	4.29
507.985	4.24
508.185	4.14
508.384	3.92
508.584	3.92
508.784	3.74
508.984	3.65
509.183	3.72
509.383	3.61
509.583	3.61
509.782	3.63
509.982	3.73
510.182	3.63
510.381	3.5
510.581	3.61
510.781	3.59
510.98	3.69
511.18	3.82
511.379	3.8
511.579	3.49
511.778	3.77
511.978	3.77
512.177	3.86
512.377	4.16
512.576	4.2
512.776	4.3
512.975	4.31
513.175	4.45
513.374	4.37
513.573	4.18
513.773	4.42
513.972	4.23
514.172	4.04
514.371	4.04
514.57	3.95
514.77	4.08
514.969	4.19
515.168	4.29
515.367	4.38
515.567	4.37
515.766	4.54
515.965	4.48
516.164	4.5
516.364	4.52
516.563	4.55
516.762	4.45
516.961	4.42
517.16	4.23
517.359	4.06
517.559	4.05
517.758	4.17
517.957	4.17
518.156	4.38
518.355	4.25
518.554	4.41
518.753	4.2
518.952	4.12
519.151	4.2
519.35	4.34
519.549	4.3
519.748	4.42
519.947	4.36
520.146	4.77
520.345	4.63
520.544	4.82
520.743	4.82
520.942	5.06
521.141	5.35
521.339	5.43
521.538	5.19
521.737	5.16
521.936	4.8
522.135	4.75
522.333	4.44
522.532	4.43
522.731	4.38
522.93	4.33
523.129	4.08
523.327	4.03
523.526	4.14
523.725	4.55
523.923	4.91
524.122	4.74
524.321	4.7
524.519	4.78
524.718	4.72
524.917	4.77
525.115	4.74
525.314	4.85
525.512	4.69
525.711	4.45
525.909	4.06
526.108	3.79
526.306	4.02
526.505	3.89
526.703	3.64
526.902	3.6
527.1	3.35
527.299	3.2
527.497	3.07
527.696	3.05
527.894	2.99
528.092	3.05
528.291	3.11
528.489	3.01
528.688	2.97
528.886	2.94
529.084	2.9
529.283	3.06
529.481	3.1
529.679	3.21
529.877	3.24
530.076	3.33
530.274	3.47
530.472	3.6
530.67	3.65
530.869	3.92
531.067	4.14
531.265	4.21
531.463	4.17
531.661	4.22
531.859	4.19
532.057	4.17
532.255	4.15
532.454	3.98
532.652	3.89
532.85	3.98
533.048	3.83
533.246	3.77
533.444	3.82
533.642	3.87
533.84	3.91
534.038	3.91
534.236	4.03
534.434	4.01
534.632	4.25
534.83	4.44
535.027	4.54
535.225	4.68
535.423	4.78
535.621	4.88
535.819	4.7
536.017	4.6
536.215	4.53
536.412	4.47
536.61	4.75
536.808	4.63
537.006	4.45
537.203	4.79
537.401	4.76
537.599	4.8
537.797	5
537.994	5.22
538.192	5.46
538.39	5.63
538.587	5.66
538.785	5.48
538.983	5.58
539.18	5.73
539.378	5.17
539.575	5.17
539.773	5.03
539.97	4.91
540.168	4.93
540.366	4.91
540.563	4.97
540.761	4.92
540.958	4.9
541.155	4.8
541.353	4.73
541.55	4.66
541.748	4.78
541.945	4.96
542.143	4.86
542.34	4.93
542.537	4.78
542.735	4.64
542.932	4.7
543.129	4.82
543.327	4.96
543.524	5.19
543.721	5.49
543.919	5.78
544.116	6.06
544.313	6.21
544.51	6.13
544.708	6.65
544.905	6.94
545.102	7.15
545.299	7.26
545.496	7.29
545.693	7.13
545.891	7.1
546.088	6.86
546.285	6.46
546.482	6.64
546.679	6.81
546.876	6.73
547.073	6.65
547.27	6.44
547.467	6.29
547.664	6.36
547.861	6.55
548.058	6.88
548.255	6.76
548.452	7.13
548.649	7.38
548.846	7.58
549.043	7.52
549.24	8.1
549.437	8.47
549.633	8.57
549.83	8.77
550.027	8.83
550.224	8.67
550.421	9.05
550.618	8.94
550.814	8.76
551.011	8.81
551.208	8.69
551.405	8.26
551.601	8.01
551.798	8.34
551.995	8.13
552.191	8.2
552.388	8.28
552.585	7.97
552.781	8.27
552.978	8.42
553.175	8.3
553.371	8.58
553.568	8.96
553.764	9.47
553.961	9.27
554.157	9.61
554.354	9.5
554.55	9.49
554.747	9.75
554.943	9.46
555.14	9.33
555.336	9.7
555.533	9.68
555.729	9.74
555.926	9.74
556.122	9.78
556.318	9.9
556.515	10.17
556.711	10.35
556.907	10.67
557.104	10.77
557.3	10.92
557.496	10.42
557.693	10.88
557.889	10.9
558.085	11.19
558.281	11.81
558.478	11.73
558.674	11.61
558.87	11.45
559.066	11.52
559.262	11.4
559.459	11.43
559.655	12.13
559.851	11.88
560.047	11.93
560.243	11.68
560.439	11.51
560.635	11.32
560.831	11.16
561.027	11.34
561.223	11.15
561.419	11.59
561.615	11.99
561.811	11.5
562.007	11.57
562.203	11.7
562.399	11.54
562.595	11.46
562.791	11.69
562.987	12.42
563.183	12.86
563.379	13.26
563.575	13.1
563.771	12.71
563.966	12.84
564.162	12.7
564.358	12.52
564.554	12.49
564.75	12.73
564.945	12.54
565.141	11.89
565.337	11.55
565.533	11.23
565.728	11.27
565.924	11.4
566.12	11.61
566.315	11.49
566.511	11.27
566.707	11.37
566.902	10.86
567.098	11.13
567.293	11.37
567.489	11.21
567.684	11.56
567.88	11.44
568.076	11.4
568.271	11.32
568.467	11.22
568.662	11.5
568.858	11.75
569.053	11.97
569.248	11.67
569.444	11.74
569.639	12.21
569.835	12.21
570.03	12.23
570.225	12.3
570.421	12.27
570.616	12.33
570.812	12.42
571.007	12.37
571.202	12.36
571.397	12.59
571.593	12.59
571.788	12.35
571.983	12.15
572.178	12.52
572.374	12.54
572.569	12.52
572.764	12.89
572.959	13
573.154	13.2
573.35	13.61
573.545	13.75
573.74	13.83
573.935	14
574.13	14.09
574.325	13.98
574.52	13.85
574.715	14.12
574.91	13.94
575.105	13.95
575.3	13.87
575.495	13.62
575.69	13.72
575.885	13.85
576.08	13.8
576.275	14.05
576.47	14.06
576.665	14.4
576.86	14.47
577.055	14.63
577.25	14.47
577.444	14.34
577.639	14.58
577.834	14.81
578.029	15.15
578.224	15.39
578.418	15.53
578.613	15.83
578.808	16.01
579.003	15.96
579.197	16.22
579.392	16.79
579.587	17.12
579.781	17.17
579.976	17.06
580.171	16.9
580.365	16.23
580.56	16.04
580.755	16.2
580.949	16.28
581.144	16.3
581.338	16.2
581.533	15.84
581.727	15.97
581.922	15.84
582.116	15.74
582.311	15.39
582.505	15.99
582.7	15.74
582.894	15.35
583.089	14.84
583.283	15.04
583.478	15.22
583.672	15.45
583.866	15.11
584.061	15.26
584.255	15.33
584.449	15.41
584.644	15.72
584.838	16.1
585.032	16.75
585.226	17.25
585.421	17.24
585.615	17.12
585.809	17.19
586.003	17.35
586.198	17.21
586.392	17.27
586.586	17.3
586.78	17.16
586.974	17.15
587.168	16.5
587.363	16.37
587.557	16.44
587.751	16.83
587.945	16.85
588.139	16.84
588.333	17.27
588.527	16.99
588.721	16.79
588.915	17.01
589.109	16.89
589.303	17.07
589.497	16.86
589.691	16.88
589.885	16.61
590.079	16.11
590.273	15.85
590.466	15.43
590.66	15.82
590.854	16
591.048	15.66
591.242	15.71
591.436	15.37
591.629	15.58
591.823	15.17
592.017	15.49
592.211	16.33
592.404	16.7
592.598	16.54
592.792	16.48
592.986	17.4
593.179	17.24
593.373	16.85
593.567	17.27
593.76	17.44
593.954	17.43
594.147	16.99
594.341	16.46
594.535	16.72
594.728	16.92
594.922	16.76
595.115	16.03
595.309	16.07
595.502	16.61
595.696	16.48
595.889	16.25
596.083	16.26
596.276	16.2
596.47	16.31
596.663	15.91
596.856	16.03
597.05	15.97
597.243	16.02
597.437	16.46
597.63	16.44
597.823	16.69
598.017	16.91
598.21	17.01
598.403	17.61
598.596	18.07
598.79	18.34
598.983	18.02
599.176	18.2
599.369	18.07
599.563	17.63
599.756	17.64
599.949	17.6
600.142	17.51
600.335	17.71
600.528	17.8
600.722	17.26
600.915	17.31
601.108	18.03
601.301	18.17
601.494	18.35
601.687	18.53
601.88	18.37
602.073	18.63
602.266	18.33
602.459	18.31
602.652	17.86
602.845	17.95
603.038	17.61
603.231	17.43
603.424	17.28
603.617	17.04
603.809	16.81
604.002	16.77
604.195	16.54
604.388	16.67
604.581	16.67
604.774	16.63
604.966	16.35
605.159	16.57
605.352	16.36
605.545	16.35
605.737	16.88
605.93	17.45
606.123	17.87
606.316	17.84
606.508	17.88
606.701	18.04
606.894	18.48
607.086	19.23
607.279	19.46
607.471	19.61
607.664	19.79
607.857	19.51
608.049	19.15
608.242	18.87
608.434	18.74
608.627	18.83
608.819	18.66
609.012	18.27
609.204	17.7
609.397	17.22
609.589	17.38
609.782	17.23
609.974	17.06
610.166	16.86
610.359	16.55
610.551	16.88
610.743	17.38
610.936	17.61
611.128	18.13
611.32	18.72
611.513	18.79
611.705	18.92
611.897	19.52
612.09	20.18
612.282	20.86
612.474	21.5
612.666	21.21
612.858	20.8
613.051	21.01
613.243	20.77
613.435	20.66
613.627	21.37
613.819	21.22
614.011	21.55
614.203	21.59
614.395	21.35
614.588	21.01
614.78	21.24
614.972	21.3
615.164	21
615.356	20.86
615.548	20.75
615.74	20.63
615.932	20.89
616.124	20.35
616.315	20.12
616.507	20.31
616.699	20.86
616.891	20.45
617.083	19.98
617.275	20.13
617.467	20.59
617.659	20.7
617.85	21.53
618.042	21.62
618.234	22.02
618.426	21.86
618.618	21.52
618.809	20.66
619.001	21.07
619.193	21.4
619.384	21.23
619.576	20.89
619.768	20.65
619.959	19.81
620.151	19.19
620.343	18.79
620.534	18.89
620.726	18.81
620.917	19.61
621.109	19.49
621.301	19.68
621.492	19.58
621.684	20.26
621.875	20.74
622.067	20.52
622.258	20.75
622.45	20.8
622.641	20.47
622.832	20.73
623.024	19.67
623.215	19.37
623.407	19.26
623.598	19.73
623.789	19.33
623.981	19.88
624.172	20.04
624.363	19.78
624.555	19.62
624.746	19.69
624.937	19.71
625.129	20.56
625.32	20.93
625.511	21.03
625.702	20.44
625.893	20.55
626.085	19.82
626.276	19.9
626.467	20.05
626.658	20.37
626.849	20.45
627.04	20.51
627.231	20.33
627.422	20.51
627.614	20.83
627.805	20.91
627.996	20.73
628.187	20.34
628.378	20.48
628.569	20.78
628.76	21.09
628.951	20.89
629.142	20.93
629.332	20.69
629.523	20.03
629.714	19.64
629.905	20.43
630.096	20.7
630.287	21.78
630.478	21.83
630.669	22.1
630.859	21.58
631.05	22.18
631.241	22.17
631.432	22.73
631.623	23.4
631.813	23.93
632.004	22.57
632.195	22.1
632.385	21.71
632.576	22.04
632.767	21.73
632.957	21.84
633.148	21.87
633.339	21.26
633.529	20.94
633.72	20.47
633.91	19.89
634.101	20.45
634.292	20.39
634.482	19.9
634.673	19.58
634.863	19.92
635.054	19.82
635.244	19.37
635.435	19.98
635.625	20.17
635.815	20.35
636.006	20.97
636.196	20.84
636.387	21.41
636.577	21.84
636.767	21.56
636.958	20.99
637.148	21.03
637.338	21.19
637.529	21.15
637.719	21.27
637.909	22.09
638.099	22.03
638.29	22.37
638.48	22.32
638.67	22.54
638.86	23.26
639.05	23.59
639.241	23.42
639.431	24.15
639.621	24.86
639.811	24.77
640.001	24.66
640.191	23.73
640.381	24.03
640.571	23.85
640.761	23.74
640.951	23.18
641.141	22.65
641.331	22.93
641.521	22.79
641.711	23.02
641.901	22.92
642.091	22.41
642.281	22.76
642.471	22.35
642.661	22.72
642.851	22.95
643.041	22.99
643.231	24.06
643.42	24.1
643.61	24.18
643.8	23.75
643.99	23.55
644.18	23.98
644.369	24.53
644.559	25.55
644.749	25.28
644.939	25.59
645.128	26.06
645.318	26.19
645.508	26.22
645.697	26.36
645.887	25.63
646.076	25.98
646.266	25.96
646.456	25.6
646.645	25.09
646.835	24.82
647.024	24.32
647.214	24.26
647.403	23.55
647.593	23.6
647.782	22.84
647.972	23.33
648.161	23.43
648.351	23.07
648.54	23.4
648.73	23.1
648.919	22.75
649.108	22.54
649.298	22.4
649.487	22.2
649.677	22.83
649.866	23.59
650.055	23.72
650.244	23.49
650.434	22.66
650.623	22.86
650.812	23.55
651.002	23.61
651.191	24.24
651.38	24.63
651.569	25.2
651.758	24.82
651.947	24.42
652.137	24.86
652.326	24.96
652.515	25.42
652.704	25.34
652.893	25.2
653.082	25.81
653.271	25.65
653.46	25.33
653.649	25.24
653.838	24.66
654.027	24.28
654.216	23.72
654.405	23.99
654.594	24.79
654.783	25.16
654.972	24.94
655.161	24.99
655.35	24.72
655.539	24.31
655.728	24.43
655.916	24
656.105	24.58
656.294	24.35
656.483	24.62
656.672	24.05
656.86	22.96
657.049	22.9
657.238	22.6
657.427	22.44
657.615	22.52
657.804	22.26
657.993	22.44
658.181	21.53
658.37	21.71
658.559	21.24
658.747	21.42
658.936	21.67
659.125	22.96
659.313	23.1
659.502	23.19
659.69	23.47
659.879	23.31
660.067	23.5
660.256	24.15
660.444	24.26
660.633	24.56
660.821	24.52
661.01	24.76
661.198	22.19
661.387	22.37
661.575	22.6
661.763	22.42
661.952	22.68
662.14	23.34
662.328	23.12
662.517	23.09
662.705	22.23
662.893	22.72
663.082	23.32
663.27	24.39
663.458	23.58
663.646	23.35
663.834	23.34
664.023	23.25
664.211	23.27
664.399	23.96
664.587	23.63
664.775	24.59
664.963	24.68
665.152	23.95
665.34	23.91
665.528	24.29
665.716	24.45
665.904	24.73
666.092	24.54
666.28	24.87
666.468	24.42
666.656	24.91
666.844	24.94
667.032	24.88
667.22	25.42
667.408	25.88
667.596	25.59
667.784	26.09
667.971	26.58
668.159	26.69
668.347	25.54
668.535	25.35
668.723	24.08
668.911	24.13
669.098	23.96
669.286	23.79
669.474	23.65
669.662	24.56
669.849	24.25
670.037	24.49
670.225	24.89
670.413	25.29
670.6	25.6
670.788	27.42
670.976	27.33
671.163	27.6
671.351	27.08
671.538	27.65
671.726	27.53
671.913	27.62
672.101	26.22
672.289	26.4
672.476	26.46
672.664	26.81
672.851	26.29
673.039	26.55
673.226	26.16
673.413	26.58
673.601	26
673.788	26.04
673.976	25.75
674.163	27.04
674.35	26.07
674.538	26.03
674.725	26.67
674.912	26.87
675.1	26.75
675.287	27
675.474	27.14
675.662	26.51
675.849	26.57
676.036	26.39
676.223	26.55
676.411	27.42
676.598	27.7
676.785	27.74
676.972	27.98
677.159	28.33
677.346	28.57
677.533	28.6
677.721	29.19
677.908	29.27
678.095	29.94
678.282	29.01
678.469	28.41
678.656	27.92
678.843	26.89
679.03	26.39
679.217	26.04
679.404	25.89
679.591	25.5
679.778	25.56
679.964	25.26
680.151	24.96
680.338	25.07
680.525	25.28
680.712	26.29
680.899	26.01
681.086	26.07
681.272	26.02
681.459	26.05
681.646	26.47
681.833	26.06
682.02	26.42
682.206	27.01
682.393	27.77
682.58	27.62
682.766	27.19
682.953	28.16
683.14	28.09
683.326	28.32
683.513	28.32
683.7	27.71
683.886	28.38
684.073	28.34
684.259	27.75
684.446	27.05
684.632	27.6
684.819	27.52
685.005	26.84
685.192	26.41
685.378	26.84
685.565	27.11
685.751	27.43
685.938	27.92
686.124	27.62
686.31	28.17
686.497	28.53
686.683	28.37
686.87	28.41
687.056	28.92
687.242	29.72
687.429	29.38
687.615	28.51
687.801	28.94
687.987	28.42
688.174	29.29
688.36	28.97
688.546	27.73
688.732	28.25
688.918	28.51
689.105	29.17
689.291	29.86
689.477	29.9
689.663	31
689.849	31.46
690.035	31.72
690.221	30.97
690.407	32
690.593	33.6
690.779	33.18
690.965	32.23
691.151	31.49
691.337	31.12
691.523	31.6
691.709	30.96
691.895	30.82
692.081	31.25
692.267	32.59
692.453	31.72
692.639	31.48
692.825	32.25
693.011	31.97
693.196	33.38
693.382	32.93
693.568	32.87
693.754	32.66
693.94	32.62
694.125	31.56
694.311	29.85
694.497	29.49
694.682	29.48
694.868	30.05
695.054	31.65
695.239	30.68
695.425	30.68
695.611	29.89
695.796	30.78
695.982	30.59
696.168	31.06
696.353	31.55
696.539	31.39
696.724	31.53
696.91	31.07
697.095	30.42
697.281	29.54
697.466	29.55
697.652	29.57
697.837	28.57
698.023	27.92
698.208	26.81
698.393	26.45
698.579	26.64
698.764	26.42
698.949	26.04
699.135	25.86
699.32	25.75
699.505	25.89
699.691	25.99
699.876	26.43
700.061	26.53
700.246	27.81
700.432	27.51
700.617	28.72
700.802	28.04
700.987	27.96
701.172	29.04
701.358	30.69
701.543	30.42
701.728	31.08
701.913	31.79
702.098	33.03
702.283	33.14
702.468	34.82
702.653	33.47
702.838	35.39
703.023	36.25
703.208	35.64
703.393	35.19
703.578	35.22
703.763	34.86
703.948	34.7
704.133	33.89
704.318	34.02
704.503	33.84
704.688	34.37
704.873	33.46
705.057	33.41
705.242	32.91
705.427	33.2
705.612	33.94
705.797	35.08
705.981	35.41
706.166	36.08
706.351	34.06
706.536	34.2
706.72	33.69
706.905	35.22
707.09	34.4
707.274	35.13
707.459	35.44
707.644	33.84
707.828	33.41
708.013	33.44
708.197	32.91
708.382	33.93
708.567	34.06
708.751	34.01
708.936	32.43
709.12	33.15
709.305	32.63
709.489	33.29
709.673	33.85
709.858	33.84
710.042	33.71
710.227	34.04
710.411	35.53
710.596	36
710.78	37.27
710.964	37.02
711.149	36.4
711.333	36.62
711.517	36.32
711.702	36.5
711.886	35.78
712.07	35.6
712.254	35.96
712.438	34.52
712.623	33.16
712.807	31.55
712.991	31.4
713.175	31.85
713.359	32.63
713.544	31.35
713.728	31.4
713.912	31.99
714.096	32.72
714.28	31.28
714.464	32.16
714.648	32.26
714.832	34.45
715.016	34.75
715.2	33.61
715.384	32.62
715.568	32.62
715.752	32.96
715.936	32.47
716.12	31.24
716.304	32.07
716.488	31.04
716.671	30.71
716.855	28.87
717.039	29.58
717.223	29.96
717.407	30.24
717.59	31.15
717.774	31.63
717.958	31.88
718.142	31.57
718.325	32.94
718.509	34.35
718.693	35.38
718.877	34.85
719.06	34.69
719.244	35.77
719.428	35.14
719.611	35.68
719.795	36.36
719.978	37.96
720.162	39.79
720.345	38.25
720.529	38.52
720.713	39.05
720.896	38.74
721.08	39.76
721.263	39.7
721.446	42.18
721.63	42.63
721.813	42.14
721.997	41.74
722.18	41.53
722.364	44.45
722.547	43.98
722.73	43.73
722.914	45.14
723.097	44.94
723.28	46.46
723.464	46.56
723.647	45.45
723.83	44.46
724.013	43.84
724.197	43.75
724.38	43.08
724.563	42.96
724.746	43.59
724.929	44.36
725.112	43.09
725.296	42.37
725.479	41.67
725.662	40.99
725.845	41.36
726.028	41.61
726.211	41.53
726.394	41.15
726.577	40.81
726.76	40.46
726.943	39.44
727.126	38.72
727.309	37.62
727.492	37.8
727.675	38.9
727.858	38.92
728.041	39.48
728.224	39.59
728.407	38.97
728.589	40.02
728.772	39.33
728.955	38.9
729.138	40.45
729.321	41.32
729.503	40.6
729.686	41.05
729.869	41.69
730.052	41.15
730.234	41.21
730.417	40.45
730.6	40.15
730.782	40.21
730.965	40.58
731.148	40.1
731.33	38.93
731.513	38.71
731.695	38.41
731.878	38.11
732.061	37.47
732.243	36.51
732.426	37.21
732.608	36.81
732.791	36.66
732.973	35.05
733.156	35.72
733.338	37.51
733.52	39.48
733.703	38.8
733.885	37.64
734.068	37.06
734.25	37.01
734.432	36.67
734.615	36.83
734.797	37.53
734.979	39.69
735.162	39.33
735.344	40.07
735.526	37.52
735.708	38.21
735.891	37.8
736.073	39.61
736.255	40.7
736.437	42.24
736.619	43.38
736.802	44.42
736.984	46.06
737.166	46.09
737.348	45.82
737.53	47.3
737.712	46.89
737.894	48.24
738.076	46.45
738.258	47.02
738.44	46.35
738.622	45.85
738.804	46.21
738.986	44.73
739.168	46.55
739.35	45.19
739.532	44.53
739.714	44.28
739.896	44.22
740.078	44.54
740.259	43.77
740.441	44.96
740.623	44.22
740.805	44.22
740.987	45.09
741.168	43.04
741.35	43.77
741.532	44.22
741.714	44.78
741.895	43.95
742.077	43.14
742.259	42.2
742.44	41.43
742.622	42.56
742.804	41.42
742.985	41.15
743.167	39.73
743.348	39.94
743.53	39.03
743.711	40.86
743.893	43.03
744.075	44.9
744.256	46.04
744.438	45.52
744.619	45.18
744.8	45.87
744.982	46.32
745.163	50.37
745.345	49.46
745.526	50.82
745.707	49.18
745.889	48.45
746.07	50.03
746.252	49.73
746.433	50.04
746.614	50.24
746.795	48.48
746.977	47.88
747.158	46.67
747.339	46.1
747.52	46.27
747.702	46.9
747.883	47.85
748.064	45.53
748.245	45.94
748.426	44.44
748.607	43.72
748.788	46.79
748.97	47.74
749.151	46.84
749.332	47.09
749.513	48.09
749.694	46.4
749.875	46.82
750.056	48.89
750.237	48.68
750.418	51.82
750.599	52.41
750.78	49.56
750.96	49.44
751.141	49.19
751.322	50.35
751.503	46.78
751.684	48.11
751.865	46.22
752.046	45.06
752.226	44.86
752.407	43.59
752.588	42.81
752.769	44.49
752.949	44.65
753.13	46.24
753.311	45.34
753.492	47.37
753.672	48.87
753.853	51.26
754.034	50.46
754.214	48.7
754.395	49.59
754.575	50.05
754.756	48.54
754.937	50.13
755.117	48.89
755.298	50.58
755.478	50.68
755.659	50.76
755.839	50.06
756.02	53.58
756.2	57.42
756.381	58.62
756.561	57.68
756.741	58.07
756.922	57.73
757.102	61.01
757.283	59.16
757.463	58.51
757.643	57.27
757.823	56.91
758.004	55.2
758.184	54.71
758.364	53.12
758.545	54.79
758.725	55.51
758.905	55.92
759.085	54.12
759.265	53.9
759.446	53.93
759.626	52.99
759.806	51.4
759.986	50.44
760.166	49.8
760.346	49.03
760.526	48.3
760.706	47.81
760.886	44.59
761.066	44.16
761.246	43.22
761.426	43.54
761.606	43.27
761.786	42.65
761.966	42.78
762.146	42.68
762.326	43
762.506	41.13
762.686	39.43
762.866	40.14
763.046	38.71
763.225	38.07
763.405	35.39
763.585	34.4
763.765	34.17
763.945	33.64
764.124	33.65
764.304	34.72
764.484	36.75
764.664	37.64
764.843	37.25
765.023	38.02
765.203	39.35
765.382	42.46
765.562	43.68
765.741	45.98
765.921	47.9
766.101	48.83
766.28	47.05
766.46	47.22
766.639	47.43
766.819	47.42
766.998	49
767.178	47.37
767.357	46.5
767.537	50.1
767.716	50.34
767.896	49.77
768.075	48.98
768.254	49.61
768.434	48.97
768.613	50.8
768.792	54.63
768.972	54.03
769.151	60.08
769.33	62.25
769.51	59.96
769.689	61.39
769.868	61.33
770.047	61.03
770.226	61.01
770.406	61.28
770.585	61.77
770.764	59.05
770.943	58.24
771.122	56.03
771.301	55.12
771.48	56.4
771.66	56.57
771.839	57.32
772.018	59
772.197	60.33
772.376	61.58
772.555	64.07
772.734	65.84
772.913	70.3
773.092	71.26
773.271	73.48
773.449	75.15
773.628	73.71
773.807	74.01
773.986	73.03
774.165	73.33
774.344	74.88
774.523	70.79
774.701	72.58
774.88	71.35
775.059	70.09
775.238	72.07
775.417	68.9
775.595	69.59
775.774	71.94
775.953	71.05
776.131	67.67
776.31	64.77
776.489	66.96
776.667	62.41
776.846	58.92
777.025	59.16
777.203	57.52
777.382	56.41
777.56	55.34
777.739	54.94
777.917	57.46
778.096	59.98
778.274	62.52
778.453	62.37
778.631	64.97
778.81	66.9
778.988	66.54
779.166	65.76
779.345	69.67
779.523	74.28
779.702	76.05
779.88	79.31
780.058	78.12
780.237	77.46
780.415	75.37
780.593	73.53
780.771	74.44
780.95	76.49
781.128	74.76
781.306	71.44
781.484	67.88
781.662	68.33
781.841	65.29
782.019	64.5
782.197	64.15
782.375	63.37
782.553	63.35
782.731	63.27
782.909	62.33
783.087	65.21
783.265	68.5
783.443	69.15
783.621	62.99
783.799	62.73
783.977	69.28
784.155	71.7
784.333	71.95
784.511	71.5
784.689	74.34
784.867	74.43
785.045	77.79
785.223	76.37
785.4	79.43
785.578	81.65
785.756	78.1
785.934	75.63
786.112	75.2
786.289	79.33
786.467	83.63
786.645	78.95
786.823	80.29
787	74.32
787.178	74.55
787.356	69.72
787.533	70.01
787.711	72.04
787.889	69.95
788.066	64.68
788.244	62.64
788.421	58.3
788.599	57.68
788.776	57.76
788.954	58.02
789.131	56
789.309	54.94
789.486	60.62
789.664	62.5
789.841	64.27
790.019	68.68
790.196	70.04
790.373	73.59
790.551	75.03
790.728	79.02
790.906	86.09
791.083	91.11
791.26	96.35
791.437	88.13
791.615	86.5
791.792	85.16
791.969	86.77
792.146	87.24
792.324	85.8
792.501	85.8
792.678	81.17
792.855	75.82
793.032	76.12
793.209	76.14
793.387	76.63
793.564	76.09
793.741	78.27
793.918	79.98
794.095	79.33
794.272	79.95
794.449	79.88
794.626	79.76
794.803	78.6
794.98	74.9
795.157	74.5
795.334	72.46
795.511	72.02
795.688	69.22
795.864	63.96
796.041	62.29
796.218	65.59
796.395	62.58
796.572	60.36
796.749	61.38
796.925	59.22
797.102	59.33
797.279	60.08
797.456	62.24
797.632	63.61
797.809	70.27
797.986	73.24
798.162	72.79
798.339	78.53
798.516	82.01
798.692	83.72
798.869	92.83
799.046	95.96
799.222	94.38
799.399	89.92
799.575	92.85
799.752	91.44
799.928	87.65
800.105	82.1
800.281	80.68
800.458	80.11
800.634	77.79
800.811	74.19
800.987	76.24
801.163	78.95
801.34	80.73
801.516	77.44
801.692	73.33
801.869	78.63
802.045	80.6
802.221	76.82
802.398	78.87
802.574	78.79
802.75	77.76
802.926	78.92
803.103	78.62
803.279	75.02
803.455	75.11
803.631	81.8
803.807	81.01
803.983	87.86
804.16	94.86
804.336	94.71
804.512	102.74
804.688	108.19
804.864	106.98
805.04	105.81
805.216	111.51
805.392	113.12
805.568	108.54
805.744	103.46
805.92	93.91
806.096	92.69
806.272	96.18
806.448	89.51
806.623	90.04
806.799	89.45
806.975	86.72
807.151	85.51
807.327	89.27
807.503	86.24
807.678	90.05
807.854	93.57
808.03	92.93
808.206	89.47
808.381	91.73
808.557	82.37
808.733	82.31
808.908	85.17
809.084	83.47
809.26	80.58
809.435	85.02
809.611	83.29
809.787	79.13
809.962	81.26
810.138	83.86
810.313	84.66
810.489	88.72
810.664	86.51
810.84	82.24
811.015	83.69
811.191	87.65
811.366	85.69
811.542	91.79
811.717	96.89
811.892	91.07
812.068	92.57
812.243	96.1
812.419	99.5
812.594	98.66
812.769	100.04
812.944	104.31
813.12	97.71
813.295	103.22
813.47	99.06
813.645	102.85
813.821	111.43
813.996	113.51
814.171	114.85
814.346	117.92
814.521	120.84
814.697	125.84
814.872	117.78
815.047	122.01
815.222	118.02
815.397	114.96
815.572	119.17
815.747	119.41
815.922	108.59
816.097	102.6
816.272	98.86
816.447	91.32
816.622	90.78
816.797	92.15
816.972	87.93
817.147	86.4
817.322	86.87
817.496	81.28
817.671	72.9
817.846	80.2
818.021	83.7
818.196	83.15
818.371	89.14
818.545	87.38
818.72	88.05
818.895	85.22
819.069	79.53
819.244	77.87
819.419	74.57
819.594	70.6
819.768	63.75
819.943	58.26
820.117	52.71
820.292	46.87
820.467	42.63
820.641	39.29
820.816	36.41
820.99	36.79
821.165	33.72
821.339	33.75
821.514	33.72
821.688	32.54
821.863	30.84
822.037	30.36
822.212	30.67
822.386	30.89
822.56	31.04
822.735	31.2
822.909	30.53
823.084	30.82
823.258	30.18
823.432	30.36
823.606	30.28
823.781	31.73
823.955	33.76
824.129	34.77
824.303	35.52
824.478	36.09
824.652	38.06
824.826	38.67
825	40.78
825.174	40.55
825.348	41.17
825.523	41.1
825.697	41.22
825.871	39.68
826.045	38.98
826.219	39.48
826.393	39.44
826.567	38.64
826.741	40.47
826.915	38.56
827.089	40.35
827.263	41.2
827.437	44.38
827.611	45.86
827.784	47.88
827.958	50.32
828.132	52.72
828.306	54.07
828.48	56.37
828.654	55.72
828.827	61.16
829.001	62.1
829.175	64.89
829.349	64.66
829.522	67.68
829.696	69.65
829.87	72.21
830.044	79.03
830.217	83.17
830.391	88.05
830.565	93.23
830.738	94.54
830.912	94.74
831.085	94.78
831.259	94.66
831.432	97.16
831.606	99.79
831.779	93
831.953	84.34
832.126	82.17
832.3	75.77
832.473	74.41
832.647	71.49
832.82	68.08
832.994	65.53
833.167	59.34
833.34	54.68
833.514	51.96
833.687	53.2
833.86	52.85
834.034	51.92
834.207	52.64
834.38	52.11
834.553	54.66
834.727	58
834.9	62.21
835.073	71.39
835.246	76.22
835.419	81.04
835.593	83.11
835.766	82.45
835.939	84.1
836.112	90.35
836.285	93.4
836.458	93.8
836.631	95.09
836.804	91.4
836.977	89.57
837.15	90.48
837.323	94.68
837.496	99.64
837.669	109.89
837.842	114.27
838.015	117.68
838.188	117.54
838.361	116.1
838.533	112.68
838.706	118.44
838.879	114.58
839.052	112.83
839.225	115.61
839.398	115.68
839.57	110.61
839.743	111.86
839.916	108.46
840.088	95.42
840.261	101.13
840.434	106.14
840.607	108
840.779	113.84
840.952	113.97
841.124	108.35
841.297	110.29
841.47	111.71
841.642	110.23
841.815	120.75
841.987	154.78
842.16	160.43
842.332	166.74
842.505	183.48
842.677	175.16
842.85	206.84
843.022	210.17
843.194	228.68
843.367	240.85
843.539	224.56
843.712	194.54
843.884	173.68
844.056	178.9
844.229	169.35
844.401	171.56
844.573	178.1
844.745	162.46
844.918	172.41
845.09	163.21
845.262	178.23
845.434	183.23
845.606	197.11
845.779	195.55
845.951	201.04
846.123	182.89
846.295	183.55
846.467	195.97
846.639	205.4
846.811	205.42
846.983	201.18
847.155	196
847.327	184.16
847.499	200.63
847.671	240.6
847.843	234.65
848.015	353.59
848.187	301.62
848.359	283.75
848.531	294.63
848.703	283.73
848.875	354.53
849.047	318.69
849.218	438.29
849.39	396.81
849.562	324.81
849.734	302.62
849.905	235.14
850.077	279
850.249	397.65
850.421	447.88
850.592	421.56
850.764	358.99
850.936	376.67
851.107	387.43
851.279	434.94
851.451	342.68
851.622	290.84
851.794	260.28
851.965	239.87
852.137	208.36
852.308	206.3
852.48	218.03
852.651	207.94
852.823	191.83
852.994	175.02
853.166	169.95
853.337	182.06
853.509	217.09
853.68	289.29
853.851	298.51
854.023	358.8
854.194	331.99
854.365	365.52
854.537	367.01
854.708	557.39
854.879	1004.1
855.05	890.32
855.222	778.26
855.393	495.51
855.564	524.74
855.735	426.1
855.906	323.54
856.078	368.21
856.249	421.4
856.42	396.52
856.591	354.46
856.762	347.53
856.933	410.43
857.104	457.26
857.275	519.16
857.446	320.15
857.617	329.46
857.788	338.26
857.959	304.21
858.13	256.41
858.301	301.93
858.472	333.97
858.643	337.42
858.814	406.38
858.985	380.98
859.155	383.86
859.326	531.38
859.497	539.07
859.668	482.68
859.839	753.33
860.009	516.93
860.18	369.49
860.351	302.68
860.522	301.26
860.692	238.94
860.863	255.98
861.034	244.03
861.204	215.5
861.375	231.28
861.546	245.37
861.716	228.75
861.887	252.41
862.057	332.96
862.228	296.41
862.398	301.93
862.569	282.52
862.739	281.07
862.91	265.81
863.08	340.45
863.251	314.33
863.421	318.44
863.592	307.37
863.762	315.53
863.932	234.64
864.103	272.34
864.273	229.78
864.443	268.87
864.614	238.79
864.784	265.27
864.954	241.15
865.125	253.44
865.295	269.11
865.465	249.18
865.635	254.56
865.805	261.4
865.976	257.5
866.146	297.55
866.316	353.74
866.486	538.24
866.656	379.68
866.826	381.35
866.996	364.67
867.166	342.69
867.336	338.02
867.506	289.71
867.676	291.98
867.846	289.23
868.016	308.35
868.186	274.02
868.356	238.43
868.526	261.27
868.696	286.06
868.866	314.16
869.036	305.28
869.206	286.22
869.376	328.42
869.545	301.21
869.715	321.54
869.885	338.87
870.055	361.35
870.224	408.11
870.394	604.12
870.564	439.58
870.734	440.4
870.903	401.23
871.073	469.98
871.243	377.28
871.412	392.67
871.582	339.93
871.751	309.94
871.921	322.83
872.091	283.02
872.26	248.98
872.43	207.07
872.599	216.23
872.769	232.22
872.938	233.1
873.108	302.46
873.277	353.82
873.446	410.23
873.616	375.93
873.785	409.04
873.955	555.53
874.124	421.33
874.293	1139.49
874.463	1303.59
874.632	1596.21
874.801	1736.97
874.971	566.07
875.14	527.01
875.309	379.64
875.478	355.51
875.647	324.4
875.817	261.92
875.986	290.73
876.155	277.79
876.324	261.85
876.493	270.22
876.662	247.33
876.831	267.34
877	261.77
877.17	295.95
877.339	349.29
877.508	267.04
877.677	304.43
877.846	329.04
878.015	275.7
878.184	241.19
878.352	216.03
878.521	214.31
878.69	211.6
878.859	185.96
879.028	192.04
879.197	169.9
879.366	194.92
879.534	168.53
879.703	154.8
879.872	151.62
880.041	152.81
880.21	135.47
880.378	125.92
880.547	120.03
880.716	116.49
880.884	104.36
881.053	93.32
881.222	84
881.39	84.02
881.559	72.58
881.727	64.14
881.896	62.89
882.065	62.03
882.233	63.79
882.402	62.67
882.57	59.48
882.739	60.21
882.907	61.77
883.076	63.18
883.244	63.04
883.412	66.67
883.581	70.7
883.749	73.11
883.918	81.18
884.086	79.35
884.254	80.52
884.423	85.94
884.591	91.88
884.759	98.77
884.927	98.05
885.096	98.66
885.264	110.43
885.432	116.02
885.6	116.57
885.769	116
885.937	128.95
886.105	135.04
886.273	132.51
886.441	133.81
886.609	144.02
886.777	157.3
886.945	175.84
887.113	177.92
887.281	199
887.449	205.14
887.617	204.28
887.785	229.91
887.953	235.19
888.121	250.94
888.289	260.34
888.457	319.42
888.625	419.51
888.793	330.71
888.961	355.51
889.129	267.56
889.296	286.8
889.464	313.83
889.632	259.22
889.8	286.13
889.967	303.55
890.135	343.27
