Data from JASIL_3193_Reflection_01.txt Node
Date: Fri Nov 13 14:08:06 EST 2015
User: Geneva
Spectrometer: USB4E03002
Autoset integration time: false
Trigger mode: 4
Integration Time (sec): 1.000000E-1
Scans to average: 10
Electric dark correction enabled: false
Nonlinearity correction enabled: false
Boxcar width: 5
Stray light correction enabled: false
XAxis mode: Wavelengths
Stop averaging: false
Number of Pixels in Spectrum: 3648
>>>>>Begin Spectral Data<<<<<
177.575	166.9
177.794	161.84
178.014	166.67
178.233	190.32
178.452	194
178.672	190.74
178.891	192.06
179.11	177.47
179.33	193.03
179.549	194.37
179.768	264.34
179.987	208.14
180.207	242.59
180.426	215.53
180.645	172.79
180.864	179.04
181.084	168.17
181.303	180.31
181.522	191.78
181.741	203.99
181.96	193.93
182.179	157.35
182.398	159.98
182.618	154.57
182.837	170.63
183.056	184.3
183.275	172.39
183.494	181.67
183.713	167.6
183.932	185.22
184.151	150.69
184.37	145.84
184.589	137.02
184.808	138.75
185.027	136.12
185.246	139.69
185.465	150.05
185.684	140.86
185.903	153.51
186.122	153.36
186.341	142.61
186.56	156.63
186.779	179.03
186.998	186.93
187.216	198.64
187.435	189.28
187.654	178.7
187.873	153.07
188.092	149.62
188.311	140.17
188.53	141.47
188.748	142.85
188.967	138.64
189.186	117.03
189.405	117.7
189.623	117.17
189.842	119.08
190.061	124.61
190.28	127.38
190.498	139.15
190.717	147.94
190.936	169.77
191.154	195.7
191.373	235.32
191.592	251.13
191.81	254.47
192.029	244.21
192.248	390.83
192.466	300.51
192.685	332.15
192.904	389.82
193.122	418.3
193.341	309.51
193.559	250.61
193.778	184.96
193.996	215.98
194.215	214.37
194.433	216.99
194.652	169.32
194.87	210.21
195.089	222.27
195.307	211.62
195.526	189.18
195.744	170.21
195.963	175.45
196.181	200.64
196.399	186.14
196.618	187.03
196.836	193.2
197.055	197.02
197.273	164.35
197.491	190.91
197.71	234.43
197.928	247.59
198.146	282.27
198.365	255.47
198.583	243.74
198.801	269.37
199.019	220.96
199.238	229.44
199.456	218.16
199.674	242.06
199.892	225.68
200.111	208.01
200.329	200.7
200.547	234.47
200.765	234.9
200.983	221.75
201.202	204.09
201.42	255.26
201.638	207.87
201.856	211.67
202.074	194.65
202.292	164.11
202.51	153.57
202.728	168.01
202.946	164.41
203.165	157.82
203.383	167.82
203.601	153.52
203.819	139.15
204.037	160.88
204.255	168.88
204.473	176.92
204.691	261.55
204.909	248.36
205.127	290.65
205.345	397.98
205.562	605.17
205.78	410.16
205.998	615.35
206.216	995.59
206.434	625.95
206.652	542.06
206.87	600.69
207.088	258.07
207.306	328.71
207.523	253.62
207.741	232.03
207.959	258.35
208.177	258.73
208.395	213.17
208.612	203.91
208.83	186.16
209.048	158.19
209.266	139.7
209.483	177.85
209.701	161.9
209.919	169.6
210.136	174.07
210.354	136.23
210.572	128.28
210.79	128.47
211.007	147.26
211.225	153.07
211.442	195.98
211.66	275.41
211.878	217.69
212.095	69.83
212.313	77.65
212.53	80.13
212.748	79.39
212.966	78.11
213.183	77.94
213.401	81.58
213.618	80.11
213.836	76.85
214.053	73.34
214.271	75.82
214.488	123.74
214.705	122.5
214.923	113.57
215.14	120.24
215.358	130.59
215.575	140.08
215.793	134.21
216.01	132.46
216.227	141.74
216.445	188.58
216.662	173.41
216.879	187.37
217.097	210.52
217.314	178.97
217.531	181.48
217.749	209.94
217.966	235.86
218.183	203.61
218.4	181.19
218.618	157.43
218.835	133.67
219.052	126
219.269	111.69
219.487	89.02
219.704	102.4
219.921	113.09
220.138	113.69
220.355	104.35
220.572	104.36
220.79	123.84
221.007	128.93
221.224	137.52
221.441	154.17
221.658	179.91
221.875	198.48
222.092	183.12
222.309	182.49
222.526	152.5
222.743	154.46
222.96	147
223.177	145.25
223.394	146.24
223.611	140.78
223.828	131.18
224.045	120.81
224.262	127.56
224.479	119.62
224.696	120.3
224.913	116.73
225.13	114.17
225.347	118.17
225.564	124.65
225.781	127.45
225.997	114.58
226.214	125.1
226.431	127.74
226.648	134.91
226.865	132.47
227.082	117.92
227.298	97.52
227.515	102.12
227.732	93.97
227.949	83.86
228.165	77.25
228.382	76.31
228.599	69.18
228.816	68.27
229.032	60.5
229.249	58.13
229.466	64.28
229.682	73.3
229.899	61.74
230.116	60.45
230.332	51.85
230.549	52.98
230.765	63.31
230.982	71.92
231.199	73.94
231.415	81.68
231.632	84.07
231.848	76.42
232.065	86.9
232.281	93.67
232.498	102.64
232.714	114.2
232.931	123.17
233.147	121.07
233.364	127.8
233.58	129.35
233.797	133.93
234.013	118.67
234.23	122.86
234.446	105.01
234.662	103.14
234.879	108.82
235.095	99.15
235.312	97.33
235.528	92.53
235.744	82.84
235.961	79.89
236.177	74.64
236.393	86.97
236.61	81.71
236.826	89.08
237.042	98.79
237.258	95.01
237.475	103.88
237.691	99.4
237.907	102.38
238.123	104.02
238.339	99.84
238.556	88.64
238.772	84.39
238.988	89.44
239.204	87.39
239.42	87.47
239.636	80.46
239.853	74.36
240.069	77.56
240.285	64.2
240.501	61.41
240.717	66.16
240.933	71.98
241.149	72.98
241.365	74.26
241.581	67.89
241.797	60.89
242.013	64.67
242.229	65.58
242.445	61.27
242.661	67.7
242.877	71.91
243.093	67.78
243.309	72.2
243.525	72.98
243.741	75.49
243.957	82.79
244.173	82.27
244.388	72.35
244.604	67.37
244.82	72.72
245.036	69.7
245.252	63.43
245.468	61.18
245.683	56.51
245.899	51.46
246.115	46.16
246.331	40.91
246.547	41.1
246.762	42.51
246.978	44.3
247.194	44.54
247.409	47.56
247.625	50.3
247.841	50.51
248.057	52.67
248.272	56.73
248.488	58.09
248.703	62.33
248.919	64.98
249.135	68.31
249.35	69.45
249.566	63.01
249.782	58.84
249.997	56.3
250.213	58.23
250.428	56.54
250.644	56.39
250.859	58.39
251.075	59.25
251.29	57.93
251.506	52.9
251.721	54.02
251.937	54.55
252.152	58.64
252.368	60.31
252.583	60.36
252.798	64.13
253.014	63.7
253.229	57.73
253.445	56.34
253.66	58.56
253.875	60.34
254.091	56.75
254.306	61.47
254.521	61.95
254.737	59.79
254.952	58.12
255.167	52.37
255.383	54.73
255.598	56.38
255.813	57.73
256.028	55.04
256.244	57.43
256.459	62.81
256.674	60.72
256.889	51.59
257.104	47.71
257.32	49.04
257.535	44.75
257.75	41.02
257.965	42.64
258.18	39.48
258.395	40.14
258.61	37.86
258.826	34.14
259.041	32.39
259.256	32.61
259.471	32.37
259.686	31
259.901	33.82
260.116	34.64
260.331	33.34
260.546	33.8
260.761	33.03
260.976	34.22
261.191	36.71
261.406	37.11
261.621	41.13
261.836	47.46
262.05	46.44
262.265	46.83
262.48	45.99
262.695	42.81
262.91	45.24
263.125	46.21
263.34	47.4
263.555	46.21
263.769	47.83
263.984	48.33
264.199	40.41
264.414	51.43
264.629	47.71
264.843	49.86
265.058	55.23
265.273	52.95
265.488	49.72
265.702	48.31
265.917	49.02
266.132	50.1
266.346	45.98
266.561	50.48
266.776	45.33
266.99	46.66
267.205	47.07
267.42	45.93
267.634	44.78
267.849	44.42
268.063	45.84
268.278	45.47
268.492	39.87
268.707	40.84
268.922	37.82
269.136	39.78
269.351	40.52
269.565	33.04
269.78	31.08
269.994	32.94
270.209	33.1
270.423	32.13
270.637	30
270.852	28.74
271.066	31.19
271.281	30.89
271.495	29.43
271.709	28.39
271.924	30.91
272.138	33.58
272.353	33.33
272.567	34.65
272.781	35.27
272.996	36.94
273.21	41.44
273.424	38.53
273.638	37.53
273.853	35.56
274.067	34.38
274.281	40.21
274.495	40.77
274.71	37.34
274.924	37.84
275.138	39.3
275.352	38.11
275.566	38.07
275.781	40.28
275.995	40.41
276.209	44.65
276.423	45.37
276.637	39.11
276.851	38.31
277.065	43.41
277.279	42.21
277.493	38.71
277.707	37.04
277.921	38.56
278.135	39.31
278.349	39.24
278.563	35.45
278.777	35.6
278.991	31.16
279.205	33.65
279.419	33.84
279.633	36.09
279.847	38.04
280.061	40.52
280.275	38.52
280.489	37.75
280.703	39.6
280.917	41.11
281.131	39.7
281.344	48.37
281.558	45.9
281.772	41.54
281.986	40.51
282.2	39.93
282.414	39.2
282.627	36.47
282.841	38.22
283.055	36.03
283.269	34.8
283.482	35.11
283.696	29.23
283.91	29.87
284.123	29.71
284.337	30.6
284.551	30.48
284.764	31.4
284.978	32.02
285.192	30.17
285.405	31.84
285.619	31.86
285.833	31.13
286.046	33.12
286.26	31.69
286.473	32.3
286.687	30.24
286.9	30.21
287.114	28.4
287.327	27.62
287.541	28.31
287.754	28.03
287.968	33.3
288.181	33.62
288.395	33.27
288.608	31.79
288.822	32.14
289.035	32.7
289.248	31.24
289.462	31.36
289.675	33.78
289.889	33.22
290.102	30.38
290.315	24.43
290.529	24.83
290.742	24.99
290.955	27.76
291.169	27.04
291.382	26.75
291.595	28.63
291.808	28.6
292.022	27.16
292.235	25.73
292.448	27.88
292.661	28.56
292.875	30.27
293.088	28.91
293.301	28.88
293.514	29.07
293.727	29.41
293.94	27.42
294.153	27.43
294.367	27.47
294.58	27.01
294.793	26.22
295.006	27.26
295.219	26.26
295.432	26.3
295.645	26.47
295.858	26.92
296.071	26.11
296.284	26.43
296.497	26.47
296.71	25.39
296.923	26.42
297.136	26.02
297.349	25.75
297.562	25.63
297.775	25.23
297.988	23.76
298.201	22.11
298.414	22.18
298.626	24.77
298.839	22.83
299.052	23.42
299.265	24.18
299.478	25.99
299.691	22.64
299.903	22.34
300.116	22.49
300.329	23.41
300.542	25.58
300.755	25.82
300.967	22.73
301.18	25.19
301.393	25.42
301.605	22.81
301.818	22.42
302.031	26.47
302.243	25.61
302.456	29.5
302.669	30.68
302.881	35.47
303.094	35.63
303.307	36.99
303.519	39.22
303.732	41.54
303.944	44.23
304.157	44.66
304.37	42.96
304.582	45.32
304.795	42.63
305.007	43.62
305.22	38.31
305.432	37.45
305.645	35.8
305.857	32.32
306.069	30.29
306.282	30.5
306.494	31.19
306.707	33.06
306.919	32.52
307.132	32.01
307.344	28.85
307.556	26.78
307.769	26.04
307.981	26.47
308.193	28.19
308.406	29.56
308.618	25.63
308.83	23.18
309.043	23.71
309.255	25.2
309.467	25
309.679	24.41
309.892	26.09
310.104	29.16
310.316	28.8
310.528	28.3
310.74	26.24
310.953	30.01
311.165	31.85
311.377	30.22
311.589	26.46
311.801	27.37
312.013	31.96
312.225	30.52
312.437	29.14
312.649	30.61
312.862	31.85
313.074	33.53
313.286	32.19
313.498	32.37
313.71	35.83
313.922	36.15
314.134	39.27
314.346	36.38
314.558	40.49
314.77	40.79
314.982	39.48
315.193	38.62
315.405	39.36
315.617	37.26
315.829	35.28
316.041	34.01
316.253	36.62
316.465	33.44
316.677	33.8
316.888	34.68
317.1	34.37
317.312	35.38
317.524	35.59
317.736	34.69
317.947	39.16
318.159	41.64
318.371	40.24
318.583	41.06
318.794	41.11
319.006	39.54
319.218	36.58
319.43	39.3
319.641	41
319.853	41.92
320.064	43.36
320.276	41.97
320.488	42.5
320.699	41.31
320.911	39.97
321.123	42.31
321.334	43.25
321.546	42.78
321.757	39.65
321.969	37.94
322.18	36.26
322.392	36.22
322.603	35.01
322.815	33.47
323.026	36.89
323.238	36.6
323.449	34.04
323.661	33.01
323.872	32.91
324.083	33.92
324.295	32.28
324.506	31.54
324.718	32.49
324.929	30.37
325.14	30.66
325.352	28.76
325.563	28.14
325.774	29.83
325.986	32.01
326.197	34.08
326.408	33.22
326.62	34.12
326.831	34.58
327.042	31.71
327.253	32.23
327.464	31.4
327.676	32.27
327.887	33.16
328.098	31.01
328.309	28.21
328.52	27.74
328.732	27.64
328.943	30.24
329.154	32.35
329.365	33.56
329.576	35.14
329.787	38.23
329.998	36.33
330.209	35.83
330.42	36.77
330.631	39.91
330.842	39.67
331.053	40.32
331.264	35.47
331.475	29.47
331.686	30.8
331.897	31.58
332.108	29.19
332.319	30.16
332.53	31.47
332.741	32.49
332.952	34.78
333.163	34.83
333.374	33.39
333.585	34.89
333.795	38.78
334.006	36.25
334.217	34.53
334.428	34.46
334.639	34.23
334.849	31.22
335.06	31.85
335.271	28.91
335.482	32.05
335.692	33.17
335.903	35.25
336.114	36.76
336.325	39.8
336.535	40.26
336.746	38.07
336.957	37.97
337.167	40.09
337.378	39.45
337.589	40.76
337.799	36.44
338.01	38.67
338.22	37.96
338.431	35.61
338.642	35.63
338.852	35.25
339.063	38.02
339.273	39.18
339.484	39.28
339.694	40.05
339.905	36.78
340.115	37.35
340.326	35.18
340.536	35.04
340.746	35.79
340.957	34.51
341.167	34.97
341.378	35
341.588	33.26
341.799	33.3
342.009	34.22
342.219	36.73
342.43	38.49
342.64	38.74
342.85	38.79
343.061	38.27
343.271	38.01
343.481	37.38
343.691	35.82
343.902	35.56
344.112	34.02
344.322	32.35
344.532	31.9
344.743	30.68
344.953	30.09
345.163	28.75
345.373	28.22
345.583	30.28
345.793	31.05
346.004	31.32
346.214	30.94
346.424	32.23
346.634	32.06
346.844	32.46
347.054	33.14
347.264	35.4
347.474	35.81
347.684	37.48
347.894	35.63
348.104	34.63
348.314	34.2
348.524	34.2
348.734	33.88
348.944	32.66
349.154	33.13
349.364	31.17
349.574	27.3
349.784	29
349.994	31.51
350.204	31.46
350.413	32.5
350.623	32.07
350.833	32.63
351.043	30.37
351.253	30.9
351.463	31.6
351.672	32.78
351.882	34.18
352.092	34.02
352.302	32.48
352.511	32.97
352.721	32.15
352.931	32.29
353.141	32.85
353.35	36.93
353.56	35.2
353.77	34.34
353.979	33.28
354.189	32.74
354.399	32.44
354.608	31.33
354.818	30.73
355.027	30.56
355.237	31.26
355.447	30.71
355.656	27.42
355.866	28.91
356.075	28.46
356.285	29.7
356.494	30.92
356.704	31.31
356.913	32.34
357.123	32.26
357.332	32.69
357.542	31.87
357.751	32.4
357.96	34.4
358.17	34.06
358.379	33.13
358.589	32.15
358.798	29.23
359.007	27.76
359.217	26.95
359.426	25.96
359.635	23.84
359.845	23.01
360.054	21.06
360.263	20.44
360.472	20.63
360.682	19.86
360.891	20.02
361.1	21.62
361.309	22.01
361.519	21.78
361.728	21.54
361.937	23.43
362.146	25.26
362.355	27.4
362.564	27.02
362.774	27.57
362.983	27.79
363.192	27.68
363.401	28.82
363.61	27.79
363.819	28.8
364.028	29.1
364.237	29.68
364.446	30.33
364.655	29.48
364.864	29.59
365.073	30
365.282	32.33
365.491	32.69
365.7	30.55
365.909	30.28
366.118	28.87
366.327	28.71
366.536	29.13
366.745	27.9
366.954	28.31
367.162	28.86
367.371	27.79
367.58	28.18
367.789	28.34
367.998	28.76
368.207	29.78
368.415	30.29
368.624	31.35
368.833	30.43
369.042	31.68
369.25	31.59
369.459	31.56
369.668	31.77
369.877	30.24
370.085	29.24
370.294	29.54
370.503	30.82
370.711	30.67
370.92	31.06
371.129	29.82
371.337	29.1
371.546	28.67
371.754	29.7
371.963	28.66
372.171	27.93
372.38	27.5
372.589	27.44
372.797	25.43
373.006	26.33
373.214	24.85
373.423	27.09
373.631	27.43
373.84	26.3
374.048	24.68
374.256	25.16
374.465	25.83
374.673	26.07
374.882	25.93
375.09	26.13
375.298	24.98
375.507	26.74
375.715	25.46
375.923	24
376.132	24.11
376.34	24.44
376.548	25.25
376.757	23.66
376.965	23.18
377.173	23.08
377.381	22.55
377.59	22.92
377.798	21.65
378.006	22.69
378.214	23.6
378.423	24.67
378.631	23.12
378.839	22.76
379.047	24.04
379.255	24.45
379.463	25.03
379.671	26.98
379.879	26.02
380.088	25.88
380.296	25.26
380.504	25.83
380.712	25.32
380.92	26.2
381.128	25.16
381.336	25.38
381.544	25.55
381.752	25.65
381.96	25.22
382.168	27.3
382.376	27.23
382.584	26.03
382.791	25.27
382.999	24.56
383.207	24.95
383.415	26.77
383.623	27.16
383.831	28.69
384.039	28.59
384.247	28.44
384.454	28.06
384.662	28.22
384.87	27.6
385.078	27.24
385.285	26.91
385.493	26.4
385.701	24.83
385.909	23.84
386.116	22.98
386.324	22.9
386.532	22.37
386.739	21.2
386.947	20.49
387.155	21.88
387.362	22.33
387.57	23.32
387.778	22.87
387.985	22.52
388.193	22.44
388.4	22.31
388.608	21.12
388.816	21.04
389.023	20.61
389.231	19.93
389.438	20.19
389.646	19.73
389.853	20.16
390.061	20.09
390.268	20.6
390.475	20.31
390.683	19.82
390.89	20.66
391.098	20.8
391.305	21.69
391.512	23.12
391.72	22.14
391.927	21.46
392.135	19.96
392.342	20.54
392.549	20.99
392.756	20.95
392.964	20.34
393.171	20.35
393.378	19.81
393.586	18.05
393.793	17.45
394	17.64
394.207	18.14
394.414	18.72
394.622	19.33
394.829	19.01
395.036	19.17
395.243	20.6
395.45	20.23
395.657	20
395.864	22.18
396.072	22.47
396.279	22.08
396.486	21.72
396.693	22.87
396.9	21.87
397.107	21.15
397.314	21.56
397.521	21.4
397.728	20.12
397.935	21.12
398.142	19.57
398.349	19.94
398.556	19.54
398.763	20.33
398.97	19.48
399.177	20.24
399.383	20.05
399.59	19.69
399.797	19.19
400.004	20.41
400.211	20.23
400.418	21.02
400.625	19.39
400.831	19.71
401.038	19.17
401.245	18.7
401.452	18.5
401.658	18.78
401.865	18.64
402.072	18.41
402.279	19.03
402.485	17.53
402.692	17.28
402.899	19.28
403.105	19.3
403.312	20.5
403.519	20.55
403.725	19.5
403.932	19.5
404.138	18.54
404.345	18.22
404.552	17.72
404.758	18.36
404.965	18.48
405.171	16.77
405.378	17.05
405.584	16.32
405.791	16.19
405.997	17.22
406.204	17.15
406.41	17.64
406.617	18.05
406.823	17.67
407.029	19.25
407.236	18.37
407.442	19.14
407.649	20.25
407.855	19.82
408.061	20.04
408.268	20.14
408.474	21.67
408.68	22.17
408.887	21.61
409.093	22.59
409.299	20.86
409.505	21.78
409.712	22.04
409.918	20.46
410.124	20.56
410.33	21.11
410.537	20.07
410.743	19.6
410.949	20.03
411.155	19.75
411.361	19.79
411.567	20.59
411.773	20.44
411.98	19.57
412.186	20.13
412.392	20.5
412.598	20.06
412.804	20.99
413.01	20.78
413.216	19.99
413.422	20.28
413.628	19.39
413.834	18.91
414.04	18.81
414.246	19.21
414.452	19.23
414.658	18.95
414.864	19.04
415.07	18.83
415.275	18.85
415.481	19.44
415.687	19.33
415.893	18.59
416.099	18.86
416.305	18.24
416.511	17.29
416.716	16.31
416.922	16.18
417.128	15.12
417.334	14.71
417.539	14.06
417.745	13.74
417.951	12.52
418.157	13.5
418.362	12.72
418.568	12.68
418.774	12.35
418.979	12.93
419.185	12.88
419.391	13.58
419.596	14.08
419.802	14.08
420.008	14.06
420.213	15.24
420.419	14.86
420.624	15.07
420.83	15.32
421.035	15.54
421.241	15.59
421.446	15.45
421.652	15.29
421.857	14.77
422.063	14.76
422.268	14.79
422.474	14.63
422.679	14.36
422.885	14.43
423.09	14.23
423.295	14.03
423.501	14.09
423.706	13.76
423.911	13.63
424.117	13.4
424.322	13.55
424.527	13.52
424.733	13.71
424.938	13.36
425.143	13.67
425.349	13.6
425.554	13.78
425.759	13.82
425.964	13.8
426.169	13.73
426.375	14.61
426.58	14.59
426.785	14.74
426.99	14.31
427.195	14.64
427.4	14.38
427.605	13.79
427.811	14.75
428.016	14.04
428.221	15.19
428.426	14.79
428.631	14.67
428.836	14.63
429.041	14.32
429.246	14.39
429.451	14.74
429.656	15
429.861	16.01
430.066	15.91
430.271	16.76
430.476	15.86
430.681	16.77
430.886	15.67
431.09	16.09
431.295	15.71
431.5	15.65
431.705	16.01
431.91	15.74
432.115	15.12
432.32	14.41
432.524	14.02
432.729	14.49
432.934	14.38
433.139	14.36
433.343	13.52
433.548	13.35
433.753	13.41
433.958	13.02
434.162	12.33
434.367	12.44
434.572	12.44
434.776	12.27
434.981	12.18
435.186	11.53
435.39	11.83
435.595	12.43
435.799	13.3
436.004	12.99
436.209	13.32
436.413	13.7
436.618	13.83
436.822	14.33
437.027	13.99
437.231	13.38
437.436	12.71
437.64	12.49
437.845	11.78
438.049	11.61
438.253	11.67
438.458	10.8
438.662	10.77
438.867	10.63
439.071	10.72
439.275	11.15
439.48	11.22
439.684	11.65
439.888	11.94
440.093	12.04
440.297	11.83
440.501	12.13
440.706	12.77
440.91	13
441.114	13.06
441.318	12.86
441.523	12.57
441.727	12.76
441.931	13.07
442.135	12.6
442.339	13.2
442.543	13.37
442.748	13.39
442.952	13.61
443.156	13.7
443.36	13.95
443.564	13.74
443.768	13.96
443.972	14.24
444.176	13.93
444.38	14.4
444.584	13.87
444.788	12.96
444.992	12.87
445.196	12.36
445.4	12.28
445.604	11.96
445.808	12.12
446.012	12.14
446.216	11.6
446.42	11.57
446.624	11.5
446.828	11.76
447.032	12.62
447.235	12.23
447.439	12.32
447.643	12.26
447.847	12.16
448.051	12.63
448.254	12.6
448.458	13.23
448.662	13.62
448.866	13.25
449.069	13.35
449.273	13.19
449.477	13.14
449.681	13.48
449.884	13.95
450.088	14.13
450.292	13.37
450.495	13.29
450.699	13.07
450.902	13.29
451.106	14.24
451.31	14.51
451.513	14.3
451.717	14.37
451.92	13.99
452.124	13.39
452.327	13.66
452.531	12.99
452.734	13.5
452.938	13.19
453.141	13.53
453.345	12.86
453.548	12.14
453.752	12.51
453.955	13.13
454.158	13.68
454.362	13.9
454.565	13.8
454.769	15.04
454.972	15.01
455.175	15.08
455.379	14.5
455.582	15.01
455.785	15.22
455.988	15.64
456.192	15.65
456.395	15.06
456.598	16.03
456.801	16.22
457.005	15.59
457.208	15.21
457.411	15.19
457.614	14.57
457.817	14.44
458.021	14.13
458.224	13.24
458.427	12.83
458.63	12.86
458.833	11.46
459.036	10.85
459.239	10.98
459.442	10.8
459.645	10.96
459.848	11
460.051	10.91
460.254	11.28
460.457	11.29
460.66	11.49
460.863	11.88
461.066	12.65
461.269	12.51
461.472	12.65
461.675	12.92
461.878	12.4
462.081	13.07
462.284	12.93
462.486	12.79
462.689	12.76
462.892	12.9
463.095	12.55
463.298	12.93
463.5	14.54
463.703	14.47
463.906	14.14
464.109	14.89
464.311	14.77
464.514	15.47
464.717	15.48
464.92	15.47
465.122	14.9
465.325	14.65
465.528	14.19
465.73	13.41
465.933	13.25
466.135	13.4
466.338	12.71
466.541	12.63
466.743	12.03
466.946	12.17
467.148	11.96
467.351	12.46
467.553	12.18
467.756	12.26
467.958	12.01
468.161	12.19
468.363	12.15
468.566	12.78
468.768	13.27
468.971	13.63
469.173	13.69
469.375	14.05
469.578	13.84
469.78	14.24
469.983	14.56
470.185	15.05
470.387	15.05
470.59	15.49
470.792	15.18
470.994	14.98
471.196	15.28
471.399	15.05
471.601	15.03
471.803	14.52
472.005	14.38
472.208	13.4
472.41	13.32
472.612	13.74
472.814	13
473.016	13.5
473.218	12.65
473.421	11.82
473.623	11.67
473.825	12.09
474.027	12.68
474.229	13.24
474.431	13.83
474.633	13.6
474.835	13.62
475.037	14
475.239	13.62
475.441	14.79
475.643	15.21
475.845	15.5
476.047	15.61
476.249	15.25
476.451	15.28
476.653	15.01
476.855	15.17
477.057	15.29
477.258	15.26
477.46	15.35
477.662	14.85
477.864	14.54
478.066	14.15
478.268	13.81
478.469	14.27
478.671	13.44
478.873	13.62
479.075	13.67
479.276	13.36
479.478	13.14
479.68	12.52
479.882	12.48
480.083	12.1
480.285	12.18
480.487	12.2
480.688	11.77
480.89	12.07
481.091	11.61
481.293	11.25
481.495	10.76
481.696	10.54
481.898	10.4
482.099	9.98
482.301	9.92
482.502	9.78
482.704	9.44
482.905	9.16
483.107	8.95
483.308	8.87
483.51	8.74
483.711	8.69
483.913	8.56
484.114	8.63
484.315	8.75
484.517	8.87
484.718	8.95
484.92	9.02
485.121	9.02
485.322	9.15
485.524	9.51
485.725	9.57
485.926	9.62
486.127	9.79
486.329	9.6
486.53	9.56
486.731	9.49
486.932	9.36
487.134	9.46
487.335	9.75
487.536	9.87
487.737	9.64
487.938	9.71
488.139	9.86
488.341	9.82
488.542	10.12
488.743	10.46
488.944	10.45
489.145	10.48
489.346	10.67
489.547	10.59
489.748	10.62
489.949	11.02
490.15	11.05
490.351	10.89
490.552	11.13
490.753	11.09
490.954	10.72
491.155	10.85
491.356	10.7
491.557	10.58
491.758	10.63
491.959	10.56
492.159	10.15
492.36	10.3
492.561	10.29
492.762	10.49
492.963	10.84
493.164	11.08
493.364	10.93
493.565	11.34
493.766	11.75
493.967	11.56
494.167	11.8
494.368	12.24
494.569	12.01
494.769	12.59
494.97	12.36
495.171	12.08
495.371	12.45
495.572	12.43
495.773	12.5
495.973	12.41
496.174	12.61
496.375	12.23
496.575	12.09
496.776	12.47
496.976	12.55
497.177	12.35
497.377	11.9
497.578	11.71
497.778	12.01
497.979	12.13
498.179	12.02
498.38	11.62
498.58	11.89
498.78	12.21
498.981	12.22
499.181	12.27
499.382	12.64
499.582	13.05
499.782	13.04
499.983	12.86
500.183	12.7
500.383	13.02
500.584	13.69
500.784	13.61
500.984	13.42
501.184	13.57
501.385	13.6
501.585	13.48
501.785	13.94
501.985	14.26
502.185	14.29
502.386	14.47
502.586	14.1
502.786	14.55
502.986	13.93
503.186	14.01
503.386	14.03
503.586	14.04
503.786	13.95
503.987	13.87
504.187	13.37
504.387	14.07
504.587	14.13
504.787	14.88
504.987	14.74
505.187	16.01
505.387	16.42
505.587	16.55
505.786	16.5
505.986	17.09
506.186	16.87
506.386	17.33
506.586	17.34
506.786	17.13
506.986	16.85
507.186	16.72
507.386	16.56
507.585	16.04
507.785	15.56
507.985	15.63
508.185	15.25
508.384	15.49
508.584	15.37
508.784	15.08
508.984	14.94
509.183	14.71
509.383	14.96
509.583	15.17
509.782	15.67
509.982	16.02
510.182	15.57
510.381	15.69
510.581	15.61
510.781	15.77
510.98	15.43
511.18	16.23
511.379	15.93
511.579	15.46
511.778	15.59
511.978	15.56
512.177	15.41
512.377	15.74
512.576	15.89
512.776	16.13
512.975	15.97
513.175	16.3
513.374	16.08
513.573	17.16
513.773	18.05
513.972	17.65
514.172	17.86
514.371	17.98
514.57	18.51
514.77	19.2
514.969	18.84
515.168	19.16
515.367	19.27
515.567	18.96
515.766	18.27
515.965	17.85
516.164	18.34
516.364	18.31
516.563	18.6
516.762	18.2
516.961	17.8
517.16	17.61
517.359	17.54
517.559	17.71
517.758	17.43
517.957	17.43
518.156	17.73
518.355	17.23
518.554	17.3
518.753	17.21
518.952	17.27
519.151	17.04
519.35	17.68
519.549	18.13
519.748	18.51
519.947	18.86
520.146	19.11
520.345	18.85
520.544	19.47
520.743	19.64
520.942	19.84
521.141	20.12
521.339	20.19
521.538	19.98
521.737	19.64
521.936	19.03
522.135	19.67
522.333	19.64
522.532	19.63
522.731	19.1
522.93	19.07
523.129	18.85
523.327	18.99
523.526	19.42
523.725	19.65
523.923	19.76
524.122	20.15
524.321	20.09
524.519	20.42
524.718	20.28
524.917	20.25
525.115	20.34
525.314	20.26
525.512	20.19
525.711	19.73
525.909	19.16
526.108	18.81
526.306	18.6
526.505	18.53
526.703	18.29
526.902	18.36
527.1	18.55
527.299	18.27
527.497	18.29
527.696	18.14
527.894	18.14
528.092	18.33
528.291	18.55
528.489	18.6
528.688	18.6
528.886	18.78
529.084	19.02
529.283	19.04
529.481	19.41
529.679	19.75
529.877	20.18
530.076	20.45
530.274	20.83
530.472	20.82
530.67	20.88
530.869	20.87
531.067	20.82
531.265	20.63
531.463	20.92
531.661	20.48
531.859	20.19
532.057	19.81
532.255	20.09
532.454	20.11
532.652	20.2
532.85	20.5
533.048	20.71
533.246	20.78
533.444	21.06
533.642	20.88
533.84	21.16
534.038	21.41
534.236	21.76
534.434	22.03
534.632	22.36
534.83	22.48
535.027	22.3
535.225	22.38
535.423	22.4
535.621	22.37
535.819	22
536.017	22.08
536.215	22.17
536.412	22.47
536.61	22.22
536.808	22.64
537.006	22.98
537.203	23.66
537.401	23.67
537.599	23.76
537.797	24.07
537.994	24.74
538.192	24.8
538.39	24.65
538.587	24.82
538.785	25
538.983	24.72
539.18	24.83
539.378	24.46
539.575	24.34
539.773	24.29
539.97	24.07
540.168	24.21
540.366	24.32
540.563	24.48
540.761	24.14
540.958	24.26
541.155	23.97
541.353	23.89
541.55	23.91
541.748	24.21
541.945	24.06
542.143	24.07
542.34	24.19
542.537	24.52
542.735	24.62
542.932	24.83
543.129	24.74
543.327	25.1
543.524	25.37
543.721	25.52
543.919	25.43
544.116	26.04
544.313	26.44
544.51	26.39
544.708	25.93
544.905	25.92
545.102	26.2
545.299	26.3
545.496	26.32
545.693	25.8
545.891	25.75
546.088	25.84
546.285	25.93
546.482	26.06
546.679	26.33
546.876	26.93
547.073	27.9
547.27	27.68
547.467	28.01
547.664	28.21
547.861	29.31
548.058	29.89
548.255	30.44
548.452	30.39
548.649	30.4
548.846	30.45
549.043	30.36
549.24	29.96
549.437	30.59
549.633	30.46
549.83	30.72
550.027	30.9
550.224	30.98
550.421	30.26
550.618	31.02
550.814	31.22
551.011	31.1
551.208	31.14
551.405	30.57
551.601	30.09
551.798	30
551.995	29.65
552.191	29.32
552.388	29.11
552.585	29.87
552.781	29.61
552.978	29.59
553.175	30.35
553.371	30.48
553.568	31.03
553.764	31.97
553.961	32.36
554.157	33
554.354	32.68
554.55	33.09
554.747	33.25
554.943	33.9
555.14	34.63
555.336	34.78
555.533	35.31
555.729	35.97
555.926	35.15
556.122	35.06
556.318	34.99
556.515	35.45
556.711	35.66
556.907	36.22
557.104	36.51
557.3	36.46
557.496	36.23
557.693	36.09
557.889	35.9
558.085	36.31
558.281	37.43
558.478	37.89
558.674	37.85
558.87	37.48
559.066	36.69
559.262	36.5
559.459	36.55
559.655	36.62
559.851	37.02
560.047	36.4
560.243	36.83
560.439	36.51
560.635	36.11
560.831	36.37
561.027	36.83
561.223	37.19
561.419	37.61
561.615	36.97
561.811	37.52
562.007	37.35
562.203	37.9
562.399	38.4
562.595	38.29
562.791	39.42
562.987	39.23
563.183	39.26
563.379	39.64
563.575	39.12
563.771	40.11
563.966	39.1
564.162	38.84
564.358	39.07
564.554	38.72
564.75	38.28
564.945	37.56
565.141	37.81
565.337	37.83
565.533	37.78
565.728	37.38
565.924	37.1
566.12	37.73
566.315	38.21
566.511	38.12
566.707	38.47
566.902	39.23
567.098	39.99
567.293	39.9
567.489	40.25
567.684	40.6
567.88	41.22
568.076	41.23
568.271	41.61
568.467	41.31
568.662	41.63
568.858	41.54
569.053	41.38
569.248	40.79
569.444	41.13
569.639	40.83
569.835	41.07
570.03	41.33
570.225	41.34
570.421	41.39
570.616	41.09
570.812	40.72
571.007	41
571.202	40.96
571.397	41.32
571.593	41.23
571.788	40.91
571.983	40.53
572.178	40.87
572.374	40.81
572.569	40.18
572.764	41.23
572.959	40.85
573.154	40.77
573.35	40.49
573.545	40.56
573.74	41.09
573.935	41.72
574.13	42.13
574.325	41.23
574.52	41.75
574.715	42.07
574.91	41.59
575.105	42.46
575.3	42.58
575.495	43.45
575.69	43.19
575.885	43.38
576.08	43.59
576.275	42.96
576.47	43.55
576.665	43.57
576.86	43.83
577.055	43.86
577.25	43.75
577.444	43.42
577.639	43.58
577.834	43.85
578.029	44.54
578.224	44.79
578.418	45.81
578.613	45.68
578.808	45.9
579.003	46
579.197	46.66
579.392	47.21
579.587	48.05
579.781	47.88
579.976	47.83
580.171	47.32
580.365	47.49
580.56	47.61
580.755	48.37
580.949	49.07
581.144	49.64
581.338	50.09
581.533	49.8
581.727	49.68
581.922	49.5
582.116	50.3
582.311	50.17
582.505	49.45
582.7	49.5
582.894	49.56
583.089	48.8
583.283	48.84
583.478	48.08
583.672	48.22
583.866	47.8
584.061	48.43
584.255	48.2
584.449	48.99
584.644	49.8
584.838	49.96
585.032	49.98
585.226	50.39
585.421	50.14
585.615	50.13
585.809	50.55
586.003	51.19
586.198	50.94
586.392	51.21
586.586	50.93
586.78	50.81
586.974	50.49
587.168	49.92
587.363	50.06
587.557	50.67
587.751	51.44
587.945	50.74
588.139	50.25
588.333	50.15
588.527	50.04
588.721	49.74
588.915	49.61
589.109	48.99
589.303	49.49
589.497	49.5
589.691	48.91
589.885	48.55
590.079	49.29
590.273	49.7
590.466	49.78
590.66	50.14
590.854	50.01
591.048	49.89
591.242	50.32
591.436	50.28
591.629	50.55
591.823	50.47
592.017	50.27
592.211	50.05
592.404	50.32
592.598	50.28
592.792	49.17
592.986	48.94
593.179	49.12
593.373	49.08
593.567	49.69
593.76	49.56
593.954	49.17
594.147	50.03
594.341	50.28
594.535	49.87
594.728	50.36
594.922	50.87
595.115	51.59
595.309	52
595.502	52.01
595.696	51.28
595.889	50.83
596.083	51.5
596.276	50.6
596.47	50.51
596.663	50.23
596.856	49.81
597.05	49.71
597.243	49.22
597.437	48.64
597.63	48.39
597.823	49.07
598.017	49.2
598.21	49.6
598.403	50.65
598.596	50.88
598.79	51.79
598.983	51.85
599.176	52.99
599.369	53.46
599.563	54.03
599.756	54.77
599.949	54.38
600.142	54.58
600.335	53.77
600.528	52.81
600.722	53.1
600.915	52.94
601.108	53.18
601.301	52.22
601.494	51.98
601.687	51.27
601.88	51.25
602.073	51.34
602.266	51.31
602.459	51.39
602.652	52.05
602.845	50.98
603.038	50.76
603.231	50.64
603.424	51.03
603.617	50.41
603.809	51.02
604.002	50.13
604.195	49.7
604.388	49.86
604.581	50.43
604.774	50.35
604.966	51.06
605.159	51.32
605.352	51.14
605.545	50.91
605.737	52.03
605.93	52.12
606.123	53.15
606.316	53.91
606.508	54.33
606.701	53.49
606.894	52.46
607.086	52.56
607.279	52.42
607.471	53.15
607.664	53.16
607.857	52.88
608.049	52.13
608.242	52.15
608.434	51.58
608.627	51.2
608.819	51.41
609.012	52.26
609.204	52.24
609.397	52.22
609.589	51.98
609.782	52.18
609.974	52.13
610.166	53.05
610.359	53.45
610.551	54.53
610.743	54.42
610.936	54.94
611.128	55.28
611.32	55.27
611.513	55.42
611.705	55.8
611.897	56.53
612.09	57.28
612.282	57.34
612.474	58.05
612.666	58.31
612.858	59.56
613.051	59.17
613.243	59.22
613.435	60.35
613.627	60.91
613.819	60.95
614.011	60.62
614.203	60.55
614.395	59.78
614.588	58.39
614.78	57.41
614.972	56.94
615.164	58.03
615.356	58.17
615.548	57.16
615.74	57.15
615.932	56.92
616.124	56.85
616.315	57.13
616.507	58.03
616.699	58.92
616.891	59.34
617.083	59.12
617.275	58.83
617.467	57.52
617.659	58.72
617.85	58.71
618.042	58.93
618.234	58.61
618.426	58.29
618.618	58.88
618.809	58.37
619.001	58.09
619.193	58.51
619.384	58.65
619.576	59.96
619.768	59.4
619.959	59.4
620.151	59.06
620.343	59.31
620.534	59.55
620.726	60.06
620.917	60.19
621.109	59.95
621.301	59.75
621.492	59.96
621.684	59.95
621.875	59.4
622.067	59.27
622.258	60.19
622.45	59.79
622.641	59.24
622.832	57.78
623.024	56.97
623.215	56.57
623.407	56.95
623.598	56.46
623.789	55.58
623.981	55.73
624.172	56.18
624.363	56.17
624.555	57.38
624.746	58.36
624.937	58.3
625.129	59.65
625.32	59.54
625.511	58.62
625.702	57.63
625.893	57.64
626.085	57.4
626.276	56.39
626.467	55.24
626.658	54.31
626.849	53.49
627.04	53.18
627.231	53.25
627.422	53.6
627.614	53.81
627.805	54.64
627.996	55.1
628.187	55.34
628.378	55.93
628.569	57.12
628.76	56.4
628.951	56.5
629.142	57.01
629.332	56.83
629.523	57.46
629.714	57.77
629.905	57.49
630.096	56.79
630.287	57.43
630.478	57.88
630.669	57.95
630.859	59.86
631.05	59.87
631.241	59.67
631.432	60.01
631.623	60.55
631.813	59.96
632.004	60.15
632.195	60.56
632.385	60.01
632.576	59.7
632.767	59.34
632.957	57.84
633.148	57.43
633.339	58.14
633.529	57.05
633.72	56.31
633.91	56.73
634.101	56.74
634.292	57.03
634.482	56.43
634.673	56.83
634.863	57.43
635.054	58.64
635.244	59.64
635.435	59.99
635.625	60.01
635.815	60.18
636.006	60.83
636.196	61.06
636.387	61.47
636.577	62.62
636.767	62.46
636.958	61.73
637.148	61.29
637.338	60.1
637.529	59.44
637.719	60.69
637.909	61.8
638.099	60.67
638.29	60.31
638.48	60.08
638.67	59.31
638.86	59.12
639.05	59.35
639.241	59.81
639.431	60.78
639.621	61.12
639.811	60.81
640.001	60.4
640.191	60.84
640.381	61.23
640.571	61.5
640.761	61.06
640.951	61.71
641.141	61.86
641.331	61.43
641.521	61.05
641.711	61.28
641.901	61.24
642.091	60.94
642.281	59.82
642.471	60.89
642.661	61.4
642.851	62.62
643.041	61.5
643.231	62.51
643.42	62.49
643.61	62.74
643.8	61.35
643.99	60.24
644.18	60.84
644.369	63.15
644.559	62.09
644.749	61.2
644.939	61.48
645.128	62.39
645.318	61.03
645.508	60.91
645.697	61.5
645.887	62.93
646.076	63.44
646.266	63.1
646.456	61.74
646.645	62.66
646.835	62.13
647.024	61.37
647.214	60.52
647.403	61.09
647.593	60.78
647.782	60.91
647.972	60.88
648.161	60.49
648.351	59.67
648.54	60.7
648.73	60.33
648.919	61.27
649.108	60.45
649.298	60.8
649.487	60.23
649.677	61.14
649.866	60.97
650.055	60.89
650.244	61.02
650.434	61.2
650.623	61.57
650.812	61.12
651.002	61.67
651.191	63.19
651.38	64.16
651.569	65.01
651.758	64.19
651.947	63.25
652.137	63.57
652.326	64.92
652.515	65.89
652.704	64.74
652.893	65.18
653.082	64.83
653.271	64.37
653.46	63.67
653.649	62.8
653.838	62.7
654.027	63.67
654.216	63.18
654.405	61.97
654.594	62.32
654.783	63.09
654.972	62.41
655.161	62.59
655.35	62.43
655.539	61.8
655.728	61.61
655.916	61.88
656.105	60.44
656.294	60.36
656.483	60.39
656.672	57.8
656.86	56.77
657.049	56.71
657.238	56.51
657.427	57.16
657.615	56.71
657.804	56.86
657.993	56.78
658.181	57.51
658.37	57.61
658.559	57.82
658.747	59.48
658.936	60.42
659.125	61.23
659.313	61.5
659.502	61.13
659.69	62.16
659.879	62.24
660.067	62.56
660.256	63.04
660.444	62.44
660.633	62.28
660.821	62.86
661.01	62.72
661.198	62.91
661.387	63.58
661.575	64.43
661.763	63.69
661.952	63.54
662.14	64.03
662.328	64.28
662.517	65.77
662.705	65.78
662.893	65.61
663.082	65.31
663.27	64.73
663.458	63.9
663.646	63.19
663.834	64.91
664.023	66.13
664.211	66.27
664.399	65.11
664.587	64.02
664.775	64.75
664.963	64.64
665.152	65.43
665.34	63.99
665.528	65.06
665.716	65.44
665.904	65.06
666.092	63.8
666.28	63.16
666.468	64.07
666.656	64.42
666.844	65.17
667.032	64.43
667.22	64.45
667.408	66.69
667.596	65.86
667.784	65.86
667.971	65.43
668.159	65.89
668.347	67.26
668.535	66.49
668.723	67.14
668.911	66.2
669.098	68.73
669.286	68.58
669.474	67.12
669.662	66.27
669.849	66.25
670.037	65.51
670.225	65.67
670.413	63.84
670.6	65.92
670.788	64.46
670.976	64.27
671.163	62.61
671.351	62.32
671.538	64.88
671.726	64.53
671.913	65.26
672.101	66.15
672.289	65.82
672.476	65.86
672.664	63.42
672.851	65.31
673.039	66.11
673.226	65.65
673.413	64.61
673.601	62.54
673.788	62.58
673.976	61.32
674.163	61.07
674.35	62.3
674.538	63.83
674.725	64.35
674.912	62.93
675.1	64.2
675.287	64.02
675.474	63.81
675.662	65.64
675.849	67.04
676.036	67.23
676.223	67.75
676.411	66.8
676.598	65.68
676.785	65.19
676.972	66.45
677.159	64.24
677.346	62.89
677.533	64.11
677.721	62.05
677.908	61.16
678.095	60.94
678.282	60.24
678.469	60.16
678.656	59.44
678.843	59.68
679.03	59.62
679.217	59.87
679.404	59.78
679.591	58.79
679.778	59.58
679.964	59.77
680.151	60.84
680.338	60.78
680.525	61.43
680.712	62.17
680.899	63.55
681.086	62.41
681.272	63.16
681.459	65.19
681.646	66.32
681.833	65.28
682.02	65.17
682.206	63.23
682.393	64.18
682.58	64.27
682.766	64.11
682.953	63.2
683.14	64.82
683.326	64.48
683.513	63.03
683.7	63.54
683.886	64.58
684.073	65.86
684.259	67
684.446	66.88
684.632	67.37
684.819	67.46
685.005	68.84
685.192	68.87
685.378	69.34
685.565	70.21
685.751	71.02
685.938	70.18
686.124	68.47
686.31	69
686.497	68.79
686.683	67.11
686.87	67.78
687.056	65.72
687.242	66
687.429	65.5
687.615	64.45
687.801	62.86
687.987	62.51
688.174	63.04
688.36	62.35
688.546	62.63
688.732	63.1
688.918	63.1
689.105	63.53
689.291	62.02
689.477	61.64
689.663	62.94
689.849	62.88
690.035	65.01
690.221	65.48
690.407	66.45
690.593	65.91
690.779	66.71
690.965	66.83
691.151	68.62
691.337	70.54
691.523	70.55
691.709	70.34
691.895	71.74
692.081	71.3
692.267	71.33
692.453	70.9
692.639	71.73
692.825	71.49
693.011	71.24
693.196	68.92
693.382	68.45
693.568	70.61
693.754	70.68
693.94	68.24
694.125	68.5
694.311	68.81
694.497	69.95
694.682	69.55
694.868	70.47
695.054	69.94
695.239	71.55
695.425	71.32
695.611	71.02
695.796	70.11
695.982	71.7
696.168	72.13
696.353	70.51
696.539	68.92
696.724	68.69
696.91	66.64
697.095	66.68
697.281	65.22
697.466	64.63
697.652	64.62
697.837	64.16
698.023	62.66
698.208	61.49
698.393	61.14
698.579	61.91
698.764	61.78
698.949	62.92
699.135	63.16
699.32	64.25
699.505	64.08
699.691	63.33
699.876	64.52
700.061	67.2
700.246	67.09
700.432	69.29
700.617	70.1
700.802	72.78
700.987	73.07
701.172	74.78
701.358	75.92
701.543	76.55
701.728	77.64
701.913	75.97
702.098	75.05
702.283	77.87
702.468	75.85
702.653	74.59
702.838	71.22
703.023	72.64
703.208	71.36
703.393	70.09
703.578	69.21
703.763	69.48
703.948	70.98
704.133	71.34
704.318	69.91
704.503	70.68
704.688	70.01
704.873	71.68
705.057	69.61
705.242	69.1
705.427	67.4
705.612	67.74
705.797	67.89
705.981	70.56
706.166	71.22
706.351	71.74
706.536	71.54
706.72	71.65
706.905	70.67
707.09	72.71
707.274	73.25
707.459	75.92
707.644	76.91
707.828	75.92
708.013	73.56
708.197	73.68
708.382	74.14
708.567	74.89
708.751	76.33
708.936	75.74
709.12	73.88
709.305	73.4
709.489	72.12
709.673	71.42
709.858	71.15
710.042	69.15
710.227	67.49
710.411	66.64
710.596	66.75
710.78	67.27
710.964	67.84
711.149	68.42
711.333	67.09
711.517	66.09
711.702	65.69
711.886	64.78
712.07	66.14
712.254	67.64
712.438	68.69
712.623	70.2
712.807	68.87
712.991	68.73
713.175	70.14
713.359	71.18
713.544	72.63
713.728	72.44
713.912	72.01
714.096	74.34
714.28	73.05
714.464	74.3
714.648	72.95
714.832	71.31
715.016	73.78
715.2	71.72
715.384	71.85
715.568	72.34
715.752	72.36
715.936	73.89
716.12	72.73
716.304	71.65
716.488	68.21
716.671	68.07
716.855	70.82
717.039	67.55
717.223	67.81
717.407	67.31
717.59	66.13
717.774	65.44
717.958	64.66
718.142	63.65
718.325	63.22
718.509	62.78
718.693	61.74
718.877	60.89
719.06	63.48
719.244	63.45
719.428	67.13
719.611	69.55
719.795	73.4
719.978	74.64
720.162	75.42
720.345	76.59
720.529	77.34
720.713	79.06
720.896	78.28
721.08	77.26
721.263	79.68
721.446	78.35
721.63	77.51
721.813	73.62
721.997	72
722.18	70.78
722.364	72.8
722.547	75.58
722.73	73.22
722.914	73.54
723.097	73.11
723.28	69.94
723.464	69.48
723.647	71.81
723.83	72.42
724.013	75.42
724.197	75.21
724.38	75.51
724.563	73.27
724.746	73.14
724.929	74.46
725.112	75.75
725.296	78.33
725.479	77.02
725.662	73.35
725.845	75.27
726.028	73.62
726.211	73.48
726.394	71.89
726.577	72.42
726.76	73.07
726.943	71.17
727.126	68.67
727.309	66.98
727.492	68.73
727.675	67.64
727.858	63.26
728.041	63.77
728.224	64.06
728.407	62.88
728.589	61.19
728.772	61.98
728.955	62.54
729.138	62.86
729.321	62.41
729.503	61.36
729.686	61.16
729.869	65.95
730.052	65.84
730.234	66.09
730.417	65.69
730.6	68.72
730.782	68.89
730.965	67.57
731.148	68.19
731.33	68.27
731.513	68.56
731.695	69.89
731.878	70.59
732.061	70.09
732.243	70.94
732.426	70.75
732.608	70.9
732.791	69.35
732.973	71.2
733.156	70.72
733.338	72.51
733.52	72.67
733.703	73.33
733.885	70.52
734.068	69.5
734.25	69.52
734.432	72.83
734.615	71.05
734.797	73.61
734.979	74.61
735.162	77.24
735.344	77.79
735.526	76.61
735.708	77.53
735.891	75.54
736.073	78.66
736.255	76.28
736.437	74.81
736.619	77.21
736.802	75.3
736.984	73.76
737.166	74.44
737.348	75.19
737.53	78.59
737.712	77.07
737.894	78.78
738.076	79.5
738.258	83.95
738.44	86.62
738.622	86.28
738.804	89.15
738.986	90.8
739.168	89.14
739.35	87.49
739.532	85.39
739.714	86.69
739.896	90.15
740.078	88.48
740.259	87.9
740.441	85.75
740.623	85.92
740.805	86.39
740.987	85.8
741.168	85.53
741.35	88.34
741.532	88.86
741.714	90.13
741.895	88.02
742.077	91.12
742.259	88.33
742.44	89.01
742.622	88.85
742.804	87.96
742.985	89.09
743.167	89.66
743.348	88.13
743.53	88.62
743.711	87.82
743.893	86.12
744.075	85.52
744.256	86.53
744.438	85.74
744.619	82.79
744.8	82.48
744.982	82
745.163	82.58
745.345	82.93
745.526	84.28
745.707	83.61
745.889	85.23
746.07	82.09
746.252	84.03
746.433	83.49
746.614	84.83
746.795	83.73
746.977	84.34
747.158	85.72
747.339	85.15
747.52	84.02
747.702	85.18
747.883	86.7
748.064	87.68
748.245	87.98
748.426	88.99
748.607	87.68
748.788	88.6
748.97	88.8
749.151	88.71
749.332	89.63
749.513	89.36
749.694	89.17
749.875	87.04
750.056	87.53
750.237	85.2
750.418	85.58
750.599	88.39
750.78	87.1
750.96	87.03
751.141	86.03
751.322	85.75
751.503	85.15
751.684	84.92
751.865	86.7
752.046	86.41
752.226	84.83
752.407	83.25
752.588	84.63
752.769	86.99
752.949	88.15
753.13	87.38
753.311	84.88
753.492	86.97
753.672	88.32
753.853	86.85
754.034	88
754.214	87.95
754.395	87.06
754.575	83.3
754.756	83.3
754.937	81.08
755.117	79.46
755.298	80.29
755.478	78.78
755.659	77.39
755.839	79.11
756.02	77.07
756.2	78.75
756.381	80.87
756.561	83.66
756.741	81.98
756.922	79.12
757.102	80.6
757.283	81.65
757.463	82.11
757.643	79.13
757.823	76.86
758.004	78.73
758.184	78.25
758.364	76.11
758.545	74.82
758.725	75.55
758.905	77.3
759.085	77.71
759.265	76.62
759.446	73.61
759.626	76.39
759.806	78.06
759.986	75.09
760.166	74.51
760.346	74.58
760.526	73.39
760.706	71.05
760.886	70.64
761.066	71.48
761.246	68.92
761.426	70.41
761.606	70.3
761.786	68.6
761.966	67.36
762.146	64.07
762.326	64.74
762.506	64.32
762.686	66.05
762.866	65.55
763.046	64.67
763.225	65.67
763.405	65.73
763.585	63.24
763.765	62.31
763.945	64.09
764.124	67.57
764.304	68.88
764.484	70.69
764.664	70.82
764.843	72.03
765.023	68.17
765.203	67.97
765.382	67.14
765.562	71.23
765.741	74.06
765.921	74.59
766.101	76.3
766.28	74.51
766.46	74.4
766.639	73.91
766.819	75.07
766.998	81.55
767.178	85.37
767.357	88.81
767.537	88.49
767.716	90.81
767.896	90.14
768.075	86.64
768.254	90.46
768.434	90.06
768.613	90.53
768.792	91.17
768.972	89.54
769.151	88.98
769.33	87.93
769.51	87.49
769.689	85.77
769.868	86.53
770.047	88.32
770.226	84.26
770.406	83.13
770.585	86.4
770.764	88.28
770.943	89.14
771.122	88.93
771.301	90.78
771.48	91.74
771.66	91.1
771.839	91.17
772.018	89.45
772.197	92.52
772.376	93.49
772.555	87.96
772.734	83.47
772.913	82.95
773.092	86.53
773.271	88.18
773.449	89.39
773.628	89.21
773.807	89.25
773.986	91.79
774.165	92.72
774.344	95.35
774.523	96.44
774.701	100.31
774.88	101.66
775.059	95.81
775.238	92.35
775.417	90.21
775.595	94.79
775.774	94.26
775.953	95.44
776.131	92.41
776.31	90.25
776.489	90.48
776.667	90.58
776.846	92.75
777.025	92.4
777.203	92.77
777.382	93.22
777.56	89.55
777.739	91.97
777.917	88.24
778.096	90.78
778.274	91.94
778.453	91.24
778.631	87.38
778.81	85.62
778.988	91.99
779.166	95.34
779.345	95.41
779.523	95.03
779.702	95.63
779.88	95.3
780.058	92.07
780.237	91.28
780.415	95.15
780.593	96.97
780.771	95.04
780.95	92.52
781.128	85.89
781.306	82.11
781.484	82.86
781.662	77.74
781.841	78.66
782.019	78.27
782.197	80.77
782.375	79.6
782.553	80.11
782.731	82.59
782.909	81.12
783.087	90.37
783.265	97.66
783.443	97.13
783.621	103.81
783.799	106.54
783.977	111.98
784.155	108.98
784.333	105.6
784.511	107.6
784.689	104.94
784.867	106.54
785.045	104.04
785.223	103.64
785.4	106.5
785.578	109.07
785.756	107.13
785.934	102.08
786.112	98.51
786.289	100.69
786.467	97.68
786.645	95.94
786.823	94.81
787	89.98
787.178	86.95
787.356	81.87
787.533	79.88
787.711	78.75
787.889	82.87
788.066	84.41
788.244	82
788.421	83.62
788.599	83.51
788.776	80.34
788.954	80.41
789.131	82.15
789.309	86.69
789.486	89.7
789.664	93.52
789.841	90.96
790.019	94.72
790.196	93.36
790.373	91.6
790.551	94.38
790.728	99.75
790.906	100.14
791.083	99.53
791.26	99.97
791.437	92.81
791.615	97.42
791.792	102.17
791.969	98.02
792.146	105.29
792.324	109.71
792.501	113.31
792.678	111.34
792.855	111.91
793.032	110.22
793.209	106
793.387	108.08
793.564	102.72
793.741	100.52
793.918	101.82
794.095	99.86
794.272	97.69
794.449	95.35
794.626	93.83
794.803	94.59
794.98	95.18
795.157	99.23
795.334	98.6
795.511	97.06
795.688	95.47
795.864	97.14
796.041	94.09
796.218	93.78
796.395	94.07
796.572	97.08
796.749	96.08
796.925	91.25
797.102	87.19
797.279	83.38
797.456	84.21
797.632	87.81
797.809	84.69
797.986	87.35
798.162	88.05
798.339	83.61
798.516	80.85
798.692	81.59
798.869	83.91
799.046	86.22
799.222	93.93
799.399	91.65
799.575	86.86
799.752	85.36
799.928	84.42
800.105	80.62
800.281	83.37
800.458	86.42
800.634	84.33
800.811	91.56
800.987	86.89
801.163	87.27
801.34	89.61
801.516	92.75
801.692	97.4
801.869	94.86
802.045	102.92
802.221	104.16
802.398	99.14
802.574	102.75
802.75	98.45
802.926	105.12
803.103	101.68
803.279	100.74
803.455	101.01
803.631	102.5
803.807	111.73
803.983	105.74
804.16	106.53
804.336	102.94
804.512	103.56
804.688	102.17
804.864	102.15
805.04	105.82
805.216	106.22
805.392	111.29
805.568	106.13
805.744	107.22
805.92	104.84
806.096	104.62
806.272	113.99
806.448	107.61
806.623	112.17
806.799	119.39
806.975	111.04
807.151	110.38
807.327	101.34
807.503	100.58
807.678	98.01
807.854	104.07
808.03	105.49
808.206	105.36
808.381	115.63
808.557	116.73
808.733	113.27
808.908	118.06
809.084	121.28
809.26	114.01
809.435	112.09
809.611	105.4
809.787	104.28
809.962	101.35
810.138	95.82
810.313	93.51
810.489	90.41
810.664	89.01
810.84	84.4
811.015	83.84
811.191	86.24
811.366	85.54
811.542	87.68
811.717	89.9
811.892	90.65
812.068	95.55
812.243	91.74
812.419	92.55
812.594	92.9
812.769	96.18
812.944	95.46
813.12	95.97
813.295	96.95
813.47	95.48
813.645	93.53
813.821	91.7
813.996	89.93
814.171	89.68
814.346	85.49
814.521	86.36
814.697	87.86
814.872	85.47
815.047	92.13
815.222	95.34
815.397	101.7
815.572	97.72
815.747	94.56
815.922	98.9
816.097	100.75
816.272	101.53
816.447	99.7
816.622	98.86
816.797	100.45
816.972	95.09
817.147	94.3
817.322	88.48
817.496	85.88
817.671	92.47
817.846	84.54
818.021	87.49
818.196	82.67
818.371	80.99
818.545	79.23
818.72	78.74
818.895	78.91
819.069	74.99
819.244	72.6
819.419	71.59
819.594	67.49
819.768	63.47
819.943	56.12
820.117	58.17
820.292	58.57
820.467	57.12
820.641	55.89
820.816	52.32
820.99	52.47
821.165	51.6
821.339	50.68
821.514	49.51
821.688	50.31
821.863	51.07
822.037	50.11
822.212	49.7
822.386	48.55
822.56	48.74
822.735	49.13
822.909	48.24
823.084	48.18
823.258	49.41
823.432	49.06
823.606	47.79
823.781	47.35
823.955	48.08
824.129	49.06
824.303	50.76
824.478	50.3
824.652	51.19
824.826	51.2
825	53.43
825.174	52.46
825.348	54.27
825.523	56.69
825.697	58.87
825.871	57.85
826.045	57.03
826.219	57.14
826.393	55.79
826.567	55.77
826.741	58.82
826.915	59.21
827.089	63.14
827.263	63.65
827.437	64.11
827.611	64.62
827.784	66.56
827.958	65.13
828.132	65.43
828.306	67.99
828.48	68.9
828.654	68.04
828.827	66.14
829.001	63.08
829.175	67
829.349	67.89
829.522	66.71
829.696	69.87
829.87	74
830.044	74.86
830.217	71.71
830.391	74.8
830.565	79.94
830.738	82.12
830.912	79.97
831.085	75.35
831.259	80.11
831.432	81.99
831.606	78.93
831.779	75.17
831.953	72.25
832.126	76.78
832.3	74.87
832.473	71.14
832.647	71.48
832.82	70.54
832.994	67.66
833.167	65.84
833.34	66.26
833.514	66.69
833.687	66.5
833.86	68.31
834.034	69.81
834.207	71.76
834.38	73.48
834.553	74.89
834.727	80.66
834.9	86.02
835.073	88.56
835.246	90.17
835.419	88.34
835.593	91.05
835.766	91.37
835.939	89.97
836.112	92.81
836.285	88.28
836.458	93.47
836.631	93.26
836.804	93.82
836.977	97.65
837.15	99.11
837.323	104.87
837.496	105.27
837.669	103.5
837.842	112
838.015	112.01
838.188	124.29
838.361	104.6
838.533	103.27
838.706	103.06
838.879	103.11
839.052	93.57
839.225	98.62
839.398	94.47
839.57	100.05
839.743	93.85
839.916	95.27
840.088	91.26
840.261	98.2
840.434	96.15
840.607	104.3
840.779	104.23
840.952	113.14
841.124	113.65
841.297	120.29
841.47	116.29
841.642	118.1
841.815	113.19
841.987	108.61
842.16	117.4
842.332	113.94
842.505	101.33
842.677	90.27
842.85	89.46
843.022	84.72
843.194	87.49
843.367	92.66
843.539	89.2
843.712	91.47
843.884	101.46
844.056	94.91
844.229	100.54
844.401	102.75
844.573	120.43
844.745	119.49
844.918	128.6
845.09	113.4
845.262	116.22
845.434	124.77
845.606	122.93
845.779	122.83
845.951	136.93
846.123	131.72
846.295	139.12
846.467	131.14
846.639	130.59
846.811	128.26
846.983	144.93
847.155	149.11
847.327	143.96
847.499	165.82
847.671	169.18
847.843	160.39
848.015	164.81
848.187	161.87
848.359	163.5
848.531	171.52
848.703	186.1
848.875	174.32
849.047	174.86
849.218	173.72
849.39	156.58
849.562	160.25
849.734	155.73
849.905	171.77
850.077	167.86
850.249	164.11
850.421	155.46
850.592	141.35
850.764	145.33
850.936	136.68
851.107	139.64
851.279	135.79
851.451	121.61
851.622	121.42
851.794	117.39
851.965	117.56
852.137	110.97
852.308	125.6
852.48	137.93
852.651	131.04
852.823	140.35
852.994	145.11
853.166	142.71
853.337	150.46
853.509	153.81
853.68	137.93
853.851	128.51
854.023	141.8
854.194	136.38
854.365	133.49
854.537	144.71
854.708	147.26
854.879	136.38
855.05	125.48
855.222	131.8
855.393	124.08
855.564	131.31
855.735	138.4
855.906	129.39
856.078	123.71
856.249	124
856.42	121.93
856.591	124.96
856.762	127
856.933	149.96
857.104	138.44
857.275	129.59
857.446	134.71
857.617	125.29
857.788	128.94
857.959	137.18
858.13	121.44
858.301	114.3
858.472	101.57
858.643	109.26
858.814	109.04
858.985	114.12
859.155	124.88
859.326	126.01
859.497	130.57
859.668	127.18
859.839	119.8
860.009	133.08
860.18	135
860.351	153.63
860.522	146.88
860.692	149.24
860.863	150.12
861.034	131.38
861.204	130.89
861.375	129.04
861.546	115.66
861.716	132.68
861.887	133.79
862.057	143.94
862.228	131.31
862.398	131.63
862.569	123.33
862.739	126.1
862.91	129.38
863.08	133.83
863.251	136.82
863.421	153.27
863.592	162.4
863.762	152.23
863.932	137.93
864.103	137.86
864.273	132.1
864.443	129.36
864.614	131.78
864.784	134.42
864.954	128.12
865.125	127.9
865.295	122.59
865.465	108
865.635	108.39
865.805	120.39
865.976	127.13
866.146	124.12
866.316	129.14
866.486	132.22
866.656	142.21
866.826	129.98
866.996	131.23
867.166	148.37
867.336	148.14
867.506	151.24
867.676	143.75
867.846	149.41
868.016	172.14
868.186	171.14
868.356	151.83
868.526	162.18
868.696	186.55
868.866	224.89
869.036	200.83
869.206	215.88
869.376	216.23
869.545	238.07
869.715	188.82
869.885	188.32
870.055	184
870.224	188.92
870.394	163.36
870.564	169.92
870.734	142.42
870.903	144.77
871.073	142.41
871.243	139.16
871.412	140.21
871.582	148.9
871.751	143.1
871.921	150.82
872.091	149.09
872.26	147.87
872.43	131.88
872.599	130.41
872.769	123.83
872.938	111.44
873.108	109.15
873.277	96.72
873.446	92.37
873.616	92.72
873.785	89.41
873.955	84.55
874.124	98.21
874.293	111.35
874.463	123.96
874.632	119.27
874.801	137.56
874.971	137.77
875.14	161.84
875.309	187.44
875.478	168.37
875.647	192.1
875.817	227.87
875.986	191.21
876.155	166.11
876.324	155.16
876.493	132.35
876.662	126.63
876.831	128.73
877	123.29
877.17	124.7
877.339	128.97
877.508	127.73
877.677	120.98
877.846	111.06
878.015	113.45
878.184	108.6
878.352	123.09
878.521	122.81
878.69	117.55
878.859	106.69
879.028	101.79
879.197	102.99
879.366	95.44
879.534	92.02
879.703	92.8
879.872	89.06
880.041	90.78
880.21	85.93
880.378	83.85
880.547	81.1
880.716	80.09
880.884	77.29
881.053	76.46
881.222	70.82
881.39	68.03
881.559	69.54
881.727	65.45
881.896	65.86
882.065	67.07
882.233	65.01
882.402	61.27
882.57	60.62
882.739	61.29
882.907	62.27
883.076	62.95
883.244	64.38
883.412	63.22
883.581	65.16
883.749	62.31
883.918	66.54
884.086	67.14
884.254	74.63
884.423	79
884.591	81.49
884.759	82.5
884.927	86.84
885.096	98.16
885.264	108.3
885.432	114.35
885.6	120.4
885.769	105.58
885.937	112.36
886.105	107.99
886.273	112.77
886.441	112.97
886.609	101
886.777	108.97
886.945	103.72
887.113	95.18
887.281	97.06
887.449	91.59
887.617	106.14
887.785	111.83
887.953	111.01
888.121	110.02
888.289	108.07
888.457	129.8
888.625	125.51
888.793	116.12
888.961	140.53
889.129	132.4
889.296	140.47
889.464	134.64
889.632	125.52
889.8	143.21
889.967	141.97
890.135	138.56
