Data from JASIL_3059_Reflection_02.txt Node
Date: Mon Nov 09 11:28:52 EST 2015
User: Geneva
Spectrometer: USB4E03002
Autoset integration time: false
Trigger mode: 4
Integration Time (sec): 1.000000E-1
Scans to average: 10
Electric dark correction enabled: false
Nonlinearity correction enabled: false
Boxcar width: 5
Stray light correction enabled: false
XAxis mode: Wavelengths
Stop averaging: false
Number of Pixels in Spectrum: 3648
>>>>>Begin Spectral Data<<<<<
177.575	-426.09
177.794	-178.05
178.014	-26.58
178.233	10.16
178.452	20.14
178.672	-18.02
178.891	1.86
179.11	44.33
179.33	56.49
179.549	65.85
179.768	46.62
179.987	72.93
180.207	88.66
180.426	107.26
180.645	-137.84
180.864	-87.93
181.084	218.84
181.303	247.88
181.522	816.67
181.741	-157.35
181.96	282.43
182.179	-262.5
182.398	-20.91
182.618	-60.36
182.837	-1135
183.056	-45.19
183.275	32.03
183.494	68.34
183.713	85.11
183.932	42.9
184.151	20.34
184.37	18.01
184.589	-625.81
184.808	252.52
185.027	-174.07
185.246	144.12
185.465	67.62
185.684	4.55
185.903	29.52
186.122	46.7
186.341	-4
186.56	-111.86
186.779	-70.42
186.998	-438.89
187.216	-298.78
187.435	-169.42
187.654	-6.37
187.873	-221.62
188.092	59.35
188.311	178.23
188.53	139.23
188.748	178.76
188.967	123.89
189.186	421.98
189.405	-6825
189.623	1263.16
189.842	181.36
190.061	116.95
190.28	73.15
190.498	138.46
190.717	229.73
190.936	60.19
191.154	69.86
191.373	46.17
191.592	109.77
191.81	135.59
192.029	107.44
192.248	81.99
192.466	16.5
192.685	23.36
192.904	57.18
193.122	111.83
193.341	71.65
193.559	-20
193.778	111.11
193.996	-38.69
194.215	-14.81
194.433	12.39
194.652	80.72
194.87	96.97
195.089	285.6
195.307	-41.18
195.526	374.24
195.744	-1084.62
195.963	-361.05
196.181	-109.68
196.399	-155.62
196.618	-255.65
196.836	-202.38
197.055	31.94
197.273	-10.13
197.491	-196.3
197.71	-58.57
197.928	-114.29
198.146	-254.81
198.365	-78.5
198.583	-27.65
198.801	-18.43
199.019	-100
199.238	36.94
199.456	89.36
199.674	118.3
199.892	161.41
200.111	196.17
200.329	177.6
200.547	161.79
200.765	166.37
200.983	211.51
201.202	308.27
201.42	217.21
201.638	106.2
201.856	192.86
202.074	271.17
202.292	140.5
202.51	-7150
202.728	-1140.91
202.946	562.73
203.165	6522.22
203.383	-2600
203.601	393.23
203.819	494.74
204.037	958.82
204.255	177.78
204.473	434.92
204.691	68
204.909	127.2
205.127	1825
205.345	317.83
205.562	-256.67
205.78	-3950
205.998	356.49
206.216	1730.3
206.434	-630.65
206.652	468.09
206.87	-22.99
207.088	33.08
207.306	54.68
207.523	305
207.741	176.25
207.959	1728.57
208.177	190.2
208.395	107.86
208.612	173.63
208.83	92.34
209.048	24.13
209.266	-17.19
209.483	-23.48
209.701	-5.38
209.919	-1.51
210.136	-55.34
210.354	-30.77
210.572	-52.47
210.79	205.36
211.007	-7766.67
211.225	-203.45
211.442	-900
211.66	26.94
211.878	50.96
212.095	61.62
212.313	78.41
212.53	31.62
212.748	47.63
212.966	71.21
213.183	877.27
213.401	-292.59
213.618	121.91
213.836	99.32
214.053	64.71
214.271	733.33
214.488	96.97
214.705	-122.52
214.923	18.41
215.14	20.38
215.358	-5.25
215.575	16.35
215.793	28.37
216.01	34.16
216.227	66.73
216.445	75.86
216.662	66.33
216.879	120.13
217.097	590.12
217.314	1261.36
217.531	-966.67
217.749	-396.77
217.966	-167.61
218.183	-127.08
218.4	-154.98
218.618	-125.42
218.835	-64.89
219.052	-86.4
219.269	-222.78
219.487	-850
219.704	31.48
219.921	31.67
220.138	61.2
220.355	77.27
220.572	93.56
220.79	120.87
221.007	53
221.224	-184.38
221.441	-1209.09
221.658	174.23
221.875	53.28
222.092	-4.95
222.309	-132.86
222.526	2742.86
222.743	-153.97
222.96	-37.3
223.177	-9.62
223.394	17.67
223.611	11.01
223.828	-2.35
224.045	-1.58
224.262	-4.09
224.479	-15.81
224.696	-4.62
224.913	1.54
225.13	18
225.347	17.8
225.564	15.98
225.781	-1.9
225.997	3.74
226.214	10.5
226.431	9.52
226.648	6.98
226.865	12.26
227.082	2.14
227.298	-4.06
227.515	-19.38
227.732	-11.72
227.949	-5.55
228.165	-4.6
228.382	-8.75
228.599	-6.56
228.816	-1.67
229.032	3.48
229.249	6.27
229.466	7.8
229.682	13.57
229.899	23.32
230.116	20.83
230.332	21.29
230.549	29.34
230.765	34.44
230.982	28.68
231.199	32.74
231.415	31.65
231.632	33.25
231.848	41.27
232.065	45.17
232.281	46.83
232.498	48.88
232.714	40.47
232.931	45.13
233.147	45.17
233.364	56.39
233.58	48.79
233.797	48.74
234.013	37.27
234.23	40.42
234.446	36.03
234.662	17.79
234.879	30.99
235.095	32.59
235.312	29.39
235.528	30.37
235.744	19.72
235.961	18.31
236.177	10.05
236.393	8.47
236.61	17.8
236.826	10.26
237.042	14.86
237.258	5.72
237.475	1.26
237.691	-4.06
237.907	1.32
238.123	7.53
238.339	8.45
238.556	8.23
238.772	20.32
238.988	-0.7
239.204	-0.66
239.42	1.44
239.636	6.5
239.853	6.38
240.069	1.55
240.285	-1.16
240.501	1.17
240.717	0.44
240.933	1.8
241.149	0.62
241.365	4.44
241.581	7.03
241.797	5.01
242.013	0.86
242.229	4.68
242.445	6.41
242.661	6.99
242.877	7.01
243.093	-2.8
243.309	-2.83
243.525	-2.41
243.741	1.04
243.957	9.58
244.173	11.63
244.388	13.06
244.604	10.67
244.82	12.25
245.036	12.65
245.252	13.41
245.468	16.71
245.683	15.69
245.899	12.84
246.115	9.73
246.331	5.24
246.547	4.79
246.762	3.36
246.978	1.13
247.194	-0.44
247.409	-3.04
247.625	-3.05
247.841	-5.85
248.057	-4.08
248.272	0.16
248.488	4.74
248.703	3.25
248.919	2.07
249.135	5.97
249.35	6.34
249.566	11.52
249.782	6.82
249.997	1.33
250.213	1.44
250.428	1.35
250.644	4.1
250.859	5.94
251.075	11.54
251.29	10.67
251.506	13.3
251.721	16.41
251.937	14.06
252.152	18.35
252.368	27.04
252.583	30.09
252.798	29.86
253.014	27.97
253.229	23.49
253.445	17.08
253.66	20.39
253.875	13.83
254.091	11.62
254.306	10.34
254.521	7.7
254.737	-4.21
254.952	-2.43
255.167	5.18
255.383	4.3
255.598	8.35
255.813	6.88
256.028	5.54
256.244	4.61
256.459	3.85
256.674	1.98
256.889	5.53
257.104	4.31
257.32	0.39
257.535	-1.41
257.75	-0.08
257.965	-2.02
258.18	-3.47
258.395	-3.31
258.61	-2.95
258.826	-3.56
259.041	-1.28
259.256	-3.23
259.471	-4.86
259.686	-5.43
259.901	-7.35
260.116	-7.87
260.331	-8.39
260.546	-9.05
260.761	-8.62
260.976	-10.41
261.191	-11.29
261.406	-12.25
261.621	-6.83
261.836	-4.7
262.05	-2.74
262.265	-0.13
262.48	-0.63
262.695	-0.03
262.91	8.21
263.125	5.27
263.34	3.95
263.555	7.68
263.769	-0.04
263.984	-4.55
264.199	-3.89
264.414	-3.11
264.629	-1.42
264.843	-0.24
265.058	2.25
265.273	0.21
265.488	3.13
265.702	5.75
265.917	5.69
266.132	10.15
266.346	9.03
266.561	8.03
266.776	6.37
266.99	6.26
267.205	2.73
267.42	-0.41
267.634	1
267.849	-1.49
268.063	-6.5
268.278	-8.94
268.492	-12.54
268.707	-7.5
268.922	-1.96
269.136	-0.95
269.351	-0.84
269.565	-2.11
269.78	-0.74
269.994	-0.73
270.209	-1.21
270.423	1.94
270.637	1.59
270.852	0.64
271.066	1.7
271.281	1.17
271.495	4.42
271.709	1.35
271.924	1.08
272.138	0.41
272.353	-1.91
272.567	-1
272.781	-1.46
272.996	-1.57
273.21	-2.05
273.424	-4.2
273.638	-4.29
273.853	-6.09
274.067	-6.3
274.281	-0.94
274.495	0.84
274.71	3.52
274.924	3.49
275.138	5.07
275.352	4.81
275.566	6.36
275.781	6.32
275.995	3.89
276.209	2.57
276.423	3.79
276.637	0.31
276.851	-1.56
277.065	-2.35
277.279	-1.22
277.493	-0.78
277.707	-0.54
277.921	-1.3
278.135	-0.9
278.349	0.61
278.563	1.04
278.777	2.96
278.991	4.8
279.205	3.61
279.419	3.32
279.633	2.23
279.847	2.71
280.061	2.69
280.275	5.98
280.489	3.39
280.703	4.83
280.917	4.3
281.131	2.96
281.344	3.52
281.558	3.43
281.772	1.73
281.986	3.93
282.2	1.01
282.414	0.89
282.627	-1.19
282.841	-0.5
283.055	-1.78
283.269	1.4
283.482	-0.62
283.696	-1.76
283.91	-0.35
284.123	1.39
284.337	0.08
284.551	1.47
284.764	2.6
284.978	-0.15
285.192	-0.51
285.405	0.57
285.619	-2.6
285.833	-1.08
286.046	0.58
286.26	0.72
286.473	1.68
286.687	-1.85
286.9	0.79
287.114	-0.51
287.327	-1.23
287.541	0.87
287.754	1.87
287.968	3.97
288.181	6
288.395	2.18
288.608	1.96
288.822	-0.1
289.035	3.5
289.248	-1.8
289.462	-2.85
289.675	0.7
289.889	0.75
290.102	-1.51
290.315	-4.83
290.529	-7.82
290.742	-8.16
290.955	-8.37
291.169	-6.11
291.382	-6.52
291.595	-3.31
291.808	-1.23
292.022	2.04
292.235	4.81
292.448	4.56
292.661	6.23
292.875	8.25
293.088	9.19
293.301	10.65
293.514	9.41
293.727	6.82
293.94	7.34
294.153	5.56
294.367	2.6
294.58	-0.73
294.793	-1.3
295.006	-1.14
295.219	0.17
295.432	1.09
295.645	-0.64
295.858	-1.03
296.071	2.45
296.284	1.16
296.497	3.4
296.71	2.44
296.923	3.82
297.136	4.75
297.349	2.95
297.562	0.19
297.775	1.93
297.988	2.77
298.201	4.13
298.414	0.87
298.626	1.11
298.839	-1.26
299.052	0.46
299.265	1.44
299.478	2.59
299.691	4.29
299.903	5.53
300.116	4.03
300.329	0.82
300.542	2.33
300.755	1.84
300.967	3.64
301.18	5.65
301.393	5.13
301.605	5.29
301.818	1.67
302.031	0.75
302.243	1.87
302.456	-0.45
302.669	2.79
302.881	-0.06
303.094	0.34
303.307	-1.05
303.519	-3.21
303.732	-2.84
303.944	-8.06
304.157	-4.13
304.37	-3.59
304.582	-2.69
304.795	1.22
305.007	-3.21
305.22	-3.25
305.432	-1.2
305.645	-0.92
305.857	2.19
306.069	0.87
306.282	1.77
306.494	0.31
306.707	1.69
306.919	0
307.132	-2.18
307.344	1.29
307.556	0.58
307.769	3.02
307.981	4.66
308.193	3.72
308.406	3.55
308.618	5.25
308.83	5.33
309.043	1.92
309.255	4.06
309.467	5.7
309.679	7.67
309.892	9.05
310.104	7.03
310.316	7
310.528	5.77
310.74	6.92
310.953	6.14
311.165	4.33
311.377	7.76
311.589	1.9
311.801	3.02
312.013	-1.78
312.225	-4.68
312.437	-2.91
312.649	-3.31
312.862	-4.34
313.074	-2.85
313.286	-4.56
313.498	-3.76
313.71	-1.92
313.922	1.1
314.134	-1.14
314.346	0.33
314.558	3.43
314.77	-0.54
314.982	-0.63
315.193	1.62
315.405	1.78
315.617	0.94
315.829	3.41
316.041	2.42
316.253	3.84
316.465	4.18
316.677	8.19
316.888	7.33
317.1	11.77
317.312	10.85
317.524	10.34
317.736	5.86
317.947	6.11
318.159	5.86
318.371	5
318.583	4
318.794	2.85
319.006	1.64
319.218	1.56
319.43	-0.31
319.641	1.56
319.853	-0.18
320.064	5.32
320.276	5.52
320.488	4.4
320.699	6.2
320.911	10.46
321.123	10.47
321.334	9.52
321.546	6.27
321.757	5.94
321.969	6.16
322.18	9.23
322.392	6.53
322.603	6.82
322.815	9.89
323.026	9.72
323.238	8.3
323.449	8.46
323.661	9.74
323.872	11.94
324.083	10.78
324.295	9.48
324.506	8.15
324.718	9.13
324.929	10.82
325.14	6.19
325.352	2.83
325.563	0.09
325.774	3.02
325.986	0.27
326.197	3.23
326.408	2.45
326.62	3.9
326.831	5.69
327.042	3.47
327.253	2.49
327.464	3.06
327.676	6.88
327.887	8.74
328.098	5.62
328.309	5.3
328.52	2.92
328.732	5.57
328.943	1.91
329.154	2.68
329.365	6.28
329.576	7.27
329.787	6.57
329.998	3.76
330.209	3.35
330.42	5.78
330.631	7.74
330.842	7.93
331.053	8.15
331.264	9.63
331.475	8.67
331.686	7.1
331.897	8.7
332.108	9.99
332.319	9.33
332.53	9.12
332.741	8.69
332.952	6.32
333.163	3.71
333.374	1.39
333.585	0.99
333.795	0.19
334.006	-1.08
334.217	-1.78
334.428	0.25
334.639	1.73
334.849	0.42
335.06	-0.37
335.271	1.1
335.482	4.45
335.692	5.9
335.903	7.53
336.114	5.97
336.325	6.45
336.535	4.69
336.746	2.05
336.957	3.27
337.167	7.3
337.378	8.6
337.589	9.22
337.799	7.56
338.01	6.5
338.22	7.97
338.431	9.48
338.642	10.19
338.852	15.24
339.063	17.42
339.273	15.14
339.484	13.47
339.694	12.84
339.905	10.75
340.115	11.28
340.326	12.35
340.536	11.48
340.746	12.01
340.957	9.87
341.167	7.14
341.378	7.15
341.588	10.34
341.799	8.74
342.009	9.68
342.219	10.27
342.43	10.44
342.64	10.51
342.85	8.26
343.061	9.63
343.271	10.66
343.481	11.05
343.691	10.37
343.902	8.47
344.112	10.69
344.322	11.07
344.532	11.77
344.743	11.9
344.953	12
345.163	14.43
345.373	12.22
345.583	11.9
345.793	11.31
346.004	12.01
346.214	11.72
346.424	12.16
346.634	9.8
346.844	9.51
347.054	10.78
347.264	9.41
347.474	8.87
347.684	9.75
347.894	10.73
348.104	8.82
348.314	9.16
348.524	8.58
348.734	6.01
348.944	6.32
349.154	6.01
349.364	5.16
349.574	2.45
349.784	3.18
349.994	3.44
350.204	4.1
350.413	7.19
350.623	6.54
350.833	6.71
351.043	7.27
351.253	8.75
351.463	9.28
351.672	6.56
351.882	10.6
352.092	9.36
352.302	6.57
352.511	8.37
352.721	5.71
352.931	4.95
353.141	5.34
353.35	5.45
353.56	4.89
353.77	4.6
353.979	6.67
354.189	5.98
354.399	5.11
354.608	9.52
354.818	8.64
355.027	9.59
355.237	9.22
355.447	10.13
355.656	10.27
355.866	11.63
356.075	11.78
356.285	12.83
356.494	13.81
356.704	13.53
356.913	12.65
357.123	10.68
357.332	11.34
357.542	11.22
357.751	11.11
357.96	11.11
358.17	9.34
358.379	10.91
358.589	11.13
358.798	11.32
359.007	13.28
359.217	13.1
359.426	14.63
359.635	14.87
359.845	15.43
360.054	15.6
360.263	14.91
360.472	14.27
360.682	13.2
360.891	10.89
361.1	12.06
361.309	11.18
361.519	11.35
361.728	9.44
361.937	10.41
362.146	10.41
362.355	9.31
362.564	11.19
362.774	11.75
362.983	10.57
363.192	12.48
363.401	11.12
363.61	10.75
363.819	9.58
364.028	10.02
364.237	8.34
364.446	8.72
364.655	9.03
364.864	7.57
365.073	9.11
365.282	9.88
365.491	9.86
365.7	9.83
365.909	8.96
366.118	10.04
366.327	11.29
366.536	11.02
366.745	9.87
366.954	9.99
367.162	10.85
367.371	11.34
367.58	11.76
367.789	11.67
367.998	11.48
368.207	11.85
368.415	11.83
368.624	11.07
368.833	10.98
369.042	11.13
369.25	11.57
369.459	11.56
369.668	10.6
369.877	8.58
370.085	9.31
370.294	8.63
370.503	8.79
370.711	8.21
370.92	8.2
371.129	9.1
371.337	9.5
371.546	10.23
371.754	9.43
371.963	9.95
372.171	12.26
372.38	12.4
372.589	12.51
372.797	13.09
373.006	13.52
373.214	15.29
373.423	14.93
373.631	15.71
373.84	14.64
374.048	14.31
374.256	13.24
374.465	13.92
374.673	10.52
374.882	10.26
375.09	9
375.298	9.99
375.507	10.36
375.715	11.14
375.923	8.52
376.132	9.09
376.34	9.67
376.548	8.85
376.757	7.91
376.965	9.83
377.173	10.93
377.381	12.57
377.59	11.33
377.798	10.86
378.006	10.79
378.214	13.92
378.423	12.55
378.631	12.27
378.839	12.36
379.047	11.91
379.255	12.21
379.463	10.98
379.671	10.68
379.879	11.46
380.088	11.62
380.296	10
380.504	8.18
380.712	9.84
380.92	8.07
381.128	10.02
381.336	11.46
381.544	12.36
381.752	13.92
381.96	14.43
382.168	11.38
382.376	9.1
382.584	9.46
382.791	9.27
382.999	8.71
383.207	10.66
383.415	8.35
383.623	7.73
383.831	7.22
384.039	4.4
384.247	4.95
384.454	6.02
384.662	6.79
384.87	6.6
385.078	7.35
385.285	6.74
385.493	7.3
385.701	9.35
385.909	9.07
386.116	8.9
386.324	10.32
386.532	10.27
386.739	11.16
386.947	11.06
387.155	11.67
387.362	12.09
387.57	12.1
387.778	11.25
387.985	10.37
388.193	9.57
388.4	9.9
388.608	10.03
388.816	9.56
389.023	9.65
389.231	9.67
389.438	9.56
389.646	8.49
389.853	9.51
390.061	9
390.268	8.51
390.475	9.29
390.683	9.02
390.89	9.43
391.098	8.65
391.305	7.77
391.512	7.61
391.72	6.47
391.927	6.13
392.135	5.66
392.342	5.37
392.549	6.33
392.756	6.67
392.964	6.08
393.171	6.02
393.378	6.78
393.586	6.69
393.793	6.76
394	7.54
394.207	8.61
394.414	9
394.622	9.02
394.829	8.73
395.036	7.6
395.243	8.08
395.45	7.14
395.657	6.76
395.864	7.47
396.072	8.81
396.279	9.38
396.486	9.53
396.693	9.52
396.9	10.28
397.107	9.97
397.314	11.96
397.521	10.75
397.728	11.84
397.935	11.71
398.142	11.38
398.349	9.33
398.556	8.47
398.763	7.81
398.97	7.21
399.177	6.81
399.383	6.19
399.59	4.95
399.797	5.15
400.004	5.47
400.211	5.13
400.418	6.9
400.625	7.5
400.831	7.57
401.038	7.75
401.245	7.42
401.452	8.72
401.658	10.01
401.865	10.33
402.072	11.17
402.279	9.81
402.485	10.13
402.692	9.73
402.899	10.91
403.105	11.45
403.312	11.44
403.519	11.76
403.725	11.36
403.932	11.49
404.138	10.36
404.345	9.97
404.552	10.68
404.758	11.33
404.965	9.7
405.171	9.21
405.378	9.15
405.584	9.03
405.791	8.63
405.997	8.26
406.204	6.91
406.41	7.74
406.617	7.44
406.823	8.28
407.029	6.67
407.236	7.72
407.442	7.57
407.649	7.64
407.855	8.1
408.061	8.57
408.268	8.52
408.474	8.72
408.68	9.16
408.887	9.58
409.093	8.74
409.299	8.81
409.505	10.07
409.712	9.52
409.918	7.77
410.124	8.27
410.33	8.29
410.537	6.96
410.743	7.99
410.949	6.99
411.155	7.04
411.361	6.65
411.567	7.48
411.773	6.31
411.98	7.16
412.186	8.24
412.392	7.85
412.598	7.4
412.804	9.69
413.01	8.8
413.216	8.88
413.422	9.15
413.628	10.73
413.834	10.9
414.04	11.1
414.246	9.55
414.452	9.53
414.658	9.03
414.864	9.55
415.07	8.19
415.275	8.26
415.481	8.26
415.687	7.83
415.893	7.25
416.099	6.32
416.305	6.18
416.511	7.41
416.716	7.97
416.922	8.56
417.128	8.37
417.334	8.98
417.539	9.32
417.745	9.8
417.951	9.51
418.157	9.05
418.362	8.74
418.568	9.27
418.774	8.6
418.979	8.64
419.185	8.43
419.391	8.53
419.596	8.78
419.802	8.51
420.008	8.13
420.213	8.53
420.419	8.33
420.624	8.99
420.83	8.67
421.035	9.42
421.241	9.64
421.446	9.91
421.652	9.91
421.857	9.3
422.063	9.45
422.268	9.69
422.474	9.42
422.679	9.77
422.885	9.52
423.09	9.49
423.295	9.52
423.501	8.86
423.706	8.38
423.911	8.34
424.117	8.4
424.322	8.15
424.527	8.08
424.733	8.53
424.938	8.96
425.143	9.36
425.349	8.69
425.554	8.2
425.759	8.42
425.964	8.75
426.169	8.74
426.375	9.12
426.58	8.94
426.785	9.56
426.99	9.06
427.195	7.95
427.4	8.32
427.605	9.1
427.811	9.17
428.016	9.59
428.221	9.64
428.426	9.14
428.631	8.97
428.836	9.63
429.041	9.05
429.246	9.39
429.451	9.36
429.656	9.2
429.861	9.5
430.066	9.39
430.271	9.08
430.476	9.41
430.681	10.21
430.886	9.53
431.09	8.78
431.295	8.56
431.5	8.94
431.705	9.53
431.91	8.75
432.115	8.17
432.32	7.89
432.524	8.2
432.729	7.6
432.934	7.58
433.139	8.29
433.343	8.97
433.548	8.97
433.753	8.78
433.958	8.55
434.162	8.6
434.367	9.38
434.572	10.29
434.776	9.63
434.981	10.28
435.186	10.43
435.39	10.89
435.595	10.3
435.799	10.01
436.004	10.01
436.209	9.7
436.413	9.89
436.618	9.48
436.822	9.28
437.027	9.25
437.231	9.28
437.436	9.03
437.64	8.63
437.845	8.84
438.049	9.92
438.253	9.66
438.458	9.55
438.662	9.22
438.867	9.22
439.071	8.86
439.275	9.14
439.48	8.98
439.684	8.71
439.888	8.41
440.093	8.91
440.297	8.12
440.501	8.4
440.706	8.84
440.91	9.06
441.114	9.01
441.318	9.12
441.523	9.31
441.727	9.34
441.931	9.58
442.135	9.86
442.339	9.73
442.543	10.05
442.748	9.45
442.952	9.28
443.156	9.77
443.36	9.91
443.564	10.14
443.768	9.86
443.972	9.15
444.176	8.78
444.38	8.7
444.584	8.37
444.788	8.33
444.992	9.02
445.196	9.05
445.4	9.26
445.604	8.79
445.808	8.93
446.012	8.96
446.216	9.5
446.42	9.75
446.624	9.83
446.828	10.14
447.032	10.34
447.235	9.67
447.439	9.51
447.643	8.99
447.847	9.22
448.051	8.98
448.254	8.93
448.458	8.87
448.662	9.16
448.866	9.44
449.069	8.54
449.273	8.14
449.477	9.09
449.681	9.38
449.884	9.45
450.088	9.75
450.292	9.35
450.495	9.48
450.699	9.09
450.902	9.16
451.106	8.93
451.31	9.14
451.513	8.88
451.717	7.91
451.92	8.22
452.124	8.17
452.327	7.38
452.531	7.79
452.734	7.79
452.938	7.86
453.141	7.56
453.345	7.8
453.548	7.47
453.752	8.65
453.955	9.19
454.158	8.91
454.362	9.26
454.565	9.8
454.769	9.67
454.972	9.46
455.175	9.4
455.379	9.43
455.582	9.45
455.785	10.26
455.988	8.85
456.192	9.01
456.395	9.35
456.598	9.18
456.801	8.97
457.005	9.29
457.208	9.44
457.411	8.94
457.614	8.84
457.817	8.88
458.021	9.11
458.224	9.1
458.427	9.03
458.63	8.5
458.833	8.16
459.036	8.15
459.239	7.75
459.442	7.74
459.645	8.21
459.848	8.21
460.051	7.77
460.254	7.37
460.457	7.71
460.66	7.65
460.863	8.05
461.066	8.57
461.269	9.08
461.472	8.64
461.675	9.29
461.878	9.47
462.081	9.55
462.284	9.71
462.486	9.65
462.689	9.82
462.892	10.01
463.095	9.65
463.298	9.92
463.5	9.51
463.703	11.49
463.906	10.7
464.109	11.26
464.311	11.03
464.514	11.3
464.717	11.89
464.92	11.49
465.122	10.72
465.325	11.18
465.528	11.55
465.73	11.71
465.933	11.12
466.135	11.08
466.338	10.01
466.541	9.81
466.743	9.54
466.946	9
467.148	9.08
467.351	9.46
467.553	9.5
467.756	8.71
467.958	8.08
468.161	7.55
468.363	8.08
468.566	8.22
468.768	8.59
468.971	8.65
469.173	8.94
469.375	9.26
469.578	9.27
469.78	9.13
469.983	9.66
470.185	10.58
470.387	10.55
470.59	10.51
470.792	11.01
470.994	10.94
471.196	11.1
471.399	10.69
471.601	10.2
471.803	10.42
472.005	10.85
472.208	10.91
472.41	10.9
472.612	10.67
472.814	10.23
473.016	10.04
473.218	10.31
473.421	9.64
473.623	9.94
473.825	9.93
474.027	10.22
474.229	9.39
474.431	9.32
474.633	8.95
474.835	9.34
475.037	9.42
475.239	9.72
475.441	9.43
475.643	9.83
475.845	9.69
476.047	9.61
476.249	8.79
476.451	8.97
476.653	8.53
476.855	8.56
477.057	9.03
477.258	9.56
477.46	10.02
477.662	9.83
477.864	10.31
478.066	10.46
478.268	10.92
478.469	11.82
478.671	11.5
478.873	11.23
479.075	11.06
479.276	10.49
479.478	10.25
479.68	9.59
479.882	9.73
480.083	9.64
480.285	9.48
480.487	9.87
480.688	9.05
480.89	9.07
481.091	9.33
481.293	9.71
481.495	9.68
481.696	9.51
481.898	9.6
482.099	9.72
482.301	9.6
482.502	9.74
482.704	9.44
482.905	9.68
483.107	9.79
483.308	9.67
483.51	9.55
483.711	9.63
483.913	9.51
484.114	9.58
484.315	9.44
484.517	9.64
484.718	9.53
484.92	9.7
485.121	9.54
485.322	9.42
485.524	9.49
485.725	9.43
485.926	9.37
486.127	9.39
486.329	9.15
486.53	9.33
486.731	9.11
486.932	9.24
487.134	9.11
487.335	9.18
487.536	9.37
487.737	9.44
487.938	9.61
488.139	9.76
488.341	10.1
488.542	10.06
488.743	9.63
488.944	9.65
489.145	9.65
489.346	9.76
489.547	9.6
489.748	9.56
489.949	9.63
490.15	9.32
490.351	9.26
490.552	9.12
490.753	9.17
490.954	9.4
491.155	9.16
491.356	8.96
491.557	9.07
491.758	9.22
491.959	9.15
492.159	8.84
492.36	9.16
492.561	9.17
492.762	9.45
492.963	9.6
493.164	9.74
493.364	10.19
493.565	10.53
493.766	10.4
493.967	10.39
494.167	10.33
494.368	10.66
494.569	10.59
494.769	10.51
494.97	9.92
495.171	9.91
495.371	9.87
495.572	9.62
495.773	9.41
495.973	9.28
496.174	9.83
496.375	9.91
496.575	10.1
496.776	10.33
496.976	10.24
497.177	10.44
497.377	10.5
497.578	10.3
497.778	10.4
497.979	10.57
498.179	10.61
498.38	9.93
498.58	10.05
498.78	10.2
498.981	9.79
499.181	9.97
499.382	10.28
499.582	10.08
499.782	10.63
499.983	10.8
500.183	10.68
500.383	10.6
500.584	10.87
500.784	11.08
500.984	10.52
501.184	10.89
501.385	10.27
501.585	10
501.785	10.17
501.985	9.86
502.185	9.66
502.386	10.08
502.586	10.53
502.786	10.44
502.986	9.93
503.186	9.88
503.386	9.74
503.586	10.23
503.786	10.31
503.987	10.7
504.187	10.28
504.387	10.57
504.587	10.27
504.787	10.13
504.987	10.2
505.187	10.55
505.387	11
505.587	10.62
505.786	10.35
505.986	10.53
506.186	10.43
506.386	11.15
506.586	11.01
506.786	11.14
506.986	11.27
507.186	11.29
507.386	10.96
507.585	11.04
507.785	11.47
507.985	11.51
508.185	11.65
508.384	11.59
508.584	11.45
508.784	11.56
508.984	11.21
509.183	10.85
509.383	10.76
509.583	10.54
509.782	10.55
509.982	10.46
510.182	10.62
510.381	10.36
510.581	10.22
510.781	10.25
510.98	10.12
511.18	10.14
511.379	10.44
511.579	10.64
511.778	11.36
511.978	10.95
512.177	11.44
512.377	11.68
512.576	11.78
512.776	12.09
512.975	12.52
513.175	13
513.374	13.71
513.573	14.12
513.773	14.52
513.972	14.54
514.172	14.51
514.371	14.13
514.57	14.73
514.77	14.66
514.969	14.32
515.168	14.21
515.367	13.84
515.567	13.52
515.766	13.33
515.965	12.91
516.164	13.04
516.364	13.51
516.563	13.08
516.762	12.58
516.961	12.92
517.16	13.16
517.359	12.96
517.559	13.28
517.758	13.76
517.957	13.39
518.156	13.25
518.355	12.8
518.554	12.68
518.753	13.02
518.952	12.94
519.151	12.74
519.35	12.62
519.549	12.77
519.748	12.41
519.947	12.37
520.146	12.85
520.345	13.01
520.544	13.32
520.743	13.85
520.942	13.78
521.141	14.3
521.339	14.6
521.538	14.93
521.737	14.91
521.936	15.36
522.135	15.08
522.333	15.13
522.532	15.55
522.731	15.76
522.93	15.31
523.129	15.95
523.327	15.55
523.526	15.85
523.725	15.69
523.923	16
524.122	16.09
524.321	15.99
524.519	15.99
524.718	15.63
524.917	15.34
525.115	15.55
525.314	15.19
525.512	15.16
525.711	15.22
525.909	15.1
526.108	14.85
526.306	15.22
526.505	15.33
526.703	15.38
526.902	15.65
527.1	15.57
527.299	15.53
527.497	15.64
527.696	15.78
527.894	15.54
528.092	15.78
528.291	15.79
528.489	15.41
528.688	15.34
528.886	15.34
529.084	15.44
529.283	15.73
529.481	15.86
529.679	16
529.877	15.97
530.076	15.92
530.274	16.1
530.472	16.23
530.67	16.77
530.869	16.83
531.067	16.94
531.265	16.96
531.463	16.94
531.661	17.05
531.859	17.16
532.057	17.35
532.255	17.55
532.454	17.2
532.652	16.89
532.85	16.63
533.048	16.73
533.246	16.57
533.444	16.61
533.642	16.45
533.84	16.48
534.038	16.04
534.236	15.77
534.434	15.7
534.632	15.95
534.83	16.59
535.027	16.75
535.225	16.55
535.423	16.79
535.621	16.67
535.819	16.98
536.017	16.77
536.215	17.46
536.412	17.43
536.61	17.72
536.808	17.63
537.006	17.71
537.203	17.68
537.401	18.15
537.599	18.07
537.797	17.66
537.994	17.76
538.192	18.15
538.39	17.91
538.587	18.27
538.785	18.32
538.983	18.63
539.18	18.56
539.378	18.59
539.575	18.62
539.773	18.45
539.97	18.52
540.168	18.55
540.366	18.34
540.563	18.27
540.761	18.42
540.958	18.49
541.155	18.53
541.353	18.4
541.55	18.39
541.748	18.14
541.945	18.31
542.143	18.45
542.34	18.33
542.537	18.4
542.735	18.54
542.932	18.46
543.129	18.31
543.327	18.19
543.524	18.32
543.721	18.37
543.919	18.8
544.116	18.92
544.313	19.39
544.51	19.75
544.708	19.72
544.905	20.12
545.102	19.97
545.299	19.99
545.496	20.16
545.693	19.9
545.891	20.16
546.088	20.38
546.285	20.23
546.482	19.97
546.679	19.6
546.876	19.95
547.073	19.76
547.27	19.47
547.467	19.49
547.664	19.46
547.861	19.7
548.058	19.13
548.255	18.91
548.452	19.27
548.649	19.74
548.846	20.25
549.043	20.07
549.24	19.71
549.437	20.3
549.633	20.26
549.83	20.39
550.027	21.14
550.224	21.2
550.421	20.9
550.618	21.09
550.814	21.16
551.011	21.05
551.208	21.25
551.405	21.33
551.601	21.36
551.798	20.98
551.995	21.27
552.191	21.15
552.388	21.8
552.585	21.97
552.781	22.31
552.978	22.16
553.175	22.25
553.371	22.64
553.568	22.62
553.764	23.49
553.961	24.74
554.157	24.54
554.354	24.56
554.55	23.69
554.747	24.25
554.943	23.46
555.14	23.86
555.336	23.8
555.533	23.53
555.729	24.09
555.926	22.9
556.122	22.25
556.318	21.89
556.515	22.67
556.711	23.54
556.907	22.7
557.104	23.27
557.3	22.66
557.496	23
557.693	23.08
557.889	23.39
558.085	23.94
558.281	24.29
558.478	24.9
558.674	24.62
558.87	24.61
559.066	24.92
559.262	24.79
559.459	24.78
559.655	25.54
559.851	25.81
560.047	25.38
560.243	25.46
560.439	25.2
560.635	25.43
560.831	25.22
561.027	25.17
561.223	25.07
561.419	24.56
561.615	24.82
561.811	23.48
562.007	23.2
562.203	23.08
562.399	22.88
562.595	23.16
562.791	22.83
562.987	22.96
563.183	23.11
563.379	22.64
563.575	23.59
563.771	23.86
563.966	23.71
564.162	24.16
564.358	24.25
564.554	25.08
564.75	24.89
564.945	25.51
565.141	25.39
565.337	25
565.533	26.16
565.728	25.77
565.924	25.13
566.12	26.31
566.315	26.48
566.511	27.17
566.707	26.92
566.902	27.61
567.098	27.03
567.293	27.08
567.489	27.24
567.684	26.69
567.88	27.27
568.076	27.63
568.271	27.07
568.467	26.54
568.662	25.65
568.858	25.41
569.053	25.04
569.248	24.99
569.444	24.01
569.639	23.99
569.835	24.09
570.03	24.07
570.225	24.09
570.421	24.05
570.616	23.78
570.812	23.98
571.007	23.76
571.202	23.76
571.397	23.68
571.593	24.66
571.788	25.05
571.983	24.85
572.178	24.73
572.374	24.64
572.569	24.6
572.764	24.6
572.959	24.31
573.154	24.75
573.35	24.85
573.545	24.82
573.74	24.77
573.935	24.62
574.13	24.77
574.325	24.77
574.52	25.1
574.715	25.01
574.91	25.46
575.105	25.7
575.3	25.87
575.495	25.88
575.69	26.11
575.885	25.65
576.08	26.39
576.275	26.32
576.47	26.07
576.665	26.36
576.86	25.96
577.055	25.79
577.25	25.88
577.444	25.67
577.639	25.51
577.834	26
578.029	26.39
578.224	25.83
578.418	26.23
578.613	26.47
578.808	26.14
579.003	27.19
579.197	26.81
579.392	26.79
579.587	26.95
579.781	26.44
579.976	26.37
580.171	26.46
580.365	26.77
580.56	27.01
580.755	26.85
580.949	26.63
581.144	26.43
581.338	26.86
581.533	26.83
581.727	26.71
581.922	27.48
582.116	26.86
582.311	26.85
582.505	26.25
582.7	26.24
582.894	26.64
583.089	26.79
583.283	26.7
583.478	26.96
583.672	27.27
583.866	26.81
584.061	26.41
584.255	26.65
584.449	26.3
584.644	26.37
584.838	25.4
585.032	24.74
585.226	24.29
585.421	23.84
585.615	24.65
585.809	24.65
586.003	25.14
586.198	25.7
586.392	25.17
586.586	25.27
586.78	24.89
586.974	25.77
587.168	25.96
587.363	26.53
587.557	26.55
587.751	25.54
587.945	25.6
588.139	25.2
588.333	24.52
588.527	25.15
588.721	25.02
588.915	25.47
589.109	25.47
589.303	25.45
589.497	25.38
589.691	25.97
589.885	26.09
590.079	25.96
590.273	25.58
590.466	26.07
590.66	25.97
590.854	26.57
591.048	26.26
591.242	25.55
591.436	25.74
591.629	25.9
591.823	25.52
592.017	25.36
592.211	26.07
592.404	26.72
592.598	26.74
592.792	26.5
592.986	26.31
593.179	26.43
593.373	27.29
593.567	26.75
593.76	26.44
593.954	25.4
594.147	25.47
594.341	24.35
594.535	24.48
594.728	24.78
594.922	24.45
595.115	23.85
595.309	23.93
595.502	23.87
595.696	24.13
595.889	24.38
596.083	25.36
596.276	26.06
596.47	26.26
596.663	26.13
596.856	26.14
597.05	26.2
597.243	26.6
597.437	26.56
597.63	26.72
597.823	26.96
598.017	27.56
598.21	28.17
598.403	27.24
598.596	28.16
598.79	27.82
598.983	27.78
599.176	28.46
599.369	28.47
599.563	28.79
599.756	28.49
599.949	28.36
600.142	27.56
600.335	27.03
600.528	27.46
600.722	27.25
600.915	27.66
601.108	27.32
601.301	26.96
601.494	27.11
601.687	27.2
601.88	27.77
602.073	27.82
602.266	28.23
602.459	28.55
602.652	28.64
602.845	28.21
603.038	28.66
603.231	29.35
603.424	29.85
603.617	29.73
603.809	29.28
604.002	28.76
604.195	28.94
604.388	28.63
604.581	28.2
604.774	27.76
604.966	27.62
605.159	26.52
605.352	25.64
605.545	25.61
605.737	25.89
605.93	26.57
606.123	26.77
606.316	26.7
606.508	27.16
606.701	27.82
606.894	28.06
607.086	28.73
607.279	29.88
607.471	29.78
607.664	29.55
607.857	29.6
608.049	29.18
608.242	29.04
608.434	28.48
608.627	28.67
608.819	28.36
609.012	28.45
609.204	27.83
609.397	27.08
609.589	27.46
609.782	26.85
609.974	26.83
610.166	26.6
610.359	26.58
610.551	27.27
610.743	26.37
610.936	26.06
611.128	25.62
611.32	26.34
611.513	26.53
611.705	25.48
611.897	25.92
612.09	25.58
612.282	25.51
612.474	25.44
612.666	25.44
612.858	26.17
613.051	25.88
613.243	26
613.435	25.35
613.627	25.43
613.819	26.59
614.011	26.92
614.203	27.14
614.395	27.58
614.588	27.49
614.78	27.11
614.972	27.74
615.164	28.48
615.356	29
615.548	29.77
615.74	30.74
615.932	30.67
616.124	30.14
616.315	30.63
616.507	31.64
616.699	32.29
616.891	34
617.083	32.67
617.275	33.08
617.467	33.75
617.659	33.96
617.85	33.49
618.042	33.7
618.234	34.44
618.426	34.51
618.618	32.74
618.809	32.01
619.001	32.29
619.193	31.96
619.384	32.12
619.576	30.42
619.768	30.33
619.959	29.67
620.151	28.75
620.343	28.25
620.534	29.08
620.726	30.04
620.917	30.01
621.109	26.81
621.301	27.86
621.492	27.84
621.684	28.66
621.875	27.76
622.067	28.93
622.258	28.23
622.45	28
622.641	27
622.832	27.44
623.024	27.56
623.215	28.85
623.407	27.9
623.598	27.83
623.789	28.12
623.981	29.23
624.172	28.21
624.363	28.47
624.555	29.51
624.746	29.08
624.937	28.46
625.129	28.77
625.32	29.13
625.511	29.42
625.702	28.6
625.893	28.55
626.085	27.35
626.276	27.41
626.467	28.44
626.658	28.14
626.849	28.43
627.04	28.85
627.231	28.52
627.422	28.06
627.614	27.83
627.805	27.83
627.996	28.74
628.187	29.54
628.378	29.65
628.569	29.48
628.76	28.97
628.951	28.52
629.142	28.86
629.332	28.43
629.523	28.91
629.714	29.64
629.905	30.26
630.096	29.6
630.287	29.64
630.478	29.75
630.669	30.43
630.859	30.41
631.05	31.3
631.241	30.61
631.432	32.08
631.623	32.06
631.813	32.28
632.004	32.34
632.195	32.52
632.385	31.97
632.576	31.58
632.767	31.23
632.957	30.97
633.148	31.27
633.339	31.39
633.529	31.27
633.72	32.34
633.91	32.17
634.101	31.62
634.292	30.99
634.482	31.52
634.673	31.58
634.863	31.19
635.054	32.43
635.244	31.51
635.435	31.81
635.625	30.65
635.815	29.24
636.006	28.72
636.196	28.98
636.387	29.35
636.577	29.43
636.767	29.24
636.958	29.72
637.148	29.23
637.338	29.63
637.529	29.91
637.719	30.72
637.909	31.38
638.099	32.29
638.29	31.46
638.48	31.91
638.67	31.15
638.86	31.74
639.05	31.47
639.241	31.87
639.431	31.22
639.621	31.06
639.811	31.27
640.001	31.54
640.191	31.44
640.381	32.95
640.571	32.77
640.761	33.66
640.951	34.07
641.141	34.3
641.331	33.47
641.521	34.5
641.711	33.93
641.901	32.54
642.091	31.99
642.281	32.68
642.471	32.86
642.661	32.86
642.851	32.28
643.041	32.86
643.231	32.05
643.42	32.6
643.61	32.38
643.8	32.79
643.99	34.7
644.18	35.42
644.369	34.36
644.559	34.53
644.749	33.78
644.939	34.69
645.128	33.52
645.318	33.43
645.508	33.55
645.697	34.66
645.887	35.07
646.076	34.26
646.266	34.42
646.456	35.99
646.645	35.4
646.835	36.21
647.024	36.75
647.214	38.11
647.403	38.57
647.593	38.21
647.782	37.62
647.972	37.04
648.161	37.15
648.351	35.95
648.54	34.61
648.73	34.97
648.919	35.21
649.108	34.18
649.298	32.71
649.487	32.05
649.677	32.94
649.866	32.1
650.055	32.7
650.244	32.45
650.434	33.76
650.623	33.96
650.812	34.42
651.002	33.51
651.191	33.9
651.38	35.07
651.569	36.64
651.758	36.56
651.947	36.2
652.137	35.83
652.326	35.84
652.515	35.21
652.704	34.36
652.893	33.75
653.082	33.57
653.271	32.7
653.46	32.52
653.649	32.48
653.838	31.76
654.027	32.77
654.216	31.66
654.405	32.05
654.594	31.47
654.783	31.92
654.972	32.15
655.161	33.11
655.35	34.05
655.539	32.69
655.728	31.4
655.916	30.94
656.105	29.56
656.294	30.1
656.483	29.81
656.672	29.86
656.86	30.57
657.049	30.74
657.238	31.4
657.427	30.96
657.615	31.96
657.804	32.89
657.993	32.35
658.181	32.54
658.37	33.08
658.559	33.42
658.747	33.25
658.936	32.59
659.125	33.99
659.313	33.4
659.502	34.19
659.69	33.71
659.879	34.1
660.067	34.97
660.256	35.73
660.444	36.07
660.633	34.92
660.821	34.61
661.01	35.27
661.198	32.53
661.387	32
661.575	31.14
661.763	30.94
661.952	28.8
662.14	30.14
662.328	30.37
662.517	31.41
662.705	31.93
662.893	32.57
663.082	32.82
663.27	33.11
663.458	33.39
663.646	34.05
663.834	34.27
664.023	35.65
664.211	34.83
664.399	34.79
664.587	34.07
664.775	34.95
664.963	35.4
665.152	34.16
665.34	34.1
665.528	33.76
665.716	33.49
665.904	35.29
666.092	35.28
666.28	36.53
666.468	36.57
666.656	36.83
666.844	36.34
667.032	36.22
667.22	37.62
667.408	38.35
667.596	39.59
667.784	39.89
667.971	39.27
668.159	38.52
668.347	36.92
668.535	36.93
668.723	36.18
668.911	37.65
669.098	37.93
669.286	37.37
669.474	37.46
669.662	36.66
669.849	35.86
670.037	35.89
670.225	35.62
670.413	36.1
670.6	35.84
670.788	37.11
670.976	35.46
671.163	34.42
671.351	33.85
671.538	32.75
671.726	34.42
671.913	34.96
672.101	34.91
672.289	36.89
672.476	37.19
672.664	37.88
672.851	37.35
673.039	37.18
673.226	38.24
673.413	38.6
673.601	40.52
673.788	38.71
673.976	38.38
674.163	38.09
674.35	38.02
674.538	36.63
674.725	36.22
674.912	35.37
675.1	36.15
675.287	35.16
675.474	36.65
675.662	35.01
675.849	33.51
676.036	32.77
676.223	34.91
676.411	34.06
676.598	32.91
676.785	31.16
676.972	32.07
677.159	30.97
677.346	31.84
677.533	30.94
677.721	32.01
677.908	33.37
678.095	33.99
678.282	31.33
678.469	31.39
678.656	33.68
678.843	34.63
679.03	34.98
679.217	36.08
679.404	35.6
679.591	36.3
679.778	36.54
679.964	37.59
680.151	37.68
680.338	38.23
680.525	38.36
680.712	38.39
680.899	39.66
681.086	38.89
681.272	38.35
681.459	38.01
681.646	36.6
681.833	35.93
682.02	35.32
682.206	34
682.393	34.2
682.58	34.05
682.766	34.68
682.953	33.68
683.14	33.52
683.326	33.67
683.513	36.18
683.7	36.54
683.886	36.76
684.073	36.49
684.259	36.46
684.446	35.12
684.632	34.63
684.819	32.4
685.005	32.13
685.192	30.9
685.378	30.91
685.565	29.9
685.751	30.74
685.938	31.31
686.124	30.63
686.31	31.69
686.497	33.55
686.683	34.11
686.87	34.69
687.056	33.97
687.242	34.31
687.429	33.38
687.615	32.99
687.801	32.19
687.987	32.5
688.174	34.29
688.36	35.31
688.546	33.57
688.732	33.5
688.918	33.38
689.105	34.14
689.291	35.22
689.477	35.63
689.663	36.05
689.849	37.43
690.035	37.05
690.221	35.44
690.407	35.03
690.593	35.94
690.779	36.42
690.965	36.85
691.151	36.95
691.337	36.72
691.523	36.94
691.709	35.45
691.895	33.81
692.081	34.26
692.267	34.04
692.453	34.02
692.639	33.98
692.825	32.89
693.011	34.29
693.196	34.61
693.382	32.55
693.568	32.15
693.754	32.72
693.94	33.99
694.125	33.33
694.311	35.28
694.497	33.72
694.682	34.25
694.868	33.54
695.054	32.19
695.239	31.87
695.425	33.05
695.611	33.62
695.796	33.37
695.982	31.67
696.168	31.49
696.353	28.73
696.539	29.82
696.724	29.23
696.91	30
697.095	29.58
697.281	29.92
697.466	30.63
697.652	29.75
697.837	30.28
698.023	30
698.208	29.54
698.393	30.16
698.579	29.76
698.764	28.29
698.949	28.01
699.135	27.74
699.32	26.83
699.505	25.12
699.691	26.25
699.876	26.22
700.061	28.01
700.246	28.92
700.432	31.01
700.617	31.36
700.802	33.52
700.987	35.09
701.172	37.34
701.358	39.6
701.543	40.73
701.728	39.39
701.913	39.51
702.098	38.84
702.283	38.05
702.468	36.19
702.653	35.83
702.838	37.44
703.023	39.2
703.208	36.18
703.393	34.33
703.578	34.72
703.763	37.48
703.948	36.44
704.133	37.17
704.318	38.5
704.503	41.15
704.688	43.93
704.873	43.41
705.057	40.49
705.242	42.44
705.427	42.14
705.612	42.41
705.797	42.13
705.981	41.47
706.166	41.67
706.351	40.8
706.536	38.76
706.72	38.73
706.905	38.09
707.09	38.75
707.274	37.48
707.459	36.89
707.644	37.42
707.828	36.33
708.013	35.72
708.197	35.93
708.382	35.16
708.567	34.73
708.751	31.91
708.936	30.58
709.12	28.89
709.305	28.49
709.489	30.58
709.673	29.95
709.858	30.8
710.042	32.78
710.227	33.05
710.411	30.97
710.596	31.48
710.78	31.82
710.964	33.26
711.149	34.21
711.333	35.53
711.517	35.77
711.702	37.37
711.886	37.65
712.07	37.57
712.254	36.65
712.438	38.08
712.623	36.99
712.807	38.51
712.991	39.12
713.175	40.43
713.359	40.22
713.544	39.67
713.728	37.68
713.912	37.31
714.096	37.75
714.28	35.31
714.464	35.9
714.648	37.28
714.832	36.98
715.016	34.39
715.2	33.58
715.384	31.64
715.568	31.89
715.752	30.89
715.936	31.25
716.12	31.62
716.304	34.01
716.488	33.69
716.671	32.76
716.855	32.19
717.039	32.62
717.223	31.17
717.407	33.61
717.59	32.7
717.774	34.48
717.958	32.74
718.142	31.94
718.325	30.21
718.509	31.14
718.693	29.82
718.877	28.13
719.06	28.58
719.244	29.16
719.428	29.31
719.611	29.23
719.795	29.23
719.978	32.74
720.162	35
720.345	36.66
720.529	37.29
720.713	42.3
720.896	45.35
721.08	45.42
721.263	44.1
721.446	42.91
721.63	43.96
721.813	44.29
721.997	41.12
722.18	39.06
722.364	36.04
722.547	33.8
722.73	30.04
722.914	27.95
723.097	28.66
723.28	29.47
723.464	29.51
723.647	28.83
723.83	27.81
724.013	27.37
724.197	27.79
724.38	33.72
724.563	34.31
724.746	32.72
724.929	30.58
725.112	30.6
725.296	32.84
725.479	31.31
725.662	31.94
725.845	32.15
726.028	35.86
726.211	34.68
726.394	35.05
726.577	34.39
726.76	37.97
726.943	40.8
727.126	40.58
727.309	38.32
727.492	39.2
727.675	38.22
727.858	38.54
728.041	34.88
728.224	34.35
728.407	30.09
728.589	31.01
728.772	30.66
728.955	30.31
729.138	31.59
729.321	31
729.503	32.66
729.686	33.69
729.869	34.78
730.052	36.3
730.234	40.73
730.417	41.51
730.6	43.43
730.782	42.82
730.965	41.14
731.148	39.26
731.33	41.63
731.513	40.64
731.695	40.68
731.878	38.75
732.061	36.25
732.243	32.38
732.426	34.6
732.608	32.54
732.791	32.81
732.973	34.86
733.156	36.97
733.338	37.53
733.52	40.18
733.703	41.96
733.885	43.13
734.068	46.02
734.25	45.67
734.432	46.48
734.615	44.92
734.797	44.9
734.979	45.04
735.162	43.91
735.344	45.16
735.526	43.13
735.708	41.9
735.891	40.02
736.073	41.35
736.255	44.22
736.437	42.89
736.619	46.75
736.802	44.71
736.984	45.11
737.166	45.56
737.348	42.45
737.53	44.66
737.712	44.19
737.894	45.37
738.076	45.89
738.258	44.8
738.44	42.21
738.622	42.38
738.804	41.45
738.986	43.87
739.168	42.98
739.35	44.46
739.532	45.72
739.714	44.45
739.896	46.35
740.078	44.67
740.259	44.18
740.441	44.77
740.623	43.97
740.805	51.45
740.987	49.61
741.168	49.95
741.35	48.54
741.532	47.26
741.714	49.1
741.895	46.08
742.077	45.63
742.259	48.71
742.44	51.12
742.622	53.34
742.804	53.21
742.985	53.63
743.167	54.24
743.348	56.69
743.53	53.14
743.711	53.23
743.893	55.54
744.075	53.7
744.256	49.84
744.438	47.53
744.619	46.36
744.8	40.63
744.982	41.29
745.163	43.13
745.345	45
745.526	47.27
745.707	46.64
745.889	50.03
746.07	51.35
746.252	52.46
746.433	56.03
746.614	54.21
746.795	54.45
746.977	56.29
747.158	52.51
747.339	50.66
747.52	50.45
747.702	51.45
747.883	47.88
748.064	50.33
748.245	51
748.426	47.85
748.607	48.56
748.788	49.12
748.97	45.23
749.151	43.52
749.332	44.14
749.513	44.16
749.694	42.85
749.875	42.62
750.056	45.04
750.237	45.11
750.418	45.05
750.599	42.21
750.78	43.48
750.96	41.83
751.141	46.4
751.322	49.78
751.503	48.3
751.684	50.96
751.865	50.21
752.046	46.94
752.226	46.77
752.407	50.86
752.588	55.76
752.769	58.18
752.949	57.07
753.13	54.83
753.311	51.37
753.492	55.89
753.672	53.95
753.853	56.25
754.034	57.72
754.214	59.56
754.395	60.15
754.575	61.49
754.756	57.75
754.937	59.45
755.117	63.23
755.298	62.79
755.478	59.72
755.659	56.12
755.839	56.94
756.02	56
756.2	48.88
756.381	43.7
756.561	38.99
756.741	40.12
756.922	42.54
757.102	39.17
757.283	40.91
757.463	38.23
757.643	38.14
757.823	37.17
758.004	37.57
758.184	43.58
758.364	40.16
758.545	42.51
758.725	38.32
758.905	34.01
759.085	33.87
759.265	31.2
759.446	31.35
759.626	30.96
759.806	28.39
759.986	27.95
760.166	26.42
760.346	29.33
760.526	29.49
760.706	32.99
760.886	34.35
761.066	33.97
761.246	34.04
761.426	32.32
761.606	32.42
761.786	33.72
761.966	31.15
762.146	31.15
762.326	30.68
762.506	28.55
762.686	28.69
762.866	27.99
763.046	27.32
763.225	27.3
763.405	26.77
763.585	29.08
763.765	28.5
763.945	31.84
764.124	33.28
764.304	35.26
764.484	37.46
764.664	37.11
764.843	40.82
765.023	44.2
765.203	46.44
765.382	47.61
765.562	46.54
765.741	48.73
765.921	48.25
766.101	48.96
766.28	49.03
766.46	48.98
766.639	50.61
766.819	48.85
766.998	48.34
767.178	53.05
767.357	60.09
767.537	63.64
767.716	61.01
767.896	59.38
768.075	60.01
768.254	64.98
768.434	65.62
768.613	65.44
768.792	69.85
768.972	71
769.151	63.74
769.33	58.61
769.51	57.45
769.689	57.16
769.868	57.5
770.047	62.15
770.226	58.15
770.406	53.7
770.585	57.29
770.764	51.18
770.943	52.72
771.122	50.4
771.301	52.34
771.48	56.61
771.66	59.32
771.839	64.34
772.018	59.2
772.197	63.97
772.376	70.92
772.555	65.8
772.734	69.86
772.913	73.94
773.092	86.44
773.271	91.7
773.449	98.32
773.628	92.63
773.807	89.01
773.986	91.18
774.165	89.47
774.344	92.28
774.523	97.14
774.701	94.02
774.88	94.91
775.059	90.12
775.238	82.5
775.417	71.88
775.595	75.64
775.774	78.89
775.953	77.32
776.131	73.56
776.31	72.58
776.489	65.64
776.667	72.29
776.846	66.1
777.025	62.99
777.203	69.12
777.382	74.53
777.56	71.4
777.739	66.55
777.917	63.83
778.096	63.73
778.274	61.34
778.453	63.84
778.631	59.71
778.81	59.12
778.988	55.13
779.166	52.5
779.345	49.02
779.523	50.04
779.702	46.91
779.88	48.42
780.058	48.51
780.237	49.23
780.415	47.78
780.593	49.57
780.771	51.35
780.95	54.14
781.128	58.41
781.306	62.47
781.484	59.64
781.662	69.34
781.841	67.49
782.019	70.53
782.197	72.61
782.375	74.25
782.553	77.44
782.731	82.3
782.909	82.64
783.087	75.22
783.265	70.84
783.443	69.46
783.621	67.13
783.799	71.82
783.977	71.25
784.155	70.5
784.333	72.56
784.511	68.24
784.689	63.82
784.867	67.04
785.045	66.28
785.223	66.52
785.4	70.48
785.578	71.28
785.756	71.5
785.934	64.86
786.112	65.14
786.289	60.99
786.467	59.85
786.645	59.17
786.823	60.07
787	57.9
787.178	58.15
787.356	58.61
787.533	59.18
787.711	54.5
787.889	53.81
788.066	55.15
788.244	54.46
788.421	54.69
788.599	54.1
788.776	51.43
788.954	49.12
789.131	46.15
789.309	47.33
789.486	38.26
789.664	46.78
789.841	45.59
790.019	44.84
790.196	44.91
790.373	43.71
790.551	45.48
790.728	39.82
790.906	42.98
791.083	41.73
791.26	41.17
791.437	46.7
791.615	42.74
791.792	45.72
791.969	45.62
792.146	52.78
792.324	57.89
792.501	55.29
792.678	64.14
792.855	61.99
793.032	65.29
793.209	59.29
793.387	57.37
793.564	53.12
793.741	52.1
793.918	48.53
794.095	46.66
794.272	43.24
794.449	45.43
794.626	38.48
794.803	40.88
794.98	45.04
795.157	47.61
795.334	40.7
795.511	50.81
795.688	54.54
795.864	58.59
796.041	52.22
796.218	50.63
796.395	55.31
796.572	58.3
796.749	58.92
796.925	58.54
797.102	62.19
797.279	74.82
797.456	68.33
797.632	71.63
797.809	71.92
797.986	72.7
798.162	75.25
798.339	61.28
798.516	70.34
798.692	73.48
798.869	70.11
799.046	77.11
799.222	71.11
799.399	62.37
799.575	57.96
799.752	48.83
799.928	54.33
800.105	53.53
800.281	63.31
800.458	62.77
800.634	57.61
800.811	53.13
800.987	44.06
801.163	37.93
801.34	44.93
801.516	37.82
801.692	45.37
801.869	45.37
802.045	46.97
802.221	51.14
802.398	48.29
802.574	51.22
802.75	57.52
802.926	62.59
803.103	67.63
803.279	70.13
803.455	73.19
803.631	78.05
803.807	78.53
803.983	74.17
804.16	64.44
804.336	62.1
804.512	55.36
804.688	65.98
804.864	54.83
805.04	54.16
805.216	57.27
805.392	64.56
805.568	60.32
805.744	65.02
805.92	69.71
806.096	76.55
806.272	75.89
806.448	81.44
806.623	65.59
806.799	69.67
806.975	65.85
807.151	67
807.327	56.68
807.503	52.47
807.678	48.61
807.854	57.82
808.03	52.37
808.206	49.59
808.381	56.01
808.557	56.68
808.733	60.65
808.908	55.9
809.084	45.39
809.26	54.26
809.435	66.07
809.611	70.78
809.787	63.52
809.962	67.98
810.138	75.92
810.313	78.65
810.489	85.72
810.664	86.64
810.84	89.64
811.015	91.16
811.191	77.81
811.366	68.52
811.542	39.49
811.717	47.73
811.892	44.01
812.068	30.65
812.243	10.94
812.419	-14.87
812.594	-14.13
812.769	20.42
812.944	46.21
813.12	36.83
813.295	28.89
813.47	40.64
813.645	40.76
813.821	45.69
813.996	40.52
814.171	46.27
814.346	44.24
814.521	48.06
814.697	36.55
814.872	24.86
815.047	34.42
815.222	40.25
815.397	40.63
815.572	41.08
815.747	37.98
815.922	52.31
816.097	55.97
816.272	65.51
816.447	58.12
816.622	63.75
816.797	59.3
816.972	58.03
817.147	56.07
817.322	63.86
817.496	56.47
817.671	49.23
817.846	39.38
818.021	37.05
818.196	33.66
818.371	34.13
818.545	32.99
818.72	39.74
818.895	37.12
819.069	37.59
819.244	32.43
819.419	35.71
819.594	36.17
819.768	34.75
819.943	31.35
820.117	30.18
820.292	34
820.467	34.07
820.641	32.3
820.816	32.66
820.99	32.2
821.165	32.64
821.339	31.64
821.514	30.86
821.688	32.34
821.863	32.85
822.037	32.54
822.212	31.08
822.386	31.36
822.56	32.29
822.735	33.99
822.909	35.54
823.084	35.17
823.258	35.4
823.432	34.9
823.606	28.73
823.781	24.94
823.955	27.49
824.129	28.94
824.303	28.66
824.478	26.69
824.652	20.66
824.826	17.28
825	14.71
825.174	18.61
825.348	22.52
825.523	26.61
825.697	31.41
825.871	31.22
826.045	33.67
826.219	32.92
826.393	32.65
826.567	34.23
826.741	36.02
826.915	40.23
827.089	35.88
827.263	37.59
827.437	38.19
827.611	40.68
827.784	35.12
827.958	26.9
828.132	28.95
828.306	32.34
828.48	32.08
828.654	32.32
828.827	32.66
829.001	35.12
829.175	26.44
829.349	32.53
829.522	20.99
829.696	34.31
829.87	48.07
830.044	47.01
830.217	26.04
830.391	34.87
830.565	28.12
830.738	17.82
830.912	31.06
831.085	35.97
831.259	28.65
831.432	29.38
831.606	36.21
831.779	33.78
831.953	33.78
832.126	32.56
832.3	33.98
832.473	36.76
832.647	34.12
832.82	35.95
832.994	38.86
833.167	38.39
833.34	37.99
833.514	42.89
833.687	38.84
833.86	40.2
834.034	50.59
834.207	48.38
834.38	47.62
834.553	55.34
834.727	53.82
834.9	45.43
835.073	41.09
835.246	42.64
835.419	28.78
835.593	41.68
835.766	34.76
835.939	47.37
836.112	61.05
836.285	81.4
836.458	65.26
836.631	53.6
836.804	72.63
836.977	85.78
837.15	106.44
837.323	75.27
837.496	76.07
837.669	81.5
837.842	84.29
838.015	58.66
838.188	50.43
838.361	62.94
838.533	57.2
838.706	55.27
838.879	52.54
839.052	39
839.225	43.41
839.398	37.69
839.57	42.05
839.743	54.88
839.916	71.06
840.088	57.6
840.261	58.76
840.434	61.89
840.607	65.74
840.779	69.74
840.952	76.93
841.124	82.23
841.297	96.03
841.47	84.79
841.642	45.5
841.815	-1.74
841.987	73.16
842.16	-29.41
842.332	11.76
842.505	-59.62
842.677	-154.17
842.85	-541.18
843.022	4480
843.194	229.03
843.367	33.54
843.539	-2.53
843.712	-31.51
843.884	-71.08
844.056	-86.71
844.229	-65.14
844.401	-269.03
844.573	-331.33
844.745	463.22
844.918	182.86
845.09	151.66
845.262	99.52
845.434	107.72
845.606	76.77
845.779	59.39
845.951	45.3
846.123	45.79
846.295	46.55
846.467	76.98
846.639	89.84
846.811	134.1
846.983	170
847.155	244.16
847.327	433.33
847.499	701.9
847.671	507.45
847.843	-3752.63
848.015	-2232.26
848.187	1155.17
848.359	3925
848.531	316.51
848.703	285.94
848.875	215.82
849.047	157.01
849.218	127.39
849.39	118.27
849.562	340
849.734	-0
849.905	260
850.077	110.42
850.249	53.95
850.421	136.04
850.592	58.49
850.764	51.33
850.936	6.99
851.107	30.71
851.279	10.16
851.451	21.38
851.622	59.71
851.794	44.27
851.965	9.54
852.137	-23.05
852.308	-14.29
852.48	35.27
852.651	84
852.823	137.8
852.994	81.9
853.166	115.19
853.337	109.47
853.509	173.21
853.68	287.5
853.851	-1521.43
854.023	384.3
854.194	301.77
854.365	-11500
854.537	-1654.55
854.708	857.14
854.879	204.26
855.05	-66.47
855.222	-58.05
855.393	-196.91
855.564	-53.26
855.735	-5.96
855.906	-9.69
856.078	14.59
856.249	19.92
856.42	6.72
856.591	-1.99
856.762	-26.59
856.933	-18.44
857.104	-44.38
857.275	10.11
857.446	-13.9
857.617	-34.41
857.788	-12.81
857.959	-71.05
858.13	-65.18
858.301	4.4
858.472	45.59
858.643	163.95
858.814	97.3
858.985	109.09
859.155	106.61
859.326	93.86
859.497	93.12
859.668	75.25
859.839	116
860.009	93.53
860.18	121.05
860.351	123.73
860.522	91.14
860.692	96.9
860.863	88.28
861.034	95.42
861.204	101.92
861.375	93.58
861.546	107.32
861.716	77.78
861.887	83.64
862.057	100.19
862.228	50.93
862.398	81.88
862.569	84.5
862.739	106.47
862.91	104.13
863.08	83.33
863.251	147.57
863.421	141.82
863.592	75.14
863.762	96.25
863.932	409.68
864.103	-591.67
864.273	-6.43
864.443	486.36
864.614	196.2
864.784	600
864.954	1045.45
865.125	-812.12
865.295	-1466.67
865.465	642.59
865.635	197.38
865.805	196.14
865.976	137.99
866.146	105.23
866.316	85.98
866.486	75.21
866.656	42.19
866.826	41.56
866.996	15.54
867.166	-0.31
867.336	-1.15
867.506	-3.65
867.676	-8.76
867.846	-30.34
868.016	-43.75
868.186	-75.57
868.356	-168.68
868.526	5
868.696	72.15
868.866	50.6
869.036	59.3
869.206	123.53
869.376	-440
869.545	-460
869.715	31.25
869.885	197.18
870.055	-12.33
870.224	27.56
870.394	-525.49
870.564	309.86
870.734	-43.48
870.903	-170.8
871.073	-6.76
871.243	-138.24
871.412	-12.69
871.582	-39.35
871.751	-20.72
871.921	-65.34
872.091	-111.02
872.26	-5.48
872.43	17.05
872.599	-4.88
872.769	39.26
872.938	63.52
873.108	63.42
873.277	70.61
873.446	89.04
873.616	102.93
873.785	136.72
873.955	135.61
874.124	145.61
874.293	167.89
874.463	130.71
874.632	130.8
874.801	88.54
874.971	61.14
875.14	70.08
875.309	127.03
875.478	111.76
875.647	17.97
875.817	51.46
875.986	46.9
876.155	42.32
876.324	39.11
876.493	68.62
876.662	78.46
876.831	75
877	78.13
877.17	59.47
877.339	55.3
877.508	81.34
877.677	62.48
877.846	67.77
878.015	78.39
878.184	46.96
878.352	23.87
878.521	42.51
878.69	42.96
878.859	28.4
879.028	8.33
879.197	24.24
879.366	28.03
879.534	27.37
879.703	21.53
879.872	18.16
880.041	27.69
880.21	27.14
880.378	24.46
880.547	22
880.716	24.42
880.884	24.91
881.053	29.35
881.222	30.02
881.39	28.7
881.559	30.02
881.727	27.18
881.896	25
882.065	18.94
882.233	20.04
882.402	23.32
882.57	24.55
882.739	30.03
882.907	25.2
883.076	32.01
883.244	35.91
883.412	39.39
883.581	51.14
883.749	55.21
883.918	62.47
884.086	52.04
884.254	53.24
884.423	56.08
884.591	44.2
884.759	47.14
884.927	41.44
885.096	53.05
885.264	59.06
885.432	58.37
885.6	61.5
885.769	62.83
885.937	84.5
886.105	84.4
886.273	97.11
886.441	124.87
886.609	130.91
886.777	118.59
886.945	74.36
887.113	71.83
887.281	54.55
887.449	72.27
887.617	96.98
887.785	100
887.953	88.34
888.121	80.44
888.289	77.05
888.457	92.21
888.625	76.07
888.793	99.4
888.961	88.48
889.129	74.02
889.296	-26.32
889.464	-420.97
889.632	-386.84
889.8	-1753.85
889.967	-160.82
890.135	-175
