Data from JASIL_2929_Reflection_1.txt Node
Date: Sat Nov 07 20:47:20 EST 2015
User: Geneva
Spectrometer: USB4E03002
Autoset integration time: false
Trigger mode: 4
Integration Time (sec): 1.000000E-1
Scans to average: 10
Electric dark correction enabled: true
Nonlinearity correction enabled: false
Boxcar width: 5
Stray light correction enabled: false
XAxis mode: Wavelengths
Stop averaging: false
Number of Pixels in Spectrum: 3648
>>>>>Begin Spectral Data<<<<<
177.575	127.88
177.794	141.08
178.014	180.04
178.233	77.98
178.452	8.4
178.672	65.95
178.891	109.58
179.11	0
179.33	423.38
179.549	-5.64
179.768	284.84
179.987	-463.46
180.207	-9.16
180.426	10.16
180.645	27.66
180.864	15.08
181.084	25.15
181.303	6.06
181.522	0.12
181.741	1.46
181.96	-7.53
182.179	2.11
182.398	0.1
182.618	-11.1
182.837	-25.54
183.056	-62.61
183.275	-51.73
183.494	-99.67
183.713	-60.9
183.932	-79.44
184.151	-76.41
184.37	-31.1
184.589	-26.15
184.808	-16.09
185.027	-11.42
185.246	-0.07
185.465	6.7
185.684	4.63
185.903	20.64
186.122	18.21
186.341	18.98
186.56	15.16
186.779	-2.11
186.998	-7.43
187.216	-7.79
187.435	-21.96
187.654	-45.4
187.873	-32.33
188.092	-65.33
188.311	-64.48
188.53	-37.5
188.748	-47.12
188.967	-72.86
189.186	-35.8
189.405	-33.03
189.623	-50.61
189.842	-6.71
190.061	3
190.28	-7.59
190.498	-21.16
190.717	-38.94
190.936	-41.32
191.154	-74.76
191.373	-85.09
191.592	-143.99
191.81	-136.29
192.029	-108.78
192.248	-157.9
192.466	-99.98
192.685	-89.26
192.904	-51.63
193.122	-35.6
193.341	-42.4
193.559	-15.26
193.778	-0.25
193.996	10.65
194.215	13.12
194.433	8.11
194.652	-1.75
194.87	-10.98
195.089	-4.19
195.307	-0.98
195.526	8.12
195.744	4.17
195.963	5.49
196.181	-7.94
196.399	-29.37
196.618	-47.3
196.836	-33.11
197.055	-34.99
197.273	-51.81
197.491	-57.95
197.71	-62.34
197.928	-104.36
198.146	-47.64
198.365	-65.73
198.583	-41.59
198.801	-16.18
199.019	-14.58
199.238	-18.29
199.456	-1.64
199.674	-8.57
199.892	-9.71
200.111	-23.57
200.329	-6.19
200.547	-29.26
200.765	-29.79
200.983	-63.64
201.202	-53.4
201.42	-36.04
201.638	-43.38
201.856	-45.61
202.074	-25.78
202.292	-22.68
202.51	-21.75
202.728	-36.06
202.946	-54.38
203.165	-52.22
203.383	-38.49
203.601	-58.66
203.819	-68.11
204.037	-61.68
204.255	-35.5
204.473	-28.51
204.691	-36.06
204.909	-51.12
205.127	-23.27
205.345	-1.9
205.562	5.79
205.78	1.29
205.998	9.3
206.216	8.05
206.434	11.77
206.652	-3.27
206.87	-7.11
207.088	-1.21
207.306	10.46
207.523	4.98
207.741	-5.43
207.959	-11.69
208.177	-17.05
208.395	-45.28
208.612	-69.71
208.83	-61.48
209.048	-52.6
209.266	-79.28
209.483	-103.07
209.701	-113.35
209.919	-116.45
210.136	-115.48
210.354	-55.61
210.572	-32.06
210.79	-19.02
211.007	-5.97
211.225	-7.2
211.442	1.15
211.66	10.46
211.878	17.43
212.095	78.07
212.313	76.16
212.53	74.39
212.748	68.6
212.966	67.88
213.183	63.56
213.401	61.06
213.618	66.75
213.836	67.29
214.053	64.85
214.271	58.74
214.488	-3.97
214.705	-14.42
214.923	-18.29
215.14	-14.74
215.358	-21.65
215.575	-19.54
215.793	-11.49
216.01	-18.43
216.227	-15.37
216.445	-20.62
216.662	-25
216.879	-22.06
217.097	-14.87
217.314	-12.99
217.531	-16.84
217.749	-14.1
217.966	-10.92
218.183	-15.56
218.4	-12.69
218.618	-10.07
218.835	-2.19
219.052	6.96
219.269	10.58
219.487	8.24
219.704	5.72
219.921	2.09
220.138	8.07
220.355	5.54
220.572	2.93
220.79	0.7
221.007	3.6
221.224	3.92
221.441	-0.08
221.658	-5.82
221.875	-5.9
222.092	-2.43
222.309	-1.36
222.526	-5.57
222.743	-8.04
222.96	-12.04
223.177	-13.02
223.394	-19.79
223.611	-17.72
223.828	-16.47
224.045	-12.72
224.262	-12.62
224.479	-13.47
224.696	-13.02
224.913	-10.89
225.13	-5.54
225.347	-1.51
225.564	-1.86
225.781	-1.19
225.997	0.03
226.214	1.54
226.431	2.8
226.648	4.23
226.865	5.44
227.082	6.19
227.298	5.86
227.515	5.48
227.732	5.48
227.949	6.29
228.165	6.78
228.382	5.73
228.599	5.85
228.816	5.87
229.032	5.25
229.249	4.76
229.466	3.76
229.682	4.12
229.899	4.19
230.116	3.97
230.332	4.34
230.549	5.08
230.765	6.13
230.982	6.08
231.199	5.92
231.415	6.61
231.632	6.07
231.848	7.6
232.065	7.76
232.281	7.85
232.498	8.09
232.714	6.73
232.931	6.12
233.147	6.62
233.364	6.11
233.58	6.03
233.797	5.83
234.013	6.16
234.23	5.56
234.446	5.46
234.662	5.9
234.879	5.63
235.095	6.24
235.312	7.27
235.528	6.13
235.744	6.37
235.961	6.22
236.177	6.41
236.393	5.99
236.61	7.37
236.826	6.27
237.042	6.39
237.258	6.23
237.475	6.2
237.691	5.56
237.907	6.44
238.123	6.5
238.339	6.43
238.556	5.3
238.772	5.77
238.988	5.64
239.204	6.17
239.42	5.23
239.636	5.73
239.853	6.02
240.069	5.71
240.285	5.95
240.501	6.17
240.717	6.16
240.933	6.92
241.149	7.24
241.365	7.35
241.581	7.2
241.797	7.16
242.013	7.05
242.229	7.12
242.445	7.18
242.661	7.06
242.877	7
243.093	7.36
243.309	7.18
243.525	6.68
243.741	6.51
243.957	6.77
244.173	7.31
244.388	7.12
244.604	6.9
244.82	6.99
245.036	7.03
245.252	7.18
245.468	6.98
245.683	6.92
245.899	7.22
246.115	6.98
246.331	6.99
246.547	6.88
246.762	7.11
246.978	7.14
247.194	6.95
247.409	6.93
247.625	6.64
247.841	6.35
248.057	6.3
248.272	5.88
248.488	5.99
248.703	5.64
248.919	5.53
249.135	5.17
249.35	4.74
249.566	4.96
249.782	4.76
249.997	5.27
250.213	5.5
250.428	5.78
250.644	5.88
250.859	5.78
251.075	6.06
251.29	6.05
251.506	5.67
251.721	5.86
251.937	5.9
252.152	6.11
252.368	5.84
252.583	5.97
252.798	5.44
253.014	5.37
253.229	5.41
253.445	4.71
253.66	4.66
253.875	4.5
254.091	3.79
254.306	3.91
254.521	3.15
254.737	3.27
254.952	3.2
255.167	3.76
255.383	4.09
255.598	4.38
255.813	4.76
256.028	4.89
256.244	5.38
256.459	5.52
256.674	5.17
256.889	5.35
257.104	5.04
257.32	5.25
257.535	5.1
257.75	5.01
257.965	5.04
258.18	5.12
258.395	5.07
258.61	4.99
258.826	5.08
259.041	5.1
259.256	5.08
259.471	5.12
259.686	5.14
259.901	5.01
260.116	5.09
260.331	5.03
260.546	4.97
260.761	4.85
260.976	4.85
261.191	4.71
261.406	4.43
261.621	4.48
261.836	4.34
262.05	4.22
262.265	4.25
262.48	4.17
262.695	3.9
262.91	3.93
263.125	3.95
263.34	4.04
263.555	4.3
263.769	4.09
263.984	3.98
264.199	4.09
264.414	3.9
264.629	3.95
264.843	4.04
265.058	4.14
265.273	4.35
265.488	4.3
265.702	4.29
265.917	4.34
266.132	4.81
266.346	4.97
266.561	4.96
266.776	5.03
266.99	5.26
267.205	5.15
267.42	5.04
267.634	4.82
267.849	4.92
268.063	4.66
268.278	4.5
268.492	4.24
268.707	4.11
268.922	4.08
269.136	3.96
269.351	4.03
269.565	4.02
269.78	3.78
269.994	3.56
270.209	3.63
270.423	4.11
270.637	4.11
270.852	4.24
271.066	4.25
271.281	4.2
271.495	4.38
271.709	4.27
271.924	4.3
272.138	4.52
272.353	4.75
272.567	4.53
272.781	4.05
272.996	4.07
273.21	3.93
273.424	3.71
273.638	3.67
273.853	3.5
274.067	3.26
274.281	3.22
274.495	3.2
274.71	2.96
274.924	3.26
275.138	3.37
275.352	3.34
275.566	3.48
275.781	3.69
275.995	4.07
276.209	4.11
276.423	4.06
276.637	3.76
276.851	3.65
277.065	3.76
277.279	3.59
277.493	3.86
277.707	3.82
277.921	3.79
278.135	3.9
278.349	3.44
278.563	2.99
278.777	2.86
278.991	3.15
279.205	3.46
279.419	3.61
279.633	3.76
279.847	3.66
280.061	3.73
280.275	3.78
280.489	3.62
280.703	3.7
280.917	4.02
281.131	4.36
281.344	4.19
281.558	3.79
281.772	3.77
281.986	3.77
282.2	3.77
282.414	3.66
282.627	3.65
282.841	3.78
283.055	3.74
283.269	3.79
283.482	3.62
283.696	3.83
283.91	4.17
284.123	4.24
284.337	4.08
284.551	4.02
284.764	4.03
284.978	4.23
285.192	4.05
285.405	4.17
285.619	4.22
285.833	4.04
286.046	3.9
286.26	3.83
286.473	3.72
286.687	3.68
286.9	3.74
287.114	3.78
287.327	3.78
287.541	3.82
287.754	3.72
287.968	3.65
288.181	3.97
288.395	4.03
288.608	3.96
288.822	3.9
289.035	3.95
289.248	4.03
289.462	4.17
289.675	3.93
289.889	4.07
290.102	4.1
290.315	4.12
290.529	4.15
290.742	4.1
290.955	4.14
291.169	4.23
291.382	4.22
291.595	4.09
291.808	3.93
292.022	4.12
292.235	3.88
292.448	3.95
292.661	3.89
292.875	3.88
293.088	3.92
293.301	3.92
293.514	3.85
293.727	3.8
293.94	4
294.153	4.05
294.367	3.85
294.58	3.93
294.793	3.88
295.006	3.75
295.219	3.78
295.432	3.83
295.645	3.93
295.858	3.87
296.071	3.88
296.284	3.7
296.497	3.82
296.71	3.97
296.923	4.06
297.136	4.05
297.349	4.31
297.562	4.19
297.775	4.17
297.988	4.06
298.201	4.14
298.414	4.18
298.626	4.16
298.839	4.09
299.052	4
299.265	3.71
299.478	3.62
299.691	3.23
299.903	3.34
300.116	3.3
300.329	3.38
300.542	3.47
300.755	3.57
300.967	3.71
301.18	3.79
301.393	3.62
301.605	3.85
301.818	3.83
302.031	3.98
302.243	4.03
302.456	4.32
302.669	4.13
302.881	4.14
303.094	4.17
303.307	4.32
303.519	4.31
303.732	4.53
303.944	4.66
304.157	4.59
304.37	4.68
304.582	4.63
304.795	4.42
305.007	4.64
305.22	4.58
305.432	4.35
305.645	4.03
305.857	3.85
306.069	3.83
306.282	3.59
306.494	3.92
306.707	3.82
306.919	3.96
307.132	3.97
307.344	3.77
307.556	3.77
307.769	3.91
307.981	4.07
308.193	4.15
308.406	3.86
308.618	3.97
308.83	3.85
309.043	3.92
309.255	3.84
309.467	3.87
309.679	4.11
309.892	4.11
310.104	4.05
310.316	3.95
310.528	3.94
310.74	4.36
310.953	4.5
311.165	4.66
311.377	4.61
311.589	4.56
311.801	4.5
312.013	4.38
312.225	4.34
312.437	4.42
312.649	4.59
312.862	4.66
313.074	4.52
313.286	4.39
313.498	4.21
313.71	4.51
313.922	4.51
314.134	4.61
314.346	4.6
314.558	4.67
314.77	4.59
314.982	4.29
315.193	4.32
315.405	4.03
315.617	3.98
315.829	3.98
316.041	3.87
316.253	3.91
316.465	3.82
316.677	3.89
316.888	3.93
317.1	4.21
317.312	4.67
317.524	4.56
317.736	4.89
317.947	5.06
318.159	5.25
318.371	5.31
318.583	5.41
318.794	5.49
319.006	5.36
319.218	5.31
319.43	5.11
319.641	4.95
319.853	5.03
320.064	4.98
320.276	5.09
320.488	5.12
320.699	5.27
320.911	5.21
321.123	5.3
321.334	5.68
321.546	5.76
321.757	5.85
321.969	5.99
322.18	6.09
322.392	6.05
322.603	6
322.815	6.08
323.026	6.07
323.238	6.04
323.449	6.36
323.661	6.21
323.872	6.54
324.083	6.75
324.295	6.82
324.506	6.87
324.718	7.01
324.929	7.25
325.14	7.39
325.352	7.61
325.563	8.02
325.774	7.95
325.986	8.09
326.197	8.04
326.408	8.06
326.62	8.16
326.831	8.43
327.042	8.83
327.253	9.03
327.464	9.09
327.676	9.1
327.887	9.11
328.098	9.18
328.309	9.39
328.52	9.6
328.732	10.04
328.943	10.33
329.154	10.39
329.365	10.25
329.576	10.34
329.787	10.33
329.998	10.45
330.209	10.61
330.42	10.8
330.631	10.96
330.842	11.02
331.053	10.93
331.264	11.05
331.475	11.2
331.686	11.36
331.897	11.28
332.108	11.41
332.319	11.36
332.53	11.53
332.741	11.62
332.952	11.53
333.163	11.7
333.374	11.73
333.585	11.71
333.795	11.75
334.006	11.78
334.217	11.89
334.428	12.05
334.639	12.19
334.849	12.19
335.06	12.2
335.271	12.24
335.482	12.16
335.692	12.28
335.903	12.11
336.114	12.02
336.325	12.18
336.535	12.22
336.746	12.04
336.957	11.99
337.167	11.82
337.378	11.86
337.589	11.91
337.799	11.96
338.01	11.98
338.22	12.02
338.431	11.95
338.642	11.94
338.852	11.83
339.063	11.98
339.273	11.83
339.484	11.85
339.694	11.7
339.905	11.63
340.115	11.61
340.326	11.52
340.536	11.67
340.746	11.75
340.957	11.58
341.167	11.65
341.378	11.43
341.588	11.77
341.799	11.8
342.009	11.8
342.219	11.88
342.43	12.06
342.64	12.05
342.85	11.91
343.061	11.94
343.271	12.02
343.481	11.96
343.691	12.04
343.902	11.76
344.112	11.8
344.322	11.97
344.532	11.96
344.743	11.87
344.953	11.73
345.163	11.77
345.373	11.75
345.583	11.68
345.793	11.64
346.004	11.65
346.214	11.85
346.424	11.81
346.634	11.73
346.844	11.85
347.054	12.05
347.264	12.19
347.474	12.09
347.684	12.07
347.894	12.05
348.104	12.08
348.314	12.09
348.524	12.04
348.734	11.99
348.944	12.02
349.154	12.02
349.364	11.71
349.574	11.65
349.784	11.65
349.994	11.68
350.204	11.74
350.413	11.71
350.623	11.75
350.833	11.64
351.043	11.7
351.253	11.69
351.463	11.62
351.672	11.49
351.882	11.47
352.092	11.38
352.302	11.32
352.511	11.2
352.721	11.26
352.931	11.25
353.141	11.29
353.35	11.11
353.56	10.92
353.77	11.05
353.979	11.27
354.189	11.37
354.399	11.51
354.608	11.43
354.818	11.45
355.027	11.39
355.237	11.32
355.447	11.39
355.656	11.38
355.866	11.61
356.075	11.43
356.285	11.32
356.494	11.15
356.704	11.11
356.913	11.14
357.123	11.09
357.332	11.12
357.542	11.3
357.751	11.24
357.96	11.28
358.17	11.2
358.379	11.15
358.589	11.21
358.798	11.35
359.007	11.34
359.217	11.24
359.426	11.31
359.635	11.19
359.845	11.07
360.054	10.93
360.263	10.89
360.472	10.84
360.682	10.89
360.891	10.83
361.1	10.76
361.309	10.72
361.519	10.82
361.728	10.85
361.937	10.87
362.146	10.86
362.355	10.99
362.564	11.07
362.774	10.98
362.983	10.84
363.192	10.77
363.401	10.69
363.61	10.78
363.819	10.77
364.028	10.7
364.237	10.67
364.446	10.69
364.655	10.5
364.864	10.48
365.073	10.62
365.282	10.78
365.491	10.82
365.7	10.85
365.909	10.72
366.118	10.73
366.327	10.71
366.536	10.73
366.745	10.72
366.954	10.78
367.162	10.71
367.371	10.6
367.58	10.49
367.789	10.4
367.998	10.38
368.207	10.57
368.415	10.56
368.624	10.55
368.833	10.59
369.042	10.55
369.25	10.66
369.459	10.63
369.668	10.75
369.877	10.71
370.085	10.77
370.294	10.82
370.503	10.7
370.711	10.6
370.92	10.51
371.129	10.4
371.337	10.26
371.546	10.08
371.754	10.1
371.963	10.08
372.171	10.07
372.38	9.91
372.589	9.91
372.797	9.93
373.006	9.91
373.214	9.81
373.423	9.87
373.631	9.89
373.84	9.98
374.048	9.92
374.256	9.7
374.465	9.6
374.673	9.61
374.882	9.45
375.09	9.33
375.298	9.35
375.507	9.43
375.715	9.45
375.923	9.33
376.132	9.21
376.34	9.23
376.548	9.28
376.757	9.41
376.965	9.54
377.173	9.71
377.381	9.72
377.59	9.68
377.798	9.7
378.006	9.65
378.214	9.72
378.423	9.77
378.631	9.76
378.839	9.74
379.047	9.63
379.255	9.47
379.463	9.35
379.671	9.29
379.879	9.27
380.088	9.25
380.296	9.2
380.504	9.35
380.712	9.4
380.92	9.41
381.128	9.41
381.336	9.45
381.544	9.42
381.752	9.35
381.96	9.28
382.168	9.21
382.376	9.12
382.584	9.05
382.791	8.94
382.999	8.88
383.207	8.89
383.415	8.94
383.623	8.85
383.831	8.9
384.039	8.95
384.247	9.06
384.454	9.1
384.662	9.19
384.87	9.1
385.078	9.12
385.285	9.13
385.493	8.98
385.701	8.93
385.909	8.98
386.116	8.96
386.324	8.97
386.532	8.85
386.739	8.82
386.947	8.7
387.155	8.68
387.362	8.61
387.57	8.48
387.778	8.57
387.985	8.51
388.193	8.42
388.4	8.37
388.608	8.2
388.816	8.23
389.023	8.27
389.231	8.24
389.438	8.3
389.646	8.3
389.853	8.33
390.061	8.19
390.268	8.3
390.475	8.35
390.683	8.35
390.89	8.42
391.098	8.4
391.305	8.37
391.512	8.3
391.72	8.3
391.927	8.25
392.135	8.29
392.342	8.29
392.549	8.14
392.756	8.08
392.964	8.01
393.171	7.97
393.378	7.91
393.586	7.84
393.793	7.93
394	7.78
394.207	7.8
394.414	7.75
394.622	7.71
394.829	7.64
395.036	7.59
395.243	7.63
395.45	7.65
395.657	7.65
395.864	7.56
396.072	7.6
396.279	7.76
396.486	7.66
396.693	7.66
396.9	7.81
397.107	7.81
397.314	7.77
397.521	7.82
397.728	7.74
397.935	7.73
398.142	7.81
398.349	7.7
398.556	7.54
398.763	7.58
398.97	7.58
399.177	7.49
399.383	7.56
399.59	7.58
399.797	7.47
400.004	7.43
400.211	7.39
400.418	7.33
400.625	7.29
400.831	7.36
401.038	7.27
401.245	7.19
401.452	7.05
401.658	7.09
401.865	7.14
402.072	7.2
402.279	7.27
402.485	7.33
402.692	7.33
402.899	7.32
403.105	7.45
403.312	7.52
403.519	7.52
403.725	7.65
403.932	7.66
404.138	7.59
404.345	7.51
404.552	7.46
404.758	7.44
404.965	7.46
405.171	7.42
405.378	7.3
405.584	7.32
405.791	7.31
405.997	7.26
406.204	7.14
406.41	7.12
406.617	7.13
406.823	7.15
407.029	7.09
407.236	7.04
407.442	7.05
407.649	7.14
407.855	7.13
408.061	7.19
408.268	7.12
408.474	7.09
408.68	7.12
408.887	7.06
409.093	7.07
409.299	7.07
409.505	7.13
409.712	7.14
409.918	7.02
410.124	6.96
410.33	6.85
410.537	6.89
410.743	6.93
410.949	6.87
411.155	6.95
411.361	6.91
411.567	6.87
411.773	6.76
411.98	6.78
412.186	6.75
412.392	6.67
412.598	6.77
412.804	6.75
413.01	6.67
413.216	6.7
413.422	6.68
413.628	6.68
413.834	6.68
414.04	6.73
414.246	6.67
414.452	6.69
414.658	6.77
414.864	6.71
415.07	6.65
415.275	6.67
415.481	6.62
415.687	6.51
415.893	6.47
416.099	6.5
416.305	6.49
416.511	6.52
416.716	6.49
416.922	6.47
417.128	6.47
417.334	6.53
417.539	6.51
417.745	6.53
417.951	6.6
418.157	6.65
418.362	6.64
418.568	6.64
418.774	6.61
418.979	6.59
419.185	6.59
419.391	6.56
419.596	6.56
419.802	6.54
420.008	6.49
420.213	6.47
420.419	6.46
420.624	6.45
420.83	6.41
421.035	6.4
421.241	6.43
421.446	6.47
421.652	6.47
421.857	6.42
422.063	6.43
422.268	6.45
422.474	6.48
422.679	6.48
422.885	6.48
423.09	6.52
423.295	6.48
423.501	6.46
423.706	6.41
423.911	6.43
424.117	6.42
424.322	6.46
424.527	6.48
424.733	6.44
424.938	6.44
425.143	6.44
425.349	6.42
425.554	6.47
425.759	6.47
425.964	6.49
426.169	6.48
426.375	6.47
426.58	6.38
426.785	6.33
426.99	6.33
427.195	6.27
427.4	6.25
427.605	6.23
427.811	6.23
428.016	6.24
428.221	6.24
428.426	6.21
428.631	6.21
428.836	6.25
429.041	6.26
429.246	6.31
429.451	6.34
429.656	6.31
429.861	6.27
430.066	6.29
430.271	6.27
430.476	6.22
430.681	6.19
430.886	6.16
431.09	6.21
431.295	6.18
431.5	6.13
431.705	6.14
431.91	6.16
432.115	6.17
432.32	6.17
432.524	6.17
432.729	6.17
432.934	6.2
433.139	6.25
433.343	6.25
433.548	6.29
433.753	6.3
433.958	6.26
434.162	6.26
434.367	6.27
434.572	6.23
434.776	6.24
434.981	6.25
435.186	6.21
435.39	6.19
435.595	6.16
435.799	6.18
436.004	6.19
436.209	6.19
436.413	6.19
436.618	6.21
436.822	6.25
437.027	6.2
437.231	6.19
437.436	6.24
437.64	6.23
437.845	6.21
438.049	6.14
438.253	6.13
438.458	6.15
438.662	6.15
438.867	6.12
439.071	6.13
439.275	6.17
439.48	6.17
439.684	6.14
439.888	6.11
440.093	6.12
440.297	6.15
440.501	6.14
440.706	6.12
440.91	6.13
441.114	6.08
441.318	6.06
441.523	6.06
441.727	6.09
441.931	6.14
442.135	6.19
442.339	6.15
442.543	6.14
442.748	6.14
442.952	6.12
443.156	6.09
443.36	6.12
443.564	6.11
443.768	6.1
443.972	6.09
444.176	6.02
444.38	6
444.584	6
444.788	5.99
444.992	5.99
445.196	5.99
445.4	6.03
445.604	6.03
445.808	6.05
446.012	6.04
446.216	6.02
446.42	6.03
446.624	6.05
446.828	6.06
447.032	6.04
447.235	6.02
447.439	6.05
447.643	6.03
447.847	6.06
448.051	6.01
448.254	5.98
448.458	5.93
448.662	5.97
448.866	5.95
449.069	5.92
449.273	6
449.477	6.02
449.681	5.99
449.884	6.02
450.088	5.95
450.292	5.99
450.495	6.02
450.699	6.07
450.902	6.04
451.106	6.02
451.31	6.07
451.513	6.03
451.717	5.98
451.92	5.95
452.124	5.89
452.327	5.94
452.531	5.95
452.734	5.95
452.938	5.91
453.141	5.9
453.345	5.91
453.548	5.95
453.752	5.92
453.955	5.96
454.158	5.97
454.362	5.94
454.565	5.89
454.769	5.89
454.972	5.88
455.175	5.86
455.379	5.85
455.582	5.86
455.785	5.81
455.988	5.83
456.192	5.8
456.395	5.82
456.598	5.84
456.801	5.9
457.005	5.9
457.208	5.89
457.411	5.94
457.614	5.97
457.817	5.93
458.021	5.91
458.224	5.93
458.427	5.95
458.63	5.95
458.833	5.93
459.036	5.92
459.239	5.88
459.442	5.86
459.645	5.86
459.848	5.85
460.051	5.83
460.254	5.86
460.457	5.84
460.66	5.85
460.863	5.82
461.066	5.88
461.269	5.85
461.472	5.88
461.675	5.88
461.878	5.86
462.081	5.83
462.284	5.86
462.486	5.86
462.689	5.81
462.892	5.8
463.095	5.84
463.298	5.81
463.5	5.8
463.703	5.82
463.906	5.88
464.109	5.87
464.311	5.9
464.514	5.92
464.717	5.91
464.92	5.94
465.122	5.92
465.325	5.95
465.528	5.92
465.73	5.93
465.933	5.92
466.135	5.92
466.338	5.95
466.541	5.91
466.743	5.9
466.946	5.93
467.148	5.92
467.351	5.93
467.553	5.88
467.756	5.94
467.958	5.97
468.161	5.98
468.363	5.95
468.566	5.92
468.768	5.91
468.971	5.9
469.173	5.89
469.375	5.9
469.578	5.94
469.78	5.95
469.983	5.94
470.185	5.96
470.387	5.98
470.59	5.98
470.792	6.01
470.994	6.06
471.196	6.06
471.399	6.04
471.601	6.03
471.803	5.99
472.005	5.98
472.208	5.93
472.41	5.87
472.612	5.84
472.814	5.86
473.016	5.88
473.218	5.91
473.421	5.88
473.623	5.92
473.825	5.93
474.027	5.93
474.229	5.92
474.431	5.94
474.633	5.95
474.835	5.91
475.037	5.84
475.239	5.85
475.441	5.86
475.643	5.87
475.845	5.86
476.047	5.87
476.249	5.85
476.451	5.87
476.653	5.89
476.855	5.9
477.057	5.9
477.258	5.95
477.46	5.92
477.662	5.91
477.864	5.9
478.066	5.88
478.268	5.87
478.469	5.93
478.671	5.93
478.873	5.89
479.075	5.89
479.276	5.9
479.478	5.9
479.68	5.92
479.882	5.92
480.083	5.91
480.285	5.9
480.487	5.87
480.688	5.84
480.89	5.84
481.091	5.87
481.293	5.89
481.495	5.91
481.696	5.89
481.898	5.88
482.099	5.86
482.301	5.85
482.502	5.84
482.704	5.85
482.905	5.84
483.107	5.84
483.308	5.83
483.51	5.82
483.711	5.81
483.913	5.82
484.114	5.82
484.315	5.82
484.517	5.85
484.718	5.85
484.92	5.85
485.121	5.86
485.322	5.87
485.524	5.89
485.725	5.9
485.926	5.9
486.127	5.91
486.329	5.92
486.53	5.93
486.731	5.91
486.932	5.92
487.134	5.91
487.335	5.92
487.536	5.91
487.737	5.91
487.938	5.9
488.139	5.89
488.341	5.88
488.542	5.87
488.743	5.86
488.944	5.88
489.145	5.88
489.346	5.9
489.547	5.9
489.748	5.88
489.949	5.86
490.15	5.87
490.351	5.88
490.552	5.9
490.753	5.9
490.954	5.9
491.155	5.88
491.356	5.87
491.557	5.85
491.758	5.87
491.959	5.89
492.159	5.89
492.36	5.93
492.561	5.92
492.762	5.91
492.963	5.9
493.164	5.91
493.364	5.94
493.565	5.98
493.766	6.01
493.967	5.99
494.167	6.02
494.368	6.05
494.569	6
494.769	5.98
494.97	5.96
495.171	5.99
495.371	6.02
495.572	6.04
495.773	6.05
495.973	6.04
496.174	6.07
496.375	6.07
496.575	6.07
496.776	6.09
496.976	6.14
497.177	6.21
497.377	6.21
497.578	6.23
497.778	6.2
497.979	6.23
498.179	6.26
498.38	6.26
498.58	6.28
498.78	6.28
498.981	6.3
499.181	6.31
499.382	6.31
499.582	6.34
499.782	6.33
499.983	6.37
500.183	6.37
500.383	6.34
500.584	6.3
500.784	6.34
500.984	6.35
501.184	6.35
501.385	6.39
501.585	6.41
501.785	6.43
501.985	6.45
502.185	6.46
502.386	6.46
502.586	6.53
502.786	6.63
502.986	6.6
503.186	6.63
503.386	6.64
503.586	6.61
503.786	6.58
503.987	6.58
504.187	6.61
504.387	6.66
504.587	6.69
504.787	6.66
504.987	6.67
505.187	6.73
505.387	6.72
505.587	6.78
505.786	6.81
505.986	6.85
506.186	6.84
506.386	6.85
506.586	6.86
506.786	6.9
506.986	6.96
507.186	6.95
507.386	6.99
507.585	7.07
507.785	7.07
507.985	7.11
508.185	7.16
508.384	7.2
508.584	7.23
508.784	7.25
508.984	7.26
509.183	7.3
509.383	7.37
509.583	7.38
509.782	7.4
509.982	7.42
510.182	7.44
510.381	7.5
510.581	7.55
510.781	7.57
510.98	7.63
511.18	7.62
511.379	7.64
511.579	7.64
511.778	7.67
511.978	7.7
512.177	7.74
512.377	7.78
512.576	7.82
512.776	7.83
512.975	7.86
513.175	7.88
513.374	7.96
513.573	8
513.773	8.04
513.972	8.09
514.172	8.13
514.371	8.2
514.57	8.2
514.77	8.22
514.969	8.25
515.168	8.32
515.367	8.36
515.567	8.43
515.766	8.45
515.965	8.47
516.164	8.53
516.364	8.57
516.563	8.58
516.762	8.64
516.961	8.67
517.16	8.74
517.359	8.77
517.559	8.83
517.758	8.87
517.957	8.93
518.156	8.98
518.355	9
518.554	9.02
518.753	9.07
518.952	9.11
519.151	9.15
519.35	9.21
519.549	9.23
519.748	9.28
519.947	9.31
520.146	9.35
520.345	9.4
520.544	9.46
520.743	9.52
520.942	9.55
521.141	9.58
521.339	9.63
521.538	9.62
521.737	9.69
521.936	9.73
522.135	9.75
522.333	9.8
522.532	9.8
522.731	9.85
522.93	9.91
523.129	9.98
523.327	10.07
523.526	10.1
523.725	10.15
523.923	10.2
524.122	10.24
524.321	10.3
524.519	10.33
524.718	10.39
524.917	10.42
525.115	10.46
525.314	10.5
525.512	10.52
525.711	10.6
525.909	10.64
526.108	10.68
526.306	10.72
526.505	10.76
526.703	10.82
526.902	10.85
527.1	10.87
527.299	10.9
527.497	10.93
527.696	10.98
527.894	11
528.092	11.02
528.291	11.05
528.489	11.08
528.688	11.1
528.886	11.11
529.084	11.15
529.283	11.21
529.481	11.26
529.679	11.27
529.877	11.29
530.076	11.32
530.274	11.38
530.472	11.42
530.67	11.44
530.869	11.51
531.067	11.57
531.265	11.6
531.463	11.63
531.661	11.65
531.859	11.7
532.057	11.75
532.255	11.77
532.454	11.79
532.652	11.81
532.85	11.83
533.048	11.84
533.246	11.85
533.444	11.88
533.642	11.92
533.84	11.97
534.038	12
534.236	12.08
534.434	12.12
534.632	12.16
534.83	12.21
535.027	12.27
535.225	12.29
535.423	12.35
535.621	12.38
535.819	12.41
536.017	12.45
536.215	12.48
536.412	12.5
536.61	12.57
536.808	12.59
537.006	12.62
537.203	12.68
537.401	12.75
537.599	12.78
537.797	12.85
537.994	12.87
538.192	12.91
538.39	12.96
538.587	12.97
538.785	12.98
538.983	13.05
539.18	13.08
539.378	13.12
539.575	13.14
539.773	13.17
539.97	13.19
540.168	13.23
540.366	13.24
540.563	13.25
540.761	13.29
540.958	13.32
541.155	13.38
541.353	13.42
541.55	13.44
541.748	13.47
541.945	13.5
542.143	13.53
542.34	13.58
542.537	13.63
542.735	13.68
542.932	13.69
543.129	13.73
543.327	13.75
543.524	13.78
543.721	13.84
543.919	13.9
544.116	13.94
544.313	14
544.51	14.03
544.708	14.08
544.905	14.11
545.102	14.14
545.299	14.16
545.496	14.15
545.693	14.2
545.891	14.19
546.088	14.23
546.285	14.22
546.482	14.21
546.679	14.23
546.876	14.23
547.073	14.27
547.27	14.38
547.467	14.4
547.664	14.42
547.861	14.47
548.058	14.53
548.255	14.53
548.452	14.64
548.649	14.73
548.846	14.77
549.043	14.78
549.24	14.83
549.437	14.81
549.633	14.87
549.83	14.92
550.027	14.94
550.224	14.99
550.421	15.03
550.618	15.05
550.814	15.07
551.011	15.12
551.208	15.22
551.405	15.23
551.601	15.24
551.798	15.28
551.995	15.29
552.191	15.28
552.388	15.25
552.585	15.3
552.781	15.36
552.978	15.38
553.175	15.36
553.371	15.33
553.568	15.35
553.764	15.42
553.961	15.5
554.157	15.56
554.354	15.64
554.55	15.73
554.747	15.71
554.943	15.69
555.14	15.73
555.336	15.83
555.533	15.87
555.729	15.9
555.926	15.92
556.122	15.9
556.318	15.97
556.515	15.95
556.711	15.97
556.907	16.03
557.104	16.12
557.3	16.16
557.496	16.16
557.693	16.2
557.889	16.29
558.085	16.31
558.281	16.37
558.478	16.36
558.674	16.42
558.87	16.43
559.066	16.48
559.262	16.43
559.459	16.46
559.655	16.45
559.851	16.52
560.047	16.51
560.243	16.54
560.439	16.57
560.635	16.63
560.831	16.64
561.027	16.7
561.223	16.7
561.419	16.79
561.615	16.81
561.811	16.89
562.007	16.91
562.203	16.95
562.399	17.04
562.595	17.03
562.791	17.01
562.987	17.06
563.183	17.12
563.379	17.15
563.575	17.2
563.771	17.26
563.966	17.28
564.162	17.3
564.358	17.36
564.554	17.32
564.75	17.38
564.945	17.45
565.141	17.48
565.337	17.47
565.533	17.51
565.728	17.52
565.924	17.53
566.12	17.59
566.315	17.67
566.511	17.68
566.707	17.73
566.902	17.73
567.098	17.75
567.293	17.77
567.489	17.83
567.684	17.85
567.88	17.88
568.076	17.89
568.271	17.88
568.467	17.86
568.662	17.88
568.858	17.9
569.053	17.92
569.248	17.98
569.444	18.02
569.639	18
569.835	18.05
570.03	18.1
570.225	18.09
570.421	18.12
570.616	18.12
570.812	18.15
571.007	18.2
571.202	18.21
571.397	18.2
571.593	18.23
571.788	18.27
571.983	18.31
572.178	18.33
572.374	18.4
572.569	18.45
572.764	18.47
572.959	18.47
573.154	18.44
573.35	18.53
573.545	18.54
573.74	18.57
573.935	18.57
574.13	18.57
574.325	18.59
574.52	18.55
574.715	18.51
574.91	18.55
575.105	18.59
575.3	18.65
575.495	18.64
575.69	18.72
575.885	18.72
576.08	18.77
576.275	18.81
576.47	18.79
576.665	18.88
576.86	18.95
577.055	19.01
577.25	19.03
577.444	19.04
577.639	19.07
577.834	19.08
578.029	19.09
578.224	19.08
578.418	19.07
578.613	19.09
578.808	19.1
579.003	19.11
579.197	19.12
579.392	19.1
579.587	19.14
579.781	19.16
579.976	19.17
580.171	19.13
580.365	19.18
580.56	19.18
580.755	19.23
580.949	19.24
581.144	19.25
581.338	19.27
581.533	19.34
581.727	19.32
581.922	19.32
582.116	19.34
582.311	19.33
582.505	19.41
582.7	19.39
582.894	19.41
583.089	19.44
583.283	19.37
583.478	19.34
583.672	19.33
583.866	19.32
584.061	19.36
584.255	19.32
584.449	19.37
584.644	19.39
584.838	19.46
585.032	19.47
585.226	19.46
585.421	19.57
585.615	19.61
585.809	19.66
586.003	19.65
586.198	19.66
586.392	19.64
586.586	19.69
586.78	19.66
586.974	19.7
587.168	19.69
587.363	19.7
587.557	19.71
587.751	19.68
587.945	19.64
588.139	19.69
588.333	19.66
588.527	19.7
588.721	19.78
588.915	19.75
589.109	19.74
589.303	19.74
589.497	19.81
589.691	19.81
589.885	19.88
590.079	19.92
590.273	19.93
590.466	20.01
590.66	20.08
590.854	20.07
591.048	20.09
591.242	20.08
591.436	20.07
591.629	20.06
591.823	20.09
592.017	20.06
592.211	20.02
592.404	20.04
592.598	20.01
592.792	20.01
592.986	19.96
593.179	19.98
593.373	20.01
593.567	20.03
593.76	20.02
593.954	19.99
594.147	20.04
594.341	20.08
594.535	20.06
594.728	20.11
594.922	20.13
595.115	20.12
595.309	20.19
595.502	20.22
595.696	20.13
595.889	20.14
596.083	20.19
596.276	20.12
596.47	20.12
596.663	20.14
596.856	20.12
597.05	20.13
597.243	20.16
597.437	20.12
597.63	20.08
597.823	20.19
598.017	20.17
598.21	20.09
598.403	20.12
598.596	20.09
598.79	20.12
598.983	20.16
599.176	20.08
599.369	20.12
599.563	20.13
599.756	20.17
599.949	20.08
600.142	20.1
600.335	20.18
600.528	20.24
600.722	20.36
600.915	20.39
601.108	20.31
601.301	20.39
601.494	20.35
601.687	20.35
601.88	20.32
602.073	20.38
602.266	20.39
602.459	20.4
602.652	20.33
602.845	20.33
603.038	20.32
603.231	20.36
603.424	20.38
603.617	20.36
603.809	20.37
604.002	20.42
604.195	20.49
604.388	20.51
604.581	20.47
604.774	20.47
604.966	20.47
605.159	20.44
605.352	20.49
605.545	20.47
605.737	20.53
605.93	20.53
606.123	20.51
606.316	20.48
606.508	20.49
606.701	20.68
606.894	20.77
607.086	20.78
607.279	20.77
607.471	20.75
607.664	20.76
607.857	20.76
608.049	20.8
608.242	20.75
608.434	20.75
608.627	20.72
608.819	20.63
609.012	20.69
609.204	20.66
609.397	20.72
609.589	20.76
609.782	20.78
609.974	20.78
610.166	20.82
610.359	20.95
610.551	20.98
610.743	21.05
610.936	21.08
611.128	21.07
611.32	21.12
611.513	21.15
611.705	21.16
611.897	21.15
612.09	21.09
612.282	21.06
612.474	20.91
612.666	20.93
612.858	20.81
613.051	20.82
613.243	20.75
613.435	20.77
613.627	20.75
613.819	20.7
614.011	20.69
614.203	20.73
614.395	20.7
614.588	20.73
614.78	20.76
614.972	20.82
615.164	20.74
615.356	20.71
615.548	20.66
615.74	20.6
615.932	20.57
616.124	20.6
616.315	20.66
616.507	20.6
616.699	20.7
616.891	20.63
617.083	20.7
617.275	20.82
617.467	20.89
617.659	20.88
617.85	21.01
618.042	21.08
618.234	21.12
618.426	21.11
618.618	21.17
618.809	21.12
619.001	21.15
619.193	21.11
619.384	21.05
619.576	21
619.768	21.09
619.959	20.91
620.151	20.94
620.343	20.86
620.534	20.85
620.726	20.87
620.917	20.88
621.109	20.82
621.301	20.77
621.492	20.76
621.684	20.72
621.875	20.68
622.067	20.73
622.258	20.7
622.45	20.67
622.641	20.76
622.832	20.74
623.024	20.8
623.215	20.87
623.407	20.94
623.598	20.98
623.789	21.08
623.981	21.07
624.172	21.22
624.363	21.16
624.555	21.3
624.746	21.23
624.937	21.24
625.129	21.17
625.32	21.14
625.511	21.15
625.702	21.09
625.893	21.08
626.085	21.08
626.276	21.05
626.467	21.09
626.658	21.07
626.849	21.07
627.04	21.01
627.231	21.11
627.422	21.19
627.614	21.23
627.805	21.31
627.996	21.25
628.187	21.28
628.378	21.26
628.569	21.27
628.76	21.25
628.951	21.22
629.142	21.27
629.332	21.2
629.523	21.2
629.714	21.12
629.905	21.1
630.096	21.14
630.287	21.16
630.478	21.15
630.669	21.15
630.859	21.2
631.05	21.15
631.241	21.17
631.432	21.13
631.623	21.17
631.813	21.17
632.004	21.15
632.195	21.24
632.385	21.18
632.576	21.2
632.767	21.18
632.957	21.24
633.148	21.3
633.339	21.34
633.529	21.39
633.72	21.28
633.91	21.23
634.101	21.32
634.292	21.22
634.482	21.23
634.673	21.15
634.863	21.14
635.054	21.01
635.244	21.03
635.435	21.02
635.625	20.95
635.815	20.99
636.006	21.08
636.196	21
636.387	21.01
636.577	20.97
636.767	21.02
636.958	21.05
637.148	21.1
637.338	21.02
637.529	21.05
637.719	21.05
637.909	21.02
638.099	21.02
638.29	21.06
638.48	21.13
638.67	21.19
638.86	21.15
639.05	21.19
639.241	21.19
639.431	21.21
639.621	21.12
639.811	21.23
640.001	21.15
640.191	21.12
640.381	21.05
640.571	20.98
640.761	20.94
640.951	20.97
641.141	20.94
641.331	20.94
641.521	20.99
641.711	20.99
641.901	20.95
642.091	21.05
642.281	21.03
642.471	21.03
642.661	21.1
642.851	21.2
643.041	21.22
643.231	21.23
643.42	21.24
643.61	21.14
643.8	21.08
643.99	21.08
644.18	21.09
644.369	21.08
644.559	21.14
644.749	21.06
644.939	20.94
645.128	20.86
645.318	20.77
645.508	20.73
645.697	20.73
645.887	20.79
646.076	20.83
646.266	20.87
646.456	20.87
646.645	20.78
646.835	20.74
647.024	20.74
647.214	20.88
647.403	20.86
647.593	20.93
647.782	21.03
647.972	20.99
648.161	20.93
648.351	20.94
648.54	20.98
648.73	21
648.919	21.14
649.108	21.21
649.298	21.13
649.487	21.27
649.677	21.22
649.866	21.19
650.055	21.22
650.244	21.18
650.434	21.14
650.623	21.18
650.812	21.22
651.002	21.09
651.191	21.03
651.38	21.1
651.569	20.99
651.758	21.04
651.947	21.11
652.137	21.04
652.326	21.06
652.515	21.1
652.704	21.07
652.893	21.12
653.082	21.14
653.271	21.24
653.46	21.18
653.649	21.28
653.838	21.18
654.027	21.15
654.216	21.24
654.405	21.3
654.594	21.27
654.783	21.18
654.972	21.21
655.161	21.27
655.35	21.24
655.539	21.25
655.728	21.22
655.916	21.28
656.105	21.25
656.294	21.31
656.483	21.25
656.672	21.27
656.86	21.38
657.049	21.32
657.238	21.27
657.427	21.23
657.615	21.33
657.804	21.24
657.993	21.27
658.181	21.31
658.37	21.26
658.559	21.29
658.747	21.31
658.936	21.25
659.125	21.2
659.313	21.22
659.502	21.26
659.69	21.15
659.879	21.21
660.067	21.17
660.256	21.15
660.444	21.2
660.633	21.24
660.821	21.19
661.01	21.23
661.198	21.32
661.387	21.31
661.575	21.29
661.763	21.39
661.952	21.43
662.14	21.41
662.328	21.38
662.517	21.39
662.705	21.36
662.893	21.42
663.082	21.43
663.27	21.43
663.458	21.34
663.646	21.33
663.834	21.41
664.023	21.4
664.211	21.55
664.399	21.56
664.587	21.49
664.775	21.47
664.963	21.43
665.152	21.33
665.34	21.34
665.528	21.42
665.716	21.49
665.904	21.35
666.092	21.37
666.28	21.25
666.468	21.33
666.656	21.4
666.844	21.41
667.032	21.44
667.22	21.5
667.408	21.37
667.596	21.55
667.784	21.51
667.971	21.5
668.159	21.46
668.347	21.4
668.535	21.31
668.723	21.26
668.911	21.27
669.098	21.23
669.286	21.08
669.474	21.24
669.662	21.07
669.849	21.09
670.037	21.04
670.225	20.95
670.413	20.98
670.6	21.09
670.788	21.09
670.976	21.13
671.163	21.17
671.351	21.28
671.538	21.16
671.726	21.31
671.913	21.23
672.101	21.32
672.289	21.51
672.476	21.55
672.664	21.49
672.851	21.52
673.039	21.45
673.226	21.38
673.413	21.51
673.601	21.59
673.788	21.45
673.976	21.44
674.163	21.41
674.35	21.31
674.538	21.31
674.725	21.28
674.912	21.28
675.1	21.25
675.287	21.32
675.474	21.38
675.662	21.48
675.849	21.47
676.036	21.53
676.223	21.71
676.411	21.69
676.598	21.62
676.785	21.67
676.972	21.66
677.159	21.76
677.346	21.77
677.533	21.66
677.721	21.57
677.908	21.65
678.095	21.6
678.282	21.48
678.469	21.55
678.656	21.63
678.843	21.66
679.03	21.6
679.217	21.64
679.404	21.57
679.591	21.59
679.778	21.56
679.964	21.47
680.151	21.49
680.338	21.49
680.525	21.48
680.712	21.42
680.899	21.39
681.086	21.4
681.272	21.26
681.459	21.31
681.646	21.18
681.833	21.17
682.02	21.22
682.206	21.2
682.393	21.13
682.58	21.07
682.766	21.18
682.953	21.1
683.14	21.23
683.326	21.27
683.513	21.3
683.7	21.44
683.886	21.51
684.073	21.34
684.259	21.42
684.446	21.44
684.632	21.43
684.819	21.22
685.005	21.3
685.192	21.24
685.378	21.23
685.565	21.09
685.751	21.09
685.938	21.04
686.124	21.04
686.31	21
686.497	20.91
686.683	20.98
686.87	21.13
687.056	21.1
687.242	21.05
687.429	21
687.615	21.07
687.801	21.21
687.987	21.1
688.174	21.19
688.36	21.15
688.546	21.32
688.732	21.21
688.918	21.21
689.105	21.23
689.291	21.12
689.477	21.28
689.663	21.37
689.849	21.18
690.035	21.34
690.221	21.47
690.407	21.44
690.593	21.35
690.779	21.46
690.965	21.49
691.151	21.55
691.337	21.69
691.523	21.58
691.709	21.54
691.895	21.59
692.081	21.55
692.267	21.62
692.453	21.56
692.639	21.63
692.825	21.62
693.011	21.47
693.196	21.44
693.382	21.56
693.568	21.66
693.754	21.55
693.94	21.41
694.125	21.41
694.311	21.41
694.497	21.52
694.682	21.58
694.868	21.5
695.054	21.62
695.239	21.45
695.425	21.32
695.611	21.28
695.796	21.36
695.982	21.6
696.168	21.59
696.353	21.59
696.539	21.52
696.724	21.51
696.91	21.7
697.095	21.64
697.281	21.81
697.466	21.81
697.652	21.81
697.837	21.84
698.023	21.74
698.208	21.78
698.393	21.78
698.579	21.83
698.764	21.8
698.949	21.76
699.135	21.78
699.32	21.72
699.505	21.71
699.691	21.66
699.876	21.68
700.061	21.65
700.246	21.62
700.432	21.41
700.617	21.55
700.802	21.56
700.987	21.5
701.172	21.21
701.358	21.08
701.543	21.16
701.728	21.25
701.913	21.21
702.098	21.27
702.283	21.25
702.468	21.5
702.653	21.26
702.838	21.36
703.023	21.32
703.208	21.72
703.393	21.83
703.578	21.89
703.763	21.79
703.948	21.66
704.133	21.64
704.318	21.55
704.503	21.58
704.688	21.64
704.873	21.51
705.057	21.56
705.242	21.42
705.427	21.48
705.612	21.38
705.797	21.45
705.981	21.65
706.166	21.87
706.351	21.96
706.536	21.91
706.72	21.8
706.905	21.78
707.09	21.71
707.274	21.84
707.459	21.72
707.644	21.69
707.828	21.77
708.013	21.52
708.197	21.35
708.382	21.38
708.567	21.23
708.751	21.4
708.936	21.39
709.12	21.46
709.305	21.38
709.489	21.5
709.673	21.45
709.858	21.2
710.042	21.3
710.227	21.21
710.411	21.02
710.596	21.05
710.78	21.09
710.964	21.12
711.149	21.05
711.333	21.17
711.517	21.13
711.702	21.39
711.886	21.6
712.07	21.67
712.254	21.72
712.438	21.9
712.623	22.01
712.807	21.94
712.991	21.85
713.175	21.9
713.359	21.91
713.544	21.9
713.728	21.84
713.912	21.7
714.096	21.63
714.28	21.52
714.464	21.46
714.648	21.51
714.832	21.46
715.016	21.51
715.2	21.31
715.384	21.34
715.568	21.32
715.752	21.29
715.936	21.33
716.12	21.35
716.304	21.37
716.488	21.32
716.671	21.14
716.855	21.05
717.039	21.04
717.223	21.15
717.407	20.91
717.59	20.84
717.774	20.68
717.958	20.61
718.142	20.54
718.325	20.69
718.509	20.8
718.693	20.92
718.877	21.06
719.06	21.12
719.244	21.13
719.428	21.31
719.611	21.51
719.795	21.58
719.978	21.68
720.162	21.71
720.345	21.47
720.529	21.36
720.713	21.29
720.896	21.25
721.08	21.34
721.263	21.37
721.446	21.39
721.63	21.33
721.813	21.3
721.997	21.22
722.18	21.18
722.364	21.3
722.547	21.36
722.73	21.3
722.914	21.23
723.097	20.95
723.28	21.04
723.464	20.98
723.647	20.9
723.83	20.84
724.013	20.82
724.197	21.09
724.38	21.29
724.563	21.35
724.746	21.54
724.929	21.56
725.112	21.67
725.296	21.48
725.479	21.43
725.662	21.43
725.845	21.49
726.028	21.42
726.211	21.33
726.394	21.26
726.577	21.2
726.76	21
726.943	21
727.126	20.88
727.309	21
727.492	21.13
727.675	21.11
727.858	21.03
728.041	21.05
728.224	21.04
728.407	20.96
728.589	20.95
728.772	21.12
728.955	21.3
729.138	21.45
729.321	21.36
729.503	21.35
729.686	21.36
729.869	21.38
730.052	21.39
730.234	21.43
730.417	21.54
730.6	21.43
730.782	21.29
730.965	21.13
731.148	21.12
731.33	21.09
731.513	21.04
731.695	20.9
731.878	20.93
732.061	21.06
732.243	21.01
732.426	20.88
732.608	21.04
732.791	21.13
732.973	21.08
733.156	21
733.338	21.14
733.52	21.07
733.703	21.06
733.885	21.03
734.068	20.79
734.25	20.7
734.432	20.65
734.615	20.79
734.797	20.54
734.979	20.54
735.162	20.6
735.344	20.48
735.526	20.44
735.708	20.58
735.891	20.87
736.073	21.18
736.255	21.11
736.437	21.18
736.619	20.83
736.802	20.96
736.984	20.99
737.166	21.04
737.348	21.06
737.53	21.05
737.712	21.19
737.894	21.1
738.076	20.93
738.258	20.92
738.44	21.04
738.622	20.98
738.804	20.96
738.986	21.08
739.168	21.1
739.35	21.2
739.532	21.24
739.714	20.76
739.896	20.48
740.078	20.63
740.259	20.75
740.441	20.57
740.623	20.62
740.805	20.64
740.987	20.87
741.168	20.5
741.35	20.39
741.532	20.41
741.714	20.81
741.895	21.07
742.077	20.86
742.259	20.88
742.44	20.71
742.622	20.85
742.804	20.85
742.985	20.34
743.167	20.71
743.348	20.69
743.53	20.84
743.711	20.7
743.893	20.3
744.075	20.29
744.256	20.04
744.438	20.2
744.619	20.24
744.8	20.11
744.982	20.44
745.163	20.59
745.345	20.53
745.526	20.51
745.707	20.49
745.889	20.62
746.07	20.9
746.252	20.98
746.433	21.15
746.614	21.03
746.795	21.33
746.977	21.29
747.158	21.22
747.339	21.19
747.52	21.17
747.702	21.33
747.883	21.33
748.064	20.94
748.245	21.1
748.426	20.82
748.607	20.73
748.788	20.48
748.97	20.24
749.151	20.05
749.332	20.22
749.513	20.29
749.694	20.11
749.875	20.08
750.056	20.24
750.237	20.16
750.418	20.29
750.599	20.23
750.78	20.51
750.96	20.65
751.141	20.99
751.322	21.07
751.503	20.6
751.684	20.63
751.865	20.84
752.046	21.06
752.226	21.1
752.407	21.23
752.588	21.24
752.769	21.38
752.949	21.51
753.13	21.07
753.311	21.11
753.492	21.19
753.672	21.21
753.853	20.73
754.034	20.73
754.214	20.87
754.395	20.58
754.575	20.65
754.756	20.21
754.937	19.84
755.117	20.02
755.298	19.74
755.478	20.26
755.659	20.8
755.839	21.11
756.02	20.75
756.2	20.32
756.381	20.28
756.561	20.15
756.741	20.44
756.922	20.43
757.102	20.6
757.283	20.64
757.463	20.23
757.643	19.82
757.823	19.83
758.004	19.77
758.184	20.02
758.364	20.09
758.545	20.37
758.725	20.21
758.905	20.42
759.085	20.21
759.265	20.14
759.446	20.02
759.626	20.12
759.806	20.22
759.986	20.49
760.166	20.45
760.346	20.53
760.526	20.58
760.706	20.58
760.886	20.43
761.066	20.47
761.246	20.49
761.426	20.74
761.606	20.35
761.786	20.33
761.966	20.51
762.146	20.63
762.326	20.72
762.506	20.5
762.686	20.55
762.866	20.49
763.046	20.51
763.225	20.7
763.405	20.68
763.585	20.96
763.765	20.89
763.945	20.74
764.124	20.75
764.304	20.7
764.484	20.94
764.664	20.98
764.843	21.28
765.023	21.18
765.203	20.95
765.382	21.11
765.562	21.11
765.741	21.52
765.921	21.43
766.101	21.44
766.28	21.32
766.46	21.05
766.639	21.08
766.819	20.55
766.998	20.9
767.178	20.82
767.357	20.57
767.537	20.39
767.716	20.1
767.896	20.12
768.075	20.01
768.254	20.28
768.434	20.6
768.613	20.21
768.792	20.32
768.972	20.13
769.151	20.32
769.33	20.48
769.51	20.9
769.689	20.42
769.868	20.88
770.047	20.91
770.226	21.08
770.406	20.75
770.585	20.83
770.764	20.96
770.943	20.88
771.122	20.78
771.301	20.28
771.48	20.43
771.66	20.83
771.839	20.52
772.018	20.48
772.197	20.25
772.376	20.37
772.555	20.59
772.734	20.8
772.913	20.69
773.092	20.57
773.271	20.78
773.449	20.06
773.628	20.25
773.807	20.08
773.986	19.87
774.165	19.8
774.344	19.87
774.523	20.01
774.701	19.73
774.88	19.97
775.059	19.67
775.238	19.86
775.417	19.82
775.595	19.5
775.774	19.73
775.953	19.95
776.131	19.81
776.31	19.75
776.489	19.44
776.667	19.84
776.846	19.88
777.025	20.52
777.203	20.24
777.382	20.47
777.56	20.3
777.739	20.06
777.917	20.25
778.096	20.06
778.274	20.17
778.453	20.54
778.631	19.97
778.81	19.48
778.988	18.93
779.166	19.18
779.345	19.01
779.523	19.47
779.702	19.86
779.88	19.51
780.058	19.92
780.237	19.74
780.415	19.52
780.593	19.8
780.771	20.22
780.95	20.59
781.128	20.49
781.306	20.95
781.484	21.01
781.662	20.59
781.841	20.71
782.019	20.36
782.197	20.61
782.375	20.75
782.553	21.22
782.731	21.32
782.909	21.09
783.087	21.3
783.265	21.42
783.443	21.08
783.621	20.97
783.799	21.01
783.977	21.22
784.155	21.25
784.333	20.63
784.511	20.62
784.689	20.5
784.867	21.12
785.045	20.36
785.223	19.75
785.4	19.45
785.578	19.76
785.756	19.89
785.934	19.82
786.112	19.45
786.289	19.89
786.467	19.3
786.645	19.41
786.823	19.14
787	19.65
787.178	20.29
787.356	20.52
787.533	20.7
787.711	20.62
787.889	20.86
788.066	20.94
788.244	20.6
788.421	21.16
788.599	21.09
788.776	20.96
788.954	20.81
789.131	20.21
789.309	20.32
789.486	19.97
789.664	20.1
789.841	19.5
790.019	19.55
790.196	20.02
790.373	19.58
790.551	19.24
790.728	19.46
790.906	19.68
791.083	19.71
791.26	19.19
791.437	18.74
791.615	18.76
791.792	19
791.969	19.09
792.146	19.23
792.324	19.13
792.501	19.69
792.678	19.21
792.855	18.67
793.032	18.6
793.209	19.15
793.387	19.69
793.564	19.75
793.741	20.39
793.918	20.35
794.095	19.84
794.272	20.24
794.449	19.65
794.626	20.05
794.803	20.24
794.98	20.25
795.157	19.86
795.334	20.13
795.511	19.55
795.688	19.09
795.864	19.2
796.041	19.58
796.218	18.95
796.395	19.35
796.572	19.53
796.749	19.67
796.925	20.16
797.102	20.46
797.279	20.06
797.456	20.14
797.632	20.02
797.809	19.7
797.986	19.77
798.162	20.18
798.339	20.22
798.516	20.01
798.692	20.04
798.869	19.85
799.046	19.68
799.222	20.11
799.399	20.15
799.575	20.64
799.752	20.35
799.928	19.88
800.105	19.34
800.281	19.46
800.458	19.24
800.634	19.15
800.811	19.19
800.987	19.04
801.163	18.22
801.34	18.01
801.516	17.41
801.692	17.7
801.869	18.2
802.045	19.1
802.221	18.41
802.398	18.75
802.574	18.96
802.75	18.21
802.926	18.61
803.103	18.86
803.279	19.98
803.455	20.3
803.631	20.68
803.807	19.84
803.983	19.83
804.16	19.95
804.336	19.34
804.512	18.48
804.688	19.26
804.864	19.03
805.04	19.05
805.216	17.87
805.392	17.52
805.568	16.51
805.744	17.27
805.92	16.87
806.096	17.01
806.272	18.01
806.448	18.2
806.623	17.82
806.799	17.97
806.975	18.08
807.151	18.58
807.327	18.02
807.503	19.14
807.678	19.01
807.854	19.16
808.03	19.2
808.206	18.37
808.381	18.76
808.557	18.72
808.733	18.51
808.908	18.68
809.084	18.33
809.26	18.77
809.435	18.07
809.611	18.26
809.787	18.2
809.962	17.58
810.138	18.05
810.313	18.63
810.489	19.09
810.664	19.57
810.84	19.46
811.015	20.16
811.191	20.37
811.366	20.52
811.542	20.15
811.717	20.14
811.892	21.21
812.068	21.56
812.243	20.76
812.419	20.55
812.594	20.43
812.769	20.66
812.944	20.7
813.12	20.15
813.295	20.23
813.47	20.79
813.645	20.33
813.821	19.78
813.996	19.39
814.171	19.88
814.346	20.19
814.521	19.82
814.697	19.26
814.872	19.16
815.047	19.72
815.222	19.07
815.397	18.47
815.572	18.91
815.747	19.5
815.922	19.11
816.097	19.39
816.272	18.57
816.447	18.45
816.622	19.14
816.797	18.82
816.972	18.82
817.147	20.35
817.322	20.49
817.496	20.19
817.671	20.34
817.846	20.57
818.021	19.96
818.196	20.1
818.371	20.67
818.545	20.57
818.72	20.56
818.895	21.02
819.069	20.56
819.244	20.63
819.419	20.63
819.594	20.42
819.768	20.55
819.943	20.89
820.117	21.07
820.292	20.9
820.467	20.87
820.641	20.9
820.816	20.85
820.99	20.88
821.165	20.82
821.339	20.82
821.514	20.73
821.688	20.71
821.863	20.64
822.037	20.59
822.212	20.56
822.386	20.49
822.56	20.42
822.735	20.34
822.909	20.21
823.084	20.01
823.258	19.96
823.432	19.95
823.606	19.82
823.781	19.85
823.955	19.83
824.129	19.79
824.303	19.86
824.478	19.91
824.652	19.93
824.826	19.95
825	20.42
825.174	20.54
825.348	20.61
825.523	20.92
825.697	20.61
825.871	20.76
826.045	20.59
826.219	20.44
826.393	20.43
826.567	20.57
826.741	20.51
826.915	20.51
827.089	20.39
827.263	20.31
827.437	20.2
827.611	20.45
827.784	20.15
827.958	20.2
828.132	20.19
828.306	20.12
828.48	19.78
828.654	19.82
828.827	19.42
829.001	19.39
829.175	19.27
829.349	18.97
829.522	18.87
829.696	19.21
829.87	19.25
830.044	19.72
830.217	19.27
830.391	19.24
830.565	19.61
830.738	19.59
830.912	19.31
831.085	18.94
831.259	18.87
831.432	18.75
831.606	18.44
831.779	18.73
831.953	18.54
832.126	18.81
832.3	18.84
832.473	18.86
832.647	19.07
832.82	19.92
832.994	20.31
833.167	20.25
833.34	20.1
833.514	20.01
833.687	19.9
833.86	19.58
834.034	19.66
834.207	19.82
834.38	19.31
834.553	19.49
834.727	18.47
834.9	18.28
835.073	18.15
835.246	18.19
835.419	18.29
835.593	18.41
835.766	18.89
835.939	18.66
836.112	18.65
836.285	18.9
836.458	18.57
836.631	19.13
836.804	18.16
836.977	17.44
837.15	17.47
837.323	16.95
837.496	16.01
837.669	14.97
837.842	15
838.015	15.09
838.188	15.21
838.361	15.5
838.533	15.25
838.706	16.05
838.879	17.46
839.052	17.42
839.225	18.26
839.398	19.3
839.57	19.48
839.743	19.33
839.916	19.03
840.088	18.67
840.261	17.76
840.434	18.02
840.607	18.31
840.779	17.95
840.952	17.2
841.124	16.91
841.297	16.83
841.47	16.49
841.642	16.25
841.815	15.29
841.987	14.47
842.16	14.05
842.332	14.27
842.505	13.7
842.677	13.39
842.85	13.66
843.022	13.22
843.194	12.2
843.367	13.32
843.539	14.43
843.712	15.32
843.884	16.14
844.056	17.21
844.229	16.88
844.401	18.04
844.573	18.96
844.745	19.39
844.918	18.81
845.09	18.86
845.262	16.98
845.434	17.12
845.606	16.93
845.779	17.37
845.951	17.67
846.123	18.57
846.295	15.96
846.467	13.46
846.639	14.12
846.811	14.3
846.983	13.39
847.155	13.82
847.327	11.77
847.499	11.2
847.671	9.87
847.843	7.42
848.015	6.15
848.187	10.2
848.359	11.82
848.531	10.18
848.703	9.72
848.875	12.46
849.047	14.13
849.218	15.27
849.39	16.7
849.562	18.31
849.734	18.82
849.905	17.36
850.077	15.92
850.249	15.62
850.421	16.58
850.592	16.55
850.764	16.08
850.936	16.53
851.107	15.46
851.279	13.72
851.451	13.89
851.622	13.87
851.794	17.54
851.965	17.68
852.137	16.1
852.308	13.69
852.48	14.24
852.651	13.02
852.823	11.67
852.994	14.4
853.166	17.24
853.337	18.59
853.509	20.73
853.68	18.05
853.851	17.69
854.023	17.48
854.194	18.74
854.365	19.67
854.537	19.09
854.708	19.47
854.879	17.87
855.05	15.52
855.222	12.38
855.393	10.36
855.564	8.61
855.735	7.11
855.906	9.57
856.078	11.06
856.249	11.87
856.42	11.2
856.591	11.07
856.762	10.7
856.933	12.25
857.104	11.39
857.275	12.97
857.446	14.73
857.617	13.19
857.788	12.52
857.959	10.31
858.13	8.66
858.301	9.41
858.472	7.2
858.643	6.09
858.814	8.4
858.985	10.51
859.155	11.17
859.326	14.42
859.497	18.92
859.668	15.09
859.839	15.44
860.009	14.57
860.18	13.31
860.351	16.11
860.522	16.94
860.692	13.13
860.863	12.52
861.034	14.54
861.204	9.88
861.375	7.17
861.546	10.99
861.716	10.32
861.887	9.33
862.057	11.51
862.228	10.09
862.398	10.16
862.569	13.14
862.739	14.75
862.91	13.27
863.08	14.43
863.251	13.26
863.421	10.95
863.592	12.08
863.762	13.4
863.932	10.78
864.103	11.37
864.273	9.39
864.443	7.12
864.614	4.97
864.784	4.08
864.954	3.69
865.125	4.63
865.295	8.46
865.465	9.78
865.635	9.71
865.805	12.03
865.976	9.43
866.146	12.31
866.316	11.84
866.486	11.48
866.656	10.55
866.826	8.06
866.996	8.68
867.166	8.47
867.336	6.71
867.506	6.49
867.676	5.56
867.846	7.17
868.016	6.46
868.186	5.9
868.356	5.31
868.526	4.32
868.696	6.36
868.866	7.49
869.036	6.06
869.206	5.24
869.376	4.17
869.545	3.39
869.715	4.58
869.885	3.97
870.055	5.19
870.224	7.45
870.394	9.03
870.564	12.3
870.734	10.37
870.903	9.94
871.073	10.52
871.243	13.3
871.412	16.29
871.582	15.76
871.751	17.45
871.921	18.7
872.091	16.22
872.26	14.6
872.43	11.76
872.599	11.27
872.769	10.75
872.938	12.04
873.108	11.22
873.277	8.95
873.446	12.3
873.616	10.99
873.785	10.15
873.955	12.69
874.124	13.22
874.293	13.82
874.463	13.11
874.632	13.1
874.801	13.17
874.971	13.82
875.14	16.63
875.309	11.15
875.478	11.5
875.647	13.64
875.817	13.64
875.986	12.47
876.155	10.87
876.324	12.92
876.493	16.47
876.662	16.08
876.831	15.95
877	12.71
877.17	16.28
877.339	19.53
877.508	17.99
877.677	18.13
877.846	17.77
878.015	18.87
878.184	19.15
878.352	18.98
878.521	17.67
878.69	17.16
878.859	18.58
879.028	17.3
879.197	16.05
879.366	16.26
879.534	16.07
879.703	17.63
879.872	19.12
880.041	19.73
880.21	19.45
880.378	20.04
880.547	20.59
880.716	20.35
880.884	20.05
881.053	19.85
881.222	19.33
881.39	19.49
881.559	19.79
881.727	19.24
881.896	19.07
882.065	18.6
882.233	18.73
882.402	18.29
882.57	18.17
882.739	18.18
882.907	18.3
883.076	18.58
883.244	18.56
883.412	18.04
883.581	17.64
883.749	17.32
883.918	17.88
884.086	17.99
884.254	18.41
884.423	18.3
884.591	18.81
884.759	17.44
884.927	17.23
885.096	16.26
885.264	16.75
885.432	17.22
885.6	16.08
885.769	15.76
885.937	14.74
886.105	12.1
886.273	12.17
886.441	11.38
886.609	12.22
886.777	10.51
886.945	10.25
887.113	8.33
887.281	6.22
887.449	7.93
887.617	7.07
887.785	4.97
887.953	6.02
888.121	4.28
888.289	2.27
888.457	3.11
888.625	5.23
888.793	8.14
888.961	5.89
889.129	7.98
889.296	8.14
889.464	6.53
889.632	7.28
889.8	7.85
889.967	8.4
890.135	14.18
