Data from JASIL_3271_Reflection_1.txt Node
Date: Tue Nov 17 18:53:31 EST 2015
User: Geneva
Spectrometer: USB4E03002
Autoset integration time: false
Trigger mode: 4
Integration Time (sec): 1.000000E-1
Scans to average: 10
Electric dark correction enabled: false
Nonlinearity correction enabled: false
Boxcar width: 5
Stray light correction enabled: false
XAxis mode: Wavelengths
Stop averaging: false
Number of Pixels in Spectrum: 3648
>>>>>Begin Spectral Data<<<<<
177.575	231.25
177.794	182.73
178.014	276.85
178.233	174.24
178.452	202.54
178.672	248.84
178.891	259.79
179.11	301.83
179.33	361.86
179.549	322.22
179.768	262.99
179.987	264.88
180.207	337.74
180.426	250.43
180.645	417.67
180.864	452.52
181.084	619.9
181.303	-59300
181.522	-1228
181.741	-813.59
181.96	-300.4
182.179	-272.82
182.398	-438.86
182.618	-930.84
182.837	-3458.82
183.056	-1807.25
183.275	1404.08
183.494	606.14
183.713	614.41
183.932	422.92
184.151	412.24
184.37	332.44
184.589	340.64
184.808	409.03
185.027	475.26
185.246	846.83
185.465	790.45
185.684	1072.79
185.903	2176.47
186.122	1070.92
186.341	-2769.39
186.56	-518.95
186.779	-671.98
186.998	-620.18
187.216	-840.23
187.435	-422.36
187.654	-363.78
187.873	-398.12
188.092	-321.34
188.311	-650.66
188.53	-1859.72
188.748	-2293.65
188.967	780.73
189.186	-1730.14
189.405	4876.92
189.623	-125400
189.842	806.83
190.061	359.3
190.28	492.58
190.498	549.55
190.717	3659.26
190.936	123700
191.154	1431.4
191.373	1301.05
191.592	518.97
191.81	544.21
192.029	481.97
192.248	-712.84
192.466	-665.92
192.685	-455.95
192.904	-529.77
193.122	-1003.88
193.341	-761.18
193.559	-560.45
193.778	-537.76
193.996	-1306.42
194.215	-2024.62
194.433	-1211.11
194.652	631.25
194.87	746.87
195.089	545.8
195.307	1587.65
195.526	-43900
195.744	126500
195.963	-1486.05
196.181	-606.12
196.399	-323.55
196.618	-278.75
196.836	-600
197.055	-563.75
197.273	-1733.33
197.491	-701.58
197.71	-1034.09
197.928	2887.76
198.146	-1750
198.365	-975.22
198.583	5020.83
198.801	8212.5
199.019	-2560.78
199.238	-1200
199.456	4280
199.674	-850.68
199.892	1845.95
200.111	-1199.06
200.329	-562.44
200.547	-3121.05
200.765	663.59
200.983	-13675
201.202	-2936.36
201.42	46800
201.638	-1041.35
201.856	-271.08
202.074	-240.93
202.292	-168.73
202.51	-348.05
202.728	-373.99
202.946	-412.09
203.165	-354.2
203.383	-622.37
203.601	-570.37
203.819	-463.16
204.037	-467.13
204.255	-6112.5
204.473	1196.69
204.691	693.87
204.909	639.51
205.127	588.66
205.345	1295.54
205.562	-2508.2
205.78	-9712.5
205.998	1333.9
206.216	1237.98
206.434	1223.58
206.652	6326.09
206.87	2608
207.088	-2300
207.306	6404.35
207.523	-8388.24
207.741	7552.94
207.959	1017.5
208.177	1111.21
208.395	1069.92
208.612	-2797.96
208.83	2566.13
209.048	1033.55
209.266	1401.71
209.483	844.02
209.701	678.63
209.919	877.46
210.136	576.57
210.354	911.57
210.572	960
210.79	-36940
211.007	945.45
211.225	1772.04
211.442	1191.91
211.66	880.68
211.878	1680.37
212.095	4597.37
212.313	3037.04
212.53	-1015.44
212.748	4448.48
212.966	-1070.08
213.183	-3220
213.401	-1119.09
213.618	25140
213.836	-884.33
214.053	-569.5
214.271	-421.03
214.488	-402.02
214.705	-789.55
214.923	-1039.64
215.14	-1632.91
215.358	-2469.81
215.575	14150
215.793	-1794.87
216.01	-912.74
216.227	-613.92
216.445	-431.37
216.662	-1689.89
216.879	-1045.83
217.097	-640.65
217.314	-565.4
217.531	-575.47
217.749	2390.74
217.966	3205.13
218.183	321.04
218.4	382.38
218.618	295.09
218.835	300.61
219.052	277.63
219.269	228.55
219.487	230.97
219.704	227.51
219.921	195.94
220.138	311.16
220.355	310.94
220.572	490.7
220.79	297.84
221.007	324.2
221.224	240
221.441	233.51
221.658	274.62
221.875	297.99
222.092	295.29
222.309	324.8
222.526	198.12
222.743	184.47
222.96	203.79
223.177	242.36
223.394	187.09
223.611	224.01
223.828	242.47
224.045	192.43
224.262	182.57
224.479	148.9
224.696	156.99
224.913	184.83
225.13	220.25
225.347	255.27
225.564	202.39
225.781	219.39
225.997	186.93
226.214	144.32
226.431	128.12
226.648	112.65
226.865	112.82
227.082	90.19
227.298	78.7
227.515	66.86
227.732	57.33
227.949	53.97
228.165	50.55
228.382	49.21
228.599	48.62
228.816	49.29
229.032	49.69
229.249	51.66
229.466	55.59
229.682	61.3
229.899	69.18
230.116	77.41
230.332	75.61
230.549	83.27
230.765	98.12
230.982	97.39
231.199	95.7
231.415	107.2
231.632	111.05
231.848	105.11
232.065	102.68
232.281	92.89
232.498	93.89
232.714	108.03
232.931	107.78
233.147	91.55
233.364	92.69
233.58	86.71
233.797	94.24
234.013	92.12
234.23	96.95
234.446	93.21
234.662	88.12
234.879	76.07
235.095	69.59
235.312	69.26
235.528	73.83
235.744	78.56
235.961	91.84
236.177	77.76
236.393	83.55
236.61	79.19
236.826	82.21
237.042	90.58
237.258	94.92
237.475	83.3
237.691	87.99
237.907	77.13
238.123	67.54
238.339	61.79
238.556	57.97
238.772	54.37
238.988	52.03
239.204	51.91
239.42	46.26
239.636	41.08
239.853	44.13
240.069	38.69
240.285	34.36
240.501	31.85
240.717	28.87
240.933	28.89
241.149	29.13
241.365	29.01
241.581	22.42
241.797	24.78
242.013	28.05
242.229	26.08
242.445	26.56
242.661	33.12
242.877	33.62
243.093	35.98
243.309	32.84
243.525	31.6
243.741	30.75
243.957	36.38
244.173	35.04
244.388	31.3
244.604	29.38
244.82	28.86
245.036	22.47
245.252	24.03
245.468	22.81
245.683	22.87
245.899	21.18
246.115	21.43
246.331	20.47
246.547	20.5
246.762	19.67
246.978	20.02
247.194	20.94
247.409	21.63
247.625	20.81
247.841	20.95
248.057	22.52
248.272	24.44
248.488	27.47
248.703	29.13
248.919	28.76
249.135	34.08
249.35	31.96
249.566	31.27
249.782	33.62
249.997	37.66
250.213	38.55
250.428	36.79
250.644	35
250.859	32.51
251.075	31.71
251.29	29.03
251.506	31.73
251.721	37.76
251.937	36.43
252.152	38.48
252.368	36.84
252.583	39.35
252.798	41.7
253.014	41.97
253.229	40.93
253.445	44.1
253.66	49.4
253.875	45.75
254.091	46.51
254.306	52
254.521	48.14
254.737	49.22
254.952	43
255.167	41.46
255.383	42.69
255.598	42.53
255.813	39.04
256.028	38.94
256.244	39.19
256.459	32.82
256.674	30.49
256.889	24.93
257.104	21.91
257.32	20.29
257.535	18.52
257.75	19.19
257.965	18.27
258.18	18.26
258.395	16.85
258.61	16.14
258.826	15.27
259.041	14.65
259.256	15.91
259.471	14.61
259.686	15.06
259.901	15.61
260.116	15.75
260.331	16.68
260.546	17.07
260.761	18.71
260.976	19.35
261.191	21.93
261.406	23.13
261.621	27.06
261.836	32.01
262.05	30.95
262.265	34.16
262.48	35.21
262.695	35.84
262.91	36.42
263.125	38.27
263.34	37.67
263.555	36.98
263.769	37.7
263.984	33.97
264.199	32.4
264.414	36.76
264.629	33.54
264.843	33.92
265.058	30.14
265.273	29.97
265.488	27.79
265.702	25.52
265.917	21.48
266.132	21.75
266.346	23.46
266.561	21.11
266.776	18.14
266.99	17.52
267.205	12.4
267.42	14.08
267.634	14.36
267.849	14.86
268.063	17.06
268.278	19.03
268.492	17.06
268.707	15.27
268.922	16.21
269.136	15.8
269.351	17.5
269.565	20.1
269.78	21.12
269.994	18.63
270.209	19.08
270.423	18.92
270.637	18.57
270.852	19.56
271.066	21.06
271.281	23.36
271.495	24.22
271.709	23.34
271.924	23.18
272.138	21.39
272.353	22.9
272.567	21.98
272.781	20.94
272.996	22.12
273.21	23.14
273.424	21.38
273.638	20.82
273.853	21.7
274.067	21.75
274.281	22.72
274.495	26.79
274.71	26.33
274.924	25.88
275.138	26.15
275.352	25.01
275.566	21.41
275.781	20.48
275.995	18.35
276.209	19.01
276.423	18.92
276.637	17.96
276.851	13.96
277.065	12.85
277.279	14.27
277.493	16.69
277.707	17.03
277.921	17.7
278.135	19.24
278.349	21.4
278.563	18.75
278.777	18.31
278.991	17.67
279.205	18.15
279.419	20.07
279.633	20.88
279.847	18.8
280.061	21.03
280.275	20.86
280.489	20.31
280.703	20.39
280.917	21.66
281.131	20.69
281.344	22.96
281.558	23.34
281.772	22.56
281.986	20.85
282.2	20.17
282.414	17.58
282.627	18.54
282.841	20.53
283.055	19.63
283.269	19.03
283.482	19.93
283.696	19.16
283.91	19.48
284.123	18.77
284.337	19.07
284.551	19.43
284.764	19.11
284.978	19.63
285.192	18.09
285.405	18.06
285.619	18.93
285.833	19.2
286.046	18.07
286.26	17.73
286.473	18.14
286.687	18.31
286.9	19.97
287.114	21.26
287.327	20.11
287.541	19.89
287.754	19.69
287.968	18.59
288.181	18.48
288.395	18.42
288.608	18.79
288.822	17.82
289.035	18.27
289.248	17.27
289.462	17.43
289.675	18
289.889	17.61
290.102	17.69
290.315	19.11
290.529	18.25
290.742	19.87
290.955	20.02
291.169	21.2
291.382	20.33
291.595	20.86
291.808	20.86
292.022	20.52
292.235	20.78
292.448	20.52
292.661	18.93
292.875	18.99
293.088	17.02
293.301	16.82
293.514	15.62
293.727	14.93
293.94	13.77
294.153	14.46
294.367	14
294.58	14.02
294.793	13.31
295.006	12.33
295.219	13.06
295.432	12.84
295.645	12.64
295.858	13.57
296.071	14.19
296.284	14.33
296.497	13.05
296.71	12.63
296.923	12.51
297.136	13.12
297.349	14.42
297.562	14.23
297.775	16.72
297.988	16.6
298.201	17.63
298.414	16.31
298.626	16.99
298.839	16.41
299.052	17.14
299.265	19.04
299.478	18.28
299.691	17.4
299.903	17.02
300.116	15.84
300.329	16.4
300.542	15.16
300.755	15.57
300.967	15.73
301.18	18.97
301.393	20.36
301.605	19.43
301.818	19.62
302.031	20.13
302.243	20.76
302.456	18.73
302.669	17.96
302.881	19.31
303.094	21.66
303.307	21.13
303.519	19.91
303.732	19.62
303.944	20.32
304.157	20.42
304.37	20.28
304.582	20.18
304.795	21.59
305.007	23.18
305.22	20.96
305.432	19.65
305.645	19.07
305.857	17.33
306.069	17.12
306.282	16.87
306.494	16.67
306.707	15.66
306.919	14.35
307.132	15.2
307.344	13.64
307.556	13.22
307.769	13.46
307.981	14.11
308.193	15.71
308.406	14.46
308.618	12.69
308.83	13.24
309.043	15.02
309.255	15.96
309.467	15.56
309.679	15.13
309.892	16.12
310.104	16.1
310.316	15.85
310.528	14.12
310.74	14.35
310.953	16.36
311.165	16.36
311.377	15.6
311.589	15.44
311.801	14.51
312.013	15.46
312.225	14.31
312.437	14.48
312.649	13.62
312.862	14.84
313.074	15.61
313.286	15.82
313.498	15.89
313.71	13.59
313.922	13.01
314.134	13.87
314.346	14.53
314.558	16.74
314.77	16.61
314.982	18.4
315.193	18.8
315.405	17.08
315.617	14.92
315.829	15.75
316.041	18.45
316.253	19.75
316.465	19.55
316.677	18.63
316.888	18.31
317.1	18.49
317.312	19.31
317.524	18.67
317.736	21.1
317.947	22.25
318.159	24.21
318.371	22.45
318.583	23.03
318.794	22.71
319.006	24.04
319.218	24.45
319.43	24.84
319.641	23.8
319.853	24.52
320.064	23.51
320.276	24.88
320.488	21.79
320.699	22.57
320.911	21.63
321.123	24.1
321.334	22.57
321.546	20.65
321.757	19.87
321.969	20.02
322.18	19.67
322.392	19.51
322.603	18.09
322.815	17.89
323.026	18.83
323.238	18.9
323.449	18.03
323.661	17.53
323.872	19.56
324.083	18.9
324.295	18.86
324.506	20.68
324.718	21.9
324.929	22.18
325.14	21.43
325.352	20.59
325.563	20.47
325.774	20.24
325.986	21.49
326.197	20.44
326.408	22.12
326.62	21.87
326.831	19.73
327.042	18.54
327.253	19.54
327.464	21.2
327.676	21.86
327.887	21.56
328.098	21.97
328.309	21.2
328.52	21.43
328.732	20.25
328.943	21.83
329.154	21.86
329.365	22.22
329.576	21.04
329.787	20.44
329.998	20.8
330.209	23.19
330.42	21.28
330.631	20.9
330.842	21.89
331.053	23.59
331.264	22.84
331.475	23.49
331.686	24.56
331.897	23.96
332.108	24.13
332.319	25.52
332.53	24.51
332.741	25.44
332.952	26.55
333.163	26.58
333.374	25.23
333.585	24.77
333.795	25.82
334.006	24.97
334.217	24.62
334.428	25.54
334.639	24.77
334.849	25.69
335.06	25.9
335.271	25.38
335.482	24.28
335.692	24.74
335.903	24.39
336.114	23.86
336.325	23.45
336.535	25.13
336.746	23.55
336.957	23.75
337.167	23.71
337.378	23.24
337.589	23.38
337.799	21.51
338.01	21.43
338.22	23.14
338.431	22.77
338.642	22.74
338.852	21.82
339.063	22.13
339.273	22.09
339.484	20.31
339.694	21.1
339.905	21.6
340.115	23.58
340.326	23.5
340.536	23
340.746	22.5
340.957	23.74
341.167	24.62
341.378	24.5
341.588	24.83
341.799	25
342.009	25.53
342.219	26.41
342.43	26.01
342.64	25.83
342.85	25.38
343.061	25.78
343.271	25
343.481	23.65
343.691	24.29
343.902	23.54
344.112	23.55
344.322	22.09
344.532	20.7
344.743	20.78
344.953	20.93
345.163	20.68
345.373	21.25
345.583	21.79
345.793	22.17
346.004	22.18
346.214	22.31
346.424	22.74
346.634	23.28
346.844	23.01
347.054	21.7
347.264	21.49
347.474	23.19
347.684	22.54
347.894	21.93
348.104	22.03
348.314	21.59
348.524	20.45
348.734	20.32
348.944	20.78
349.154	21.78
349.364	22.79
349.574	22.72
349.784	21.2
349.994	21.94
350.204	21.67
350.413	20.55
350.623	20.08
350.833	20.13
351.043	20.08
351.253	20.63
351.463	20.3
351.672	21.38
351.882	20.54
352.092	19.61
352.302	18.96
352.511	19.34
352.721	19.68
352.931	20.16
353.141	19.47
353.35	19.36
353.56	18.75
353.77	17.28
353.979	16.37
354.189	17.47
354.399	18.21
354.608	17.93
354.818	16.52
355.027	17.33
355.237	17.1
355.447	18.4
355.656	18.86
355.866	18.02
356.075	19.47
356.285	19.85
356.494	20.17
356.704	19.96
356.913	19.65
357.123	21.34
357.332	21.02
357.542	22.15
357.751	21.58
357.96	20.64
358.17	20.93
358.379	20.17
358.589	19.84
358.798	18.62
359.007	19.05
359.217	19.21
359.426	19.05
359.635	18.9
359.845	17.89
360.054	18.12
360.263	18.68
360.472	19.29
360.682	19.12
360.891	18.77
361.1	18.98
361.309	19
361.519	18.76
361.728	18.29
361.937	18.15
362.146	17.9
362.355	19.05
362.564	18.01
362.774	17.94
362.983	18.64
363.192	18.92
363.401	18.98
363.61	17.7
363.819	18.23
364.028	18.35
364.237	19.49
364.446	19.51
364.655	17.65
364.864	19.16
365.073	18.07
365.282	17.21
365.491	17.46
365.7	17.81
365.909	18.94
366.118	19.21
366.327	19.7
366.536	18.01
366.745	17.8
366.954	19.13
367.162	18.7
367.371	19.52
367.58	20.65
367.789	20.7
367.998	20.17
368.207	20.51
368.415	20.12
368.624	19.93
368.833	20.4
369.042	21.31
369.25	21.06
369.459	21.24
369.668	20.76
369.877	20.13
370.085	20.02
370.294	20.5
370.503	19.85
370.711	19.21
370.92	19.03
371.129	19.47
371.337	18.79
371.546	17.95
371.754	18.03
371.963	18.22
372.171	19.01
372.38	18.93
372.589	19.43
372.797	18.91
373.006	18.92
373.214	18.56
373.423	18.37
373.631	19.01
373.84	19.82
374.048	19.41
374.256	19.54
374.465	18.63
374.673	18.53
374.882	17.6
375.09	17.98
375.298	18.12
375.507	18.34
375.715	18.17
375.923	17.44
376.132	17.21
376.34	17.43
376.548	16.57
376.757	16.61
376.965	15.91
377.173	16.47
377.381	17.01
377.59	17.31
377.798	16.76
378.006	17
378.214	18.1
378.423	17.67
378.631	16.78
378.839	17.67
379.047	17.96
379.255	18.21
379.463	17.58
379.671	17.4
379.879	18
380.088	18.97
380.296	18.82
380.504	18.59
380.712	19.03
380.92	19.34
381.128	19.07
381.336	19.22
381.544	19.9
381.752	20.5
381.96	20.2
382.168	19.57
382.376	19.32
382.584	19.43
382.791	18.01
382.999	18.12
383.207	18.16
383.415	18.18
383.623	17.51
383.831	18.1
384.039	18
384.247	17.74
384.454	17.6
384.662	17.22
384.87	17.71
385.078	18.71
385.285	18.36
385.493	18.64
385.701	17.92
385.909	17.99
386.116	17.21
386.324	16.71
386.532	18.03
386.739	18.24
386.947	18.24
387.155	17.22
387.362	16.97
387.57	16.69
387.778	16.72
387.985	17.71
388.193	17.78
388.4	17.32
388.608	17.36
388.816	16.09
389.023	16.32
389.231	16.52
389.438	16.81
389.646	16.87
389.853	16.7
390.061	16.51
390.268	16.39
390.475	16.47
390.683	16.95
390.89	17.15
391.098	17.32
391.305	17.22
391.512	17.46
391.72	17.88
391.927	17.58
392.135	18.12
392.342	18.08
392.549	18.04
392.756	18.15
392.964	18.28
393.171	18.51
393.378	18.92
393.586	18.65
393.793	18.57
394	17.9
394.207	18.54
394.414	18.11
394.622	17.81
394.829	17.77
395.036	17.78
395.243	17.38
395.45	17.77
395.657	17.03
395.864	17.39
396.072	16.72
396.279	17.73
396.486	17.82
396.693	18.46
396.9	18.23
397.107	18.4
397.314	18.32
397.521	18.06
397.728	17.35
397.935	18.01
398.142	17.7
398.349	17.81
398.556	17.53
398.763	16.91
398.97	16.6
399.177	17.47
399.383	17.42
399.59	17.81
399.797	18.16
400.004	18.85
400.211	17.85
400.418	18.13
400.625	18.28
400.831	18.62
401.038	18.55
401.245	18.23
401.452	18.19
401.658	18.51
401.865	18.26
402.072	18.19
402.279	17.76
402.485	18.56
402.692	18.31
402.899	18.04
403.105	16.91
403.312	16.95
403.519	17.85
403.725	17.76
403.932	17.29
404.138	17.19
404.345	17.34
404.552	17.61
404.758	17.44
404.965	17.67
405.171	18.02
405.378	18.51
405.584	18.7
405.791	17.85
405.997	17.97
406.204	18.5
406.41	18.15
406.617	18.53
406.823	18.48
407.029	18.51
407.236	17.79
407.442	17.56
407.649	18.02
407.855	17.42
408.061	17.97
408.268	17.45
408.474	16.54
408.68	16.97
408.887	16.38
409.093	15.6
409.299	15.99
409.505	16.62
409.712	16.73
409.918	16.72
410.124	17.44
410.33	17.27
410.537	17.9
410.743	18.41
410.949	19.07
411.155	19.09
411.361	19.57
411.567	19.23
411.773	19.01
411.98	19.02
412.186	18.51
412.392	17.95
412.598	17.89
412.804	17.31
413.01	16.93
413.216	15.92
413.422	17
413.628	16.32
413.834	16.57
414.04	16.92
414.246	16.57
414.452	16.96
414.658	17.56
414.864	17.62
415.07	18.06
415.275	18.38
415.481	18.29
415.687	17.65
415.893	18.5
416.099	18.34
416.305	18.35
416.511	18.77
416.716	18.79
416.922	18.91
417.128	18.92
417.334	18.94
417.539	18.54
417.745	18.61
417.951	18.4
418.157	17.85
418.362	17.56
418.568	17.01
418.774	16.92
418.979	16.46
419.185	16.13
419.391	15.83
419.596	15.54
419.802	15.51
420.008	15.36
420.213	13.17
420.419	13.47
420.624	13.61
420.83	13.7
421.035	13.75
421.241	13.64
421.446	13.83
421.652	13.87
421.857	13.87
422.063	14.22
422.268	14.21
422.474	16.47
422.679	16.28
422.885	16.19
423.09	16.12
423.295	16.05
423.501	16.34
423.706	16.08
423.911	15.91
424.117	16.03
424.322	15.89
424.527	16.02
424.733	15.98
424.938	16.07
425.143	16.37
425.349	16.77
425.554	16.8
425.759	16.67
425.964	16.95
426.169	17.05
426.375	16.96
426.58	17.07
426.785	17.16
426.99	17.2
427.195	17.69
427.4	17.82
427.605	17.94
427.811	17.41
428.016	17.68
428.221	17.72
428.426	17.84
428.631	17.69
428.836	17.74
429.041	17.9
429.246	17.44
429.451	17.21
429.656	17.01
429.861	16.48
430.066	17.23
430.271	17.12
430.476	17.33
430.681	17.49
430.886	17.43
431.09	17.51
431.295	17.32
431.5	18.11
431.705	18
431.91	17.94
432.115	18.05
432.32	17.79
432.524	18.12
432.729	17.82
432.934	18.02
433.139	18.47
433.343	18.33
433.548	18.42
433.753	17.86
433.958	18.06
434.162	18.17
434.367	17.96
434.572	18.23
434.776	17.91
434.981	17.73
435.186	17.83
435.39	17.63
435.595	17.35
435.799	17.29
436.004	17.35
436.209	16.75
436.413	16.51
436.618	16.7
436.822	16.51
437.027	16.44
437.231	16.86
437.436	16.31
437.64	16.28
437.845	16.6
438.049	16.64
438.253	16.72
438.458	16.95
438.662	17.1
438.867	17.24
439.071	17.13
439.275	17.33
439.48	17.11
439.684	17.22
439.888	17.21
440.093	16.91
440.297	16.96
440.501	17
440.706	16.98
440.91	16.73
441.114	16.71
441.318	16.65
441.523	16.57
441.727	16.53
441.931	16.85
442.135	16.75
442.339	16.91
442.543	17.04
442.748	16.94
442.952	16.89
443.156	17.01
443.36	16.89
443.564	17.23
443.768	16.79
443.972	16.66
444.176	16.07
444.38	16.48
444.584	16.57
444.788	16.36
444.992	16.25
445.196	16.24
445.4	16.15
445.604	16.25
445.808	16.11
446.012	16.36
446.216	16.44
446.42	16.6
446.624	16.32
446.828	16.36
447.032	16.33
447.235	16.62
447.439	16.62
447.643	16.63
447.847	16.45
448.051	16.29
448.254	16.1
448.458	16.01
448.662	16.28
448.866	16.24
449.069	16.39
449.273	16.35
449.477	16.26
449.681	16.29
449.884	16.36
450.088	16.58
450.292	16.95
450.495	17.12
450.699	17.64
450.902	17.62
451.106	17.3
451.31	16.97
451.513	17.34
451.717	17.32
451.92	17.41
452.124	17.34
452.327	17.38
452.531	17.36
452.734	17.58
452.938	17.12
453.141	17.26
453.345	17.41
453.548	17.69
453.752	17.81
453.955	17.57
454.158	17.62
454.362	17.9
454.565	18
454.769	17.86
454.972	17.67
455.175	17.7
455.379	17.38
455.582	17.84
455.785	17.75
455.988	17.59
456.192	17.87
456.395	17.99
456.598	17.81
456.801	17.57
457.005	17.54
457.208	17.5
457.411	17.26
457.614	17.36
457.817	17.01
458.021	16.55
458.224	16.59
458.427	16.27
458.63	16.16
458.833	15.93
459.036	15.88
459.239	16.03
459.442	16.12
459.645	16.37
459.848	16.16
460.051	16.15
460.254	16.48
460.457	16.48
460.66	16.44
460.863	16.32
461.066	16.55
461.269	16.46
461.472	16.45
461.675	16.21
461.878	16.04
462.081	16.34
462.284	16.58
462.486	16.48
462.689	16.34
462.892	16.74
463.095	17.31
463.298	17.28
463.5	17.22
463.703	17.26
463.906	17.74
464.109	17.92
464.311	18.07
464.514	17.79
464.717	17.77
464.92	17.84
465.122	17.73
465.325	17.13
465.528	17.13
465.73	17.55
465.933	17.26
466.135	16.9
466.338	16.98
466.541	16.62
466.743	17.05
466.946	17.15
467.148	17.09
467.351	17.12
467.553	17.5
467.756	17.29
467.958	16.84
468.161	16.93
468.363	16.81
468.566	16.59
468.768	16.81
468.971	16.04
469.173	16.06
469.375	15.79
469.578	15.79
469.78	15.78
469.983	15.83
470.185	16.34
470.387	15.95
470.59	16.37
470.792	16.76
470.994	17.23
471.196	17.56
471.399	17.53
471.601	17.54
471.803	17.39
472.005	17.28
472.208	17.62
472.41	17.16
472.612	17.48
472.814	17.29
473.016	16.95
473.218	16.57
473.421	16.76
473.623	17.02
473.825	17.18
474.027	17.13
474.229	16.96
474.431	16.49
474.633	17.1
474.835	16.81
475.037	16.75
475.239	16.69
475.441	16.71
475.643	16.69
475.845	16.51
476.047	16.64
476.249	17.11
476.451	17.17
476.653	17.47
476.855	16.95
477.057	17.11
477.258	16.97
477.46	17
477.662	16.81
477.864	16.69
478.066	16.59
478.268	16.44
478.469	16.18
478.671	16.16
478.873	16.23
479.075	15.92
479.276	15.75
479.478	15.67
479.68	15.39
479.882	15.22
480.083	15.19
480.285	15.14
480.487	14.92
480.688	14.75
480.89	14.7
481.091	14.7
481.293	14.87
481.495	14.89
481.696	14.86
481.898	14.88
482.099	14.89
482.301	14.8
482.502	14.62
482.704	14.54
482.905	14.49
483.107	14.34
483.308	14.18
483.51	14.21
483.711	14.24
483.913	14.3
484.114	14.35
484.315	14.43
484.517	14.42
484.718	14.53
484.92	14.66
485.121	14.7
485.322	14.84
485.524	14.95
485.725	15.01
485.926	14.92
486.127	14.8
486.329	14.75
486.53	14.55
486.731	14.55
486.932	14.64
487.134	14.74
487.335	14.86
487.536	14.92
487.737	14.98
487.938	15.06
488.139	15.16
488.341	15.24
488.542	15.31
488.743	15.63
488.944	15.71
489.145	15.77
489.346	15.53
489.547	15.56
489.748	15.46
489.949	15.37
490.15	15.27
490.351	15.19
490.552	15.23
490.753	15.29
490.954	15.11
491.155	15.25
491.356	15.25
491.557	15.43
491.758	15.35
491.959	15.6
492.159	15.74
492.36	15.85
492.561	16.02
492.762	16.27
492.963	16.34
493.164	16.53
493.364	16.68
493.565	16.76
493.766	16.64
493.967	16.78
494.167	16.69
494.368	16.87
494.569	16.99
494.769	16.84
494.97	16.57
495.171	16.65
495.371	16.59
495.572	16.35
495.773	16.32
495.973	16.44
496.174	16.4
496.375	16.48
496.575	16.21
496.776	16
496.976	16.18
497.177	16.28
497.377	16.17
497.578	16.21
497.778	16.3
497.979	16.49
498.179	16.54
498.38	16.75
498.58	16.64
498.78	16.93
498.981	17.09
499.181	17.31
499.382	17.46
499.582	17.3
499.782	17.34
499.983	17.35
500.183	16.98
500.383	17.18
500.584	17.08
500.784	17.13
500.984	17.11
501.184	17.05
501.385	16.83
501.585	16.77
501.785	16.92
501.985	17.24
502.185	16.9
502.386	17.21
502.586	16.98
502.786	17.19
502.986	17.17
503.186	17.3
503.386	17.18
503.586	17.55
503.786	17.72
503.987	18.19
504.187	17.95
504.387	18.25
504.587	18
504.787	18.23
504.987	17.95
505.187	17.94
505.387	17.91
505.587	18.04
505.786	18.12
505.986	18.06
506.186	17.6
506.386	17.62
506.586	17.88
506.786	18.26
506.986	18.34
507.186	18.48
507.386	18.56
507.585	18.57
507.785	18.44
507.985	17.98
508.185	17.74
508.384	17.94
508.584	18.14
508.784	18.04
508.984	17.91
509.183	17.78
509.383	17.72
509.583	17.72
509.782	17.68
509.982	17.8
510.182	18.03
510.381	18.28
510.581	18.09
510.781	18.09
510.98	18.03
511.18	18.48
511.379	18.56
511.579	18.52
511.778	18.43
511.978	18.46
512.177	18.73
512.377	18.63
512.576	18.6
512.776	18.76
512.975	18.55
513.175	18.85
513.374	18.57
513.573	18.75
513.773	18.82
513.972	19.25
514.172	19.36
514.371	19.4
514.57	19.36
514.77	19.22
514.969	19.55
515.168	19.69
515.367	19.57
515.567	19.58
515.766	19.55
515.965	19.78
516.164	19.51
516.364	19.71
516.563	19.54
516.762	19.61
516.961	19.83
517.16	19.69
517.359	19.68
517.559	19.79
517.758	19.66
517.957	19.9
518.156	20.09
518.355	20.36
518.554	20.49
518.753	20.57
518.952	20.78
519.151	21.04
519.35	21.24
519.549	21.57
519.748	21.6
519.947	21.76
520.146	21.59
520.345	21.58
520.544	21.75
520.743	21.55
520.942	21.5
521.141	21.44
521.339	21.22
521.538	21.2
521.737	21
521.936	20.98
522.135	21.17
522.333	21.2
522.532	21.24
522.731	20.77
522.93	20.64
523.129	20.98
523.327	21.16
523.526	21.18
523.725	21.25
523.923	21.42
524.122	21.5
524.321	21.43
524.519	21.58
524.718	21.5
524.917	21.75
525.115	22.05
525.314	22.1
525.512	22.02
525.711	22.15
525.909	22.09
526.108	22.03
526.306	21.9
526.505	22.02
526.703	21.85
526.902	21.89
527.1	21.88
527.299	21.75
527.497	21.65
527.696	21.68
527.894	21.65
528.092	21.77
528.291	21.79
528.489	21.92
528.688	21.89
528.886	22.05
529.084	22.13
529.283	22.29
529.481	22.51
529.679	22.58
529.877	22.84
530.076	22.9
530.274	22.91
530.472	23.2
530.67	23.37
530.869	23.54
531.067	23.78
531.265	23.77
531.463	23.73
531.661	23.68
531.859	23.82
532.057	23.69
532.255	23.8
532.454	23.9
532.652	23.78
532.85	23.96
533.048	24
533.246	23.78
533.444	23.97
533.642	24.15
533.84	24.37
534.038	24.55
534.236	24.58
534.434	24.61
534.632	24.66
534.83	25.03
535.027	24.93
535.225	24.94
535.423	24.87
535.621	24.83
535.819	24.78
536.017	24.7
536.215	24.74
536.412	24.97
536.61	25.25
536.808	25.44
537.006	25.4
537.203	25.54
537.401	25.65
537.599	26.12
537.797	26.47
537.994	26.53
538.192	26.53
538.39	26.7
538.587	26.61
538.785	26.44
538.983	26.53
539.18	26.19
539.378	26.05
539.575	25.94
539.773	25.85
539.97	25.93
540.168	25.98
540.366	26.23
540.563	26.01
540.761	26.13
540.958	26.14
541.155	26.2
541.353	26.4
541.55	26.5
541.748	26.67
541.945	27.02
542.143	26.88
542.34	27.04
542.537	26.93
542.735	27.09
542.932	27.49
543.129	27.86
543.327	27.85
543.524	27.96
543.721	28.06
543.919	28.08
544.116	27.88
544.313	28.23
544.51	28.13
544.708	28.28
544.905	28.56
545.102	28.36
545.299	28.31
545.496	28.52
545.693	28.7
545.891	28.97
546.088	29.1
546.285	29.01
546.482	28.86
546.679	29.1
546.876	29.38
547.073	29.63
547.27	29.67
547.467	29.72
547.664	29.63
547.861	29.81
548.058	29.78
548.255	29.97
548.452	30.36
548.649	30.84
548.846	30.89
549.043	30.98
549.24	30.62
549.437	30.67
549.633	30.74
549.83	30.89
550.027	30.47
550.224	30.88
550.421	31.13
550.618	31.43
550.814	31.22
551.011	31.47
551.208	31.57
551.405	32.14
551.601	32.46
551.798	32.66
551.995	32.67
552.191	32.9
552.388	32.75
552.585	32.54
552.781	32.36
552.978	32.41
553.175	32.44
553.371	32.32
553.568	32.33
553.764	32.12
553.961	32.06
554.157	32
554.354	32.23
554.55	32.38
554.747	32.66
554.943	32.84
555.14	33.07
555.336	32.88
555.533	33.06
555.729	32.78
555.926	33
556.122	33.1
556.318	33.48
556.515	33.88
556.711	34.06
556.907	34.22
557.104	34.37
557.3	34.34
557.496	34.37
557.693	33.93
557.889	34.15
558.085	34.23
558.281	34.84
558.478	34.76
558.674	34.69
558.87	34.37
559.066	34.43
559.262	34.69
559.459	34.78
559.655	35.03
559.851	35.5
560.047	35.09
560.243	35.06
560.439	34.5
560.635	34.61
560.831	34.5
561.027	34.87
561.223	35.17
561.419	34.99
561.615	35.24
561.811	35.46
562.007	35.46
562.203	36.15
562.399	35.91
562.595	36.21
562.791	35.86
562.987	36.07
563.183	35.89
563.379	35.74
563.575	36.06
563.771	35.48
563.966	35.34
564.162	35.52
564.358	35.42
564.554	35.93
564.75	35.9
564.945	35.64
565.141	35.31
565.337	35.71
565.533	35.56
565.728	35.52
565.924	36.1
566.12	35.97
566.315	35.65
566.511	35.64
566.707	35.27
566.902	35.17
567.098	36
567.293	36.34
567.489	36.22
567.684	36.83
567.88	36.93
568.076	36.39
568.271	36.58
568.467	37.16
568.662	37.23
568.858	37.78
569.053	38.47
569.248	37.9
569.444	37.83
569.639	37.58
569.835	37.03
570.03	37.03
570.225	37.53
570.421	37.48
570.616	37.03
570.812	37.2
571.007	36.94
571.202	36.37
571.397	36.91
571.593	36.76
571.788	36.66
571.983	36.81
572.178	37.03
572.374	36.72
572.569	37.19
572.764	37.69
572.959	37.49
573.154	37.35
573.35	37.48
573.545	37
573.74	37.35
573.935	37.45
574.13	37.64
574.325	37.35
574.52	37.76
574.715	37.3
574.91	37.08
575.105	37.14
575.3	37.42
575.495	37.7
575.69	38.27
575.885	38.35
576.08	38.59
576.275	38.8
576.47	38.97
576.665	38.74
576.86	39.01
577.055	39.13
577.25	39.47
577.444	39.57
577.639	39.33
577.834	39.06
578.029	38.85
578.224	39.25
578.418	38.83
578.613	38.41
578.808	38.78
579.003	38.66
579.197	38.82
579.392	38.78
579.587	38.99
579.781	39.12
579.976	39.22
580.171	39.78
580.365	39.5
580.56	40
580.755	40.57
580.949	39.97
581.144	40.41
581.338	40.36
581.533	40.76
581.727	40.63
581.922	40.79
582.116	41.06
582.311	40.8
582.505	40.79
582.7	40.65
582.894	40.82
583.089	41.15
583.283	41.1
583.478	41.4
583.672	41.17
583.866	41.16
584.061	41.33
584.255	41.46
584.449	40.93
584.644	40.34
584.838	40.05
585.032	40.27
585.226	40.88
585.421	41.13
585.615	40.78
585.809	40.87
586.003	40.6
586.198	40.77
586.392	40.31
586.586	40.8
586.78	41.49
586.974	41.41
587.168	40.99
587.363	40.84
587.557	40.97
587.751	41.1
587.945	40.8
588.139	41.37
588.333	41.22
588.527	41.75
588.721	41.91
588.915	42.2
589.109	42.37
589.303	42.24
589.497	42.49
589.691	42.37
589.885	42.44
590.079	42.78
590.273	42.8
590.466	42.63
590.66	42.37
590.854	42.27
591.048	41.71
591.242	41.95
591.436	42.02
591.629	41.36
591.823	41.44
592.017	41.3
592.211	41.03
592.404	41.06
592.598	41.32
592.792	41.45
592.986	41.67
593.179	41.97
593.373	41.71
593.567	41.88
593.76	41.66
593.954	41.63
594.147	41.6
594.341	41.06
594.535	41.29
594.728	40.94
594.922	40.99
595.115	40.71
595.309	41.05
595.502	41.37
595.696	41.3
595.889	41.37
596.083	41.08
596.276	41.25
596.47	41.56
596.663	41.4
596.856	42.17
597.05	42.24
597.243	42.62
597.437	42.45
597.63	42.42
597.823	42.26
598.017	42.73
598.21	42.81
598.403	42.76
598.596	43.29
598.79	43.11
598.983	42.43
599.176	42.3
599.369	42.2
599.563	42.32
599.756	42.22
599.949	42.81
600.142	42.5
600.335	42.64
600.528	42.34
600.722	42.11
600.915	42.18
601.108	41.93
601.301	42.07
601.494	41.49
601.687	41.75
601.88	41.87
602.073	41.61
602.266	41.64
602.459	41.62
602.652	41.98
602.845	42.22
603.038	42.04
603.231	42.14
603.424	42.02
603.617	42.18
603.809	41.58
604.002	41.43
604.195	41.39
604.388	41.11
604.581	41.33
604.774	41.35
604.966	41.11
605.159	41.32
605.352	41.44
605.545	41.73
605.737	41.91
605.93	42.23
606.123	42.54
606.316	43.09
606.508	43.54
606.701	43.79
606.894	43.47
607.086	43.78
607.279	43.49
607.471	43.54
607.664	43.35
607.857	43.79
608.049	44.15
608.242	44.15
608.434	43.93
608.627	44.16
608.819	43.83
609.012	43.84
609.204	43.74
609.397	43.78
609.589	43.89
609.782	43.84
609.974	43.86
610.166	43.91
610.359	43.88
610.551	43.53
610.743	43.8
610.936	43.68
611.128	44.09
611.32	44.41
611.513	45.14
611.705	45.19
611.897	45.38
612.09	45.63
612.282	45.48
612.474	45.65
612.666	46.19
612.858	45.64
613.051	45.81
613.243	45.73
613.435	45.21
613.627	44.99
613.819	44.78
614.011	45.73
614.203	45.74
614.395	45.6
614.588	45.63
614.78	45.25
614.972	45.44
615.164	46.1
615.356	46.58
615.548	46.65
615.74	46.61
615.932	46.94
616.124	46.14
616.315	46.49
616.507	46.73
616.699	46.65
616.891	46.99
617.083	47.25
617.275	46.54
617.467	46.45
617.659	46.76
617.85	47.1
618.042	47.62
618.234	47.6
618.426	47.3
618.618	47.36
618.809	47.53
619.001	47.46
619.193	47.64
619.384	48.47
619.576	47.81
619.768	48.13
619.959	47.7
620.151	47.28
620.343	47.55
620.534	47.35
620.726	47.2
620.917	47.71
621.109	47.49
621.301	47.8
621.492	47.44
621.684	47.82
621.875	47.61
622.067	47.97
622.258	47.82
622.45	47.25
622.641	47.1
622.832	47.16
623.024	46.52
623.215	46.58
623.407	45.68
623.598	45.66
623.789	46.08
623.981	46.15
624.172	45.63
624.363	45.27
624.555	45.91
624.746	45.82
624.937	45.75
625.129	45.85
625.32	46.11
625.511	46.85
625.702	46.62
625.893	45.98
626.085	45.76
626.276	46.21
626.467	46.47
626.658	45.93
626.849	45.99
627.04	46.22
627.231	46.3
627.422	46.53
627.614	46.22
627.805	46.52
627.996	47.19
628.187	47.12
628.378	47.06
628.569	46.79
628.76	47.37
628.951	47.85
629.142	47.86
629.332	48.22
629.523	47.77
629.714	47.64
629.905	47.29
630.096	46.7
630.287	47.74
630.478	47.09
630.669	47.66
630.859	47.68
631.05	47.35
631.241	47.13
631.432	46.72
631.623	46.15
631.813	46.35
632.004	46.43
632.195	46.37
632.385	45.47
632.576	46.75
632.767	46.59
632.957	46.11
633.148	45.7
633.339	45.72
633.529	45.97
633.72	46.74
633.91	45.81
634.101	46.37
634.292	46.71
634.482	47.04
634.673	46.49
634.863	46.46
635.054	46.59
635.244	46.85
635.435	47.23
635.625	46.92
635.815	47.11
636.006	47.77
636.196	47.6
636.387	48.13
636.577	48.65
636.767	48.71
636.958	48.24
637.148	48.46
637.338	48.31
637.529	48.23
637.719	48.48
637.909	48.05
638.099	48.83
638.29	48.26
638.48	48.02
638.67	47.21
638.86	46.86
639.05	47.48
639.241	47.96
639.431	47.91
639.621	47.45
639.811	47.19
640.001	47.12
640.191	46.74
640.381	47.36
640.571	47.84
640.761	47.81
640.951	48.43
641.141	48.65
641.331	48.78
641.521	49.26
641.711	50.07
641.901	49.9
642.091	50.27
642.281	50.27
642.471	49.43
642.661	49.12
642.851	49.71
643.041	49.15
643.231	49.08
643.42	48.88
643.61	48.41
643.8	47.65
643.99	47.83
644.18	47.38
644.369	47.51
644.559	48.08
644.749	47.96
644.939	47.77
645.128	48.27
645.318	48.76
645.508	48.24
645.697	48.98
645.887	49.24
646.076	49.48
646.266	50.62
646.456	49.63
646.645	49.92
646.835	50.26
647.024	50.35
647.214	50.11
647.403	49.67
647.593	49.36
647.782	49.29
647.972	49.21
648.161	49.43
648.351	48.54
648.54	49.37
648.73	49.48
648.919	49.01
649.108	48.01
649.298	48.27
649.487	48.11
649.677	48.91
649.866	49.13
650.055	49.21
650.244	49.52
650.434	49.17
650.623	48.86
650.812	48.39
651.002	48.32
651.191	48.59
651.38	48.1
651.569	48.13
651.758	48.25
651.947	47.91
652.137	47.72
652.326	47.29
652.515	48.15
652.704	48.66
652.893	49.48
653.082	49.48
653.271	49.55
653.46	49.96
653.649	49.84
653.838	49.81
654.027	49.77
654.216	50.44
654.405	50.43
654.594	50.38
654.783	50.82
654.972	50.73
655.161	51.38
655.35	51.48
655.539	50.86
655.728	50.74
655.916	50.12
656.105	50.09
656.294	49.89
656.483	49.79
656.672	49.25
656.86	49.06
657.049	48.95
657.238	48.64
657.427	49.16
657.615	49.39
657.804	49.54
657.993	49.29
658.181	49.44
658.37	49.09
658.559	48.99
658.747	49.02
658.936	48.4
659.125	49.17
659.313	49.32
659.502	49.24
659.69	49.83
659.879	49.92
660.067	49.8
660.256	49.61
660.444	50.47
660.633	50.86
660.821	51.92
661.01	51.41
661.198	50.28
661.387	50.12
661.575	49.88
661.763	49.56
661.952	50.21
662.14	51.45
662.328	51.52
662.517	50.87
662.705	51.08
662.893	50.26
663.082	51.51
663.27	51.21
663.458	50.73
663.646	51.48
663.834	50.95
664.023	50.03
664.211	49.59
664.399	50.1
664.587	50.75
664.775	50.48
664.963	50.61
665.152	50.25
665.34	50.36
665.528	50.58
665.716	50.16
665.904	51.09
666.092	50.73
666.28	50.63
666.468	50.69
666.656	50.14
666.844	50.73
667.032	50.28
667.22	50.22
667.408	50.61
667.596	51.01
667.784	51.72
667.971	50.83
668.159	50.96
668.347	51.03
668.535	50.66
668.723	50.68
668.911	49.38
669.098	49.82
669.286	50.47
669.474	50.13
669.662	50.37
669.849	49.83
670.037	50.93
670.225	51.77
670.413	52.39
670.6	53.07
670.788	53.17
670.976	53.9
671.163	52.98
671.351	52.81
671.538	53.32
671.726	53.39
671.913	52.96
672.101	52.71
672.289	52.3
672.476	51.65
672.664	50.75
672.851	50.46
673.039	51.2
673.226	51.5
673.413	51.24
673.601	51.17
673.788	50.81
673.976	50.4
674.163	51
674.35	50.71
674.538	50.97
674.725	51.45
674.912	51.63
675.1	51.27
675.287	51.63
675.474	51.79
675.662	50.73
675.849	49.68
676.036	50.97
676.223	49.63
676.411	50.25
676.598	50.1
676.785	50.18
676.972	50.42
677.159	50.68
677.346	50.88
677.533	50.52
677.721	50.84
677.908	51.96
678.095	51.7
678.282	51.53
678.469	50.7
678.656	51.08
678.843	50.81
679.03	50.68
679.217	50.09
679.404	50.09
679.591	50.48
679.778	50.82
679.964	49.86
680.151	49.8
680.338	50.97
680.525	51.87
680.712	51.52
680.899	51.41
681.086	51.94
681.272	52.71
681.459	52.63
681.646	53.02
681.833	53.31
682.02	54.36
682.206	53.71
682.393	53.06
682.58	52.36
682.766	52.63
682.953	53.46
683.14	52.76
683.326	52.39
683.513	52.15
683.7	52.16
683.886	52.41
684.073	51.31
684.259	51.94
684.446	52.61
684.632	52.6
684.819	51.74
685.005	50.78
685.192	50.42
685.378	50.62
685.565	51.36
685.751	50.59
685.938	51.1
686.124	51.78
686.31	52.14
686.497	51.31
686.683	52.08
686.87	53.15
687.056	53.44
687.242	53.5
687.429	53.03
687.615	52.93
687.801	53.51
687.987	53.65
688.174	54.38
688.36	53.25
688.546	54.4
688.732	54.66
688.918	54.01
689.105	53.79
689.291	55.11
689.477	54.93
689.663	55.35
689.849	54.45
690.035	54.46
690.221	54.6
690.407	56.44
690.593	55.56
690.779	55.07
690.965	55.45
691.151	56.05
691.337	55.15
691.523	55.58
691.709	55.34
691.895	56.08
692.081	55.47
692.267	54.88
692.453	54.52
692.639	55.09
692.825	55.05
693.011	55.4
693.196	54.09
693.382	54.06
693.568	54.37
693.754	54.69
693.94	54.63
694.125	53.83
694.311	53.8
694.497	52.5
694.682	51.94
694.868	52.68
695.054	51.25
695.239	52.99
695.425	53.91
695.611	53.83
695.796	53.93
695.982	53.08
696.168	54.11
696.353	53.34
696.539	53.04
696.724	52.31
696.91	52.33
697.095	52.79
697.281	52.02
697.466	50.49
697.652	50.14
697.837	49.76
698.023	50.42
698.208	49.72
698.393	49.87
698.579	50.88
698.764	51.19
698.949	51
699.135	50.99
699.32	51.82
699.505	52.56
699.691	52.39
699.876	52.27
700.061	52.21
700.246	52.71
700.432	53.97
700.617	53.13
700.802	54.75
700.987	55.77
701.172	58.06
701.358	57.38
701.543	58.51
701.728	59.12
701.913	58.82
702.098	59.19
702.283	59.07
702.468	59.44
702.653	60.06
702.838	59.43
703.023	58.75
703.208	56.68
703.393	57.68
703.578	57.79
703.763	58.16
703.948	59.66
704.133	59.42
704.318	59.31
704.503	57.97
704.688	58.07
704.873	57.53
705.057	56.81
705.242	57.32
705.427	56.42
705.612	55.81
705.797	56.81
705.981	56.44
706.166	56.23
706.351	57.32
706.536	58.38
706.72	57.89
706.905	57.3
707.09	58.45
707.274	57.54
707.459	57.9
707.644	57.33
707.828	55.2
708.013	53.85
708.197	54.36
708.382	53.82
708.567	53.82
708.751	53.61
708.936	55.06
709.12	53.97
709.305	55.13
709.489	55.02
709.673	55.93
709.858	57.3
710.042	58.84
710.227	58.51
710.411	58.06
710.596	57.85
710.78	58.37
710.964	57.88
711.149	58.49
711.333	57.65
711.517	56.25
711.702	56.94
711.886	56.71
712.07	56.78
712.254	56.9
712.438	56.81
712.623	55.66
712.807	54.69
712.991	54.37
713.175	55.31
713.359	55.59
713.544	55.31
713.728	54.26
713.912	54.02
714.096	53.69
714.28	53.71
714.464	54.48
714.648	55.22
714.832	55.46
715.016	54.78
715.2	53.57
715.384	53.95
715.568	55.71
715.752	56.12
715.936	55.81
716.12	56.47
716.304	56.66
716.488	54.67
716.671	54.76
716.855	55.08
717.039	55.02
717.223	56.23
717.407	57.45
717.59	58.44
717.774	57.79
717.958	58.62
718.142	58.75
718.325	59.74
718.509	61.71
718.693	62.66
718.877	63.12
719.06	63.81
719.244	62.3
719.428	60.56
719.611	61.54
719.795	62.26
719.978	63.06
720.162	61.89
720.345	61.55
720.529	61.86
720.713	62.37
720.896	62.2
721.08	62.04
721.263	62.85
721.446	62.65
721.63	61.29
721.813	61.8
721.997	61.41
722.18	59.91
722.364	58.94
722.547	57.76
722.73	58.09
722.914	59.04
723.097	59.74
723.28	60.47
723.464	60.84
723.647	59.85
723.83	60.72
724.013	60.12
724.197	61.69
724.38	62.61
724.563	62.23
724.746	61.13
724.929	61.61
725.112	59.78
725.296	59.95
725.479	60
725.662	59.79
725.845	58.06
726.028	57.98
726.211	58.18
726.394	57.18
726.577	57.97
726.76	58.28
726.943	56.7
727.126	58.91
727.309	56.87
727.492	56.07
727.675	57.37
727.858	58.45
728.041	58.85
728.224	57.94
728.407	57.75
728.589	56.67
728.772	56.41
728.955	57.32
729.138	56.48
729.321	58.2
729.503	59.19
729.686	59.13
729.869	59.53
730.052	58.82
730.234	60.17
730.417	60.13
730.6	60.5
730.782	59.88
730.965	58.88
731.148	58.48
731.33	58.01
731.513	56.58
731.695	55.77
731.878	54.83
732.061	55.83
732.243	55.93
732.426	55.46
732.608	56.91
732.791	56.77
732.973	57.78
733.156	58.7
733.338	59.38
733.52	60.73
733.703	61.16
733.885	62.22
734.068	62.07
734.25	60.84
734.432	63.07
734.615	61.49
734.797	62.26
734.979	61.77
735.162	61.93
735.344	60.41
735.526	59.34
735.708	59.18
735.891	59.04
736.073	59.11
736.255	61.77
736.437	62.54
736.619	64.01
736.802	63.74
736.984	64.21
737.166	63.81
737.348	64.13
737.53	65.88
737.712	66
737.894	64.84
738.076	65.09
738.258	63.9
738.44	63.17
738.622	61.97
738.804	64.15
738.986	63.41
739.168	64
739.35	64.73
739.532	65.38
739.714	67.71
739.896	68.2
740.078	69.46
740.259	69.76
740.441	69.96
740.623	72.43
740.805	70.45
740.987	71.59
741.168	72.49
741.35	74.5
741.532	74.78
741.714	71.52
741.895	73.05
742.077	70.45
742.259	68.48
742.44	66.37
742.622	65.31
742.804	65.5
742.985	64.94
743.167	63.33
743.348	60.72
743.53	59.62
743.711	59.67
743.893	57.9
744.075	57.98
744.256	58.84
744.438	60.31
744.619	60.6
744.8	60.61
744.982	61.69
745.163	63.35
745.345	64.98
745.526	64.46
745.707	63.76
745.889	64.94
746.07	65.71
746.252	66.48
746.433	67.12
746.614	68.15
746.795	68.6
746.977	67.33
747.158	66.39
747.339	66.26
747.52	66.77
747.702	69.35
747.883	70.3
748.064	70.27
748.245	68
748.426	67.6
748.607	65.83
748.788	67.73
748.97	70.02
749.151	70.63
749.332	71.26
749.513	73.08
749.694	71.69
749.875	67.61
750.056	68.32
750.237	69.77
750.418	70.85
750.599	69.82
750.78	67.51
750.96	66.08
751.141	64.61
751.322	62.25
751.503	60.38
751.684	61.48
751.865	64.84
752.046	64.99
752.226	68.29
752.407	66.74
752.588	68.09
752.769	68.26
752.949	65.27
753.13	68.04
753.311	69.55
753.492	70.27
753.672	71.68
753.853	71.6
754.034	70.35
754.214	68.14
754.395	69.84
754.575	71.51
754.756	71.14
754.937	73.93
755.117	72.43
755.298	69.9
755.478	69.25
755.659	66.12
755.839	66.15
756.02	66.26
756.2	68.32
756.381	67.49
756.561	66.57
756.741	66.26
756.922	65.31
757.102	65.79
757.283	68.23
757.463	68.35
757.643	67.52
757.823	67.47
758.004	67.53
758.184	65.08
758.364	66.41
758.545	66.49
758.725	66.99
758.905	67.59
759.085	68.1
759.265	67.57
759.446	68.48
759.626	70.72
759.806	70.03
759.986	70.64
760.166	67.91
760.346	65.48
760.526	66.35
760.706	67.24
760.886	65.79
761.066	65.28
761.246	64.28
761.426	61.43
761.606	60.94
761.786	59.48
761.966	60.71
762.146	62.4
762.326	62.57
762.506	60.5
762.686	59.5
762.866	59.67
763.046	59.22
763.225	60.61
763.405	61.61
763.585	61.71
763.765	61.76
763.945	59.93
764.124	58.93
764.304	59.25
764.484	60.6
764.664	61.78
764.843	61.9
765.023	62
765.203	58.56
765.382	59.73
765.562	59.03
765.741	58.28
765.921	59.63
766.101	63.95
766.28	62.59
766.46	61.78
766.639	59.95
766.819	61.57
766.998	62.88
767.178	65.97
767.357	64.8
767.537	64.06
767.716	66.46
767.896	68.77
768.075	66.63
768.254	69.02
768.434	68.56
768.613	74.99
768.792	73.26
768.972	69.89
769.151	68.96
769.33	68.35
769.51	68.32
769.689	68.49
769.868	65.9
770.047	66.64
770.226	64
770.406	67.42
770.585	62.88
770.764	63.5
770.943	66.14
771.122	66.66
771.301	68.49
771.48	69.27
771.66	71.7
771.839	69.74
772.018	63.96
772.197	69.23
772.376	68.25
772.555	69.13
772.734	72.58
772.913	73.22
773.092	71.29
773.271	71.09
773.449	72.69
773.628	71.02
773.807	73.08
773.986	79.95
774.165	74.59
774.344	75.25
774.523	74.69
774.701	72.64
774.88	72.26
775.059	73.64
775.238	74.35
775.417	75.07
775.595	69.76
775.774	68.7
775.953	67.25
776.131	71.12
776.31	68.47
776.489	65.69
776.667	66.28
776.846	66.19
777.025	67.17
777.203	66.75
777.382	66.88
777.56	72.62
777.739	74.62
777.917	75.1
778.096	73.73
778.274	74.76
778.453	78.01
778.631	78.12
778.81	78.66
778.988	79.81
779.166	80.03
779.345	77.68
779.523	75.56
779.702	76.08
779.88	74
780.058	73.07
780.237	72.3
780.415	72.93
780.593	72.98
780.771	72.63
780.95	72.77
781.128	74.45
781.306	77.44
781.484	80.16
781.662	79.68
781.841	82.62
782.019	85.81
782.197	88.31
782.375	88.8
782.553	88.82
782.731	87.3
782.909	89.71
783.087	89.06
783.265	90.97
783.443	92.55
783.621	94.14
783.799	97.01
783.977	93.4
784.155	90.31
784.333	87.94
784.511	87.02
784.689	90.7
784.867	86.51
785.045	89.15
785.223	87.29
785.4	80.9
785.578	78.92
785.756	72.33
785.934	74.62
786.112	79.69
786.289	79.3
786.467	76.86
786.645	78.54
786.823	76.1
787	74.45
787.178	75.14
787.356	77.49
787.533	79.59
787.711	80.34
787.889	77.35
788.066	76.5
788.244	74.83
788.421	74.74
788.599	73.29
788.776	74.85
788.954	74.13
789.131	72.19
789.309	70.02
789.486	65.49
789.664	64.4
789.841	66.29
790.019	65.04
790.196	67.49
790.373	73.03
790.551	69.35
790.728	71.35
790.906	73.67
791.083	74.21
791.26	78.66
791.437	79.91
791.615	82.91
791.792	84.16
791.969	84.23
792.146	82.81
792.324	82.16
792.501	89.8
792.678	88.46
792.855	87.86
793.032	88.09
793.209	84.91
793.387	87.72
793.564	87.44
793.741	85.08
793.918	86.9
794.095	93.05
794.272	89.94
794.449	83.35
794.626	88.6
794.803	84.16
794.98	82.01
795.157	85.46
795.334	85.15
795.511	85.83
795.688	87.51
795.864	83.69
796.041	78.55
796.218	82.67
796.395	83.72
796.572	80.67
796.749	80.92
796.925	84.29
797.102	84.6
797.279	84.99
797.456	84.56
797.632	81.82
797.809	84.55
797.986	83.66
798.162	80.55
798.339	81.58
798.516	80.54
798.692	83.03
798.869	81.6
799.046	80.84
799.222	77.69
799.399	75.11
799.575	81.92
799.752	78.06
799.928	83.03
800.105	84.77
800.281	81.04
800.458	84.11
800.634	84.14
800.811	84.45
800.987	82.4
801.163	84.98
801.34	88.38
801.516	83.9
801.692	84.25
801.869	80.71
802.045	80.79
802.221	82.1
802.398	79.64
802.574	79.09
802.75	80.75
802.926	80.69
803.103	82.4
803.279	81.77
803.455	80.37
803.631	86.16
803.807	87.57
803.983	83.24
804.16	87.16
804.336	89.8
804.512	88.94
804.688	84.79
804.864	89.58
805.04	89.14
805.216	89.39
805.392	84.15
805.568	80.15
805.744	82.81
805.92	86.49
806.096	83.66
806.272	81.58
806.448	83.22
806.623	82.09
806.799	78.74
806.975	79.96
807.151	77.29
807.327	84.47
807.503	87.08
807.678	83.22
807.854	84.2
808.03	86.81
808.206	87.51
808.381	83.24
808.557	90.12
808.733	85.21
808.908	82.79
809.084	80.5
809.26	76.55
809.435	72.49
809.611	77.68
809.787	75.53
809.962	79.74
810.138	74.61
810.313	80.15
810.489	83.71
810.664	88.47
810.84	86.78
811.015	95.51
811.191	96.84
811.366	95.61
811.542	93.19
811.717	92.21
811.892	93.76
812.068	95.99
812.243	93.58
812.419	86.84
812.594	86.29
812.769	85.6
812.944	83.03
813.12	82.96
813.295	88.12
813.47	88.78
813.645	87.93
813.821	83.93
813.996	84.58
814.171	87.61
814.346	92.45
814.521	94.79
814.697	98.2
814.872	101.36
815.047	91.21
815.222	90.27
815.397	90.27
815.572	93.86
815.747	95.35
815.922	99.1
816.097	96.36
816.272	98.04
816.447	93.18
816.622	94.77
816.797	92.65
816.972	99.94
817.147	96.64
817.322	96.37
817.496	90.58
817.671	83.14
817.846	80.88
818.021	80.36
818.196	75.91
818.371	78.08
818.545	76.34
818.72	76.65
818.895	74.58
819.069	74.43
819.244	72.06
819.419	72.4
819.594	73.73
819.768	69.81
819.943	65.86
820.117	62
820.292	57.99
820.467	55.61
820.641	52.87
820.816	50.52
820.99	49.84
821.165	48.85
821.339	47.98
821.514	46.42
821.688	46.82
821.863	46.35
822.037	46.21
822.212	46.36
822.386	46.28
822.56	47.19
822.735	47.73
822.909	47.19
823.084	47.18
823.258	47.05
823.432	47.23
823.606	46.88
823.781	47.87
823.955	49.67
824.129	49.84
824.303	50.15
824.478	48.72
824.652	49.6
824.826	50.03
825	51.6
825.174	51
825.348	52.49
825.523	52.86
825.697	52.64
825.871	51.94
826.045	51.31
826.219	50.65
826.393	52.13
826.567	52.09
826.741	52.65
826.915	53.9
827.089	54.52
827.263	55.4
827.437	55.24
827.611	54.89
827.784	53.6
827.958	54.79
828.132	56.39
828.306	55.75
828.48	55.98
828.654	57.76
828.827	56.55
829.001	58.31
829.175	58.85
829.349	60.84
829.522	63.29
829.696	67.38
829.87	69.31
830.044	70.95
830.217	71.79
830.391	74.94
830.565	76.23
830.738	74.96
830.912	78.02
831.085	74.17
831.259	73.51
831.432	72.22
831.606	69.39
831.779	68.8
831.953	66.75
832.126	65.71
832.3	63.9
832.473	62.62
832.647	62.37
832.82	60.19
832.994	61.69
833.167	62.33
833.34	61.34
833.514	60.84
833.687	60.65
833.86	61.15
834.034	63.89
834.207	63.9
834.38	63.6
834.553	63.53
834.727	63.96
834.9	63.89
835.073	62.82
835.246	68.32
835.419	71.15
835.593	70.99
835.766	71.48
835.939	70.15
836.112	72.02
836.285	76.14
836.458	80.11
836.631	81.94
836.804	81.35
836.977	82.52
837.15	84.98
837.323	85.14
837.496	85.84
837.669	85.39
837.842	87.17
838.015	87.96
838.188	81.75
838.361	81.14
838.533	75.44
838.706	78.54
838.879	79.8
839.052	70.36
839.225	73.91
839.398	76.53
839.57	81.26
839.743	79.41
839.916	77.64
840.088	80.7
840.261	80.06
840.434	86.31
840.607	86.5
840.779	89.15
840.952	101.39
841.124	94.27
841.297	96.86
841.47	93.26
841.642	101.19
841.815	111.75
841.987	119
842.16	118.64
842.332	121.64
842.505	135.95
842.677	135.26
842.85	127.78
843.022	142.26
843.194	154.26
843.367	168.84
843.539	160.94
843.712	144.94
843.884	134.65
844.056	138.26
844.229	161.31
844.401	149.15
844.573	151.91
844.745	147.23
844.918	137.71
845.09	139.08
845.262	150.79
845.434	130.43
845.606	139.12
845.779	128.92
845.951	135.58
846.123	122.57
846.295	111.06
846.467	117.77
846.639	127.72
846.811	117.69
846.983	111.29
847.155	103.93
847.327	122.09
847.499	128.11
847.671	157.08
847.843	153.14
848.015	141.1
848.187	154.56
848.359	173.94
848.531	164.37
848.703	175
848.875	180.37
849.047	174.71
849.218	185.46
849.39	165.93
849.562	148.93
849.734	149.38
849.905	153.65
850.077	158.89
850.249	138.77
850.421	140.12
850.592	130.37
850.764	119.24
850.936	117.74
851.107	122.61
851.279	134.84
851.451	129
851.622	125.47
851.794	137.06
851.965	130.61
852.137	131.23
852.308	139.11
852.48	156.29
852.651	145.94
852.823	144.72
852.994	127.88
853.166	130.75
853.337	132.62
853.509	133.05
853.68	131.3
853.851	127.22
854.023	114.01
854.194	120.66
854.365	111.9
854.537	132.2
854.708	131.41
854.879	130.1
855.05	125.09
855.222	144.72
855.393	159.21
855.564	145.71
855.735	151.02
855.906	168.71
856.078	142.67
856.249	152.4
856.42	147.44
856.591	133.93
856.762	146.15
856.933	152.94
857.104	141.15
857.275	133.4
857.446	152.69
857.617	168.4
857.788	218.23
857.959	282.93
858.13	266.91
858.301	257.75
858.472	260.78
858.643	210.83
858.814	208.73
858.985	200
859.155	187.59
859.326	168.78
859.497	163.49
859.668	131.75
859.839	106.65
860.009	102.06
860.18	110.04
860.351	113.17
860.522	127.99
860.692	120.71
860.863	134.57
861.034	157.85
861.204	160.99
861.375	151.19
861.546	153.85
861.716	170.46
861.887	194
862.057	181.68
862.228	166.52
862.398	166.34
862.569	162.27
862.739	158.13
862.91	141.18
863.08	136.54
863.251	131.93
863.421	145.73
863.592	142.15
863.762	145.27
863.932	157.31
864.103	137.4
864.273	128.23
864.443	134.9
864.614	135.64
864.784	126.83
864.954	123.81
865.125	143.03
865.295	125.35
865.465	133.79
865.635	127.03
865.805	118.92
865.976	148.54
866.146	152.89
866.316	151.19
866.486	137.14
866.656	145.47
866.826	146.52
866.996	125.17
867.166	122.87
867.336	121.32
867.506	129.2
867.676	132.68
867.846	134.39
868.016	141.91
868.186	144.73
868.356	131.21
868.526	141.27
868.696	138.72
868.866	161.78
869.036	219.8
869.206	211.03
869.376	196.2
869.545	201.02
869.715	179.46
869.885	159.25
870.055	144.59
870.224	138.86
870.394	132.11
870.564	144.44
870.734	138.22
870.903	121.86
871.073	125.94
871.243	116.94
871.412	116.57
871.582	135.14
871.751	138.98
871.921	143.05
872.091	151.07
872.26	154.43
872.43	139.94
872.599	135.23
872.769	132.11
872.938	131.64
873.108	140.93
873.277	146.52
873.446	146.26
873.616	158.28
873.785	149.32
873.955	148.68
874.124	145.16
874.293	168.12
874.463	164.29
874.632	176.22
874.801	152.51
874.971	140.13
875.14	122.01
875.309	115.91
875.478	106.06
875.647	125.76
875.817	119.17
875.986	112.58
876.155	98.57
876.324	98.36
876.493	94.57
876.662	107.04
876.831	109.6
877	116.58
877.17	103.8
877.339	123.71
877.508	109.11
877.677	113.57
877.846	112.75
878.015	118.64
878.184	114.7
878.352	127.94
878.521	132.22
878.69	130.75
878.859	126.78
879.028	132.93
879.197	117.14
879.366	107.27
879.534	103.68
879.703	105.46
879.872	100.83
880.041	98.22
880.21	87.41
880.378	78.03
880.547	72.68
880.716	70.44
880.884	66.16
881.053	64.88
881.222	59.96
881.39	56.94
881.559	56.02
881.727	55.37
881.896	55.64
882.065	56.7
882.233	56.25
882.402	55.4
882.57	55.62
882.739	56.49
882.907	57.11
883.076	56.69
883.244	59.22
883.412	57.09
883.581	58.05
883.749	55.34
883.918	53.73
884.086	54.26
884.254	56.79
884.423	58.31
884.591	56.95
884.759	58.48
884.927	63.9
885.096	65.74
885.264	70.73
885.432	72.8
885.6	82.06
885.769	79.6
885.937	89.54
886.105	95.86
886.273	90
886.441	99.14
886.609	94.69
886.777	96.12
886.945	91.93
887.113	96.33
887.281	98.72
887.449	97.23
887.617	102.82
887.785	96.65
887.953	94.44
888.121	101.88
888.289	111.59
888.457	128.73
888.625	148.1
888.793	150.93
888.961	161.99
889.129	160.71
889.296	180.51
889.464	193.65
889.632	189.15
889.8	188.53
889.967	199.05
890.135	219.26
