Data from JASIL_3302_Reflection_2.txt Node
Date: Tue Nov 17 19:44:45 EST 2015
User: Geneva
Spectrometer: USB4E03002
Autoset integration time: false
Trigger mode: 4
Integration Time (sec): 1.000000E-1
Scans to average: 10
Electric dark correction enabled: false
Nonlinearity correction enabled: false
Boxcar width: 5
Stray light correction enabled: false
XAxis mode: Wavelengths
Stop averaging: false
Number of Pixels in Spectrum: 3648
>>>>>Begin Spectral Data<<<<<
177.575	-114.85
177.794	-135.87
178.014	-121.35
178.233	-371.7
178.452	-311.67
178.672	-331.5
178.891	-979.31
179.11	6290
179.33	1597.83
179.549	1700
179.768	-8227.27
179.987	678.79
180.207	394.26
180.426	706.85
180.645	740
180.864	5076.47
181.084	449.4
181.303	325.45
181.522	356.32
181.741	283.15
181.96	478.79
182.179	2541.18
182.398	-414.29
182.618	-118.91
182.837	-55.71
183.056	-92.35
183.275	-72.78
183.494	35.73
183.713	22.84
183.932	2.5
184.151	18.51
184.37	35.93
184.589	28.62
184.808	16.3
185.027	2.49
185.246	-22.76
185.465	-23.1
185.684	-57.54
185.903	-142.07
186.122	-182.92
186.341	-413.27
186.56	-338.1
186.779	-2314.81
186.998	-251.32
187.216	-269.44
187.435	-251.52
187.654	-224.24
187.873	-168.75
188.092	-237.82
188.311	-377.14
188.53	-231.52
188.748	-78.71
188.967	-103.03
189.186	-45.66
189.405	-159.16
189.623	-107.5
189.842	-102.23
190.061	-96.56
190.28	-45.1
190.498	-67.63
190.717	-42.88
190.936	-48.29
191.154	-220.88
191.373	-436.78
191.592	976.74
191.81	357.28
192.029	471.58
192.248	280.39
192.466	304.42
192.685	150.11
192.904	319.8
193.122	186.81
193.341	206.72
193.559	187.01
193.778	232.6
193.996	201.9
194.215	659.42
194.433	291.43
194.652	225.17
194.87	141.87
195.089	116.92
195.307	40.35
195.526	-38.78
195.744	-15.83
195.963	-221.33
196.181	-200
196.399	-420.69
196.618	275
196.836	240.43
197.055	320.95
197.273	362.69
197.491	446.85
197.71	238.89
197.928	211.92
198.146	224.66
198.365	490.48
198.583	550.79
198.801	-201.61
199.019	-74.71
199.238	-28.72
199.456	27.65
199.674	-36.09
199.892	-21.95
200.111	-16.43
200.329	-30.91
200.547	-74.36
200.765	1060.78
200.983	-359.83
201.202	738.16
201.42	223.21
201.638	187.84
201.856	348.72
202.074	433.33
202.292	280
202.51	272.37
202.728	312.9
202.946	2510.71
203.165	1186.54
203.383	299.28
203.601	406.09
203.819	740.91
204.037	-2324.24
204.255	-2500
204.473	-422.38
204.691	-390.59
204.909	-206.64
205.127	-1104.17
205.345	212.73
205.562	-280.62
205.78	-22.7
205.998	12.39
206.216	13.65
206.434	28.01
206.652	23.85
206.87	20.36
207.088	83.33
207.306	-13.29
207.523	-40.72
207.741	-96.63
207.959	-135.14
208.177	-173.58
208.395	-171.57
208.612	-207.41
208.83	-127.86
209.048	-140.23
209.266	-125.14
209.483	-85.85
209.701	-62.23
209.919	-69.43
210.136	-76.14
210.354	-60.95
210.572	-45.34
210.79	-88.33
211.007	-169.01
211.225	-2640
211.442	477.97
211.66	1500
211.878	188.04
212.095	830.89
212.313	1301.69
212.53	725.12
212.748	643.82
212.966	478.55
213.183	612.06
213.401	-7516.67
213.618	-496.83
213.836	-380.55
214.053	-487.61
214.271	-323.08
214.488	-47.77
214.705	11.72
214.923	44.81
215.14	48.86
215.358	46.95
215.575	42.19
215.793	16.93
216.01	36.97
216.227	-108.62
216.445	-145.83
216.662	-4.31
216.879	36.96
217.097	35.76
217.314	9.73
217.531	512.5
217.749	253.47
217.966	31.32
218.183	-2.42
218.4	-49.68
218.618	-55.26
218.835	-31.33
219.052	-19.12
219.269	17.17
219.487	38.85
219.704	28.68
219.921	20.56
220.138	-3.91
220.355	24.03
220.572	29.27
220.79	29.75
221.007	51.9
221.224	54.37
221.441	42.8
221.658	58.12
221.875	268.57
222.092	-20.45
222.309	533.33
222.526	127.27
222.743	195.17
222.96	219.42
223.177	667.44
223.394	434.21
223.611	154.55
223.828	140.8
224.045	90.88
224.262	93.81
224.479	80.1
224.696	164.42
224.913	317.36
225.13	219.81
225.347	98.62
225.564	73.25
225.781	39.36
225.997	59.46
226.214	48.54
226.431	47.93
226.648	40.54
226.865	18.96
227.082	3.05
227.298	12.65
227.515	13.23
227.732	19.57
227.949	18.54
228.165	11.39
228.382	6.79
228.599	6.47
228.816	9.62
229.032	11.86
229.249	20.92
229.466	22.87
229.682	19.09
229.899	20.79
230.116	32.41
230.332	37.66
230.549	45.75
230.765	33.18
230.982	32.95
231.199	30.09
231.415	14.57
231.632	22.7
231.848	11.12
232.065	8.77
232.281	-0.48
232.498	9.1
232.714	3.95
232.931	10.43
233.147	25.71
233.364	22.94
233.58	24.23
233.797	42.54
234.013	32.07
234.23	60.06
234.446	55.21
234.662	84.31
234.879	42.58
235.095	39.06
235.312	14.94
235.528	19.17
235.744	19.5
235.961	20.2
236.177	24.89
236.393	44.89
236.61	38.38
236.826	48.18
237.042	19.36
237.258	56.74
237.475	39.45
237.691	46.92
237.907	48.89
238.123	61.47
238.339	55.98
238.556	47.11
238.772	39.32
238.988	28.13
239.204	16.69
239.42	23.22
239.636	15.95
239.853	18.13
240.069	20.95
240.285	19.29
240.501	15.98
240.717	12.36
240.933	11.97
241.149	12.07
241.365	13.7
241.581	16.07
241.797	18.95
242.013	17.11
242.229	18.87
242.445	14.57
242.661	12.05
242.877	11.26
243.093	16.44
243.309	16.48
243.525	17.96
243.741	21.92
243.957	20.67
244.173	15.66
244.388	15.5
244.604	16.41
244.82	19.93
245.036	19.68
245.252	16.14
245.468	15.06
245.683	16.44
245.899	13.76
246.115	11.32
246.331	12.6
246.547	12.54
246.762	13.51
246.978	13.19
247.194	12.95
247.409	11.91
247.625	11.16
247.841	11.31
248.057	9.09
248.272	10.19
248.488	8.87
248.703	6.96
248.919	13.25
249.135	9.99
249.35	10.77
249.566	8.6
249.782	12.64
249.997	19.43
250.213	22.88
250.428	27.37
250.644	28.29
250.859	26.95
251.075	26.57
251.29	18.65
251.506	18.27
251.721	17.86
251.937	18.28
252.152	16.25
252.368	15.63
252.583	8.02
252.798	2.1
253.014	-3.17
253.229	-3.87
253.445	-5.36
253.66	-4.48
253.875	-0.56
254.091	-7.54
254.306	-6.39
254.521	-10.55
254.737	-18.84
254.952	-13.06
255.167	-4.83
255.383	-3.43
255.598	2.42
255.813	3.81
256.028	0.08
256.244	0.08
256.459	9.81
256.674	12.12
256.889	14.58
257.104	14.75
257.32	15.02
257.535	12.13
257.75	14.94
257.965	11.99
258.18	11.7
258.395	11.08
258.61	10.44
258.826	6.5
259.041	6.48
259.256	5.46
259.471	5.47
259.686	5.09
259.901	4.98
260.116	4.21
260.331	5.91
260.546	5.5
260.761	7.75
260.976	9.23
261.191	11.85
261.406	12.23
261.621	12.25
261.836	11.2
262.05	5.81
262.265	6.12
262.48	0.87
262.695	-1.6
262.91	-2.97
263.125	-1.65
263.34	-5.65
263.555	-6.74
263.769	-10.67
263.984	-6.39
264.199	-1.54
264.414	5.21
264.629	2.72
264.843	7.63
265.058	8.94
265.273	6.8
265.488	7.3
265.702	8.28
265.917	9.25
266.132	9.31
266.346	11.4
266.561	12.55
266.776	11.38
266.99	13.01
267.205	13.06
267.42	11.38
267.634	11.07
267.849	10.42
268.063	6.28
268.278	6.37
268.492	6.45
268.707	2.93
268.922	0.81
269.136	1.65
269.351	0.04
269.565	1.18
269.78	1.15
269.994	4.61
270.209	2.86
270.423	6
270.637	3.66
270.852	3.52
271.066	5.44
271.281	7.47
271.495	8.31
271.709	9.17
271.924	7.07
272.138	8.15
272.353	6.91
272.567	6.41
272.781	4.02
272.996	6.25
273.21	5.25
273.424	2.61
273.638	1.38
273.853	2.11
274.067	2.67
274.281	3.54
274.495	3.34
274.71	5.51
274.924	7.5
275.138	10.78
275.352	9.81
275.566	12.79
275.781	11.65
275.995	10.88
276.209	7.98
276.423	7.31
276.637	8.63
276.851	5.98
277.065	4.29
277.279	2.34
277.493	0.24
277.707	-0.48
277.921	-1.89
278.135	4.11
278.349	1.49
278.563	0.51
278.777	-0.37
278.991	-2.69
279.205	2.75
279.419	2.55
279.633	3.3
279.847	7.71
280.061	8.06
280.275	10.36
280.489	7.32
280.703	10.3
280.917	14.29
281.131	14.48
281.344	15.49
281.558	14.03
281.772	13.09
281.986	15.02
282.2	12.12
282.414	12.58
282.627	11.16
282.841	12.31
283.055	9.08
283.269	8.75
283.482	8.43
283.696	8.39
283.91	7.82
284.123	7.76
284.337	7.25
284.551	7.09
284.764	6.72
284.978	6.54
285.192	5.66
285.405	6.67
285.619	4.16
285.833	5.09
286.046	5.02
286.26	4.56
286.473	5.46
286.687	4.5
286.9	5.12
287.114	5.74
287.327	5.2
287.541	5.4
287.754	6.43
287.968	9.24
288.181	8.14
288.395	8.28
288.608	8.64
288.822	8.05
289.035	8.47
289.248	9.05
289.462	8.78
289.675	8.58
289.889	8.82
290.102	8.67
290.315	8.13
290.529	8.83
290.742	8.33
290.955	9.59
291.169	10.11
291.382	10.05
291.595	10.31
291.808	11.42
292.022	11.63
292.235	10.73
292.448	9.88
292.661	10.27
292.875	11.12
293.088	10.73
293.301	8.86
293.514	8.16
293.727	7.3
293.94	4.79
294.153	3.72
294.367	4.6
294.58	4.5
294.793	4.59
295.006	3.82
295.219	4.29
295.432	2.93
295.645	4.44
295.858	5.57
296.071	5.86
296.284	7.62
296.497	8.13
296.71	8.81
296.923	8.79
297.136	8.28
297.349	9.08
297.562	7.64
297.775	9.27
297.988	7.92
298.201	8.46
298.414	9.27
298.626	8.29
298.839	7.49
299.052	5.7
299.265	7.43
299.478	10.77
299.691	9.55
299.903	9.55
300.116	8.55
300.329	7.73
300.542	6.94
300.755	5.47
300.967	5.73
301.18	6.81
301.393	7.36
301.605	6.63
301.818	4.66
302.031	5.05
302.243	5.83
302.456	6.26
302.669	7.43
302.881	6.3
303.094	9.5
303.307	8.94
303.519	8.32
303.732	8.57
303.944	9.1
304.157	8.8
304.37	10.12
304.582	10.13
304.795	10.07
305.007	10.67
305.22	11.24
305.432	9.08
305.645	10.04
305.857	9.47
306.069	9.14
306.282	9.27
306.494	8.94
306.707	8.1
306.919	7.38
307.132	7.61
307.344	7.7
307.556	7.5
307.769	6.81
307.981	6.81
308.193	6.52
308.406	5.89
308.618	4.36
308.83	4.8
309.043	3.4
309.255	4.65
309.467	5.59
309.679	5.18
309.892	5.76
310.104	7.15
310.316	7.93
310.528	9.46
310.74	9.2
310.953	8.69
311.165	8.26
311.377	9.98
311.589	9.72
311.801	9.14
312.013	9.21
312.225	9
312.437	8.31
312.649	6.2
312.862	5.78
313.074	6.9
313.286	8.83
313.498	8.99
313.71	8.63
313.922	8.89
314.134	8.3
314.346	8.83
314.558	8.23
314.77	7.29
314.982	8.3
315.193	7.35
315.405	6.77
315.617	5.52
315.829	6.01
316.041	6.14
316.253	4.17
316.465	4.49
316.677	3.91
316.888	5.85
317.1	5.01
317.312	6.77
317.524	7.06
317.736	9.74
317.947	10.86
318.159	13.5
318.371	15.99
318.583	16.31
318.794	17.87
319.006	18.68
319.218	17.42
319.43	21.48
319.641	20.92
319.853	20.87
320.064	19.34
320.276	20.54
320.488	18.04
320.699	15.15
320.911	15.04
321.123	13.88
321.334	13.53
321.546	14.42
321.757	12.14
321.969	11.54
322.18	11.46
322.392	10.52
322.603	9.27
322.815	9.31
323.026	8.8
323.238	9.19
323.449	7.4
323.661	6.37
323.872	3.29
324.083	3.83
324.295	2.78
324.506	2.24
324.718	2.15
324.929	3.94
325.14	5.29
325.352	4.85
325.563	5.69
325.774	5.87
325.986	6.4
326.197	8.17
326.408	7.6
326.62	8.32
326.831	9.32
327.042	11.36
327.253	9.04
327.464	8.4
327.676	9.74
327.887	8.23
328.098	10.18
328.309	10.98
328.52	12.94
328.732	13.39
328.943	15.52
329.154	14.82
329.365	13.88
329.576	15.44
329.787	15.16
329.998	15.73
330.209	18.22
330.42	17.63
330.631	16.39
330.842	16.27
331.053	16.48
331.264	15.16
331.475	15.84
331.686	17.41
331.897	14.71
332.108	16.01
332.319	15.49
332.53	13.69
332.741	14.24
332.952	13.9
333.163	12.75
333.374	12.82
333.585	12.16
333.795	11.03
334.006	8.91
334.217	11.27
334.428	8.96
334.639	8.28
334.849	9.4
335.06	8.22
335.271	9.88
335.482	9.34
335.692	10.69
335.903	10.69
336.114	13.71
336.325	13.72
336.535	12.6
336.746	14.43
336.957	14.12
337.167	13.75
337.378	15.69
337.589	14.43
337.799	13.45
338.01	11.7
338.22	11.78
338.431	9.84
338.642	8.59
338.852	8.77
339.063	7.64
339.273	9.24
339.484	8.77
339.694	6.94
339.905	7.82
340.115	10.74
340.326	10.45
340.536	9.43
340.746	9.15
340.957	10.59
341.167	10.87
341.378	11.81
341.588	11.7
341.799	13.2
342.009	13.73
342.219	13.05
342.43	12.13
342.64	12.72
342.85	13.44
343.061	13.41
343.271	13
343.481	13.77
343.691	12.63
343.902	12.7
344.112	12.3
344.322	11.76
344.532	11.8
344.743	12.57
344.953	13.24
345.163	13.19
345.373	13.91
345.583	13.77
345.793	14.51
346.004	16.79
346.214	17.76
346.424	17
346.634	17.28
346.844	18.09
347.054	17.29
347.264	15.22
347.474	14.44
347.684	14.25
347.894	14.12
348.104	12.12
348.314	9.87
348.524	7.79
348.734	8.45
348.944	8.7
349.154	9.16
349.364	7.98
349.574	10.03
349.784	10.63
349.994	9.99
350.204	9.52
350.413	9.39
350.623	10.07
350.833	11.66
351.043	12.59
351.253	12.77
351.463	11.1
351.672	12.09
351.882	10.63
352.092	10.47
352.302	11.31
352.511	11.97
352.721	12.51
352.931	11.45
353.141	9.45
353.35	8.59
353.56	8.45
353.77	8.4
353.979	7.86
354.189	8.25
354.399	8.49
354.608	7.92
354.818	8.05
355.027	9.04
355.237	9.26
355.447	10.56
355.656	9.56
355.866	9.71
356.075	10.63
356.285	10.95
356.494	10.63
356.704	11.03
356.913	10.27
357.123	10.66
357.332	9.87
357.542	10.68
357.751	10.49
357.96	9.93
358.17	10.37
358.379	9.11
358.589	9.02
358.798	10.39
359.007	9.87
359.217	10.59
359.426	10.06
359.635	10.45
359.845	10.26
360.054	9.05
360.263	9.78
360.472	9.77
360.682	10.54
360.891	10.74
361.1	9.58
361.309	11.02
361.519	11.18
361.728	11.63
361.937	11.09
362.146	10.86
362.355	11.37
362.564	10.7
362.774	10.43
362.983	10.39
363.192	10.19
363.401	11.67
363.61	10.68
363.819	10.96
364.028	11.33
364.237	11.31
364.446	12.1
364.655	12.08
364.864	13.64
365.073	12.57
365.282	12.15
365.491	12.36
365.7	12.07
365.909	10.67
366.118	10.44
366.327	9.37
366.536	9.42
366.745	8.55
366.954	8.93
367.162	8.7
367.371	9.42
367.58	9.51
367.789	9.06
367.998	7.55
368.207	7.74
368.415	8.2
368.624	8.55
368.833	9.01
369.042	9.67
369.25	9.63
369.459	8.78
369.668	8.25
369.877	9.12
370.085	9.82
370.294	10.35
370.503	10.96
370.711	10.22
370.92	10.85
371.129	10.42
371.337	9.44
371.546	9.2
371.754	9.34
371.963	9.87
372.171	9.09
372.38	8.05
372.589	8
372.797	8.41
373.006	9.5
373.214	7.86
373.423	8.01
373.631	8.53
373.84	7.96
374.048	8.52
374.256	8.59
374.465	9.71
374.673	10.66
374.882	10.18
375.09	9.85
375.298	9.36
375.507	9.11
375.715	8.17
375.923	8.49
376.132	9.15
376.34	7.97
376.548	7.4
376.757	6.49
376.965	5.73
377.173	6.5
377.381	6.59
377.59	6.05
377.798	6.75
378.006	7.17
378.214	6.6
378.423	5.76
378.631	6.91
378.839	7.81
379.047	9.07
379.255	9.95
379.463	9.62
379.671	9.93
379.879	10.18
380.088	10.21
380.296	10.79
380.504	11.09
380.712	11.31
380.92	10.68
381.128	10.42
381.336	9.12
381.544	8.22
381.752	8.27
381.96	7.21
382.168	6.49
382.376	7.87
382.584	7.88
382.791	7.82
382.999	7.43
383.207	7.33
383.415	7.51
383.623	7.94
383.831	7.82
384.039	7.38
384.247	7.71
384.454	8.26
384.662	7.46
384.87	7.57
385.078	7.25
385.285	7.74
385.493	8.5
385.701	8.54
385.909	8.76
386.116	9.05
386.324	8.87
386.532	8.96
386.739	9.33
386.947	8.73
387.155	7.67
387.362	7.68
387.57	7.26
387.778	6.05
387.985	5.16
388.193	5.18
388.4	5.35
388.608	6.16
388.816	6.34
389.023	5.84
389.231	6.54
389.438	6.5
389.646	7.64
389.853	8.37
390.061	9.41
390.268	9.84
390.475	8.92
390.683	8.6
390.89	8.73
391.098	8.33
391.305	7.56
391.512	7.37
391.72	8.05
391.927	7.7
392.135	7.01
392.342	6.5
392.549	5.93
392.756	5.79
392.964	5.34
393.171	5.39
393.378	5.64
393.586	6.58
393.793	6.52
394	6.15
394.207	5.28
394.414	5.86
394.622	5.88
394.829	6.06
395.036	5.83
395.243	6.8
395.45	6.21
395.657	5.9
395.864	5.26
396.072	5.44
396.279	5.36
396.486	5.47
396.693	4.92
396.9	5.08
397.107	5.49
397.314	5.94
397.521	5.26
397.728	5.22
397.935	5.51
398.142	5.6
398.349	5
398.556	4.87
398.763	5.19
398.97	6.22
399.177	6.15
399.383	6.34
399.59	6.61
399.797	6.82
400.004	7.22
400.211	6.97
400.418	6.72
400.625	7.05
400.831	7.8
401.038	7.09
401.245	6.77
401.452	6.4
401.658	6.09
401.865	5.95
402.072	5.85
402.279	5.53
402.485	5.72
402.692	6.62
402.899	5.56
403.105	5.53
403.312	6.26
403.519	6.37
403.725	6.35
403.932	6.22
404.138	6.42
404.345	6.31
404.552	6.91
404.758	7.37
404.965	6.79
405.171	7.44
405.378	7.38
405.584	7.07
405.791	7.05
405.997	7.57
406.204	8
406.41	7.84
406.617	7.88
406.823	6.3
407.029	5.32
407.236	5.97
407.442	5.78
407.649	5.34
407.855	5.22
408.061	5.28
408.268	4.97
408.474	4.92
408.68	4.67
408.887	4.96
409.093	6.28
409.299	6.52
409.505	6
409.712	6.83
409.918	6.93
410.124	6.12
410.33	5.71
410.537	5.73
410.743	5.2
410.949	6.26
411.155	5.07
411.361	4.18
411.567	4.09
411.773	3.79
411.98	3.32
412.186	3.85
412.392	4.71
412.598	4.65
412.804	3.93
413.01	4
413.216	3.32
413.422	4.14
413.628	5.01
413.834	4.48
414.04	4.5
414.246	4.37
414.452	3.29
414.658	2.46
414.864	2.65
415.07	2.97
415.275	2.49
415.481	2.4
415.687	2.67
415.893	2.35
416.099	2.93
416.305	3.06
416.511	2.95
416.716	3.37
416.922	4.28
417.128	3.84
417.334	4.16
417.539	4.51
417.745	4.91
417.951	4.62
418.157	4.92
418.362	5.42
418.568	5.25
418.774	5.32
418.979	5.14
419.185	4.9
419.391	5.17
419.596	5.06
419.802	5.26
420.008	4.79
420.213	5.4
420.419	5.13
420.624	5.14
420.83	5.44
421.035	5.58
421.241	5.88
421.446	5.99
421.652	6.05
421.857	6.13
422.063	6.18
422.268	6.21
422.474	5.64
422.679	5.59
422.885	5.19
423.09	5.05
423.295	4.9
423.501	4.73
423.706	4.6
423.911	4.68
424.117	4.56
424.322	4.59
424.527	4.42
424.733	4.68
424.938	4.37
425.143	4.39
425.349	4.26
425.554	3.92
425.759	4.18
425.964	4.11
426.169	4.08
426.375	4.23
426.58	3.82
426.785	4.08
426.99	3.98
427.195	4.23
427.4	4.1
427.605	4.61
427.811	5.08
428.016	4.89
428.221	5.41
428.426	5.16
428.631	4.95
428.836	4.89
429.041	5.07
429.246	4.7
429.451	5.02
429.656	5.1
429.861	5
430.066	4.87
430.271	5.21
430.476	4.68
430.681	4.5
430.886	4.59
431.09	4.82
431.295	4.69
431.5	5.51
431.705	5.48
431.91	5.53
432.115	5.29
432.32	5.37
432.524	4.93
432.729	4.92
432.934	5.12
433.139	4.97
433.343	4.66
433.548	4.61
433.753	3.73
433.958	3.6
434.162	3.6
434.367	3.78
434.572	3.63
434.776	3.85
434.981	4.04
435.186	3.9
435.39	3.94
435.595	4.28
435.799	4.3
436.004	4.6
436.209	4.6
436.413	4.47
436.618	4.24
436.822	4.82
437.027	4.72
437.231	4.53
437.436	4.81
437.64	5
437.845	4.79
438.049	4.68
438.253	4.41
438.458	4.44
438.662	4.69
438.867	4.59
439.071	4.31
439.275	4.59
439.48	4.9
439.684	4.8
439.888	4.82
440.093	4.87
440.297	4.91
440.501	5.35
440.706	5.38
440.91	5.17
441.114	5.06
441.318	5.28
441.523	5.2
441.727	4.74
441.931	4.98
442.135	4.88
442.339	5.02
442.543	5.23
442.748	5.17
442.952	5.13
443.156	5
443.36	5.16
443.564	4.84
443.768	4.97
443.972	5.78
444.176	5.51
444.38	5.6
444.584	5.6
444.788	5.5
444.992	5.59
445.196	5.6
445.4	5.36
445.604	5.02
445.808	5
446.012	4.73
446.216	4.47
446.42	4.48
446.624	4.66
446.828	4.85
447.032	4.83
447.235	4.61
447.439	4.54
447.643	4.95
447.847	5.44
448.051	5.65
448.254	5.92
448.458	5.7
448.662	5.53
448.866	5.52
449.069	5.26
449.273	5.35
449.477	5.35
449.681	5.62
449.884	5.52
450.088	5.26
450.292	5.12
450.495	4.84
450.699	4.95
450.902	5.16
451.106	4.5
451.31	4.7
451.513	4.82
451.717	4.76
451.92	4.58
452.124	4.81
452.327	4.82
452.531	5.22
452.734	5.18
452.938	4.8
453.141	4.98
453.345	5.19
453.548	5.08
453.752	5.06
453.955	5.39
454.158	5.06
454.362	5.15
454.565	5.59
454.769	5.24
454.972	5.39
455.175	5.63
455.379	5.47
455.582	5.94
455.785	5.67
455.988	5.54
456.192	5.24
456.395	5.46
456.598	5.41
456.801	5.31
457.005	4.93
457.208	4.7
457.411	4.61
457.614	4.63
457.817	4.24
458.021	4.47
458.224	4.35
458.427	4.33
458.63	4.26
458.833	4.16
459.036	3.86
459.239	3.9
459.442	4.04
459.645	4.12
459.848	4.08
460.051	4.22
460.254	4.02
460.457	3.96
460.66	4.17
460.863	4.15
461.066	4.09
461.269	4.34
461.472	4.69
461.675	4.57
461.878	4.6
462.081	4.48
462.284	4.41
462.486	4.25
462.689	4.5
462.892	4.5
463.095	5.05
463.298	4.82
463.5	4.86
463.703	4.94
463.906	4.97
464.109	5
464.311	4.98
464.514	4.77
464.717	4.85
464.92	4.86
465.122	4.56
465.325	4.44
465.528	4.54
465.73	4.42
465.933	4.12
466.135	4.33
466.338	4.39
466.541	4.49
466.743	4.79
466.946	4.49
467.148	4.15
467.351	4.38
467.553	4.2
467.756	4.32
467.958	4.36
468.161	4.72
468.363	4.85
468.566	4.73
468.768	4.75
468.971	4.39
469.173	5.24
469.375	5.74
469.578	5.19
469.78	4.94
469.983	4.97
470.185	4.88
470.387	4.73
470.59	4.35
470.792	4.49
470.994	4.36
471.196	4.56
471.399	4.02
471.601	3.96
471.803	4.17
472.005	4.39
472.208	4.49
472.41	4.43
472.612	4.14
472.814	4.53
473.016	4.7
473.218	4.78
473.421	4.63
473.623	4.66
473.825	4.6
474.027	5.16
474.229	5.45
474.431	5.07
474.633	5.29
474.835	5.5
475.037	5.08
475.239	5.09
475.441	5.07
475.643	5.35
475.845	5.26
476.047	5.13
476.249	4.6
476.451	4.37
476.653	4.63
476.855	4.64
477.057	4.59
477.258	4.53
477.46	4.23
477.662	4.44
477.864	4.5
478.066	4.73
478.268	4.93
478.469	5.48
478.671	5.44
478.873	5.24
479.075	4.99
479.276	4.95
479.478	5.05
479.68	5.39
479.882	5.14
480.083	4.84
480.285	4.85
480.487	4.96
480.688	4.62
480.89	4.68
481.091	4.79
481.293	4.66
481.495	4.58
481.696	4.48
481.898	4.28
482.099	4.23
482.301	4.2
482.502	4.11
482.704	3.91
482.905	3.91
483.107	3.81
483.308	3.72
483.51	3.8
483.711	3.74
483.913	3.8
484.114	3.81
484.315	3.8
484.517	3.82
484.718	3.85
484.92	3.98
485.121	3.8
485.322	3.94
485.524	4.04
485.725	4.17
485.926	4.24
486.127	4.24
486.329	4.22
486.53	4.22
486.731	4.22
486.932	4.03
487.134	3.91
487.335	3.99
487.536	3.99
487.737	4.05
487.938	3.98
488.139	4.08
488.341	3.9
488.542	3.96
488.743	3.93
488.944	4.06
489.145	4.1
489.346	4.06
489.547	4.25
489.748	4.13
489.949	3.97
490.15	3.92
490.351	3.71
490.552	3.81
490.753	3.66
490.954	3.76
491.155	3.64
491.356	3.81
491.557	3.85
491.758	3.92
491.959	4.11
492.159	4.17
492.36	4.24
492.561	4.44
492.762	4.41
492.963	4.43
493.164	4.71
493.364	4.7
493.565	4.86
493.766	5
493.967	4.81
494.167	4.54
494.368	4.14
494.569	3.92
494.769	3.85
494.97	3.99
495.171	4.32
495.371	3.8
495.572	3.68
495.773	3.62
495.973	3.54
496.174	3.45
496.375	3.59
496.575	3.88
496.776	3.98
496.976	3.9
497.177	3.83
497.377	3.66
497.578	3.74
497.778	3.91
497.979	4.12
498.179	4.12
498.38	4.1
498.58	4.16
498.78	4.34
498.981	4.57
499.181	4.81
499.382	4.74
499.582	4.74
499.782	4.9
499.983	5.16
500.183	5.04
500.383	4.94
500.584	4.99
500.784	5.01
500.984	5.02
501.184	4.59
501.385	4.19
501.585	4.24
501.785	4.4
501.985	4.43
502.185	4.4
502.386	4.33
502.586	4.73
502.786	5.01
502.986	4.8
503.186	4.72
503.386	5
503.586	5.32
503.786	5.56
503.987	5.63
504.187	5.57
504.387	5.77
504.587	5.74
504.787	5.54
504.987	5.43
505.187	5.33
505.387	5.51
505.587	5.51
505.786	5.41
505.986	5.61
506.186	5.61
506.386	5.75
506.586	5.78
506.786	5.89
506.986	5.87
507.186	5.9
507.386	6.02
507.585	5.83
507.785	6.06
507.985	6.12
508.185	6.14
508.384	6.3
508.584	6.53
508.784	6.58
508.984	6.78
509.183	7.02
509.383	7.27
509.583	7.45
509.782	7.37
509.982	7.35
510.182	7.46
510.381	7.09
510.581	6.81
510.781	6.7
510.98	6.39
511.18	6.19
511.379	5.85
511.579	5.62
511.778	5.74
511.978	6.04
512.177	5.88
512.377	5.79
512.576	5.61
512.776	5.31
512.975	5.3
513.175	5.39
513.374	5.59
513.573	5.87
513.773	5.94
513.972	6
514.172	5.89
514.371	5.72
514.57	5.89
514.77	6.28
514.969	6.62
515.168	6.7
515.367	6.57
515.567	6.32
515.766	6.37
515.965	6.53
516.164	6.28
516.364	6.21
516.563	6.55
516.762	6.63
516.961	6.52
517.16	6.72
517.359	6.56
517.559	6.68
517.758	6.72
517.957	6.55
518.156	6.42
518.355	6.49
518.554	6.48
518.753	6.17
518.952	6.1
519.151	6.3
519.35	6.54
519.549	6.66
519.748	6.8
519.947	6.94
520.146	7.21
520.345	7.29
520.544	7.19
520.743	7.38
520.942	7.82
521.141	8.1
521.339	8.06
521.538	8.09
521.737	8.04
521.936	8
522.135	7.95
522.333	8.38
522.532	8.8
522.731	8.91
522.93	9.28
523.129	9.37
523.327	9.41
523.526	9.53
523.725	9.33
523.923	9.73
524.122	9.79
524.321	9.77
524.519	9.47
524.718	9.06
524.917	9.47
525.115	9.33
525.314	9.33
525.512	9.34
525.711	9.55
525.909	9.58
526.108	9.55
526.306	9.73
526.505	9.96
526.703	10.1
526.902	10.25
527.1	10.17
527.299	10.16
527.497	10.25
527.696	10.26
527.894	10.13
528.092	10.22
528.291	10.18
528.489	10.18
528.688	10.17
528.886	10.17
529.084	10.28
529.283	10.41
529.481	10.58
529.679	10.72
529.877	10.86
530.076	11.2
530.274	11.46
530.472	11.71
530.67	11.93
530.869	12.23
531.067	12.5
531.265	12.46
531.463	12.5
531.661	12.53
531.859	12.7
532.057	12.65
532.255	12.66
532.454	12.6
532.652	12.62
532.85	12.64
533.048	12.56
533.246	12.5
533.444	12.64
533.642	12.72
533.84	13.24
534.038	13.15
534.236	13.26
534.434	13.44
534.632	13.74
534.83	13.95
535.027	14.21
535.225	14.59
535.423	14.76
535.621	14.97
535.819	15.16
536.017	14.87
536.215	14.96
536.412	15.35
536.61	15.25
536.808	15.15
537.006	14.97
537.203	14.87
537.401	14.8
537.599	14.89
537.797	14.87
537.994	14.9
538.192	15.07
538.39	15.16
538.587	15.15
538.785	15.39
538.983	15.64
539.18	16.12
539.378	16.14
539.575	16.09
539.773	16.03
539.97	16.2
540.168	16.31
540.366	16.37
540.563	16.49
540.761	16.47
540.958	16.41
541.155	16.37
541.353	16.35
541.55	16.48
541.748	16.65
541.945	16.92
542.143	16.92
542.34	17.02
542.537	17.13
542.735	17.16
542.932	17.36
543.129	18.01
543.327	18.25
543.524	18.07
543.721	18.39
543.919	18.22
544.116	18.16
544.313	18.45
544.51	18.36
544.708	18.39
544.905	18.5
545.102	18.31
545.299	18.1
545.496	18.01
545.693	18.27
545.891	18.15
546.088	18.37
546.285	18.53
546.482	18.36
546.679	18.42
546.876	18.41
547.073	18.47
547.27	18.76
547.467	18.69
547.664	18.96
547.861	19.44
548.058	19.6
548.255	19.74
548.452	19.75
548.649	20.29
548.846	20.49
549.043	20.65
549.24	20.56
549.437	20.49
549.633	20.61
549.83	20.78
550.027	20.56
550.224	20.32
550.421	20.24
550.618	20.55
550.814	20.05
551.011	20
551.208	20
551.405	20.22
551.601	20.26
551.798	20.29
551.995	20
552.191	20.09
552.388	20.36
552.585	20.92
552.781	20.98
552.978	21.26
553.175	21.27
553.371	21.26
553.568	21.11
553.764	21.46
553.961	21.55
554.157	21.65
554.354	21.52
554.55	21.66
554.747	21.3
554.943	21.78
555.14	21.92
555.336	22.13
555.533	22.2
555.729	22.4
555.926	22.13
556.122	22.4
556.318	22.97
556.515	23.3
556.711	23.26
556.907	23.41
557.104	23.02
557.3	23.25
557.496	23.26
557.693	23.25
557.889	23.54
558.085	23.8
558.281	23.93
558.478	23.48
558.674	23.64
558.87	23.88
559.066	23.94
559.262	23.92
559.459	23.54
559.655	23.69
559.851	23.8
560.047	23.86
560.243	23.76
560.439	23.67
560.635	24.07
560.831	23.98
561.027	23.98
561.223	24.34
561.419	24.48
561.615	24.62
561.811	24.74
562.007	25.23
562.203	25.34
562.399	25.68
562.595	25.49
562.791	25.47
562.987	25.28
563.183	25.17
563.379	24.6
563.575	24.62
563.771	24.6
563.966	24.63
564.162	24.53
564.358	24.6
564.554	24.45
564.75	24.81
564.945	24.77
565.141	25.04
565.337	24.95
565.533	25.05
565.728	25.07
565.924	25.29
566.12	25.36
566.315	25.45
566.511	25.17
566.707	25.27
566.902	25.43
567.098	25.2
567.293	25.1
567.489	25.14
567.684	25.4
567.88	25.61
568.076	25.52
568.271	25.77
568.467	25.65
568.662	25.86
568.858	26.1
569.053	25.84
569.248	26.03
569.444	26.25
569.639	26.59
569.835	26.87
570.03	26.59
570.225	26.83
570.421	26.69
570.616	27
570.812	27.2
571.007	27.04
571.202	27.19
571.397	27.38
571.593	27.09
571.788	26.97
571.983	26.57
572.178	26.48
572.374	26.32
572.569	26.11
572.764	25.9
572.959	25.86
573.154	25.83
573.35	25.83
573.545	25.64
573.74	25.54
573.935	25.28
574.13	25.85
574.325	25.81
574.52	26.08
574.715	26.47
574.91	26.63
575.105	26.79
575.3	27.05
575.495	27.12
575.69	27.19
575.885	27.4
576.08	27.37
576.275	27.27
576.47	27.61
576.665	27.13
576.86	27.19
577.055	27.28
577.25	26.63
577.444	26.64
577.639	26.37
577.834	26.87
578.029	27.11
578.224	27.67
578.418	27.56
578.613	27.75
578.808	28.22
579.003	27.59
579.197	27.28
579.392	27.78
579.587	27.77
579.781	27.91
579.976	27.89
580.171	28.28
580.365	28.46
580.56	28.47
580.755	28.3
580.949	28.25
581.144	28.62
581.338	28.63
581.533	28.46
581.727	28.8
581.922	28.97
582.116	29.05
582.311	29.05
582.505	28.67
582.7	28.72
582.894	28.89
583.089	28.8
583.283	29.21
583.478	29.55
583.672	29.51
583.866	29.1
584.061	28.93
584.255	28.45
584.449	28.29
584.644	28.54
584.838	28.29
585.032	28.62
585.226	28.55
585.421	28.76
585.615	28.95
585.809	28.78
586.003	28.88
586.198	29.04
586.392	29.21
586.586	28.82
586.78	28.81
586.974	28.99
587.168	28.77
587.363	29.27
587.557	28.83
587.751	28.63
587.945	29.49
588.139	29.35
588.333	29.18
588.527	29.36
588.721	29.54
588.915	29.45
589.109	29.72
589.303	29.8
589.497	29.7
589.691	29.53
589.885	29.4
590.079	29.24
590.273	29.45
590.466	29.69
590.66	29.99
590.854	30.3
591.048	30.48
591.242	30.35
591.436	30.18
591.629	30.24
591.823	29.91
592.017	30
592.211	29.93
592.404	30.16
592.598	30.14
592.792	29.72
592.986	29.75
593.179	29.86
593.373	29.83
593.567	29.78
593.76	29.8
593.954	30.35
594.147	30
594.341	29.78
594.535	29.79
594.728	29.77
594.922	30.21
595.115	30.08
595.309	29.82
595.502	30.18
595.696	30.21
595.889	30.09
596.083	30.02
596.276	30.46
596.47	30.99
596.663	30.98
596.856	31.33
597.05	31.37
597.243	31.56
597.437	31.73
597.63	31.48
597.823	31.48
598.017	31.91
598.21	31.56
598.403	31.63
598.596	30.76
598.79	31.07
598.983	31.27
599.176	30.51
599.369	30.33
599.563	30.28
599.756	30.04
599.949	30.38
600.142	30.26
600.335	31.35
600.528	31.26
600.722	31.74
600.915	31.18
601.108	31.02
601.301	31.4
601.494	31.49
601.687	31.52
601.88	31.82
602.073	31.16
602.266	31.54
602.459	30.86
602.652	30.81
602.845	30.84
603.038	30.94
603.231	30.51
603.424	30.6
603.617	30.81
603.809	30.97
604.002	31.01
604.195	31.11
604.388	30.9
604.581	31.15
604.774	31.51
604.966	31.29
605.159	31.15
605.352	31.39
605.545	31.03
605.737	31.25
605.93	31.67
606.123	31.24
606.316	31.9
606.508	31.54
606.701	31.4
606.894	30.6
607.086	31.37
607.279	31.74
607.471	31
607.664	31.1
607.857	31.05
608.049	30.83
608.242	30.98
608.434	30.86
608.627	31.16
608.819	31.4
609.012	31.65
609.204	31.03
609.397	31.21
609.589	32.21
609.782	32.57
609.974	32.08
610.166	31.93
610.359	32.28
610.551	32.62
610.743	32.45
610.936	32.6
611.128	33.5
611.32	33.66
611.513	33.38
611.705	33.68
611.897	33.78
612.09	33.94
612.282	34.15
612.474	34.4
612.666	34.53
612.858	34.74
613.051	34.62
613.243	33.97
613.435	34.32
613.627	34.08
613.819	33.52
614.011	32.97
614.203	33.35
614.395	33.48
614.588	33.2
614.78	33.28
614.972	33.55
615.164	33.74
615.356	34.25
615.548	34.25
615.74	34.37
615.932	33.89
616.124	34.82
616.315	34.94
616.507	34.68
616.699	34.3
616.891	33.78
617.083	34.03
617.275	34.22
617.467	33.36
617.659	32.93
617.85	33.35
618.042	34.34
618.234	33.59
618.426	33.37
618.618	33.2
618.809	33.57
619.001	34.03
619.193	33.59
619.384	33.51
619.576	34.29
619.768	34.61
619.959	34.67
620.151	34.41
620.343	34.69
620.534	34.44
620.726	35.3
620.917	35.37
621.109	34.28
621.301	34.53
621.492	34.62
621.684	34.46
621.875	34.12
622.067	33.81
622.258	34.02
622.45	34.37
622.641	34.25
622.832	34.23
623.024	34.15
623.215	34.66
623.407	34.06
623.598	34.14
623.789	34.01
623.981	34.39
624.172	34.99
624.363	34.46
624.555	33.61
624.746	33.52
624.937	33.34
625.129	33.17
625.32	33.43
625.511	33.53
625.702	33.11
625.893	33.68
626.085	33.26
626.276	32.98
626.467	33.47
626.658	34.19
626.849	34.75
627.04	35.08
627.231	35.67
627.422	35.77
627.614	35.52
627.805	35.7
627.996	35.25
628.187	35.63
628.378	35.96
628.569	36.19
628.76	35.75
628.951	35.4
629.142	35.47
629.332	35.25
629.523	35.31
629.714	36.17
629.905	36.77
630.096	36.78
630.287	37.17
630.478	37.1
630.669	36.95
630.859	37.19
631.05	37.31
631.241	36.17
631.432	35.82
631.623	35.35
631.813	35.6
632.004	34.93
632.195	34.9
632.385	34.61
632.576	33.93
632.767	33.67
632.957	33.74
633.148	33.4
633.339	33.65
633.529	34.65
633.72	34.89
633.91	34.08
634.101	33.61
634.292	33.95
634.482	33.61
634.673	33.86
634.863	33.14
635.054	33.04
635.244	33.93
635.435	34.14
635.625	33.46
635.815	33.25
636.006	33.38
636.196	34.03
636.387	34.06
636.577	34.62
636.767	35.14
636.958	35.78
637.148	36.73
637.338	36.39
637.529	36.97
637.719	36.75
637.909	37.23
638.099	37.18
638.29	36.32
638.48	36.27
638.67	36.56
638.86	35.86
639.05	36.03
639.241	35.8
639.431	35.29
639.621	35.56
639.811	35.98
640.001	36.06
640.191	35.68
640.381	36.67
640.571	36.68
640.761	37.19
640.951	37.86
641.141	38.15
641.331	37.62
641.521	38.71
641.711	37.84
641.901	37.28
642.091	37.36
642.281	37.1
642.471	37.15
642.661	37.34
642.851	36.28
643.041	35.61
643.231	35.9
643.42	35.94
643.61	35.9
643.8	36.75
643.99	37.16
644.18	37.3
644.369	38.3
644.559	38.73
644.749	38.16
644.939	37.59
645.128	38.88
645.318	38.53
645.508	38.67
645.697	37.55
645.887	38.05
646.076	38.38
646.266	38.68
646.456	38.8
646.645	38.74
646.835	38.98
647.024	40.06
647.214	38.77
647.403	38.58
647.593	38.29
647.782	38.79
647.972	37.2
648.161	37.49
648.351	37.03
648.54	37.05
648.73	37.18
648.919	37.27
649.108	36.76
649.298	37.51
649.487	38.13
649.677	38.65
649.866	39.39
650.055	39.6
650.244	39.48
650.434	39.6
650.623	39.5
650.812	39.25
651.002	39.12
651.191	39.39
651.38	38.66
651.569	38.09
651.758	37.88
651.947	36.81
652.137	36.61
652.326	36.26
652.515	36.08
652.704	36.19
652.893	35.74
653.082	36.12
653.271	36.65
653.46	37.08
653.649	37.14
653.838	36.7
654.027	38.07
654.216	38.66
654.405	39.13
654.594	38.86
654.783	38.42
654.972	38.81
655.161	38.16
655.35	38.23
655.539	38.51
655.728	38.44
655.916	38.12
656.105	37.25
656.294	37.4
656.483	36.58
656.672	36.86
656.86	36.67
657.049	36.26
657.238	36.44
657.427	36.23
657.615	35.6
657.804	35.79
657.993	36.33
658.181	37.23
658.37	36.34
658.559	36.08
658.747	36.92
658.936	37.34
659.125	36.46
659.313	36.05
659.502	36.11
659.69	36.66
659.879	37.39
660.067	36.96
660.256	36.02
660.444	37.27
660.633	37.65
660.821	36.31
661.01	36.3
661.198	37.79
661.387	39.2
661.575	39.36
661.763	40.21
661.952	39.07
662.14	39.04
662.328	39.19
662.517	39.21
662.705	39.83
662.893	40.22
663.082	41.31
663.27	40.27
663.458	39.41
663.646	39.09
663.834	37.33
664.023	37.86
664.211	37.9
664.399	38.92
664.587	37.89
664.775	38.23
664.963	38.29
665.152	37.62
665.34	39.12
665.528	39.75
665.716	40.43
665.904	41.59
666.092	41.14
666.28	41.86
666.468	40.56
666.656	41.77
666.844	41.2
667.032	40.97
667.22	40.71
667.408	39.37
667.596	38.91
667.784	38.78
667.971	39.28
668.159	40.04
668.347	40.38
668.535	40.99
668.723	39.97
668.911	40.31
669.098	40.42
669.286	40.48
669.474	42.08
669.662	41.48
669.849	41.22
670.037	40.94
670.225	40.07
670.413	39.74
670.6	39.2
670.788	39.42
670.976	38.9
671.163	38.32
671.351	38.58
671.538	38.68
671.726	39.62
671.913	39.47
672.101	39.13
672.289	39.28
672.476	39.67
672.664	40.1
672.851	40.29
673.039	40.92
673.226	42.66
673.413	42.07
673.601	42.1
673.788	42.1
673.976	42.04
674.163	42.65
674.35	42.81
674.538	42.52
674.725	41.83
674.912	42.2
675.1	42.21
675.287	41.09
675.474	41.01
675.662	39.98
675.849	39.18
676.036	39.33
676.223	38.77
676.411	39.18
676.598	39.52
676.785	39.83
676.972	39.99
677.159	39.94
677.346	39.76
677.533	40.73
677.721	40.8
677.908	40.63
678.095	40.54
678.282	40.2
678.469	39.17
678.656	39.11
678.843	39.37
679.03	38.96
679.217	38.52
679.404	39.3
679.591	38.61
679.778	39.03
679.964	39.61
680.151	39.28
680.338	39.02
680.525	39.78
680.712	39.16
680.899	39.25
681.086	39.43
681.272	39.61
681.459	39.52
681.646	39.47
681.833	38.85
682.02	38.57
682.206	39.27
682.393	39.67
682.58	39.57
682.766	41.86
682.953	41.99
683.14	42.85
683.326	43.49
683.513	44.11
683.7	44.29
683.886	45.19
684.073	46.11
684.259	45.73
684.446	46.8
684.632	47
684.819	44.35
685.005	44.44
685.192	43.57
685.378	43.13
685.565	41.63
685.751	41.76
685.938	41.72
686.124	40.27
686.31	40.21
686.497	39.37
686.683	40.01
686.87	39.95
687.056	40.4
687.242	39.9
687.429	40.05
687.615	41.32
687.801	42.52
687.987	42.19
688.174	42.78
688.36	42.97
688.546	43.5
688.732	43.59
688.918	43.49
689.105	43.44
689.291	44.9
689.477	44.71
689.663	43.88
689.849	43.93
690.035	44.16
690.221	44.5
690.407	44.94
690.593	45.34
690.779	44.85
690.965	45.7
691.151	45.55
691.337	46.01
691.523	45.95
691.709	46.5
691.895	45.16
692.081	45.92
692.267	46.63
692.453	46.28
692.639	47.01
692.825	46.52
693.011	47.3
693.196	47.12
693.382	46.23
693.568	47.17
693.754	48.42
693.94	48.22
694.125	47.4
694.311	47.19
694.497	48.11
694.682	47.34
694.868	46.92
695.054	45.71
695.239	47.08
695.425	46.76
695.611	46.02
695.796	44.1
695.982	43.96
696.168	44.03
696.353	43.39
696.539	42.95
696.724	42.11
696.91	42.54
697.095	42.72
697.281	41.64
697.466	41.15
697.652	41.05
697.837	41.19
698.023	41.51
698.208	41.64
698.393	41.97
698.579	41.75
698.764	41.1
698.949	40.62
699.135	40.88
699.32	41.81
699.505	42.45
699.691	42.84
699.876	42.73
700.061	43.02
700.246	42.79
700.432	42.82
700.617	43.89
700.802	44.51
700.987	45.12
701.172	46.84
701.358	45.64
701.543	46.14
701.728	47.32
701.913	46.75
702.098	46.6
702.283	46.76
702.468	47.35
702.653	46.02
702.838	47.5
703.023	47.24
703.208	45.13
703.393	46.1
703.578	46.41
703.763	45.37
703.948	46.7
704.133	46.77
704.318	47.86
704.503	47.46
704.688	48.26
704.873	46.61
705.057	46.92
705.242	47.43
705.427	47.75
705.612	47.23
705.797	46.68
705.981	47.31
706.166	47.95
706.351	47.19
706.536	48.15
706.72	47.88
706.905	49.14
707.09	50.85
707.274	51.29
707.459	50.32
707.644	49.84
707.828	50.36
708.013	50.28
708.197	49.1
708.382	47.81
708.567	46.21
708.751	45.46
708.936	45.6
709.12	45.02
709.305	43.33
709.489	41.85
709.673	41.7
709.858	42.19
710.042	41.67
710.227	42.33
710.411	43.96
710.596	44.64
710.78	45.3
710.964	45.48
711.149	45.15
711.333	46.17
711.517	46.89
711.702	47.81
711.886	47.15
712.07	46.76
712.254	47.54
712.438	48.19
712.623	47.23
712.807	46.38
712.991	46.26
713.175	47.12
713.359	47.97
713.544	49.27
713.728	49.54
713.912	49.42
714.096	50.06
714.28	48.48
714.464	47.9
714.648	49.03
714.832	50.09
715.016	50
715.2	49.28
715.384	48.63
715.568	47.61
715.752	46.68
715.936	46.09
716.12	46.26
716.304	46.45
716.488	45.15
716.671	45.55
716.855	46.63
717.039	45.65
717.223	46.08
717.407	47.15
717.59	47
717.774	47.51
717.958	48.82
718.142	50.22
718.325	52.12
718.509	52.84
718.693	52.38
718.877	51.15
719.06	53.86
719.244	52.36
719.428	52.64
719.611	56.3
719.795	55.39
719.978	55.63
720.162	53.71
720.345	52.64
720.529	53.09
720.713	53.36
720.896	54.14
721.08	53.93
721.263	54.33
721.446	54.18
721.63	51.83
721.813	52.34
721.997	51.86
722.18	52.53
722.364	53.33
722.547	53.04
722.73	53.77
722.914	53.82
723.097	53.46
723.28	53.64
723.464	52.51
723.647	52.46
723.83	54.4
724.013	55.7
724.197	54.21
724.38	53.92
724.563	54.16
724.746	53.53
724.929	53.22
725.112	52.01
725.296	50
725.479	50.46
725.662	51.64
725.845	49.05
726.028	47.75
726.211	48.37
726.394	48.84
726.577	49.06
726.76	47.25
726.943	47.53
727.126	47.84
727.309	48.88
727.492	47.67
727.675	46.61
727.858	46.93
728.041	47.7
728.224	47.91
728.407	46.51
728.589	46.38
728.772	47.01
728.955	46.08
729.138	45.94
729.321	46.76
729.503	46.87
729.686	46.4
729.869	46.06
730.052	45.67
730.234	44.83
730.417	45.68
730.6	45.23
730.782	46.08
730.965	45.55
731.148	45.05
731.33	46.3
731.513	46.88
731.695	47.32
731.878	47.59
732.061	48.57
732.243	49.11
732.426	48.79
732.608	49.82
732.791	50.02
732.973	49.96
733.156	51.6
733.338	50.02
733.52	49.18
733.703	47.91
733.885	50.23
734.068	49.13
734.25	50.87
734.432	52.39
734.615	52.74
734.797	53.57
734.979	55.32
735.162	53.64
735.344	53.03
735.526	54.56
735.708	54.48
735.891	53.18
736.073	53.63
736.255	52.27
736.437	51.18
736.619	49.37
736.802	47.25
736.984	47.19
737.166	48.36
737.348	50.97
737.53	50.32
737.712	49.32
737.894	49.15
738.076	49.03
738.258	50.22
738.44	50.88
738.622	51.85
738.804	53.9
738.986	53.72
739.168	53.63
739.35	53.66
739.532	54.7
739.714	57.93
739.896	58.71
740.078	58.79
740.259	56.99
740.441	55.48
740.623	54.21
740.805	53.14
740.987	53.43
741.168	52.83
741.35	49.85
741.532	48.92
741.714	49.31
741.895	48.44
742.077	48.93
742.259	48.99
742.44	48.54
742.622	50.69
742.804	48.62
742.985	48.11
743.167	47
743.348	46.33
743.53	46.03
743.711	43.64
743.893	43.46
744.075	45.6
744.256	46.38
744.438	49.06
744.619	48.44
744.8	51.88
744.982	50.61
745.163	54.48
745.345	58.43
745.526	58.95
745.707	59.44
745.889	61.02
746.07	59.22
746.252	61.96
746.433	58.92
746.614	57.24
746.795	59.49
746.977	62
747.158	59.45
747.339	57.66
747.52	57.7
747.702	59.47
747.883	57.55
748.064	58.41
748.245	55.94
748.426	59.25
748.607	59.88
748.788	56.93
748.97	53.35
749.151	53.61
749.332	55.35
749.513	56.59
749.694	56.48
749.875	58.45
750.056	55.42
750.237	55.27
750.418	53.9
750.599	55.92
750.78	54.84
750.96	56.1
751.141	56.23
751.322	53.35
751.503	52.78
751.684	52.42
751.865	48.15
752.046	49.87
752.226	50.16
752.407	49.04
752.588	51.06
752.769	53.91
752.949	54.38
753.13	52.46
753.311	51.84
753.492	51.26
753.672	49.32
753.853	55.28
754.034	54.74
754.214	54.14
754.395	53.6
754.575	48.96
754.756	44.53
754.937	45.04
755.117	47.15
755.298	51.19
755.478	50.85
755.659	50.48
755.839	49.73
756.02	50.3
756.2	50.4
756.381	51.03
756.561	52.56
756.741	54.61
756.922	55.68
757.102	56.74
757.283	54.26
757.463	54.84
757.643	56.74
757.823	55.57
758.004	54.81
758.184	53.4
758.364	54.11
758.545	55.14
758.725	56.91
758.905	55.08
759.085	55.88
759.265	55.87
759.446	56.82
759.626	56.46
759.806	57.23
759.986	57.52
760.166	60.26
760.346	61.95
760.526	59.29
760.706	58.62
760.886	59.28
761.066	56.6
761.246	54.38
761.426	52.42
761.606	51.72
761.786	49.74
761.966	49.48
762.146	47.13
762.326	44.9
762.506	44.95
762.686	43.57
762.866	43.7
763.046	42.67
763.225	43.89
763.405	43.95
763.585	43.41
763.765	44.31
763.945	44.07
764.124	44.45
764.304	47.28
764.484	48.53
764.664	48.04
764.843	49.35
765.023	50.22
765.203	48.92
765.382	48.72
765.562	50.85
765.741	51.47
765.921	53.33
766.101	54.89
766.28	53.39
766.46	54.16
766.639	57.4
766.819	56.7
766.998	59.25
767.178	60.67
767.357	62.47
767.537	61.21
767.716	59.91
767.896	57.55
768.075	56.75
768.254	56.42
768.434	56.36
768.613	55.04
768.792	55.97
768.972	55.26
769.151	57.34
769.33	57.09
769.51	58.96
769.689	60.42
769.868	60.37
770.047	61.61
770.226	62.22
770.406	60.76
770.585	62.91
770.764	59.88
770.943	59.55
771.122	62.5
771.301	64.58
771.48	64.84
771.66	63.18
771.839	66.26
772.018	67.42
772.197	67.31
772.376	71.39
772.555	69.4
772.734	71.34
772.913	73.57
773.092	70.18
773.271	68.26
773.449	67.38
773.628	68.93
773.807	70.83
773.986	68.87
774.165	68.71
774.344	65.79
774.523	61.83
774.701	63.46
774.88	61.72
775.059	60.28
775.238	61.17
775.417	61.16
775.595	63.75
775.774	61.87
775.953	61.73
776.131	60.24
776.31	58.92
776.489	61.5
776.667	60.83
776.846	62.6
777.025	64.76
777.203	69.48
777.382	69.57
777.56	67.89
777.739	66.3
777.917	65.95
778.096	65.1
778.274	68.58
778.453	69.22
778.631	70.73
778.81	69.43
778.988	71.91
779.166	67.11
779.345	66.23
779.523	65.68
779.702	65.43
779.88	70.44
780.058	68.84
780.237	64.91
780.415	65.49
780.593	58.53
780.771	56.34
780.95	51.22
781.128	50.16
781.306	48.51
781.484	52.08
781.662	54.63
781.841	48.23
782.019	52.77
782.197	53.84
782.375	55.29
782.553	59.33
782.731	65.69
782.909	67.36
783.087	69.03
783.265	71.48
783.443	68.34
783.621	68.85
783.799	76.3
783.977	77.99
784.155	74.81
784.333	75.5
784.511	76.16
784.689	71.86
784.867	72.25
785.045	72.54
785.223	67.5
785.4	70.35
785.578	70.28
785.756	67.49
785.934	63.67
786.112	66.98
786.289	61.18
786.467	57.18
786.645	59.94
786.823	59.77
787	53.94
787.178	58.23
787.356	53.9
787.533	51.36
787.711	51.82
787.889	50.03
788.066	48.37
788.244	51.58
788.421	53.66
788.599	53.56
788.776	53.21
788.954	56.26
789.131	54.08
789.309	57.12
789.486	58
789.664	56.96
789.841	60.75
790.019	62.44
790.196	63.88
790.373	65.69
790.551	62.97
790.728	63.84
790.906	66.81
791.083	64.45
791.26	62.04
791.437	62.22
791.615	64.02
791.792	63.05
791.969	60.65
792.146	60.7
792.324	58.68
792.501	65.55
792.678	65.16
792.855	62.5
793.032	67.98
793.209	67.83
793.387	73.33
793.564	72.3
793.741	74.61
793.918	75.39
794.095	77.7
794.272	77.02
794.449	69.1
794.626	68.81
794.803	69.17
794.98	65.86
795.157	67.75
795.334	62.73
795.511	63.11
795.688	58.29
795.864	61.11
796.041	58.02
796.218	59.03
796.395	59.52
796.572	55.91
796.749	59.75
796.925	59.59
797.102	58.63
797.279	57.04
797.456	57.62
797.632	61.65
797.809	58.66
797.986	58.52
798.162	55.31
798.339	57.5
798.516	59.55
798.692	58.47
798.869	64.21
799.046	60.21
799.222	61.59
799.399	57
799.575	54.9
799.752	56.16
799.928	56.61
800.105	61.7
800.281	61.97
800.458	62.81
800.634	58.88
800.811	52.83
800.987	57.16
801.163	59.41
801.34	59.26
801.516	57.91
801.692	59.06
801.869	59.94
802.045	56.49
802.221	54.17
802.398	57.48
802.574	61.36
802.75	64.27
802.926	62.73
803.103	60.68
803.279	67.74
803.455	70.21
803.631	72.21
803.807	72.16
803.983	74.23
804.16	76.07
804.336	71.86
804.512	71.01
804.688	68.21
804.864	66.5
805.04	65.79
805.216	66.8
805.392	68.11
805.568	63.32
805.744	66.11
805.92	65.23
806.096	65.38
806.272	65.9
806.448	65.57
806.623	68.46
806.799	71.05
806.975	71
807.151	64.69
807.327	64.33
807.503	66.6
807.678	61.37
807.854	63.97
808.03	64.38
808.206	68.09
808.381	69.39
808.557	68.44
808.733	72.34
808.908	72
809.084	73.73
809.26	75.54
809.435	75.91
809.611	77.95
809.787	74.55
809.962	74.61
810.138	71.75
810.313	70.4
810.489	75.86
810.664	74.02
810.84	80.43
811.015	76.9
811.191	76.74
811.366	74.03
811.542	78.21
811.717	76.94
811.892	78.46
812.068	78.33
812.243	79.89
812.419	73.55
812.594	68.89
812.769	62.49
812.944	73.62
813.12	71.55
813.295	71.65
813.47	69.83
813.645	74.51
813.821	71.37
813.996	71.5
814.171	67.55
814.346	68.64
814.521	69.64
814.697	72.08
814.872	67.95
815.047	66.97
815.222	69.42
815.397	65.53
815.572	62.11
815.747	65.89
815.922	63.65
816.097	62.29
816.272	61.72
816.447	65.63
816.622	63.79
816.797	58.47
816.972	60.89
817.147	58.15
817.322	61.21
817.496	60.59
817.671	61.99
817.846	65.64
818.021	68.3
818.196	68.45
818.371	62.79
818.545	62.59
818.72	66.86
818.895	63.61
819.069	60.06
819.244	57.09
819.419	54.45
819.594	47.37
819.768	42.34
819.943	41.72
820.117	40.06
820.292	41.26
820.467	39.59
820.641	37.78
820.816	37.13
820.99	37.47
821.165	36.13
821.339	35.63
821.514	35.53
821.688	35.76
821.863	35.25
822.037	35.28
822.212	34.16
822.386	34.29
822.56	33.4
822.735	33.86
822.909	33.96
823.084	33.74
823.258	34.42
823.432	35.09
823.606	35.06
823.781	34.76
823.955	35.77
824.129	36.66
824.303	35.93
824.478	36.68
824.652	36.63
824.826	36.42
825	37.4
825.174	37.05
825.348	36.58
825.523	37.24
825.697	36.74
825.871	36.48
826.045	36
826.219	36.45
826.393	35.97
826.567	36.29
826.741	35.87
826.915	35.92
827.089	35.77
827.263	35.69
827.437	35.44
827.611	36.61
827.784	34.48
827.958	34.94
828.132	34.61
828.306	37.61
828.48	38.92
828.654	40.94
828.827	40.83
829.001	44.17
829.175	44.44
829.349	46.46
829.522	47.28
829.696	49.55
829.87	49.67
830.044	54.94
830.217	51.88
830.391	52.67
830.565	51.45
830.738	52.86
830.912	50.49
831.085	54.31
831.259	52.86
831.432	52.19
831.606	53.06
831.779	50.09
831.953	47.47
832.126	50.72
832.3	48.12
832.473	50.26
832.647	47.64
832.82	45.94
832.994	44.42
833.167	43.6
833.34	43.51
833.514	41.24
833.687	42.28
833.86	43.68
834.034	40.48
834.207	42.22
834.38	41.51
834.553	41.17
834.727	41.33
834.9	39.1
835.073	39.5
835.246	39.86
835.419	42.09
835.593	42.14
835.766	38.85
835.939	39.98
836.112	40.53
836.285	35.74
836.458	39.23
836.631	40.91
836.804	48.45
836.977	50.97
837.15	45.57
837.323	46.65
837.496	48.28
837.669	52.02
837.842	55.59
838.015	51.91
838.188	56.9
838.361	56.57
838.533	57.72
838.706	56.14
838.879	54.85
839.052	56.77
839.225	56.59
839.398	57.66
839.57	63.38
839.743	59.59
839.916	61.33
840.088	60.71
840.261	65.63
840.434	63.37
840.607	59.2
840.779	51.12
840.952	58.4
841.124	58.24
841.297	58.44
841.47	53.85
841.642	63.98
841.815	58.67
841.987	61.44
842.16	61.04
842.332	67.28
842.505	81.41
842.677	89.85
842.85	94.32
843.022	96.47
843.194	95.07
843.367	92.27
843.539	91.21
843.712	91.94
843.884	94.44
844.056	86.94
844.229	85.66
844.401	74.43
844.573	75.26
844.745	69.94
844.918	76.44
845.09	61.14
845.262	55.63
845.434	57.09
845.606	59.17
845.779	66.98
845.951	83.17
846.123	85.41
846.295	95.01
846.467	102.46
846.639	101.57
846.811	100.73
846.983	117.39
847.155	119.64
847.327	118.31
847.499	135.23
847.671	139.92
847.843	124.74
848.015	113.48
848.187	110.15
848.359	109.36
848.531	119.97
848.703	99.16
848.875	115.75
849.047	117.83
849.218	108.27
849.39	100.81
849.562	95.98
849.734	102.24
849.905	97.67
850.077	99.28
850.249	86.7
850.421	78.1
850.592	93.76
850.764	84.28
850.936	68.5
851.107	63.46
851.279	62.85
851.451	68.21
851.622	75.63
851.794	90.6
851.965	87.14
852.137	86.79
852.308	87.77
852.48	97.81
852.651	99.26
852.823	113.29
852.994	122.64
853.166	124.7
853.337	131.3
853.509	132.01
853.68	121.18
853.851	125.33
854.023	120.92
854.194	107.68
854.365	101.02
854.537	105.43
854.708	102.5
854.879	98.23
855.05	94.66
855.222	83.59
855.393	82.84
855.564	88.42
855.735	90.51
855.906	96.5
856.078	106.79
856.249	89.78
856.42	84.16
856.591	78.89
856.762	79.48
856.933	80.3
857.104	64.91
857.275	57.83
857.446	56.09
857.617	55.85
857.788	48.83
857.959	50.42
858.13	49.7
858.301	41.61
858.472	54.46
858.643	52.65
858.814	58.06
858.985	80.4
859.155	98.97
859.326	80.81
859.497	97.4
859.668	175.9
859.839	147.24
860.009	133.22
860.18	200.62
860.351	168.22
860.522	146.74
860.692	125.1
860.863	116.2
861.034	103.07
861.204	96.1
861.375	80.71
861.546	74.28
861.716	78.56
861.887	83.48
862.057	75.17
862.228	80.05
862.398	76.78
862.569	99.31
862.739	122.34
862.91	124.77
863.08	135.4
863.251	146.69
863.421	149.68
863.592	161.87
863.762	151.84
863.932	126.35
864.103	122.89
864.273	125.7
864.443	99.11
864.614	85.15
864.784	81.91
864.954	98.13
865.125	114.06
865.295	115.58
865.465	117.46
865.635	117.37
865.805	114.58
865.976	137.83
866.146	112.87
866.316	126.87
866.486	147.87
866.656	134.27
866.826	116.73
866.996	101.22
867.166	100
867.336	88.53
867.506	76.85
867.676	74.22
867.846	66.61
868.016	89.79
868.186	83.52
868.356	67.74
868.526	66.23
868.696	66.67
868.866	62.31
869.036	68.17
869.206	65.37
869.376	63.24
869.545	71.85
869.715	74.39
869.885	78.54
870.055	74.41
870.224	82.66
870.394	91.73
870.564	104.93
870.734	102.65
870.903	107.46
871.073	114.15
871.243	116.49
871.412	117.06
871.582	105.15
871.751	85.99
871.921	95.63
872.091	117.08
872.26	88.13
872.43	70.72
872.599	75.08
872.769	69.62
872.938	82.35
873.108	89.66
873.277	84.77
873.446	82.77
873.616	89.74
873.785	90.98
873.955	86.08
874.124	82.3
874.293	99.9
874.463	92.87
874.632	91.33
874.801	82.52
874.971	66.51
875.14	67.69
875.309	81.87
875.478	63.2
875.647	50.11
875.817	48.45
875.986	62.71
876.155	47.34
876.324	51
876.493	46.9
876.662	53.91
876.831	66.81
877	63.03
877.17	60.78
877.339	70.24
877.508	83.83
877.677	93.72
877.846	83.9
878.015	93.18
878.184	89.54
878.352	96.97
878.521	92.6
878.69	82.17
878.859	75.19
879.028	74.19
879.197	68.37
879.366	63.42
879.534	52.65
879.703	50.79
879.872	46.16
880.041	36.92
880.21	38.39
880.378	33.89
880.547	32.08
880.716	32.84
880.884	32.76
881.053	31.04
881.222	32.31
881.39	33.4
881.559	30.98
881.727	30.27
881.896	31.14
882.065	29.52
882.233	30.01
882.402	28.81
882.57	31.41
882.739	28.4
882.907	28.77
883.076	27.12
883.244	25.79
883.412	27.82
883.581	29.61
883.749	30.91
883.918	32.97
884.086	34.03
884.254	36.7
884.423	36.92
884.591	43.07
884.759	46.48
884.927	49.63
885.096	51.18
885.264	56.05
885.432	59.34
885.6	63.24
885.769	64.28
885.937	64.59
886.105	71.6
886.273	67.07
886.441	65.56
886.609	64.51
886.777	59.08
886.945	72.95
887.113	76.2
887.281	70.04
887.449	69.04
887.617	65.96
887.785	73.25
887.953	67.82
888.121	73.05
888.289	75.14
888.457	71.53
888.625	75.53
888.793	65.44
888.961	50.56
889.129	60.18
889.296	60.41
889.464	61.52
889.632	44.76
889.8	46
889.967	43.18
890.135	36.24
