Data from JASIL_2908_Reflection_2.txt Node
Date: Sat Nov 07 20:24:02 EST 2015
User: Geneva
Spectrometer: USB4E03002
Autoset integration time: false
Trigger mode: 4
Integration Time (sec): 1.000000E-1
Scans to average: 10
Electric dark correction enabled: true
Nonlinearity correction enabled: false
Boxcar width: 5
Stray light correction enabled: false
XAxis mode: Wavelengths
Stop averaging: false
Number of Pixels in Spectrum: 3648
>>>>>Begin Spectral Data<<<<<
177.575	212.69
177.794	240.77
178.014	175.33
178.233	134.35
178.452	123.18
178.672	175.75
178.891	-1247.67
179.11	299.44
179.33	205.72
179.549	188.69
179.768	164.42
179.987	139.3
180.207	139.28
180.426	117.82
180.645	108.44
180.864	110.51
181.084	121.12
181.303	126.78
181.522	130.61
181.741	125.03
181.96	118.01
182.179	122.5
182.398	142.46
182.618	136.8
182.837	140.86
183.056	127.36
183.275	136.38
183.494	130.69
183.713	113.39
183.932	110.22
184.151	121.86
184.37	128.94
184.589	132.8
184.808	115.52
185.027	113.8
185.246	112.68
185.465	117.15
185.684	101.57
185.903	103.25
186.122	113.93
186.341	109.35
186.56	94.9
186.779	106.99
186.998	94.21
187.216	99.33
187.435	95.48
187.654	86.54
187.873	91.11
188.092	107.72
188.311	94.61
188.53	92.85
188.748	88.29
188.967	92.57
189.186	80.61
189.405	86.06
189.623	82.73
189.842	87.04
190.061	95.05
190.28	95.88
190.498	90.12
190.717	91.5
190.936	84.43
191.154	79.17
191.373	79.45
191.592	84.5
191.81	80.37
192.029	83.32
192.248	83.34
192.466	77.41
192.685	76.32
192.904	72.69
193.122	77.26
193.341	74.44
193.559	80.73
193.778	93.58
193.996	87.42
194.215	90.34
194.433	88.04
194.652	84.07
194.87	86.34
195.089	81.12
195.307	77.43
195.526	80.5
195.744	83.7
195.963	82.5
196.181	72.11
196.399	74.32
196.618	77.14
196.836	85.05
197.055	90.14
197.273	92.52
197.491	92.94
197.71	96.38
197.928	90.28
198.146	88.12
198.365	82.5
198.583	77.17
198.801	76.44
199.019	68.57
199.238	60.4
199.456	49.57
199.674	53.86
199.892	57.7
200.111	67.9
200.329	74.81
200.547	73.13
200.765	76.09
200.983	87.59
201.202	85.71
201.42	91.92
201.638	89.19
201.856	93.58
202.074	84.92
202.292	78.74
202.51	73.57
202.728	80.29
202.946	84.07
203.165	88.78
203.383	89.54
203.601	89.08
203.819	82.67
204.037	88.71
204.255	85.46
204.473	79.65
204.691	74.93
204.909	71.28
205.127	66.96
205.345	64.41
205.562	65.09
205.78	59.6
205.998	60.08
206.216	65.05
206.434	60.42
206.652	64.73
206.87	67.51
207.088	72.75
207.306	71.72
207.523	65.75
207.741	61.97
207.959	63.61
208.177	67.2
208.395	66.37
208.612	59.36
208.83	60.79
209.048	59.54
209.266	61.33
209.483	62.34
209.701	64.32
209.919	71.9
210.136	73.52
210.354	74.91
210.572	78.7
210.79	81.48
211.007	88.87
211.225	86.68
211.442	80.82
211.66	80.69
211.878	82.84
212.095	136.97
212.313	124.33
212.53	129.37
212.748	123.36
212.966	112.55
213.183	113.63
213.401	106.51
213.618	109.8
213.836	116.98
214.053	112.09
214.271	108.56
214.488	63.82
214.705	65.61
214.923	69.3
215.14	65.54
215.358	64.3
215.575	59.01
215.793	59.98
216.01	60.42
216.227	61.5
216.445	65.76
216.662	62.34
216.879	63
217.097	61.48
217.314	56.84
217.531	63.34
217.749	68.26
217.966	70.39
218.183	67.82
218.4	62.5
218.618	59.55
218.835	54.97
219.052	56.84
219.269	53.83
219.487	54.15
219.704	53.1
219.921	44.96
220.138	43.84
220.355	38.66
220.572	39.29
220.79	41.08
221.007	44.1
221.224	43.27
221.441	40.93
221.658	41.56
221.875	41.38
222.092	42.31
222.309	46.28
222.526	41.18
222.743	46.62
222.96	47.2
223.177	45.32
223.394	43.12
223.611	43.1
223.828	42.6
224.045	42.12
224.262	41.4
224.479	38.27
224.696	39.48
224.913	38.42
225.13	33.95
225.347	32.95
225.564	31.33
225.781	29.99
225.997	28.73
226.214	27.09
226.431	24.57
226.648	23.5
226.865	23.19
227.082	21.54
227.298	21.28
227.515	21.55
227.732	21.12
227.949	21.33
228.165	20.35
228.382	19.96
228.599	20.19
228.816	20.54
229.032	20.52
229.249	20.75
229.466	21.12
229.682	21.09
229.899	20.61
230.116	20.51
230.332	19.41
230.549	20.16
230.765	20.63
230.982	19.49
231.199	19.87
231.415	19.21
231.632	18.87
231.848	19.35
232.065	19.36
232.281	20.32
232.498	20.57
232.714	22.32
232.931	22.85
233.147	23.01
233.364	23.44
233.58	23.02
233.797	24.68
234.013	24.66
234.23	23.41
234.446	23.4
234.662	22.73
234.879	22.35
235.095	21.35
235.312	21.4
235.528	21.55
235.744	22.29
235.961	22.07
236.177	20.92
236.393	20.24
236.61	22.23
236.826	22.29
237.042	22.16
237.258	22.45
237.475	23.37
237.691	23.12
237.907	22.38
238.123	21.51
238.339	20.95
238.556	21.28
238.772	21.32
238.988	20.2
239.204	19.43
239.42	20.02
239.636	19.6
239.853	18.71
240.069	17.81
240.285	18.08
240.501	17.55
240.717	17.39
240.933	16.8
241.149	16.32
241.365	15.9
241.581	16
241.797	15.52
242.013	15.39
242.229	15.62
242.445	15.7
242.661	15.28
242.877	15.41
243.093	15.68
243.309	15.9
243.525	16.07
243.741	15.94
243.957	15.9
244.173	15.92
244.388	15.55
244.604	14.49
244.82	14.13
245.036	13.81
245.252	13.66
245.468	13.38
245.683	13.07
245.899	12.84
246.115	13.03
246.331	12.85
246.547	12.55
246.762	12.53
246.978	12.75
247.194	12.78
247.409	12.83
247.625	12.71
247.841	12.64
248.057	12.74
248.272	12.49
248.488	12.18
248.703	11.99
248.919	12.46
249.135	12.35
249.35	12.02
249.566	12.01
249.782	12.09
249.997	12.39
250.213	12.35
250.428	12
250.644	13.14
250.859	13.31
251.075	13.44
251.29	12.76
251.506	13.05
251.721	13
251.937	13.02
252.152	12.7
252.368	12.68
252.583	12.79
252.798	13.23
253.014	12.72
253.229	12.19
253.445	12.39
253.66	13.12
253.875	12.53
254.091	13.01
254.306	13.23
254.521	13.48
254.737	13.55
254.952	13.08
255.167	12.82
255.383	12.7
255.598	13.11
255.813	12.45
256.028	12.28
256.244	12.38
256.459	12.03
256.674	11.19
256.889	10.63
257.104	10
257.32	10.24
257.535	10.13
257.75	9.97
257.965	10.03
258.18	10.41
258.395	10.07
258.61	9.99
258.826	9.86
259.041	10.08
259.256	10.13
259.471	10.12
259.686	9.9
259.901	10.02
260.116	10.2
260.331	9.8
260.546	9.52
260.761	9.58
260.976	9.7
261.191	9.84
261.406	9.56
261.621	9.57
261.836	9.89
262.05	9.87
262.265	9.69
262.48	9.26
262.695	9.92
262.91	10.26
263.125	10.68
263.34	10.87
263.555	10.81
263.769	11.15
263.984	11.16
264.199	11.09
264.414	11.54
264.629	11.61
264.843	11.54
265.058	11.59
265.273	11.04
265.488	10.68
265.702	10.35
265.917	10.41
266.132	10.26
266.346	10.46
266.561	10.26
266.776	10.1
266.99	9.68
267.205	9.96
267.42	9.61
267.634	9.4
267.849	9.52
268.063	9.63
268.278	9.78
268.492	9.9
268.707	9.56
268.922	9.74
269.136	9.66
269.351	9.75
269.565	9.61
269.78	9.68
269.994	9.95
270.209	9.93
270.423	9.75
270.637	9.45
270.852	9.3
271.066	9.43
271.281	9.35
271.495	9.31
271.709	9.37
271.924	9.39
272.138	9.48
272.353	9.56
272.567	9.37
272.781	9.52
272.996	9.74
273.21	9.89
273.424	9.94
273.638	9.71
273.853	9.85
274.067	9.7
274.281	9.55
274.495	9.53
274.71	9.49
274.924	9.55
275.138	9.43
275.352	9.31
275.566	9.39
275.781	9.26
275.995	9.44
276.209	9.46
276.423	9.52
276.637	9.5
276.851	9.34
277.065	9.22
277.279	9.07
277.493	8.76
277.707	8.86
277.921	8.57
278.135	8.14
278.349	8
278.563	8.13
278.777	8.3
278.991	8.42
279.205	8.39
279.419	8.38
279.633	8.62
279.847	8.66
280.061	8.46
280.275	8.51
280.489	9.1
280.703	9.15
280.917	9.04
281.131	9.14
281.344	9.13
281.558	8.95
281.772	8.89
281.986	8.68
282.2	8.78
282.414	8.77
282.627	8.68
282.841	8.49
283.055	8.65
283.269	8.45
283.482	8.22
283.696	8.02
283.91	8.11
284.123	8.07
284.337	8
284.551	7.84
284.764	7.85
284.978	7.78
285.192	7.62
285.405	7.35
285.619	7.39
285.833	7.59
286.046	7.57
286.26	7.6
286.473	7.58
286.687	7.67
286.9	7.98
287.114	7.87
287.327	7.96
287.541	7.96
287.754	8.16
287.968	8.28
288.181	8.12
288.395	8.1
288.608	8.3
288.822	8.41
289.035	8.41
289.248	8.33
289.462	8.63
289.675	8.75
289.889	8.84
290.102	8.67
290.315	8.51
290.529	8.63
290.742	8.82
290.955	8.65
291.169	8.63
291.382	8.64
291.595	8.62
291.808	8.49
292.022	8.18
292.235	8.36
292.448	8.53
292.661	8.49
292.875	8.05
293.088	7.91
293.301	7.81
293.514	7.72
293.727	7.65
293.94	7.7
294.153	7.46
294.367	7.51
294.58	7.35
294.793	7.44
295.006	7.45
295.219	7.74
295.432	7.73
295.645	7.82
295.858	7.67
296.071	7.52
296.284	7.42
296.497	7.54
296.71	7.55
296.923	7.61
297.136	7.45
297.349	7.57
297.562	7.46
297.775	7.45
297.988	7.47
298.201	7.63
298.414	7.88
298.626	7.96
298.839	8
299.052	8.17
299.265	8.13
299.478	8.03
299.691	8.04
299.903	8.03
300.116	8
300.329	7.92
300.542	7.97
300.755	8.06
300.967	7.94
301.18	7.85
301.393	7.75
301.605	7.57
301.818	7.76
302.031	7.88
302.243	7.94
302.456	8.09
302.669	8.02
302.881	8.14
303.094	8.02
303.307	8.03
303.519	8.06
303.732	8.11
303.944	8.32
304.157	8.51
304.37	8.4
304.582	8.26
304.795	8.32
305.007	8.49
305.22	8.45
305.432	8.53
305.645	8.63
305.857	8.54
306.069	8.27
306.282	8.18
306.494	7.94
306.707	7.85
306.919	7.86
307.132	7.65
307.344	7.5
307.556	7.51
307.769	7.6
307.981	7.56
308.193	7.65
308.406	7.68
308.618	7.71
308.83	7.63
309.043	7.61
309.255	7.63
309.467	7.62
309.679	7.69
309.892	7.57
310.104	7.19
310.316	7.15
310.528	7.21
310.74	7.23
310.953	7.14
311.165	7.29
311.377	7.11
311.589	7.12
311.801	7.08
312.013	7.12
312.225	7.25
312.437	7.61
312.649	7.73
312.862	7.43
313.074	7.31
313.286	7.56
313.498	7.51
313.71	7.69
313.922	7.9
314.134	8.18
314.346	8.08
314.558	8.09
314.77	8.2
314.982	8.31
315.193	8.34
315.405	8.75
315.617	8.5
315.829	8.32
316.041	8.49
316.253	8.16
316.465	8.01
316.677	8.18
316.888	8.3
317.1	8.04
317.312	7.86
317.524	8.09
317.736	7.88
317.947	8.05
318.159	8.19
318.371	7.92
318.583	8
318.794	7.97
319.006	7.76
319.218	7.55
319.43	7.66
319.641	7.76
319.853	7.93
320.064	8.11
320.276	8.08
320.488	8.11
320.699	8.27
320.911	8.62
321.123	8.73
321.334	8.75
321.546	8.91
321.757	9.04
321.969	8.92
322.18	8.5
322.392	8.39
322.603	8.27
322.815	8.28
323.026	8.05
323.238	7.64
323.449	7.63
323.661	7.71
323.872	7.68
324.083	7.56
324.295	7.65
324.506	7.89
324.718	7.87
324.929	7.81
325.14	7.97
325.352	8.24
325.563	8.52
325.774	8.48
325.986	8.39
326.197	8.42
326.408	8.64
326.62	8.54
326.831	8.61
327.042	8.65
327.253	8.75
327.464	8.7
327.676	8.58
327.887	8.31
328.098	8.21
328.309	8.3
328.52	8.26
328.732	8
328.943	8.13
329.154	8.18
329.365	8.3
329.576	8.26
329.787	8.06
329.998	8.08
330.209	8.41
330.42	8.52
330.631	8.71
330.842	8.73
331.053	8.94
331.264	9.05
331.475	9
331.686	8.79
331.897	8.96
332.108	9.13
332.319	9.01
332.53	9.05
332.741	9.13
332.952	9.07
333.163	9.06
333.374	8.84
333.585	8.67
333.795	8.65
334.006	8.87
334.217	8.76
334.428	8.82
334.639	8.92
334.849	8.52
335.06	8.42
335.271	8.28
335.482	8.24
335.692	8.36
335.903	8.34
336.114	8.25
336.325	8.29
336.535	8.34
336.746	8.28
336.957	8.39
337.167	8.61
337.378	8.74
337.589	8.98
337.799	8.98
338.01	8.91
338.22	8.82
338.431	8.81
338.642	8.73
338.852	8.73
339.063	8.6
339.273	8.59
339.484	8.56
339.694	8.39
339.905	8.09
340.115	8.12
340.326	8.11
340.536	8.17
340.746	8.33
340.957	8.35
341.167	8.39
341.378	8.53
341.588	8.3
341.799	8.35
342.009	8.21
342.219	8.22
342.43	8.25
342.64	8.2
342.85	8.08
343.061	7.8
343.271	7.69
343.481	7.55
343.691	7.41
343.902	7.48
344.112	7.38
344.322	7.65
344.532	7.75
344.743	7.53
344.953	7.41
345.163	7.38
345.373	7.55
345.583	7.55
345.793	7.44
346.004	7.58
346.214	7.58
346.424	7.67
346.634	7.48
346.844	7.53
347.054	7.55
347.264	7.87
347.474	8.03
347.684	7.92
347.894	8.01
348.104	8.31
348.314	8.36
348.524	8.39
348.734	8.33
348.944	8.37
349.154	8.24
349.364	8.18
349.574	7.9
349.784	7.88
349.994	7.96
350.204	7.77
350.413	7.58
350.623	7.46
350.833	7.25
351.043	7.08
351.253	7.08
351.463	7.08
351.672	7.12
351.882	7.22
352.092	7.24
352.302	7.24
352.511	7.38
352.721	7.45
352.931	7.35
353.141	7.58
353.35	7.76
353.56	7.59
353.77	7.68
353.979	7.58
354.189	7.52
354.399	7.4
354.608	7.3
354.818	7.23
355.027	7.05
355.237	7.01
355.447	6.9
355.656	6.8
355.866	6.83
356.075	6.74
356.285	6.84
356.494	6.86
356.704	6.9
356.913	6.93
357.123	6.89
357.332	6.89
357.542	6.95
357.751	6.96
357.96	7.01
358.17	6.99
358.379	6.96
358.589	6.97
358.798	7.02
359.007	7.07
359.217	7.02
359.426	6.92
359.635	6.99
359.845	7.04
360.054	6.96
360.263	6.99
360.472	7
360.682	7.02
360.891	6.9
361.1	6.82
361.309	6.72
361.519	6.7
361.728	6.78
361.937	6.77
362.146	6.65
362.355	6.63
362.564	6.46
362.774	6.39
362.983	6.35
363.192	6.49
363.401	6.5
363.61	6.48
363.819	6.46
364.028	6.41
364.237	6.31
364.446	6.32
364.655	6.4
364.864	6.51
365.073	6.61
365.282	6.63
365.491	6.44
365.7	6.49
365.909	6.59
366.118	6.63
366.327	6.52
366.536	6.67
366.745	6.78
366.954	6.82
367.162	6.85
367.371	6.77
367.58	6.71
367.789	6.89
367.998	6.89
368.207	6.83
368.415	6.95
368.624	7.13
368.833	7.01
369.042	6.96
369.25	6.96
369.459	6.95
369.668	6.95
369.877	6.93
370.085	6.79
370.294	6.63
370.503	6.53
370.711	6.43
370.92	6.33
371.129	6.37
371.337	6.29
371.546	6.19
371.754	6.28
371.963	6.25
372.171	6.31
372.38	6.3
372.589	6.43
372.797	6.43
373.006	6.43
373.214	6.46
373.423	6.35
373.631	6.43
373.84	6.41
374.048	6.36
374.256	6.31
374.465	6.39
374.673	6.39
374.882	6.43
375.09	6.46
375.298	6.44
375.507	6.33
375.715	6.42
375.923	6.26
376.132	6.24
376.34	6.2
376.548	6.33
376.757	6.27
376.965	6.38
377.173	6.34
377.381	6.48
377.59	6.49
377.798	6.48
378.006	6.35
378.214	6.4
378.423	6.39
378.631	6.34
378.839	6.33
379.047	6.27
379.255	6.17
379.463	6.16
379.671	6.01
379.879	6.04
380.088	6.1
380.296	6.22
380.504	6.25
380.712	6.31
380.92	6.26
381.128	6.27
381.336	6.12
381.544	6.1
381.752	6.09
381.96	6.05
382.168	5.93
382.376	5.96
382.584	6.01
382.791	6.09
382.999	6.06
383.207	6.09
383.415	6.05
383.623	6.21
383.831	6.24
384.039	6.28
384.247	6.27
384.454	6.32
384.662	6.19
384.87	6.2
385.078	6.16
385.285	6.02
385.493	6.02
385.701	5.93
385.909	5.9
386.116	5.92
386.324	5.83
386.532	5.84
386.739	5.74
386.947	5.8
387.155	5.69
387.362	5.68
387.57	5.87
387.778	5.81
387.985	5.87
388.193	5.9
388.4	5.98
388.608	5.94
388.816	5.92
389.023	5.92
389.231	5.95
389.438	6.02
389.646	5.95
389.853	5.88
390.061	5.84
390.268	5.8
390.475	5.71
390.683	5.64
390.89	5.64
391.098	5.68
391.305	5.77
391.512	5.75
391.72	5.68
391.927	5.73
392.135	5.72
392.342	5.76
392.549	5.79
392.756	5.86
392.964	5.79
393.171	5.86
393.378	5.85
393.586	5.8
393.793	5.79
394	5.72
394.207	5.74
394.414	5.76
394.622	5.77
394.829	5.72
395.036	5.68
395.243	5.66
395.45	5.57
395.657	5.55
395.864	5.5
396.072	5.49
396.279	5.54
396.486	5.46
396.693	5.43
396.9	5.37
397.107	5.41
397.314	5.48
397.521	5.45
397.728	5.47
397.935	5.52
398.142	5.48
398.349	5.55
398.556	5.53
398.763	5.5
398.97	5.46
399.177	5.49
399.383	5.46
399.59	5.35
399.797	5.37
400.004	5.26
400.211	5.28
400.418	5.34
400.625	5.26
400.831	5.27
401.038	5.28
401.245	5.29
401.452	5.32
401.658	5.27
401.865	5.2
402.072	5.21
402.279	5.31
402.485	5.17
402.692	5.17
402.899	5.21
403.105	5.2
403.312	5.24
403.519	5.24
403.725	5.21
403.932	5.23
404.138	5.27
404.345	5.22
404.552	5.18
404.758	5.28
404.965	5.22
405.171	5.16
405.378	5.12
405.584	5.1
405.791	5.04
405.997	5.02
406.204	5.09
406.41	5.16
406.617	5.13
406.823	5.06
407.029	5.05
407.236	5.11
407.442	5.14
407.649	5.14
407.855	5.05
408.061	5.13
408.268	5.19
408.474	5.08
408.68	5.07
408.887	5.23
409.093	5.24
409.299	5.19
409.505	5.17
409.712	5.1
409.918	5.12
410.124	5.16
410.33	5.1
410.537	5.03
410.743	5.01
410.949	4.97
411.155	4.91
411.361	4.93
411.567	4.95
411.773	4.97
411.98	4.96
412.186	5.02
412.392	5.01
412.598	5.03
412.804	5.03
413.01	5.1
413.216	5.06
413.422	5.02
413.628	5.06
413.834	4.95
414.04	4.98
414.246	5.05
414.452	5
414.658	5.02
414.864	5.02
415.07	4.98
415.275	4.95
415.481	4.91
415.687	4.89
415.893	4.88
416.099	4.89
416.305	4.79
416.511	4.75
416.716	4.7
416.922	4.67
417.128	4.58
417.334	4.62
417.539	4.61
417.745	4.55
417.951	4.52
418.157	4.47
418.362	4.46
418.568	4.43
418.774	4.41
418.979	4.45
419.185	4.46
419.391	4.5
419.596	4.49
419.802	4.46
420.008	4.47
420.213	4.53
420.419	4.54
420.624	4.47
420.83	4.51
421.035	4.51
421.241	4.48
421.446	4.45
421.652	4.4
421.857	4.39
422.063	4.36
422.268	4.39
422.474	4.32
422.679	4.3
422.885	4.35
423.09	4.31
423.295	4.28
423.501	4.26
423.706	4.27
423.911	4.27
424.117	4.22
424.322	4.24
424.527	4.27
424.733	4.25
424.938	4.26
425.143	4.27
425.349	4.27
425.554	4.31
425.759	4.32
425.964	4.32
426.169	4.3
426.375	4.36
426.58	4.42
426.785	4.32
426.99	4.38
427.195	4.38
427.4	4.36
427.605	4.42
427.811	4.42
428.016	4.49
428.221	4.42
428.426	4.43
428.631	4.41
428.836	4.34
429.041	4.42
429.246	4.37
429.451	4.34
429.656	4.42
429.861	4.37
430.066	4.4
430.271	4.31
430.476	4.37
430.681	4.4
430.886	4.4
431.09	4.41
431.295	4.3
431.5	4.31
431.705	4.28
431.91	4.21
432.115	4.24
432.32	4.16
432.524	4.13
432.729	4.1
432.934	4.05
433.139	4.05
433.343	4.03
433.548	4.1
433.753	4.12
433.958	4.2
434.162	4.21
434.367	4.23
434.572	4.22
434.776	4.26
434.981	4.29
435.186	4.35
435.39	4.32
435.595	4.37
435.799	4.33
436.004	4.33
436.209	4.25
436.413	4.21
436.618	4.12
436.822	4.13
437.027	4.07
437.231	4.03
437.436	3.97
437.64	3.97
437.845	3.92
438.049	3.97
438.253	3.9
438.458	3.89
438.662	3.9
438.867	3.95
439.071	3.97
439.275	4.02
439.48	4.1
439.684	4.11
439.888	4.13
440.093	4.14
440.297	4.09
440.501	4.12
440.706	4.13
440.91	4.14
441.114	4.14
441.318	4.13
441.523	4.15
441.727	4.05
441.931	4.07
442.135	4.02
442.339	4.06
442.543	4.09
442.748	4.11
442.952	4.06
443.156	4.04
443.36	4.04
443.564	4.04
443.768	3.95
443.972	3.97
444.176	3.95
444.38	3.96
444.584	3.92
444.788	3.88
444.992	3.85
445.196	3.85
445.4	3.82
445.604	3.78
445.808	3.79
446.012	3.83
446.216	3.78
446.42	3.75
446.624	3.75
446.828	3.74
447.032	3.72
447.235	3.72
447.439	3.76
447.643	3.8
447.847	3.87
448.051	3.87
448.254	3.84
448.458	3.92
448.662	3.98
448.866	3.96
449.069	3.94
449.273	4.05
449.477	4.05
449.681	4.04
449.884	3.97
450.088	3.94
450.292	3.9
450.495	3.88
450.699	3.9
450.902	3.88
451.106	3.89
451.31	3.92
451.513	3.84
451.717	3.85
451.92	3.86
452.124	3.88
452.327	3.89
452.531	3.91
452.734	3.91
452.938	3.84
453.141	3.86
453.345	3.88
453.548	3.87
453.752	3.9
453.955	3.91
454.158	3.89
454.362	3.91
454.565	3.93
454.769	3.98
454.972	4.03
455.175	4.09
455.379	4.07
455.582	4.05
455.785	4
455.988	3.98
456.192	3.93
456.395	3.91
456.598	3.93
456.801	3.87
457.005	3.78
457.208	3.77
457.411	3.75
457.614	3.71
457.817	3.7
458.021	3.73
458.224	3.72
458.427	3.73
458.63	3.7
458.833	3.68
459.036	3.65
459.239	3.69
459.442	3.68
459.645	3.66
459.848	3.71
460.051	3.72
460.254	3.73
460.457	3.72
460.66	3.75
460.863	3.79
461.066	3.79
461.269	3.82
461.472	3.84
461.675	3.85
461.878	3.89
462.081	3.84
462.284	3.84
462.486	3.81
462.689	3.85
462.892	3.81
463.095	3.81
463.298	3.81
463.5	3.79
463.703	3.75
463.906	3.77
464.109	3.78
464.311	3.77
464.514	3.81
464.717	3.87
464.92	3.89
465.122	3.9
465.325	3.91
465.528	3.93
465.73	3.99
465.933	3.99
466.135	3.9
466.338	3.92
466.541	3.95
466.743	3.9
466.946	3.85
467.148	3.85
467.351	3.87
467.553	3.86
467.756	3.86
467.958	3.82
468.161	3.81
468.363	3.84
468.566	3.79
468.768	3.75
468.971	3.83
469.173	3.86
469.375	3.84
469.578	3.72
469.78	3.75
469.983	3.76
470.185	3.78
470.387	3.79
470.59	3.84
470.792	3.88
470.994	3.89
471.196	3.82
471.399	3.79
471.601	3.78
471.803	3.84
472.005	3.8
472.208	3.81
472.41	3.77
472.612	3.75
472.814	3.78
473.016	3.75
473.218	3.76
473.421	3.75
473.623	3.78
473.825	3.83
474.027	3.88
474.229	3.87
474.431	3.85
474.633	3.89
474.835	3.92
475.037	3.89
475.239	3.9
475.441	3.91
475.643	3.97
475.845	3.93
476.047	3.88
476.249	3.88
476.451	3.87
476.653	3.84
476.855	3.83
477.057	3.77
477.258	3.76
477.46	3.76
477.662	3.74
477.864	3.72
478.066	3.71
478.268	3.75
478.469	3.7
478.671	3.72
478.873	3.77
479.075	3.76
479.276	3.76
479.478	3.78
479.68	3.74
479.882	3.75
480.083	3.75
480.285	3.74
480.487	3.71
480.688	3.7
480.89	3.71
481.091	3.66
481.293	3.66
481.495	3.67
481.696	3.64
481.898	3.63
482.099	3.58
482.301	3.55
482.502	3.53
482.704	3.5
482.905	3.5
483.107	3.47
483.308	3.47
483.51	3.46
483.711	3.47
483.913	3.47
484.114	3.46
484.315	3.48
484.517	3.51
484.718	3.53
484.92	3.57
485.121	3.58
485.322	3.59
485.524	3.61
485.725	3.59
485.926	3.58
486.127	3.57
486.329	3.57
486.53	3.57
486.731	3.54
486.932	3.53
487.134	3.51
487.335	3.51
487.536	3.51
487.737	3.52
487.938	3.55
488.139	3.55
488.341	3.55
488.542	3.57
488.743	3.58
488.944	3.61
489.145	3.61
489.346	3.65
489.547	3.67
489.748	3.66
489.949	3.65
490.15	3.65
490.351	3.63
490.552	3.65
490.753	3.63
490.954	3.62
491.155	3.6
491.356	3.61
491.557	3.61
491.758	3.6
491.959	3.64
492.159	3.67
492.36	3.66
492.561	3.68
492.762	3.69
492.963	3.71
493.164	3.72
493.364	3.78
493.565	3.83
493.766	3.83
493.967	3.84
494.167	3.83
494.368	3.82
494.569	3.83
494.769	3.83
494.97	3.83
495.171	3.86
495.371	3.85
495.572	3.81
495.773	3.79
495.973	3.77
496.174	3.76
496.375	3.79
496.575	3.78
496.776	3.82
496.976	3.81
497.177	3.8
497.377	3.81
497.578	3.83
497.778	3.85
497.979	3.89
498.179	3.93
498.38	3.99
498.58	4.03
498.78	4.05
498.981	4.08
499.181	4.11
499.382	4.13
499.582	4.13
499.782	4.16
499.983	4.2
500.183	4.15
500.383	4.15
500.584	4.13
500.784	4.07
500.984	4.08
501.184	4.05
501.385	4.08
501.585	4.09
501.785	4.1
501.985	4.15
502.185	4.18
502.386	4.22
502.586	4.24
502.786	4.26
502.986	4.3
503.186	4.33
503.386	4.37
503.586	4.39
503.786	4.42
503.987	4.43
504.187	4.41
504.387	4.38
504.587	4.36
504.787	4.36
504.987	4.35
505.187	4.35
505.387	4.3
505.587	4.33
505.786	4.34
505.986	4.31
506.186	4.33
506.386	4.37
506.586	4.39
506.786	4.41
506.986	4.41
507.186	4.4
507.386	4.41
507.585	4.41
507.785	4.41
507.985	4.41
508.185	4.46
508.384	4.46
508.584	4.41
508.784	4.42
508.984	4.45
509.183	4.46
509.383	4.47
509.583	4.47
509.782	4.51
509.982	4.5
510.182	4.49
510.381	4.48
510.581	4.5
510.781	4.53
510.98	4.58
511.18	4.58
511.379	4.57
511.579	4.6
511.778	4.65
511.978	4.67
512.177	4.68
512.377	4.73
512.576	4.76
512.776	4.79
512.975	4.82
513.175	4.79
513.374	4.84
513.573	4.9
513.773	4.95
513.972	4.94
514.172	5
514.371	5.04
514.57	5.09
514.77	5.12
514.969	5.11
515.168	5.14
515.367	5.15
515.567	5.13
515.766	5.13
515.965	5.14
516.164	5.15
516.364	5.13
516.563	5.09
516.762	5.06
516.961	5.07
517.16	5.11
517.359	5.09
517.559	5.08
517.758	5.11
517.957	5.13
518.156	5.15
518.355	5.16
518.554	5.19
518.753	5.25
518.952	5.25
519.151	5.26
519.35	5.28
519.549	5.32
519.748	5.37
519.947	5.39
520.146	5.4
520.345	5.38
520.544	5.44
520.743	5.42
520.942	5.4
521.141	5.43
521.339	5.47
521.538	5.49
521.737	5.48
521.936	5.51
522.135	5.5
522.333	5.5
522.532	5.55
522.731	5.5
522.93	5.52
523.129	5.55
523.327	5.59
523.526	5.61
523.725	5.61
523.923	5.61
524.122	5.64
524.321	5.64
524.519	5.67
524.718	5.67
524.917	5.71
525.115	5.75
525.314	5.79
525.512	5.8
525.711	5.81
525.909	5.84
526.108	5.85
526.306	5.85
526.505	5.89
526.703	5.89
526.902	5.92
527.1	5.92
527.299	5.92
527.497	5.92
527.696	5.92
527.894	5.91
528.092	5.89
528.291	5.91
528.489	5.91
528.688	5.93
528.886	5.93
529.084	5.95
529.283	5.99
529.481	6.02
529.679	6.04
529.877	6.09
530.076	6.17
530.274	6.24
530.472	6.29
530.67	6.34
530.869	6.34
531.067	6.39
531.265	6.39
531.463	6.41
531.661	6.41
531.859	6.46
532.057	6.46
532.255	6.43
532.454	6.41
532.652	6.43
532.85	6.45
533.048	6.48
533.246	6.51
533.444	6.56
533.642	6.59
533.84	6.64
534.038	6.67
534.236	6.7
534.434	6.76
534.632	6.82
534.83	6.83
535.027	6.88
535.225	6.9
535.423	6.93
535.621	6.94
535.819	6.92
536.017	6.92
536.215	6.91
536.412	6.91
536.61	6.96
536.808	6.98
537.006	7
537.203	7.04
537.401	7.07
537.599	7.11
537.797	7.14
537.994	7.19
538.192	7.22
538.39	7.27
538.587	7.29
538.785	7.32
538.983	7.33
539.18	7.39
539.378	7.38
539.575	7.41
539.773	7.42
539.97	7.41
540.168	7.45
540.366	7.46
540.563	7.49
540.761	7.54
540.958	7.55
541.155	7.54
541.353	7.55
541.55	7.59
541.748	7.62
541.945	7.64
542.143	7.68
542.34	7.72
542.537	7.74
542.735	7.77
542.932	7.8
543.129	7.84
543.327	7.9
543.524	7.98
543.721	8.01
543.919	8.07
544.116	8.14
544.313	8.23
544.51	8.27
544.708	8.35
544.905	8.39
545.102	8.44
545.299	8.45
545.496	8.53
545.693	8.54
545.891	8.59
546.088	8.63
546.285	8.67
546.482	8.66
546.679	8.69
546.876	8.72
547.073	8.75
547.27	8.78
547.467	8.84
547.664	8.87
547.861	8.9
548.058	8.94
548.255	8.96
548.452	8.99
548.649	9.07
548.846	9.13
549.043	9.19
549.24	9.22
549.437	9.26
549.633	9.3
549.83	9.35
550.027	9.43
550.224	9.45
550.421	9.45
550.618	9.45
550.814	9.5
551.011	9.52
551.208	9.53
551.405	9.57
551.601	9.62
551.798	9.64
551.995	9.64
552.191	9.66
552.388	9.72
552.585	9.8
552.781	9.81
552.978	9.89
553.175	9.96
553.371	10.04
553.568	10.07
553.764	10.14
553.961	10.18
554.157	10.29
554.354	10.31
554.55	10.31
554.747	10.35
554.943	10.45
555.14	10.43
555.336	10.4
555.533	10.4
555.729	10.46
555.926	10.47
556.122	10.52
556.318	10.52
556.515	10.55
556.711	10.58
556.907	10.6
557.104	10.63
557.3	10.68
557.496	10.79
557.693	10.81
557.889	10.88
558.085	10.91
558.281	10.98
558.478	11
558.674	11.03
558.87	11.05
559.066	11.08
559.262	11.09
559.459	11.13
559.655	11.1
559.851	11.14
560.047	11.22
560.243	11.24
560.439	11.23
560.635	11.3
560.831	11.35
561.027	11.42
561.223	11.42
561.419	11.46
561.615	11.46
561.811	11.49
562.007	11.55
562.203	11.5
562.399	11.54
562.595	11.58
562.791	11.64
562.987	11.69
563.183	11.73
563.379	11.77
563.575	11.79
563.771	11.79
563.966	11.84
564.162	11.89
564.358	11.94
564.554	11.98
564.75	11.92
564.945	11.9
565.141	11.94
565.337	11.95
565.533	12.02
565.728	12.04
565.924	12.15
566.12	12.17
566.315	12.2
566.511	12.21
566.707	12.24
566.902	12.36
567.098	12.41
567.293	12.42
567.489	12.47
567.684	12.51
567.88	12.58
568.076	12.61
568.271	12.69
568.467	12.68
568.662	12.71
568.858	12.79
569.053	12.76
569.248	12.76
569.444	12.77
569.639	12.81
569.835	12.79
570.03	12.8
570.225	12.77
570.421	12.81
570.616	12.85
570.812	12.89
571.007	12.85
571.202	12.94
571.397	12.95
571.593	12.98
571.788	12.97
571.983	12.99
572.178	13
572.374	13.09
572.569	13.06
572.764	13.03
572.959	13.01
573.154	12.98
573.35	12.97
573.545	13.02
573.74	13
573.935	13.04
574.13	13.06
574.325	13.04
574.52	13.06
574.715	13.09
574.91	13.1
575.105	13.18
575.3	13.25
575.495	13.3
575.69	13.33
575.885	13.41
576.08	13.43
576.275	13.47
576.47	13.56
576.665	13.5
576.86	13.51
577.055	13.58
577.25	13.57
577.444	13.64
577.639	13.73
577.834	13.72
578.029	13.81
578.224	13.84
578.418	13.92
578.613	13.87
578.808	13.9
579.003	13.89
579.197	13.94
579.392	13.92
579.587	13.93
579.781	13.78
579.976	13.81
580.171	13.73
580.365	13.72
580.56	13.68
580.755	13.72
580.949	13.75
581.144	13.79
581.338	13.74
581.533	13.83
581.727	13.83
581.922	13.89
582.116	13.87
582.311	13.9
582.505	13.94
582.7	13.97
582.894	14.05
583.089	14.05
583.283	14.05
583.478	14.1
583.672	14.07
583.866	14.07
584.061	14.09
584.255	14.15
584.449	14.13
584.644	14.11
584.838	14.15
585.032	14.15
585.226	14.17
585.421	14.27
585.615	14.31
585.809	14.36
586.003	14.35
586.198	14.38
586.392	14.42
586.586	14.47
586.78	14.48
586.974	14.44
587.168	14.41
587.363	14.39
587.557	14.33
587.751	14.28
587.945	14.26
588.139	14.38
588.333	14.39
588.527	14.38
588.721	14.41
588.915	14.47
589.109	14.46
589.303	14.49
589.497	14.5
589.691	14.5
589.885	14.59
590.079	14.62
590.273	14.5
590.466	14.46
590.66	14.45
590.854	14.41
591.048	14.4
591.242	14.41
591.436	14.43
591.629	14.49
591.823	14.56
592.017	14.55
592.211	14.53
592.404	14.59
592.598	14.58
592.792	14.56
592.986	14.52
593.179	14.53
593.373	14.53
593.567	14.49
593.76	14.52
593.954	14.52
594.147	14.52
594.341	14.5
594.535	14.46
594.728	14.5
594.922	14.5
595.115	14.58
595.309	14.54
595.502	14.61
595.696	14.64
595.889	14.61
596.083	14.58
596.276	14.57
596.47	14.6
596.663	14.62
596.856	14.63
597.05	14.64
597.243	14.59
597.437	14.66
597.63	14.61
597.823	14.65
598.017	14.65
598.21	14.69
598.403	14.72
598.596	14.75
598.79	14.78
598.983	14.78
599.176	14.84
599.369	14.86
599.563	14.86
599.756	14.91
599.949	14.94
600.142	14.93
600.335	14.85
600.528	14.83
600.722	14.84
600.915	14.93
601.108	14.9
601.301	14.9
601.494	14.91
601.687	14.87
601.88	14.91
602.073	14.78
602.266	14.74
602.459	14.8
602.652	14.8
602.845	14.83
603.038	14.74
603.231	14.79
603.424	14.81
603.617	14.81
603.809	14.81
604.002	14.75
604.195	14.89
604.388	14.92
604.581	14.95
604.774	14.94
604.966	14.85
605.159	14.86
605.352	14.89
605.545	14.89
605.737	14.9
605.93	15.02
606.123	15.07
606.316	15.01
606.508	15.1
606.701	15.15
606.894	15.15
607.086	15.23
607.279	15.22
607.471	15.21
607.664	15.21
607.857	15.23
608.049	15.22
608.242	15.27
608.434	15.27
608.627	15.25
608.819	15.27
609.012	15.34
609.204	15.38
609.397	15.51
609.589	15.53
609.782	15.63
609.974	15.68
610.166	15.72
610.359	15.81
610.551	15.86
610.743	15.88
610.936	15.9
611.128	15.89
611.32	15.94
611.513	15.87
611.705	15.89
611.897	15.83
612.09	15.83
612.282	15.72
612.474	15.65
612.666	15.66
612.858	15.7
613.051	15.65
613.243	15.66
613.435	15.69
613.627	15.73
613.819	15.77
614.011	15.89
614.203	15.85
614.395	15.89
614.588	15.82
614.78	15.79
614.972	15.76
615.164	15.75
615.356	15.75
615.548	15.69
615.74	15.73
615.932	15.67
616.124	15.5
616.315	15.56
616.507	15.63
616.699	15.63
616.891	15.63
617.083	15.66
617.275	15.7
617.467	15.68
617.659	15.71
617.85	15.62
618.042	15.64
618.234	15.72
618.426	15.65
618.618	15.64
618.809	15.65
619.001	15.68
619.193	15.69
619.384	15.73
619.576	15.77
619.768	15.8
619.959	15.86
620.151	15.91
620.343	15.94
620.534	15.96
620.726	15.94
620.917	15.97
621.109	15.9
621.301	15.89
621.492	15.83
621.684	15.89
621.875	15.85
622.067	15.82
622.258	15.76
622.45	15.77
622.641	15.75
622.832	15.73
623.024	15.68
623.215	15.78
623.407	15.74
623.598	15.74
623.789	15.75
623.981	15.69
624.172	15.78
624.363	15.75
624.555	15.78
624.746	15.8
624.937	15.85
625.129	15.88
625.32	15.85
625.511	15.81
625.702	15.81
625.893	15.75
626.085	15.82
626.276	15.74
626.467	15.76
626.658	15.69
626.849	15.73
627.04	15.67
627.231	15.7
627.422	15.72
627.614	15.75
627.805	15.75
627.996	15.75
628.187	15.74
628.378	15.75
628.569	15.78
628.76	15.86
628.951	15.89
629.142	15.89
629.332	15.89
629.523	15.94
629.714	15.95
629.905	16.03
630.096	16.04
630.287	16.08
630.478	16.13
630.669	16.2
630.859	16.16
631.05	16.1
631.241	16.15
631.432	16.11
631.623	16.06
631.813	16.05
632.004	16.03
632.195	16
632.385	15.94
632.576	15.98
632.767	15.89
632.957	15.82
633.148	15.91
633.339	15.87
633.529	15.87
633.72	15.85
633.91	15.89
634.101	15.78
634.292	15.8
634.482	15.83
634.673	15.82
634.863	15.88
635.054	16
635.244	15.88
635.435	15.9
635.625	15.9
635.815	15.9
636.006	15.87
636.196	16.02
636.387	16.06
636.577	16.02
636.767	15.96
636.958	16
637.148	15.95
637.338	15.97
637.529	15.96
637.719	16.06
637.909	16.09
638.099	16.06
638.29	16.01
638.48	15.99
638.67	16.06
638.86	16.09
639.05	16.06
639.241	16.06
639.431	16.09
639.621	16.09
639.811	16.05
640.001	16.07
640.191	16.13
640.381	16.1
640.571	16.1
640.761	16.09
640.951	16.07
641.141	16.08
641.331	16.06
641.521	16.1
641.711	16.11
641.901	16.06
642.091	16.11
642.281	16.08
642.471	16.13
642.661	16.25
642.851	16.42
643.041	16.39
643.231	16.32
643.42	16.35
643.61	16.34
643.8	16.37
643.99	16.4
644.18	16.31
644.369	16.38
644.559	16.38
644.749	16.32
644.939	16.12
645.128	16.21
645.318	16.18
645.508	16.13
645.697	16.21
645.887	16.2
646.076	16.26
646.266	16.27
646.456	16.24
646.645	16.28
646.835	16.24
647.024	16.23
647.214	16.23
647.403	16.31
647.593	16.32
647.782	16.31
647.972	16.35
648.161	16.3
648.351	16.4
648.54	16.46
648.73	16.44
648.919	16.42
649.108	16.49
649.298	16.47
649.487	16.45
649.677	16.44
649.866	16.41
650.055	16.37
650.244	16.41
650.434	16.39
650.623	16.32
650.812	16.38
651.002	16.39
651.191	16.39
651.38	16.42
651.569	16.38
651.758	16.34
651.947	16.45
652.137	16.47
652.326	16.48
652.515	16.47
652.704	16.46
652.893	16.39
653.082	16.38
653.271	16.4
653.46	16.32
653.649	16.41
653.838	16.6
654.027	16.47
654.216	16.49
654.405	16.47
654.594	16.44
654.783	16.54
654.972	16.55
655.161	16.55
655.35	16.53
655.539	16.57
655.728	16.58
655.916	16.5
656.105	16.51
656.294	16.48
656.483	16.52
656.672	16.53
656.86	16.44
657.049	16.42
657.238	16.4
657.427	16.41
657.615	16.5
657.804	16.48
657.993	16.45
658.181	16.43
658.37	16.44
658.559	16.39
658.747	16.39
658.936	16.42
659.125	16.47
659.313	16.52
659.502	16.52
659.69	16.45
659.879	16.45
660.067	16.5
660.256	16.47
660.444	16.44
660.633	16.49
660.821	16.56
661.01	16.6
661.198	16.68
661.387	16.73
661.575	16.79
661.763	16.84
661.952	16.86
662.14	16.85
662.328	16.9
662.517	16.91
662.705	16.87
662.893	16.86
663.082	16.93
663.27	16.83
663.458	16.79
663.646	16.83
663.834	16.75
664.023	16.72
664.211	16.84
664.399	16.8
664.587	16.76
664.775	16.68
664.963	16.64
665.152	16.6
665.34	16.68
665.528	16.55
665.716	16.52
665.904	16.61
666.092	16.61
666.28	16.51
666.468	16.61
666.656	16.74
666.844	16.93
667.032	16.9
667.22	16.94
667.408	16.92
667.596	17.12
667.784	17.11
667.971	17.08
668.159	17.12
668.347	17.13
668.535	17.13
668.723	17.01
668.911	16.9
669.098	16.92
669.286	16.88
669.474	16.76
669.662	16.61
669.849	16.65
670.037	16.64
670.225	16.57
670.413	16.57
670.6	16.49
670.788	16.54
670.976	16.64
671.163	16.69
671.351	16.7
671.538	16.72
671.726	16.81
671.913	16.76
672.101	16.72
672.289	16.78
672.476	16.75
672.664	16.87
672.851	16.93
673.039	16.83
673.226	16.82
673.413	16.72
673.601	16.76
673.788	16.69
673.976	16.75
674.163	16.79
674.35	16.81
674.538	16.79
674.725	16.66
674.912	16.55
675.1	16.58
675.287	16.58
675.474	16.66
675.662	16.78
675.849	16.93
676.036	16.86
676.223	16.84
676.411	16.82
676.598	16.88
676.785	17.04
676.972	17.2
677.159	17.22
677.346	17.19
677.533	17.22
677.721	17.13
677.908	17.09
678.095	17.04
678.282	17.07
678.469	17.08
678.656	17.17
678.843	17.15
679.03	17.11
679.217	17.24
679.404	17.23
679.591	17.16
679.778	17.24
679.964	17.24
680.151	17.32
680.338	17.37
680.525	17.28
680.712	17.24
680.899	17.14
681.086	17.19
681.272	17.06
681.459	17.11
681.646	17.18
681.833	17.11
682.02	17.09
682.206	17.11
682.393	17.09
682.58	17.25
682.766	17.22
682.953	17.46
683.14	17.36
683.326	17.47
683.513	17.49
683.7	17.57
683.886	17.49
684.073	17.43
684.259	17.36
684.446	17.43
684.632	17.44
684.819	17.43
685.005	17.2
685.192	17.24
685.378	17.14
685.565	17.12
685.751	16.98
685.938	16.96
686.124	17.08
686.31	17.14
686.497	16.96
686.683	16.92
686.87	16.97
687.056	16.97
687.242	16.95
687.429	16.99
687.615	16.97
687.801	17.09
687.987	17.29
688.174	17.15
688.36	17.14
688.546	17.21
688.732	17.25
688.918	17.14
689.105	17.31
689.291	17.35
689.477	17.42
689.663	17.48
689.849	17.4
690.035	17.31
690.221	17.42
690.407	17.55
690.593	17.64
690.779	17.63
690.965	17.7
691.151	17.69
691.337	17.65
691.523	17.7
691.709	17.82
691.895	17.8
692.081	17.9
692.267	17.97
692.453	17.95
692.639	17.98
692.825	17.89
693.011	17.84
693.196	17.76
693.382	17.83
693.568	17.59
693.754	17.41
693.94	17.36
694.125	17.19
694.311	17.21
694.497	17.15
694.682	16.96
694.868	17.07
695.054	17.2
695.239	17.16
695.425	17.14
695.611	17.28
695.796	17.22
695.982	17.18
696.168	17.35
696.353	17.25
696.539	17.24
696.724	17.23
696.91	17.28
697.095	17.2
697.281	17.28
697.466	17.27
697.652	17.19
697.837	17.3
698.023	17.43
698.208	17.37
698.393	17.43
698.579	17.39
698.764	17.37
698.949	17.27
699.135	17.33
699.32	17.25
699.505	17.27
699.691	17.38
699.876	17.32
700.061	17.34
700.246	17.38
700.432	17.29
700.617	17.16
700.802	17.24
700.987	17.4
701.172	17.35
701.358	17.39
701.543	17.56
701.728	17.54
701.913	17.64
702.098	17.65
702.283	17.66
702.468	17.7
702.653	17.98
702.838	18.15
703.023	18.05
703.208	18.04
703.393	18.06
703.578	18.02
703.763	18.06
703.948	18.03
704.133	17.96
704.318	17.94
704.503	18.06
704.688	18.11
704.873	17.77
705.057	17.81
705.242	17.89
705.427	17.91
705.612	17.9
705.797	17.97
705.981	17.99
706.166	18.16
706.351	18.01
706.536	17.97
706.72	17.99
706.905	18.37
707.09	18.34
707.274	18.36
707.459	18.27
707.644	18.28
707.828	18.14
708.013	18.06
708.197	18.01
708.382	18.17
708.567	18.07
708.751	18
708.936	17.81
709.12	17.74
709.305	17.66
709.489	17.56
709.673	17.45
709.858	17.43
710.042	17.49
710.227	17.38
710.411	17.53
710.596	17.64
710.78	17.58
710.964	17.63
711.149	17.79
711.333	17.77
711.517	17.8
711.702	17.98
711.886	18.02
712.07	18.01
712.254	18.21
712.438	17.99
712.623	17.95
712.807	18.02
712.991	18.09
713.175	17.99
713.359	18.1
713.544	18.16
713.728	18.06
713.912	18.16
714.096	18.13
714.28	18.01
714.464	18.13
714.648	18.13
714.832	18.06
715.016	18.16
715.2	18.1
715.384	18.12
715.568	18.28
715.752	18.14
715.936	18.15
716.12	18.28
716.304	18.36
716.488	18.24
716.671	18.32
716.855	18.41
717.039	18.19
717.223	18.31
717.407	18.22
717.59	18.2
717.774	18.19
717.958	18.13
718.142	18.06
718.325	17.96
718.509	18.13
718.693	18.04
718.877	17.95
719.06	18.09
719.244	18.12
719.428	18.15
719.611	17.98
719.795	18.17
719.978	18.29
720.162	18.34
720.345	18.27
720.529	18.27
720.713	18.46
720.896	18.57
721.08	18.42
721.263	18.49
721.446	18.59
721.63	18.62
721.813	18.62
721.997	18.6
722.18	18.58
722.364	18.49
722.547	18.4
722.73	18.33
722.914	18.19
723.097	18.2
723.28	18.29
723.464	18.2
723.647	18.39
723.83	18.38
724.013	18.26
724.197	18.29
724.38	18.58
724.563	18.67
724.746	18.59
724.929	18.81
725.112	18.95
725.296	18.86
725.479	18.91
725.662	18.77
725.845	18.83
726.028	18.74
726.211	18.51
726.394	18.36
726.577	18.14
726.76	18.04
726.943	18.01
727.126	18.05
727.309	18.05
727.492	18.07
727.675	18.14
727.858	17.91
728.041	18.18
728.224	18.53
728.407	18.53
728.589	18.69
728.772	18.73
728.955	18.71
729.138	18.58
729.321	18.4
729.503	18.6
729.686	18.47
729.869	18.7
730.052	18.53
730.234	18.34
730.417	18.41
730.6	18.23
730.782	18.41
730.965	18.39
731.148	18.44
731.33	18.54
731.513	18.45
731.695	18.54
731.878	18.45
732.061	18.25
732.243	18.28
732.426	18.06
732.608	18.33
732.791	18.21
732.973	18.23
733.156	18.3
733.338	18.18
733.52	17.97
733.703	17.95
733.885	18.09
734.068	18.21
734.25	18.41
734.432	18.41
734.615	18.23
734.797	18
734.979	17.86
735.162	17.7
735.344	17.82
735.526	18.09
735.708	18.13
735.891	18.06
736.073	18.16
736.255	17.91
736.437	18.24
736.619	18.45
736.802	18.77
736.984	18.65
737.166	18.84
737.348	18.97
737.53	18.83
737.712	18.8
737.894	18.74
738.076	18.69
738.258	18.6
738.44	18.55
738.622	18.37
738.804	18.39
738.986	18.74
739.168	18.51
739.35	18.4
739.532	18.35
739.714	18.64
739.896	18.56
740.078	18.64
740.259	18.78
740.441	18.75
740.623	18.8
740.805	18.85
740.987	18.7
741.168	18.73
741.35	18.91
741.532	18.78
741.714	18.44
741.895	18.56
742.077	18.49
742.259	18.48
742.44	18.29
742.622	18.37
742.804	18.18
742.985	18.27
743.167	18.34
743.348	18.04
743.53	18.21
743.711	18.44
743.893	18.64
744.075	18.53
744.256	18.74
744.438	18.85
744.619	18.77
744.8	18.89
744.982	18.83
745.163	18.65
745.345	18.89
745.526	19.19
745.707	19.24
745.889	18.93
746.07	19.06
746.252	19.02
746.433	19.22
746.614	19.29
746.795	19.17
746.977	19.27
747.158	19.52
747.339	19.56
747.52	19.39
747.702	18.99
747.883	19.22
748.064	19.36
748.245	19.08
748.426	19.14
748.607	19.2
748.788	19.26
748.97	19.19
749.151	19.05
749.332	18.91
749.513	19.02
749.694	19.57
749.875	19.45
750.056	19.42
750.237	19.46
750.418	19.36
750.599	19.32
750.78	19.64
750.96	19.69
751.141	19.86
751.322	19.78
751.503	19.73
751.684	19.58
751.865	19.44
752.046	19.33
752.226	19.56
752.407	19.73
752.588	19.55
752.769	19.29
752.949	19.27
753.13	19.27
753.311	19.13
753.492	18.72
753.672	18.94
753.853	19.36
754.034	19.26
754.214	19.13
754.395	18.52
754.575	18.9
754.756	18.65
754.937	18.63
755.117	18.6
755.298	18.82
755.478	18.83
755.659	18.59
755.839	18.33
756.02	18.5
756.2	18.51
756.381	18.61
756.561	18.57
756.741	18.85
756.922	19.02
757.102	18.94
757.283	19.11
757.463	19.3
757.643	19.4
757.823	19.43
758.004	19.19
758.184	19.15
758.364	19.86
758.545	19.6
758.725	19.68
758.905	19.59
759.085	19.9
759.265	19.76
759.446	19.79
759.626	19.84
759.806	19.59
759.986	19.74
760.166	19.93
760.346	19.71
760.526	19.71
760.706	19.71
760.886	19.68
761.066	19.41
761.246	19.36
761.426	19.48
761.606	19.31
761.786	19.42
761.966	19.38
762.146	19.31
762.326	19.29
762.506	19.33
762.686	19.2
762.866	19.23
763.046	19.28
763.225	19.29
763.405	19.17
763.585	19.18
763.765	19.22
763.945	19.23
764.124	19.04
764.304	19.23
764.484	19.22
764.664	19.23
764.843	19.23
765.023	19.21
765.203	19.41
765.382	19.29
765.562	19.34
765.741	19.37
765.921	19.4
766.101	19.56
766.28	19.22
766.46	19.42
766.639	19.77
766.819	19.69
766.998	19.87
767.178	19.58
767.357	19.89
767.537	19.79
767.716	20.03
767.896	19.96
768.075	20.01
768.254	19.68
768.434	19.69
768.613	19.6
768.792	19.66
768.972	19.7
769.151	19.6
769.33	19.26
769.51	19.62
769.689	19.62
769.868	20.09
770.047	20.41
770.226	20.57
770.406	20.56
770.585	20.23
770.764	20.26
770.943	20.27
771.122	20.59
771.301	21.42
771.48	21.3
771.66	21.44
771.839	21.09
772.018	20.86
772.197	20.85
772.376	20.85
772.555	21.21
772.734	21.23
772.913	21.28
773.092	21.06
773.271	20.25
773.449	19.94
773.628	19.62
773.807	19.43
773.986	19.61
774.165	19.62
774.344	19.34
774.523	19.27
774.701	19.42
774.88	19.22
775.059	19.28
775.238	19.69
775.417	19.93
775.595	19.72
775.774	19.91
775.953	19.66
776.131	19.93
776.31	19.92
776.489	19.33
776.667	19
776.846	18.81
777.025	18.7
777.203	18.23
777.382	18.02
777.56	17.97
777.739	17.76
777.917	17.83
778.096	17.67
778.274	18.18
778.453	18.67
778.631	18.76
778.81	18.81
778.988	19.16
779.166	19.26
779.345	19.45
779.523	19.72
779.702	20.3
779.88	20.44
780.058	20.37
780.237	20.23
780.415	20.4
780.593	20.28
780.771	20.39
780.95	20.67
781.128	21.18
781.306	21.39
781.484	21.77
781.662	21.13
781.841	21.23
782.019	21.27
782.197	21.45
782.375	21.38
782.553	21.64
782.731	21.67
782.909	21.5
783.087	21.87
783.265	21.87
783.443	21.27
783.621	21.89
783.799	22.01
783.977	22.3
784.155	21.85
784.333	22.26
784.511	22.06
784.689	22.19
784.867	22.04
785.045	21.57
785.223	21.2
785.4	21.38
785.578	20.83
785.756	20.22
785.934	19.99
786.112	20.05
786.289	20.02
786.467	20.02
786.645	19.79
786.823	19.77
787	19.8
787.178	19.6
787.356	19.46
787.533	19.64
787.711	19.67
787.889	19.81
788.066	19.75
788.244	19.49
788.421	19.99
788.599	20.07
788.776	20.04
788.954	19.95
789.131	20.31
789.309	20.64
789.486	21.27
789.664	21.65
789.841	21.72
790.019	21.8
790.196	22.21
790.373	21.87
790.551	22.36
790.728	22.24
790.906	22.56
791.083	21.86
791.26	21.49
791.437	21.04
791.615	20.87
791.792	20.69
791.969	20.32
792.146	19.61
792.324	19.6
792.501	19.66
792.678	19.82
792.855	18.96
793.032	19.72
793.209	20.06
793.387	19.5
793.564	20.03
793.741	20.3
793.918	20.89
794.095	21.17
794.272	20.97
794.449	20.57
794.626	21
794.803	21.46
794.98	21.16
795.157	21.21
795.334	21.59
795.511	21.58
795.688	21.26
795.864	21.33
796.041	21.3
796.218	21.51
796.395	21.82
796.572	21.32
796.749	21.32
796.925	21.26
797.102	21.08
797.279	21.41
797.456	20.73
797.632	21.07
797.809	20.99
797.986	20.91
798.162	21.17
798.339	20.52
798.516	21.19
798.692	21.36
798.869	21.07
799.046	20.61
799.222	20.77
799.399	20.61
799.575	20.84
799.752	20.79
799.928	20.99
800.105	21.25
800.281	21.04
800.458	20.54
800.634	19.91
800.811	20.67
800.987	21.11
801.163	20.41
801.34	21.37
801.516	21.1
801.692	21.6
801.869	22.09
802.045	21.54
802.221	21.67
802.398	21.48
802.574	22.02
802.75	22.42
802.926	22.63
803.103	22.93
803.279	22.36
803.455	22.38
803.631	21.78
803.807	21.5
803.983	21.86
804.16	22.36
804.336	22.49
804.512	22.66
804.688	22.27
804.864	22.46
805.04	22.49
805.216	22.89
805.392	22.96
805.568	22.7
805.744	22.83
805.92	23.11
806.096	23.39
806.272	24.21
806.448	24.56
806.623	24.74
806.799	24.55
806.975	25
807.151	24.67
807.327	24.42
807.503	24.4
807.678	24.04
807.854	23.64
808.03	23.73
808.206	23.52
808.381	23.25
808.557	22.98
808.733	22.57
808.908	21.43
809.084	21.99
809.26	22.25
809.435	22.91
809.611	23.43
809.787	23.59
809.962	23.95
810.138	23.8
810.313	23.68
810.489	23.25
810.664	23.85
810.84	24.4
811.015	24.28
811.191	24.21
811.366	24.57
811.542	24.55
811.717	24.67
811.892	24.4
812.068	24.71
812.243	24.9
812.419	25
812.594	24.94
812.769	25.57
812.944	25.97
813.12	25.79
813.295	25.06
813.47	24.23
813.645	24.62
813.821	23.91
813.996	24.09
814.171	23.97
814.346	23.8
814.521	23.72
814.697	23.76
814.872	23.03
815.047	22.93
815.222	23.58
815.397	23.18
815.572	22.09
815.747	22.58
815.922	22.27
816.097	22.17
816.272	23.44
816.447	22.84
816.622	22.7
816.797	22.64
816.972	22.85
817.147	22.47
817.322	22.95
817.496	23.41
817.671	23.11
817.846	23.07
818.021	23.05
818.196	22.62
818.371	23.32
818.545	22.72
818.72	23.01
818.895	23.1
819.069	22.52
819.244	22.65
819.419	22.26
819.594	22.45
819.768	22.06
819.943	21.76
820.117	21.56
820.292	21.09
820.467	21.14
820.641	20.75
820.816	20.78
820.99	20.87
821.165	20.72
821.339	20.68
821.514	20.64
821.688	20.53
821.863	20.37
822.037	20.11
822.212	20.16
822.386	20.02
822.56	20.03
822.735	20.03
822.909	19.94
823.084	19.83
823.258	19.85
823.432	19.71
823.606	19.78
823.781	20.03
823.955	20.32
824.129	20.36
824.303	20.55
824.478	20.53
824.652	20.4
824.826	20.5
825	20.39
825.174	20.45
825.348	20.3
825.523	20.12
825.697	20.05
825.871	20.25
826.045	20.41
826.219	20.46
826.393	20.67
826.567	20.65
826.741	20.77
826.915	21.05
827.089	21.07
827.263	21.35
827.437	21.37
827.611	21.47
827.784	21.25
827.958	21.05
828.132	21.18
828.306	21.5
828.48	22.04
828.654	22.15
828.827	22.29
829.001	22.17
829.175	22.51
829.349	23.24
829.522	23.18
829.696	23.53
829.87	23.64
830.044	24.24
830.217	23.85
830.391	23.38
830.565	23.13
830.738	23.8
830.912	23.96
831.085	23.72
831.259	24.32
831.432	24.45
831.606	24.6
831.779	24.38
831.953	23.52
832.126	23.18
832.3	22.94
832.473	23.16
832.647	22.29
832.82	22.11
832.994	21.83
833.167	21.48
833.34	21.26
833.514	20.8
833.687	21.22
833.86	21.54
834.034	21.46
834.207	21.23
834.38	20.81
834.553	20.99
834.727	21.08
834.9	20.95
835.073	20.71
835.246	21.05
835.419	21.39
835.593	20.97
835.766	20.53
835.939	21.44
836.112	21.72
836.285	22.29
836.458	23.1
836.631	23.78
836.804	24.94
836.977	24.73
837.15	24.74
837.323	24.73
837.496	24.84
837.669	24.99
837.842	24.88
838.015	25.04
838.188	24.68
838.361	23.58
838.533	23.3
838.706	22.97
838.879	23
839.052	22.69
839.225	23.08
839.398	22.6
839.57	22.76
839.743	22.38
839.916	22.19
840.088	22.5
840.261	23.45
840.434	23.35
840.607	22.77
840.779	24.02
840.952	24.66
841.124	25
841.297	26.83
841.47	27.3
841.642	27.04
841.815	27.99
841.987	28.04
842.16	26.69
842.332	27.24
842.505	28.46
842.677	26.78
842.85	25.57
843.022	26.38
843.194	26.28
843.367	27.54
843.539	27.73
843.712	26.88
843.884	27.93
844.056	30.9
844.229	30.72
844.401	30.6
844.573	32.19
844.745	33.78
844.918	31.64
845.09	28.67
845.262	26.88
845.434	28.49
845.606	28.46
845.779	28.19
845.951	26.33
846.123	27.35
846.295	27.46
846.467	27.71
846.639	27.69
846.811	28.92
846.983	30.48
847.155	31.88
847.327	29.95
847.499	31.5
847.671	31.79
847.843	31.89
848.015	30.27
848.187	31.52
848.359	29.63
848.531	31.66
848.703	31.51
848.875	32.23
849.047	30.58
849.218	32.46
849.39	31.64
849.562	30
849.734	28.91
849.905	29.63
850.077	29.34
850.249	29.93
850.421	27.38
850.592	26.67
850.764	27.88
850.936	27.53
851.107	26.17
851.279	27.11
851.451	28.64
851.622	30.92
851.794	30.01
851.965	28.35
852.137	28.03
852.308	29.49
852.48	31.64
852.651	31.55
852.823	34.1
852.994	33.61
853.166	33.14
853.337	33.96
853.509	31.66
853.68	34.94
853.851	34.73
854.023	35.85
854.194	34.17
854.365	32.94
854.537	32.07
854.708	29.75
854.879	31.39
855.05	31.9
855.222	31.53
855.393	34.05
855.564	32.95
855.735	32.76
855.906	32.72
856.078	33.42
856.249	33.5
856.42	32.62
856.591	34.56
856.762	33.76
856.933	33.75
857.104	31.94
857.275	31.03
857.446	29.9
857.617	28.68
857.788	29.27
857.959	28.64
858.13	29.2
858.301	30.88
858.472	30.82
858.643	31.91
858.814	33.9
858.985	36.13
859.155	36.09
859.326	36.12
859.497	38.25
859.668	39.75
859.839	43.64
860.009	43.18
860.18	41.26
860.351	39.1
860.522	38.99
860.692	35.28
860.863	35.87
861.034	35.16
861.204	37.74
861.375	38.21
861.546	37.91
861.716	34.51
861.887	36.27
862.057	38.65
862.228	39.05
862.398	39.55
862.569	41.3
862.739	41.04
862.91	43.16
863.08	41
863.251	41.61
863.421	40.28
863.592	40.54
863.762	41.15
863.932	39.81
864.103	41.28
864.273	40.08
864.443	39.1
864.614	37.98
864.784	36.89
864.954	38.45
865.125	37
865.295	38.65
865.465	38.55
865.635	36.91
865.805	37.3
865.976	36.4
866.146	37.3
866.316	37.92
866.486	39.69
866.656	39.31
866.826	39.01
866.996	38.44
867.166	38.9
867.336	39.33
867.506	39.47
867.676	39.34
867.846	38.53
868.016	36.85
868.186	36.83
868.356	34.55
868.526	34.16
868.696	33.45
868.866	34.06
869.036	31.32
869.206	32.62
869.376	31.69
869.545	30.34
869.715	31.26
869.885	32.92
870.055	31.19
870.224	32.89
870.394	34.78
870.564	36.21
870.734	34.9
870.903	35.34
871.073	32.93
871.243	34.68
871.412	35.73
871.582	35.87
871.751	34.84
871.921	37.09
872.091	35.83
872.26	34.32
872.43	30.54
872.599	33.66
872.769	33.03
872.938	34.95
873.108	33.62
873.277	34.87
873.446	34
873.616	34.25
873.785	34.1
873.955	35.53
874.124	35.91
874.293	38.09
874.463	36.7
874.632	37.19
874.801	37.09
874.971	38.76
875.14	37.74
875.309	37.93
875.478	37.74
875.647	35.36
875.817	35.1
875.986	33.12
876.155	34.74
876.324	36.7
876.493	38.14
876.662	36.6
876.831	34.3
877	35.74
877.17	36.03
877.339	37.03
877.508	40.12
877.677	38.86
877.846	39.1
878.015	38.52
878.184	36.14
878.352	35.44
878.521	34.71
878.69	35.12
878.859	34.08
879.028	33.45
879.197	33.23
879.366	30.6
879.534	30.22
879.703	29.05
879.872	28.21
880.041	27.78
880.21	26.5
880.378	25.8
880.547	25.23
880.716	24.61
880.884	24.52
881.053	23.72
881.222	23.53
881.39	22.8
881.559	23.24
881.727	22.81
881.896	22.54
882.065	22.45
882.233	22.51
882.402	22.3
882.57	22.38
882.739	21.68
882.907	21.48
883.076	21.44
883.244	21.79
883.412	21.92
883.581	22.03
883.749	22.47
883.918	22.75
884.086	23.41
884.254	24.3
884.423	25.34
884.591	26.98
884.759	28.02
884.927	28.66
885.096	29.53
885.264	30.82
885.432	32.16
885.6	31.61
885.769	31.14
885.937	30.88
886.105	31.11
886.273	30.23
886.441	28.63
886.609	30.33
886.777	31.38
886.945	31.78
887.113	29.87
887.281	29.07
887.449	30.43
887.617	32.88
887.785	34.01
887.953	35.17
888.121	33.46
888.289	33.93
888.457	33.77
888.625	30.38
888.793	30.08
888.961	31.21
889.129	32.13
889.296	33.3
889.464	33.27
889.632	32.59
889.8	29.66
889.967	30.93
890.135	34.05
