Data from JASIL_3142_Reflection_1.txt Node
Date: Thu Nov 12 21:00:24 EST 2015
User: Geneva
Spectrometer: USB4E03002
Autoset integration time: false
Trigger mode: 4
Integration Time (sec): 1.000000E-1
Scans to average: 10
Electric dark correction enabled: true
Nonlinearity correction enabled: false
Boxcar width: 5
Stray light correction enabled: false
XAxis mode: Wavelengths
Stop averaging: false
Number of Pixels in Spectrum: 3648
>>>>>Begin Spectral Data<<<<<
177.575	182.37
177.794	113.87
178.014	24.15
178.233	-57.34
178.452	-15.38
178.672	-76.07
178.891	188.13
179.11	37.79
179.33	28.7
179.549	20.98
179.768	6.15
179.987	175.42
180.207	-7357.69
180.426	204.19
180.645	225.09
180.864	194.69
181.084	147.03
181.303	213.7
181.522	222.54
181.741	204.03
181.96	268.44
182.179	293.73
182.398	312.28
182.618	176.24
182.837	307.46
183.056	663.4
183.275	-1490.38
183.494	848.64
183.713	296.12
183.932	345.22
184.151	465.33
184.37	278.27
184.589	322.2
184.808	607.21
185.027	817.87
185.246	440.47
185.465	-537.36
185.684	489.08
185.903	-291.66
186.122	-167.86
186.341	-262.35
186.56	-199.61
186.779	-66.7
186.998	-1.33
187.216	28.93
187.435	-25.77
187.654	-61.44
187.873	-18557.69
188.092	-203.88
188.311	331.89
188.53	-585.31
188.748	20.37
188.967	97.51
189.186	88.07
189.405	106.36
189.623	339.53
189.842	-31.62
190.061	18.25
190.28	1.13
190.498	-22.48
190.717	-21.05
190.936	-45.94
191.154	-121.38
191.373	-218.62
191.592	-496.18
191.81	-224.87
192.029	-346.07
192.248	-507.57
192.466	1724.09
192.685	16003.85
192.904	2939.74
193.122	358.99
193.341	314.64
193.559	149.19
193.778	141.62
193.996	183.93
194.215	256.54
194.433	270.15
194.652	337.98
194.87	335.12
195.089	356.02
195.307	236.23
195.526	302.44
195.744	494.48
195.963	-3489.14
196.181	958.42
196.399	600.13
196.618	331.2
196.836	285.5
197.055	162.37
197.273	159.35
197.491	140.51
197.71	149.52
197.928	125.96
198.146	118.67
198.365	119.05
198.583	127.95
198.801	135.96
199.019	132.52
199.238	129.84
199.456	137.72
199.674	134.17
199.892	136.5
200.111	136.62
200.329	156.8
200.547	159.82
200.765	151.3
200.983	116.23
201.202	116.26
201.42	89.56
201.638	85.63
201.856	106.73
202.074	99.4
202.292	953.85
202.51	-4.48
202.728	25.11
202.946	37.88
203.165	18.07
203.383	41.96
203.601	66.95
203.819	39.09
204.037	-27.37
204.255	-85.08
204.473	-224.15
204.691	-329.58
204.909	182.05
205.127	174.34
205.345	195
205.562	246.03
205.78	1285.21
205.998	-2000.96
206.216	674.18
206.434	-164.3
206.652	35.3
206.87	29.38
207.088	2.62
207.306	30.02
207.523	456.83
207.741	-856.41
207.959	750.81
208.177	-24084.62
208.395	-96.45
208.612	-39.77
208.83	54.88
209.048	63.06
209.266	58.62
209.483	70.25
209.701	122.8
209.919	137.07
210.136	149.36
210.354	150.03
210.572	155.85
210.79	224.32
211.007	255.91
211.225	212.85
211.442	440.55
211.66	1234.62
211.878	-2593.85
212.095	-223.43
212.313	-182.54
212.53	-265.51
212.748	-600.97
212.966	-380.11
213.183	-199.56
213.401	-12.87
213.618	-18.85
213.836	-6.32
214.053	24.47
214.271	49.45
214.488	55.08
214.705	94.79
214.923	1615.38
215.14	-68.47
215.358	54.24
215.575	38.58
215.793	83.58
216.01	89.06
216.227	128.04
216.445	96.47
216.662	60.76
216.879	141.08
217.097	-310.37
217.314	-1379.81
217.531	-86.69
217.749	10.96
217.966	3.43
218.183	-10.62
218.4	-650.64
218.618	81
218.835	108.16
219.052	78.9
219.269	56.13
219.487	42.82
219.704	63.5
219.921	74.94
220.138	74.44
220.355	74.96
220.572	93.07
220.79	97.73
221.007	154.39
221.224	140.92
221.441	170.73
221.658	200.78
221.875	174.2
222.092	183.61
222.309	173.94
222.526	209.53
222.743	181.24
222.96	186.86
223.177	156.61
223.394	143.1
223.611	227.05
223.828	38715.38
224.045	211.43
224.262	-1692.9
224.479	491.49
224.696	4562.72
224.913	-335.04
225.13	-350.44
225.347	-274.04
225.564	-719.96
225.781	-781.1
225.997	-363.38
226.214	-261.19
226.431	-76.29
226.648	-103.95
226.865	-61.33
227.082	-49.17
227.298	-55.72
227.515	-37.91
227.732	-30.22
227.949	1.57
228.165	-4.23
228.382	-10.53
228.599	-13.99
228.816	-19.51
229.032	-23.83
229.249	-19.88
229.466	-22.34
229.682	-19.97
229.899	-37.42
230.116	-27.99
230.332	-32.07
230.549	-41.82
230.765	-50.74
230.982	-49.06
231.199	-66.42
231.415	-73.89
231.632	-64.35
231.848	-56.36
232.065	-70.44
232.281	-46
232.498	-51.89
232.714	-72.99
232.931	-39.34
233.147	-28.01
233.364	-35.2
233.58	-31.14
233.797	-18.53
234.013	-9.34
234.23	-17.46
234.446	-10.43
234.662	-18.66
234.879	-19.6
235.095	-25.45
235.312	-23.9
235.528	-46.34
235.744	-37.52
235.961	-33.58
236.177	-41.7
236.393	-88.46
236.61	-76.64
236.826	-102.1
237.042	-76.56
237.258	-98.02
237.475	-90.16
237.691	-139.03
237.907	-91.7
238.123	-95.33
238.339	-86.06
238.556	-81.46
238.772	-76.04
238.988	-71.46
239.204	-53.54
239.42	-41.35
239.636	-45.67
239.853	-47.46
240.069	-26.81
240.285	-14.84
240.501	-15.54
240.717	-22.18
240.933	-17.9
241.149	-14
241.365	-5.85
241.581	-4.84
241.797	-7.25
242.013	2.35
242.229	6.83
242.445	8.64
242.661	3.08
242.877	11.3
243.093	14.21
243.309	16.4
243.525	19.67
243.741	16.7
243.957	14.56
244.173	12.44
244.388	7.51
244.604	6.12
244.82	2.18
245.036	3.1
245.252	-5.52
245.468	-5.59
245.683	-9.37
245.899	-14.01
246.115	-16.51
246.331	-14.04
246.547	-13.75
246.762	-15.97
246.978	-16.31
247.194	-16.16
247.409	-15.33
247.625	-13.58
247.841	-12.14
248.057	-9.71
248.272	-8.12
248.488	-7.24
248.703	-6.4
248.919	-6.71
249.135	-9.92
249.35	-6.19
249.566	-12.84
249.782	-13.36
249.997	-9.08
250.213	-11.13
250.428	-8.33
250.644	-4.49
250.859	0.81
251.075	-1.95
251.29	-3.98
251.506	3.75
251.721	2.4
251.937	3.16
252.152	2.25
252.368	0.69
252.583	-5.73
252.798	-5.61
253.014	-7.56
253.229	-12.4
253.445	-10.41
253.66	-6.11
253.875	-7.82
254.091	-18.69
254.306	-9.68
254.521	-12.86
254.737	-19.23
254.952	-13.03
255.167	-18.38
255.383	-20.46
255.598	-12.72
255.813	-15.96
256.028	-18.01
256.244	-25.82
256.459	-10.82
256.674	-18.79
256.889	-16.21
257.104	-12.36
257.32	-12.09
257.535	-8.21
257.75	-3.14
257.965	-2.32
258.18	2.74
258.395	3.6
258.61	4.89
258.826	1.86
259.041	3.12
259.256	1.92
259.471	1.5
259.686	1.46
259.901	-1.39
260.116	-2.46
260.331	-2.47
260.546	-6.39
260.761	-9.34
260.976	-11.24
261.191	-12.08
261.406	-16.12
261.621	-15.59
261.836	-14.1
262.05	-14.83
262.265	-10.36
262.48	-11.28
262.695	-18.79
262.91	-15.03
263.125	-10.37
263.34	-10.43
263.555	-2.83
263.769	2.66
263.984	3.83
264.199	-0.96
264.414	3.74
264.629	4.57
264.843	3.67
265.058	6.93
265.273	5.29
265.488	7.1
265.702	11.87
265.917	9.96
266.132	6.86
266.346	5.65
266.561	5.82
266.776	2.87
266.99	4.19
267.205	2.28
267.42	-1.67
267.634	3.37
267.849	-1.44
268.063	-7.46
268.278	-7.28
268.492	-4.75
268.707	-4.74
268.922	-2.49
269.136	0.75
269.351	-2
269.565	0.37
269.78	1.35
269.994	-2.83
270.209	-2.21
270.423	1.36
270.637	1.22
270.852	-4.2
271.066	-2.77
271.281	0.47
271.495	-0.25
271.709	1.82
271.924	-0.24
272.138	0.27
272.353	2.58
272.567	2.43
272.781	3.64
272.996	3.42
273.21	5.11
273.424	4.19
273.638	2.78
273.853	5.49
274.067	3.65
274.281	5.26
274.495	4.91
274.71	-0.1
274.924	-1.2
275.138	-4.05
275.352	-6.07
275.566	-2.24
275.781	-5.6
275.995	-6.71
276.209	-12.34
276.423	-11.8
276.637	-11.14
276.851	-11.03
277.065	-5.47
277.279	-5.24
277.493	-1.9
277.707	0.09
277.921	-5.96
278.135	-2.89
278.349	-3.84
278.563	-2.25
278.777	-2.17
278.991	-5.52
279.205	-5.97
279.419	-4.65
279.633	-3.52
279.847	-6.9
280.061	-7.03
280.275	-4.75
280.489	-4.92
280.703	-4.08
280.917	-6.84
281.131	-8.01
281.344	-7.09
281.558	-8.8
281.772	-15.23
281.986	-14.44
282.2	-14.72
282.414	-13.72
282.627	-11.6
282.841	-8.86
283.055	-9.79
283.269	-8.37
283.482	-8.29
283.696	-4.72
283.91	-2.62
284.123	-4.53
284.337	-5.18
284.551	-6.05
284.764	-6.92
284.978	-6.74
285.192	-11.07
285.405	-9.54
285.619	-9.86
285.833	-7.77
286.046	-9.65
286.26	-5.98
286.473	-2.98
286.687	-4.72
286.9	-2.63
287.114	-2.39
287.327	-1.09
287.541	-0.37
287.754	-1.72
287.968	-1.39
288.181	-1.56
288.395	0.9
288.608	-3.34
288.822	-3.17
289.035	-0.67
289.248	0.65
289.462	2.22
289.675	-1.85
289.889	-1.03
290.102	1.09
290.315	2.14
290.529	1.18
290.742	-1.1
290.955	-0.82
291.169	-0.85
291.382	-1.53
291.595	-5.37
291.808	-4.39
292.022	-1.03
292.235	3.85
292.448	2.79
292.661	1.95
292.875	0.8
293.088	-1.67
293.301	-0.08
293.514	0.18
293.727	0.82
293.94	3.46
294.153	3.12
294.367	1.92
294.58	-2
294.793	-1.03
295.006	0.26
295.219	0.7
295.432	2.98
295.645	2.35
295.858	2.93
296.071	1.47
296.284	0.25
296.497	-2.3
296.71	-2.18
296.923	-1.65
297.136	-2.91
297.349	-3.45
297.562	-2.39
297.775	-3.28
297.988	-2.46
298.201	-3.52
298.414	-3.43
298.626	-3.68
298.839	-1.7
299.052	-0.56
299.265	0.59
299.478	1.08
299.691	0.84
299.903	-0.67
300.116	-0.25
300.329	1.21
300.542	2.61
300.755	3.2
300.967	4.19
301.18	3.44
301.393	0.27
301.605	-0.75
301.818	-3.61
302.031	-5.54
302.243	-2.41
302.456	-2.61
302.669	-3.77
302.881	-5.44
303.094	-4.17
303.307	-4.12
303.519	-2.4
303.732	-0.03
303.944	-1.33
304.157	0.17
304.37	1.96
304.582	0.42
304.795	0.26
305.007	-2.06
305.22	-3.47
305.432	-5
305.645	-8.86
305.857	-11.55
306.069	-11.25
306.282	-11
306.494	-9.99
306.707	-8.67
306.919	-9.62
307.132	-9.6
307.344	-8.12
307.556	-7.37
307.769	-5.53
307.981	-0.85
308.193	1.15
308.406	1.45
308.618	3.15
308.83	5.51
309.043	6.15
309.255	6.42
309.467	7.66
309.679	7.82
309.892	7.97
310.104	8.89
310.316	8.14
310.528	8.62
310.74	8.25
310.953	7.32
311.165	5.52
311.377	5.19
311.589	6.97
311.801	8.01
312.013	7.43
312.225	8.89
312.437	7.54
312.649	8.3
312.862	8.33
313.074	8.68
313.286	11.06
313.498	8.47
313.71	8.78
313.922	7.89
314.134	5.75
314.346	6.53
314.558	6.24
314.77	6.8
314.982	6.19
315.193	5.47
315.405	4.84
315.617	3.35
315.829	7.47
316.041	6.02
316.253	5.19
316.465	2.22
316.677	1.62
316.888	0.77
317.1	1.93
317.312	1.25
317.524	-1.49
317.736	1.15
317.947	2.82
318.159	4.34
318.371	4.49
318.583	3.57
318.794	6.17
319.006	6.74
319.218	6.86
319.43	5.87
319.641	7.48
319.853	8.29
320.064	6.9
320.276	3.58
320.488	1.52
320.699	1.93
320.911	1.75
321.123	4.72
321.334	1.62
321.546	2.09
321.757	3.96
321.969	1.33
322.18	3.69
322.392	2.46
322.603	4.52
322.815	7.39
323.026	8.01
323.238	10.34
323.449	8.34
323.661	10.59
323.872	10.27
324.083	9.9
324.295	11.22
324.506	7.83
324.718	7.86
324.929	4.8
325.14	4.35
325.352	3.26
325.563	1.03
325.774	2.55
325.986	3.53
326.197	2.66
326.408	1.95
326.62	-0.54
326.831	2.43
327.042	5.44
327.253	8.47
327.464	6.38
327.676	5.85
327.887	5.95
328.098	7.14
328.309	7.68
328.52	10.23
328.732	10.39
328.943	11.64
329.154	10.05
329.365	8.22
329.576	8.15
329.787	8.6
329.998	9.38
330.209	10.84
330.42	9.84
330.631	5.84
330.842	5.57
331.053	5.2
331.264	6.85
331.475	9.8
331.686	9.1
331.897	6.91
332.108	5.25
332.319	2.89
332.53	4.32
332.741	5.32
332.952	9.81
333.163	7.07
333.374	6.74
333.585	6.92
333.795	4.39
334.006	4.64
334.217	6.7
334.428	10.45
334.639	11.66
334.849	7.03
335.06	2.75
335.271	2.27
335.482	3.76
335.692	5.27
335.903	7.16
336.114	9.58
336.325	9.76
336.535	11.26
336.746	8.08
336.957	8.79
337.167	10.85
337.378	13.74
337.589	12.37
337.799	12.9
338.01	10.94
338.22	7.22
338.431	5.95
338.642	4.24
338.852	1.12
339.063	4.1
339.273	3.32
339.484	7.32
339.694	7.42
339.905	6.03
340.115	7.42
340.326	8.41
340.536	10.7
340.746	11.3
340.957	13.01
341.167	16.46
341.378	14.78
341.588	13.01
341.799	12.02
342.009	11.28
342.219	14.13
342.43	12.68
342.64	10.74
342.85	9.95
343.061	10.16
343.271	9.96
343.481	8.66
343.691	8.41
343.902	11.19
344.112	10.41
344.322	10.17
344.532	10.23
344.743	10
344.953	10.39
345.163	11.59
345.373	10.94
345.583	12.03
345.793	10.56
346.004	10.4
346.214	10.89
346.424	10.54
346.634	11.92
346.844	12.15
347.054	12.26
347.264	13.37
347.474	10.77
347.684	11.7
347.894	12.28
348.104	12.82
348.314	12.49
348.524	12.24
348.734	10.72
348.944	11.17
349.154	8.9
349.364	10.69
349.574	10.2
349.784	11.69
349.994	11.38
350.204	10.21
350.413	8.45
350.623	11.48
350.833	11.39
351.043	11.67
351.253	11.57
351.463	13.91
351.672	11.9
351.882	13.4
352.092	11.84
352.302	11.91
352.511	12.71
352.721	15.03
352.931	13.71
353.141	13.38
353.35	15.82
353.56	13.84
353.77	13.04
353.979	13.64
354.189	14.02
354.399	14.45
354.608	13.54
354.818	13.2
355.027	12.44
355.237	10.97
355.447	12.15
355.656	11.35
355.866	13.42
356.075	13.45
356.285	13.21
356.494	11.77
356.704	11.73
356.913	11.81
357.123	12.36
357.332	11.88
357.542	13.74
357.751	12.25
357.96	11.41
358.17	10.41
358.379	9.91
358.589	10.74
358.798	10.57
359.007	10.44
359.217	12.06
359.426	11.89
359.635	12.81
359.845	12.26
360.054	13.09
360.263	13.3
360.472	12.63
360.682	12.56
360.891	11.86
361.1	11.81
361.309	12.23
361.519	11.35
361.728	9.79
361.937	9.73
362.146	8.74
362.355	7.9
362.564	7.22
362.774	6.77
362.983	7.21
363.192	6.5
363.401	7.52
363.61	6.84
363.819	8.07
364.028	8.79
364.237	8.73
364.446	9.13
364.655	9.55
364.864	10.93
365.073	11.42
365.282	9.89
365.491	10.15
365.7	10.49
365.909	11.36
366.118	9.14
366.327	9.58
366.536	9.51
366.745	7.44
366.954	8.35
367.162	7.19
367.371	7.74
367.58	9.6
367.789	8.97
367.998	7.01
368.207	7.52
368.415	10.34
368.624	9.96
368.833	11.26
369.042	14
369.25	13.63
369.459	13.76
369.668	14.08
369.877	12.9
370.085	14.07
370.294	14.99
370.503	14.33
370.711	12.87
370.92	12.16
371.129	11.73
371.337	11
371.546	9.62
371.754	10.14
371.963	9.29
372.171	9.7
372.38	9.29
372.589	10.29
372.797	10.79
373.006	10.07
373.214	11.93
373.423	10.78
373.631	10.81
373.84	11.71
374.048	10.19
374.256	10.86
374.465	11.67
374.673	13.02
374.882	12.67
375.09	13.23
375.298	13.12
375.507	12.77
375.715	14.08
375.923	12.99
376.132	13.38
376.34	13.84
376.548	13.65
376.757	13.01
376.965	11.81
377.173	10.9
377.381	10.62
377.59	10.15
377.798	8.69
378.006	8.12
378.214	10.27
378.423	10.1
378.631	10.44
378.839	11.99
379.047	12.23
379.255	11.6
379.463	11.89
379.671	10.59
379.879	11.54
380.088	12.2
380.296	11.66
380.504	9.63
380.712	9.26
380.92	10.03
381.128	8.64
381.336	8.92
381.544	10.03
381.752	9.31
381.96	9.57
382.168	10.17
382.376	10.49
382.584	10.42
382.791	10.62
382.999	10.59
383.207	10.78
383.415	11.38
383.623	10.02
383.831	9.58
384.039	9.38
384.247	8.37
384.454	7.37
384.662	7.71
384.87	7.39
385.078	7.38
385.285	6.56
385.493	5.91
385.701	3.48
385.909	3.66
386.116	5.82
386.324	6.94
386.532	8.53
386.739	8.86
386.947	8.21
387.155	8.85
387.362	9.6
387.57	10.26
387.778	11.09
387.985	11.99
388.193	12.95
388.4	9.16
388.608	8.43
388.816	8.66
389.023	7.49
389.231	7.31
389.438	7.47
389.646	7.89
389.853	6.84
390.061	7.33
390.268	7.52
390.475	8.63
390.683	11.27
390.89	11.9
391.098	11.98
391.305	12.64
391.512	13.19
391.72	12.18
391.927	12.12
392.135	12.25
392.342	11.34
392.549	11.88
392.756	9.9
392.964	10.31
393.171	9.81
393.378	9.3
393.586	10.25
393.793	10.27
394	10.82
394.207	11.2
394.414	11.88
394.622	11.29
394.829	11.81
395.036	10.84
395.243	9.21
395.45	9.47
395.657	10.2
395.864	9.64
396.072	9.35
396.279	10.09
396.486	9.66
396.693	8.7
396.9	8.42
397.107	8.28
397.314	10.44
397.521	11.08
397.728	10.69
397.935	8.83
398.142	8.96
398.349	10.1
398.556	8.74
398.763	8.81
398.97	10.48
399.177	11.75
399.383	10.73
399.59	10.14
399.797	10.35
400.004	10.62
400.211	12.21
400.418	11.85
400.625	11.46
400.831	13.12
401.038	13.73
401.245	13.4
401.452	13.52
401.658	14.21
401.865	14.48
402.072	14.54
402.279	14.87
402.485	14.53
402.692	14.96
402.899	14.71
403.105	13.4
403.312	13.07
403.519	13.18
403.725	11
403.932	10.37
404.138	11.43
404.345	11.03
404.552	11.18
404.758	11.42
404.965	11.62
405.171	11.08
405.378	11.27
405.584	10.28
405.791	9.46
405.997	11.44
406.204	11.88
406.41	10.58
406.617	10.9
406.823	10.48
407.029	9.71
407.236	9.24
407.442	9.64
407.649	11.07
407.855	11.14
408.061	11.25
408.268	10.16
408.474	9.84
408.68	10.11
408.887	10.04
409.093	10.25
409.299	11.13
409.505	10.25
409.712	10.22
409.918	8.32
410.124	8.68
410.33	9.1
410.537	10.56
410.743	11.43
410.949	11.21
411.155	10.73
411.361	9.56
411.567	9.73
411.773	10.68
411.98	10.75
412.186	11.29
412.392	12.34
412.598	13.07
412.804	11.84
413.01	11.25
413.216	11.69
413.422	12.36
413.628	13.54
413.834	13.32
414.04	13.55
414.246	13.56
414.452	14.21
414.658	13.05
414.864	11.9
415.07	12.72
415.275	12.59
415.481	12.79
415.687	13.09
415.893	12.77
416.099	12.73
416.305	12.38
416.511	12.16
416.716	12.11
416.922	13.28
417.128	13.95
417.334	13.83
417.539	13.71
417.745	13.56
417.951	13.27
418.157	13.74
418.362	13.85
418.568	14.05
418.774	14.36
418.979	14.28
419.185	13.96
419.391	13.5
419.596	13.61
419.802	13.68
420.008	13.46
420.213	17.65
420.419	17.06
420.624	16.77
420.83	16.46
421.035	16.44
421.241	16.25
421.446	16.07
421.652	16.3
421.857	15.87
422.063	15.83
422.268	15.96
422.474	11.65
422.679	12.14
422.885	11.91
423.09	12.01
423.295	11.79
423.501	12.1
423.706	12.32
423.911	12.08
424.117	12.74
424.322	12.69
424.527	12.98
424.733	13.2
424.938	13.17
425.143	13.15
425.349	13.12
425.554	13.57
425.759	13.03
425.964	12.64
426.169	12.59
426.375	11.91
426.58	12.08
426.785	11.39
426.99	11.26
427.195	10.57
427.4	11.05
427.605	11.43
427.811	10.74
428.016	10.85
428.221	10.65
428.426	11.36
428.631	11.99
428.836	11.68
429.041	12.35
429.246	12.46
429.451	13.23
429.656	13.29
429.861	13.24
430.066	12.85
430.271	12.46
430.476	12.5
430.681	12.33
430.886	11.93
431.09	12.27
431.295	12.03
431.5	12.32
431.705	12.31
431.91	12.15
432.115	12.19
432.32	12.55
432.524	13.01
432.729	13.04
432.934	12.7
433.139	12.9
433.343	13.17
433.548	13.18
433.753	12.52
433.958	12.29
434.162	12.44
434.367	12.2
434.572	11.99
434.776	12.23
434.981	12.01
435.186	12.85
435.39	12.77
435.595	12.5
435.799	11.91
436.004	12.65
436.209	12.45
436.413	11.84
436.618	11.87
436.822	12.4
437.027	12.66
437.231	12.16
437.436	11.4
437.64	12.19
437.845	12.1
438.049	12.4
438.253	12.13
438.458	12.19
438.662	12.32
438.867	12.14
439.071	12.03
439.275	12.05
439.48	12.6
439.684	12.6
439.888	11.66
440.093	11.28
440.297	11.45
440.501	11.59
440.706	11.29
440.91	11.53
441.114	11.7
441.318	11.7
441.523	11.8
441.727	12.24
441.931	11.81
442.135	12.28
442.339	12.92
442.543	13.1
442.748	12.3
442.952	12.45
443.156	12.55
443.36	12.47
443.564	12.57
443.768	11.8
443.972	11.59
444.176	12.23
444.38	11.69
444.584	11.64
444.788	10.78
444.992	11.27
445.196	11.44
445.4	11.24
445.604	11.6
445.808	11.35
446.012	11.62
446.216	11.49
446.42	11.15
446.624	11.77
446.828	11.6
447.032	11.68
447.235	11.4
447.439	11.24
447.643	11.54
447.847	11.33
448.051	11.28
448.254	11.1
448.458	10.59
448.662	11.09
448.866	10.6
449.069	11.22
449.273	11.67
449.477	11.89
449.681	11.85
449.884	11.31
450.088	10.86
450.292	11.33
450.495	12.17
450.699	12.8
450.902	13.13
451.106	12.69
451.31	12.26
451.513	12.37
451.717	12.44
451.92	12.42
452.124	12.63
452.327	12.66
452.531	12.17
452.734	11.4
452.938	11.66
453.141	11.4
453.345	12.33
453.548	11.92
453.752	12.17
453.955	12.34
454.158	12.73
454.362	12.42
454.565	13.06
454.769	13.29
454.972	13.88
455.175	13.57
455.379	13.03
455.582	12.9
455.785	12.4
455.988	11.67
456.192	11.82
456.395	11.67
456.598	11.71
456.801	10.94
457.005	10.13
457.208	10.04
457.411	9.36
457.614	9.56
457.817	9.64
458.021	10.1
458.224	10.46
458.427	10.29
458.63	10.48
458.833	10.64
459.036	10.41
459.239	10.91
459.442	10.3
459.645	10.98
459.848	11.07
460.051	10.57
460.254	10.74
460.457	10.9
460.66	10.73
460.863	10.11
461.066	10.31
461.269	10.88
461.472	10.94
461.675	11.25
461.878	11.13
462.081	10.6
462.284	10.79
462.486	10.79
462.689	10.57
462.892	10.53
463.095	11.17
463.298	10.83
463.5	11.03
463.703	11.33
463.906	11.64
464.109	11.18
464.311	11.85
464.514	11.49
464.717	11.94
464.92	12.08
465.122	12.53
465.325	12.55
465.528	12.64
465.73	12.81
465.933	12.31
466.135	11.78
466.338	11.96
466.541	11.91
466.743	12.07
466.946	11.68
467.148	11.96
467.351	11.12
467.553	10.35
467.756	10.48
467.958	9.71
468.161	9.67
468.363	10.55
468.566	10.43
468.768	10.36
468.971	9.79
469.173	10.08
469.375	9.88
469.578	10.4
469.78	10.84
469.983	10.44
470.185	10.75
470.387	11.37
470.59	11.11
470.792	11.06
470.994	10.78
471.196	11.98
471.399	11.54
471.601	10.54
471.803	10.87
472.005	10.97
472.208	11.17
472.41	11.13
472.612	11.05
472.814	10.94
473.016	11.27
473.218	11.65
473.421	11.48
473.623	11.69
473.825	12.37
474.027	12.36
474.229	12.27
474.431	12.11
474.633	12.38
474.835	11.71
475.037	11.75
475.239	11.59
475.441	11.23
475.643	11.5
475.845	11.33
476.047	11.32
476.249	11.26
476.451	11.18
476.653	11.65
476.855	11.93
477.057	12.64
477.258	12.56
477.46	12.73
477.662	12.97
477.864	12.67
478.066	12.8
478.268	13.06
478.469	13.25
478.671	13.66
478.873	13.14
479.075	12.72
479.276	12.2
479.478	12.54
479.68	12.17
479.882	12
480.083	12.33
480.285	12.34
480.487	12.53
480.688	12.16
480.89	12.48
481.091	12.63
481.293	12.55
481.495	12.87
481.696	12.72
481.898	12.81
482.099	12.94
482.301	12.59
482.502	12.59
482.704	12.18
482.905	12.28
483.107	12.03
483.308	12.02
483.51	12.16
483.711	11.97
483.913	11.89
484.114	11.95
484.315	11.85
484.517	12.09
484.718	12.06
484.92	12.53
485.121	12.41
485.322	12.56
485.524	12.67
485.725	12.68
485.926	12.71
486.127	12.56
486.329	12.43
486.53	12.4
486.731	12.03
486.932	11.88
487.134	11.69
487.335	11.61
487.536	11.65
487.737	11.52
487.938	11.24
488.139	11.3
488.341	11.57
488.542	11.64
488.743	11.57
488.944	11.72
489.145	11.9
489.346	11.71
489.547	11.9
489.748	11.69
489.949	11.8
490.15	11.98
490.351	12.16
490.552	12.06
490.753	12
490.954	12.05
491.155	12.1
491.356	11.87
491.557	12
491.758	11.97
491.959	11.93
492.159	11.96
492.36	11.75
492.561	11.63
492.762	11.82
492.963	11.66
493.164	11.74
493.364	11.63
493.565	11.91
493.766	12.12
493.967	12.22
494.167	12.37
494.368	12.6
494.569	12.68
494.769	12.49
494.97	12.41
495.171	12.67
495.371	12.85
495.572	13.02
495.773	12.76
495.973	12.21
496.174	12.35
496.375	12.59
496.575	12.39
496.776	12.48
496.976	12.3
497.177	12.12
497.377	12.12
497.578	11.86
497.778	11.84
497.979	12.25
498.179	12.29
498.38	12.33
498.58	11.59
498.78	11.6
498.981	11.9
499.181	12.35
499.382	11.97
499.582	11.84
499.782	11.96
499.983	11.81
500.183	11.85
500.383	12.09
500.584	11.36
500.784	11.83
500.984	11.62
501.184	11.5
501.385	11.1
501.585	11.01
501.785	11.08
501.985	11.3
502.185	11.3
502.386	11.3
502.586	11.23
502.786	12.14
502.986	12.13
503.186	12.37
503.386	12.68
503.586	13
503.786	13.56
503.987	13.89
504.187	13.3
504.387	13.73
504.587	13.39
504.787	14.04
504.987	13.77
505.187	13.85
505.387	14.12
505.587	14.02
505.786	14.2
505.986	14.47
506.186	14.38
506.386	14.79
506.586	14.58
506.786	14.76
506.986	13.96
507.186	14.25
507.386	14.36
507.585	14.23
507.785	13.89
507.985	13.57
508.185	13.37
508.384	13.37
508.584	13.51
508.784	13.43
508.984	13.95
509.183	14.24
509.383	14.16
509.583	14.44
509.782	14.21
509.982	14.83
510.182	15.11
510.381	14.9
510.581	14.84
510.781	14.75
510.98	14.73
511.18	14.46
511.379	14.55
511.579	14.65
511.778	14.55
511.978	14.73
512.177	14.31
512.377	14.25
512.576	14.68
512.776	15.19
512.975	15.4
513.175	15.59
513.374	15.47
513.573	15.62
513.773	15.52
513.972	15.55
514.172	15.69
514.371	16.01
514.57	16.26
514.77	16.3
514.969	15.68
515.168	15.55
515.367	15.74
515.567	15.45
515.766	15.36
515.965	15.65
516.164	15.66
516.364	15.4
516.563	15.76
516.762	15.64
516.961	15.61
517.16	15.71
517.359	15.62
517.559	15.61
517.758	15.92
517.957	16.48
518.156	16.04
518.355	16.21
518.554	16.63
518.753	16.13
518.952	16.26
519.151	16.13
519.35	16.08
519.549	16.06
519.748	16.31
519.947	16.08
520.146	15.46
520.345	15.55
520.544	14.97
520.743	14.85
520.942	15.15
521.141	14.87
521.339	15.07
521.538	15.06
521.737	15.71
521.936	15.32
522.135	15.75
522.333	15.85
522.532	15.93
522.731	16.1
522.93	15.53
523.129	15.21
523.327	15.64
523.526	16.06
523.725	16.71
523.923	16.66
524.122	16.75
524.321	16.72
524.519	16.87
524.718	17.31
524.917	17.75
525.115	18.2
525.314	18.62
525.512	18.46
525.711	18.44
525.909	18.15
526.108	18.01
526.306	17.98
526.505	18
526.703	18.09
526.902	17.86
527.1	17.85
527.299	17.7
527.497	17.67
527.696	17.78
527.894	17.6
528.092	17.71
528.291	17.86
528.489	17.82
528.688	17.77
528.886	17.65
529.084	17.86
529.283	17.88
529.481	17.97
529.679	17.92
529.877	17.69
530.076	17.87
530.274	17.8
530.472	17.71
530.67	18.05
530.869	18.1
531.067	18.12
531.265	18.15
531.463	18.1
531.661	18.48
531.859	18.7
532.057	18.95
532.255	18.75
532.454	18.65
532.652	18.75
532.85	18.77
533.048	18.94
533.246	19.07
533.444	18.97
533.642	19.17
533.84	19.14
534.038	18.78
534.236	18.79
534.434	18.9
534.632	19.22
534.83	19.18
535.027	19.15
535.225	18.95
535.423	18.86
535.621	18.92
535.819	18.33
536.017	18.36
536.215	18.54
536.412	18.45
536.61	18.73
536.808	18.64
537.006	18.37
537.203	18.2
537.401	18.61
537.599	18.82
537.797	18.87
537.994	19.44
538.192	19.25
538.39	19.13
538.587	19.49
538.785	19.38
538.983	19.85
539.18	20.2
539.378	20.22
539.575	20.15
539.773	20.38
539.97	20.41
540.168	20.53
540.366	20.69
540.563	21
540.761	20.92
540.958	20.95
541.155	20.59
541.353	20.57
541.55	20.73
541.748	20.84
541.945	20.74
542.143	20.74
542.34	20.78
542.537	20.57
542.735	20.58
542.932	20.57
543.129	20.65
543.327	20.88
543.524	21.04
543.721	21.06
543.919	20.78
544.116	20.97
544.313	21.35
544.51	21.14
544.708	21.13
544.905	21.09
545.102	21.02
545.299	20.98
545.496	20.93
545.693	20.78
545.891	21.26
546.088	21.4
546.285	21.32
546.482	21.28
546.679	21.58
546.876	21.85
547.073	21.87
547.27	22.03
547.467	21.98
547.664	22.48
547.861	22.46
548.058	22.39
548.255	22.83
548.452	22.76
548.649	22.86
548.846	22.53
549.043	22.54
549.24	22.46
549.437	22.89
549.633	23.18
549.83	22.92
550.027	22.85
550.224	22.89
550.421	22.39
550.618	22.05
550.814	21.67
551.011	22.56
551.208	22.78
551.405	23.36
551.601	23.13
551.798	22.82
551.995	22.93
552.191	23.5
552.388	23.29
552.585	23.6
552.781	24.41
552.978	24
553.175	23.34
553.371	23
553.568	22.22
553.764	22.3
553.961	22.58
554.157	22.65
554.354	21.84
554.55	21.77
554.747	21.48
554.943	20.8
555.14	21.57
555.336	21.72
555.533	21.94
555.729	22.51
555.926	22.46
556.122	22.96
556.318	22.66
556.515	23.36
556.711	23.76
556.907	24.64
557.104	25.17
557.3	25.69
557.496	25.91
557.693	25.43
557.889	26.09
558.085	26.06
558.281	25.5
558.478	25.95
558.674	25.83
558.87	25.93
559.066	25.26
559.262	25.33
559.459	25.38
559.655	25.49
559.851	26.1
560.047	25.44
560.243	25.39
560.439	25.65
560.635	25.79
560.831	25.94
561.027	25.6
561.223	25.75
561.419	25.7
561.615	25.29
561.811	25.36
562.007	25.51
562.203	25.78
562.399	26.18
562.595	26.22
562.791	25.95
562.987	25.74
563.183	26.32
563.379	26.66
563.575	27.26
563.771	27.81
563.966	28.13
564.162	28.62
564.358	29.26
564.554	29.11
564.75	29.04
564.945	29.41
565.141	29.73
565.337	29.29
565.533	29.57
565.728	29.14
565.924	28.89
566.12	28.52
566.315	28.73
566.511	28.62
566.707	29
566.902	29.14
567.098	28.69
567.293	29.13
567.489	29.38
567.684	29.29
567.88	29.69
568.076	30.22
568.271	30.4
568.467	30.29
568.662	30.09
568.858	29.71
569.053	29.86
569.248	29.72
569.444	29.82
569.639	29.58
569.835	29.72
570.03	29.89
570.225	29.13
570.421	28.94
570.616	28.85
570.812	28.96
571.007	29.27
571.202	29.46
571.397	29.94
571.593	29.74
571.788	29.94
571.983	29.69
572.178	29.47
572.374	29.93
572.569	30.05
572.764	29.86
572.959	29.68
573.154	29.88
573.35	29.92
573.545	29.87
573.74	30.33
573.935	30.82
574.13	30.43
574.325	30.23
574.52	30.4
574.715	30.68
574.91	30.9
575.105	31.46
575.3	31.59
575.495	31.2
575.69	31.61
575.885	31.19
576.08	30.93
576.275	31.73
576.47	32.11
576.665	31.86
576.86	31.28
577.055	31.47
577.25	31.81
577.444	31.27
577.639	32.1
577.834	31.77
578.029	31.67
578.224	31.96
578.418	32.52
578.613	32.27
578.808	32.55
579.003	33.14
579.197	33.37
579.392	32.5
579.587	32.65
579.781	32.62
579.976	33.38
580.171	33.84
580.365	33.5
580.56	33.56
580.755	33.92
580.949	34.11
581.144	34.59
581.338	34.85
581.533	35.41
581.727	35.26
581.922	35.28
582.116	34.59
582.311	33.96
582.505	34.06
582.7	32.89
582.894	33.08
583.089	32.84
583.283	33.49
583.478	32.69
583.672	31.86
583.866	32.62
584.061	32.23
584.255	32.27
584.449	33.54
584.644	33.5
584.838	34.21
585.032	34.32
585.226	34.19
585.421	33.69
585.615	34.26
585.809	35.43
586.003	35.55
586.198	36.08
586.392	36.97
586.586	36.23
586.78	36.42
586.974	36.76
587.168	36.78
587.363	36.83
587.557	37.04
587.751	36.46
587.945	36.49
588.139	36.29
588.333	36.15
588.527	35.1
588.721	35.51
588.915	35.53
589.109	35.26
589.303	35.56
589.497	36.04
589.691	35.6
589.885	36.58
590.079	35.66
590.273	36.12
590.466	36.07
590.66	36.9
590.854	36.74
591.048	36.76
591.242	36.67
591.436	36.49
591.629	36.02
591.823	36.37
592.017	36.57
592.211	37.8
592.404	36.9
592.598	37.24
592.792	37.03
592.986	37.34
593.179	37.36
593.373	37.72
593.567	37.5
593.76	37.86
593.954	38.34
594.147	38.47
594.341	38.53
594.535	38.8
594.728	38.53
594.922	38.59
595.115	38.55
595.309	39.07
595.502	38.66
595.696	39.07
595.889	38.94
596.083	37.99
596.276	37.74
596.47	37.06
596.663	37.46
596.856	37.61
597.05	37.43
597.243	37.15
597.437	36.68
597.63	36.77
597.823	36.4
598.017	36.63
598.21	37.21
598.403	36.64
598.596	37.22
598.79	37.09
598.983	37.44
599.176	38.03
599.369	38.32
599.563	37.78
599.756	38.1
599.949	37.84
600.142	37.76
600.335	37.98
600.528	38.3
600.722	37.95
600.915	38.1
601.108	37.67
601.301	37.21
601.494	37.2
601.687	38.01
601.88	37.98
602.073	38.24
602.266	38.33
602.459	37.6
602.652	38.15
602.845	37.77
603.038	37.39
603.231	37.87
603.424	38.25
603.617	38.52
603.809	38.95
604.002	39.26
604.195	39.88
604.388	39.98
604.581	40.58
604.774	40.37
604.966	40.54
605.159	40.61
605.352	40.05
605.545	40.31
605.737	39.89
605.93	39.78
606.123	38.91
606.316	38.26
606.508	38.36
606.701	37.66
606.894	37.71
607.086	38.59
607.279	38.59
607.471	39.13
607.664	38.9
607.857	40.02
608.049	39.88
608.242	40.2
608.434	40.26
608.627	40.36
608.819	40.88
609.012	41.19
609.204	41.45
609.397	41.47
609.589	41.56
609.782	41.67
609.974	40.57
610.166	40.01
610.359	40.39
610.551	40.58
610.743	40.12
610.936	40.06
611.128	39.42
611.32	38.65
611.513	39.44
611.705	40
611.897	39.24
612.09	39.54
612.282	39.54
612.474	39.2
612.666	39.79
612.858	39.75
613.051	40.26
613.243	40.32
613.435	40.28
613.627	39.34
613.819	38.2
614.011	38.35
614.203	38.9
614.395	40.03
614.588	40.13
614.78	38.74
614.972	38.91
615.164	38.57
615.356	38.84
615.548	38.99
615.74	39.75
615.932	39.72
616.124	40.45
616.315	40.21
616.507	39.75
616.699	40.05
616.891	40.11
617.083	40.31
617.275	40.97
617.467	41.48
617.659	42.15
617.85	42.35
618.042	42.68
618.234	41.81
618.426	41.38
618.618	42.35
618.809	42.78
619.001	43.17
619.193	43.09
619.384	42.16
619.576	41.44
619.768	40.92
619.959	40.84
620.151	41.79
620.343	41.82
620.534	42.41
620.726	41.09
620.917	40.04
621.109	40.13
621.301	40.51
621.492	40.46
621.684	40.81
621.875	41.03
622.067	40.78
622.258	40.86
622.45	41.68
622.641	41.94
622.832	42.62
623.024	43.03
623.215	42.93
623.407	42.12
623.598	41.97
623.789	41.95
623.981	42.24
624.172	42.53
624.363	42.15
624.555	42.37
624.746	41.44
624.937	40.57
625.129	41.26
625.32	42.01
625.511	42.71
625.702	42.55
625.893	42.42
626.085	42.25
626.276	41.91
626.467	41.72
626.658	40.98
626.849	41.13
627.04	41.34
627.231	40
627.422	39.99
627.614	39.71
627.805	40.16
627.996	40.11
628.187	39.39
628.378	40.03
628.569	39.38
628.76	40.09
628.951	39.71
629.142	40.95
629.332	41.15
629.523	41.11
629.714	40.25
629.905	40.81
630.096	40.68
630.287	40.97
630.478	41
630.669	41.56
630.859	41.69
631.05	42.49
631.241	41.55
631.432	42.16
631.623	41.16
631.813	42.06
632.004	41.8
632.195	41.65
632.385	42.43
632.576	41.47
632.767	41.07
632.957	40.44
633.148	40.01
633.339	40.01
633.529	40.01
633.72	40.58
633.91	40.42
634.101	39.3
634.292	39.17
634.482	38.73
634.673	39.29
634.863	39.24
635.054	39.23
635.244	39.42
635.435	39.49
635.625	40.31
635.815	39.97
636.006	40.87
636.196	42.05
636.387	42.18
636.577	42.78
636.767	41.8
636.958	42.08
637.148	42.36
637.338	41.97
637.529	42.35
637.719	42.26
637.909	42.92
638.099	41.31
638.29	41.63
638.48	42.31
638.67	42.68
638.86	43.15
639.05	43.06
639.241	43.76
639.431	45.01
639.621	44.42
639.811	43.19
640.001	43.32
640.191	44.58
640.381	43.69
640.571	43.43
640.761	42.51
640.951	42.5
641.141	42.74
641.331	41.55
641.521	39.99
641.711	39.43
641.901	39.29
642.091	38.14
642.281	37.18
642.471	37.71
642.661	38.04
642.851	37.12
643.041	38.36
643.231	39.02
643.42	39.43
643.61	38.95
643.8	39.18
643.99	40.77
644.18	42.6
644.369	42.72
644.559	43.42
644.749	43.59
644.939	44.93
645.128	45.29
645.318	44.75
645.508	45.88
645.697	47.45
645.887	47.87
646.076	46.55
646.266	44.73
646.456	45.41
646.645	45.93
646.835	45.9
647.024	45.43
647.214	44.66
647.403	45.42
647.593	44.06
647.782	43.91
647.972	44.7
648.161	45.7
648.351	46.26
648.54	46.55
648.73	45.68
648.919	45.7
649.108	45.2
649.298	45.73
649.487	44.81
649.677	45.65
649.866	46.13
650.055	45.36
650.244	45.77
650.434	45.84
650.623	45.75
650.812	45.2
651.002	45
651.191	45.04
651.38	44.88
651.569	44.53
651.758	44.07
651.947	44.15
652.137	43.58
652.326	42.72
652.515	42.94
652.704	42.36
652.893	42.16
653.082	41.63
653.271	42.14
653.46	41.89
653.649	42.22
653.838	41.98
654.027	41.74
654.216	42.13
654.405	42.67
654.594	41.94
654.783	42.03
654.972	42.57
655.161	43.44
655.35	43.2
655.539	42.42
655.728	42.04
655.916	41.74
656.105	41.03
656.294	41.17
656.483	40.93
656.672	42.3
656.86	42.32
657.049	41.88
657.238	41.83
657.427	42.04
657.615	42.85
657.804	44.11
657.993	44.78
658.181	45.19
658.37	45.09
658.559	45.12
658.747	43.79
658.936	44.47
659.125	46.79
659.313	46.91
659.502	47.4
659.69	47.42
659.879	47.44
660.067	48.11
660.256	47.57
660.444	47.95
660.633	48.03
660.821	49.7
661.01	49
661.198	47.26
661.387	47.1
661.575	45.98
661.763	46.05
661.952	45.39
662.14	44.54
662.328	45.47
662.517	44.87
662.705	45.1
662.893	44.13
663.082	44.69
663.27	44.55
663.458	44.63
663.646	45.53
663.834	45.47
664.023	46.13
664.211	45.59
664.399	45.42
664.587	46.32
664.775	46.36
664.963	46.89
665.152	46.45
665.34	45.12
665.528	44.95
665.716	44.02
665.904	43.51
666.092	42.62
666.28	42.82
666.468	43.34
666.656	42.65
666.844	41.99
667.032	42.63
667.22	41.91
667.408	42.52
667.596	41.49
667.784	41.98
667.971	41.27
668.159	41.3
668.347	41.73
668.535	41.08
668.723	41.73
668.911	42.07
669.098	42.01
669.286	42.82
669.474	44.09
669.662	45.49
669.849	45.85
670.037	46.13
670.225	45.71
670.413	44.55
670.6	45.37
670.788	45.81
670.976	45.52
671.163	44.05
671.351	43.13
671.538	42.71
671.726	42.77
671.913	43.2
672.101	44.18
672.289	44.19
672.476	46.21
672.664	44.82
672.851	44.62
673.039	45.03
673.226	47.02
673.413	47.95
673.601	47.25
673.788	46.99
673.976	46.77
674.163	44.99
674.35	45.03
674.538	44.41
674.725	46.11
674.912	46.25
675.1	46.42
675.287	45.79
675.474	45.3
675.662	44.41
675.849	43.77
676.036	42.83
676.223	44.05
676.411	45.57
676.598	44.39
676.785	42.15
676.972	43.22
677.159	43.57
677.346	43.33
677.533	44.14
677.721	45.02
677.908	45.61
678.095	46.78
678.282	46.82
678.469	45.95
678.656	46.83
678.843	48.47
679.03	46.88
679.217	46.31
679.404	46.03
679.591	45.25
679.778	45.62
679.964	44.64
680.151	43.35
680.338	43.09
680.525	42.97
680.712	43.25
680.899	42.89
681.086	43.64
681.272	44.05
681.459	43.92
681.646	43.32
681.833	42.42
682.02	43.63
682.206	44.38
682.393	44.44
682.58	45.62
682.766	44.71
682.953	44.32
683.14	45.08
683.326	43.65
683.513	42.62
683.7	44.71
683.886	45.23
684.073	44.51
684.259	44.64
684.446	45.06
684.632	43.29
684.819	44.5
685.005	44.57
685.192	43.72
685.378	45.71
685.565	47.34
685.751	46.11
685.938	46.28
686.124	46.38
686.31	46.59
686.497	46.02
686.683	47.16
686.87	46.44
687.056	44.94
687.242	44.5
687.429	44.34
687.615	43.57
687.801	43.76
687.987	43.74
688.174	45.4
688.36	45.06
688.546	45.2
688.732	42.99
688.918	43.44
689.105	45.95
689.291	45.7
689.477	44.79
689.663	46.49
689.849	45.57
690.035	44.77
690.221	42.47
690.407	41.28
690.593	39.98
690.779	40.65
690.965	39.85
691.151	39.97
691.337	41.24
691.523	42.59
691.709	41.36
691.895	43.14
692.081	43.98
692.267	43.86
692.453	45.17
692.639	47.51
692.825	48.29
693.011	48.44
693.196	46.63
693.382	45.7
693.568	45.42
693.754	46.08
693.94	45.85
694.125	45.76
694.311	47.52
694.497	47.42
694.682	46.14
694.868	46.19
695.054	46.18
695.239	46.26
695.425	45.31
695.611	44.51
695.796	42.48
695.982	42.22
696.168	42.58
696.353	42.46
696.539	43.13
696.724	43.16
696.91	43.82
697.095	42.93
697.281	43.64
697.466	44.13
697.652	44.04
697.837	44.72
698.023	44.77
698.208	44.48
698.393	44
698.579	43.87
698.764	43.85
698.949	42.96
699.135	43.69
699.32	44.02
699.505	44.91
699.691	45.56
699.876	45.48
700.061	45.66
700.246	44.89
700.432	45.38
700.617	45.05
700.802	47.42
700.987	49.25
701.172	50.13
701.358	49.36
701.543	47.43
701.728	47.36
701.913	46.73
702.098	45.96
702.283	47.51
702.468	47.55
702.653	47.01
702.838	46.57
703.023	45.24
703.208	44.46
703.393	45.31
703.578	47.51
703.763	47.03
703.948	49.07
704.133	49.13
704.318	48.79
704.503	49.69
704.688	51.1
704.873	49.04
705.057	48.98
705.242	49.49
705.427	47.71
705.612	46.08
705.797	45.88
705.981	45.28
706.166	45.58
706.351	44.49
706.536	43.31
706.72	42.16
706.905	42.49
707.09	42.81
707.274	42.49
707.459	41.3
707.644	42.94
707.828	42.83
708.013	42.49
708.197	43.03
708.382	44.75
708.567	44.76
708.751	43.86
708.936	44.42
709.12	45.2
709.305	45.33
709.489	49.7
709.673	48.48
709.858	48.35
710.042	47.92
710.227	47.77
710.411	47.22
710.596	47.21
710.78	47.42
710.964	47.15
711.149	45.55
711.333	45.19
711.517	44.37
711.702	44.16
711.886	45.22
712.07	45.94
712.254	45.75
712.438	46.68
712.623	45.8
712.807	45.8
712.991	46.86
713.175	47.3
713.359	47.56
713.544	45.12
713.728	44.48
713.912	45.29
714.096	44.91
714.28	45.89
714.464	46.37
714.648	47.06
714.832	47.79
715.016	47.18
715.2	46.86
715.384	48.96
715.568	49.5
715.752	49.71
715.936	47.84
716.12	47.79
716.304	47.84
716.488	46.21
716.671	43.98
716.855	45.13
717.039	45.24
717.223	45.87
717.407	43.13
717.59	43.43
717.774	44.82
717.958	41.43
718.142	43.17
718.325	41.51
718.509	41.28
718.693	44.07
718.877	40.45
719.06	41.4
719.244	41.2
719.428	41.73
719.611	40.6
719.795	40.41
719.978	45.1
720.162	43.97
720.345	44.83
720.529	44.27
720.713	43.26
720.896	45.69
721.08	45.62
721.263	45.13
721.446	44.52
721.63	46.36
721.813	46.63
721.997	46.24
722.18	47.28
722.364	46.83
722.547	48.22
722.73	49.86
722.914	49.77
723.097	47.71
723.28	47.49
723.464	49.3
723.647	49.5
723.83	47.9
724.013	47.38
724.197	45.8
724.38	46.08
724.563	46.4
724.746	43.76
724.929	43.34
725.112	44.05
725.296	45.81
725.479	43.89
725.662	44.98
725.845	45.62
726.028	46.1
726.211	49.04
726.394	47.92
726.577	46.87
726.76	48.62
726.943	50.3
727.126	50.66
727.309	50.51
727.492	50.12
727.675	49.78
727.858	50.89
728.041	50.75
728.224	50.14
728.407	49.68
728.589	50.31
728.772	50.53
728.955	48.91
729.138	50.05
729.321	48.49
729.503	48.09
729.686	46.19
729.869	45.47
730.052	45.55
730.234	42.47
730.417	44.34
730.6	43.67
730.782	41.76
730.965	40.9
731.148	38.54
731.33	40.07
731.513	41.59
731.695	40.44
731.878	39.7
732.061	40
732.243	41.45
732.426	40.04
732.608	41.97
732.791	45.05
732.973	46.86
733.156	48.42
733.338	48
733.52	47.53
733.703	49.97
733.885	51.09
734.068	51.11
734.25	50.34
734.432	49.58
734.615	48.05
734.797	48.02
734.979	47.46
735.162	48.05
735.344	48.35
735.526	48.06
735.708	48.09
735.891	48.96
736.073	49.06
736.255	49.57
736.437	49
736.619	49.44
736.802	45.69
736.984	47.08
737.166	44.42
737.348	44.51
737.53	46.43
737.712	46.29
737.894	47.57
738.076	48.72
738.258	48.5
738.44	49.76
738.622	49.61
738.804	50.5
738.986	45.97
739.168	45.49
739.35	44.6
739.532	41.91
739.714	41.71
739.896	39.77
740.078	37.6
740.259	35.93
740.441	36.15
740.623	35.64
740.805	37.53
740.987	39.7
741.168	40.75
741.35	41.8
741.532	43.38
741.714	41.84
741.895	41.13
742.077	38.31
742.259	40.54
742.44	40.87
742.622	40.78
742.804	40.56
742.985	42.36
743.167	39.27
743.348	38.79
743.53	37.43
743.711	39.08
743.893	41.72
744.075	42.34
744.256	39.9
744.438	40.53
744.619	39.49
744.8	40.03
744.982	36.55
745.163	40.85
745.345	39.6
745.526	41.36
745.707	40.24
745.889	39.1
746.07	45.32
746.252	47.44
746.433	46.72
746.614	47.82
746.795	48.75
746.977	50.35
747.158	52.77
747.339	54.13
747.52	51.41
747.702	53.43
747.883	53.48
748.064	50.33
748.245	50.08
748.426	51.23
748.607	51.57
748.788	50.3
748.97	51.3
749.151	49.02
749.332	49.45
749.513	50.27
749.694	47.93
749.875	46.85
750.056	50.28
750.237	51.24
750.418	49.02
750.599	46.84
750.78	46.2
750.96	45.43
751.141	41.86
751.322	39.34
751.503	42.94
751.684	40.74
751.865	41.59
752.046	39.92
752.226	38.47
752.407	38.06
752.588	37.8
752.769	36.64
752.949	37.37
753.13	42.54
753.311	44.66
753.492	41.5
753.672	41.94
753.853	39.53
754.034	35.99
754.214	38.55
754.395	39.59
754.575	42.56
754.756	42.4
754.937	41.09
755.117	37.75
755.298	35.76
755.478	35.44
755.659	36.19
755.839	36.04
756.02	36.71
756.2	34.78
756.381	33.07
756.561	29.9
756.741	29.35
756.922	31.92
757.102	31.74
757.283	30.93
757.463	30.96
757.643	30.17
757.823	31.36
758.004	32.83
758.184	33.54
758.364	36.02
758.545	37.27
758.725	41.29
758.905	39.72
759.085	45.08
759.265	45.56
759.446	46.16
759.626	50.27
759.806	50.11
759.986	52.61
760.166	51.82
760.346	51.79
760.526	53.76
760.706	53.22
760.886	55.24
761.066	52.08
761.246	52.34
761.426	53.6
761.606	49.65
761.786	51.42
761.966	48.87
762.146	50.55
762.326	51.13
762.506	49.82
762.686	49.41
762.866	48.85
763.046	48.18
763.225	49.79
763.405	49.19
763.585	51.56
763.765	52.28
763.945	53.38
764.124	49.64
764.304	48.05
764.484	47.83
764.664	46.46
764.843	47.3
765.023	45.81
765.203	43.32
765.382	42.23
765.562	40.95
765.741	39.34
765.921	38.42
766.101	43.98
766.28	47.24
766.46	46.37
766.639	48.67
766.819	45.96
766.998	49.06
767.178	49.1
767.357	47.25
767.537	46.94
767.716	46.38
767.896	43.26
768.075	37.43
768.254	34.85
768.434	36.67
768.613	36.4
768.792	32.63
768.972	31.05
769.151	34.4
769.33	39.84
769.51	40.94
769.689	42.01
769.868	46.89
770.047	53.03
770.226	52.25
770.406	53.97
770.585	52.54
770.764	55.01
770.943	54
771.122	52.45
771.301	46.89
771.48	44.33
771.66	43.45
771.839	43.63
772.018	40.36
772.197	41.01
772.376	37.78
772.555	42.3
772.734	42.58
772.913	44.61
773.092	40.96
773.271	48.15
773.449	45.69
773.628	44.41
773.807	44.94
773.986	42.07
774.165	40.32
774.344	43.45
774.523	34.54
774.701	36.89
774.88	34.12
775.059	35.14
775.238	28.63
775.417	36.36
775.595	39.17
775.774	37.85
775.953	40.8
776.131	45.62
776.31	45.18
776.489	47.05
776.667	43.33
776.846	47.93
777.025	50.13
777.203	52.12
777.382	51.24
777.56	49.81
777.739	48.69
777.917	47.95
778.096	45.16
778.274	44.75
778.453	46.19
778.631	48.1
778.81	42.13
778.988	43.81
779.166	44.34
779.345	44.38
779.523	44.01
779.702	44.43
779.88	44.75
780.058	46.06
780.237	44.77
780.415	46.83
780.593	41.6
780.771	47
780.95	42.19
781.128	40.56
781.306	41.63
781.484	37.18
781.662	30.85
781.841	31.19
782.019	36.57
782.197	34.92
782.375	34.85
782.553	37.83
782.731	33.85
782.909	37.23
783.087	35.08
783.265	35.35
783.443	36.4
783.621	44.89
783.799	43.52
783.977	35.01
784.155	32.48
784.333	31.14
784.511	33
784.689	35.44
784.867	34.05
785.045	41.64
785.223	33.56
785.4	36.87
785.578	29.95
785.756	35.71
785.934	34.92
786.112	37.5
786.289	36.05
786.467	39.94
786.645	42.84
786.823	42.18
787	37.87
787.178	43.26
787.356	39.81
787.533	42.03
787.711	38.19
787.889	38.89
788.066	44.39
788.244	49.08
788.421	44.17
788.599	41.31
788.776	40.61
788.954	39.06
789.131	35.08
789.309	34.97
789.486	36.43
789.664	39.13
789.841	43.51
790.019	38.25
790.196	32.62
790.373	35.53
790.551	42.81
790.728	43.97
790.906	45.56
791.083	50.77
791.26	52.94
791.437	50.89
791.615	51.27
791.792	46.49
791.969	50.16
792.146	50.58
792.324	50.36
792.501	43.76
792.678	46.32
792.855	45.82
793.032	44.33
793.209	45.34
793.387	41.11
793.564	33.56
793.741	34.11
793.918	29.81
794.095	31.29
794.272	31.19
794.449	35.05
794.626	28.98
794.803	34.1
794.98	24.87
795.157	29.41
795.334	39.89
795.511	42.05
795.688	42.71
795.864	49.84
796.041	51.8
796.218	45.91
796.395	39.93
796.572	38.06
796.749	32.16
796.925	34.74
797.102	33.4
797.279	30.51
797.456	37.84
797.632	38.08
797.809	31.09
797.986	23.96
798.162	26.71
798.339	23.56
798.516	26.51
798.692	30.19
798.869	29.1
799.046	30.83
799.222	30.29
799.399	31.29
799.575	36.56
799.752	36.6
799.928	44.12
800.105	48.18
800.281	59.06
800.458	58.68
800.634	60.54
800.811	59.61
800.987	56.31
801.163	56.48
801.34	50.06
801.516	40.72
801.692	42.46
801.869	43.39
802.045	43.48
802.221	36.71
802.398	43.12
802.574	40.6
802.75	43.54
802.926	40.12
803.103	36.63
803.279	30.58
803.455	36.31
803.631	33.85
803.807	29.75
803.983	29.21
804.16	21.11
804.336	15.28
804.512	20.72
804.688	20.43
804.864	31.16
805.04	44.49
805.216	45.88
805.392	53.36
805.568	53.57
805.744	55.23
805.92	53.26
806.096	54.51
806.272	54.26
806.448	49.07
806.623	47.63
806.799	40.24
806.975	33.37
807.151	47.18
807.327	29.53
807.503	22.23
807.678	12.46
807.854	18.91
808.03	27.77
808.206	31
808.381	34.39
808.557	48.98
808.733	49.01
808.908	43.94
809.084	37.33
809.26	45.78
809.435	55.65
809.611	62.35
809.787	59.17
809.962	52.47
810.138	48.74
810.313	47.47
810.489	29.92
810.664	29.13
810.84	33.91
811.015	42.77
811.191	37.63
811.366	39.3
811.542	38.3
811.717	37.78
811.892	40.95
812.068	34.07
812.243	35.32
812.419	39.48
812.594	39.6
812.769	39.6
812.944	26.11
813.12	29.64
813.295	28.4
813.47	23.43
813.645	20.65
813.821	23.48
813.996	33.16
814.171	34.46
814.346	38.96
814.521	47.89
814.697	49.37
814.872	56.09
815.047	59.36
815.222	55.23
815.397	52.47
815.572	52.67
815.747	47.36
815.922	48.21
816.097	49.01
816.272	44.55
816.447	39.59
816.622	37.75
816.797	39.47
816.972	35.04
817.147	32.88
817.322	35.19
817.496	31.36
817.671	32.14
817.846	35.38
818.021	27.82
818.196	33.08
818.371	32.23
818.545	36.55
818.72	30.9
818.895	32.66
819.069	29.1
819.244	28.82
819.419	29.92
819.594	29.28
819.768	28.34
819.943	32.35
820.117	30.73
820.292	32.59
820.467	32.77
820.641	34.91
820.816	35.98
820.99	38.88
821.165	39.66
821.339	41.23
821.514	40.55
821.688	39.46
821.863	38.36
822.037	37.75
822.212	38.17
822.386	37.65
822.56	37.03
822.735	35.83
822.909	36.12
823.084	36.62
823.258	35.78
823.432	36.11
823.606	37.99
823.781	39.7
823.955	40.1
824.129	39.01
824.303	39.9
824.478	39.95
824.652	40.85
824.826	40.45
825	39.36
825.174	38.65
825.348	38.15
825.523	34.84
825.697	33.37
825.871	33.17
826.045	34.5
826.219	33.66
826.393	35.54
826.567	37.63
826.741	38.64
826.915	40.11
827.089	40.64
827.263	42.37
827.437	43.14
827.611	45.9
827.784	48.29
827.958	47.93
828.132	47.85
828.306	46.28
828.48	43.95
828.654	41.29
828.827	38.83
829.001	38.11
829.175	36.49
829.349	34.66
829.522	29.63
829.696	26.51
829.87	21.22
830.044	18.78
830.217	23.68
830.391	22.88
830.565	22.6
830.738	23
830.912	24.66
831.085	24.96
831.259	25.68
831.432	26.81
831.606	27.46
831.779	31.36
831.953	31.83
832.126	30.71
832.3	31.19
832.473	32.17
832.647	34.37
832.82	36.79
832.994	38.98
833.167	36.38
833.34	37.02
833.514	37.99
833.687	39.09
833.86	38.32
834.034	40.83
834.207	44.73
834.38	41.49
834.553	40.69
834.727	37.96
834.9	37.72
835.073	39.98
835.246	38.79
835.419	31.65
835.593	24.93
835.766	26.68
835.939	16.32
836.112	9.56
836.285	16.63
836.458	14.93
836.631	16.72
836.804	6.69
836.977	17.93
837.15	18.88
837.323	27.15
837.496	33.62
837.669	39.87
837.842	49.32
838.015	50.72
838.188	36.18
838.361	32.5
838.533	35.91
838.706	37.94
838.879	39.81
839.052	31.8
839.225	29.79
839.398	24.36
839.57	17.66
839.743	13.99
839.916	17.45
840.088	22.93
840.261	19.39
840.434	11.88
840.607	13.24
840.779	7.79
840.952	14.67
841.124	21.19
841.297	20.51
841.47	6.93
841.642	12.17
841.815	13.47
841.987	17.05
842.16	28.28
842.332	31.73
842.505	31.9
842.677	18.17
842.85	26.14
843.022	21.25
843.194	30.85
843.367	54.02
843.539	56.8
843.712	58.09
843.884	34.19
844.056	23.26
844.229	23.88
844.401	22.4
844.573	30.41
844.745	38.66
844.918	16.05
845.09	-56.01
845.262	-139.27
845.434	-275.71
845.606	-77.17
845.779	-45.7
845.951	-53.88
846.123	-22.32
846.295	-11.95
846.467	9.18
846.639	-27.61
846.811	6.4
846.983	30.07
847.155	28.62
847.327	45.21
847.499	33.7
847.671	24.04
847.843	-2.15
848.015	-16.51
848.187	-18.09
848.359	-10.94
848.531	-38.29
848.703	-104.2
848.875	-95.22
849.047	-133.71
849.218	-122.88
849.39	-197.17
849.562	-164.5
849.734	-119.13
849.905	-190.68
850.077	-251.12
850.249	-461.1
850.421	-126.24
850.592	-106.03
850.764	-30.2
850.936	5.5
851.107	-0.05
851.279	13.57
851.451	41.73
851.622	23.45
851.794	49.54
851.965	84.33
852.137	71.16
852.308	96.81
852.48	107.27
852.651	80.62
852.823	59.12
852.994	79.7
853.166	76.41
853.337	64.55
853.509	54.76
853.68	52.7
853.851	42.81
854.023	85.31
854.194	69.39
854.365	60.59
854.537	76.68
854.708	61.56
854.879	63.8
855.05	55.16
855.222	60.9
855.393	78.5
855.564	90.5
855.735	50.92
855.906	-8.9
856.078	20.68
856.249	3.59
856.42	-41.74
856.591	-28.54
856.762	-7.8
856.933	-19.06
857.104	-7.59
857.275	-52.15
857.446	-35.56
857.617	-25.06
857.788	-6.62
857.959	-3.08
858.13	25.96
858.301	22.8
858.472	13.58
858.643	-26.85
858.814	-12.91
858.985	-8.63
859.155	1.85
859.326	10.64
859.497	24.05
859.668	30.53
859.839	19.72
860.009	-9.47
860.18	-15.24
860.351	-2.44
860.522	1.52
860.692	4.3
860.863	-19.72
861.034	-11.37
861.204	-14.37
861.375	-39.38
861.546	-47.7
861.716	-63.29
861.887	-32.21
862.057	-30.59
862.228	-15.6
862.398	-24.73
862.569	-19.41
862.739	-9.82
862.91	-18.63
863.08	-63.89
863.251	-44.36
863.421	-54.01
863.592	-33.89
863.762	-33.47
863.932	-22.1
864.103	-69.44
864.273	-74.87
864.443	-123.76
864.614	-109.61
864.784	-105.67
864.954	-258.74
865.125	-163.6
865.295	-217.6
865.465	-265.52
865.635	-298.16
865.805	-471.05
865.976	-711.74
866.146	-407.15
866.316	-136.42
866.486	-45.76
866.656	-246.93
866.826	-11.5
866.996	-39.36
867.166	17.17
867.336	34.37
867.506	37.15
867.676	27.28
867.846	31.03
868.016	21.14
868.186	12.8
868.356	-13.17
868.526	-4.63
868.696	-11.61
868.866	-9.18
869.036	26.05
869.206	21.14
869.376	-13.76
869.545	-20.95
869.715	-54.6
869.885	-31.41
870.055	-42.37
870.224	-125.84
870.394	-137.79
870.564	-55.45
870.734	-62.73
870.903	-163.86
871.073	-231.17
871.243	-108.29
871.412	-67.96
871.582	-63.18
871.751	-66.35
871.921	-53.56
872.091	-24.23
872.26	-19.69
872.43	-49.73
872.599	7.14
872.769	4.09
872.938	-5.06
873.108	9.73
873.277	17.66
873.446	-17.78
873.616	-37.78
873.785	-26.97
873.955	53.16
874.124	20.57
874.293	25.22
874.463	-37.79
874.632	-9.12
874.801	-58.63
874.971	-108.98
875.14	-52.05
875.309	-35.44
875.478	-29.12
875.647	-34.52
875.817	-58.15
875.986	-59.25
876.155	-75.43
876.324	-91.73
876.493	-247.05
876.662	-159.98
876.831	-151.78
877	-150.05
877.17	-510.96
877.339	-218.52
877.508	-272.08
877.677	-216.88
877.846	-191.7
878.015	-252.9
878.184	-53.23
878.352	-107.43
878.521	-60.69
878.69	-83.07
878.859	-34.08
879.028	-19.88
879.197	-15.73
879.366	-17.05
879.534	-14.72
879.703	11.71
879.872	17.54
880.041	20.46
880.21	36.68
880.378	43.16
880.547	53.68
880.716	52.88
880.884	47.55
881.053	47.04
881.222	46.64
881.39	49.42
881.559	43.1
881.727	41.82
881.896	40.62
882.065	39.1
882.233	37.83
882.402	32.88
882.57	30.01
882.739	32.66
882.907	32.05
883.076	30.07
883.244	28.63
883.412	29.94
883.581	29.55
883.749	26.96
883.918	23.05
884.086	22.77
884.254	21.62
884.423	17.76
884.591	18.05
884.759	19.71
884.927	22
885.096	15.24
885.264	7.56
885.432	1.25
885.6	2.79
885.769	15.58
885.937	18.41
886.105	23.53
886.273	37.45
886.441	32.38
886.609	31.86
886.777	24.03
886.945	36.45
887.113	52.33
887.281	70.04
887.449	73.15
887.617	33.14
887.785	52.62
887.953	58.9
888.121	20.97
888.289	-11.51
888.457	-28.81
888.625	-23.03
888.793	-27.35
888.961	-76.85
889.129	-90.8
889.296	-83.51
889.464	-85.96
889.632	-215.7
889.8	-198.46
889.967	-322.96
890.135	-80.54
