Data from JASIL_3015_Reflection_01.txt Node
Date: Mon Nov 09 10:38:13 EST 2015
User: Geneva
Spectrometer: USB4E03002
Autoset integration time: false
Trigger mode: 4
Integration Time (sec): 1.000000E-1
Scans to average: 10
Electric dark correction enabled: false
Nonlinearity correction enabled: false
Boxcar width: 5
Stray light correction enabled: false
XAxis mode: Wavelengths
Stop averaging: false
Number of Pixels in Spectrum: 3648
>>>>>Begin Spectral Data<<<<<
177.575	69.25
177.794	39.24
178.014	70
178.233	99.24
178.452	96.62
178.672	3.51
178.891	26.09
179.11	248.78
179.33	2363.64
179.549	242.31
179.768	104.42
179.987	476.39
180.207	-403.33
180.426	-641.79
180.645	-140.14
180.864	-74.34
181.084	-25.12
181.303	-20.14
181.522	-3.87
181.741	22.01
181.96	15.32
182.179	50.75
182.398	66.05
182.618	74.52
182.837	91.75
183.056	194.74
183.275	-40
183.494	208.89
183.713	102.5
183.932	-65.96
184.151	33.33
184.37	40.31
184.589	-822.22
184.808	97.47
185.027	68.18
185.246	14.13
185.465	26.47
185.684	5.78
185.903	32.37
186.122	47.41
186.341	19.83
186.56	34.32
186.779	-104.08
186.998	119.78
187.216	70.4
187.435	46.87
187.654	-23.88
187.873	0.52
188.092	47.39
188.311	38.6
188.53	47.18
188.748	53.26
188.967	69.39
189.186	243.01
189.405	161.8
189.623	271.96
189.842	131.75
190.061	760
190.28	61.7
190.498	-73.33
190.717	-66.19
190.936	-28.74
191.154	-35.2
191.373	-68.84
191.592	18.18
191.81	-3.06
192.029	37.57
192.248	18.61
192.466	43.81
192.685	23.15
192.904	382.61
193.122	-82.61
193.341	1860
193.559	-1033.33
193.778	-337.5
193.996	-607.14
194.215	-500
194.433	-344.95
194.652	-172.78
194.87	-63.24
195.089	-34.86
195.307	-50.67
195.526	-139.51
195.744	-51.71
195.963	-30.88
196.181	-102.13
196.399	-51.81
196.618	-75.18
196.836	-11.87
197.055	-34.58
197.273	34.47
197.491	125.5
197.71	82.26
197.928	28.05
198.146	96.33
198.365	53.05
198.583	-288.89
198.801	37.17
199.019	8.11
199.238	42.99
199.456	46.12
199.674	127.01
199.892	212.96
200.111	164
200.329	-250
200.547	333.33
200.765	-196.1
200.983	294.7
201.202	322.62
201.42	211.16
201.638	205.8
201.856	537.78
202.074	729.29
202.292	1130.16
202.51	1045.83
202.728	12600
202.946	-331.06
203.165	2800
203.383	-703.85
203.601	-1527.27
203.819	470.93
204.037	431.25
204.255	236.5
204.473	325.56
204.691	380.39
204.909	-1300
205.127	778.79
205.345	892.16
205.562	-757.41
205.78	1044
205.998	659.42
206.216	463.21
206.434	451.69
206.652	3028.57
206.87	-105.08
207.088	3.03
207.306	-80.89
207.523	-34.85
207.741	137.36
207.959	89.19
208.177	105.63
208.395	158.56
208.612	96.9
208.83	69.11
209.048	59.73
209.266	-22.06
209.483	-36.07
209.701	-144.83
209.919	-1350
210.136	-83.64
210.354	75
210.572	51.06
210.79	186.11
211.007	78.1
211.225	122.81
211.442	207.89
211.66	-0.82
211.878	143.42
212.095	96.23
212.313	2966.67
212.53	25.41
212.748	74.88
212.966	246.34
213.183	2650
213.401	49.12
213.618	89
213.836	72.11
214.053	59.62
214.271	-77.18
214.488	16.93
214.705	-54.25
214.923	-25.13
215.14	-164.57
215.358	-68.72
215.575	6.38
215.793	-356.06
216.01	-1491.67
216.227	-687.04
216.445	285.78
216.662	392.86
216.879	200
217.097	191.08
217.314	216.13
217.531	84.48
217.749	17.67
217.966	68.46
218.183	100.51
218.4	95.78
218.618	158.29
218.835	101.71
219.052	90.94
219.269	118.42
219.487	121.08
219.704	103.31
219.921	72.76
220.138	-18.52
220.355	-48.73
220.572	-9433.33
220.79	300.93
221.007	304.41
221.224	398.96
221.441	333.56
221.658	-174.88
221.875	-115.3
222.092	-27.7
222.309	-23.29
222.526	-6.63
222.743	-6.42
222.96	-3.13
223.177	0.4
223.394	-5.5
223.611	16.74
223.828	27.66
224.045	29.72
224.262	34.41
224.479	18.94
224.696	17.16
224.913	28.16
225.13	27.61
225.347	38.18
225.564	48.22
225.781	48.58
225.997	37.57
226.214	26.11
226.431	17.66
226.648	17.29
226.865	19.66
227.082	22.78
227.298	21.25
227.515	21.07
227.732	14.87
227.949	6.06
228.165	7.01
228.382	9.14
228.599	12.64
228.816	11.08
229.032	5.05
229.249	0.92
229.466	1.61
229.682	-5.13
229.899	-1.83
230.116	5.52
230.332	16.09
230.549	6.35
230.765	-1.86
230.982	4.62
231.199	20.69
231.415	25.81
231.632	26.94
231.848	19.71
232.065	26.89
232.281	18.32
232.498	7.6
232.714	19.22
232.931	30.35
233.147	34.07
233.364	26.48
233.58	16.18
233.797	9.64
234.013	9.19
234.23	5.95
234.446	-4.06
234.662	0
234.879	6.88
235.095	-1.25
235.312	-0.24
235.528	-8.92
235.744	-6.32
235.961	3.16
236.177	0.26
236.393	-0.89
236.61	6.04
236.826	9.33
237.042	16.24
237.258	14.84
237.475	13.48
237.691	7.14
237.907	11.69
238.123	15.41
238.339	10.61
238.556	19.34
238.772	20.39
238.988	12.86
239.204	16.62
239.42	16.64
239.636	14.28
239.853	15.41
240.069	13.12
240.285	11.09
240.501	11.66
240.717	8.95
240.933	5.9
241.149	7.18
241.365	4.06
241.581	3.76
241.797	3.1
242.013	6.86
242.229	7.41
242.445	7.12
242.661	9.47
242.877	9.62
243.093	9.97
243.309	13.37
243.525	9.31
243.741	22.47
243.957	24.05
244.173	20.93
244.388	17.06
244.604	15.09
244.82	16.25
245.036	17.62
245.252	15.95
245.468	16.22
245.683	14.31
245.899	14.5
246.115	11.31
246.331	10.88
246.547	11.73
246.762	10.15
246.978	8.95
247.194	5.98
247.409	2.2
247.625	2.48
247.841	2.38
248.057	3.89
248.272	5.31
248.488	8.31
248.703	7.57
248.919	4.92
249.135	7.08
249.35	6.91
249.566	15
249.782	13.2
249.997	10.57
250.213	11.41
250.428	9.46
250.644	8.49
250.859	7.64
251.075	7.92
251.29	8.55
251.506	12.09
251.721	13.45
251.937	8.68
252.152	15.12
252.368	17.37
252.583	16.2
252.798	23.36
253.014	23.27
253.229	23.8
253.445	21.71
253.66	21.39
253.875	15.28
254.091	14.85
254.306	19.28
254.521	15.73
254.737	7.67
254.952	11.98
255.167	7.04
255.383	6.82
255.598	5.27
255.813	4.14
256.028	1.45
256.244	8.83
256.459	9.21
256.674	9.04
256.889	9.84
257.104	12.2
257.32	6.81
257.535	3.7
257.75	4.55
257.965	4.8
258.18	5.87
258.395	6.88
258.61	5.96
258.826	5.58
259.041	4.66
259.256	3.11
259.471	2.98
259.686	4.35
259.901	6.42
260.116	3.45
260.331	3.77
260.546	1.32
260.761	1.76
260.976	0.83
261.191	-1.6
261.406	-1.34
261.621	1.7
261.836	0.82
262.05	1.1
262.265	-4.41
262.48	-0.39
262.695	-0.83
262.91	3.62
263.125	1.27
263.34	0.25
263.555	3.6
263.769	3.74
263.984	4.77
264.199	8.71
264.414	7.71
264.629	8.76
264.843	6.56
265.058	4.11
265.273	2.56
265.488	5.46
265.702	2.69
265.917	5.77
266.132	10.04
266.346	8.11
266.561	6.91
266.776	6.33
266.99	7.08
267.205	10.17
267.42	9.5
267.634	11.86
267.849	11.1
268.063	9.86
268.278	6.03
268.492	3.38
268.707	4.81
268.922	5.33
269.136	6.38
269.351	7.19
269.565	6.33
269.78	7
269.994	4.39
270.209	3.02
270.423	6.06
270.637	6.8
270.852	7.05
271.066	6.96
271.281	6.05
271.495	6.15
271.709	4.48
271.924	3.96
272.138	5.51
272.353	5.96
272.567	7.55
272.781	8.35
272.996	9.5
273.21	8.16
273.424	8.2
273.638	8.8
273.853	9.61
274.067	12.43
274.281	13.86
274.495	13.55
274.71	13.13
274.924	11.64
275.138	14.01
275.352	9.86
275.566	10.83
275.781	8.98
275.995	10.06
276.209	5.71
276.423	5.76
276.637	3.23
276.851	2.41
277.065	4.2
277.279	4.01
277.493	3.07
277.707	4.05
277.921	6.2
278.135	6.09
278.349	6.16
278.563	5.47
278.777	5.56
278.991	7.79
279.205	7.52
279.419	4.61
279.633	5.33
279.847	4.78
280.061	4.47
280.275	-1.15
280.489	-0.62
280.703	-4.02
280.917	-1.22
281.131	-3.36
281.344	-4.94
281.558	-4.12
281.772	-4.18
281.986	-5.71
282.2	-8.32
282.414	-6.62
282.627	-3.42
282.841	-5.03
283.055	-2.14
283.269	-1.33
283.482	-0.31
283.696	0.44
283.91	0.42
284.123	1.14
284.337	1.26
284.551	1.4
284.764	2.52
284.978	2.31
285.192	4.45
285.405	4.69
285.619	4.02
285.833	4.8
286.046	3.65
286.26	2.62
286.473	2.6
286.687	3.62
286.9	5.72
287.114	2.18
287.327	3.14
287.541	2.87
287.754	2
287.968	5.02
288.181	3.38
288.395	5.86
288.608	5.66
288.822	4.33
289.035	4.31
289.248	2.66
289.462	6.09
289.675	4.65
289.889	1.5
290.102	0.89
290.315	-0.52
290.529	-0.08
290.742	-1.02
290.955	0.02
291.169	1.42
291.382	0.89
291.595	1.49
291.808	0.2
292.022	-1.06
292.235	0.76
292.448	0.78
292.661	-0.3
292.875	1.42
293.088	-2.31
293.301	-1.9
293.514	-1.54
293.727	-0.54
293.94	-1.22
294.153	0.64
294.367	1.92
294.58	1.36
294.793	2.5
295.006	2.24
295.219	1.48
295.432	3.17
295.645	3.2
295.858	4.34
296.071	2.87
296.284	2.75
296.497	1.6
296.71	-0.53
296.923	1.29
297.136	0.5
297.349	-0.12
297.562	-1.1
297.775	-0.77
297.988	-1.55
298.201	-4.54
298.414	-4.44
298.626	-3.11
298.839	-4.9
299.052	-1.63
299.265	-2.44
299.478	-3.75
299.691	-4.35
299.903	-4.06
300.116	-3.6
300.329	-3.88
300.542	-2.72
300.755	-2.33
300.967	-2.37
301.18	-1.74
301.393	-0.52
301.605	1.13
301.818	3.02
302.031	3.61
302.243	3.31
302.456	2.12
302.669	3.54
302.881	4.15
303.094	2.81
303.307	2.2
303.519	1.85
303.732	0.06
303.944	-2.67
304.157	-2.78
304.37	-3.62
304.582	-3.51
304.795	-2.89
305.007	-2.7
305.22	-3.39
305.432	-0.92
305.645	-1.35
305.857	-1.51
306.069	-0.17
306.282	1.29
306.494	2.85
306.707	3.61
306.919	4.92
307.132	4.45
307.344	4.07
307.556	4.1
307.769	3.21
307.981	3.3
308.193	4.57
308.406	4.5
308.618	2.38
308.83	0.41
309.043	-0.3
309.255	0.9
309.467	2.67
309.679	3.12
309.892	3.39
310.104	5.25
310.316	6.18
310.528	5.59
310.74	5.68
310.953	7.81
311.165	7.23
311.377	9.33
311.589	4.96
311.801	4.44
312.013	4.42
312.225	5.11
312.437	3.44
312.649	-0.77
312.862	0.01
313.074	-0.64
313.286	0.39
313.498	0.81
313.71	2.57
313.922	7.39
314.134	6.72
314.346	7.19
314.558	9.47
314.77	9.25
314.982	13.39
315.193	16.83
315.405	16.21
315.617	15.89
315.829	19.04
316.041	15.69
316.253	14.97
316.465	14.59
316.677	13.38
316.888	9.64
317.1	11.8
317.312	9.91
317.524	6.36
317.736	6.5
317.947	5.76
318.159	5.26
318.371	8.91
318.583	10.77
318.794	12.4
319.006	11.58
319.218	13.45
319.43	11.51
319.641	12.48
319.853	13
320.064	12.89
320.276	12.48
320.488	11.68
320.699	9.67
320.911	7.99
321.123	7.62
321.334	8.04
321.546	7.73
321.757	10.09
321.969	11.45
322.18	12.46
322.392	12.6
322.603	11.56
322.815	8.04
323.026	7.84
323.238	9.74
323.449	9.12
323.661	9.12
323.872	7.98
324.083	7.53
324.295	6.97
324.506	4.91
324.718	4.05
324.929	4.27
325.14	6.07
325.352	6.98
325.563	4.65
325.774	4.47
325.986	6.93
326.197	8.46
326.408	6.63
326.62	6.44
326.831	6.71
327.042	9.47
327.253	10.9
327.464	12.2
327.676	11.05
327.887	11.74
328.098	12.33
328.309	9.97
328.52	11.01
328.732	13.01
328.943	13.83
329.154	13.59
329.365	11.34
329.576	9.53
329.787	8.78
329.998	9.45
330.209	7.34
330.42	7.6
330.631	9.44
330.842	5.94
331.053	6.37
331.264	6.66
331.475	6.58
331.686	6.86
331.897	7.54
332.108	5.29
332.319	6.72
332.53	8.09
332.741	8.65
332.952	7.7
333.163	9.74
333.374	6.63
333.585	5.66
333.795	8.42
334.006	7.93
334.217	9.31
334.428	11.17
334.639	8.41
334.849	5.67
335.06	2.51
335.271	3.85
335.482	3.96
335.692	6.25
335.903	6.49
336.114	5.86
336.325	6.84
336.535	7.39
336.746	7.94
336.957	7.86
337.167	11.37
337.378	13.22
337.589	10.79
337.799	10.19
338.01	10.49
338.22	12.02
338.431	11.83
338.642	10.61
338.852	7.5
339.063	6.73
339.273	5.46
339.484	3.66
339.694	1.34
339.905	3.14
340.115	3.66
340.326	4.45
340.536	2.9
340.746	4.12
340.957	4.88
341.167	5.98
341.378	6.45
341.588	8.22
341.799	8.06
342.009	10.08
342.219	10.24
342.43	10.44
342.64	9.54
342.85	11.42
343.061	9.61
343.271	8.04
343.481	6.86
343.691	4.77
343.902	3.18
344.112	6.05
344.322	6.36
344.532	6.75
344.743	5.35
344.953	4.11
345.163	4.01
345.373	7.59
345.583	10.2
345.793	11.82
346.004	13.22
346.214	16.4
346.424	13.62
346.634	14.97
346.844	14.97
347.054	16.66
347.264	15.6
347.474	14.52
347.684	10.48
347.894	8.88
348.104	9.71
348.314	10.18
348.524	7.75
348.734	11.09
348.944	9.05
349.154	9.39
349.364	9.49
349.574	12.5
349.784	10.03
349.994	10.73
350.204	11.65
350.413	9.63
350.623	7.23
350.833	8.38
351.043	5.08
351.253	6.02
351.463	4.71
351.672	1.73
351.882	0.99
352.092	2.6
352.302	1.73
352.511	2.82
352.721	4.36
352.931	6.21
353.141	6.64
353.35	7.04
353.56	7.36
353.77	9.37
353.979	10.64
354.189	11.41
354.399	11.14
354.608	12.51
354.818	10.48
355.027	8.47
355.237	7.46
355.447	7.87
355.656	6.54
355.866	5.75
356.075	4.09
356.285	5.12
356.494	4.51
356.704	7.32
356.913	6.97
357.123	6.75
357.332	8.44
357.542	8.96
357.751	7.38
357.96	8.18
358.17	7.74
358.379	7.41
358.589	7.07
358.798	6.72
359.007	5.32
359.217	5.37
359.426	6.94
359.635	6.31
359.845	6.87
360.054	6.95
360.263	6.34
360.472	7.45
360.682	7.15
360.891	7.47
361.1	7.97
361.309	7.99
361.519	7.09
361.728	5.88
361.937	6.08
362.146	6.51
362.355	6.82
362.564	8.77
362.774	9.54
362.983	10.32
363.192	10.02
363.401	9.66
363.61	10.1
363.819	10.94
364.028	11.09
364.237	11.75
364.446	11.39
364.655	11.14
364.864	11.78
365.073	11.09
365.282	10.24
365.491	10.87
365.7	12.81
365.909	11.94
366.118	13.1
366.327	14.39
366.536	14.46
366.745	14.55
366.954	14.58
367.162	12.98
367.371	13.25
367.58	13.77
367.789	13.42
367.998	10.34
368.207	11.5
368.415	9.33
368.624	7.56
368.833	5.99
369.042	6.58
369.25	6.25
369.459	7.2
369.668	6.26
369.877	6.02
370.085	4.72
370.294	6.05
370.503	4.87
370.711	5.57
370.92	7.12
371.129	8.13
371.337	7.3
371.546	8.83
371.754	8.34
371.963	8.67
372.171	8.17
372.38	8.88
372.589	8.83
372.797	9.69
373.006	9.5
373.214	7.57
373.423	7.04
373.631	8.51
373.84	7.73
374.048	8.03
374.256	7.28
374.465	9.14
374.673	9.67
374.882	10.1
375.09	8.98
375.298	8.47
375.507	10.88
375.715	11.68
375.923	10.11
376.132	10.49
376.34	10.47
376.548	10.91
376.757	10.23
376.965	10.48
377.173	9.51
377.381	11.37
377.59	11.68
377.798	8.78
378.006	7.81
378.214	8.97
378.423	9.45
378.631	8.4
378.839	6.58
379.047	6.35
379.255	6.28
379.463	5.71
379.671	4.64
379.879	5.4
380.088	6.81
380.296	7.69
380.504	6.1
380.712	6.34
380.92	7.21
381.128	8.95
381.336	8.49
381.544	8.74
381.752	9.06
381.96	7.87
382.168	7.52
382.376	9.4
382.584	8.36
382.791	9.23
382.999	7.84
383.207	8.7
383.415	8.24
383.623	8.59
383.831	7.86
384.039	9.33
384.247	10.87
384.454	8.94
384.662	7.5
384.87	8.43
385.078	8.4
385.285	8.53
385.493	7.58
385.701	8.7
385.909	9.64
386.116	8.66
386.324	8.26
386.532	7.54
386.739	8.78
386.947	9.51
387.155	9.58
387.362	9.64
387.57	10.42
387.778	10
387.985	8.11
388.193	6.59
388.4	8.29
388.608	7.23
388.816	7.68
389.023	7.38
389.231	7.44
389.438	6.41
389.646	5.96
389.853	5.55
390.061	5.63
390.268	6.95
390.475	7.67
390.683	6.83
390.89	6.46
391.098	5.88
391.305	7.25
391.512	7.27
391.72	7.85
391.927	8.04
392.135	7.58
392.342	7.94
392.549	6.78
392.756	6.88
392.964	8.04
393.171	8.74
393.378	9.07
393.586	8.98
393.793	8.49
394	8.27
394.207	8.96
394.414	9.23
394.622	9.98
394.829	9.91
395.036	10.16
395.243	10.12
395.45	9.78
395.657	10.1
395.864	9.73
396.072	10.45
396.279	10.52
396.486	10.22
396.693	11.48
396.9	10.08
397.107	10.98
397.314	10
397.521	8.13
397.728	8.04
397.935	8.07
398.142	8.29
398.349	6.58
398.556	6.27
398.763	5.3
398.97	3.28
399.177	3.39
399.383	4.89
399.59	4.55
399.797	5.35
400.004	5.52
400.211	5.53
400.418	4.28
400.625	4.94
400.831	5.71
401.038	6.29
401.245	8.31
401.452	8.43
401.658	7.09
401.865	8.05
402.072	8.46
402.279	9.33
402.485	8.08
402.692	9.72
402.899	9.07
403.105	8.83
403.312	10.01
403.519	9.58
403.725	10.26
403.932	10.32
404.138	11.31
404.345	9.96
404.552	9.19
404.758	10.25
404.965	8.91
405.171	9.65
405.378	8.82
405.584	7.83
405.791	7.15
405.997	6.41
406.204	6.26
406.41	5.18
406.617	6.47
406.823	6.79
407.029	7.19
407.236	8.46
407.442	7.87
407.649	9.04
407.855	9.79
408.061	9.2
408.268	9.7
408.474	8.89
408.68	9.24
408.887	9.47
409.093	9.43
409.299	8.41
409.505	8.4
409.712	8.16
409.918	8.24
410.124	8.3
410.33	8.31
410.537	8.19
410.743	8.81
410.949	7.77
411.155	7.39
411.361	6.92
411.567	6.79
411.773	6.31
411.98	6.9
412.186	6.31
412.392	5.43
412.598	6.21
412.804	6.79
413.01	7
413.216	6.7
413.422	7.29
413.628	7.17
413.834	7.4
414.04	7.07
414.246	7.12
414.452	7.48
414.658	7.33
414.864	7.8
415.07	6.88
415.275	5.73
415.481	6.41
415.687	5.43
415.893	5.7
416.099	5.9
416.305	5.55
416.511	5.64
416.716	5.53
416.922	5.69
417.128	5.67
417.334	6.12
417.539	6.46
417.745	6.12
417.951	6.57
418.157	6.89
418.362	6.42
418.568	6.84
418.774	6.62
418.979	5.99
419.185	6.77
419.391	6.36
419.596	6.29
419.802	6.47
420.008	6.24
420.213	3.97
420.419	3.61
420.624	3.82
420.83	3.47
421.035	3.57
421.241	4.57
421.446	3.97
421.652	4.23
421.857	3.93
422.063	4.14
422.268	4.33
422.474	6.34
422.679	6.2
422.885	6.25
423.09	6.39
423.295	6.25
423.501	5.6
423.706	5.4
423.911	5.16
424.117	4.85
424.322	4.96
424.527	5.2
424.733	5.57
424.938	6.08
425.143	5.94
425.349	6.19
425.554	5.97
425.759	6.62
425.964	6.91
426.169	7.26
426.375	7.42
426.58	7.39
426.785	6.84
426.99	6.86
427.195	6.35
427.4	6.66
427.605	6.32
427.811	7.16
428.016	6.63
428.221	6.19
428.426	4.95
428.631	4.63
428.836	4.27
429.041	4.33
429.246	4.08
429.451	4.41
429.656	4.35
429.861	4.77
430.066	4.64
430.271	4.13
430.476	4.55
430.681	5.83
430.886	6.19
431.09	6.93
431.295	6.83
431.5	6.83
431.705	6.8
431.91	6.79
432.115	6.35
432.32	5.88
432.524	6.65
432.729	6.61
432.934	5.77
433.139	5.8
433.343	5.1
433.548	5.15
433.753	5.11
433.958	5.05
434.162	5.15
434.367	5.1
434.572	4.65
434.776	4.85
434.981	4.65
435.186	4.76
435.39	5.25
435.595	5.23
435.799	5.31
436.004	5.65
436.209	5.17
436.413	4.86
436.618	4.77
436.822	5.5
437.027	5.09
437.231	4.92
437.436	4.81
437.64	4.91
437.845	5.11
438.049	5.22
438.253	4.95
438.458	5.39
438.662	5.47
438.867	5.29
439.071	5.74
439.275	5.44
439.48	5.3
439.684	5.44
439.888	5.43
440.093	5.14
440.297	4.7
440.501	4.59
440.706	4.85
440.91	5.36
441.114	5.45
441.318	5
441.523	5.08
441.727	5.4
441.931	6.07
442.135	5.84
442.339	6.57
442.543	6.92
442.748	7.1
442.952	6.49
443.156	5.95
443.36	6.19
443.564	5.92
443.768	6.3
443.972	6.24
444.176	5.11
444.38	5.46
444.584	5.42
444.788	5.9
444.992	5.55
445.196	5.59
445.4	5.73
445.604	5.39
445.808	5.43
446.012	4.98
446.216	4.67
446.42	5.37
446.624	4.71
446.828	4.39
447.032	3.97
447.235	4.41
447.439	4.29
447.643	4.59
447.847	4.93
448.051	5.21
448.254	4.84
448.458	5.11
448.662	5.43
448.866	5.32
449.069	4.81
449.273	5.38
449.477	4.82
449.681	5.43
449.884	5.08
450.088	5.13
450.292	4.94
450.495	6.51
450.699	6.49
450.902	6.79
451.106	7.07
451.31	7.53
451.513	7.23
451.717	7.55
451.92	7.14
452.124	6.7
452.327	6.69
452.531	6.39
452.734	5.79
452.938	5.57
453.141	5.15
453.345	5.43
453.548	5.14
453.752	5.01
453.955	5.44
454.158	5.36
454.362	5.6
454.565	5.72
454.769	6.46
454.972	6.46
455.175	6.01
455.379	5.41
455.582	5.83
455.785	5.75
455.988	4.78
456.192	4.66
456.395	5.14
456.598	5.34
456.801	4.95
457.005	5.16
457.208	4.55
457.411	5.38
457.614	5.48
457.817	4.85
458.021	5.19
458.224	5.89
458.427	5.79
458.63	5.51
458.833	5.16
459.036	4.95
459.239	4.59
459.442	4.57
459.645	4.18
459.848	4.07
460.051	4.29
460.254	3.94
460.457	3.42
460.66	3.33
460.863	3.1
461.066	3.27
461.269	3.55
461.472	2.42
461.675	2.87
461.878	2.98
462.081	3.53
462.284	3.36
462.486	3.58
462.689	3.4
462.892	4.1
463.095	4.52
463.298	4.58
463.5	4.52
463.703	5.56
463.906	5.93
464.109	5.79
464.311	5.44
464.514	5.48
464.717	5.55
464.92	6.41
465.122	5.46
465.325	5.73
465.528	5.94
465.73	5.47
465.933	6.16
466.135	5.78
466.338	5.58
466.541	5.38
466.743	5.22
466.946	5.33
467.148	4.97
467.351	5.61
467.553	5.31
467.756	5.1
467.958	5.86
468.161	5.34
468.363	5.75
468.566	6.27
468.768	6.48
468.971	6.81
469.173	6.58
469.375	7.15
469.578	6.6
469.78	6.12
469.983	6.21
470.185	6.92
470.387	7.03
470.59	6.61
470.792	6.47
470.994	6.37
471.196	6.75
471.399	7.75
471.601	7.35
471.803	7.34
472.005	8.03
472.208	7.64
472.41	7.12
472.612	6.93
472.814	7.34
473.016	7.4
473.218	7.32
473.421	6.39
473.623	5.85
473.825	5.66
474.027	5.82
474.229	5.37
474.431	5.17
474.633	5.07
474.835	5.43
475.037	5.06
475.239	5.1
475.441	4.67
475.643	4.69
475.845	4.44
476.047	4.56
476.249	4.11
476.451	3.97
476.653	4.8
476.855	5.12
477.057	4.82
477.258	4.8
477.46	5
477.662	5.1
477.864	5.05
478.066	5.72
478.268	5.48
478.469	5.61
478.671	6.05
478.873	5.58
479.075	4.86
479.276	5.61
479.478	5.56
479.68	5.69
479.882	6.07
480.083	6.11
480.285	5.76
480.487	5.88
480.688	5.59
480.89	5.42
481.091	5.39
481.293	5.46
481.495	5.13
481.696	5.25
481.898	5.08
482.099	5.01
482.301	5.06
482.502	5.03
482.704	4.96
482.905	5.26
483.107	5.09
483.308	5.12
483.51	5.25
483.711	5.35
483.913	5.22
484.114	5.16
484.315	5.12
484.517	5.21
484.718	5.09
484.92	5.35
485.121	5.2
485.322	5.31
485.524	5.48
485.725	5.31
485.926	5.21
486.127	5.32
486.329	5.25
486.53	5.37
486.731	5.29
486.932	5.55
487.134	5.21
487.335	5.2
487.536	5.44
487.737	5.25
487.938	5.21
488.139	5.16
488.341	5.17
488.542	5.24
488.743	5.29
488.944	5.81
489.145	5.47
489.346	5.79
489.547	5.75
489.748	5.44
489.949	5.52
490.15	5.65
490.351	5.61
490.552	5.51
490.753	5.35
490.954	5.36
491.155	5.01
491.356	4.74
491.557	4.73
491.758	4.81
491.959	4.94
492.159	4.74
492.36	4.71
492.561	4.67
492.762	4.54
492.963	5.04
493.164	5.08
493.364	5.11
493.565	5.36
493.766	5.56
493.967	5.76
494.167	5.74
494.368	5.88
494.569	5.71
494.769	5.73
494.97	5.78
495.171	5.99
495.371	5.91
495.572	5.76
495.773	6.19
495.973	6.19
496.174	6.12
496.375	5.99
496.575	6.05
496.776	6.29
496.976	5.93
497.177	6.05
497.377	5.41
497.578	5.18
497.778	5.26
497.979	4.88
498.179	4.63
498.38	4.46
498.58	4.31
498.78	4.6
498.981	4.49
499.181	4.54
499.382	4.93
499.582	5.26
499.782	5.59
499.983	6.1
500.183	6.21
500.383	6.38
500.584	6.5
500.784	7.12
500.984	6.88
501.184	6.98
501.385	7.45
501.585	7.3
501.785	7
501.985	6.81
502.185	6.52
502.386	7.15
502.586	7.27
502.786	7.15
502.986	7.05
503.186	7.05
503.386	6.88
503.586	6.58
503.786	6.29
503.987	6.54
504.187	6.58
504.387	6.63
504.587	6.13
504.787	6.14
504.987	6.35
505.187	6.36
505.387	6.11
505.587	5.88
505.786	5.96
505.986	6.1
506.186	6.29
506.386	6.1
506.586	5.47
506.786	5.57
506.986	5.03
507.186	5.17
507.386	5.4
507.585	5.67
507.785	6.06
507.985	6.27
508.185	6.2
508.384	6.2
508.584	6.76
508.784	7.12
508.984	7.35
509.183	7.82
509.383	7.53
509.583	7.21
509.782	7.26
509.982	7.37
510.182	7.13
510.381	7.03
510.581	6.82
510.781	6.26
510.98	6.98
511.18	6.92
511.379	6.67
511.579	6.68
511.778	6.84
511.978	7.15
512.177	7.08
512.377	7.47
512.576	8.24
512.776	8.64
512.975	9.02
513.175	8.2
513.374	7.86
513.573	8.3
513.773	7.96
513.972	7.69
514.172	7.42
514.371	7.78
514.57	7.55
514.77	7.61
514.969	7.34
515.168	7.22
515.367	7.46
515.567	7.44
515.766	7.43
515.965	8.3
516.164	8.55
516.364	8.71
516.563	8.71
516.762	8.84
516.961	8.24
517.16	8.16
517.359	8.64
517.559	8.79
517.758	8.9
517.957	9.02
518.156	8.98
518.355	9.42
518.554	9.51
518.753	9.41
518.952	8.99
519.151	9.02
519.35	9.59
519.549	9.56
519.748	9.59
519.947	9.74
520.146	9.66
520.345	9.83
520.544	8.94
520.743	8.89
520.942	8.89
521.141	9.69
521.339	10.26
521.538	10.25
521.737	10.36
521.936	10.41
522.135	11
522.333	10.92
522.532	10.66
522.731	11.63
522.93	11.28
523.129	11.56
523.327	11.65
523.526	11.86
523.725	11.25
523.923	10.95
524.122	11.1
524.321	10.93
524.519	10.97
524.718	10.88
524.917	10.73
525.115	11.07
525.314	10.8
525.512	10.75
525.711	10.42
525.909	10.73
526.108	10.72
526.306	10.66
526.505	10.73
526.703	10.79
526.902	10.94
527.1	10.87
527.299	10.98
527.497	11.13
527.696	11.22
527.894	11.38
528.092	11.53
528.291	11.66
528.489	12
528.688	12
528.886	12.14
529.084	12.3
529.283	12.34
529.481	12.54
529.679	12.54
529.877	12.66
530.076	12.93
530.274	13.1
530.472	13.22
530.67	13.2
530.869	13.26
531.067	13.39
531.265	13.5
531.463	13.69
531.661	13.72
531.859	13.84
532.057	13.81
532.255	14
532.454	14.07
532.652	14.17
532.85	14.15
533.048	14.28
533.246	14.57
533.444	14.43
533.642	14.48
533.84	14.6
534.038	14.43
534.236	14.45
534.434	14.27
534.632	14.3
534.83	14.31
535.027	14.3
535.225	14.37
535.423	14.49
535.621	14.66
535.819	14.96
536.017	14.87
536.215	15.42
536.412	15.74
536.61	15.54
536.808	15.68
537.006	15.47
537.203	15.63
537.401	15.56
537.599	15.59
537.797	15.43
537.994	15.21
538.192	15.15
538.39	14.88
538.587	14.64
538.785	14.87
538.983	14.73
539.18	15.15
539.378	15.13
539.575	15.33
539.773	14.94
539.97	15.05
540.168	15.24
540.366	15.18
540.563	15.36
540.761	15.32
540.958	15.26
541.155	15.26
541.353	15.37
541.55	15.34
541.748	15.26
541.945	15.4
542.143	15.48
542.34	15.62
542.537	15.87
542.735	15.79
542.932	16.31
543.129	16.4
543.327	16.75
543.524	16.85
543.721	17.08
543.919	17.1
544.116	17.13
544.313	17.38
544.51	17.04
544.708	17.13
544.905	16.74
545.102	16.19
545.299	16.32
545.496	16.13
545.693	15.73
545.891	15.47
546.088	15.81
546.285	15.92
546.482	15.97
546.679	15.95
546.876	16.02
547.073	17.06
547.27	17.75
547.467	17.56
547.664	17.02
547.861	17.47
548.058	17.67
548.255	17.77
548.452	18.32
548.649	18.23
548.846	18.98
549.043	18.7
549.24	17.96
549.437	17.91
549.633	18.12
549.83	18.99
550.027	18.76
550.224	18.79
550.421	18.78
550.618	18.62
550.814	19.27
551.011	18.62
551.208	18.86
551.405	19.58
551.601	18.67
551.798	19.2
551.995	19.15
552.191	19.24
552.388	19.17
552.585	18.79
552.781	19.12
552.978	18.06
553.175	18.68
553.371	18.8
553.568	18.47
553.764	19.25
553.961	18.82
554.157	18.79
554.354	19.28
554.55	19.68
554.747	20.02
554.943	19.33
555.14	19.7
555.336	20.08
555.533	20.57
555.729	20.54
555.926	20.42
556.122	21.28
556.318	21.94
556.515	21.84
556.711	21.9
556.907	22.48
557.104	22.6
557.3	23.44
557.496	22.82
557.693	22.75
557.889	22.75
558.085	23.23
558.281	22.5
558.478	22.47
558.674	22.13
558.87	22.54
559.066	22.15
559.262	22.08
559.459	21.35
559.655	21.43
559.851	20.77
560.047	21.73
560.243	21.56
560.439	21.83
560.635	21.47
560.831	21.93
561.027	21.46
561.223	21.19
561.419	21.54
561.615	22
561.811	21.89
562.007	22.02
562.203	21.05
562.399	21.07
562.595	20.95
562.791	20.85
562.987	20.37
563.183	20.85
563.379	21.25
563.575	20.72
563.771	21.23
563.966	21.32
564.162	21.51
564.358	21.45
564.554	21.76
564.75	22.03
564.945	22.06
565.141	22.31
565.337	22.15
565.533	22.4
565.728	23.23
565.924	22.26
566.12	22.27
566.315	22.53
566.511	22.59
566.707	22.61
566.902	22.56
567.098	22.84
567.293	22.61
567.489	22.46
567.684	22.45
567.88	21.91
568.076	22.67
568.271	22.69
568.467	22.37
568.662	22.5
568.858	21.76
569.053	21.94
569.248	21.9
569.444	21.9
569.639	22.27
569.835	22.2
570.03	22.22
570.225	21.45
570.421	21.68
570.616	21.63
570.812	21.39
571.007	21.65
571.202	21.75
571.397	21.85
571.593	22.23
571.788	22.02
571.983	21.26
572.178	21.65
572.374	21.89
572.569	21.49
572.764	22.05
572.959	22.07
573.154	22.1
573.35	21.8
573.545	22.17
573.74	21.96
573.935	22.19
574.13	23.07
574.325	22.86
574.52	23.63
574.715	24.07
574.91	23.77
575.105	24.42
575.3	24.96
575.495	24.94
575.69	24.57
575.885	24.87
576.08	24.55
576.275	24.13
576.47	24.32
576.665	24.02
576.86	24.06
577.055	23.71
577.25	23.66
577.444	22.67
577.639	22.63
577.834	22.47
578.029	22.16
578.224	21.94
578.418	22.34
578.613	21.26
578.808	21.38
579.003	20.78
579.197	21.72
579.392	21.39
579.587	21.9
579.781	21.81
579.976	22.38
580.171	22.02
580.365	22.32
580.56	22.43
580.755	23.54
580.949	23.81
581.144	23.88
581.338	23.37
581.533	23.56
581.727	23.92
581.922	24.43
582.116	23.54
582.311	23.97
582.505	24.26
582.7	24.73
582.894	24.8
583.089	25.15
583.283	25.79
583.478	25.73
583.672	25.59
583.866	25.33
584.061	25.25
584.255	25.68
584.449	25.82
584.644	26.27
584.838	25.77
585.032	25.68
585.226	25.18
585.421	24.56
585.615	24.33
585.809	24.51
586.003	24.64
586.198	24.65
586.392	24.28
586.586	23.64
586.78	23.01
586.974	22.11
587.168	21.84
587.363	21.26
587.557	21.21
587.751	21.93
587.945	21.54
588.139	21.64
588.333	20.98
588.527	21.87
588.721	21.55
588.915	21.54
589.109	22.09
589.303	21.93
589.497	21.75
589.691	22.19
589.885	21.52
590.079	22.19
590.273	22.18
590.466	22.83
590.66	22.14
590.854	23.71
591.048	23.83
591.242	23.91
591.436	24.11
591.629	24.65
591.823	24.72
592.017	26.53
592.211	26.59
592.404	26.08
592.598	25.87
592.792	25.99
592.986	24.9
593.179	24.98
593.373	25.28
593.567	26.08
593.76	26.01
593.954	25.66
594.147	24.06
594.341	23.41
594.535	24.15
594.728	23.7
594.922	24.18
595.115	24.81
595.309	24.73
595.502	24.14
595.696	23.52
595.889	23.43
596.083	23.77
596.276	23.58
596.47	23.88
596.663	23.57
596.856	23.58
597.05	23.61
597.243	23.84
597.437	23.87
597.63	24.2
597.823	24.38
598.017	24.96
598.21	25.58
598.403	26.18
598.596	25.89
598.79	26.09
598.983	26.66
599.176	26.06
599.369	25.81
599.563	25.54
599.756	26.01
599.949	25.68
600.142	26.18
600.335	24.95
600.528	24.81
600.722	25.21
600.915	24.94
601.108	25.17
601.301	25.73
601.494	25.77
601.687	25.97
601.88	25.45
602.073	25.5
602.266	25
602.459	24.84
602.652	25.04
602.845	25.11
603.038	25.1
603.231	25.14
603.424	24.16
603.617	23.68
603.809	23.75
604.002	23.8
604.195	23.71
604.388	23.45
604.581	24.12
604.774	24.2
604.966	24.47
605.159	24.46
605.352	24.07
605.545	24.34
605.737	25.92
605.93	25.96
606.123	26.32
606.316	26.92
606.508	26.47
606.701	25.8
606.894	25.87
607.086	25.59
607.279	25.06
607.471	25.29
607.664	25.2
607.857	24.31
608.049	24.54
608.242	24.07
608.434	24.22
608.627	24.79
608.819	25.19
609.012	25.79
609.204	24.88
609.397	24.92
609.589	25.02
609.782	25.59
609.974	26.05
610.166	26.05
610.359	26.88
610.551	27.7
610.743	26.97
610.936	27.47
611.128	26.26
611.32	27.5
611.513	27.97
611.705	27.92
611.897	28.25
612.09	27.55
612.282	28.06
612.474	27.33
612.666	26.7
612.858	27.48
613.051	27.62
613.243	28.31
613.435	27.24
613.627	27.99
613.819	27.59
614.011	27.9
614.203	27.9
614.395	27.83
614.588	27.97
614.78	27.81
614.972	28.01
615.164	27.06
615.356	26.32
615.548	27.56
615.74	27.41
615.932	27.81
616.124	27.18
616.315	26.75
616.507	26.16
616.699	26.56
616.891	26.59
617.083	25.93
617.275	26.51
617.467	26.75
617.659	26.58
617.85	26.85
618.042	27.32
618.234	27.05
618.426	27.38
618.618	27.53
618.809	26.8
619.001	26.91
619.193	28.09
619.384	27.26
619.576	27.1
619.768	26.46
619.959	25.59
620.151	25.15
620.343	25.01
620.534	25.05
620.726	25.44
620.917	26.71
621.109	26.12
621.301	25.32
621.492	26.55
621.684	27.06
621.875	28.73
622.067	29.04
622.258	28.52
622.45	29.53
622.641	29.06
622.832	28.89
623.024	27.92
623.215	28.01
623.407	27.74
623.598	27.02
623.789	26.64
623.981	25.41
624.172	25.5
624.363	25.76
624.555	25.61
624.746	26.34
624.937	26.5
625.129	26.82
625.32	26.75
625.511	26.32
625.702	26.59
625.893	26.82
626.085	26.48
626.276	26.21
626.467	26.21
626.658	26.16
626.849	25.97
627.04	25.23
627.231	25.71
627.422	25.83
627.614	25.69
627.805	25.25
627.996	25.15
628.187	25.51
628.378	25.21
628.569	25.9
628.76	26.25
628.951	26.01
629.142	25.88
629.332	25.73
629.523	25.47
629.714	26.62
629.905	26.9
630.096	26.64
630.287	26.98
630.478	28.23
630.669	28
630.859	27.78
631.05	27.94
631.241	28.28
631.432	28.01
631.623	29.1
631.813	28.62
632.004	29.03
632.195	29.28
632.385	29.2
632.576	28.69
632.767	28.55
632.957	27.25
633.148	27.04
633.339	27.07
633.529	26.75
633.72	26.57
633.91	26.99
634.101	26.04
634.292	26.21
634.482	26.57
634.673	26.27
634.863	26.32
635.054	27.18
635.244	27.62
635.435	28.36
635.625	28.08
635.815	27.82
636.006	27.95
636.196	29.33
636.387	29.29
636.577	29.25
636.767	30.01
636.958	29.71
637.148	29.59
637.338	28.86
637.529	27.78
637.719	29.08
637.909	28.32
638.099	27.43
638.29	25.94
638.48	25.35
638.67	24.35
638.86	23.98
639.05	24.64
639.241	24.05
639.431	25.62
639.621	26.38
639.811	25.47
640.001	26.83
640.191	28.87
640.381	30.49
640.571	30.88
640.761	31.18
640.951	31.55
641.141	31.85
641.331	32.43
641.521	31.53
641.711	30.7
641.901	30.58
642.091	29.87
642.281	29.07
642.471	28.37
642.661	27.74
642.851	27.89
643.041	26.71
643.231	27.72
643.42	28.15
643.61	29.05
643.8	29.73
643.99	29.32
644.18	29.22
644.369	28.46
644.559	28.64
644.749	28.5
644.939	28.78
645.128	30
645.318	28.35
645.508	28.82
645.697	28.56
645.887	27.43
646.076	28.26
646.266	28.02
646.456	28.61
646.645	29.59
646.835	30.94
647.024	30.2
647.214	30.24
647.403	30.5
647.593	29.47
647.782	29.06
647.972	30.04
648.161	30.45
648.351	31.05
648.54	30.89
648.73	29.48
648.919	28.66
649.108	28.46
649.298	27.18
649.487	25.9
649.677	25.86
649.866	25.56
650.055	24.72
650.244	23.67
650.434	22.64
650.623	22.65
650.812	23.23
651.002	23.67
651.191	24.31
651.38	26.09
651.569	27.36
651.758	29.47
651.947	29.66
652.137	28.59
652.326	29.79
652.515	30.66
652.704	30.75
652.893	30.84
653.082	31.26
653.271	30.9
653.46	29.73
653.649	30.1
653.838	29.56
654.027	30.37
654.216	31.68
654.405	31.11
654.594	31.42
654.783	31.83
654.972	32.33
655.161	31.82
655.35	32.58
655.539	32.94
655.728	33.14
655.916	31.25
656.105	30.93
656.294	31.95
656.483	31.95
656.672	31.54
656.86	31.34
657.049	30.83
657.238	30.05
657.427	29.89
657.615	30.01
657.804	29.32
657.993	30.3
658.181	29.49
658.37	28.88
658.559	28.28
658.747	28.43
658.936	28.82
659.125	28.38
659.313	28.69
659.502	28.45
659.69	27.64
659.879	27.64
660.067	26.84
660.256	26.49
660.444	26.12
660.633	26.68
660.821	26.55
661.01	26.44
661.198	26.77
661.387	26.59
661.575	27.7
661.763	29.05
661.952	27.99
662.14	29.59
662.328	32.18
662.517	33.04
662.705	32.91
662.893	32.18
663.082	31.59
663.27	32
663.458	32.42
663.646	30.96
663.834	30.63
664.023	30.4
664.211	28.91
664.399	27.01
664.587	26.66
664.775	27.2
664.963	28.3
665.152	27.81
665.34	26.93
665.528	26.34
665.716	26.57
665.904	26.67
666.092	28.39
666.28	28.18
666.468	28.71
666.656	28.09
666.844	28.7
667.032	27.65
667.22	28.45
667.408	29.92
667.596	30.65
667.784	30.7
667.971	30.27
668.159	28.97
668.347	29.91
668.535	30.18
668.723	31.53
668.911	30.06
669.098	30.02
669.286	28.83
669.474	28.4
669.662	27.86
669.849	27.8
670.037	26.3
670.225	27.14
670.413	26.62
670.6	27.01
670.788	24.24
670.976	24.68
671.163	25.89
671.351	26.07
671.538	25.86
671.726	26.73
671.913	26.25
672.101	28.48
672.289	27.14
672.476	26.18
672.664	25.65
672.851	28.19
673.039	27.79
673.226	27.32
673.413	28.17
673.601	29.03
673.788	28.65
673.976	30.17
674.163	30.45
674.35	31.81
674.538	33.06
674.725	33.14
674.912	32.94
675.1	33.86
675.287	34.33
675.474	34.06
675.662	33.27
675.849	32.89
676.036	32.2
676.223	30.43
676.411	31.02
676.598	30.73
676.785	28.86
676.972	28.87
677.159	29.09
677.346	29.28
677.533	29.47
677.721	28.91
677.908	30.46
678.095	30.23
678.282	29.83
678.469	29.99
678.656	29.72
678.843	30.8
679.03	30.77
679.217	31.34
679.404	30.89
679.591	29.69
679.778	30.85
679.964	30.54
680.151	30.6
680.338	32.97
680.525	31.94
680.712	33.51
680.899	34.16
681.086	34.56
681.272	32.94
681.459	32.34
681.646	33.71
681.833	32.52
682.02	32.46
682.206	33.05
682.393	31.11
682.58	31.9
682.766	30.9
682.953	31.39
683.14	30.16
683.326	31.24
683.513	30.49
683.7	30.59
683.886	29.12
684.073	28.32
684.259	27.93
684.446	27.76
684.632	28.43
684.819	29.54
685.005	27.88
685.192	27.95
685.378	27.2
685.565	29.06
685.751	28.24
685.938	29.8
686.124	30.25
686.31	29.09
686.497	30.2
686.683	30.43
686.87	28.14
687.056	28.78
687.242	28.6
687.429	26.4
687.615	25.19
687.801	26.23
687.987	26.38
688.174	26.01
688.36	26.85
688.546	27.35
688.732	26.62
688.918	26.6
689.105	25.69
689.291	24.63
689.477	26.22
689.663	27.7
689.849	26.68
690.035	25.13
690.221	25.03
690.407	25.86
690.593	24.48
690.779	26.05
690.965	28.17
691.151	29.25
691.337	31.68
691.523	30.74
691.709	30
691.895	30.15
692.081	33.7
692.267	32.5
692.453	33.57
692.639	34.92
692.825	32.05
693.011	30.6
693.196	31.06
693.382	31.3
693.568	32.39
693.754	31.47
693.94	32.15
694.125	29.58
694.311	29.48
694.497	29.4
694.682	29.14
694.868	29.45
695.054	30.44
695.239	28.6
695.425	27.14
695.611	28.06
695.796	28.05
695.982	28.68
696.168	29.09
696.353	29.13
696.539	28.7
696.724	28.32
696.91	27.47
697.095	26.84
697.281	25.76
697.466	25.74
697.652	25.84
697.837	26.68
698.023	26.4
698.208	25.91
698.393	26.47
698.579	26.46
698.764	26.86
698.949	28.55
699.135	28.91
699.32	31.23
699.505	31.28
699.691	31.69
699.876	30.68
700.061	29.64
700.246	30.92
700.432	33.26
700.617	31.81
700.802	31.94
700.987	31.36
701.172	30.66
701.358	29.05
701.543	28.97
701.728	27.42
701.913	28.57
702.098	29.65
702.283	29.15
702.468	25.31
702.653	28.56
702.838	26.91
703.023	27.25
703.208	28.66
703.393	30.4
703.578	31.61
703.763	31.78
703.948	30.26
704.133	30.12
704.318	31.18
704.503	32.27
704.688	30.64
704.873	30.28
705.057	29.31
705.242	28.97
705.427	29.37
705.612	28.99
705.797	29.58
705.981	28.87
706.166	31.29
706.351	31.7
706.536	33.38
706.72	34.13
706.905	35.82
707.09	37.75
707.274	37.84
707.459	37.68
707.644	37.87
707.828	39.69
708.013	43.28
708.197	42.13
708.382	41.3
708.567	40.51
708.751	38.66
708.936	37.86
709.12	37.54
709.305	38.92
709.489	38.79
709.673	40.48
709.858	39.83
710.042	39.85
710.227	38.83
710.411	37.57
710.596	38.25
710.78	39.07
710.964	40.46
711.149	39.17
711.333	37.73
711.517	39.81
711.702	38.14
711.886	38.11
712.07	36.91
712.254	37.78
712.438	39.28
712.623	37.44
712.807	37.85
712.991	37.22
713.175	38.11
713.359	38.83
713.544	35.34
713.728	35.68
713.912	33.8
714.096	33.23
714.28	32.48
714.464	29.85
714.648	29.95
714.832	28.54
715.016	29.32
715.2	29.21
715.384	27.94
715.568	30.32
715.752	32.02
715.936	33.38
716.12	33.78
716.304	34.1
716.488	37.46
716.671	36.69
716.855	38.07
717.039	36.95
717.223	35.37
717.407	36.06
717.59	35.8
717.774	32.95
717.958	33.81
718.142	33.81
718.325	30.9
718.509	29.05
718.693	29.52
718.877	29.86
719.06	29.06
719.244	31.26
719.428	30.63
719.611	29.07
719.795	29.55
719.978	26.67
720.162	25.49
720.345	27.14
720.529	24.12
720.713	25.05
720.896	23.45
721.08	26.38
721.263	23.03
721.446	23.95
721.63	24.43
721.813	23.21
721.997	23.32
722.18	24.58
722.364	25.16
722.547	26.55
722.73	25.57
722.914	29.24
723.097	26.77
723.28	26.19
723.464	26.55
723.647	25.8
723.83	25.74
724.013	29.15
724.197	28.56
724.38	29.48
724.563	29.55
724.746	32.03
724.929	28.89
725.112	28.15
725.296	30.82
725.479	29.74
725.662	32.83
725.845	33.85
726.028	29.43
726.211	28.86
726.394	28.92
726.577	29.97
726.76	28
726.943	27.16
727.126	28.18
727.309	28.45
727.492	28.96
727.675	26.69
727.858	26.45
728.041	27.29
728.224	27.14
728.407	28.63
728.589	30.23
728.772	30.89
728.955	30.57
729.138	30.4
729.321	30.52
729.503	30.23
729.686	29.39
729.869	27.32
730.052	29.61
730.234	32.23
730.417	30.65
730.6	29.61
730.782	28.82
730.965	30.87
731.148	30.05
731.33	30.81
731.513	31.24
731.695	32.17
731.878	32.86
732.061	33.81
732.243	32.28
732.426	32.85
732.608	32.89
732.791	32.08
732.973	30.18
733.156	30.44
733.338	30.03
733.52	30.05
733.703	28.21
733.885	31.88
734.068	31.19
734.25	30.26
734.432	32.73
734.615	35.26
734.797	39.21
734.979	42.06
735.162	42.61
735.344	41.6
735.526	41.97
735.708	46.15
735.891	44.21
736.073	44.38
736.255	43.61
736.437	41.56
736.619	38.51
736.802	37.56
736.984	38.72
737.166	40.24
737.348	41.23
737.53	40.18
737.712	37.19
737.894	38.25
738.076	38.09
738.258	40.38
738.44	44.29
738.622	44.46
738.804	43.45
738.986	40.92
739.168	40.04
739.35	39.12
739.532	40.76
739.714	41.72
739.896	38.19
740.078	37.91
740.259	39.32
740.441	35.61
740.623	38.54
740.805	36.88
740.987	37.75
741.168	36.95
741.35	41.76
741.532	39.74
741.714	40.11
741.895	42.29
742.077	44.44
742.259	42.87
742.44	46.43
742.622	43.85
742.804	47.67
742.985	49.75
743.167	49.38
743.348	44.89
743.53	42.84
743.711	43.38
743.893	44.65
744.075	42.72
744.256	45.79
744.438	42.15
744.619	42.28
744.8	40.72
744.982	40.73
745.163	40.78
745.345	39.38
745.526	44.02
745.707	43.89
745.889	43.01
746.07	41.38
746.252	40.09
746.433	38.13
746.614	41.04
746.795	46.2
746.977	43.94
747.158	42.74
747.339	45.51
747.52	45.37
747.702	48.05
747.883	50.22
748.064	54.45
748.245	52.14
748.426	52.08
748.607	49
748.788	47.7
748.97	47.01
749.151	48.73
749.332	49.46
749.513	47.58
749.694	44.39
749.875	41.45
750.056	36.16
750.237	34.9
750.418	38.04
750.599	37.81
750.78	38.99
750.96	40.82
751.141	37.04
751.322	35.24
751.503	39.34
751.684	41.38
751.865	41.32
752.046	45.11
752.226	45.45
752.407	44.65
752.588	44.16
752.769	41.23
752.949	39.2
753.13	45.63
753.311	43.8
753.492	42.04
753.672	44.72
753.853	43.64
754.034	43.5
754.214	42.16
754.395	42.81
754.575	46.42
754.756	45.12
754.937	47.25
755.117	43.17
755.298	45.95
755.478	45.8
755.659	42.63
755.839	46.26
756.02	47.47
756.2	45.68
756.381	44.7
756.561	42.15
756.741	43.21
756.922	42.75
757.102	43.29
757.283	41.2
757.463	40.67
757.643	37.65
757.823	35.16
758.004	33.17
758.184	37.97
758.364	35.62
758.545	37.79
758.725	36.27
758.905	31.65
759.085	33.51
759.265	34.42
759.446	30.4
759.626	31.91
759.806	30.84
759.986	28.62
760.166	23.17
760.346	25.75
760.526	20.56
760.706	23.73
760.886	25.63
761.066	23.16
761.246	21.94
761.426	22.53
761.606	24.05
761.786	25.6
761.966	24.69
762.146	26.02
762.326	24.43
762.506	24.44
762.686	21.34
762.866	22.05
763.046	21.71
763.225	22.25
763.405	22.8
763.585	23.55
763.765	20.77
763.945	25.5
764.124	26.22
764.304	30.12
764.484	32.17
764.664	36.64
764.843	39.94
765.023	42.68
765.203	46.18
765.382	52.25
765.562	49.51
765.741	55.97
765.921	54.49
766.101	59.43
766.28	59.21
766.46	62.51
766.639	58.44
766.819	54.95
766.998	56.05
767.178	54.04
767.357	47.37
767.537	45.3
767.716	45.45
767.896	38.56
768.075	34.65
768.254	33.8
768.434	32.44
768.613	32.75
768.792	33.77
768.972	33.54
769.151	31.96
769.33	35.39
769.51	42.56
769.689	41.39
769.868	44.99
770.047	42.21
770.226	43.61
770.406	40.52
770.585	47.46
770.764	48.68
770.943	50.26
771.122	48.4
771.301	46.45
771.48	43.29
771.66	37.48
771.839	42.36
772.018	45.09
772.197	45.05
772.376	48.49
772.555	39.65
772.734	37.18
772.913	33.42
773.092	31.77
773.271	34.76
773.449	34.35
773.628	41.14
773.807	38.38
773.986	33.33
774.165	35.75
774.344	38.72
774.523	44.35
774.701	39.45
774.88	37.55
775.059	49.61
775.238	47.81
775.417	46.45
775.595	47.55
775.774	46.15
775.953	52.75
776.131	51.69
776.31	50.42
776.489	51.41
776.667	55.48
776.846	57.92
777.025	54.65
777.203	53.37
777.382	54.21
777.56	54.25
777.739	59.99
777.917	60.75
778.096	61.71
778.274	64.01
778.453	61.95
778.631	62.91
778.81	65.79
778.988	58.62
779.166	66.41
779.345	55.27
779.523	49.7
779.702	50.33
779.88	42.97
780.058	43.87
780.237	42.43
780.415	48.61
780.593	47.04
780.771	48.95
780.95	48.78
781.128	51.16
781.306	59.44
781.484	65.6
781.662	63.32
781.841	69.99
782.019	64.72
782.197	64.44
782.375	62.67
782.553	61.92
782.731	58.82
782.909	61.52
783.087	52.8
783.265	53.68
783.443	56.16
783.621	53.71
783.799	53.46
783.977	50.74
784.155	44.83
784.333	43.14
784.511	49.04
784.689	51.47
784.867	54.67
785.045	57.56
785.223	52.75
785.4	48.98
785.578	52.29
785.756	56.78
785.934	59.96
786.112	68.2
786.289	67.63
786.467	66.54
786.645	61.18
786.823	58.66
787	57.12
787.178	58.35
787.356	57.61
787.533	55.16
787.711	50.35
787.889	51.62
788.066	50.32
788.244	50.82
788.421	48.13
788.599	47.56
788.776	48.83
788.954	50.21
789.131	49.98
789.309	53.63
789.486	57.01
789.664	60.36
789.841	58.32
790.019	53.81
790.196	48.11
790.373	56.91
790.551	65.19
790.728	68.3
790.906	71.29
791.083	85
791.26	73.35
791.437	66.64
791.615	50.42
791.792	62.17
791.969	60.84
792.146	60.21
792.324	62.6
792.501	59.98
792.678	57.23
792.855	50.68
793.032	51.65
793.209	58.23
793.387	60.37
793.564	66.87
793.741	63.61
793.918	72.5
794.095	82.7
794.272	74.73
794.449	69.96
794.626	71.93
794.803	71.26
794.98	68.94
795.157	71.31
795.334	80.84
795.511	74.19
795.688	77.85
795.864	72.44
796.041	68.99
796.218	71.66
796.395	77.95
796.572	80.41
796.749	77.04
796.925	72.73
797.102	68.73
797.279	59.11
797.456	56.11
797.632	49.35
797.809	50.33
797.986	48.88
798.162	47.1
798.339	43.78
798.516	33.63
798.692	43.29
798.869	44.7
799.046	45.44
799.222	44.95
799.399	50.1
799.575	51.81
799.752	55.5
799.928	56.27
800.105	57.02
800.281	56.91
800.458	58.53
800.634	58.24
800.811	56.82
800.987	57.99
801.163	58.69
801.34	65.43
801.516	64.49
801.692	59.65
801.869	58.12
802.045	58.53
802.221	66.14
802.398	70.33
802.574	68.16
802.75	67.28
802.926	68.22
803.103	71.67
803.279	76.62
803.455	81.56
803.631	82.21
803.807	85.41
803.983	83.85
804.16	85.14
804.336	82.81
804.512	85.76
804.688	88.15
804.864	73.69
805.04	67.82
805.216	59.56
805.392	55.97
805.568	61.78
805.744	53.16
805.92	53.56
806.096	48.65
806.272	48.63
806.448	48.24
806.623	50
806.799	60.52
806.975	61.91
807.151	57.23
807.327	62.29
807.503	49.87
807.678	58.2
807.854	53.66
808.03	63.48
808.206	68.6
808.381	71.5
808.557	80.84
808.733	73.48
808.908	73.97
809.084	78.71
809.26	66.2
809.435	70.94
809.611	69.3
809.787	78.63
809.962	48.38
810.138	30.77
810.313	23.85
810.489	12.3
810.664	18.13
810.84	33.86
811.015	43.81
811.191	56.41
811.366	46.46
811.542	48
811.717	49.08
811.892	54.4
812.068	63.43
812.243	74.08
812.419	88.94
812.594	91.85
812.769	66.38
812.944	60.13
813.12	69.32
813.295	82.36
813.47	76.84
813.645	79.22
813.821	77.61
813.996	69.39
814.171	74.39
814.346	79.33
814.521	70.79
814.697	65.22
814.872	62.96
815.047	61.41
815.222	60.26
815.397	66.22
815.572	68.05
815.747	64.63
815.922	72.36
816.097	55.61
816.272	51.69
816.447	48.93
816.622	45.44
816.797	40.11
816.972	35.52
817.147	33.14
817.322	43.04
817.496	43.49
817.671	38.48
817.846	37.98
818.021	49.62
818.196	49.25
818.371	51.36
818.545	48.47
818.72	51.98
818.895	47.9
819.069	43.13
819.244	33.99
819.419	29.71
819.594	27.81
819.768	28.44
819.943	21.88
820.117	19.41
820.292	17.33
820.467	19.18
820.641	18.12
820.816	19.25
820.99	18.07
821.165	19.09
821.339	18.93
821.514	20.41
821.688	18.56
821.863	20.05
822.037	19.6
822.212	21.61
822.386	22.15
822.56	23.84
822.735	24.5
822.909	26.36
823.084	27.95
823.258	27.81
823.432	30.58
823.606	37.2
823.781	37.44
823.955	42.3
824.129	40.26
824.303	42.42
824.478	42.6
824.652	42.7
824.826	43.85
825	38.31
825.174	35.78
825.348	33.13
825.523	31.63
825.697	29.84
825.871	26.69
826.045	30.57
826.219	29.91
826.393	29.21
826.567	26.19
826.741	26.67
826.915	28.79
827.089	36.15
827.263	34.98
827.437	32.36
827.611	34.6
827.784	37.17
827.958	30.11
828.132	28.77
828.306	25.68
828.48	31.58
828.654	34.93
828.827	36.61
829.001	34.65
829.175	39.52
829.349	34.64
829.522	42.77
829.696	42.89
829.87	46.74
830.044	45.79
830.217	51.48
830.391	48.75
830.565	42.81
830.738	46.94
830.912	40.94
831.085	47.83
831.259	39.19
831.432	20.63
831.606	10.65
831.779	13.31
831.953	18.47
832.126	21.42
832.3	26.82
832.473	29.45
832.647	27.68
832.82	24.25
832.994	20.66
833.167	28.61
833.34	26.9
833.514	27.93
833.687	32.54
833.86	30.67
834.034	27.75
834.207	23.64
834.38	19.74
834.553	27.14
834.727	36.73
834.9	45.41
835.073	48.09
835.246	49.31
835.419	62.83
835.593	62.68
835.766	92.52
835.939	140.13
836.112	172.4
836.285	228.21
836.458	163.81
836.631	137.21
836.804	88.75
836.977	92.46
837.15	106.39
837.323	110.76
837.496	129.61
837.669	131.78
837.842	99.19
838.015	78.11
838.188	61.01
838.361	70.58
838.533	74.31
838.706	83.89
838.879	78.34
839.052	77.51
839.225	80.23
839.398	75.5
839.57	65.25
839.743	68.87
839.916	72.55
840.088	68.75
840.261	51.81
840.434	48.83
840.607	39.78
840.779	37.39
840.952	47.3
841.124	39.82
841.297	42.74
841.47	31.71
841.642	34.67
841.815	2.38
841.987	26.48
842.16	68.1
842.332	76.69
842.505	77.82
842.677	75.36
842.85	40.24
843.022	54.98
843.194	36
843.367	32.23
843.539	30.12
843.712	67.51
843.884	63.53
844.056	49.6
844.229	34.34
844.401	54.95
844.573	68.85
844.745	92.81
844.918	51.03
845.09	109.09
845.262	110.44
845.434	116.6
845.606	110.71
845.779	-234.09
845.951	4275
846.123	-526.47
846.295	514.29
846.467	-405.26
846.639	-1426.09
846.811	477.27
846.983	146.67
847.155	302.5
847.327	296.23
847.499	130.8
847.671	131.48
847.843	162.73
848.015	224.15
848.187	167.35
848.359	126.48
848.531	139.79
848.703	172.5
848.875	283.44
849.047	1095
849.218	2956.25
849.39	-492.59
849.562	8560
849.734	-1510.71
849.905	4771.43
850.077	-379.73
850.249	-176.43
850.421	626.98
850.592	343.9
850.764	161.45
850.936	104.73
851.107	103.9
851.279	125.15
851.451	109.62
851.622	207.82
851.794	209.27
851.965	277.3
852.137	324.84
852.308	4177.78
852.48	-292.59
852.651	-149.74
852.823	-339.68
852.994	-1629.63
853.166	3612.5
853.337	-588.89
853.509	55.78
853.68	-2800
853.851	-107.78
854.023	-133.57
854.194	-170.34
854.365	13.68
854.537	27.76
854.708	-14.18
854.879	-59.29
855.05	23.65
855.222	39.72
855.393	188.46
855.564	137.33
855.735	141.44
855.906	166.41
856.078	172.81
856.249	92.39
856.42	81.62
856.591	79.88
856.762	-736.84
856.933	130.77
857.104	-0
857.275	2025
857.446	366.15
857.617	-3750
857.788	12400
857.959	252.57
858.13	691.84
858.301	239.53
858.472	241.11
858.643	200.36
858.814	144.95
858.985	144.37
859.155	73.44
859.326	-82.18
859.497	14.59
859.668	38.1
859.839	-107.14
860.009	-45.24
860.18	-10.76
860.351	38.93
860.522	22.69
860.692	68
860.863	49.57
861.034	44.44
861.204	44.84
861.375	-4.65
861.546	52.3
861.716	104.42
861.887	147.58
862.057	670.59
862.228	1035.71
862.398	-118.73
862.569	-839.22
862.739	-1095.45
862.91	760.87
863.08	10885.71
863.251	-3890.48
863.421	-904
863.592	-7875
863.762	-625.97
863.932	1297.56
864.103	-822.22
864.273	444.21
864.443	311.9
864.614	112.64
864.784	88.71
864.954	57.94
865.125	46.48
865.295	61.76
865.465	70.25
865.635	63.13
865.805	30.51
865.976	49.35
866.146	57.17
866.316	57.31
866.486	65.29
866.656	68.07
866.826	82.34
866.996	78.62
867.166	91.14
867.336	89.15
867.506	102.21
867.676	118.27
867.846	127.23
868.016	71.84
868.186	123.61
868.356	462.65
868.526	420.2
868.696	-2488.24
868.866	-579.1
869.036	-1366.67
869.206	1016.22
869.376	-918.52
869.545	724
869.715	919.05
869.885	-358.82
870.055	-187.18
870.224	161.64
870.394	170.3
870.564	162.79
870.734	308.93
870.903	112.96
871.073	261.27
871.243	305.91
871.412	314.68
871.582	684.78
871.751	-2731.82
871.921	-316.46
872.091	-64.11
872.26	-63.72
872.43	-57.61
872.599	-83.27
872.769	-80.56
872.938	-69.91
873.108	-51.85
873.277	-217.74
873.446	2969.23
873.616	-394.62
873.785	250.97
873.955	204.17
874.124	314.05
874.293	430.41
874.463	2078.38
874.632	-1047.83
874.801	-716.36
874.971	-171.48
875.14	-87.09
875.309	-46.46
875.478	-141.76
875.647	-0.74
875.817	-15.41
875.986	6.35
876.155	4000
876.324	44.7
876.493	57.08
876.662	-44.22
876.831	13.61
877	4.72
877.17	44.63
877.339	118.75
877.508	149.73
877.677	0
877.846	-312.5
878.015	-215
878.184	-93.22
878.352	-2533.33
878.521	329.41
878.69	177.82
878.859	157.1
879.028	100.45
879.197	94.04
879.366	65.63
879.534	58.59
879.703	75.04
879.872	63.85
880.041	58.14
880.21	51.29
880.378	56.49
880.547	47.51
880.716	47.34
880.884	45.45
881.053	43.01
881.222	36.93
881.39	33.51
881.559	22.37
881.727	19.35
881.896	13.33
882.065	11.08
882.233	2.68
882.402	-0.74
882.57	-5
882.739	0.48
882.907	-5.43
883.076	9.14
883.244	12.34
883.412	22.72
883.581	31.11
883.749	40.2
883.918	48.22
884.086	57.99
884.254	83.24
884.423	82.99
884.591	68.74
884.759	87.08
884.927	86.95
885.096	92.71
885.264	91.73
885.432	87.4
885.6	89.73
885.769	57.05
885.937	52.98
886.105	49.51
886.273	47.27
886.441	58.39
886.609	38.42
886.777	44.85
886.945	33.57
887.113	45.78
887.281	57.29
887.449	76.3
887.617	105.49
887.785	134.84
887.953	144.92
888.121	248.68
888.289	375.83
888.457	911.54
888.625	425
888.793	-992.11
888.961	1437.5
889.129	3900
889.296	509.37
889.464	719.23
889.632	480
889.8	250.93
889.967	109.91
890.135	91.53
