Data from JASIL_2993_Reflection_01.txt Node
Date: Mon Nov 09 09:48:14 EST 2015
User: Geneva
Spectrometer: USB4E03002
Autoset integration time: false
Trigger mode: 4
Integration Time (sec): 1.000000E-1
Scans to average: 10
Electric dark correction enabled: false
Nonlinearity correction enabled: false
Boxcar width: 5
Stray light correction enabled: false
XAxis mode: Wavelengths
Stop averaging: false
Number of Pixels in Spectrum: 3648
>>>>>Begin Spectral Data<<<<<
177.575	-3.86
177.794	-25.88
178.014	-25.27
178.233	-35.83
178.452	-31.32
178.672	-26.91
178.891	-38.65
179.11	-50.44
179.33	-63.64
179.549	-86.01
179.768	-113.79
179.987	-55.16
180.207	-3.47
180.426	7.19
180.645	14.04
180.864	7.22
181.084	20.45
181.303	26.95
181.522	27
181.741	18.21
181.96	25.32
182.179	21.82
182.398	8.87
182.618	0.55
182.837	9.03
183.056	28.12
183.275	10.88
183.494	-17.29
183.713	-15.59
183.932	0.33
184.151	13.75
184.37	12.98
184.589	12.33
184.808	6.3
185.027	8.62
185.246	-18.08
185.465	-20.48
185.684	2.29
185.903	6.67
186.122	7.68
186.341	-22.2
186.56	-58.43
186.779	-31.85
186.998	-16.29
187.216	-7.46
187.435	-25.09
187.654	-7.74
187.873	-28.45
188.092	-45.82
188.311	-28.42
188.53	-27.64
188.748	1.74
188.967	-9.11
189.186	7.8
189.405	-3.75
189.623	8.57
189.842	22.14
190.061	-5.13
190.28	26.18
190.498	-1.2
190.717	16.06
190.936	-1.45
191.154	25.41
191.373	53.87
191.592	-7.17
191.81	50.46
192.029	-51.72
192.248	-94.59
192.466	5.2
192.685	-10.43
192.904	8.55
193.122	-55.75
193.341	-92.83
193.559	-156.52
193.778	-275.5
193.996	-143.73
194.215	-116.38
194.433	-55.47
194.652	-34.62
194.87	-56.44
195.089	-77.7
195.307	-167.46
195.526	-76.55
195.744	-90.57
195.963	-45.59
196.181	-74.55
196.399	-85.71
196.618	-108.64
196.836	-137.39
197.055	-107.18
197.273	-122.54
197.491	-137.57
197.71	-61.08
197.928	-89.15
198.146	-61.46
198.365	-117.55
198.583	-48.57
198.801	-55.14
199.019	-90
199.238	-56.94
199.456	-71.05
199.674	-74.52
199.892	-36.76
200.111	-119.69
200.329	-93.26
200.547	-29.13
200.765	-20.26
200.983	-66.04
201.202	-99.13
201.42	-91.6
201.638	-81.09
201.856	-521.13
202.074	718.92
202.292	436.59
202.51	-41.87
202.728	-21.83
202.946	-110.39
203.165	-75.86
203.383	-76.7
203.601	-137.76
203.819	-194.77
204.037	-142.62
204.255	-75.26
204.473	-56.18
204.691	-70.83
204.909	-77.97
205.127	-103.2
205.345	-87.77
205.562	-139.33
205.78	-12.89
205.998	28.05
206.216	-24.22
206.434	-21.89
206.652	24.24
206.87	42.19
207.088	24.55
207.306	16.29
207.523	35.8
207.741	36.5
207.959	40.53
208.177	-11.07
208.395	20.85
208.612	32.48
208.83	29.59
209.048	24.8
209.266	-9.64
209.483	-8.15
209.701	11.34
209.919	3.66
210.136	-98.34
210.354	-83.52
210.572	-41.95
210.79	-87.79
211.007	-24.7
211.225	-20.74
211.442	-11.66
211.66	-2.23
211.878	11.94
212.095	57.2
212.313	66.04
212.53	68.79
212.748	69.81
212.966	72.58
213.183	76.53
213.401	71.19
213.618	71.8
213.836	71.18
214.053	70.45
214.271	67.12
214.488	54.11
214.705	53.5
214.923	53.76
215.14	44.96
215.358	43.05
215.575	46.1
215.793	56.14
216.01	52.68
216.227	62.67
216.445	74.01
216.662	37.03
216.879	20.33
217.097	-35.86
217.314	-40.52
217.531	-108.43
217.749	-88.89
217.966	-81.78
218.183	-93.17
218.4	-269.3
218.618	-238.33
218.835	-184.86
219.052	-630
219.269	-1487.72
219.487	-376.61
219.704	-914.29
219.921	1096.49
220.138	1482.05
220.355	957.53
220.572	0
220.79	-2072.73
221.007	-456.06
221.224	-244.85
221.441	-62.67
221.658	-98.34
221.875	-186.35
222.092	-117.61
222.309	-51.92
222.526	-43.83
222.743	-58.17
222.96	-46.65
223.177	-62.1
223.394	-71.49
223.611	-163.35
223.828	-260.97
224.045	-205.15
224.262	-84.05
224.479	-77.4
224.696	-90.69
224.913	-86.97
225.13	-83.18
225.347	-84.13
225.564	-56.02
225.781	-53.92
225.997	-34.53
226.214	-25.53
226.431	-10.9
226.648	-29.06
226.865	-22.71
227.082	-22.71
227.298	-36.75
227.515	-33.26
227.732	-28.96
227.949	-28.38
228.165	-18.41
228.382	-9.32
228.599	-4.01
228.816	-12.37
229.032	-20.9
229.249	-25.04
229.466	-21.83
229.682	-19.64
229.899	-15.7
230.116	-22.88
230.332	-30.77
230.549	-44.48
230.765	-100.47
230.982	-109.71
231.199	-88.02
231.415	-32.05
231.632	-34.76
231.848	-28.43
232.065	-17
232.281	-26.43
232.498	-15.57
232.714	6.51
232.931	10.58
233.147	23.38
233.364	30.33
233.58	24.15
233.797	-4.16
234.013	-8.02
234.23	-13.01
234.446	-6.97
234.662	1.42
234.879	-13.68
235.095	-14.51
235.312	-20.45
235.528	-21.46
235.744	-24.16
235.961	-15.36
236.177	-0.86
236.393	2.78
236.61	-2.86
236.826	-3.66
237.042	-0.82
237.258	16.97
237.475	14.64
237.691	24.02
237.907	14.08
238.123	9.64
238.339	2.44
238.556	-3.13
238.772	-17.46
238.988	0.63
239.204	1.76
239.42	1.01
239.636	6.61
239.853	10.99
240.069	7.64
240.285	10.76
240.501	13.54
240.717	12.66
240.933	14.73
241.149	20.84
241.365	18.95
241.581	19.71
241.797	18.56
242.013	14.61
242.229	13.78
242.445	13.55
242.661	18.06
242.877	15.71
243.093	13.21
243.309	11.8
243.525	8
243.741	8.21
243.957	6.33
244.173	8.42
244.388	7.05
244.604	3.84
244.82	2.15
245.036	1.6
245.252	4.12
245.468	7.96
245.683	7.31
245.899	9.33
246.115	9.49
246.331	8.21
246.547	7.46
246.762	11.19
246.978	9.3
247.194	8.36
247.409	5.57
247.625	4.48
247.841	4.4
248.057	6.33
248.272	4.56
248.488	2.35
248.703	7.53
248.919	0.67
249.135	-8.18
249.35	-4.84
249.566	-0.19
249.782	-1.97
249.997	-1.78
250.213	-8.97
250.428	-7.67
250.644	-10.15
250.859	-7.79
251.075	-9.06
251.29	-2.67
251.506	1.72
251.721	4.16
251.937	3.97
252.152	5.67
252.368	6.2
252.583	11.95
252.798	9.16
253.014	15.4
253.229	14.18
253.445	7.21
253.66	2.65
253.875	-5.53
254.091	-8.3
254.306	-4.47
254.521	2.92
254.737	3.7
254.952	4.85
255.167	3
255.383	-3.81
255.598	-2.52
255.813	4.09
256.028	4.94
256.244	3.67
256.459	0.38
256.674	0.85
256.889	0.15
257.104	-0.88
257.32	-2.12
257.535	1.58
257.75	4.43
257.965	4.6
258.18	3.54
258.395	3.4
258.61	3.92
258.826	5.25
259.041	4.46
259.256	2.28
259.471	4.3
259.686	5.24
259.901	1.07
260.116	0.13
260.331	-4.48
260.546	-5.39
260.761	-4.09
260.976	-5.57
261.191	-7.63
261.406	-10.64
261.621	-4.37
261.836	-5.46
262.05	-10.12
262.265	-4.97
262.48	-5.45
262.695	-1.54
262.91	-0.84
263.125	-3.45
263.34	-2.71
263.555	-0.15
263.769	1.86
263.984	-0.03
264.199	-5.08
264.414	0.11
264.629	4.9
264.843	3.84
265.058	2.44
265.273	0.51
265.488	3.09
265.702	2.84
265.917	4.32
266.132	6.93
266.346	7.79
266.561	11.39
266.776	10.72
266.99	9.13
267.205	13.08
267.42	14.98
267.634	12.89
267.849	11.06
268.063	13.21
268.278	11.78
268.492	9.04
268.707	11.9
268.922	9.9
269.136	8.59
269.351	5.58
269.565	3.86
269.78	1.28
269.994	6.47
270.209	5.37
270.423	0.85
270.637	-0.29
270.852	1.73
271.066	-1.08
271.281	0.26
271.495	-0.37
271.709	0.22
271.924	-3.1
272.138	-0.4
272.353	-3.15
272.567	-1.8
272.781	0.24
272.996	2.58
273.21	0.32
273.424	-2.91
273.638	-5.7
273.853	-3.19
274.067	-3.74
274.281	-2.06
274.495	-3.18
274.71	-3.05
274.924	-3.55
275.138	-0.27
275.352	1.58
275.566	1.19
275.781	3.32
275.995	3.29
276.209	3.77
276.423	2.99
276.637	4.99
276.851	4.68
277.065	5.72
277.279	2.94
277.493	1.64
277.707	1.19
277.921	0.88
278.135	1.17
278.349	0.61
278.563	-3.93
278.777	-0.45
278.991	-0.14
279.205	-1.33
279.419	-0.17
279.633	1
279.847	-3.15
280.061	-7.96
280.275	-5.07
280.489	-6.73
280.703	-5.12
280.917	-2.2
281.131	-2.97
281.344	-0.14
281.558	-0.65
281.772	1.02
281.986	2.9
282.2	4.41
282.414	5.76
282.627	5.65
282.841	7.91
283.055	6.98
283.269	7.64
283.482	9.47
283.696	7.56
283.91	8.7
284.123	4.93
284.337	5.1
284.551	7.05
284.764	9.05
284.978	9.34
285.192	9.4
285.405	10
285.619	7.43
285.833	5.39
286.046	1.75
286.26	0.46
286.473	2.07
286.687	2.81
286.9	3.53
287.114	1.75
287.327	0.96
287.541	0.14
287.754	-3.06
287.968	1.15
288.181	-0.13
288.395	1.58
288.608	2.88
288.822	3.35
289.035	0.82
289.248	-1.93
289.462	-3.1
289.675	-2.61
289.889	-2.93
290.102	1.28
290.315	0.15
290.529	-0.1
290.742	1.43
290.955	1.85
291.169	0.91
291.382	1.49
291.595	-0.13
291.808	2.78
292.022	3.03
292.235	4.32
292.448	2.6
292.661	0.46
292.875	1.21
293.088	-0.19
293.301	-1.25
293.514	-2.28
293.727	-1.3
293.94	0.26
294.153	-1.76
294.367	-3.35
294.58	-4.68
294.793	-5.83
295.006	-6.12
295.219	-3.3
295.432	-3.34
295.645	-1.6
295.858	-1.56
296.071	-0.41
296.284	-0.26
296.497	-0.39
296.71	-0
296.923	0.83
297.136	-0.09
297.349	3.47
297.562	2.46
297.775	3.43
297.988	5.63
298.201	7.27
298.414	6.92
298.626	7.32
298.839	7.09
299.052	8.9
299.265	10.04
299.478	12.03
299.691	10.41
299.903	11.6
300.116	9.89
300.329	6.38
300.542	5.96
300.755	4.32
300.967	3.61
301.18	2.71
301.393	0.44
301.605	-0.85
301.818	-1.41
302.031	-0.77
302.243	-2.1
302.456	-1.73
302.669	1.16
302.881	2.74
303.094	3.83
303.307	3
303.519	3.81
303.732	4.44
303.944	2.75
304.157	3.35
304.37	2.24
304.582	2.76
304.795	4.49
305.007	1.58
305.22	-2.54
305.432	-4.91
305.645	-1.98
305.857	0.19
306.069	1.76
306.282	4.17
306.494	6.27
306.707	3.75
306.919	1.75
307.132	-0.61
307.344	-0.68
307.556	2.55
307.769	6.64
307.981	4.53
308.193	1.9
308.406	1.56
308.618	5.66
308.83	6.94
309.043	11.32
309.255	12.74
309.467	13.33
309.679	13.76
309.892	12.47
310.104	11.3
310.316	12.59
310.528	14.73
310.74	14.49
310.953	11.32
311.165	10.37
311.377	7.29
311.589	5.69
311.801	5.88
312.013	6.84
312.225	10.44
312.437	10.33
312.649	9.47
312.862	8.62
313.074	5.46
313.286	7.9
313.498	7.19
313.71	7.02
313.922	9.02
314.134	11.27
314.346	10.1
314.558	7.46
314.77	7.91
314.982	12
315.193	12.27
315.405	14.42
315.617	14.26
315.829	14.14
316.041	16.9
316.253	13.62
316.465	13.3
316.677	14.06
316.888	15.2
317.1	14.63
317.312	10.84
317.524	13.92
317.736	13.89
317.947	9.64
318.159	10.07
318.371	8.22
318.583	6.67
318.794	3.75
319.006	4.63
319.218	-0.29
319.43	-0.65
319.641	0.26
319.853	-2.45
320.064	-3.38
320.276	-0.34
320.488	-1.68
320.699	-0.37
320.911	4.13
321.123	6.92
321.334	3.69
321.546	7.82
321.757	6.11
321.969	5.04
322.18	5.43
322.392	6.59
322.603	4.29
322.815	6.07
323.026	8.32
323.238	8.62
323.449	8.93
323.661	9.55
323.872	8.43
324.083	9.88
324.295	8.61
324.506	8.73
324.718	9.33
324.929	10.12
325.14	9.77
325.352	8.43
325.563	11.4
325.774	10.83
325.986	11.82
326.197	11.82
326.408	11.81
326.62	11.99
326.831	11.61
327.042	10.73
327.253	10.48
327.464	9.6
327.676	11.67
327.887	8.28
328.098	10.35
328.309	10.56
328.52	12.8
328.732	16.69
328.943	18.51
329.154	14.99
329.365	17.8
329.576	17.23
329.787	17.68
329.998	16.4
330.209	15.29
330.42	13.23
330.631	11.84
330.842	8.43
331.053	7.49
331.264	5.95
331.475	8.26
331.686	9.81
331.897	11.11
332.108	11.52
332.319	11.83
332.53	11.24
332.741	11.2
332.952	13.78
333.163	15.86
333.374	15.12
333.585	16.13
333.795	17.6
334.006	18.26
334.217	20.75
334.428	20.47
334.639	19.4
334.849	19.15
335.06	20.56
335.271	19.71
335.482	18.96
335.692	18.5
335.903	19.05
336.114	19.08
336.325	19.17
336.535	17.71
336.746	18.84
336.957	20.75
337.167	23.72
337.378	23.22
337.589	21.84
337.799	21.13
338.01	20.28
338.22	20.26
338.431	18.42
338.642	14.66
338.852	12.56
339.063	8.39
339.273	7.24
339.484	6.06
339.694	4.06
339.905	3.46
340.115	7.4
340.326	5.86
340.536	2.11
340.746	4.11
340.957	4.33
341.167	7.22
341.378	9.31
341.588	7.74
341.799	6.61
342.009	7.87
342.219	7.39
342.43	4.41
342.64	7.2
342.85	11.91
343.061	12
343.271	11.54
343.481	8.58
343.691	9.5
343.902	11.5
344.112	11.53
344.322	10.69
344.532	14.84
344.743	15.26
344.953	13.48
345.163	13.24
345.373	12.43
345.583	12.56
345.793	14.5
346.004	14.13
346.214	12.56
346.424	14.36
346.634	13.86
346.844	10.47
347.054	10.81
347.264	11.4
347.474	8.98
347.684	11.39
347.894	12.51
348.104	13.51
348.314	13.95
348.524	15
348.734	15.7
348.944	17
349.154	16.56
349.364	16.68
349.574	16.49
349.784	17.28
349.994	18.01
350.204	17.64
350.413	17.4
350.623	17.61
350.833	17.63
351.043	14.82
351.253	15.63
351.463	15.68
351.672	14.73
351.882	15.96
352.092	17.51
352.302	16.83
352.511	16.86
352.721	15.55
352.931	15.18
353.141	12.55
353.35	15.01
353.56	13.92
353.77	11.28
353.979	11.86
354.189	12.56
354.399	12.35
354.608	11.59
354.818	11.99
355.027	12.43
355.237	12.17
355.447	13.59
355.656	11.5
355.866	11.56
356.075	13.6
356.285	13.56
356.494	12.82
356.704	11.12
356.913	8.91
357.123	7.2
357.332	6.64
357.542	6.06
357.751	6.9
357.96	8.16
358.17	8.67
358.379	9.24
358.589	9.99
358.798	9.76
359.007	10.59
359.217	12.36
359.426	14.06
359.635	13.51
359.845	14.14
360.054	12.63
360.263	13.74
360.472	13.53
360.682	13.1
360.891	12.78
361.1	13.18
361.309	13.14
361.519	12.88
361.728	12
361.937	13.09
362.146	13.97
362.355	15.96
362.564	14.12
362.774	14.41
362.983	14.96
363.192	14.7
363.401	16.2
363.61	16.67
363.819	16.8
364.028	17.32
364.237	15.49
364.446	13.18
364.655	13.24
364.864	14.96
365.073	14.76
365.282	14.76
365.491	15.96
365.7	14.13
365.909	13.11
366.118	13.98
366.327	12.88
366.536	14.97
366.745	15.51
366.954	14.58
367.162	14.3
367.371	15.57
367.58	16.13
367.789	15.85
367.998	15.88
368.207	17.35
368.415	16.1
368.624	15.85
368.833	16.1
369.042	16.38
369.25	16.29
369.459	16.19
369.668	15.28
369.877	15.01
370.085	14.99
370.294	14.81
370.503	14.02
370.711	14.81
370.92	14.16
371.129	14.04
371.337	13.9
371.546	14.32
371.754	14.71
371.963	13.8
372.171	13.06
372.38	12.38
372.589	11.48
372.797	9.91
373.006	8.83
373.214	9.87
373.423	9.08
373.631	9.57
373.84	8.93
374.048	8.7
374.256	8.94
374.465	9.69
374.673	9.45
374.882	10.51
375.09	11.91
375.298	12.26
375.507	13.14
375.715	13.03
375.923	12.55
376.132	11.44
376.34	10.36
376.548	11.48
376.757	10.27
376.965	9.33
377.173	9.7
377.381	8.87
377.59	9.64
377.798	10.15
378.006	8.76
378.214	9.29
378.423	10.86
378.631	11.45
378.839	10.86
379.047	11.4
379.255	11.92
379.463	12.22
379.671	12.71
379.879	11.88
380.088	8.2
380.296	8.97
380.504	9.32
380.712	8.95
380.92	8.9
381.128	9.95
381.336	10.72
381.544	11.98
381.752	11.59
381.96	12.87
382.168	11.83
382.376	14.31
382.584	14.36
382.791	13.76
382.999	14.1
383.207	13.22
383.415	11.94
383.623	11.14
383.831	10.65
384.039	10.6
384.247	9.16
384.454	9.53
384.662	10.68
384.87	10.82
385.078	10.4
385.285	11.4
385.493	12.79
385.701	12.99
385.909	12.89
386.116	13.06
386.324	13.53
386.532	14.03
386.739	15.28
386.947	13.75
387.155	14.28
387.362	14.32
387.57	11.65
387.778	10.59
387.985	10.63
388.193	10.88
388.4	10.06
388.608	9.87
388.816	9
389.023	8.77
389.231	9.19
389.438	8.48
389.646	9.24
389.853	11.12
390.061	10.23
390.268	8.93
390.475	8.95
390.683	8.61
390.89	7.54
391.098	8.23
391.305	8.19
391.512	8.03
391.72	8.58
391.927	7.32
392.135	6.34
392.342	7.65
392.549	8.91
392.756	9.12
392.964	10.18
393.171	10.66
393.378	10.42
393.586	10.58
393.793	10.33
394	10.28
394.207	11.52
394.414	12.34
394.622	11.39
394.829	11.17
395.036	9.95
395.243	9.87
395.45	9.95
395.657	10.09
395.864	9.25
396.072	10.43
396.279	11.41
396.486	10.7
396.693	11.31
396.9	12.64
397.107	12.05
397.314	12.91
397.521	12.15
397.728	11.66
397.935	10.49
398.142	10.7
398.349	9.9
398.556	8.31
398.763	8.4
398.97	7.22
399.177	6.95
399.383	7.6
399.59	6.63
399.797	6.91
400.004	7.11
400.211	8.31
400.418	9.51
400.625	10.84
400.831	11.68
401.038	10.91
401.245	10.34
401.452	10.69
401.658	10.51
401.865	11.85
402.072	11.53
402.279	10.8
402.485	10.59
402.692	9.41
402.899	9.04
403.105	8.55
403.312	9.86
403.519	10.65
403.725	10.14
403.932	9.94
404.138	9.21
404.345	8.8
404.552	9.84
404.758	10.22
404.965	11.57
405.171	11.1
405.378	11.22
405.584	10.38
405.791	11.12
405.997	10.58
406.204	10.03
406.41	9.81
406.617	10.74
406.823	10.66
407.029	11.23
407.236	9.2
407.442	9.66
407.649	9.83
407.855	9.81
408.061	8.74
408.268	9.37
408.474	9.42
408.68	10.97
408.887	11.04
409.093	10.49
409.299	10
409.505	11.11
409.712	9.52
409.918	9.46
410.124	8.52
410.33	8.59
410.537	9.11
410.743	9.35
410.949	8.04
411.155	8.69
411.361	9.51
411.567	8.8
411.773	8.14
411.98	8.99
412.186	9.35
412.392	10.37
412.598	10.47
412.804	9.49
413.01	10.16
413.216	10.15
413.422	8.69
413.628	7.37
413.834	7.81
414.04	7.46
414.246	7.91
414.452	7.43
414.658	7.7
414.864	7
415.07	7.79
415.275	7.42
415.481	8.31
415.687	8.42
415.893	9.23
416.099	9.24
416.305	10.01
416.511	9.54
416.716	10.06
416.922	9.98
417.128	9.59
417.334	9.19
417.539	9.7
417.745	9.61
417.951	9.29
418.157	9.3
418.362	9.03
418.568	8.27
418.774	8.3
418.979	8.52
419.185	8.53
419.391	9.01
419.596	9.09
419.802	8.85
420.008	8.86
420.213	9.04
420.419	8.9
420.624	9.31
420.83	9.74
421.035	9.9
421.241	9.22
421.446	8.7
421.652	9.05
421.857	8.63
422.063	8.62
422.268	8.14
422.474	7.95
422.679	8.05
422.885	7.69
423.09	7.49
423.295	7.55
423.501	7.61
423.706	7.91
423.911	7.48
424.117	7.55
424.322	7.84
424.527	7.89
424.733	8.06
424.938	7.64
425.143	7.2
425.349	7.47
425.554	7.95
425.759	8.12
425.964	7.99
426.169	8.83
426.375	9.33
426.58	8.83
426.785	9.31
426.99	9.06
427.195	9.69
427.4	10.71
427.605	10.89
427.811	10.16
428.016	10.04
428.221	10.48
428.426	9.12
428.631	8.93
428.836	8.93
429.041	8.75
429.246	9.28
429.451	8.9
429.656	8.55
429.861	8.08
430.066	7.76
430.271	8.28
430.476	8.06
430.681	8.38
430.886	8.57
431.09	8.72
431.295	8.98
431.5	9.13
431.705	9.24
431.91	9.42
432.115	9.12
432.32	9.57
432.524	8.66
432.729	9
432.934	8.25
433.139	8.51
433.343	8.77
433.548	8.75
433.753	8.74
433.958	8.89
434.162	8.92
434.367	9.19
434.572	8.5
434.776	9.07
434.981	8.51
435.186	9.2
435.39	9
435.595	8.5
435.799	7.67
436.004	7.54
436.209	7.44
436.413	7.47
436.618	7.97
436.822	8.36
437.027	8.17
437.231	8.28
437.436	8.85
437.64	8.73
437.845	7.77
438.049	8.72
438.253	9.04
438.458	9.12
438.662	8.65
438.867	8.5
439.071	7.88
439.275	8.51
439.48	8.61
439.684	8.16
439.888	8.13
440.093	8.65
440.297	8.67
440.501	8.72
440.706	8.19
440.91	8.02
441.114	7.7
441.318	8.42
441.523	8.2
441.727	8.07
441.931	7.91
442.135	7.91
442.339	7.71
442.543	7.24
442.748	6.64
442.952	6.8
443.156	6.95
443.36	6.93
443.564	6.06
443.768	6
443.972	5.63
444.176	5.47
444.38	5.43
444.584	5.77
444.788	5.31
444.992	5.62
445.196	5.71
445.4	6.64
445.604	7.09
445.808	7.64
446.012	7.39
446.216	8.31
446.42	9.05
446.624	9.32
446.828	9.5
447.032	9.41
447.235	9.13
447.439	9
447.643	8.75
447.847	8.28
448.051	7.79
448.254	8.34
448.458	7.98
448.662	7.94
448.866	7.68
449.069	7.92
449.273	8.5
449.477	8.85
449.681	9.54
449.884	9.16
450.088	9.17
450.292	10.24
450.495	9.96
450.699	9.94
450.902	10.16
451.106	10.27
451.31	9.5
451.513	9.18
451.717	9.77
451.92	9.5
452.124	9.35
452.327	9.23
452.531	8.74
452.734	8.3
452.938	8.12
453.141	7.41
453.345	6.64
453.548	7.25
453.752	7.84
453.955	8
454.158	7.53
454.362	8.31
454.565	9.03
454.769	9.58
454.972	10.01
455.175	9.46
455.379	9.25
455.582	9.98
455.785	10.01
455.988	9
456.192	7.64
456.395	8.3
456.598	7.52
456.801	6.51
457.005	6.3
457.208	5.98
457.411	6.16
457.614	6.5
457.817	6.27
458.021	6.01
458.224	6.32
458.427	6.46
458.63	6.19
458.833	5.7
459.036	6.01
459.239	5.88
459.442	6.33
459.645	6.89
459.848	6.59
460.051	6.73
460.254	7.32
460.457	7.19
460.66	7.55
460.863	7.55
461.066	8.23
461.269	8.24
461.472	8.44
461.675	7.84
461.878	7.61
462.081	7.87
462.284	7.51
462.486	6.85
462.689	7.45
462.892	7.32
463.095	7.59
463.298	6.91
463.5	7.34
463.703	7.48
463.906	8.38
464.109	8.42
464.311	8.97
464.514	9.16
464.717	9.22
464.92	9.85
465.122	9.32
465.325	9.47
465.528	9.76
465.73	9.4
465.933	8.48
466.135	7.52
466.338	7.57
466.541	7.53
466.743	7.53
466.946	7.93
467.148	7.26
467.351	7.66
467.553	7.33
467.756	7.52
467.958	8.08
468.161	8.06
468.363	8.16
468.566	7.8
468.768	7.11
468.971	7.17
469.173	6.74
469.375	6.1
469.578	5.8
469.78	6.19
469.983	5.51
470.185	4.79
470.387	5.39
470.59	5.73
470.792	5.54
470.994	5.17
471.196	5.23
471.399	5.27
471.601	6.22
471.803	6.07
472.005	5.14
472.208	5.66
472.41	5.65
472.612	5.55
472.814	5.14
473.016	5.27
473.218	5.75
473.421	5.83
473.623	5.56
473.825	4.91
474.027	5.17
474.229	5.87
474.431	6.29
474.633	6.27
474.835	6.57
475.037	7.65
475.239	7.99
475.441	8.35
475.643	8.49
475.845	8.65
476.047	8.87
476.249	8.81
476.451	8.82
476.653	8.35
476.855	8.96
477.057	8.21
477.258	7.81
477.46	7.89
477.662	7.51
477.864	7.47
478.066	7.23
478.268	7.19
478.469	7.34
478.671	7.92
478.873	8.16
479.075	7.56
479.276	8.21
479.478	8.34
479.68	8.01
479.882	7.95
480.083	7.74
480.285	7.89
480.487	8.3
480.688	8.19
480.89	7.53
481.091	7.51
481.293	7.62
481.495	7.36
481.696	7.26
481.898	7.26
482.099	7.48
482.301	7.58
482.502	7.69
482.704	7.62
482.905	7.62
483.107	7.72
483.308	7.9
483.51	8.05
483.711	8.08
483.913	8.03
484.114	8.09
484.315	7.97
484.517	7.79
484.718	7.72
484.92	7.55
485.121	7.6
485.322	7.53
485.524	7.57
485.725	7.25
485.926	7.27
486.127	7.25
486.329	7.18
486.53	7.6
486.731	7.73
486.932	7.8
487.134	7.78
487.335	7.8
487.536	7.89
487.737	7.67
487.938	7.84
488.139	7.9
488.341	7.95
488.542	8.13
488.743	7.84
488.944	7.68
489.145	7.42
489.346	7.47
489.547	7.34
489.748	7.18
489.949	7.3
490.15	7.43
490.351	7.43
490.552	7.32
490.753	7.21
490.954	6.86
491.155	7.02
491.356	7.13
491.557	7.36
491.758	7.59
491.959	7.71
492.159	7.28
492.36	7.17
492.561	7.14
492.762	7.37
492.963	7.54
493.164	8.18
493.364	8.13
493.565	8.1
493.766	7.78
493.967	7.54
494.167	7.45
494.368	7.71
494.569	7.88
494.769	7.82
494.97	8.04
495.171	7.89
495.371	7.71
495.572	7.36
495.773	7.55
495.973	7.34
496.174	7.72
496.375	7.55
496.575	7.52
496.776	7.67
496.976	7.64
497.177	7.43
497.377	7.33
497.578	6.7
497.778	7.45
497.979	7.55
498.179	7.87
498.38	7.84
498.58	8.32
498.78	9.13
498.981	8.58
499.181	8.46
499.382	8.39
499.582	8.23
499.782	8.68
499.983	8.41
500.183	8.14
500.383	7.77
500.584	7.38
500.784	7.48
500.984	6.74
501.184	6.95
501.385	7.17
501.585	7.44
501.785	7.56
501.985	7.74
502.185	7.5
502.386	7.49
502.586	8.03
502.786	8.01
502.986	7.65
503.186	7.63
503.386	8.02
503.586	8.27
503.786	7.87
503.987	8.15
504.187	7.98
504.387	8.26
504.587	7.8
504.787	8.12
504.987	8.32
505.187	8.51
505.387	7.96
505.587	7.27
505.786	7.06
505.986	7.41
506.186	7.15
506.386	7.12
506.586	7.48
506.786	8.47
506.986	8.28
507.186	8.45
507.386	8.77
507.585	9.58
507.785	9.96
507.985	10.02
508.185	10.01
508.384	10.11
508.584	10.2
508.784	9.72
508.984	9.69
509.183	9.04
509.383	8.58
509.583	8.37
509.782	7.8
509.982	7.83
510.182	7.95
510.381	7.69
510.581	7.5
510.781	7.79
510.98	7.7
511.18	7.44
511.379	8.12
511.579	8.39
511.778	8.38
511.978	8.8
512.177	8.95
512.377	8.98
512.576	9.4
512.776	9.85
512.975	9.63
513.175	9.84
513.374	10.08
513.573	9.86
513.773	9.75
513.972	9.48
514.172	9.54
514.371	8.83
514.57	8.99
514.77	9.26
514.969	9.03
515.168	9.1
515.367	9.18
515.567	9.17
515.766	8.93
515.965	9.5
516.164	9.89
516.364	10.24
516.563	10.92
516.762	10.55
516.961	10.32
517.16	10.91
517.359	10.82
517.559	10.82
517.758	11.14
517.957	11.56
518.156	11.08
518.355	11.16
518.554	10.73
518.753	10.73
518.952	10.84
519.151	10.69
519.35	10.36
519.549	10.47
519.748	10.61
519.947	10.44
520.146	10.27
520.345	11.19
520.544	11.62
520.743	11.47
520.942	11.63
521.141	12.28
521.339	12.88
521.538	13.03
521.737	13.26
521.936	13.52
522.135	13.11
522.333	12.85
522.532	12.82
522.731	12.58
522.93	13.06
523.129	13
523.327	12.75
523.526	12.44
523.725	12.38
523.923	12.88
524.122	12.77
524.321	13.21
524.519	13.58
524.718	13.27
524.917	13.07
525.115	13.22
525.314	13.31
525.512	13.28
525.711	13.32
525.909	13.41
526.108	13.17
526.306	13.15
526.505	12.85
526.703	12.99
526.902	12.96
527.1	13.29
527.299	13.29
527.497	13.44
527.696	13.56
527.894	13.77
528.092	13.92
528.291	13.95
528.489	14.19
528.688	14.64
528.886	14.66
529.084	14.98
529.283	14.96
529.481	15.2
529.679	15.05
529.877	15.08
530.076	14.95
530.274	15.15
530.472	15.33
530.67	15.55
530.869	15.54
531.067	15.47
531.265	15.49
531.463	15.3
531.661	15.26
531.859	15.42
532.057	15.47
532.255	15.27
532.454	15.13
532.652	15.38
532.85	15.01
533.048	14.8
533.246	14.94
533.444	15.12
533.642	15.26
533.84	15.36
534.038	15.59
534.236	15.28
534.434	15.52
534.632	15.5
534.83	15.45
535.027	15.45
535.225	15.63
535.423	15.83
535.621	15.5
535.819	15.67
536.017	15.63
536.215	15.75
536.412	16.1
536.61	16.57
536.808	16.87
537.006	16.86
537.203	17.01
537.401	17.33
537.599	17.23
537.797	17.47
537.994	17.59
538.192	17.56
538.39	17.27
538.587	17.48
538.785	16.78
538.983	16.98
539.18	17.16
539.378	16.85
539.575	16.6
539.773	16.86
539.97	16.87
540.168	16.83
540.366	16.99
540.563	17.13
540.761	17.12
540.958	17.53
541.155	17.13
541.353	16.91
541.55	17.61
541.748	17.7
541.945	17.41
542.143	17.51
542.34	17.74
542.537	17.57
542.735	17.28
542.932	17.52
543.129	17.45
543.327	18.01
543.524	18.26
543.721	17.9
543.919	18.04
544.116	18.23
544.313	18.21
544.51	18.26
544.708	18
544.905	18.27
545.102	18.19
545.299	18.51
545.496	18.56
545.693	18.72
545.891	19.23
546.088	19.06
546.285	19.26
546.482	19.2
546.679	19.11
546.876	19.74
547.073	19.78
547.27	20.13
547.467	19.99
547.664	19.66
547.861	19.32
548.058	19.14
548.255	19.11
548.452	18.97
548.649	19.23
548.846	19.23
549.043	19.76
549.24	20.18
549.437	20.09
549.633	20.3
549.83	20.46
550.027	20.69
550.224	20.41
550.421	21.02
550.618	20.91
550.814	20.49
551.011	20.45
551.208	20.09
551.405	20.02
551.601	19.92
551.798	19.65
551.995	19.59
552.191	19.12
552.388	18.81
552.585	18.51
552.781	18.26
552.978	18.53
553.175	19.04
553.371	19.26
553.568	19.31
553.764	19.56
553.961	20.12
554.157	19.94
554.354	20.28
554.55	20.95
554.747	21.6
554.943	21.82
555.14	22.31
555.336	22.15
555.533	21.86
555.729	21.61
555.926	20.99
556.122	20.69
556.318	21.02
556.515	21.77
556.711	21.61
556.907	21.28
557.104	22.43
557.3	22.2
557.496	21.96
557.693	22.21
557.889	22.64
558.085	23.09
558.281	23.22
558.478	23.43
558.674	23.13
558.87	23.82
559.066	23.79
559.262	23.2
559.459	22.99
559.655	23.19
559.851	22.91
560.047	23.44
560.243	23.27
560.439	23.17
560.635	22.83
560.831	23.01
561.027	22.29
561.223	22.4
561.419	22.76
561.615	22.59
561.811	22.16
562.007	22.21
562.203	21.45
562.399	21.56
562.595	21.09
562.791	21.2
562.987	21.51
563.183	22.12
563.379	22.09
563.575	21.98
563.771	22.77
563.966	23
564.162	22.94
564.358	22.9
564.554	23.15
564.75	23.89
564.945	24.27
565.141	23.82
565.337	23.34
565.533	23.71
565.728	23.22
565.924	22.98
566.12	22.69
566.315	22.65
566.511	22.78
566.707	22.68
566.902	22.36
567.098	22.09
567.293	22.79
567.489	23.28
567.684	22.81
567.88	23.22
568.076	23.05
568.271	23.71
568.467	23.97
568.662	24.02
568.858	24.89
569.053	25.38
569.248	25.27
569.444	24.36
569.639	24.45
569.835	24.45
570.03	24.87
570.225	25.35
570.421	24.83
570.616	24.96
570.812	24.64
571.007	24.08
571.202	23.93
571.397	24.41
571.593	24.62
571.788	24.36
571.983	24.56
572.178	23.93
572.374	23.69
572.569	23.93
572.764	24.06
572.959	24.54
573.154	24.13
573.35	24.32
573.545	23.94
573.74	24.52
573.935	24.33
574.13	24.33
574.325	25.25
574.52	25.3
574.715	25
574.91	24.54
575.105	24.42
575.3	25.24
575.495	25.22
575.69	25.47
575.885	25.26
576.08	25.63
576.275	25.49
576.47	25.01
576.665	25.62
576.86	26.35
577.055	26.67
577.25	26.57
577.444	25.73
577.639	25.48
577.834	25.27
578.029	25.17
578.224	24.66
578.418	25.58
578.613	25.39
578.808	24.44
579.003	23.92
579.197	23.94
579.392	24.16
579.587	24.24
579.781	24.16
579.976	24.45
580.171	24.03
580.365	23.62
580.56	22.84
580.755	24.25
580.949	24.6
581.144	25.16
581.338	25.74
581.533	26.47
581.727	25.83
581.922	25.55
582.116	25.52
582.311	25.76
582.505	26.93
582.7	27.26
582.894	26.06
583.089	26.66
583.283	26.22
583.478	26
583.672	25.35
583.866	26.08
584.061	26.66
584.255	26.32
584.449	26.24
584.644	25.81
584.838	25.61
585.032	26.23
585.226	25.89
585.421	26.22
585.615	25.92
585.809	25.64
586.003	25.38
586.198	24.89
586.392	25.46
586.586	25.74
586.78	25.27
586.974	25.09
587.168	25.32
587.363	25.6
587.557	25.43
587.751	25.45
587.945	25.58
588.139	25.85
588.333	26.18
588.527	25.76
588.721	25.94
588.915	26.48
589.109	26.08
589.303	25.24
589.497	24.48
589.691	24.26
589.885	25.24
590.079	25.3
590.273	25.72
590.466	25.63
590.66	25.69
590.854	25.69
591.048	25.65
591.242	26.25
591.436	25.67
591.629	25.77
591.823	26.51
592.017	24.61
592.211	24.31
592.404	24.56
592.598	24.88
592.792	24.46
592.986	24.79
593.179	24.16
593.373	24.57
593.567	24.69
593.76	24.51
593.954	24.14
594.147	24.7
594.341	25.66
594.535	25.56
594.728	25.78
594.922	26.69
595.115	26.52
595.309	27.13
595.502	26.25
595.696	26.35
595.889	27.29
596.083	27.4
596.276	27.83
596.47	27.46
596.663	26.79
596.856	27.05
597.05	26.63
597.243	26.58
597.437	26.55
597.63	27.08
597.823	28.12
598.017	27.2
598.21	27.54
598.403	26.83
598.596	26.77
598.79	27.14
598.983	26.45
599.176	26.31
599.369	26.64
599.563	26.13
599.756	26.42
599.949	26.36
600.142	26.77
600.335	25.67
600.528	26.07
600.722	26.29
600.915	26.41
601.108	25.98
601.301	25.93
601.494	25.27
601.687	25.67
601.88	25.27
602.073	25.18
602.266	25.31
602.459	26.16
602.652	26.37
602.845	26.02
603.038	26.17
603.231	26.66
603.424	26.76
603.617	26.81
603.809	26.87
604.002	26.59
604.195	26.16
604.388	25.97
604.581	26.04
604.774	25.87
604.966	26.27
605.159	26.39
605.352	26.28
605.545	26.24
605.737	26.64
605.93	26.73
606.123	27.34
606.316	27.23
606.508	27.64
606.701	26.86
606.894	26.85
607.086	26.97
607.279	25.94
607.471	25.14
607.664	25.54
607.857	25.39
608.049	25.32
608.242	24.94
608.434	24.96
608.627	24.6
608.819	24.91
609.012	25.14
609.204	25.18
609.397	26.01
609.589	27.19
609.782	26.77
609.974	26.26
610.166	26.44
610.359	27.2
610.551	27.71
610.743	27.59
610.936	27.93
611.128	28.03
611.32	27.27
611.513	27.09
611.705	27.33
611.897	27.65
612.09	27.57
612.282	27.73
612.474	27.72
612.666	27.72
612.858	28.06
613.051	27.93
613.243	28.03
613.435	28.13
613.627	27.73
613.819	26.88
614.011	26.93
614.203	26.58
614.395	26.07
614.588	25.54
614.78	25.58
614.972	25.75
615.164	24.86
615.356	24.78
615.548	25.97
615.74	26.91
615.932	27.01
616.124	27.02
616.315	27.35
616.507	27.04
616.699	27.71
616.891	27.47
617.083	28.2
617.275	28.4
617.467	29.23
617.659	28.13
617.85	28.09
618.042	27.83
618.234	28.23
618.426	28.93
618.618	30.11
618.809	30.31
619.001	30.25
619.193	29.06
619.384	30.48
619.576	30.72
619.768	31.14
619.959	31.26
620.151	31.75
620.343	32.23
620.534	32.2
620.726	32.71
620.917	32.64
621.109	33.24
621.301	34.09
621.492	33.97
621.684	33.72
621.875	32.9
622.067	33.07
622.258	32.64
622.45	32.29
622.641	31.42
622.832	30.51
623.024	30.72
623.215	29.52
623.407	28.58
623.598	27.68
623.789	26.64
623.981	27.26
624.172	26.68
624.363	27.12
624.555	26.72
624.746	27.83
624.937	27.76
625.129	27.63
625.32	28.22
625.511	27.94
625.702	28.51
625.893	29.37
626.085	30.05
626.276	29.68
626.467	30.25
626.658	30.8
626.849	30.52
627.04	30.39
627.231	29.78
627.422	29.79
627.614	30.53
627.805	30.16
627.996	30.52
628.187	30.01
628.378	31.19
628.569	31.08
628.76	30.1
628.951	29.98
629.142	29.07
629.332	29.04
629.523	29.04
629.714	28.81
629.905	28.87
630.096	27.89
630.287	28.11
630.478	25.99
630.669	24.89
630.859	26.95
631.05	27.08
631.241	28.34
631.432	27.5
631.623	28.22
631.813	28.68
632.004	28.26
632.195	28.5
632.385	27.36
632.576	27.91
632.767	27.99
632.957	26.53
633.148	26.79
633.339	26.62
633.529	27.68
633.72	27.15
633.91	26.05
634.101	26.84
634.292	26.6
634.482	27.16
634.673	27.98
634.863	28.16
635.054	28.53
635.244	27.4
635.435	26.24
635.625	26.08
635.815	26.12
636.006	27.37
636.196	27.64
636.387	28.04
636.577	27.85
636.767	28.04
636.958	27.44
637.148	27.9
637.338	29.11
637.529	30.52
637.719	32.17
637.909	31.12
638.099	31.19
638.29	30.62
638.48	30.53
638.67	31.58
638.86	31.41
639.05	31.72
639.241	30.34
639.431	28.96
639.621	28.04
639.811	26.09
640.001	27.38
640.191	25.75
640.381	25.07
640.571	24.75
640.761	24.06
640.951	25.93
641.141	26.52
641.331	26.98
641.521	28.46
641.711	29.08
641.901	30.05
642.091	28.77
642.281	30.11
642.471	30.42
642.661	31.32
642.851	30.64
643.041	27.89
643.231	27.39
643.42	27.49
643.61	26.78
643.8	26.03
643.99	26.19
644.18	27.23
644.369	26.87
644.559	26.07
644.749	24.76
644.939	25.2
645.128	25.89
645.318	26.28
645.508	24.5
645.697	24.83
645.887	25.72
646.076	25.95
646.266	25.42
646.456	25.36
646.645	26.15
646.835	26.6
647.024	27.88
647.214	27.63
647.403	28.08
647.593	30.32
647.782	29.72
647.972	30.7
648.161	30.12
648.351	31.52
648.54	31.88
648.73	32.52
648.919	32.93
649.108	31.51
649.298	31.25
649.487	29.89
649.677	29.9
649.866	30.4
650.055	29.43
650.244	29.32
650.434	28.82
650.623	28.89
650.812	28.66
651.002	28.45
651.191	29.06
651.38	30.24
651.569	31.76
651.758	31.38
651.947	31.73
652.137	32.34
652.326	31.6
652.515	31.26
652.704	30.64
652.893	30
653.082	29.72
653.271	29.29
653.46	28.23
653.649	28.1
653.838	29.07
654.027	29.37
654.216	28.83
654.405	29.75
654.594	30.1
654.783	30.58
654.972	31.03
655.161	30.68
655.35	30.53
655.539	31.56
655.728	31.71
655.916	30.4
656.105	29.34
656.294	30.06
656.483	30.35
656.672	29.8
656.86	29.63
657.049	29.33
657.238	29.68
657.427	30.65
657.615	30.9
657.804	30.19
657.993	29.99
658.181	30.67
658.37	30.64
658.559	30.57
658.747	30.63
658.936	30.81
659.125	29.79
659.313	29.92
659.502	29.51
659.69	28.34
659.879	28.96
660.067	30.07
660.256	30.51
660.444	28.9
660.633	27.95
660.821	27.62
661.01	28.39
661.198	30.08
661.387	30.99
661.575	31.03
661.763	30.8
661.952	30.74
662.14	29.61
662.328	28.27
662.517	30.68
662.705	31.21
662.893	30.43
663.082	27.54
663.27	26.78
663.458	24.88
663.646	25.75
663.834	26.25
664.023	25.59
664.211	25.3
664.399	26.05
664.587	24.96
664.775	24.38
664.963	26.54
665.152	29.56
665.34	29.84
665.528	31.08
665.716	29.45
665.904	29.82
666.092	29.39
666.28	29.31
666.468	28.78
666.656	30.24
666.844	30.37
667.032	30.54
667.22	29.28
667.408	29.32
667.596	29.19
667.784	30.36
667.971	31.64
668.159	31.26
668.347	31.51
668.535	31.38
668.723	31.33
668.911	32.46
669.098	31.98
669.286	32.16
669.474	32.4
669.662	30.7
669.849	31.07
670.037	30.54
670.225	30.92
670.413	32.07
670.6	33.4
670.788	31.81
670.976	30.73
671.163	30.63
671.351	30.75
671.538	30.23
671.726	31.95
671.913	31.17
672.101	30.64
672.289	32.2
672.476	31.02
672.664	30.02
672.851	29.56
673.039	30.31
673.226	29.26
673.413	29.34
673.601	28.17
673.788	28.23
673.976	28.93
674.163	29.2
674.35	28.03
674.538	29.67
674.725	28.77
674.912	29.24
675.1	29.35
675.287	30.55
675.474	31.01
675.662	33.04
675.849	33.06
676.036	32.4
676.223	32.52
676.411	32.45
676.598	31.98
676.785	33.36
676.972	32.33
677.159	31
677.346	30.72
677.533	29.32
677.721	29.55
677.908	29.88
678.095	30.43
678.282	29.97
678.469	29.43
678.656	30.06
678.843	29.72
679.03	30.6
679.217	31.61
679.404	30.68
679.591	32.05
679.778	31.63
679.964	31.45
680.151	29.56
680.338	29.31
680.525	30.19
680.712	29.13
680.899	29.49
681.086	29.21
681.272	29.8
681.459	30.13
681.646	29.48
681.833	31.29
682.02	30.58
682.206	31.71
682.393	32.48
682.58	32.84
682.766	32.8
682.953	32.53
683.14	33.23
683.326	32.6
683.513	33.04
683.7	32.23
683.886	29.46
684.073	29.51
684.259	30.74
684.446	30.4
684.632	28.75
684.819	29.44
685.005	29.94
685.192	29.05
685.378	29.73
685.565	30.18
685.751	31.06
685.938	31.68
686.124	31.21
686.31	30
686.497	31.05
686.683	31.71
686.87	31.67
687.056	30.71
687.242	30.97
687.429	29.42
687.615	28.52
687.801	28.73
687.987	27.16
688.174	27.7
688.36	27.64
688.546	25.76
688.732	25.5
688.918	24.63
689.105	24.08
689.291	24.79
689.477	26.09
689.663	26.72
689.849	27.5
690.035	31.2
690.221	31.5
690.407	30.16
690.593	30.21
690.779	30.34
690.965	29.88
691.151	30.42
691.337	30.06
691.523	29.74
691.709	30.02
691.895	29.38
692.081	27.12
692.267	27.51
692.453	29.67
692.639	28.81
692.825	28.89
693.011	28.75
693.196	29.61
693.382	29.18
693.568	26.52
693.754	25.65
693.94	25.67
694.125	25.82
694.311	24.59
694.497	24.74
694.682	26.78
694.868	26.03
695.054	28.01
695.239	27.02
695.425	28.44
695.611	31.92
695.796	32.72
695.982	32.42
696.168	31.54
696.353	31.94
696.539	31.35
696.724	31.54
696.91	32.24
697.095	31.25
697.281	31.2
697.466	30.76
697.652	29.64
697.837	28.48
698.023	28.04
698.208	28.96
698.393	28.25
698.579	28.57
698.764	27.48
698.949	27.52
699.135	27.25
699.32	26.97
699.505	25.67
699.691	25.33
699.876	26.62
700.061	27
700.246	26.75
700.432	28.92
700.617	29.19
700.802	30.15
700.987	29.83
701.172	30.6
701.358	29.8
701.543	31.7
701.728	31.69
701.913	32.21
702.098	32.71
702.283	34.77
702.468	33.24
702.653	32.47
702.838	32.04
703.023	31.64
703.208	32.38
703.393	33.67
703.578	33.62
703.763	33.35
703.948	31.8
704.133	31.83
704.318	29.25
704.503	28.74
704.688	28.27
704.873	26.27
705.057	26.58
705.242	27.72
705.427	30.38
705.612	28.97
705.797	28.35
705.981	28.65
706.166	28.23
706.351	27.62
706.536	28.34
706.72	30.11
706.905	33.22
707.09	34.38
707.274	32.61
707.459	32.34
707.644	32.16
707.828	33.36
708.013	33.23
708.197	33.18
708.382	33.77
708.567	33.18
708.751	33.21
708.936	32.91
709.12	31
709.305	29.86
709.489	27.38
709.673	29.8
709.858	31.53
710.042	30.32
710.227	30.27
710.411	29.53
710.596	28.52
710.78	27.59
710.964	25.72
711.149	26.78
711.333	27.91
711.517	28.72
711.702	28.78
711.886	27.75
712.07	31.3
712.254	31.39
712.438	33.62
712.623	34.27
712.807	34.77
712.991	34.83
713.175	35.47
713.359	36.22
713.544	36.11
713.728	34.71
713.912	34.55
714.096	32.25
714.28	31.28
714.464	27.27
714.648	28.21
714.832	27.38
715.016	27.95
715.2	26.05
715.384	25.04
715.568	24.42
715.752	25.12
715.936	24.21
716.12	24
716.304	24.37
716.488	26.34
716.671	25.88
716.855	25.33
717.039	25.13
717.223	26.63
717.407	26.7
717.59	27.93
717.774	27.02
717.958	27.53
718.142	29.68
718.325	30.83
718.509	31.89
718.693	32.55
718.877	32.36
719.06	31.22
719.244	31.7
719.428	30.83
719.611	29.15
719.795	29.14
719.978	28.07
720.162	27.85
720.345	28.17
720.529	27.82
720.713	27.79
720.896	25.98
721.08	26.97
721.263	26.25
721.446	25.27
721.63	25.76
721.813	25.48
721.997	26
722.18	23.91
722.364	22.38
722.547	22.92
722.73	21.77
722.914	26.74
723.097	31.95
723.28	32.02
723.464	33.32
723.647	35.28
723.83	35.8
724.013	32.88
724.197	32.26
724.38	32.41
724.563	31.52
724.746	34.06
724.929	30.18
725.112	26.69
725.296	26.86
725.479	25.85
725.662	25.32
725.845	21.61
726.028	26.87
726.211	29.06
726.394	29.81
726.577	31.6
726.76	29.99
726.943	31.41
727.126	28.99
727.309	27.71
727.492	29.13
727.675	29.79
727.858	32.12
728.041	28.57
728.224	26.91
728.407	26.03
728.589	24.18
728.772	23.91
728.955	24.07
729.138	25.22
729.321	25.11
729.503	22.7
729.686	19.88
729.869	19.67
730.052	22.79
730.234	22.15
730.417	21.68
730.6	22.47
730.782	21.43
730.965	22.89
731.148	22.99
731.33	23.14
731.513	23.85
731.695	26.02
731.878	27.2
732.061	25.99
732.243	26.02
732.426	26.84
732.608	25.7
732.791	28.04
732.973	28.23
733.156	27.42
733.338	30.7
733.52	33.72
733.703	31.91
733.885	31.76
734.068	35.03
734.25	37.44
734.432	39.52
734.615	38.88
734.797	36.96
734.979	32.85
735.162	34.68
735.344	32.61
735.526	30.59
735.708	32.2
735.891	33.55
736.073	32.04
736.255	33.83
736.437	33.25
736.619	33.21
736.802	34.63
736.984	37.54
737.166	36.48
737.348	36.93
737.53	38.87
737.712	40.94
737.894	38.89
738.076	37.89
738.258	36.62
738.44	36.77
738.622	37.09
738.804	37.79
738.986	37.32
739.168	37.13
739.35	36.6
739.532	33.43
739.714	31.45
739.896	31.69
740.078	31.97
740.259	31.9
740.441	29.67
740.623	30.7
740.805	30.37
740.987	31.82
741.168	32.48
741.35	32.89
741.532	34.91
741.714	38.77
741.895	40.75
742.077	40.87
742.259	38
742.44	42.46
742.622	40.57
742.804	39.68
742.985	38.83
743.167	38.07
743.348	39.25
743.53	40
743.711	36.23
743.893	34.86
744.075	34.98
744.256	34.83
744.438	31.16
744.619	36.42
744.8	38.75
744.982	38.48
745.163	37.85
745.345	40.22
745.526	37.99
745.707	39.4
745.889	38.58
746.07	35.56
746.252	38.06
746.433	37.72
746.614	35.56
746.795	36.25
746.977	36.72
747.158	40.42
747.339	36.92
747.52	37.99
747.702	32.35
747.883	33.58
748.064	34.02
748.245	32.06
748.426	34.23
748.607	34.22
748.788	29.99
748.97	30.41
749.151	32.17
749.332	33.88
749.513	32.84
749.694	36.79
749.875	38.21
750.056	40.09
750.237	43.16
750.418	41.72
750.599	42.07
750.78	46.31
750.96	47.36
751.141	42.28
751.322	41.29
751.503	39.8
751.684	40.16
751.865	39.1
752.046	35.31
752.226	35.09
752.407	33.78
752.588	33.59
752.769	33.7
752.949	34.5
753.13	37.62
753.311	35.55
753.492	37.68
753.672	39.44
753.853	37.36
754.034	41.33
754.214	41.15
754.395	40.76
754.575	40.81
754.756	38.46
754.937	34.76
755.117	37.42
755.298	37.6
755.478	38.31
755.659	34.69
755.839	39.48
756.02	40.07
756.2	39.23
756.381	43.61
756.561	40.25
756.741	38.18
756.922	36.13
757.102	30.85
757.283	29.43
757.463	29.45
757.643	32.05
757.823	26.74
758.004	26.5
758.184	29.43
758.364	25.17
758.545	27.56
758.725	27.65
758.905	27.14
759.085	29.45
759.265	27.66
759.446	26.97
759.626	23.77
759.806	25.48
759.986	23.82
760.166	19.82
760.346	18.37
760.526	17.79
760.706	19.09
760.886	23.03
761.066	19.19
761.246	19.16
761.426	20.52
761.606	22.05
761.786	19.93
761.966	20.25
762.146	22.56
762.326	24.79
762.506	27.59
762.686	29.17
762.866	27.95
763.046	31.22
763.225	35.2
763.405	31.48
763.585	32.95
763.765	32.31
763.945	34.59
764.124	36.6
764.304	37.46
764.484	35
764.664	35.79
764.843	36.58
765.023	33.48
765.203	30.83
765.382	36.38
765.562	32.72
765.741	36.79
765.921	33.79
766.101	32.82
766.28	32.63
766.46	37.29
766.639	36.19
766.819	36.54
766.998	38.72
767.178	39.51
767.357	39.3
767.537	41.42
767.716	44.08
767.896	47.14
768.075	44.74
768.254	48.28
768.434	46.27
768.613	46.85
768.792	47.57
768.972	47
769.151	45.17
769.33	44.28
769.51	40.81
769.689	39.33
769.868	35.09
770.047	35.98
770.226	32.32
770.406	32.99
770.585	30.61
770.764	32.19
770.943	28.39
771.122	33.83
771.301	30.31
771.48	32.56
771.66	31.99
771.839	33.18
772.018	34.03
772.197	33.9
772.376	30.27
772.555	34.26
772.734	27.13
772.913	30.32
773.092	28.68
773.271	29.93
773.449	30.98
773.628	26.7
773.807	28.35
773.986	27.84
774.165	28.11
774.344	27.2
774.523	24.97
774.701	30.23
774.88	32.37
775.059	30.44
775.238	36.22
775.417	38.31
775.595	40.52
775.774	42.34
775.953	39.69
776.131	41.98
776.31	38.8
776.489	41.71
776.667	39
776.846	39.21
777.025	37.65
777.203	31.98
777.382	31.39
777.56	32.53
777.739	30.34
777.917	32.06
778.096	31.74
778.274	32.01
778.453	30.36
778.631	35.94
778.81	33.09
778.988	33.29
779.166	37.74
779.345	37.02
779.523	36.86
779.702	41.97
779.88	40
780.058	33.02
780.237	41.25
780.415	41.29
780.593	41.62
780.771	42.85
780.95	47.33
781.128	50.7
781.306	47.18
781.484	49.26
781.662	46.32
781.841	48.34
782.019	55.62
782.197	50.11
782.375	58.05
782.553	60.54
782.731	59.04
782.909	56.69
783.087	51.56
783.265	50.84
783.443	46.17
783.621	51.01
783.799	53.91
783.977	50.32
784.155	52.5
784.333	40.87
784.511	39.52
784.689	43.13
784.867	36.46
785.045	29.74
785.223	40.25
785.4	45.24
785.578	44.63
785.756	36.77
785.934	37.82
786.112	34.9
786.289	38.01
786.467	31.17
786.645	30.09
786.823	36.12
787	41.65
787.178	36.76
787.356	33.99
787.533	30.77
787.711	39.7
787.889	39.56
788.066	44.47
788.244	43.04
788.421	45.58
788.599	45.61
788.776	41.72
788.954	35.92
789.131	30.66
789.309	35.02
789.486	31.3
789.664	31.73
789.841	27.83
790.019	25.24
790.196	26.66
790.373	26.87
790.551	26.02
790.728	28.27
790.906	30.27
791.083	39.5
791.26	35.69
791.437	37.66
791.615	33.01
791.792	41.97
791.969	35.19
792.146	32.25
792.324	29.47
792.501	31.14
792.678	25.32
792.855	30.4
793.032	33.76
793.209	29.98
793.387	32.15
793.564	31.85
793.741	27.51
793.918	31.28
794.095	30.8
794.272	33.94
794.449	39.67
794.626	44.86
794.803	45.61
794.98	42.47
795.157	43.71
795.334	50.73
795.511	51.13
795.688	50.64
795.864	55.28
796.041	56.92
796.218	52.85
796.395	52.29
796.572	50.14
796.749	53.35
796.925	53.27
797.102	55.09
797.279	49.73
797.456	51.28
797.632	50.36
797.809	46.95
797.986	52.05
798.162	54.03
798.339	45.51
798.516	42.82
798.692	37.42
798.869	32.27
799.046	35.33
799.222	22.96
799.399	23.88
799.575	26.37
799.752	28.87
799.928	24.28
800.105	21.87
800.281	30.59
800.458	30.53
800.634	26.86
800.811	24.8
800.987	22.04
801.163	18.28
801.34	17.53
801.516	9.61
801.692	13.68
801.869	18.31
802.045	19.96
802.221	10.55
802.398	20.94
802.574	21.94
802.75	24
802.926	27.27
803.103	37.41
803.279	34.9
803.455	42.22
803.631	35.12
803.807	31.4
803.983	27.36
804.16	24.61
804.336	18.34
804.512	19.04
804.688	19.33
804.864	14.03
805.04	8.71
805.216	5.95
805.392	-2.47
805.568	-0.73
805.744	4.28
805.92	5.41
806.096	16.52
806.272	21.42
806.448	21.72
806.623	21.94
806.799	24.82
806.975	18.28
807.151	29.03
807.327	19.24
807.503	29.25
807.678	28.96
807.854	32.62
808.03	24.32
808.206	14.76
808.381	21.84
808.557	24.59
808.733	17.94
808.908	24.49
809.084	17.73
809.26	29.19
809.435	17.84
809.611	20.31
809.787	25.07
809.962	28.1
810.138	31.79
810.313	21.72
810.489	25.69
810.664	30.05
810.84	41.41
811.015	43.75
811.191	31.53
811.366	45.07
811.542	43.51
811.717	53.12
811.892	53.49
812.068	46.73
812.243	48.51
812.419	50.03
812.594	36.17
812.769	29.23
812.944	27.88
813.12	36.46
813.295	27.53
813.47	23.5
813.645	15.51
813.821	18.59
813.996	25.49
814.171	26.52
814.346	26
814.521	37.53
814.697	33.03
814.872	35.46
815.047	35.78
815.222	35.79
815.397	37.65
815.572	32.54
815.747	19.62
815.922	23.01
816.097	14.24
816.272	18.07
816.447	21.66
816.622	16.56
816.797	19.79
816.972	23.44
817.147	23.96
817.322	20.32
817.496	21.31
817.671	33.82
817.846	24.63
818.021	24.77
818.196	23.38
818.371	21.9
818.545	29.51
818.72	24.47
818.895	25.4
819.069	28.65
819.244	29.87
819.419	31.05
819.594	23.86
819.768	24.14
819.943	28.82
820.117	28.88
820.292	27.87
820.467	26.53
820.641	28.02
820.816	27.04
820.99	26.92
821.165	27.55
821.339	25.42
821.514	27.95
821.688	27.95
821.863	27.99
822.037	27.38
822.212	28.73
822.386	28.83
822.56	28.01
822.735	26.23
822.909	25.15
823.084	24.4
823.258	25.67
823.432	19.28
823.606	21.47
823.781	18.36
823.955	18.15
824.129	16.9
824.303	19.22
824.478	17.25
824.652	20.11
824.826	19.57
825	21.05
825.174	24.8
825.348	28.21
825.523	28.24
825.697	25.43
825.871	25.03
826.045	24.24
826.219	20.72
826.393	20.47
826.567	18.49
826.741	21.89
826.915	19.73
827.089	18.63
827.263	18.93
827.437	15.88
827.611	20.85
827.784	22.43
827.958	17
828.132	20.03
828.306	21.61
828.48	28.69
828.654	24.21
828.827	25.16
829.001	19.86
829.175	20.45
829.349	20.56
829.522	10.33
829.696	0.51
829.87	10.49
830.044	13.71
830.217	17.33
830.391	2.13
830.565	7.59
830.738	2.92
830.912	4.83
831.085	3.12
831.259	6.87
831.432	22.67
831.606	27.86
831.779	31.04
831.953	25.1
832.126	26
832.3	27.16
832.473	23.01
832.647	23.21
832.82	23.61
832.994	25.06
833.167	24.76
833.34	25.74
833.514	26.86
833.687	23.97
833.86	29.5
834.034	31.68
834.207	40.33
834.38	41.42
834.553	43.93
834.727	42.67
834.9	39.08
835.073	45.47
835.246	45.13
835.419	44.73
835.593	46.56
835.766	42.37
835.939	26.94
836.112	5.02
836.285	2.13
836.458	0.86
836.631	6.3
836.804	7.43
836.977	-0.62
837.15	-8.44
837.323	-13.81
837.496	-40.79
837.669	-54.53
837.842	-51.04
838.015	-22.34
838.188	-21.1
838.361	-22.09
838.533	-14.08
838.706	-8.6
838.879	-0.58
839.052	-18.98
839.225	-12.9
839.398	-3.42
839.57	11.86
839.743	3.77
839.916	12.06
840.088	9.91
840.261	9.19
840.434	5.53
840.607	7.36
840.779	4.86
840.952	24.41
841.124	16.17
841.297	33.03
841.47	33.67
841.642	45.18
841.815	27.92
841.987	28.48
842.16	22.29
842.332	21.89
842.505	21.38
842.677	26.42
842.85	20.04
843.022	12.48
843.194	5.31
843.367	-3.47
843.539	-7.93
843.712	-0.37
843.884	-7.45
844.056	-4.7
844.229	-16.03
844.401	-37.31
844.573	-34.45
844.745	-16.87
844.918	-11.61
845.09	-11.21
845.262	-19.85
845.434	-46.28
845.606	-48.53
845.779	-58.03
845.951	-71.61
846.123	-89.93
846.295	-23.95
846.467	-47.61
846.639	-178.12
846.811	-268.75
846.983	-336.13
847.155	-328.95
847.327	-103.95
847.499	-161.02
847.671	-83.82
847.843	-109.41
848.015	-102.21
848.187	-180.7
848.359	-613.48
848.531	-544.44
848.703	-121.26
848.875	-169.35
849.047	-169.28
849.218	-55.08
849.39	39.69
849.562	-45.19
849.734	-24.17
849.905	7.21
850.077	-16.67
850.249	30.35
850.421	27.18
850.592	28.27
850.764	18.82
850.936	34.2
851.107	10.75
851.279	-4.98
851.451	24.46
851.622	28.77
851.794	34.87
851.965	38.54
852.137	18.59
852.308	6.41
852.48	-2.23
852.651	16.7
852.823	4.15
852.994	35.5
853.166	63.99
853.337	90.31
853.509	85.49
853.68	73.57
853.851	81.33
854.023	90.31
854.194	87.09
854.365	95.55
854.537	85.43
854.708	78.38
854.879	65.49
855.05	54.59
855.222	47.63
855.393	43.23
855.564	36.73
855.735	21.08
855.906	7.51
856.078	-12.95
856.249	-134.96
856.42	-105.76
856.591	-53.11
856.762	-83.76
856.933	-60.15
857.104	-23.43
857.275	-67.96
857.446	-16.3
857.617	-31.61
857.788	7.64
857.959	52.82
858.13	68.18
858.301	65.3
858.472	60.16
858.643	92.15
858.814	79.37
858.985	84.25
859.155	79.72
859.326	72.29
859.497	102.32
859.668	69.7
859.839	39.95
860.009	50.78
860.18	58.09
860.351	70.18
860.522	50.99
860.692	42.99
860.863	34.66
861.034	48.42
861.204	30.3
861.375	42.32
861.546	34.63
861.716	55.45
861.887	39.95
862.057	49.44
862.228	27.73
862.398	17.38
862.569	29.62
862.739	29.96
862.91	26.48
863.08	46.66
863.251	47.52
863.421	58.23
863.592	49.06
863.762	34.57
863.932	33.15
864.103	34.67
864.273	40.74
864.443	39.25
864.614	45.6
864.784	50.76
864.954	49.94
865.125	30.97
865.295	14.58
865.465	30.06
865.635	43.34
865.805	34.29
865.976	40.65
866.146	41.78
866.316	31.2
866.486	26.15
866.656	37.12
866.826	38.46
866.996	34.44
867.166	49.44
867.336	46.13
867.506	33.29
867.676	30.22
867.846	18.8
868.016	5.36
868.186	10.36
868.356	-48.56
868.526	-604.17
868.696	-33700
868.866	410.59
869.036	-176.15
869.206	-491.94
869.376	-331.71
869.545	-32.22
869.715	-64.63
869.885	-124.82
870.055	-34.69
870.224	-50.97
870.394	-71.52
870.564	-60.72
870.734	-42.32
870.903	-113.36
871.073	-13.38
871.243	-44.12
871.412	-59.82
871.582	-23.46
871.751	-23.26
871.921	-13
872.091	37.43
872.26	37.95
872.43	62.95
872.599	63.05
872.769	49.88
872.938	31.33
873.108	32.4
873.277	35.45
873.446	32.88
873.616	35.61
873.785	31.02
873.955	9.42
874.124	23.25
874.293	20.29
874.463	-1.79
874.632	-35.87
874.801	-18.22
874.971	-31.81
875.14	-45.73
875.309	-28.42
875.478	-34.67
875.647	-29.94
875.817	10.61
875.986	-10.96
876.155	-2.56
876.324	15.4
876.493	50.27
876.662	60.08
876.831	41.48
877	39.87
877.17	23.94
877.339	43.99
877.508	40.06
877.677	29.94
877.846	33.95
878.015	19.91
878.184	12.54
878.352	10.11
878.521	18.33
878.69	33.33
878.859	31.44
879.028	29.71
879.197	8.97
879.366	8.66
879.534	12.7
879.703	2.01
879.872	9.29
880.041	10.46
880.21	7.15
880.378	5.41
880.547	6.58
880.716	10.16
880.884	10.53
881.053	15.89
881.222	17.51
881.39	17.64
881.559	24.5
881.727	24.92
881.896	26.58
882.065	32.41
882.233	33.35
882.402	28.99
882.57	34.32
882.739	37.77
882.907	38.25
883.076	37.57
883.244	42.57
883.412	44.92
883.581	47.1
883.749	41.43
883.918	32.95
884.086	37.31
884.254	42.21
884.423	45.02
884.591	41.37
884.759	28.61
884.927	39.46
885.096	22.94
885.264	18.6
885.432	-25.28
885.6	13.07
885.769	36.8
885.937	29.56
886.105	23.05
886.273	-16.81
886.441	-20.87
886.609	-6.43
886.777	-23.96
886.945	-16.01
887.113	-43.28
887.281	20.87
887.449	4.85
887.617	18.28
887.785	33.5
887.953	57.5
888.121	57.38
888.289	51.43
888.457	73.25
888.625	79.34
888.793	78.98
888.961	70.07
889.129	74.41
889.296	83.96
889.464	70.59
889.632	51.5
889.8	29.07
889.967	46.22
890.135	58.66
