Data from JASIL_3264_Reflection_2.txt Node
Date: Mon Nov 16 20:58:00 EST 2015
User: Geneva
Spectrometer: USB4E03002
Autoset integration time: false
Trigger mode: 4
Integration Time (sec): 1.000000E-1
Scans to average: 10
Electric dark correction enabled: false
Nonlinearity correction enabled: false
Boxcar width: 5
Stray light correction enabled: false
XAxis mode: Wavelengths
Stop averaging: false
Number of Pixels in Spectrum: 3648
>>>>>Begin Spectral Data<<<<<
177.575	-776.07
177.794	-822.14
178.014	-893.98
178.233	-1614.02
178.452	-2357.83
178.672	-1601.52
178.891	-2102.83
179.11	6621.62
179.33	2238.39
179.549	-11504.55
179.768	2031.36
179.987	2327.96
180.207	1424.52
180.426	764.81
180.645	754.33
180.864	1327.92
181.084	576.61
181.303	511.11
181.522	1001.36
181.741	3105.63
181.96	710.83
182.179	943.12
182.398	1136
182.618	1062.71
182.837	1037.39
183.056	900.4
183.275	537.82
183.494	505.12
183.713	537.04
183.932	398.15
184.151	420.57
184.37	407.16
184.589	320.38
184.808	277.44
185.027	269.18
185.246	306.24
185.465	476.28
185.684	552.86
185.903	2366.67
186.122	917.04
186.341	1194.38
186.56	573.95
186.779	1053.89
186.998	1520.77
187.216	1584.25
187.435	1250.3
187.654	1212.43
187.873	578.37
188.092	489.12
188.311	447.08
188.53	736.43
188.748	721.12
188.967	1764
189.186	922.22
189.405	1004.33
189.623	1079.17
189.842	987.65
190.061	1047.37
190.28	2871.79
190.498	-2768.75
190.717	1855.56
190.936	-3876.27
191.154	-1864.29
191.373	-38750
191.592	-20236.36
191.81	-1291.38
192.029	-1759.54
192.248	-593.58
192.466	-557.25
192.685	-639.53
192.904	-939.93
193.122	-649.87
193.341	-1307.03
193.559	-1228.93
193.778	-1446.06
193.996	-1867.94
194.215	68150
194.433	-5745.24
194.652	1151.72
194.87	1048.92
195.089	917.9
195.307	1092.11
195.526	3427.12
195.744	1860.53
195.963	1212.09
196.181	26200
196.399	-1748.72
196.618	10265
196.836	36133.33
197.055	-1854.92
197.273	-3706.9
197.491	-2534.44
197.71	-4315.69
197.928	3028.75
198.146	5611.9
198.365	-24220
198.583	1111.26
198.801	1373.68
199.019	2998.7
199.238	-5580.95
199.456	2301.89
199.674	1032.63
199.892	769.16
200.111	1018.46
200.329	1020
200.547	809.86
200.765	742.67
200.983	840.36
201.202	689.29
201.42	1102.36
201.638	691.75
201.856	799.72
202.074	2335.54
202.292	2758.59
202.51	1769.39
202.728	2546.39
202.946	-6037.5
203.165	7696.97
203.383	-2531.96
203.601	-2923.26
203.819	5132
204.037	24520
204.255	2560.82
204.473	1170.56
204.691	1568.67
204.909	1055.51
205.127	1131.16
205.345	1295.45
205.562	1060.4
205.78	716.78
205.998	883.67
206.216	741.79
206.434	732.43
206.652	684.24
206.87	512.72
207.088	440.1
207.306	556.61
207.523	503.19
207.741	404.35
207.959	426.5
208.177	469.64
208.395	361.12
208.612	401.32
208.83	379.2
209.048	405.42
209.266	517
209.483	534.59
209.701	423.68
209.919	460.33
210.136	472.09
210.354	1110
210.572	1124.43
210.79	1733.33
211.007	1041.05
211.225	1666.67
211.442	-9404.76
211.66	-2620.83
211.878	-1284.72
212.095	443.65
212.313	497.09
212.53	713.65
212.748	385.84
212.966	334.51
213.183	315.71
213.401	321.96
213.618	298.91
213.836	345.69
214.053	349.55
214.271	319.7
214.488	1789.08
214.705	946.33
214.923	675.16
215.14	755.87
215.358	641.23
215.575	977.83
215.793	994.98
216.01	1411.66
216.227	519.36
216.445	403.09
216.662	450.96
216.879	446.92
217.097	396.26
217.314	438.65
217.531	556.57
217.749	615.88
217.966	763
218.183	612.12
218.4	700.98
218.618	879.13
218.835	910.33
219.052	619.95
219.269	518.18
219.487	776.74
219.704	577.26
219.921	416.19
220.138	322.95
220.355	318.41
220.572	368.57
220.79	404.84
221.007	487.8
221.224	675.99
221.441	656.81
221.658	781.21
221.875	536.75
222.092	522.35
222.309	795.29
222.526	871.37
222.743	778.57
222.96	995.28
223.177	478.13
223.394	489.14
223.611	322.91
223.828	377.67
224.045	392.37
224.262	440.98
224.479	318.24
224.696	240.21
224.913	275.15
225.13	225.32
225.347	190.96
225.564	185.07
225.781	146.72
225.997	158.57
226.214	128.6
226.431	113.98
226.648	99.28
226.865	88.13
227.082	81.6
227.298	68.99
227.515	60.41
227.732	55
227.949	47.32
228.165	45.19
228.382	37.89
228.599	37.87
228.816	35.16
229.032	37.82
229.249	39.27
229.466	45.62
229.682	49.49
229.899	50.64
230.116	53.43
230.332	60.5
230.549	67.39
230.765	70.6
230.982	69.76
231.199	76.47
231.415	85.59
231.632	88.51
231.848	88.91
232.065	97.23
232.281	98.37
232.498	111.38
232.714	111.75
232.931	105.75
233.147	102.55
233.364	115.65
233.58	113.84
233.797	115.82
234.013	113.87
234.23	114.26
234.446	109.79
234.662	107.97
234.879	103.22
235.095	106.25
235.312	108.95
235.528	120.46
235.744	118.95
235.961	116.53
236.177	103.31
236.393	112.88
236.61	116.81
236.826	113.16
237.042	121.48
237.258	116.15
237.475	110
237.691	106.66
237.907	97.97
238.123	100.93
238.339	92.27
238.556	88.36
238.772	81.2
238.988	73.2
239.204	77.69
239.42	72.27
239.636	67.8
239.853	64.31
240.069	61.94
240.285	58.71
240.501	54.21
240.717	51.99
240.933	46.32
241.149	43.92
241.365	42.85
241.581	39.69
241.797	37.03
242.013	37.29
242.229	36.01
242.445	38.75
242.661	39.78
242.877	40.62
243.093	41.4
243.309	43.95
243.525	45.44
243.741	45.36
243.957	45.59
244.173	44.15
244.388	43.13
244.604	43.68
244.82	39.38
245.036	37.08
245.252	34.18
245.468	31.89
245.683	31.34
245.899	29.54
246.115	28.78
246.331	28.11
246.547	27.55
246.762	26.98
246.978	27.18
247.194	27.78
247.409	27.92
247.625	27.75
247.841	28.91
248.057	29.58
248.272	30.43
248.488	32.92
248.703	34.85
248.919	37.41
249.135	40.76
249.35	41.36
249.566	43.63
249.782	43.26
249.997	45.58
250.213	45.51
250.428	45.73
250.644	46.59
250.859	42.48
251.075	39.11
251.29	38.06
251.506	36.5
251.721	37.2
251.937	36.28
252.152	37
252.368	36.37
252.583	36.71
252.798	37.25
253.014	36.7
253.229	39.4
253.445	42.17
253.66	46.83
253.875	50.5
254.091	54
254.306	51.61
254.521	53.1
254.737	51.27
254.952	55.24
255.167	56.04
255.383	54.39
255.598	51.48
255.813	50.75
256.028	48.95
256.244	46.16
256.459	41.37
256.674	41.63
256.889	39.39
257.104	36.66
257.32	33.1
257.535	28.34
257.75	25.96
257.965	24.76
258.18	23.73
258.395	21.15
258.61	19.99
258.826	20.14
259.041	19.43
259.256	18.63
259.471	17.74
259.686	17.23
259.901	17.79
260.116	18.67
260.331	19.2
260.546	18.78
260.761	20.18
260.976	20.47
261.191	21.32
261.406	23.11
261.621	26.48
261.836	30.34
262.05	31.52
262.265	34.39
262.48	35.02
262.695	34.98
262.91	35.03
263.125	33.78
263.34	35.91
263.555	36.68
263.769	37.53
263.984	35
264.199	36.09
264.414	37.1
264.629	35.48
264.843	35.11
265.058	35.73
265.273	33.85
265.488	32.55
265.702	31.84
265.917	30.6
266.132	29.11
266.346	28.66
266.561	26.5
266.776	27.35
266.99	26.6
267.205	26.01
267.42	25.65
267.634	28.04
267.849	28.58
268.063	30.27
268.278	31.7
268.492	31.47
268.707	33.04
268.922	33.22
269.136	31.97
269.351	32
269.565	31.37
269.78	30.36
269.994	29.89
270.209	29.41
270.423	26.02
270.637	24.35
270.852	23.31
271.066	22.86
271.281	24.53
271.495	23.35
271.709	23.42
271.924	24.39
272.138	25.05
272.353	25.24
272.567	25.72
272.781	26.3
272.996	27.45
273.21	27.71
273.424	28.49
273.638	26.84
273.853	27.48
274.067	27.93
274.281	26.31
274.495	26.82
274.71	26.85
274.924	26.21
275.138	26.15
275.352	24.63
275.566	27.54
275.781	26.83
275.995	26.59
276.209	27.17
276.423	27.62
276.637	27.75
276.851	28.59
277.065	29.06
277.279	30.8
277.493	31.96
277.707	31.06
277.921	28.14
278.135	28.22
278.349	29.48
278.563	30.21
278.777	28.78
278.991	28.87
279.205	28.24
279.419	27.3
279.633	26.4
279.847	25.25
280.061	25.96
280.275	26.63
280.489	25.25
280.703	23.32
280.917	23.27
281.131	23.41
281.344	24.41
281.558	24.93
281.772	22.83
281.986	22.98
282.2	23.37
282.414	22.93
282.627	22.23
282.841	22.14
283.055	23.55
283.269	22.85
283.482	22.85
283.696	22.77
283.91	22.05
284.123	23.51
284.337	22.79
284.551	22.13
284.764	21.74
284.978	20.93
285.192	20.59
285.405	20.74
285.619	20.82
285.833	20.34
286.046	19.92
286.26	19.36
286.473	18.08
286.687	18.05
286.9	19.11
287.114	20.88
287.327	23.03
287.541	23.6
287.754	22.37
287.968	22.05
288.181	21.98
288.395	21.84
288.608	23.36
288.822	24.61
289.035	25.34
289.248	25.06
289.462	23.69
289.675	21.97
289.889	22.03
290.102	21.44
290.315	21.9
290.529	21.6
290.742	22.04
290.955	20.49
291.169	21.4
291.382	21.54
291.595	21.57
291.808	22.2
292.022	21.97
292.235	21.87
292.448	24.49
292.661	24.11
292.875	26.63
293.088	27.27
293.301	27.34
293.514	24.77
293.727	22.74
293.94	21.33
294.153	21.94
294.367	22.92
294.58	22.09
294.793	21.1
295.006	20.98
295.219	19.97
295.432	18.9
295.645	17.93
295.858	18.36
296.071	18.78
296.284	19.22
296.497	17.51
296.71	17.62
296.923	17.83
297.136	16.8
297.349	15.82
297.562	16.07
297.775	16.45
297.988	16.98
298.201	17.47
298.414	17.33
298.626	17.86
298.839	18.08
299.052	17.36
299.265	17.55
299.478	18.73
299.691	20.04
299.903	19.74
300.116	21.26
300.329	21.88
300.542	22.82
300.755	23.3
300.967	23.89
301.18	25.12
301.393	26.15
301.605	26.91
301.818	26.25
302.031	27.54
302.243	27.63
302.456	27.28
302.669	28.3
302.881	28.27
303.094	27.72
303.307	27.06
303.519	27.15
303.732	27.96
303.944	28.04
304.157	28.31
304.37	26.91
304.582	26.34
304.795	25.39
305.007	24.75
305.22	24.35
305.432	26.18
305.645	26.66
305.857	26.59
306.069	25.23
306.282	24.55
306.494	24.57
306.707	24.02
306.919	24.9
307.132	24.82
307.344	24.93
307.556	23.62
307.769	23.99
307.981	23.74
308.193	23.28
308.406	23.4
308.618	22.82
308.83	22.24
309.043	22.38
309.255	22.22
309.467	21.82
309.679	20.67
309.892	21.69
310.104	20.2
310.316	19.55
310.528	20.1
310.74	18.7
310.953	19.44
311.165	20.09
311.377	20.59
311.589	20.41
311.801	20.25
312.013	21.3
312.225	22.02
312.437	21.76
312.649	22.41
312.862	23.09
313.074	24.92
313.286	25.51
313.498	26.3
313.71	25.65
313.922	26.8
314.134	27.86
314.346	27.53
314.558	27.27
314.77	27.57
314.982	28
315.193	27.72
315.405	27.35
315.617	26.51
315.829	26.24
316.041	26.63
316.253	26.09
316.465	26.59
316.677	27.02
316.888	26.99
317.1	27.92
317.312	26.34
317.524	26.24
317.736	28.18
317.947	29.9
318.159	30.37
318.371	30.75
318.583	29.66
318.794	29.71
319.006	29.3
319.218	29.55
319.43	30.07
319.641	32.6
319.853	33.36
320.064	32.39
320.276	31.22
320.488	32.36
320.699	31.61
320.911	34.76
321.123	33.13
321.334	35.06
321.546	35.42
321.757	36.76
321.969	35.97
322.18	35.26
322.392	34.55
322.603	33.69
322.815	31.38
323.026	32.04
323.238	30.81
323.449	30.59
323.661	29.71
323.872	28.77
324.083	26.39
324.295	24.97
324.506	24.96
324.718	23.84
324.929	23.67
325.14	24.7
325.352	24.87
325.563	24.77
325.774	24.88
325.986	22.81
326.197	22.71
326.408	22.72
326.62	23.38
326.831	23.04
327.042	24.34
327.253	24.67
327.464	25.15
327.676	24.6
327.887	24.92
328.098	26.73
328.309	28.13
328.52	29.08
328.732	30.64
328.943	31.26
329.154	31.25
329.365	31.48
329.576	32.76
329.787	31.83
329.998	33.28
330.209	31.91
330.42	30.68
330.631	31.18
330.842	30.73
331.053	29.67
331.264	28.69
331.475	27.79
331.686	27.87
331.897	26.23
332.108	27.57
332.319	26.39
332.53	26.87
332.741	26.67
332.952	27.18
333.163	26.79
333.374	25.58
333.585	26.04
333.795	26.23
334.006	26.29
334.217	26.53
334.428	25.26
334.639	24.85
334.849	24.48
335.06	25.38
335.271	24.53
335.482	25.09
335.692	25.58
335.903	26.18
336.114	27.46
336.325	27.27
336.535	27.19
336.746	27.67
336.957	29.5
337.167	29.15
337.378	29.43
337.589	29.61
337.799	29.1
338.01	31.15
338.22	30.04
338.431	29.61
338.642	28.4
338.852	28.15
339.063	27.8
339.273	27.17
339.484	28.83
339.694	28.12
339.905	27.45
340.115	27.23
340.326	26.08
340.536	27.08
340.746	27.7
340.957	28.6
341.167	28.35
341.378	27.89
341.588	27.13
341.799	25.98
342.009	25.57
342.219	27.03
342.43	27.19
342.64	27.16
342.85	25.77
343.061	24.65
343.271	23.77
343.481	23.62
343.691	22.92
343.902	23.03
344.112	22.67
344.322	22.64
344.532	21.76
344.743	22.32
344.953	21.55
345.163	22.39
345.373	22.56
345.583	24.17
345.793	25.07
346.004	26.23
346.214	26.53
346.424	26.38
346.634	26.18
346.844	26.5
347.054	26.21
347.264	26.56
347.474	27.54
347.684	27.38
347.894	25.9
348.104	25.82
348.314	25.48
348.524	24.63
348.734	24.72
348.944	24.39
349.154	23.88
349.364	24.63
349.574	24.23
349.784	23.26
349.994	22.89
350.204	23.49
350.413	22.58
350.623	21.69
350.833	21.7
351.043	21.67
351.253	21.97
351.463	21.56
351.672	20.04
351.882	21.17
352.092	22.55
352.302	23.17
352.511	22.64
352.721	22.71
352.931	24.41
353.141	24.54
353.35	24.13
353.56	25.03
353.77	25.52
353.979	26.75
354.189	26.54
354.399	24.93
354.608	25.21
354.818	23.82
355.027	23.73
355.237	22.36
355.447	22.85
355.656	22.9
355.866	21.95
356.075	22.18
356.285	21.8
356.494	20.52
356.704	20.54
356.913	19.9
357.123	21.78
357.332	21.71
357.542	21.77
357.751	21.26
357.96	22.36
358.17	22.02
358.379	21.24
358.589	19.94
358.798	20.72
359.007	20.57
359.217	19.67
359.426	18.7
359.635	18.8
359.845	18.31
360.054	18.47
360.263	17.31
360.472	17.44
360.682	17.41
360.891	18.28
361.1	17.28
361.309	16.92
361.519	17.3
361.728	17.7
361.937	17.15
362.146	17.44
362.355	17.51
362.564	17.33
362.774	17.33
362.983	17.03
363.192	16.94
363.401	17.97
363.61	18.36
363.819	18.63
364.028	18.09
364.237	18.85
364.446	18.7
364.655	18.63
364.864	18.72
365.073	19.1
365.282	18.53
365.491	18.41
365.7	17.86
365.909	18.44
366.118	17.86
366.327	18.46
366.536	19.13
366.745	18.84
366.954	18.86
367.162	20.11
367.371	19.71
367.58	20.66
367.789	20.52
367.998	20.95
368.207	19.96
368.415	20.52
368.624	20.33
368.833	19.26
369.042	19.68
369.25	20.2
369.459	20.02
369.668	20.39
369.877	20.54
370.085	19.98
370.294	19.87
370.503	19.95
370.711	20.11
370.92	19.84
371.129	20.9
371.337	21.17
371.546	20.09
371.754	19.89
371.963	19.14
372.171	19.01
372.38	19.17
372.589	20.04
372.797	20.55
373.006	20.54
373.214	20.36
373.423	19.39
373.631	19.45
373.84	18.35
374.048	16.74
374.256	17.41
374.465	17.73
374.673	17.93
374.882	17.01
375.09	17.03
375.298	17.35
375.507	16.59
375.715	16.34
375.923	15.5
376.132	16.63
376.34	17.31
376.548	17.53
376.757	17.04
376.965	16.87
377.173	16.56
377.381	16.12
377.59	16.11
377.798	16.47
378.006	16.71
378.214	17.61
378.423	17.44
378.631	17.64
378.839	17.35
379.047	17.76
379.255	17.94
379.463	17.84
379.671	17.81
379.879	17.28
380.088	17.81
380.296	17.65
380.504	17.79
380.712	17.79
380.92	18.28
381.128	18.46
381.336	17.99
381.544	18.41
381.752	18.32
381.96	18.26
382.168	18.18
382.376	17.45
382.584	17.76
382.791	15.8
382.999	15.89
383.207	14.78
383.415	14.81
383.623	14.21
383.831	13.19
384.039	13.2
384.247	13.68
384.454	13.78
384.662	14.14
384.87	13.05
385.078	14.7
385.285	14.46
385.493	15.07
385.701	14.28
385.909	14.41
386.116	15.27
386.324	15.35
386.532	14.9
386.739	14.24
386.947	14.3
387.155	15.37
387.362	14.59
387.57	13.97
387.778	14.12
387.985	14.36
388.193	14.37
388.4	13.71
388.608	14.2
388.816	13.99
389.023	14.23
389.231	13.95
389.438	13.82
389.646	14.31
389.853	14.81
390.061	14.1
390.268	13.73
390.475	13.26
390.683	12.85
390.89	12.15
391.098	12.24
391.305	12.93
391.512	12.62
391.72	11.75
391.927	11.49
392.135	11.75
392.342	11.87
392.549	12.02
392.756	12.37
392.964	12.51
393.171	12.31
393.378	12.39
393.586	11.47
393.793	11.08
394	11.86
394.207	11.78
394.414	11.64
394.622	11.39
394.829	11.03
395.036	11.17
395.243	11.47
395.45	12.06
395.657	12.27
395.864	12.93
396.072	13.94
396.279	13.53
396.486	13.48
396.693	13.98
396.9	14.42
397.107	14.66
397.314	14.59
397.521	14.9
397.728	14.22
397.935	13.17
398.142	12.8
398.349	12.26
398.556	12.05
398.763	11.9
398.97	11.65
399.177	11.82
399.383	11.9
399.59	12.25
399.797	12.49
400.004	13.02
400.211	13.87
400.418	14.12
400.625	15.27
400.831	14.65
401.038	14.7
401.245	14.68
401.452	14.22
401.658	14.12
401.865	13.73
402.072	12.7
402.279	12.41
402.485	12.24
402.692	12.18
402.899	11.73
403.105	12.33
403.312	12.41
403.519	11.99
403.725	11.34
403.932	11.36
404.138	11.1
404.345	11.21
404.552	11.01
404.758	10.87
404.965	10.41
405.171	10.36
405.378	10.46
405.584	10.64
405.791	10.78
405.997	11.45
406.204	11.1
406.41	11.49
406.617	11.33
406.823	11.39
407.029	11.13
407.236	11.15
407.442	10.91
407.649	11.03
407.855	10.46
408.061	10.22
408.268	10.22
408.474	11.02
408.68	10.28
408.887	10.48
409.093	10.91
409.299	11.26
409.505	11.53
409.712	11.03
409.918	10.7
410.124	10.63
410.33	10.81
410.537	10.66
410.743	10.13
410.949	11.19
411.155	10.71
411.361	10.53
411.567	10.73
411.773	10.3
411.98	10.32
412.186	10.19
412.392	10.54
412.598	9.93
412.804	10.49
413.01	10.32
413.216	10.3
413.422	10.76
413.628	10.54
413.834	9.88
414.04	10.49
414.246	11
414.452	11.79
414.658	12.2
414.864	12.44
415.07	12.19
415.275	12.35
415.481	12
415.687	11.84
415.893	11.58
416.099	11.71
416.305	11.55
416.511	10.71
416.716	9.82
416.922	9.06
417.128	8.81
417.334	8.19
417.539	7.67
417.745	7.49
417.951	7.33
418.157	7.35
418.362	7.04
418.568	6.58
418.774	6.62
418.979	6.7
419.185	6.77
419.391	7.01
419.596	7.16
419.802	7.21
420.008	6.94
420.213	7.01
420.419	6.73
420.624	6.87
420.83	6.98
421.035	6.97
421.241	6.5
421.446	6.58
421.652	6.41
421.857	6.35
422.063	6.49
422.268	6.6
422.474	6.38
422.679	6.41
422.885	6.31
423.09	6.08
423.295	5.9
423.501	6.36
423.706	6.23
423.911	6.13
424.117	5.96
424.322	5.75
424.527	5.72
424.733	5.75
424.938	6.06
425.143	6.07
425.349	6.22
425.554	6.65
425.759	6.63
425.964	6.49
426.169	6.59
426.375	6.87
426.58	7.03
426.785	6.87
426.99	7.05
427.195	7.18
427.4	7.01
427.605	7.31
427.811	7.15
428.016	7.35
428.221	7.92
428.426	8.2
428.631	8.45
428.836	8.36
429.041	8.6
429.246	8.69
429.451	8.46
429.656	8.87
429.861	8.63
430.066	8.89
430.271	9
430.476	8.54
430.681	8.55
430.886	8.22
431.09	8.32
431.295	8.07
431.5	7.81
431.705	7.58
431.91	7.38
432.115	7.18
432.32	6.85
432.524	6.44
432.729	6.43
432.934	6.13
433.139	6.09
433.343	6.24
433.548	6.26
433.753	6.28
433.958	6.52
434.162	6.33
434.367	6.56
434.572	6.57
434.776	6.64
434.981	6.81
435.186	6.9
435.39	7.01
435.595	7.47
435.799	7.64
436.004	7.56
436.209	7.45
436.413	7.19
436.618	7.09
436.822	7.36
437.027	7.15
437.231	6.53
437.436	6.32
437.64	6.19
437.845	5.69
438.049	5.62
438.253	5.78
438.458	5.68
438.662	6.18
438.867	6.09
439.071	6
439.275	6.08
439.48	6.59
439.684	6.44
439.888	6.25
440.093	6.43
440.297	6.14
440.501	6.18
440.706	6.19
440.91	6.26
441.114	6.21
441.318	6.34
441.523	6.45
441.727	6.29
441.931	6.51
442.135	6.45
442.339	6.22
442.543	6.66
442.748	6.9
442.952	6.86
443.156	6.62
443.36	6.54
443.564	6.57
443.768	6.18
443.972	6.7
444.176	6.49
444.38	6.55
444.584	6.46
444.788	6.34
444.992	6.04
445.196	5.99
445.4	5.93
445.604	5.76
445.808	5.48
446.012	5.64
446.216	5.14
446.42	5.21
446.624	5.49
446.828	5.42
447.032	5.35
447.235	5.56
447.439	5.63
447.643	5.76
447.847	6.47
448.051	6.66
448.254	6.79
448.458	6.85
448.662	6.89
448.866	6.96
449.069	7
449.273	7.01
449.477	6.53
449.681	6.42
449.884	6.2
450.088	5.78
450.292	5.73
450.495	5.64
450.699	5.62
450.902	5.97
451.106	5.6
451.31	5.81
451.513	5.97
451.717	6.3
451.92	6.64
452.124	6.88
452.327	6.99
452.531	6.93
452.734	6.96
452.938	7.34
453.141	7.09
453.345	7.32
453.548	7.14
453.752	7.27
453.955	7.51
454.158	7.12
454.362	6.91
454.565	6.86
454.769	6.91
454.972	7.32
455.175	7.02
455.379	7.21
455.582	6.94
455.785	7.16
455.988	7.17
456.192	6.85
456.395	7.15
456.598	7.34
456.801	7.07
457.005	6.95
457.208	6.77
457.411	6.93
457.614	6.86
457.817	7.31
458.021	7.21
458.224	6.96
458.427	6.63
458.63	6.67
458.833	6.44
459.036	6.47
459.239	6.27
459.442	5.93
459.645	5.78
459.848	5.77
460.051	5.55
460.254	5.44
460.457	5.18
460.66	5.35
460.863	5.19
461.066	5.07
461.269	4.96
461.472	5.04
461.675	5.24
461.878	5.61
462.081	5.94
462.284	5.89
462.486	6.28
462.689	6.59
462.892	6.83
463.095	7
463.298	7.7
463.5	7.93
463.703	8.03
463.906	8.15
464.109	7.7
464.311	7.48
464.514	7.69
464.717	7.43
464.92	7.59
465.122	7.61
465.325	7.12
465.528	6.7
465.73	6.28
465.933	6.49
466.135	6.77
466.338	6.54
466.541	6.33
466.743	6.1
466.946	6.07
467.148	6.41
467.351	6.4
467.553	6.59
467.756	7.01
467.958	7.6
468.161	7.7
468.363	7.58
468.566	7.69
468.768	7.65
468.971	7.61
469.173	7.41
469.375	7.06
469.578	6.79
469.78	6.96
469.983	6.42
470.185	6.34
470.387	6.29
470.59	6.07
470.792	6.27
470.994	6.12
471.196	6.41
471.399	6.73
471.601	6.77
471.803	6.67
472.005	6.54
472.208	6.43
472.41	6.38
472.612	6.43
472.814	6.42
473.016	6.38
473.218	6.54
473.421	6.31
473.623	6.26
473.825	6.28
474.027	6.45
474.229	6.73
474.431	7.02
474.633	7.1
474.835	6.85
475.037	6.76
475.239	6.72
475.441	6.82
475.643	7.01
475.845	6.59
476.047	6.48
476.249	6.43
476.451	6.02
476.653	5.8
476.855	5.56
477.057	5.55
477.258	5.38
477.46	5.35
477.662	5.03
477.864	4.78
478.066	4.97
478.268	4.78
478.469	4.61
478.671	4.64
478.873	4.94
479.075	5.05
479.276	4.98
479.478	5.06
479.68	4.93
479.882	5
480.083	5.05
480.285	5.33
480.487	5.56
480.688	5.65
480.89	5.66
481.091	5.46
481.293	5.28
481.495	5.02
481.696	4.96
481.898	4.97
482.099	4.85
482.301	4.62
482.502	4.23
482.704	3.94
482.905	3.83
483.107	3.74
483.308	3.54
483.51	3.35
483.711	3.35
483.913	3.21
484.114	3.11
484.315	3.12
484.517	3.1
484.718	3.22
484.92	3.28
485.121	3.28
485.322	3.34
485.524	3.38
485.725	3.55
485.926	3.57
486.127	3.65
486.329	3.76
486.53	3.72
486.731	3.75
486.932	3.64
487.134	3.57
487.335	3.48
487.536	3.38
487.737	3.48
487.938	3.51
488.139	3.48
488.341	3.4
488.542	3.49
488.743	3.53
488.944	3.56
489.145	3.61
489.346	3.8
489.547	3.95
489.748	4.16
489.949	4.12
490.15	4.11
490.351	4.16
490.552	4.28
490.753	4.18
490.954	4.09
491.155	4.11
491.356	4.14
491.557	4.13
491.758	4.09
491.959	3.94
492.159	4.08
492.36	4.03
492.561	4.16
492.762	4.26
492.963	4.2
493.164	4.32
493.364	4.33
493.565	4.48
493.766	4.53
493.967	4.65
494.167	4.98
494.368	4.92
494.569	5.11
494.769	5.12
494.97	5.32
495.171	5.53
495.371	5.77
495.572	5.78
495.773	5.74
495.973	5.74
496.174	5.79
496.375	5.73
496.575	5.61
496.776	5.48
496.976	5.27
497.177	5.13
497.377	5.32
497.578	5.07
497.778	5.23
497.979	5.3
498.179	5.03
498.38	5.02
498.58	5.15
498.78	5.25
498.981	5.47
499.181	5.87
499.382	6.07
499.582	5.74
499.782	5.94
499.983	5.9
500.183	6.07
500.383	6.42
500.584	6.42
500.784	6.12
500.984	6.29
501.184	6.08
501.385	5.95
501.585	5.77
501.785	6.12
501.985	6.22
502.185	6.24
502.386	6.21
502.586	5.98
502.786	6.22
502.986	6.37
503.186	6.53
503.386	6.67
503.586	6.65
503.786	6.58
503.987	6.3
504.187	6.09
504.387	6.33
504.587	5.99
504.787	6.24
504.987	6.09
505.187	6.28
505.387	6.13
505.587	6.14
505.786	6.06
505.986	6.45
506.186	6.55
506.386	6.71
506.586	6.95
506.786	6.93
506.986	7.01
507.186	7.15
507.386	7.02
507.585	7.07
507.785	7.2
507.985	7.5
508.185	7.25
508.384	7.45
508.584	7.38
508.784	7.03
508.984	7.24
509.183	7.26
509.383	7.36
509.583	7.35
509.782	7.61
509.982	7.87
510.182	7.81
510.381	7.86
510.581	7.85
510.781	7.95
510.98	8.1
511.18	8.22
511.379	8.11
511.579	7.94
511.778	8.26
511.978	8.12
512.177	7.77
512.377	7.57
512.576	7.62
512.776	7.6
512.975	7.75
513.175	7.87
513.374	8.01
513.573	8.01
513.773	8.21
513.972	8
514.172	8.02
514.371	8.44
514.57	8.73
514.77	8.95
514.969	9.24
515.168	9.43
515.367	9.38
515.567	9.54
515.766	9.68
515.965	9.86
516.164	9.94
516.364	10.01
516.563	9.9
516.762	9.88
516.961	9.68
517.16	9.72
517.359	9.59
517.559	9.67
517.758	9.49
517.957	9.47
518.156	9.36
518.355	9.31
518.554	9.33
518.753	9.21
518.952	9.32
519.151	9.49
519.35	9.46
519.549	9.48
519.748	9.59
519.947	9.68
520.146	9.97
520.345	10.19
520.544	10.24
520.743	10.34
520.942	10.76
521.141	10.68
521.339	10.91
521.538	10.98
521.737	11.11
521.936	11.08
522.135	10.98
522.333	11.09
522.532	10.95
522.731	11.17
522.93	11.07
523.129	10.92
523.327	11.39
523.526	11.31
523.725	11.33
523.923	11.24
524.122	11.25
524.321	11.43
524.519	11.34
524.718	11.41
524.917	11.35
525.115	11.31
525.314	11.3
525.512	11.28
525.711	11.19
525.909	10.99
526.108	10.89
526.306	10.81
526.505	10.85
526.703	10.82
526.902	10.73
527.1	10.66
527.299	10.73
527.497	10.67
527.696	10.45
527.894	10.51
528.092	10.44
528.291	10.49
528.489	10.38
528.688	10.27
528.886	10.28
529.084	10.29
529.283	10.31
529.481	10.27
529.679	10.43
529.877	10.5
530.076	10.6
530.274	10.91
530.472	11.07
530.67	11.36
530.869	11.65
531.067	11.81
531.265	12.04
531.463	12.32
531.661	12.51
531.859	12.33
532.057	12.37
532.255	12.33
532.454	12.1
532.652	12.05
532.85	12.09
533.048	11.96
533.246	11.9
533.444	11.84
533.642	11.85
533.84	11.91
534.038	12.11
534.236	12.38
534.434	12.39
534.632	12.82
534.83	13.05
535.027	13.2
535.225	13.34
535.423	13.86
535.621	13.92
535.819	13.9
536.017	13.71
536.215	13.72
536.412	13.57
536.61	13.84
536.808	13.71
537.006	13.8
537.203	13.91
537.401	13.89
537.599	13.63
537.797	13.88
537.994	13.9
538.192	14.35
538.39	14.39
538.587	14.59
538.785	14.41
538.983	14.47
539.18	14.4
539.378	14.21
539.575	14.56
539.773	14.54
539.97	14.38
540.168	14.31
540.366	14.12
540.563	14.15
540.761	13.9
540.958	13.98
541.155	14.03
541.353	14.05
541.55	14.06
541.748	14
541.945	13.94
542.143	14
542.34	14.2
542.537	14.23
542.735	14.14
542.932	14.27
543.129	14.39
543.327	14.59
543.524	14.59
543.721	14.83
543.919	15.01
544.116	15.44
544.313	15.69
544.51	15.75
544.708	16.05
544.905	16.42
545.102	16.76
545.299	16.84
545.496	16.76
545.693	16.86
545.891	17.06
546.088	17.3
546.285	17.1
546.482	16.96
546.679	16.99
546.876	16.99
547.073	17.07
547.27	16.98
547.467	17
547.664	17.14
547.861	17.36
548.058	17.3
548.255	17.11
548.452	17.44
548.649	17.92
548.846	18.17
549.043	18.52
549.24	18.73
549.437	18.88
549.633	18.84
549.83	18.73
550.027	18.96
550.224	19.02
550.421	19.25
550.618	19.12
550.814	18.73
551.011	18.83
551.208	18.45
551.405	18.41
551.601	18.49
551.798	18.57
551.995	18.67
552.191	18.54
552.388	18.95
552.585	18.8
552.781	18.69
552.978	19.04
553.175	18.9
553.371	19.39
553.568	19.31
553.764	19.66
553.961	19.96
554.157	20.16
554.354	20.18
554.55	19.73
554.747	19.66
554.943	19.83
555.14	19.81
555.336	20.24
555.533	20.24
555.729	20.29
555.926	20.22
556.122	19.79
556.318	20.03
556.515	20.36
556.711	20.67
556.907	20.9
557.104	21.12
557.3	21.16
557.496	20.79
557.693	20.97
557.889	21.64
558.085	22.2
558.281	22.78
558.478	22.63
558.674	22.68
558.87	22.72
559.066	22.84
559.262	22.77
559.459	22.96
559.655	23.34
559.851	23.15
560.047	22.89
560.243	22.47
560.439	22.92
560.635	22.63
560.831	22.51
561.027	22.58
561.223	22.75
561.419	22.97
561.615	22.95
561.811	23.01
562.007	23.54
562.203	23.6
562.399	23.27
562.595	22.76
562.791	23.15
562.987	23.45
563.183	23.63
563.379	23.73
563.575	23.69
563.771	23.7
563.966	23.43
564.162	22.85
564.358	22.87
564.554	23.01
564.75	22.8
564.945	22.83
565.141	22.51
565.337	22.36
565.533	22.35
565.728	22.32
565.924	22.43
566.12	22.4
566.315	22.4
566.511	22.08
566.707	22.4
566.902	22.7
567.098	22.76
567.293	22.94
567.489	22.87
567.684	22.92
567.88	23.09
568.076	23.03
568.271	23.2
568.467	23.34
568.662	23.57
568.858	23.82
569.053	23.71
569.248	23.65
569.444	23.64
569.639	23.96
569.835	23.74
570.03	23.42
570.225	23.38
570.421	23.13
570.616	23.23
570.812	22.99
571.007	22.56
571.202	22.63
571.397	22.47
571.593	22.79
571.788	22.72
571.983	22.92
572.178	23.16
572.374	23.32
572.569	23.54
572.764	23.71
572.959	24.11
573.154	24.26
573.35	24.63
573.545	25.22
573.74	24.79
573.935	24.98
574.13	24.84
574.325	25.12
574.52	25.13
574.715	25.5
574.91	25.37
575.105	25.31
575.3	25.48
575.495	25.12
575.69	24.9
575.885	25.59
576.08	25.34
576.275	25.62
576.47	25.46
576.665	25.76
576.86	25.69
577.055	25.81
577.25	25.92
577.444	25.72
577.639	26.09
577.834	26.4
578.029	26.1
578.224	26.21
578.418	26.61
578.613	26.94
578.808	26.64
579.003	26.75
579.197	26.99
579.392	27.17
579.587	27.39
579.781	27.43
579.976	27.89
580.171	28.09
580.365	28.24
580.56	27.9
580.755	27.81
580.949	27.81
581.144	28.1
581.338	28.06
581.533	28.27
581.727	28.25
581.922	27.94
582.116	27.38
582.311	27.09
582.505	27.33
582.7	27.15
582.894	27.41
583.089	27.73
583.283	27.51
583.478	27.74
583.672	27.63
583.866	27.76
584.061	28.11
584.255	27.85
584.449	28.2
584.644	27.92
584.838	28.34
585.032	28.59
585.226	28.46
585.421	28.57
585.615	28.46
585.809	28.62
586.003	28.63
586.198	28.72
586.392	29.16
586.586	29.3
586.78	29.61
586.974	29.2
587.168	28.57
587.363	28.29
587.557	28.27
587.751	28.37
587.945	28.32
588.139	28.12
588.333	28.21
588.527	28.21
588.721	28.05
588.915	27.99
589.109	28.22
589.303	28.44
589.497	28.53
589.691	28.51
589.885	28.09
590.079	27.96
590.273	27.96
590.466	28.04
590.66	28.18
590.854	28.29
591.048	28.18
591.242	28.14
591.436	28.11
591.629	28.03
591.823	27.69
592.017	28.42
592.211	29.04
592.404	29.82
592.598	29.59
592.792	29.48
592.986	29.66
593.179	29.66
593.373	29.58
593.567	29.54
593.76	29.85
593.954	30.16
594.147	29.56
594.341	28.85
594.535	28.48
594.728	28.36
594.922	28.23
595.115	27.79
595.309	27.58
595.502	28.03
595.696	28.01
595.889	28.17
596.083	27.96
596.276	28.12
596.47	28.33
596.663	28.17
596.856	28.43
597.05	28.36
597.243	28.58
597.437	29.15
597.63	28.79
597.823	29.16
598.017	29.28
598.21	29.44
598.403	29.72
598.596	30.21
598.79	30.45
598.983	30.27
599.176	30.65
599.369	30.75
599.563	30.55
599.756	30.91
599.949	30.82
600.142	30.75
600.335	30.5
600.528	30.43
600.722	29.67
600.915	29.65
601.108	30.27
601.301	29.85
601.494	29.78
601.687	29.97
601.88	29.87
602.073	30
602.266	29.64
602.459	30.2
602.652	30.12
602.845	30.4
603.038	30.36
603.231	30.17
603.424	30.08
603.617	30.18
603.809	29.98
604.002	29.58
604.195	29.37
604.388	29.46
604.581	29.05
604.774	29.27
604.966	29.06
605.159	29.08
605.352	28.65
605.545	29.06
605.737	28.77
605.93	28.98
606.123	29.68
606.316	29.33
606.508	29.4
606.701	29.59
606.894	29.48
607.086	29.52
607.279	29.64
607.471	29.89
607.664	29.94
607.857	30.34
608.049	30.39
608.242	30.18
608.434	30.51
608.627	30.83
608.819	30.69
609.012	30.7
609.204	30.94
609.397	30.82
609.589	30.87
609.782	30.85
609.974	30.8
610.166	30.61
610.359	30.26
610.551	30.36
610.743	30.03
610.936	30.09
611.128	30.05
611.32	29.84
611.513	30.1
611.705	30.34
611.897	30.34
612.09	30.34
612.282	30.56
612.474	31.04
612.666	31.31
612.858	31.75
613.051	32.24
613.243	32.06
613.435	32.65
613.627	32.8
613.819	32.77
614.011	33.62
614.203	33.84
614.395	33.72
614.588	33.47
614.78	33.08
614.972	33.88
615.164	33.9
615.356	34.39
615.548	33.84
615.74	34.05
615.932	34.35
616.124	33.54
616.315	33.73
616.507	33.64
616.699	33.7
616.891	34.42
617.083	34.13
617.275	34.12
617.467	34.13
617.659	34.62
617.85	34.73
618.042	34.45
618.234	34.32
618.426	34.03
618.618	34.07
618.809	33.98
619.001	33.88
619.193	33.18
619.384	33.82
619.576	34.06
619.768	33.99
619.959	33.78
620.151	33.87
620.343	34.26
620.534	34.52
620.726	34.27
620.917	34.65
621.109	34.22
621.301	34.7
621.492	33.72
621.684	33.95
621.875	33.98
622.067	34.07
622.258	33.99
622.45	33.75
622.641	33.34
622.832	33.49
623.024	33.56
623.215	33.04
623.407	32.32
623.598	33.19
623.789	32.59
623.981	32.7
624.172	32.28
624.363	32.32
624.555	32.34
624.746	32.39
624.937	32.46
625.129	32.81
625.32	33.76
625.511	34.23
625.702	33.76
625.893	33.82
626.085	33.48
626.276	33.93
626.467	33.96
626.658	34.01
626.849	33.99
627.04	34.43
627.231	34
627.422	33.66
627.614	33.65
627.805	33.75
627.996	33.69
628.187	34.03
628.378	33.84
628.569	33.99
628.76	34.36
628.951	34.39
629.142	33.85
629.332	34.15
629.523	34.3
629.714	34.31
629.905	34.65
630.096	34.98
630.287	35.21
630.478	35.61
630.669	35.73
630.859	35.51
631.05	35.58
631.241	36.08
631.432	36.08
631.623	36.17
631.813	36.17
632.004	35.41
632.195	34.81
632.385	34.4
632.576	34.16
632.767	33.98
632.957	33.95
633.148	34.39
633.339	33.93
633.529	33.51
633.72	33.29
633.91	33.56
634.101	33.54
634.292	33.98
634.482	34.36
634.673	34.24
634.863	34.1
635.054	34.32
635.244	33.81
635.435	34
635.625	33.99
635.815	34.13
636.006	33.96
636.196	34.62
636.387	34.76
636.577	34.54
636.767	34.67
636.958	34.88
637.148	34.78
637.338	35.25
637.529	35.37
637.719	35.64
637.909	35.29
638.099	35.45
638.29	35.67
638.48	35.82
638.67	35.98
638.86	35.78
639.05	36.03
639.241	36.04
639.431	35.88
639.621	36.31
639.811	36.47
640.001	36.79
640.191	36.45
640.381	35.97
640.571	35.65
640.761	35.53
640.951	35.81
641.141	36.05
641.331	36.45
641.521	36.23
641.711	36.03
641.901	36.03
642.091	35.67
642.281	35.87
642.471	35.98
642.661	35.6
642.851	36.07
643.041	36.17
643.231	36.4
643.42	36.09
643.61	36.5
643.8	36.68
643.99	36.45
644.18	37.13
644.369	36.46
644.559	36.28
644.749	36.71
644.939	36.49
645.128	36.72
645.318	36.41
645.508	36.4
645.697	36.78
645.887	36.46
646.076	36.58
646.266	37
646.456	37.26
646.645	38.08
646.835	37.73
647.024	37.6
647.214	37.53
647.403	36.71
647.593	36.92
647.782	36.22
647.972	36.65
648.161	36.94
648.351	36.71
648.54	37.57
648.73	36.97
648.919	37.12
649.108	36.84
649.298	36.85
649.487	36.99
649.677	37.12
649.866	37.6
650.055	37.53
650.244	37.74
650.434	37.16
650.623	37.05
650.812	37.53
651.002	38.33
651.191	38.53
651.38	38.49
651.569	39
651.758	38.71
651.947	39.41
652.137	39.64
652.326	39.23
652.515	39.47
652.704	39.41
652.893	38.92
653.082	38.56
653.271	38.65
653.46	38.21
653.649	37.38
653.838	37.41
654.027	36.52
654.216	36.37
654.405	36.9
654.594	37.09
654.783	36.76
654.972	36.72
655.161	37.01
655.35	36.61
655.539	37.1
655.728	38.07
655.916	38.12
656.105	38.45
656.294	38.26
656.483	38.3
656.672	38.03
656.86	37.72
657.049	37.87
657.238	36.92
657.427	37.44
657.615	36.75
657.804	36.49
657.993	35.64
658.181	34.83
658.37	34.7
658.559	34.03
658.747	34.24
658.936	34.84
659.125	35.02
659.313	35.19
659.502	34.93
659.69	35.02
659.879	35.06
660.067	35.7
660.256	35.74
660.444	36.07
660.633	36.91
660.821	36.94
661.01	36.78
661.198	35.96
661.387	36.44
661.575	36.74
661.763	36.9
661.952	37.37
662.14	37.7
662.328	38.34
662.517	38.34
662.705	37.83
662.893	37.5
663.082	38.08
663.27	38.48
663.458	38.23
663.646	38.49
663.834	38.92
664.023	38.6
664.211	38.84
664.399	38.89
664.587	39.05
664.775	38.74
664.963	40.01
665.152	39.51
665.34	40.17
665.528	40.27
665.716	39.85
665.904	40.05
666.092	39.63
666.28	39.8
666.468	39.33
666.656	39.1
666.844	39.58
667.032	38.8
667.22	38.67
667.408	38.22
667.596	38.36
667.784	38.39
667.971	37.88
668.159	37.99
668.347	37.66
668.535	38.17
668.723	37.79
668.911	37.72
669.098	37.93
669.286	37.69
669.474	38.24
669.662	38.76
669.849	39.44
670.037	40.2
670.225	39.62
670.413	39.24
670.6	38.98
670.788	39.48
670.976	39.28
671.163	39.06
671.351	39.83
671.538	40
671.726	39
671.913	38.66
672.101	37.28
672.289	38.43
672.476	38.58
672.664	39.09
672.851	39.38
673.039	39.33
673.226	39.58
673.413	39.26
673.601	38.67
673.788	39.75
673.976	39.01
674.163	40
674.35	40.15
674.538	40.81
674.725	41.65
674.912	41.31
675.1	42.74
675.287	42.4
675.474	42.63
675.662	43.36
675.849	42.71
676.036	42.43
676.223	42.96
676.411	42.87
676.598	42.49
676.785	42.33
676.972	43.06
677.159	41.83
677.346	42.16
677.533	41.86
677.721	41.12
677.908	41.26
678.095	42.41
678.282	42.44
678.469	41.75
678.656	41.12
678.843	40.29
679.03	39.76
679.217	39.57
679.404	38.84
679.591	39.31
679.778	39.35
679.964	38.95
680.151	38.33
680.338	37.59
680.525	37.72
680.712	38.47
680.899	37.82
681.086	37.98
681.272	38.6
681.459	39.53
681.646	39.03
681.833	38.8
682.02	39.59
682.206	40.5
682.393	41.53
682.58	41.99
682.766	42.19
682.953	43.8
683.14	43.15
683.326	43.87
683.513	43.74
683.7	43.75
683.886	44.24
684.073	44.16
684.259	43.57
684.446	43.12
684.632	43.25
684.819	42.7
685.005	42.35
685.192	42.74
685.378	42.05
685.565	42.05
685.751	41.85
685.938	41.97
686.124	42.02
686.31	42.76
686.497	42.96
686.683	42.39
686.87	42.65
687.056	42.48
687.242	43.12
687.429	43.45
687.615	43.04
687.801	43.14
687.987	43.22
688.174	43.2
688.36	42.77
688.546	42.32
688.732	42.77
688.918	43.66
689.105	43.76
689.291	43.31
689.477	43.42
689.663	43.42
689.849	45.01
690.035	45.11
690.221	44.93
690.407	45.91
690.593	46.95
690.779	47.15
690.965	46.6
691.151	46.6
691.337	46.2
691.523	46.11
691.709	46.85
691.895	45.34
692.081	45.55
692.267	45.96
692.453	45.85
692.639	44.71
692.825	45.27
693.011	45.57
693.196	46.41
693.382	47.65
693.568	48.08
693.754	48.53
693.94	48.8
694.125	48.81
694.311	48.53
694.497	48.1
694.682	49.28
694.868	48.95
695.054	49
695.239	47.97
695.425	47.69
695.611	46.02
695.796	45.92
695.982	45.51
696.168	45.41
696.353	45.35
696.539	44.41
696.724	43.22
696.91	43.05
697.095	41.65
697.281	40.92
697.466	40.43
697.652	40.15
697.837	39.33
698.023	40.15
698.208	38.62
698.393	37.85
698.579	37.94
698.764	38.11
698.949	37.63
699.135	38.19
699.32	38.74
699.505	39.11
699.691	39.5
699.876	39.48
700.061	39
700.246	40.16
700.432	41.07
700.617	41.54
700.802	41.59
700.987	42.45
701.172	42.4
701.358	43.23
701.543	42.16
701.728	43.06
701.913	44.4
702.098	44.62
702.283	45.95
702.468	46.06
702.653	47.53
702.838	48.73
703.023	49.37
703.208	50.24
703.393	50.1
703.578	51.68
703.763	52.06
703.948	51.33
704.133	51.15
704.318	52.01
704.503	52.13
704.688	51.05
704.873	49.55
705.057	48.97
705.242	48.12
705.427	47.93
705.612	47.5
705.797	48.14
705.981	48.04
706.166	47.05
706.351	46.25
706.536	46.4
706.72	45.34
706.905	46.11
707.09	46.1
707.274	46.64
707.459	47.16
707.644	47.82
707.828	46.84
708.013	47.57
708.197	49.09
708.382	49.42
708.567	48.77
708.751	48.56
708.936	48.18
709.12	48.39
709.305	48.15
709.489	47.78
709.673	47.31
709.858	48.85
710.042	49.44
710.227	49.03
710.411	47.63
710.596	48.24
710.78	49.43
710.964	49.35
711.149	49.45
711.333	49.19
711.517	49.68
711.702	50.69
711.886	49.48
712.07	48.92
712.254	49.5
712.438	49.88
712.623	50.49
712.807	50.31
712.991	50.58
713.175	49.93
713.359	50.49
713.544	49.05
713.728	47.01
713.912	46.84
714.096	46.84
714.28	45.19
714.464	45.04
714.648	44.64
714.832	44.56
715.016	43.81
715.2	44.48
715.384	44.27
715.568	45.47
715.752	45.59
715.936	45.8
716.12	45.55
716.304	46.52
716.488	47.31
716.671	47.72
716.855	47
717.039	48.14
717.223	47.28
717.407	48.25
717.59	47.4
717.774	47.64
717.958	47.64
718.142	47.67
718.325	48.44
718.509	49.15
718.693	48.42
718.877	49.38
719.06	49.02
719.244	50.13
719.428	49.9
719.611	52.48
719.795	53.64
719.978	53.36
720.162	53.16
720.345	53.61
720.529	53.56
720.713	54.74
720.896	55.2
721.08	57.44
721.263	57.56
721.446	58.44
721.63	58.34
721.813	58.34
721.997	60.21
722.18	60.12
722.364	61.04
722.547	59.8
722.73	58.07
722.914	58.34
723.097	58.75
723.28	58.87
723.464	59.41
723.647	57.76
723.83	58.76
724.013	58.63
724.197	59.42
724.38	56.39
724.563	57.13
724.746	58.88
724.929	59.26
725.112	58.6
725.296	58.69
725.479	57.72
725.662	57.65
725.845	55.95
726.028	56.34
726.211	56.38
726.394	57.95
726.577	57.83
726.76	56.37
726.943	55.98
727.126	55
727.309	53.44
727.492	53.34
727.675	54.19
727.858	55.02
728.041	53.94
728.224	53.73
728.407	52.7
728.589	52.23
728.772	51.53
728.955	51.54
729.138	51.27
729.321	52.41
729.503	52.08
729.686	50.49
729.869	50.41
730.052	48.99
730.234	48.62
730.417	48.48
730.6	48.59
730.782	48.55
730.965	47.42
731.148	47.63
731.33	46.54
731.513	46.99
731.695	46.66
731.878	47.45
732.061	46.97
732.243	47.28
732.426	47.12
732.608	47.28
732.791	49.45
732.973	49.66
733.156	49.72
733.338	49.63
733.52	49.86
733.703	49.62
733.885	47.76
734.068	50.18
734.25	50.6
734.432	53.31
734.615	53.48
734.797	51.55
734.979	54.03
735.162	54.14
735.344	55.65
735.526	55.11
735.708	56.15
735.891	57.23
736.073	55.58
736.255	55.88
736.437	53.99
736.619	54.63
736.802	56.05
736.984	53.98
737.166	54.77
737.348	54.57
737.53	55.55
737.712	56.08
737.894	55.24
738.076	55.14
738.258	54.05
738.44	55.19
738.622	55.51
738.804	55.14
738.986	54.99
739.168	56.06
739.35	55.5
739.532	53.59
739.714	54.66
739.896	55.92
740.078	57.52
740.259	57.74
740.441	58.34
740.623	58.71
740.805	58.9
740.987	58.75
741.168	57.53
741.35	58.2
741.532	59.17
741.714	59.12
741.895	59.57
742.077	58.56
742.259	59.26
742.44	56.15
742.622	56.16
742.804	56.64
742.985	56.58
743.167	56.62
743.348	59.4
743.53	60.5
743.711	59.32
743.893	60.52
744.075	62.13
744.256	65.09
744.438	68.27
744.619	70.13
744.8	69.17
744.982	72.24
745.163	75.73
745.345	71.59
745.526	71.83
745.707	72.76
745.889	71.4
746.07	72.16
746.252	70.09
746.433	70.15
746.614	67.92
746.795	67.9
746.977	68.72
747.158	66.33
747.339	67.11
747.52	67.5
747.702	67.44
747.883	66.21
748.064	64.05
748.245	65.47
748.426	66.05
748.607	65.58
748.788	69.44
748.97	67.84
749.151	67.62
749.332	69.35
749.513	70.96
749.694	72.26
749.875	75.82
750.056	77.69
750.237	75.74
750.418	74.33
750.599	76.45
750.78	72.72
750.96	71.88
751.141	70.35
751.322	68.31
751.503	65.04
751.684	65.02
751.865	62.41
752.046	61.63
752.226	59.74
752.407	60.59
752.588	58.36
752.769	59.93
752.949	60.43
753.13	60.85
753.311	59.08
753.492	58.9
753.672	58.45
753.853	60.06
754.034	60.64
754.214	61.12
754.395	61.67
754.575	61.73
754.756	61.87
754.937	63.46
755.117	62.89
755.298	66.41
755.478	68.79
755.659	67.36
755.839	65.12
756.02	66.12
756.2	69.78
756.381	68.12
756.561	70.43
756.741	71.02
756.922	70.15
757.102	73.32
757.283	73.82
757.463	72.6
757.643	75.15
757.823	76.55
758.004	75.81
758.184	74.38
758.364	75.77
758.545	74.46
758.725	71.71
758.905	72.43
759.085	70.95
759.265	67.85
759.446	65.82
759.626	64.43
759.806	63.36
759.986	62.06
760.166	61.75
760.346	61.53
760.526	59.41
760.706	61.45
760.886	59.28
761.066	60.71
761.246	60.67
761.426	60.99
761.606	57.69
761.786	55.35
761.966	56.43
762.146	56.32
762.326	54.64
762.506	55.71
762.686	54.22
762.866	54.28
763.046	51.63
763.225	51.32
763.405	49.96
763.585	51.3
763.765	53.01
763.945	52.73
764.124	51.77
764.304	52.36
764.484	52.99
764.664	54.24
764.843	54.57
765.023	56.59
765.203	56.32
765.382	58.02
765.562	57.06
765.741	57.78
765.921	58.37
766.101	60.19
766.28	61.02
766.46	59.82
766.639	57.6
766.819	58.53
766.998	59.22
767.178	60.42
767.357	61.22
767.537	65.56
767.716	64.93
767.896	64.01
768.075	61.95
768.254	62.15
768.434	62.34
768.613	65.56
768.792	64.82
768.972	65.17
769.151	68.54
769.33	67.82
769.51	67.26
769.689	68.55
769.868	69.98
770.047	70.61
770.226	69.86
770.406	71.21
770.585	71.38
770.764	73.14
770.943	72.76
771.122	70.51
771.301	71.6
771.48	71.39
771.66	72.37
771.839	75.81
772.018	80.44
772.197	81.41
772.376	83.51
772.555	85.2
772.734	84.59
772.913	84.29
773.092	86.76
773.271	87.94
773.449	87.28
773.628	86.49
773.807	85.29
773.986	83.46
774.165	83.97
774.344	84.58
774.523	79.7
774.701	81.42
774.88	85.8
775.059	85.92
775.238	86.43
775.417	86.33
775.595	87.45
775.774	83.77
775.953	86.22
776.131	87.3
776.31	85.15
776.489	85.71
776.667	83.08
776.846	77.48
777.025	76.46
777.203	76.92
777.382	77.94
777.56	79.64
777.739	82.29
777.917	81.68
778.096	82.25
778.274	83.28
778.453	84.89
778.631	86.43
778.81	90.33
778.988	89.33
779.166	89
779.345	92.54
779.523	92.13
779.702	93.24
779.88	94.34
780.058	93.42
780.237	93.18
780.415	95.86
780.593	94.99
780.771	96.65
780.95	101.37
781.128	101.34
781.306	98.53
781.484	96.2
781.662	97.91
781.841	95.11
782.019	95.22
782.197	94.92
782.375	90.53
782.553	91.71
782.731	89.63
782.909	90.05
783.087	92.31
783.265	95.46
783.443	98.08
783.621	94.32
783.799	92.1
783.977	96.88
784.155	98.25
784.333	99.52
784.511	98.05
784.689	100.85
784.867	97.49
785.045	98.27
785.223	95.85
785.4	99.3
785.578	98.1
785.756	97.66
785.934	95.86
786.112	97.34
786.289	96.11
786.467	96.07
786.645	91
786.823	91.76
787	90.66
787.178	90.45
787.356	87.2
787.533	88.13
787.711	88.55
787.889	85.41
788.066	80.94
788.244	82.54
788.421	85.32
788.599	89.61
788.776	93.41
788.954	88.06
789.131	87.02
789.309	86.57
789.486	86.42
789.664	88.66
789.841	89.65
790.019	92.19
790.196	95.9
790.373	91.87
790.551	88.12
790.728	85.18
790.906	88.06
791.083	92.9
791.26	94.73
791.437	93.45
791.615	95.63
791.792	96.97
791.969	100.99
792.146	96.95
792.324	98.7
792.501	100.38
792.678	96.38
792.855	99.85
793.032	97.19
793.209	90.92
793.387	90.71
793.564	88.49
793.741	91.94
793.918	92.09
794.095	93.35
794.272	94.84
794.449	97.45
794.626	101.5
794.803	99.6
794.98	94.89
795.157	96.27
795.334	99.25
795.511	101.07
795.688	94.28
795.864	95.26
796.041	96.52
796.218	93.76
796.395	91.19
796.572	87.26
796.749	89.09
796.925	89.56
797.102	91.69
797.279	90.47
797.456	91.65
797.632	93.45
797.809	94.59
797.986	93.81
798.162	97.2
798.339	103.23
798.516	108.93
798.692	106.04
798.869	111.93
799.046	116.39
799.222	112.57
799.399	111.6
799.575	116.34
799.752	109.03
799.928	103.19
800.105	99.35
800.281	94.38
800.458	94.34
800.634	93.33
800.811	95.23
800.987	97.57
801.163	100.97
801.34	104.37
801.516	100.55
801.692	101.84
801.869	107.56
802.045	111.06
802.221	106.21
802.398	105.32
802.574	109.1
802.75	105.43
802.926	103.61
803.103	109.61
803.279	103.87
803.455	105.71
803.631	110.19
803.807	110.35
803.983	114.47
804.16	125.48
804.336	127.7
804.512	122.33
804.688	128.37
804.864	131.19
805.04	121.77
805.216	121.37
805.392	121.24
805.568	122.98
805.744	121.85
805.92	117.17
806.096	117.39
806.272	116.83
806.448	119.7
806.623	119.42
806.799	118.43
806.975	114.75
807.151	117.44
807.327	119.99
807.503	116.2
807.678	116.62
807.854	120.63
808.03	115.64
808.206	118.14
808.381	118.52
808.557	112.91
808.733	111.83
808.908	112.35
809.084	108.91
809.26	105.16
809.435	107.83
809.611	111.19
809.787	102.75
809.962	107.72
810.138	105.78
810.313	107.18
810.489	103.86
810.664	106.31
810.84	103.38
811.015	104.36
811.191	113.87
811.366	113.09
811.542	112.33
811.717	115.76
811.892	111.93
812.068	112.35
812.243	113.28
812.419	118.59
812.594	114.71
812.769	120.46
812.944	124.96
813.12	117.72
813.295	120.66
813.47	117.98
813.645	120.61
813.821	123.65
813.996	131.7
814.171	132.42
814.346	136.05
814.521	138.39
814.697	142.89
814.872	133.59
815.047	136.32
815.222	130.56
815.397	132.1
815.572	133.71
815.747	130.83
815.922	120.67
816.097	120.5
816.272	114.14
816.447	111.37
816.622	110.94
816.797	119.66
816.972	115.73
817.147	112.36
817.322	108.62
817.496	108.7
817.671	106.47
817.846	106.36
818.021	106.7
818.196	107.72
818.371	109.31
818.545	105.69
818.72	100.51
818.895	96.72
819.069	94.49
819.244	96.29
819.419	93.72
819.594	89.49
819.768	83.42
819.943	75.47
820.117	71.99
820.292	66.83
820.467	63.35
820.641	59.54
820.816	57.71
820.99	55.52
821.165	52.35
821.339	48.97
821.514	47.28
821.688	45.92
821.863	44.58
822.037	42.95
822.212	42.46
822.386	41.92
822.56	41.47
822.735	40.58
822.909	40.45
823.084	39.47
823.258	39.83
823.432	40.72
823.606	41.92
823.781	43.06
823.955	44.77
824.129	45.38
824.303	47.07
824.478	48.76
824.652	50.88
824.826	52.87
825	56.21
825.174	57.93
825.348	56.74
825.523	56.01
825.697	55.98
825.871	57.52
826.045	55.91
826.219	55.47
826.393	55.8
826.567	54.97
826.741	53.76
826.915	54.05
827.089	54.58
827.263	56.84
827.437	57.54
827.611	59.21
827.784	59.47
827.958	62.19
828.132	63.39
828.306	63.92
828.48	65.12
828.654	67.39
828.827	68.64
829.001	69.01
829.175	69.3
829.349	70.08
829.522	72.97
829.696	73.61
829.87	77.2
830.044	83.11
830.217	87.27
830.391	93.16
830.565	97.83
830.738	101.56
830.912	102.74
831.085	102.71
831.259	104.19
831.432	102.09
831.606	107.45
831.779	101.48
831.953	95.55
832.126	89.26
832.3	85.18
832.473	78.77
832.647	78.87
832.82	75.29
832.994	77.31
833.167	74.62
833.34	74.64
833.514	71.04
833.687	71.78
833.86	72.41
834.034	74.6
834.207	74.44
834.38	77.38
834.553	75.15
834.727	80.4
834.9	79.5
835.073	84.57
835.246	85.35
835.419	88.95
835.593	92.7
835.766	91.89
835.939	93.68
836.112	97.14
836.285	99.73
836.458	103.75
836.631	100.91
836.804	106.04
836.977	104.82
837.15	108
837.323	116.2
837.496	120.95
837.669	131.37
837.842	136.03
838.015	141.93
838.188	135.02
838.361	134.05
838.533	137.3
838.706	145.21
838.879	148.13
839.052	158.27
839.225	156.54
839.398	154.34
839.57	142.5
839.743	138.83
839.916	140.17
840.088	138.97
840.261	144.72
840.434	152.26
840.607	146.07
840.779	154.95
840.952	146.81
841.124	137.59
841.297	146.64
841.47	156.75
841.642	163.08
841.815	170.63
841.987	198.76
842.16	200.52
842.332	210.35
842.505	211.31
842.677	188.16
842.85	219.16
843.022	240.33
843.194	249.67
843.367	257.07
843.539	244.65
843.712	216.65
843.884	199.01
844.056	213.42
844.229	201.86
844.401	216.55
844.573	223.55
844.745	218.67
844.918	221.94
845.09	214.09
845.262	238.64
845.434	235.03
845.606	253.16
845.779	239.56
845.951	239.55
846.123	205.7
846.295	213.66
846.467	227.15
846.639	210.71
846.811	207.78
846.983	203.02
847.155	197.25
847.327	194.25
847.499	209.37
847.671	257.02
847.843	245.51
848.015	385.31
848.187	333.65
848.359	324.83
848.531	341.74
848.703	327.58
848.875	416.53
849.047	395.7
849.218	490.63
849.39	453.28
849.562	388.29
849.734	377.87
849.905	299.89
850.077	365.29
850.249	508.97
850.421	619.95
850.592	588.86
850.764	481.82
850.936	439.63
851.107	498.2
851.279	563.22
851.451	419.16
851.622	371.79
851.794	309.65
851.965	280.7
852.137	253.3
852.308	231.42
852.48	235.06
852.651	236.66
852.823	225.08
852.994	211.47
853.166	201.3
853.337	229.73
853.509	259.9
853.68	359.07
853.851	326.24
854.023	388.89
854.194	375.07
854.365	429.83
854.537	417.87
854.708	678.41
854.879	1168.72
855.05	1077.42
855.222	866.01
855.393	560.6
855.564	600.79
855.735	560.97
855.906	437.18
856.078	476.43
856.249	541.2
856.42	523.99
856.591	433.38
856.762	418.09
856.933	486.03
857.104	562.39
857.275	613.51
857.446	380.29
857.617	376.35
857.788	380.35
857.959	346.78
858.13	294.67
858.301	323.58
858.472	364.56
858.643	374.24
858.814	457.62
858.985	404.75
859.155	419.97
859.326	568.85
859.497	597.21
859.668	538.82
859.839	849.63
860.009	572.54
860.18	409.95
860.351	341.55
860.522	334.05
860.692	250.9
860.863	275.87
861.034	269.06
861.204	237.93
861.375	256.11
861.546	257.4
861.716	257.96
861.887	278.29
862.057	359.53
862.228	320.05
862.398	340.87
862.569	327.94
862.739	329.73
862.91	307.47
863.08	378.5
863.251	367.33
863.421	387.71
863.592	324.14
863.762	337.56
863.932	259.17
864.103	315.38
864.273	265.63
864.443	292.92
864.614	258.56
864.784	275.31
864.954	275.68
865.125	300.71
865.295	306.58
865.465	321.84
865.635	356.92
865.805	361.09
865.976	337.73
866.146	362.91
866.316	454.33
866.486	663.95
866.656	465.09
866.826	478.28
866.996	393.08
867.166	393.18
867.336	389.77
867.506	321.64
867.676	339.63
867.846	342.49
868.016	374.68
868.186	321.6
868.356	286.23
868.526	325.59
868.696	334.18
868.866	375.06
869.036	363.67
869.206	336.41
869.376	382.86
869.545	361.37
869.715	408.92
869.885	410.81
870.055	450.26
870.224	529.94
870.394	791.76
870.564	593.68
870.734	609.37
870.903	536.81
871.073	645.66
871.243	512.66
871.412	544.81
871.582	420.95
871.751	408.07
871.921	400.78
872.091	345.11
872.26	292.42
872.43	236.35
872.599	238.94
872.769	252.03
872.938	239.08
873.108	329
873.277	341.9
873.446	418.94
873.616	386.1
873.785	423.73
873.955	583.17
874.124	442.11
874.293	1196.41
874.463	1369.46
874.632	1831.06
874.801	1999.16
874.971	606.12
875.14	631.14
875.309	448.7
875.478	417.71
875.647	406.35
875.817	323.05
875.986	366.62
876.155	349.94
876.324	360.16
876.493	328.11
876.662	299.89
876.831	325.15
877	303.41
877.17	348.46
877.339	407.83
877.508	292.2
877.677	340.27
877.846	380.15
878.015	320.53
878.184	265.89
878.352	259.63
878.521	258.28
878.69	274.16
878.859	239.42
879.028	255.89
879.197	229.6
879.366	272.98
879.534	252.11
879.703	227.75
879.872	210.14
880.041	209.35
880.21	189.57
880.378	181.71
880.547	158.49
880.716	150.08
880.884	130.07
881.053	120.69
881.222	105.09
881.39	95.41
881.559	83.37
881.727	80.05
881.896	77.17
882.065	74.58
882.233	72.36
882.402	73.45
882.57	70.9
882.739	69.62
882.907	71.02
883.076	74.88
883.244	76.51
883.412	82.44
883.581	84.36
883.749	88.02
883.918	92.16
884.086	95.89
884.254	94.89
884.423	102.11
884.591	109.61
884.759	107.72
884.927	103.82
885.096	100.61
885.264	101.64
885.432	106.37
885.6	107.83
885.769	110.04
885.937	115.47
886.105	120.55
886.273	122.37
886.441	124.71
886.609	139.69
886.777	160.51
886.945	195
887.113	205.14
887.281	228.3
887.449	231.68
887.617	227.98
887.785	260.49
887.953	262.62
888.121	271
888.289	288.71
888.457	366.01
888.625	469.95
888.793	360.48
888.961	386.05
889.129	301.07
889.296	320.58
889.464	360.77
889.632	298.28
889.8	342.16
889.967	361.49
890.135	393.82
