Data from JASIL_2966_Reflection_2.txt Node
Date: Sat Nov 07 21:31:45 EST 2015
User: Geneva
Spectrometer: USB4E03002
Autoset integration time: false
Trigger mode: 4
Integration Time (sec): 1.000000E-1
Scans to average: 10
Electric dark correction enabled: true
Nonlinearity correction enabled: false
Boxcar width: 5
Stray light correction enabled: false
XAxis mode: Wavelengths
Stop averaging: false
Number of Pixels in Spectrum: 3648
>>>>>Begin Spectral Data<<<<<
177.575	9.13
177.794	40.68
178.014	44.63
178.233	9.56
178.452	25.79
178.672	133.2
178.891	78.79
179.11	-24.3
179.33	-50.85
179.549	-84.14
179.768	-9.75
179.987	-45.48
180.207	-153.43
180.426	396.52
180.645	194.42
180.864	203.69
181.084	175.81
181.303	210.93
181.522	166.51
181.741	152.94
181.96	165.29
182.179	151.04
182.398	150.65
182.618	172.86
182.837	199.11
183.056	242.27
183.275	235.24
183.494	235.9
183.713	216.72
183.932	339.42
184.151	583.28
184.37	207.19
184.589	155.95
184.808	122.03
185.027	121.94
185.246	113
185.465	99.27
185.684	104.91
185.903	88.56
186.122	74.3
186.341	63.57
186.56	62.03
186.779	66.51
186.998	81
187.216	102.92
187.435	74.3
187.654	73.61
187.873	71.68
188.092	50.4
188.311	47.08
188.53	50.6
188.748	64.94
188.967	56.1
189.186	64.45
189.405	39.02
189.623	-9.7
189.842	23.23
190.061	26.1
190.28	14.14
190.498	50.71
190.717	34.52
190.936	31.47
191.154	-64.01
191.373	110.07
191.592	-75.04
191.81	-160.54
192.029	-10.82
192.248	-6.08
192.466	55.52
192.685	82.55
192.904	45.73
193.122	70.7
193.341	94.5
193.559	93.85
193.778	91.02
193.996	102.79
194.215	115.14
194.433	122.2
194.652	143.72
194.87	145.07
195.089	121.8
195.307	161.34
195.526	159.64
195.744	107.64
195.963	102.38
196.181	92
196.399	81.48
196.618	72.16
196.836	70.4
197.055	63.4
197.273	53.84
197.491	38.25
197.71	29.09
197.928	10.5
198.146	18.41
198.365	17.93
198.583	7.64
198.801	18.57
199.019	14.5
199.238	12.57
199.456	15.63
199.674	15.52
199.892	17.91
200.111	0.18
200.329	15.89
200.547	1.53
200.765	8.68
200.983	0.13
201.202	5.38
201.42	25.13
201.638	27.57
201.856	16.69
202.074	19.69
202.292	23.77
202.51	27.08
202.728	34.69
202.946	39.79
203.165	28.15
203.383	39.2
203.601	46.62
203.819	26.43
204.037	25.02
204.255	43.83
204.473	57.5
204.691	55.19
204.909	57.15
205.127	60.14
205.345	68.24
205.562	66.85
205.78	72.77
205.998	69.88
206.216	73.83
206.434	82.18
206.652	59.16
206.87	51.66
207.088	48.81
207.306	44.19
207.523	37.05
207.741	22.31
207.959	27.31
208.177	10.1
208.395	-3.6
208.612	-5.37
208.83	0.23
209.048	13.48
209.266	5.88
209.483	7.04
209.701	0.03
209.919	-5.79
210.136	10.03
210.354	37.07
210.572	47.65
210.79	61.72
211.007	50.38
211.225	48.55
211.442	43.32
211.66	44.33
211.878	38.47
212.095	97.21
212.313	93.2
212.53	91.85
212.748	85.49
212.966	99.65
213.183	94.84
213.401	97.12
213.618	100.25
213.836	100.1
214.053	98.65
214.271	97.68
214.488	37.13
214.705	28.46
214.923	31.16
215.14	36.51
215.358	36.97
215.575	34.15
215.793	29.73
216.01	25.77
216.227	23.74
216.445	23.58
216.662	21.01
216.879	20.56
217.097	17.33
217.314	7.8
217.531	6.06
217.749	-7.91
217.966	-8.13
218.183	-9.63
218.4	-14.93
218.618	-9.72
218.835	-4.39
219.052	0.66
219.269	-1.32
219.487	10.07
219.704	10.35
219.921	5.06
220.138	8.7
220.355	10.81
220.572	15.86
220.79	14.8
221.007	18.26
221.224	23.51
221.441	19.33
221.658	18.63
221.875	14.5
222.092	17.59
222.309	18.08
222.526	20.11
222.743	19.12
222.96	16.61
223.177	18.48
223.394	13.83
223.611	9.08
223.828	10.99
224.045	14.25
224.262	15.85
224.479	13.84
224.696	14.67
224.913	13.43
225.13	15.67
225.347	14.32
225.564	14.1
225.781	14.47
225.997	14.4
226.214	12.66
226.431	13.06
226.648	11.95
226.865	11.75
227.082	10.97
227.298	11.25
227.515	10.2
227.732	9.39
227.949	9.35
228.165	9
228.382	8.54
228.599	8.81
228.816	8.62
229.032	7.95
229.249	8.07
229.466	8.12
229.682	8.07
229.899	8.81
230.116	10.49
230.332	11.06
230.549	12.85
230.765	14.19
230.982	14.8
231.199	14.31
231.415	15.87
231.632	15.91
231.848	16.23
232.065	17.02
232.281	15.93
232.498	15.11
232.714	13.85
232.931	12.15
233.147	12.23
233.364	11.82
233.58	12.45
233.797	12.29
234.013	12.96
234.23	14.14
234.446	12.53
234.662	12.89
234.879	14.25
235.095	14.12
235.312	14.56
235.528	13.93
235.744	13.51
235.961	12.64
236.177	12.97
236.393	12.69
236.61	12.2
236.826	12.92
237.042	12.67
237.258	11.12
237.475	12.55
237.691	12.57
237.907	12.09
238.123	12.68
238.339	13.55
238.556	12.9
238.772	12.31
238.988	12.02
239.204	11.69
239.42	11.76
239.636	11.69
239.853	11.39
240.069	10.95
240.285	11.09
240.501	10.63
240.717	9.94
240.933	9.86
241.149	9.96
241.365	10.23
241.581	10.06
241.797	9.98
242.013	9.57
242.229	9.62
242.445	9.54
242.661	9.22
242.877	9.21
243.093	9.33
243.309	9.55
243.525	9.71
243.741	9.06
243.957	9.21
244.173	9.49
244.388	9.66
244.604	9.21
244.82	9.21
245.036	8.97
245.252	8.86
245.468	8.74
245.683	8.58
245.899	8.57
246.115	8.31
246.331	8.31
246.547	7.9
246.762	7.8
246.978	7.84
247.194	7.67
247.409	7.76
247.625	7.7
247.841	7.56
248.057	7.45
248.272	6.99
248.488	7.1
248.703	6.93
248.919	7.41
249.135	7.27
249.35	7.04
249.566	7.18
249.782	6.99
249.997	7.29
250.213	7.34
250.428	7.38
250.644	7.11
250.859	7.1
251.075	7.21
251.29	6.77
251.506	7.04
251.721	7.05
251.937	7.01
252.152	7.18
252.368	7.09
252.583	7.34
252.798	7.44
253.014	7.96
253.229	8.22
253.445	7.89
253.66	7.85
253.875	7.65
254.091	7.34
254.306	7.49
254.521	7.16
254.737	7.22
254.952	6.62
255.167	6.11
255.383	6.12
255.598	6.34
255.813	6.69
256.028	6.76
256.244	6.7
256.459	6.56
256.674	6.63
256.889	6.5
257.104	6.33
257.32	6.55
257.535	6.49
257.75	6.35
257.965	6.27
258.18	6.11
258.395	6.02
258.61	5.88
258.826	5.92
259.041	5.65
259.256	5.74
259.471	5.63
259.686	5.55
259.901	5.56
260.116	5.64
260.331	5.51
260.546	5.48
260.761	5.52
260.976	5.76
261.191	5.7
261.406	5.67
261.621	5.41
261.836	5.24
262.05	4.86
262.265	4.71
262.48	4.75
262.695	4.76
262.91	5.2
263.125	5.26
263.34	5.4
263.555	5.69
263.769	5.95
263.984	6.5
264.199	6.84
264.414	7.25
264.629	7.31
264.843	7.25
265.058	7.27
265.273	6.99
265.488	6.89
265.702	6.68
265.917	6.86
266.132	6.76
266.346	6.51
266.561	6.5
266.776	6.47
266.99	6.69
267.205	6.57
267.42	6.29
267.634	5.91
267.849	5.96
268.063	5.68
268.278	5.37
268.492	5.35
268.707	5.23
268.922	5.27
269.136	5.31
269.351	5.21
269.565	5.22
269.78	5.17
269.994	5.3
270.209	5.39
270.423	5.69
270.637	5.63
270.852	5.67
271.066	5.62
271.281	5.38
271.495	5.35
271.709	5.24
271.924	5.23
272.138	5.37
272.353	5.54
272.567	5.29
272.781	5.09
272.996	5.28
273.21	5.36
273.424	5.5
273.638	5.5
273.853	5.36
274.067	5.27
274.281	5.35
274.495	5.24
274.71	5.24
274.924	5.26
275.138	5.42
275.352	5.29
275.566	5.34
275.781	5.27
275.995	5.51
276.209	5.76
276.423	5.76
276.637	5.54
276.851	5.37
277.065	5.2
277.279	5.49
277.493	5.6
277.707	5.35
277.921	5.43
278.135	5.48
278.349	5.42
278.563	5.29
278.777	5.06
278.991	5.14
279.205	5.58
279.419	5.87
279.633	5.5
279.847	5.34
280.061	5.39
280.275	5.17
280.489	5.2
280.703	5.15
280.917	4.97
281.131	5.34
281.344	5.15
281.558	4.96
281.772	4.97
281.986	5.08
282.2	5.15
282.414	5.43
282.627	5.6
282.841	5.6
283.055	5.41
283.269	5.49
283.482	5.24
283.696	5.37
283.91	5.49
284.123	5.24
284.337	5.19
284.551	5.08
284.764	4.76
284.978	4.79
285.192	4.66
285.405	4.9
285.619	4.98
285.833	4.95
286.046	4.86
286.26	4.78
286.473	4.52
286.687	4.62
286.9	4.63
287.114	4.77
287.327	4.84
287.541	4.86
287.754	4.72
287.968	4.51
288.181	4.68
288.395	4.63
288.608	4.39
288.822	4.85
289.035	4.92
289.248	4.94
289.462	4.99
289.675	4.68
289.889	4.75
290.102	4.95
290.315	5.07
290.529	4.95
290.742	5.01
290.955	5.36
291.169	5.21
291.382	5.09
291.595	5.04
291.808	4.99
292.022	5.32
292.235	5.25
292.448	5.16
292.661	5.07
292.875	5.13
293.088	5.13
293.301	5.01
293.514	4.94
293.727	4.75
293.94	4.92
294.153	4.97
294.367	4.84
294.58	4.72
294.793	4.64
295.006	4.66
295.219	4.88
295.432	4.89
295.645	4.89
295.858	4.83
296.071	4.89
296.284	4.74
296.497	4.64
296.71	4.61
296.923	4.71
297.136	4.64
297.349	4.7
297.562	4.4
297.775	4.45
297.988	4.39
298.201	4.37
298.414	4.49
298.626	4.4
298.839	4.42
299.052	4.46
299.265	4.4
299.478	4.38
299.691	4.3
299.903	4.49
300.116	4.38
300.329	4.38
300.542	4.52
300.755	4.5
300.967	4.77
301.18	4.8
301.393	4.87
301.605	4.77
301.818	4.81
302.031	4.78
302.243	4.75
302.456	5.16
302.669	5.09
302.881	5.04
303.094	4.94
303.307	4.85
303.519	4.96
303.732	4.91
303.944	5.13
304.157	5.09
304.37	5.34
304.582	5.43
304.795	5
305.007	5.04
305.22	5.27
305.432	5.13
305.645	5.05
305.857	5.04
306.069	4.87
306.282	4.78
306.494	4.92
306.707	4.69
306.919	4.65
307.132	4.77
307.344	4.7
307.556	4.45
307.769	4.66
307.981	4.57
308.193	4.59
308.406	4.47
308.618	4.67
308.83	4.46
309.043	4.61
309.255	4.59
309.467	4.54
309.679	4.72
309.892	4.71
310.104	4.56
310.316	4.58
310.528	4.44
310.74	4.77
310.953	4.67
311.165	4.87
311.377	4.67
311.589	4.58
311.801	4.43
312.013	4.49
312.225	4.6
312.437	4.8
312.649	5.01
312.862	5.16
313.074	4.94
313.286	4.73
313.498	4.54
313.71	4.88
313.922	5
314.134	5.33
314.346	4.93
314.558	4.86
314.77	4.81
314.982	4.59
315.193	4.59
315.405	4.52
315.617	4.63
315.829	4.71
316.041	4.79
316.253	4.63
316.465	4.56
316.677	4.81
316.888	4.94
317.1	4.9
317.312	5.17
317.524	5.12
317.736	5.14
317.947	5.34
318.159	5.51
318.371	5.29
318.583	5.71
318.794	5.88
319.006	5.97
319.218	5.93
319.43	5.77
319.641	5.63
319.853	5.65
320.064	5.73
320.276	5.71
320.488	5.65
320.699	5.88
320.911	5.74
321.123	5.84
321.334	6
321.546	5.99
321.757	6.21
321.969	6.4
322.18	6.29
322.392	6.16
322.603	5.99
322.815	6.03
323.026	5.87
323.238	5.66
323.449	5.52
323.661	5.27
323.872	5.31
324.083	5.24
324.295	5.07
324.506	4.98
324.718	5.02
324.929	5.01
325.14	5.13
325.352	5.03
325.563	5.17
325.774	4.91
325.986	4.9
326.197	4.86
326.408	4.95
326.62	4.95
326.831	5.11
327.042	5.39
327.253	5.39
327.464	5.3
327.676	5.23
327.887	5.29
328.098	5.49
328.309	5.59
328.52	5.72
328.732	5.87
328.943	5.99
329.154	6.3
329.365	6.13
329.576	6.45
329.787	6.29
329.998	6.58
330.209	6.58
330.42	6.55
330.631	6.45
330.842	6.47
331.053	6.26
331.264	6.18
331.475	6.02
331.686	5.88
331.897	5.81
332.108	5.76
332.319	5.61
332.53	5.63
332.741	5.58
332.952	5.62
333.163	5.65
333.374	5.66
333.585	5.57
333.795	5.37
334.006	5.62
334.217	5.49
334.428	5.72
334.639	5.67
334.849	5.55
335.06	5.64
335.271	5.8
335.482	5.55
335.692	5.61
335.903	5.58
336.114	5.67
336.325	5.68
336.535	5.84
336.746	5.64
336.957	5.84
337.167	5.79
337.378	5.6
337.589	5.38
337.799	5.55
338.01	5.59
338.22	5.69
338.431	5.58
338.642	5.41
338.852	5.21
339.063	5.26
339.273	5.11
339.484	5.3
339.694	5.45
339.905	5.46
340.115	5.33
340.326	5.18
340.536	5.18
340.746	5.22
340.957	5.2
341.167	5.22
341.378	5.26
341.588	5.41
341.799	5.07
342.009	5.03
342.219	5.06
342.43	5.23
342.64	5.23
342.85	5.19
343.061	5.17
343.271	5.34
343.481	5.43
343.691	5.4
343.902	5.19
344.112	5.35
344.322	5.33
344.532	5.35
344.743	5.23
344.953	4.91
345.163	4.89
345.373	4.84
345.583	4.7
345.793	4.56
346.004	4.45
346.214	4.6
346.424	4.64
346.634	4.8
346.844	4.72
347.054	4.89
347.264	5.33
347.474	5.28
347.684	5.4
347.894	5.43
348.104	5.38
348.314	5.55
348.524	5.45
348.734	5.54
348.944	5.3
349.154	5.29
349.364	4.97
349.574	4.75
349.784	4.77
349.994	4.84
350.204	4.71
350.413	4.69
350.623	4.62
350.833	4.48
351.043	4.24
351.253	4.33
351.463	4.34
351.672	4.37
351.882	4.44
352.092	4.4
352.302	4.32
352.511	4.29
352.721	4.34
352.931	4.39
353.141	4.14
353.35	4.1
353.56	4.05
353.77	4.09
353.979	4.33
354.189	4.27
354.399	4.43
354.608	4.41
354.818	4.47
355.027	4.49
355.237	4.34
355.447	4.63
355.656	4.75
355.866	4.83
356.075	4.81
356.285	4.64
356.494	4.78
356.704	4.65
356.913	4.68
357.123	4.57
357.332	4.61
357.542	4.75
357.751	4.72
357.96	4.68
358.17	4.55
358.379	4.58
358.589	4.49
358.798	4.4
359.007	4.4
359.217	4.28
359.426	4.36
359.635	4.28
359.845	4.23
360.054	4.14
360.263	4.09
360.472	4.16
360.682	4.15
360.891	4.2
361.1	4.22
361.309	4.26
361.519	4.27
361.728	4.28
361.937	4.3
362.146	4.17
362.355	4.22
362.564	4.3
362.774	4.29
362.983	4.14
363.192	4.13
363.401	4.09
363.61	4.06
363.819	4.1
364.028	4.28
364.237	4.21
364.446	4.39
364.655	4.43
364.864	4.39
365.073	4.47
365.282	4.61
365.491	4.64
365.7	4.65
365.909	4.55
366.118	4.5
366.327	4.29
366.536	4.24
366.745	4.11
366.954	3.99
367.162	3.96
367.371	3.82
367.58	3.76
367.789	3.66
367.998	3.76
368.207	3.89
368.415	3.91
368.624	3.84
368.833	3.93
369.042	4.18
369.25	4.32
369.459	4.43
369.668	4.39
369.877	4.4
370.085	4.55
370.294	4.41
370.503	4.4
370.711	4.3
370.92	4.21
371.129	4.19
371.337	3.99
371.546	3.85
371.754	3.81
371.963	3.93
372.171	3.88
372.38	3.73
372.589	3.82
372.797	3.79
373.006	3.8
373.214	3.87
373.423	3.88
373.631	3.89
373.84	4.04
374.048	3.9
374.256	3.76
374.465	3.72
374.673	3.71
374.882	3.54
375.09	3.51
375.298	3.52
375.507	3.51
375.715	3.43
375.923	3.39
376.132	3.21
376.34	3.21
376.548	3.17
376.757	3.24
376.965	3.28
377.173	3.37
377.381	3.33
377.59	3.31
377.798	3.28
378.006	3.26
378.214	3.26
378.423	3.34
378.631	3.34
378.839	3.4
379.047	3.31
379.255	3.23
379.463	3.13
379.671	3.07
379.879	3.09
380.088	3.14
380.296	3.21
380.504	3.32
380.712	3.37
380.92	3.49
381.128	3.44
381.336	3.48
381.544	3.54
381.752	3.63
381.96	3.64
382.168	3.57
382.376	3.64
382.584	3.68
382.791	3.59
382.999	3.43
383.207	3.38
383.415	3.32
383.623	3.33
383.831	3.31
384.039	3.3
384.247	3.31
384.454	3.39
384.662	3.4
384.87	3.32
385.078	3.32
385.285	3.52
385.493	3.43
385.701	3.52
385.909	3.5
386.116	3.51
386.324	3.52
386.532	3.55
386.739	3.41
386.947	3.27
387.155	3.16
387.362	3.2
387.57	3.1
387.778	3.15
387.985	3.15
388.193	3.15
388.4	3.21
388.608	3.06
388.816	2.97
389.023	3.02
389.231	2.99
389.438	3.05
389.646	2.91
389.853	2.91
390.061	2.78
390.268	2.74
390.475	2.72
390.683	2.67
390.89	2.73
391.098	2.73
391.305	2.71
391.512	2.63
391.72	2.7
391.927	2.68
392.135	2.63
392.342	2.68
392.549	2.65
392.756	2.62
392.964	2.61
393.171	2.58
393.378	2.67
393.586	2.7
393.793	2.89
394	2.74
394.207	2.78
394.414	2.81
394.622	2.85
394.829	2.87
395.036	2.79
395.243	2.75
395.45	2.75
395.657	2.63
395.864	2.56
396.072	2.51
396.279	2.59
396.486	2.59
396.693	2.59
396.9	2.55
397.107	2.46
397.314	2.66
397.521	2.65
397.728	2.65
397.935	2.59
398.142	2.59
398.349	2.54
398.556	2.53
398.763	2.48
398.97	2.48
399.177	2.47
399.383	2.54
399.59	2.42
399.797	2.43
400.004	2.39
400.211	2.48
400.418	2.47
400.625	2.51
400.831	2.5
401.038	2.51
401.245	2.4
401.452	2.31
401.658	2.31
401.865	2.32
402.072	2.33
402.279	2.37
402.485	2.36
402.692	2.39
402.899	2.38
403.105	2.44
403.312	2.43
403.519	2.39
403.725	2.54
403.932	2.52
404.138	2.52
404.345	2.49
404.552	2.43
404.758	2.48
404.965	2.41
405.171	2.34
405.378	2.23
405.584	2.27
405.791	2.34
405.997	2.29
406.204	2.28
406.41	2.25
406.617	2.27
406.823	2.33
407.029	2.27
407.236	2.35
407.442	2.37
407.649	2.47
407.855	2.57
408.061	2.6
408.268	2.54
408.474	2.54
408.68	2.54
408.887	2.51
409.093	2.47
409.299	2.47
409.505	2.52
409.712	2.54
409.918	2.44
410.124	2.32
410.33	2.24
410.537	2.32
410.743	2.31
410.949	2.29
411.155	2.34
411.361	2.39
411.567	2.37
411.773	2.22
411.98	2.21
412.186	2.19
412.392	2.14
412.598	2.12
412.804	2.05
413.01	2.09
413.216	2.04
413.422	2.06
413.628	2.06
413.834	1.97
414.04	2.04
414.246	1.98
414.452	1.98
414.658	2.01
414.864	2.06
415.07	2
415.275	1.97
415.481	1.96
415.687	1.79
415.893	1.79
416.099	1.78
416.305	1.8
416.511	1.82
416.716	1.79
416.922	1.76
417.128	1.79
417.334	1.81
417.539	1.77
417.745	1.77
417.951	1.84
418.157	1.87
418.362	1.91
418.568	1.89
418.774	1.85
418.979	1.87
419.185	1.85
419.391	1.8
419.596	1.79
419.802	1.77
420.008	1.77
420.213	2.06
420.419	2.01
420.624	1.99
420.83	1.99
421.035	2.01
421.241	2.01
421.446	2.07
421.652	2.07
421.857	2.05
422.063	2.05
422.268	2.02
422.474	1.73
422.679	1.74
422.885	1.73
423.09	1.7
423.295	1.69
423.501	1.69
423.706	1.66
423.911	1.7
424.117	1.7
424.322	1.72
424.527	1.76
424.733	1.74
424.938	1.74
425.143	1.74
425.349	1.72
425.554	1.74
425.759	1.75
425.964	1.7
426.169	1.67
426.375	1.67
426.58	1.64
426.785	1.63
426.99	1.65
427.195	1.59
427.4	1.61
427.605	1.66
427.811	1.67
428.016	1.72
428.221	1.81
428.426	1.8
428.631	1.8
428.836	1.79
429.041	1.81
429.246	1.78
429.451	1.85
429.656	1.81
429.861	1.77
430.066	1.82
430.271	1.77
430.476	1.68
430.681	1.67
430.886	1.65
431.09	1.73
431.295	1.65
431.5	1.69
431.705	1.64
431.91	1.63
432.115	1.65
432.32	1.58
432.524	1.56
432.729	1.53
432.934	1.53
433.139	1.54
433.343	1.55
433.548	1.59
433.753	1.58
433.958	1.63
434.162	1.63
434.367	1.64
434.572	1.64
434.776	1.69
434.981	1.77
435.186	1.76
435.39	1.74
435.595	1.75
435.799	1.74
436.004	1.7
436.209	1.67
436.413	1.69
436.618	1.65
436.822	1.62
437.027	1.54
437.231	1.49
437.436	1.5
437.64	1.52
437.845	1.46
438.049	1.41
438.253	1.41
438.458	1.37
438.662	1.42
438.867	1.43
439.071	1.47
439.275	1.51
439.48	1.53
439.684	1.52
439.888	1.5
440.093	1.5
440.297	1.52
440.501	1.54
440.706	1.58
440.91	1.59
441.114	1.58
441.318	1.55
441.523	1.57
441.727	1.57
441.931	1.63
442.135	1.62
442.339	1.65
442.543	1.65
442.748	1.62
442.952	1.59
443.156	1.53
443.36	1.57
443.564	1.6
443.768	1.59
443.972	1.57
444.176	1.48
444.38	1.52
444.584	1.48
444.788	1.48
444.992	1.52
445.196	1.51
445.4	1.5
445.604	1.46
445.808	1.47
446.012	1.45
446.216	1.46
446.42	1.44
446.624	1.41
446.828	1.42
447.032	1.42
447.235	1.41
447.439	1.41
447.643	1.45
447.847	1.48
448.051	1.41
448.254	1.39
448.458	1.38
448.662	1.44
448.866	1.41
449.069	1.41
449.273	1.45
449.477	1.47
449.681	1.48
449.884	1.48
450.088	1.44
450.292	1.5
450.495	1.5
450.699	1.55
450.902	1.53
451.106	1.53
451.31	1.53
451.513	1.53
451.717	1.47
451.92	1.43
452.124	1.38
452.327	1.44
452.531	1.44
452.734	1.47
452.938	1.4
453.141	1.46
453.345	1.51
453.548	1.57
453.752	1.53
453.955	1.56
454.158	1.57
454.362	1.59
454.565	1.55
454.769	1.52
454.972	1.55
455.175	1.55
455.379	1.46
455.582	1.41
455.785	1.35
455.988	1.29
456.192	1.27
456.395	1.27
456.598	1.25
456.801	1.24
457.005	1.25
457.208	1.19
457.411	1.21
457.614	1.25
457.817	1.26
458.021	1.24
458.224	1.29
458.427	1.33
458.63	1.35
458.833	1.36
459.036	1.39
459.239	1.35
459.442	1.33
459.645	1.34
459.848	1.36
460.051	1.35
460.254	1.36
460.457	1.34
460.66	1.34
460.863	1.32
461.066	1.32
461.269	1.32
461.472	1.36
461.675	1.43
461.878	1.43
462.081	1.42
462.284	1.46
462.486	1.5
462.689	1.48
462.892	1.47
463.095	1.49
463.298	1.48
463.5	1.49
463.703	1.46
463.906	1.45
464.109	1.47
464.311	1.52
464.514	1.53
464.717	1.53
464.92	1.6
465.122	1.61
465.325	1.65
465.528	1.67
465.73	1.65
465.933	1.65
466.135	1.64
466.338	1.63
466.541	1.56
466.743	1.55
466.946	1.52
467.148	1.47
467.351	1.46
467.553	1.4
467.756	1.43
467.958	1.47
468.161	1.51
468.363	1.45
468.566	1.44
468.768	1.44
468.971	1.43
469.173	1.46
469.375	1.45
469.578	1.51
469.78	1.5
469.983	1.43
470.185	1.4
470.387	1.37
470.59	1.4
470.792	1.42
470.994	1.44
471.196	1.45
471.399	1.4
471.601	1.4
471.803	1.3
472.005	1.32
472.208	1.37
472.41	1.35
472.612	1.38
472.814	1.38
473.016	1.41
473.218	1.43
473.421	1.42
473.623	1.42
473.825	1.42
474.027	1.49
474.229	1.48
474.431	1.47
474.633	1.46
474.835	1.42
475.037	1.38
475.239	1.32
475.441	1.29
475.643	1.24
475.845	1.29
476.047	1.31
476.249	1.27
476.451	1.28
476.653	1.28
476.855	1.28
477.057	1.3
477.258	1.32
477.46	1.31
477.662	1.3
477.864	1.34
478.066	1.3
478.268	1.33
478.469	1.37
478.671	1.34
478.873	1.28
479.075	1.28
479.276	1.29
479.478	1.3
479.68	1.29
479.882	1.31
480.083	1.32
480.285	1.37
480.487	1.31
480.688	1.3
480.89	1.32
481.091	1.36
481.293	1.36
481.495	1.33
481.696	1.32
481.898	1.32
482.099	1.31
482.301	1.29
482.502	1.26
482.704	1.26
482.905	1.25
483.107	1.24
483.308	1.23
483.51	1.21
483.711	1.21
483.913	1.22
484.114	1.21
484.315	1.21
484.517	1.21
484.718	1.21
484.92	1.23
485.121	1.22
485.322	1.22
485.524	1.23
485.725	1.25
485.926	1.25
486.127	1.24
486.329	1.25
486.53	1.27
486.731	1.26
486.932	1.26
487.134	1.23
487.335	1.22
487.536	1.21
487.737	1.22
487.938	1.21
488.139	1.2
488.341	1.2
488.542	1.2
488.743	1.18
488.944	1.19
489.145	1.2
489.346	1.24
489.547	1.27
489.748	1.27
489.949	1.29
490.15	1.27
490.351	1.3
490.552	1.3
490.753	1.28
490.954	1.28
491.155	1.26
491.356	1.24
491.557	1.22
491.758	1.24
491.959	1.25
492.159	1.21
492.36	1.23
492.561	1.22
492.762	1.22
492.963	1.23
493.164	1.24
493.364	1.26
493.565	1.28
493.766	1.32
493.967	1.3
494.167	1.3
494.368	1.34
494.569	1.33
494.769	1.3
494.97	1.29
495.171	1.32
495.371	1.32
495.572	1.34
495.773	1.39
495.973	1.38
496.174	1.39
496.375	1.38
496.575	1.38
496.776	1.39
496.976	1.42
497.177	1.44
497.377	1.42
497.578	1.44
497.778	1.41
497.979	1.39
498.179	1.41
498.38	1.41
498.58	1.43
498.78	1.44
498.981	1.47
499.181	1.48
499.382	1.46
499.582	1.49
499.782	1.53
499.983	1.55
500.183	1.54
500.383	1.54
500.584	1.51
500.784	1.54
500.984	1.53
501.184	1.51
501.385	1.51
501.585	1.53
501.785	1.54
501.985	1.52
502.185	1.53
502.386	1.55
502.586	1.56
502.786	1.67
502.986	1.69
503.186	1.73
503.386	1.74
503.586	1.78
503.786	1.75
503.987	1.8
504.187	1.84
504.387	1.86
504.587	1.85
504.787	1.83
504.987	1.79
505.187	1.75
505.387	1.75
505.587	1.73
505.786	1.75
505.986	1.8
506.186	1.72
506.386	1.75
506.586	1.76
506.786	1.81
506.986	1.84
507.186	1.81
507.386	1.84
507.585	1.87
507.785	1.89
507.985	1.88
508.185	1.89
508.384	1.95
508.584	1.9
508.784	1.89
508.984	1.88
509.183	1.89
509.383	1.92
509.583	1.93
509.782	1.92
509.982	1.94
510.182	1.95
510.381	1.94
510.581	1.94
510.781	1.97
510.98	2
511.18	2.01
511.379	2.01
511.579	2.04
511.778	2.01
511.978	2.02
512.177	2.03
512.377	2.05
512.576	2.1
512.776	2.13
512.975	2.1
513.175	2.1
513.374	2.13
513.573	2.15
513.773	2.14
513.972	2.18
514.172	2.21
514.371	2.23
514.57	2.19
514.77	2.18
514.969	2.16
515.168	2.2
515.367	2.25
515.567	2.25
515.766	2.25
515.965	2.29
516.164	2.32
516.364	2.34
516.563	2.36
516.762	2.4
516.961	2.37
517.16	2.41
517.359	2.41
517.559	2.41
517.758	2.42
517.957	2.44
518.156	2.46
518.355	2.48
518.554	2.49
518.753	2.48
518.952	2.51
519.151	2.55
519.35	2.57
519.549	2.58
519.748	2.61
519.947	2.63
520.146	2.63
520.345	2.61
520.544	2.64
520.743	2.68
520.942	2.68
521.141	2.68
521.339	2.7
521.538	2.68
521.737	2.74
521.936	2.75
522.135	2.77
522.333	2.79
522.532	2.81
522.731	2.81
522.93	2.78
523.129	2.82
523.327	2.84
523.526	2.79
523.725	2.83
523.923	2.83
524.122	2.81
524.321	2.82
524.519	2.84
524.718	2.83
524.917	2.82
525.115	2.82
525.314	2.83
525.512	2.83
525.711	2.85
525.909	2.85
526.108	2.82
526.306	2.84
526.505	2.81
526.703	2.82
526.902	2.83
527.1	2.83
527.299	2.84
527.497	2.85
527.696	2.87
527.894	2.89
528.092	2.9
528.291	2.92
528.489	2.94
528.688	2.95
528.886	2.97
529.084	2.99
529.283	3
529.481	3.02
529.679	3.03
529.877	3.05
530.076	3.07
530.274	3.1
530.472	3.13
530.67	3.17
530.869	3.2
531.067	3.21
531.265	3.23
531.463	3.27
531.661	3.27
531.859	3.28
532.057	3.28
532.255	3.29
532.454	3.27
532.652	3.27
532.85	3.25
533.048	3.25
533.246	3.26
533.444	3.27
533.642	3.29
533.84	3.3
534.038	3.34
534.236	3.38
534.434	3.38
534.632	3.38
534.83	3.4
535.027	3.43
535.225	3.45
535.423	3.48
535.621	3.51
535.819	3.52
536.017	3.56
536.215	3.55
536.412	3.56
536.61	3.6
536.808	3.65
537.006	3.67
537.203	3.68
537.401	3.71
537.599	3.72
537.797	3.75
537.994	3.76
538.192	3.76
538.39	3.79
538.587	3.78
538.785	3.81
538.983	3.82
539.18	3.88
539.378	3.89
539.575	3.91
539.773	3.92
539.97	3.92
540.168	3.91
540.366	3.93
540.563	3.93
540.761	3.94
540.958	3.95
541.155	3.97
541.353	3.99
541.55	4
541.748	4.02
541.945	4.04
542.143	4.05
542.34	4.1
542.537	4.12
542.735	4.17
542.932	4.2
543.129	4.21
543.327	4.26
543.524	4.29
543.721	4.35
543.919	4.37
544.116	4.4
544.313	4.47
544.51	4.47
544.708	4.52
544.905	4.52
545.102	4.51
545.299	4.56
545.496	4.56
545.693	4.56
545.891	4.55
546.088	4.57
546.285	4.6
546.482	4.59
546.679	4.61
546.876	4.61
547.073	4.64
547.27	4.73
547.467	4.73
547.664	4.77
547.861	4.85
548.058	4.88
548.255	4.9
548.452	4.96
548.649	5.02
548.846	5.1
549.043	5.13
549.24	5.18
549.437	5.18
549.633	5.22
549.83	5.22
550.027	5.21
550.224	5.26
550.421	5.31
550.618	5.28
550.814	5.29
551.011	5.29
551.208	5.37
551.405	5.34
551.601	5.34
551.798	5.39
551.995	5.43
552.191	5.45
552.388	5.43
552.585	5.45
552.781	5.53
552.978	5.58
553.175	5.56
553.371	5.53
553.568	5.59
553.764	5.62
553.961	5.65
554.157	5.7
554.354	5.74
554.55	5.85
554.747	5.9
554.943	5.93
555.14	5.94
555.336	6.05
555.533	6.12
555.729	6.18
555.926	6.24
556.122	6.23
556.318	6.28
556.515	6.29
556.711	6.32
556.907	6.34
557.104	6.33
557.3	6.33
557.496	6.3
557.693	6.34
557.889	6.35
558.085	6.41
558.281	6.46
558.478	6.44
558.674	6.5
558.87	6.46
559.066	6.49
559.262	6.5
559.459	6.57
559.655	6.58
559.851	6.6
560.047	6.61
560.243	6.62
560.439	6.63
560.635	6.7
560.831	6.7
561.027	6.77
561.223	6.79
561.419	6.87
561.615	6.83
561.811	6.9
562.007	6.92
562.203	6.95
562.399	6.94
562.595	7
562.791	6.93
562.987	7.02
563.183	7.02
563.379	7.07
563.575	7.07
563.771	7.2
563.966	7.22
564.162	7.23
564.358	7.21
564.554	7.29
564.75	7.3
564.945	7.4
565.141	7.42
565.337	7.42
565.533	7.42
565.728	7.48
565.924	7.45
566.12	7.51
566.315	7.55
566.511	7.64
566.707	7.62
566.902	7.64
567.098	7.63
567.293	7.62
567.489	7.65
567.684	7.69
567.88	7.67
568.076	7.74
568.271	7.72
568.467	7.74
568.662	7.72
568.858	7.72
569.053	7.71
569.248	7.74
569.444	7.74
569.639	7.79
569.835	7.83
570.03	7.84
570.225	7.81
570.421	7.86
570.616	7.89
570.812	7.94
571.007	7.99
571.202	8.01
571.397	8.03
571.593	8.04
571.788	8.06
571.983	8.06
572.178	8.08
572.374	8.11
572.569	8.14
572.764	8.14
572.959	8.11
573.154	8.11
573.35	8.17
573.545	8.19
573.74	8.18
573.935	8.2
574.13	8.23
574.325	8.25
574.52	8.26
574.715	8.21
574.91	8.21
575.105	8.27
575.3	8.33
575.495	8.35
575.69	8.4
575.885	8.49
576.08	8.5
576.275	8.46
576.47	8.52
576.665	8.59
576.86	8.64
577.055	8.71
577.25	8.74
577.444	8.77
577.639	8.78
577.834	8.78
578.029	8.78
578.224	8.77
578.418	8.84
578.613	8.87
578.808	8.87
579.003	8.92
579.197	8.96
579.392	9
579.587	9
579.781	9.01
579.976	9.03
580.171	9.05
580.365	9.08
580.56	9.05
580.755	9.01
580.949	9
581.144	9
581.338	8.98
581.533	8.97
581.727	8.98
581.922	8.96
582.116	9.01
582.311	8.98
582.505	8.96
582.7	9.02
582.894	9.09
583.089	9.12
583.283	9.09
583.478	9.02
583.672	9.04
583.866	9.04
584.061	9.07
584.255	9.06
584.449	9.09
584.644	9.2
584.838	9.22
585.032	9.18
585.226	9.18
585.421	9.18
585.615	9.25
585.809	9.21
586.003	9.18
586.198	9.2
586.392	9.14
586.586	9.18
586.78	9.15
586.974	9.12
587.168	9.18
587.363	9.14
587.557	9.17
587.751	9.2
587.945	9.22
588.139	9.28
588.333	9.29
588.527	9.37
588.721	9.39
588.915	9.36
589.109	9.38
589.303	9.32
589.497	9.37
589.691	9.4
589.885	9.43
590.079	9.48
590.273	9.49
590.466	9.55
590.66	9.52
590.854	9.53
591.048	9.52
591.242	9.53
591.436	9.54
591.629	9.54
591.823	9.56
592.017	9.51
592.211	9.48
592.404	9.48
592.598	9.43
592.792	9.48
592.986	9.44
593.179	9.5
593.373	9.44
593.567	9.47
593.76	9.49
593.954	9.41
594.147	9.46
594.341	9.47
594.535	9.48
594.728	9.49
594.922	9.44
595.115	9.42
595.309	9.4
595.502	9.43
595.696	9.4
595.889	9.45
596.083	9.47
596.276	9.41
596.47	9.43
596.663	9.41
596.856	9.41
597.05	9.46
597.243	9.46
597.437	9.48
597.63	9.54
597.823	9.58
598.017	9.56
598.21	9.57
598.403	9.61
598.596	9.63
598.79	9.62
598.983	9.67
599.176	9.64
599.369	9.68
599.563	9.65
599.756	9.64
599.949	9.6
600.142	9.6
600.335	9.62
600.528	9.63
600.722	9.62
600.915	9.64
601.108	9.63
601.301	9.66
601.494	9.64
601.687	9.68
601.88	9.65
602.073	9.67
602.266	9.65
602.459	9.68
602.652	9.67
602.845	9.67
603.038	9.7
603.231	9.67
603.424	9.66
603.617	9.64
603.809	9.62
604.002	9.62
604.195	9.6
604.388	9.62
604.581	9.56
604.774	9.51
604.966	9.5
605.159	9.49
605.352	9.52
605.545	9.52
605.737	9.57
605.93	9.6
606.123	9.56
606.316	9.65
606.508	9.67
606.701	9.79
606.894	9.87
607.086	9.84
607.279	9.79
607.471	9.81
607.664	9.79
607.857	9.84
608.049	9.88
608.242	9.92
608.434	9.87
608.627	9.89
608.819	9.83
609.012	9.86
609.204	9.89
609.397	9.97
609.589	9.96
609.782	9.95
609.974	9.98
610.166	9.99
610.359	10.07
610.551	10.06
610.743	10.09
610.936	10.15
611.128	10.18
611.32	10.22
611.513	10.22
611.705	10.28
611.897	10.29
612.09	10.21
612.282	10.17
612.474	10.12
612.666	10.19
612.858	10.1
613.051	10.06
613.243	9.98
613.435	10.03
613.627	10.06
613.819	9.99
614.011	9.99
614.203	9.98
614.395	10
614.588	10
614.78	9.96
614.972	10.01
615.164	9.93
615.356	9.87
615.548	9.85
615.74	9.84
615.932	9.83
616.124	9.87
616.315	9.89
616.507	9.8
616.699	9.89
616.891	9.95
617.083	10.03
617.275	10.12
617.467	10.13
617.659	10.07
617.85	10.07
618.042	10.07
618.234	10.1
618.426	10.09
618.618	10.18
618.809	10.15
619.001	10.05
619.193	10
619.384	10
619.576	10.05
619.768	10.11
619.959	10.07
620.151	10.09
620.343	10.02
620.534	9.98
620.726	9.93
620.917	9.92
621.109	9.98
621.301	9.95
621.492	9.9
621.684	9.83
621.875	9.79
622.067	9.78
622.258	9.81
622.45	9.89
622.641	9.98
622.832	10.04
623.024	10.08
623.215	10.05
623.407	10.07
623.598	10.11
623.789	10.2
623.981	10.16
624.172	10.28
624.363	10.28
624.555	10.28
624.746	10.24
624.937	10.22
625.129	10.11
625.32	10.11
625.511	10.11
625.702	10.03
625.893	10.01
626.085	10.05
626.276	10.01
626.467	9.94
626.658	9.94
626.849	9.92
627.04	9.88
627.231	9.94
627.422	10.04
627.614	10.05
627.805	10.13
627.996	10.14
628.187	10.13
628.378	10.07
628.569	10.14
628.76	10.1
628.951	10.1
629.142	10.16
629.332	10.17
629.523	10.08
629.714	10.11
629.905	10.14
630.096	10.2
630.287	10.24
630.478	10.36
630.669	10.41
630.859	10.4
631.05	10.4
631.241	10.38
631.432	10.37
631.623	10.42
631.813	10.37
632.004	10.3
632.195	10.31
632.385	10.23
632.576	10.14
632.767	10.05
632.957	10.13
633.148	10.15
633.339	10.11
633.529	10.1
633.72	10.09
633.91	10.07
634.101	10.16
634.292	10.01
634.482	9.99
634.673	10
634.863	10.05
635.054	9.95
635.244	9.93
635.435	9.98
635.625	9.96
635.815	9.93
636.006	9.98
636.196	9.97
636.387	10.09
636.577	10.14
636.767	10.12
636.958	10.06
637.148	10.09
637.338	10.08
637.529	10.12
637.719	10.17
637.909	10.18
638.099	10.17
638.29	10.13
638.48	10.22
638.67	10.24
638.86	10.23
639.05	10.3
639.241	10.37
639.431	10.37
639.621	10.32
639.811	10.33
640.001	10.28
640.191	10.19
640.381	10.16
640.571	10.1
640.761	10.11
640.951	10.14
641.141	10.08
641.331	10.01
641.521	10.04
641.711	10.06
641.901	10.05
642.091	10.09
642.281	10.16
642.471	10.1
642.661	10.09
642.851	10.09
643.041	10.03
643.231	10.06
643.42	10.06
643.61	9.9
643.8	9.9
643.99	9.9
644.18	9.91
644.369	9.88
644.559	10.01
644.749	9.96
644.939	9.89
645.128	9.93
645.318	9.92
645.508	9.95
645.697	10.07
645.887	10.09
646.076	10.11
646.266	10.15
646.456	10.16
646.645	10.09
646.835	10.06
647.024	10.09
647.214	10.1
647.403	10.06
647.593	10.11
647.782	10.15
647.972	10.05
648.161	9.96
648.351	9.92
648.54	9.96
648.73	9.96
648.919	9.99
649.108	10.02
649.298	9.96
649.487	9.96
649.677	9.87
649.866	9.86
650.055	9.95
650.244	10.03
650.434	10.04
650.623	10.06
650.812	10.08
651.002	10.09
651.191	10.07
651.38	10.13
651.569	10.17
651.758	10.12
651.947	10.07
652.137	10.02
652.326	9.98
652.515	9.95
652.704	9.97
652.893	9.99
653.082	9.88
653.271	9.93
653.46	9.89
653.649	9.92
653.838	9.97
654.027	9.97
654.216	9.99
654.405	10.04
654.594	10
654.783	9.98
654.972	9.93
655.161	10.1
655.35	10.12
655.539	10.14
655.728	9.99
655.916	9.97
656.105	9.99
656.294	10.03
656.483	9.91
656.672	9.96
656.86	9.9
657.049	9.86
657.238	9.74
657.427	9.64
657.615	9.72
657.804	9.72
657.993	9.76
658.181	9.72
658.37	9.64
658.559	9.62
658.747	9.63
658.936	9.65
659.125	9.65
659.313	9.72
659.502	9.75
659.69	9.66
659.879	9.7
660.067	9.69
660.256	9.82
660.444	9.94
660.633	10.14
660.821	10.07
661.01	10.08
661.198	10.2
661.387	10.15
661.575	10.24
661.763	10.31
661.952	10.39
662.14	10.45
662.328	10.36
662.517	10.33
662.705	10.21
662.893	10.33
663.082	10.28
663.27	10.2
663.458	10.2
663.646	10.13
663.834	10.19
664.023	10.17
664.211	10.16
664.399	10.04
664.587	10.03
664.775	9.96
664.963	9.94
665.152	9.99
665.34	10.01
665.528	10.03
665.716	10.07
665.904	10.01
666.092	9.97
666.28	10.01
666.468	10.24
666.656	10.21
666.844	10.3
667.032	10.28
667.22	10.23
667.408	10.28
667.596	10.28
667.784	10.3
667.971	10.4
668.159	10.4
668.347	10.27
668.535	10.09
668.723	10.07
668.911	10.08
669.098	10.05
669.286	10.18
669.474	10.25
669.662	10.15
669.849	10.18
670.037	10.08
670.225	10.06
670.413	10.22
670.6	10.44
670.788	10.48
670.976	10.43
671.163	10.44
671.351	10.36
671.538	10.3
671.726	10.46
671.913	10.23
672.101	10.21
672.289	10.41
672.476	10.34
672.664	10.14
672.851	10.14
673.039	10.18
673.226	10.2
673.413	10.22
673.601	10.24
673.788	10.21
673.976	10.31
674.163	10.42
674.35	10.39
674.538	10.36
674.725	10.48
674.912	10.47
675.1	10.45
675.287	10.43
675.474	10.4
675.662	10.49
675.849	10.49
676.036	10.65
676.223	10.65
676.411	10.51
676.598	10.49
676.785	10.44
676.972	10.48
677.159	10.56
677.346	10.52
677.533	10.58
677.721	10.44
677.908	10.47
678.095	10.47
678.282	10.45
678.469	10.5
678.656	10.54
678.843	10.53
679.03	10.46
679.217	10.4
679.404	10.47
679.591	10.43
679.778	10.42
679.964	10.32
680.151	10.24
680.338	10.2
680.525	10.28
680.712	10.26
680.899	10.29
681.086	10.31
681.272	10.24
681.459	10.28
681.646	10.27
681.833	10.29
682.02	10.43
682.206	10.51
682.393	10.45
682.58	10.27
682.766	10.34
682.953	10.36
683.14	10.4
683.326	10.54
683.513	10.51
683.7	10.58
683.886	10.56
684.073	10.4
684.259	10.36
684.446	10.48
684.632	10.57
684.819	10.42
685.005	10.43
685.192	10.51
685.378	10.54
685.565	10.48
685.751	10.4
685.938	10.38
686.124	10.41
686.31	10.36
686.497	10.33
686.683	10.32
686.87	10.52
687.056	10.42
687.242	10.35
687.429	10.28
687.615	10.35
687.801	10.48
687.987	10.41
688.174	10.44
688.36	10.56
688.546	10.56
688.732	10.58
688.918	10.47
689.105	10.5
689.291	10.43
689.477	10.56
689.663	10.53
689.849	10.34
690.035	10.59
690.221	10.63
690.407	10.48
690.593	10.47
690.779	10.47
690.965	10.48
691.151	10.57
691.337	10.78
691.523	10.65
691.709	10.61
691.895	10.82
692.081	10.63
692.267	10.7
692.453	10.72
692.639	10.78
692.825	10.85
693.011	10.87
693.196	10.81
693.382	10.68
693.568	10.67
693.754	10.76
693.94	10.62
694.125	10.7
694.311	10.65
694.497	10.69
694.682	10.72
694.868	10.71
695.054	10.61
695.239	10.64
695.425	10.57
695.611	10.63
695.796	10.57
695.982	10.68
696.168	10.58
696.353	10.62
696.539	10.64
696.724	10.53
696.91	10.46
697.095	10.39
697.281	10.34
697.466	10.35
697.652	10.28
697.837	10.38
698.023	10.31
698.208	10.38
698.393	10.33
698.579	10.31
698.764	10.37
698.949	10.39
699.135	10.42
699.32	10.51
699.505	10.52
699.691	10.53
699.876	10.39
700.061	10.41
700.246	10.41
700.432	10.37
700.617	10.4
700.802	10.43
700.987	10.36
701.172	10.46
701.358	10.29
701.543	10.38
701.728	10.45
701.913	10.65
702.098	10.77
702.283	10.83
702.468	10.83
702.653	10.74
702.838	10.85
703.023	10.98
703.208	11.08
703.393	11.06
703.578	11
703.763	11.06
703.948	10.87
704.133	10.83
704.318	10.64
704.503	10.88
704.688	10.9
704.873	10.73
705.057	10.74
705.242	10.72
705.427	10.94
705.612	10.89
705.797	10.93
705.981	11.05
706.166	11.1
706.351	11.31
706.536	11.28
706.72	11.25
706.905	11.28
707.09	11.35
707.274	11.35
707.459	11.07
707.644	11.15
707.828	11.02
708.013	10.86
708.197	10.76
708.382	10.7
708.567	10.63
708.751	10.73
708.936	10.64
709.12	10.65
709.305	10.62
709.489	10.87
709.673	10.76
709.858	10.7
710.042	10.79
710.227	10.75
710.411	10.59
710.596	10.66
710.78	10.49
710.964	10.55
711.149	10.55
711.333	10.66
711.517	10.66
711.702	10.74
711.886	10.82
712.07	10.65
712.254	10.67
712.438	10.87
712.623	10.83
712.807	11.01
712.991	11.17
713.175	11.12
713.359	11.04
713.544	11.08
713.728	11.13
713.912	11.1
714.096	11.38
714.28	11.22
714.464	11.11
714.648	11.15
714.832	11.06
715.016	11.02
715.2	10.91
715.384	10.84
715.568	10.89
715.752	10.91
715.936	10.94
716.12	10.89
716.304	11.07
716.488	11.15
716.671	11.07
716.855	11.15
717.039	11.21
717.223	11.15
717.407	11.21
717.59	11.03
717.774	10.92
717.958	11.03
718.142	10.96
718.325	11.04
718.509	11.07
718.693	10.97
718.877	10.94
719.06	10.75
719.244	10.5
719.428	10.62
719.611	10.75
719.795	10.87
719.978	10.95
720.162	10.95
720.345	10.68
720.529	10.54
720.713	10.69
720.896	10.78
721.08	10.85
721.263	11.11
721.446	11.05
721.63	10.88
721.813	10.75
721.997	10.71
722.18	10.74
722.364	10.98
722.547	11.21
722.73	11.03
722.914	10.94
723.097	10.82
723.28	11.08
723.464	10.93
723.647	11.02
723.83	11.14
724.013	10.86
724.197	10.82
724.38	10.85
724.563	10.68
724.746	10.75
724.929	10.76
725.112	10.84
725.296	10.64
725.479	10.71
725.662	10.58
725.845	10.61
726.028	10.57
726.211	10.72
726.394	10.77
726.577	10.76
726.76	10.73
726.943	10.68
727.126	10.53
727.309	10.64
727.492	10.7
727.675	10.91
727.858	10.74
728.041	10.91
728.224	10.8
728.407	10.69
728.589	10.71
728.772	10.9
728.955	11.04
729.138	11.18
729.321	11.22
729.503	11.28
729.686	11.21
729.869	11.21
730.052	11.17
730.234	11.09
730.417	10.98
730.6	10.98
730.782	10.9
730.965	10.88
731.148	10.87
731.33	10.73
731.513	10.59
731.695	10.55
731.878	10.64
732.061	10.72
732.243	10.79
732.426	10.81
732.608	10.86
732.791	10.81
732.973	10.63
733.156	10.86
733.338	10.98
733.52	10.9
733.703	10.93
733.885	10.96
734.068	10.81
734.25	10.83
734.432	10.91
734.615	10.95
734.797	10.87
734.979	11.03
735.162	10.78
735.344	10.62
735.526	10.7
735.708	10.64
735.891	10.61
736.073	10.92
736.255	11
736.437	11.05
736.619	10.87
736.802	10.98
736.984	10.99
737.166	11.08
737.348	11.08
737.53	11.08
737.712	11.26
737.894	11.24
738.076	10.99
738.258	10.75
738.44	10.7
738.622	10.66
738.804	10.66
738.986	10.79
739.168	10.68
739.35	11.04
739.532	11.16
739.714	10.78
739.896	11
740.078	11.09
740.259	11.41
740.441	11.53
740.623	11.83
740.805	11.81
740.987	11.64
741.168	11.57
741.35	11.38
741.532	11.44
741.714	11.81
741.895	11.69
742.077	11.76
742.259	11.8
742.44	11.75
742.622	11.69
742.804	11.73
742.985	11.84
743.167	11.97
743.348	11.73
743.53	11.71
743.711	11.56
743.893	11.44
744.075	11.15
744.256	10.71
744.438	10.85
744.619	10.73
744.8	10.59
744.982	10.61
745.163	10.74
745.345	10.79
745.526	10.9
745.707	11.02
745.889	10.97
746.07	11.2
746.252	11.53
746.433	11.42
746.614	11.43
746.795	11.8
746.977	12.02
747.158	11.91
747.339	11.94
747.52	11.61
747.702	11.74
747.883	11.66
748.064	11.64
748.245	11.86
748.426	12.02
748.607	11.98
748.788	11.59
748.97	11.16
749.151	11.37
749.332	11.31
749.513	11.7
749.694	11.36
749.875	11.82
750.056	11.72
750.237	11.4
750.418	11.06
750.599	10.79
750.78	10.88
750.96	10.92
751.141	10.89
751.322	11.22
751.503	11.03
751.684	11.08
751.865	11.02
752.046	11.39
752.226	11.41
752.407	11.58
752.588	11.99
752.769	12.2
752.949	12.17
753.13	11.93
753.311	11.95
753.492	11.75
753.672	12.02
753.853	11.62
754.034	11.56
754.214	11.54
754.395	11.29
754.575	11.45
754.756	11.21
754.937	10.96
755.117	11.18
755.298	11.16
755.478	11.23
755.659	11.22
755.839	11.52
756.02	11.39
756.2	11.18
756.381	11.02
756.561	10.82
756.741	10.9
756.922	11.14
757.102	10.92
757.283	10.65
757.463	10.89
757.643	10.75
757.823	10.59
758.004	10.72
758.184	11.27
758.364	11.93
758.545	11.87
758.725	11.81
758.905	11.91
759.085	11.96
759.265	11.98
759.446	11.65
759.626	11.91
759.806	11.94
759.986	11.69
760.166	11.43
760.346	11.13
760.526	11.03
760.706	11
760.886	10.93
761.066	10.97
761.246	10.97
761.426	11.1
761.606	10.72
761.786	10.81
761.966	11.1
762.146	11.09
762.326	11.17
762.506	11.21
762.686	11.34
762.866	11.2
763.046	11.33
763.225	11.55
763.405	11.54
763.585	11.9
763.765	11.8
763.945	11.65
764.124	11.67
764.304	11.74
764.484	11.92
764.664	12.04
764.843	12.49
765.023	12.14
765.203	12.01
765.382	11.99
765.562	11.69
765.741	12.08
765.921	12.04
766.101	12.07
766.28	12.02
766.46	11.98
766.639	11.88
766.819	11.35
766.998	11.73
767.178	11.8
767.357	12.13
767.537	12.17
767.716	11.94
767.896	11.92
768.075	11.73
768.254	11.82
768.434	11.83
768.613	11.53
768.792	12.1
768.972	12.37
769.151	12.39
769.33	12.04
769.51	12.26
769.689	12
769.868	12.24
770.047	12.63
770.226	12.8
770.406	12.62
770.585	12.78
770.764	12.59
770.943	12.09
771.122	12.11
771.301	12.19
771.48	12.34
771.66	12.63
771.839	12.5
772.018	12.27
772.197	11.98
772.376	11.96
772.555	12.05
772.734	12.04
772.913	12.52
773.092	12.4
773.271	12.37
773.449	11.95
773.628	11.95
773.807	11.89
773.986	11.66
774.165	11.52
774.344	11.9
774.523	11.74
774.701	11.42
774.88	10.92
775.059	11.45
775.238	11.59
775.417	11.33
775.595	11.04
775.774	11.63
775.953	12.04
776.131	11.91
776.31	11.64
776.489	12.08
776.667	12.62
776.846	13.21
777.025	12.56
777.203	12.53
777.382	12.94
777.56	12.95
777.739	12.54
777.917	12.61
778.096	12.87
778.274	12.7
778.453	12.72
778.631	12.19
778.81	11.75
778.988	12.01
779.166	12.32
779.345	11.92
779.523	11.77
779.702	11.81
779.88	11.71
780.058	11.84
780.237	12.28
780.415	12.44
780.593	12.73
780.771	12.94
780.95	12.73
781.128	12.84
781.306	13.26
781.484	13.68
781.662	13.77
781.841	13.49
782.019	13.21
782.197	12.97
782.375	12.77
782.553	12.98
782.731	13.34
782.909	13.69
783.087	13.07
783.265	13.34
783.443	13.42
783.621	13.08
783.799	13.26
783.977	13.36
784.155	13.05
784.333	12.78
784.511	12.56
784.689	12.51
784.867	12.83
785.045	12.83
785.223	12.44
785.4	11.9
785.578	11.93
785.756	12.16
785.934	12.17
786.112	12.74
786.289	12.81
786.467	12.5
786.645	12.18
786.823	11.44
787	11.61
787.178	11.77
787.356	12.36
787.533	12.37
787.711	12.34
787.889	12.37
788.066	12.25
788.244	12.36
788.421	12.89
788.599	12.97
788.776	13.05
788.954	13.24
789.131	13.18
789.309	12.74
789.486	12.59
789.664	12.94
789.841	12.62
790.019	12.38
790.196	12.4
790.373	12.1
790.551	11.48
790.728	12.17
790.906	12.28
791.083	12.25
791.26	12.29
791.437	12.74
791.615	12.22
791.792	12.67
791.969	12.91
792.146	12.61
792.324	13.14
792.501	13.48
792.678	13.04
792.855	12.57
793.032	12.41
793.209	13.18
793.387	12.91
793.564	12.68
793.741	12.53
793.918	12.55
794.095	12.72
794.272	12.49
794.449	12.49
794.626	12.74
794.803	12.49
794.98	12.6
795.157	12.3
795.334	12.67
795.511	12.7
795.688	12.42
795.864	12.75
796.041	13.19
796.218	12.88
796.395	13.18
796.572	13.16
796.749	13.2
796.925	13.55
797.102	13.77
797.279	13.95
797.456	14.31
797.632	14.26
797.809	13.93
797.986	13.27
798.162	13.77
798.339	13.57
798.516	13.15
798.692	13.76
798.869	13.64
799.046	13.13
799.222	13.42
799.399	13.28
799.575	14.22
799.752	13.83
799.928	14.3
800.105	14
800.281	14.3
800.458	14.91
800.634	14.75
800.811	14.81
800.987	14.72
801.163	13.85
801.34	13.53
801.516	12.89
801.692	13.45
801.869	13.32
802.045	13.79
802.221	13.12
802.398	12.38
802.574	12.74
802.75	12.49
802.926	12.85
803.103	12.25
803.279	13.07
803.455	13.47
803.631	13.53
803.807	12.8
803.983	12.56
804.16	13.82
804.336	13.54
804.512	13.59
804.688	14.23
804.864	14.73
805.04	15.8
805.216	15.03
805.392	14.4
805.568	14.78
805.744	16.5
805.92	16.45
806.096	15.61
806.272	16.23
806.448	16.16
806.623	15.52
806.799	15.26
806.975	14.86
807.151	15.69
807.327	15.06
807.503	15.1
807.678	14.18
807.854	14.14
808.03	14.5
808.206	14.69
808.381	14.14
808.557	14.03
808.733	13.76
808.908	13.79
809.084	12.99
809.26	13.57
809.435	13.25
809.611	13.46
809.787	12.98
809.962	12.25
810.138	11.52
810.313	11.6
810.489	11.17
810.664	11.21
810.84	11.34
811.015	11.73
811.191	11.74
811.366	11.6
811.542	11.7
811.717	12.19
811.892	12.61
812.068	13.69
812.243	14.15
812.419	14.41
812.594	14.92
812.769	14.49
812.944	14.16
813.12	14
813.295	14.32
813.47	13.93
813.645	13
813.821	12.9
813.996	12.37
814.171	12.59
814.346	13.2
814.521	13.22
814.697	13
814.872	13.83
815.047	14.19
815.222	13.66
815.397	13.96
815.572	15.23
815.747	16.1
815.922	15.69
816.097	15.2
816.272	14.78
816.447	14.26
816.622	15.19
816.797	15.05
816.972	14.92
817.147	15.25
817.322	14.69
817.496	14.12
817.671	14.03
817.846	14.26
818.021	13.76
818.196	13.43
818.371	13.57
818.545	13.41
818.72	12.98
818.895	13.4
819.069	13.37
819.244	13.48
819.419	13.6
819.594	13.43
819.768	12.8
819.943	12.95
820.117	13.04
820.292	12.82
820.467	12.84
820.641	12.84
820.816	12.7
820.99	12.61
821.165	12.51
821.339	12.35
821.514	12.1
821.688	12.21
821.863	12.05
822.037	12.05
822.212	12.08
822.386	11.82
822.56	11.8
822.735	11.72
822.909	11.67
823.084	11.57
823.258	11.67
823.432	11.83
823.606	11.79
823.781	11.85
823.955	11.89
824.129	11.77
824.303	11.99
824.478	12.01
824.652	12.03
824.826	11.79
825	12.12
825.174	11.91
825.348	11.71
825.523	11.92
825.697	11.94
825.871	11.93
826.045	12.14
826.219	12.26
826.393	12.2
826.567	12.31
826.741	12.69
826.915	12.8
827.089	12.88
827.263	13.06
827.437	13.02
827.611	13.11
827.784	13.1
827.958	12.82
828.132	12.94
828.306	13.18
828.48	13.25
828.654	13.2
828.827	12.93
829.001	12.94
829.175	12.84
829.349	12.95
829.522	13.31
829.696	13.39
829.87	13.62
830.044	13.27
830.217	12.8
830.391	12.94
830.565	13.25
830.738	13.29
830.912	13.39
831.085	13.54
831.259	13.59
831.432	13.26
831.606	13.1
831.779	13.42
831.953	13.5
832.126	13.66
832.3	13.4
832.473	12.83
832.647	12.6
832.82	12.83
832.994	12.51
833.167	12.56
833.34	12.41
833.514	12.13
833.687	11.75
833.86	11.73
834.034	11.56
834.207	11.59
834.38	11.26
834.553	11.59
834.727	11.12
834.9	11.44
835.073	11.4
835.246	11.72
835.419	12.18
835.593	13.05
835.766	13.47
835.939	13.53
836.112	13.51
836.285	14.1
836.458	13.88
836.631	14.38
836.804	14.38
836.977	14.19
837.15	14.57
837.323	14.65
837.496	13.77
837.669	13.61
837.842	13.9
838.015	14.31
838.188	14.27
838.361	14.41
838.533	14.69
838.706	14.33
838.879	14.73
839.052	14.3
839.225	14.28
839.398	14.03
839.57	13.1
839.743	12.68
839.916	13.22
840.088	13.45
840.261	14.35
840.434	14.14
840.607	14.41
840.779	14.01
840.952	13.67
841.124	13.55
841.297	14.55
841.47	14.79
841.642	14.98
841.815	13.21
841.987	13.32
842.16	12.11
842.332	11.73
842.505	11.65
842.677	12.9
842.85	13.47
843.022	14.7
843.194	13.62
843.367	14.87
843.539	16.46
843.712	19.24
843.884	20.37
844.056	20.91
844.229	20.63
844.401	21.2
844.573	21.52
844.745	21.32
844.918	20.02
845.09	20.65
845.262	19.5
845.434	18.74
845.606	18.02
845.779	18.32
845.951	19.85
846.123	22.68
846.295	22.53
846.467	21.74
846.639	23.04
846.811	22.94
846.983	23.9
847.155	23.24
847.327	22.84
847.499	21.36
847.671	19.55
847.843	17.41
848.015	14.81
848.187	14.82
848.359	12.46
848.531	11.05
848.703	12.19
848.875	12.19
849.047	13.07
849.218	14.51
849.39	15.48
849.562	17.61
849.734	16.95
849.905	18.53
850.077	18.38
850.249	21.21
850.421	21.3
850.592	20.4
850.764	20.69
850.936	21.13
851.107	20.96
851.279	21.2
851.451	19.29
851.622	19.28
851.794	18.81
851.965	20.19
852.137	19.07
852.308	17.69
852.48	20.04
852.651	18.62
852.823	18.7
852.994	19.63
853.166	18.99
853.337	19.62
853.509	18.88
853.68	19.43
853.851	19.63
854.023	19.99
854.194	22.37
854.365	20.01
854.537	19.63
854.708	19.37
854.879	17.47
855.05	16.99
855.222	15.64
855.393	15.88
855.564	14.77
855.735	10.5
855.906	11.18
856.078	10.73
856.249	14.31
856.42	14.83
856.591	16.85
856.762	16.53
856.933	18.41
857.104	19.66
857.275	20.42
857.446	20.97
857.617	22.21
857.788	22.3
857.959	23.33
858.13	23.06
858.301	21.71
858.472	20.55
858.643	20.44
858.814	19.75
858.985	19.32
859.155	18.2
859.326	19.2
859.497	23.79
859.668	20.79
859.839	19.71
860.009	19.36
860.18	18.36
860.351	19.85
860.522	21.76
860.692	20.81
860.863	19.98
861.034	23.03
861.204	21.19
861.375	18.3
861.546	22.9
861.716	23.01
861.887	19.56
862.057	22.03
862.228	20.02
862.398	18.13
862.569	21.93
862.739	23.9
862.91	24
863.08	23.77
863.251	21.54
863.421	17.92
863.592	20.1
863.762	21.7
863.932	22.35
864.103	22.46
864.273	21.05
864.443	18.43
864.614	19.42
864.784	18.24
864.954	19.36
865.125	22.6
865.295	24.59
865.465	20.95
865.635	19.85
865.805	19.1
865.976	17.23
866.146	17.93
866.316	17.57
866.486	16.3
866.656	16.64
866.826	16.03
866.996	13.73
867.166	12.18
867.336	14.61
867.506	18.57
867.676	18.75
867.846	18.34
868.016	20.24
868.186	18.21
868.356	19.03
868.526	17.32
868.696	15.37
868.866	17.24
869.036	14.03
869.206	14.49
869.376	12.06
869.545	11.56
869.715	14.14
869.885	12.76
870.055	12.97
870.224	12.05
870.394	11.96
870.564	16.35
870.734	15.08
870.903	18.33
871.073	15.95
871.243	17.22
871.412	17.57
871.582	19.35
871.751	21.45
871.921	22.07
872.091	20.03
872.26	20
872.43	17.73
872.599	17.87
872.769	17.56
872.938	18.01
873.108	17.99
873.277	16.87
873.446	18.69
873.616	15.5
873.785	17.26
873.955	20.2
874.124	21.24
874.293	21.04
874.463	21.66
874.632	22.09
874.801	21
874.971	19.26
875.14	22.72
875.309	19.64
875.478	22.6
875.647	24.21
875.817	23.29
875.986	20.32
876.155	21.6
876.324	19.52
876.493	20.72
876.662	23.54
876.831	23.35
877	21.83
877.17	23.1
877.339	23.9
877.508	22.21
877.677	23.22
877.846	25.43
878.015	25.75
878.184	27.58
878.352	26.43
878.521	24.79
878.69	24.74
878.859	23.78
879.028	22.63
879.197	20.48
879.366	19.05
879.534	18.7
879.703	18.07
879.872	17.49
880.041	17.53
880.21	17.01
880.378	16.76
880.547	17.14
880.716	17.06
880.884	16.01
881.053	15.99
881.222	15.53
881.39	15.07
881.559	14.83
881.727	14.36
881.896	13.56
882.065	13.14
882.233	13.12
882.402	12.53
882.57	12.04
882.739	12.45
882.907	12.43
883.076	12.79
883.244	12.77
883.412	13.42
883.581	13.93
883.749	14.57
883.918	15.47
884.086	16.6
884.254	17.05
884.423	18.02
884.591	19.12
884.759	19.57
884.927	20.4
885.096	19.68
885.264	19.57
885.432	18.79
885.6	17.2
885.769	16.05
885.937	15.81
886.105	15.94
886.273	15.63
886.441	14.34
886.609	14.51
886.777	13.62
886.945	15.08
887.113	15.26
887.281	16.56
887.449	19.21
887.617	18.79
887.785	16.82
887.953	18.22
888.121	17.46
888.289	16.87
888.457	17.39
888.625	17.87
888.793	19.85
888.961	16.24
889.129	14.34
889.296	14.39
889.464	16.37
889.632	15.69
889.8	12.83
889.967	13.59
890.135	13.96
