Data from JASIL_3152_Reflection_1.txt Node
Date: Thu Nov 12 21:26:21 EST 2015
User: Geneva
Spectrometer: USB4E03002
Autoset integration time: false
Trigger mode: 4
Integration Time (sec): 1.000000E-1
Scans to average: 10
Electric dark correction enabled: true
Nonlinearity correction enabled: false
Boxcar width: 5
Stray light correction enabled: false
XAxis mode: Wavelengths
Stop averaging: false
Number of Pixels in Spectrum: 3648
>>>>>Begin Spectral Data<<<<<
177.575	142.67
177.794	266.04
178.014	363.59
178.233	-92.34
178.452	-6339.13
178.672	1.6
178.891	-44.66
179.11	-91.44
179.33	-59.94
179.549	-86.27
179.768	23.44
179.987	138.89
180.207	-98.01
180.426	-34.84
180.645	-3.34
180.864	35.61
181.084	60.35
181.303	36.54
181.522	66.71
181.741	72.64
181.96	62.43
182.179	52.52
182.398	42.31
182.618	30.11
182.837	33.11
183.056	34.91
183.275	13.15
183.494	7.58
183.713	1.41
183.932	-13.83
184.151	-2.35
184.37	-28.87
184.589	19.87
184.808	13.31
185.027	49.2
185.246	25.34
185.465	27.29
185.684	49.5
185.903	48.95
186.122	24.29
186.341	6.76
186.56	26.3
186.779	93.78
186.998	84.58
187.216	120.17
187.435	164.45
187.654	228.22
187.873	286.82
188.092	195.38
188.311	184.13
188.53	208.86
188.748	240.74
188.967	283.33
189.186	101.14
189.405	64.05
189.623	105.42
189.842	61.21
190.061	31.3
190.28	28.42
190.498	-0.38
190.717	35.44
190.936	35.7
191.154	39.25
191.373	50.3
191.592	49.09
191.81	39.16
192.029	56.1
192.248	57.1
192.466	71.97
192.685	65.49
192.904	51.84
193.122	34.93
193.341	54.73
193.559	52.85
193.778	64.39
193.996	97.02
194.215	61.41
194.433	27.11
194.652	-2.4
194.87	-18.66
195.089	-5.49
195.307	-4.74
195.526	14.32
195.744	-4.44
195.963	3.43
196.181	-0.63
196.399	-3.64
196.618	9.88
196.836	23.89
197.055	36.21
197.273	35.39
197.491	53.34
197.71	27.45
197.928	33.37
198.146	1.06
198.365	70.34
198.583	-13.25
198.801	-155.06
199.019	-30.03
199.238	-2.02
199.456	-36.1
199.674	-27.07
199.892	-18.05
200.111	-1054.24
200.329	-1387.83
200.547	-43.64
200.765	-197.74
200.983	335.36
201.202	-50.77
201.42	-26.6
201.638	-88.17
201.856	-90.91
202.074	-15.05
202.292	-203.46
202.51	-145.4
202.728	-91.69
202.946	-41.64
203.165	-65.64
203.383	-37.23
203.601	-28.61
203.819	-7.17
204.037	22.3
204.255	18.12
204.473	23.01
204.691	75.79
204.909	173.59
205.127	155.65
205.345	102.16
205.562	117.21
205.78	131.8
205.998	162.81
206.216	167.7
206.434	165.81
206.652	135.31
206.87	206.39
207.088	89.21
207.306	46.01
207.523	94.14
207.741	93.57
207.959	87.35
208.177	67.98
208.395	75.89
208.612	125.59
208.83	-95.09
209.048	107.07
209.266	-9528.57
209.483	153.85
209.701	188.23
209.919	-2363.96
210.136	260.24
210.354	272.16
210.572	-7107.41
210.79	-4109.09
211.007	1321.84
211.225	-135.19
211.442	-121.28
211.66	-91.16
211.878	-146.39
212.095	92.12
212.313	86.72
212.53	78.2
212.748	99.68
212.966	114.66
213.183	116.42
213.401	118.02
213.618	128.06
213.836	133.78
214.053	132.2
214.271	137.7
214.488	119.27
214.705	156.41
214.923	121.03
215.14	95.15
215.358	74.33
215.575	78.79
215.793	101.03
216.01	94.65
216.227	63.05
216.445	-4.97
216.662	60.56
216.879	73.07
217.097	58.78
217.314	273.96
217.531	786.4
217.749	425.24
217.966	111.71
218.183	86.2
218.4	71.57
218.618	147.14
218.835	143.94
219.052	114.03
219.269	257.33
219.487	135.17
219.704	9.72
219.921	9.53
220.138	12.67
220.355	36.62
220.572	39.43
220.79	-41
221.007	-6.46
221.224	24.36
221.441	19.74
221.658	-16.07
221.875	-43.21
222.092	28.5
222.309	-150.94
222.526	-7.6
222.743	29.74
222.96	38.82
223.177	117.58
223.394	135.39
223.611	280.34
223.828	248.09
224.045	1671.75
224.262	-203.05
224.479	-6.51
224.696	-45.23
224.913	20.9
225.13	73.4
225.347	171.3
225.564	135.53
225.781	150.11
225.997	139.16
226.214	71.44
226.431	71.72
226.648	69.98
226.865	9.85
227.082	-53.6
227.298	-18.44
227.515	-5.02
227.732	-10.68
227.949	-25.64
228.165	-19.62
228.382	-23.67
228.599	-18.66
228.816	-31.43
229.032	-23.18
229.249	-17.61
229.466	4.05
229.682	-13.38
229.899	-14.68
230.116	-18.19
230.332	-10.38
230.549	-29.28
230.765	17.18
230.982	14.01
231.199	27.93
231.415	43.23
231.632	48.33
231.848	39.31
232.065	55.16
232.281	53.44
232.498	59.53
232.714	54.35
232.931	60.06
233.147	29.21
233.364	34.77
233.58	28.28
233.797	-5.07
234.013	-20.51
234.23	-17.06
234.446	-45.06
234.662	-63.59
234.879	-68.39
235.095	-53.68
235.312	-99.57
235.528	-10.52
235.744	-24.13
235.961	-69.61
236.177	-67.09
236.393	-92.35
236.61	-90.05
236.826	-51.83
237.042	-47.93
237.258	-65.92
237.475	-99.52
237.691	-61.39
237.907	-145.01
238.123	-110.55
238.339	-49.97
238.556	-30.98
238.772	-23.64
238.988	24.11
239.204	25.96
239.42	27.07
239.636	24.04
239.853	29.39
240.069	23.24
240.285	13.27
240.501	14.45
240.717	24.35
240.933	27.7
241.149	27.29
241.365	16.19
241.581	12.26
241.797	5.27
242.013	7.71
242.229	2.38
242.445	3.67
242.661	2.94
242.877	5.74
243.093	-0.26
243.309	-6.18
243.525	-7.05
243.741	-2.72
243.957	7.13
244.173	12.97
244.388	4.81
244.604	10.82
244.82	10.42
245.036	15.05
245.252	12.33
245.468	14.7
245.683	14.11
245.899	13.77
246.115	11.15
246.331	7.98
246.547	6.79
246.762	7.21
246.978	5.84
247.194	5.03
247.409	5.06
247.625	2.99
247.841	-3.78
248.057	-2.85
248.272	-5.59
248.488	-5.45
248.703	-7.68
248.919	-6.39
249.135	-2.1
249.35	0.11
249.566	4.15
249.782	-4.04
249.997	0.21
250.213	4.2
250.428	-0.55
250.644	-6.17
250.859	-10.92
251.075	-12.07
251.29	-13.61
251.506	-18.98
251.721	-16.03
251.937	-18.45
252.152	-13.11
252.368	-19.12
252.583	-20.74
252.798	-20.74
253.014	-20.41
253.229	-20.34
253.445	-17.47
253.66	-12.58
253.875	-15.34
254.091	-34.13
254.306	-26.7
254.521	-25.38
254.737	-15.26
254.952	-11.02
255.167	-17.34
255.383	-2.08
255.598	-4.46
255.813	-5.3
256.028	-7.79
256.244	-2.46
256.459	6.34
256.674	3.07
256.889	1.24
257.104	5.95
257.32	8.43
257.535	9.8
257.75	2.28
257.965	5.71
258.18	7.63
258.395	7.34
258.61	7.36
258.826	7.6
259.041	5.86
259.256	4.31
259.471	1.59
259.686	-0.92
259.901	-0.18
260.116	3.13
260.331	3.4
260.546	2.28
260.761	1.71
260.976	3.13
261.191	4.86
261.406	6.59
261.621	5.25
261.836	5.47
262.05	7.77
262.265	6.84
262.48	6.88
262.695	2.93
262.91	4.36
263.125	7.18
263.34	1.44
263.555	-3.44
263.769	-5.27
263.984	1.44
264.199	-1.02
264.414	-0.2
264.629	2.31
264.843	2.89
265.058	2.36
265.273	1.74
265.488	-5.78
265.702	0.98
265.917	1.28
266.132	-3.41
266.346	-2.06
266.561	-3.88
266.776	-4.83
266.99	-6.29
267.205	-5.17
267.42	-4.31
267.634	-4.92
267.849	0.41
268.063	-5.95
268.278	-2.61
268.492	-0.26
268.707	-1.9
268.922	3.05
269.136	7.36
269.351	10.59
269.565	10.62
269.78	11.49
269.994	11.94
270.209	10.7
270.423	14.57
270.637	13.45
270.852	13.82
271.066	16.34
271.281	13.21
271.495	7.2
271.709	2.83
271.924	0.09
272.138	-1.42
272.353	-5.73
272.567	-4.17
272.781	-6.88
272.996	-3.64
273.21	-1.37
273.424	-2.73
273.638	-0.52
273.853	1.69
274.067	3.93
274.281	4.41
274.495	6.6
274.71	11.91
274.924	9.46
275.138	9.06
275.352	2.85
275.566	-0.47
275.781	-3.93
275.995	-1.93
276.209	-6.16
276.423	-9.16
276.637	-8.09
276.851	-6.88
277.065	-15.8
277.279	-16.62
277.493	-11.81
277.707	-7.92
277.921	-4.93
278.135	-5.13
278.349	-0.47
278.563	4.04
278.777	5.77
278.991	3.8
279.205	1.95
279.419	7.79
279.633	6.8
279.847	3.51
280.061	3.45
280.275	2.4
280.489	1.79
280.703	-7.33
280.917	-5.2
281.131	-5.42
281.344	-6.5
281.558	-6.9
281.772	-7
281.986	-6.62
282.2	-5.48
282.414	-5.34
282.627	-3.93
282.841	-2.29
283.055	3.15
283.269	2.36
283.482	1.56
283.696	2.91
283.91	3.49
284.123	0.07
284.337	1.26
284.551	-0.57
284.764	0.98
284.978	1.58
285.192	3.53
285.405	2.69
285.619	3.97
285.833	7.24
286.046	9.16
286.26	10.04
286.473	11.59
286.687	14.33
286.9	17.15
287.114	17.34
287.327	16.71
287.541	14.95
287.754	14.48
287.968	12.69
288.181	9.25
288.395	6.95
288.608	7.8
288.822	9.08
289.035	4.29
289.248	1.26
289.462	-0.14
289.675	0.19
289.889	1.38
290.102	2.96
290.315	3.2
290.529	5.14
290.742	4.95
290.955	2.66
291.169	2.79
291.382	4.1
291.595	5.71
291.808	7.42
292.022	5.8
292.235	4.42
292.448	2.57
292.661	1.6
292.875	-0.43
293.088	2.02
293.301	1.97
293.514	1.97
293.727	2.44
293.94	-1.28
294.153	-2.04
294.367	-0.7
294.58	-0.01
294.793	0.67
295.006	0.1
295.219	1.35
295.432	1.51
295.645	1.43
295.858	1.46
296.071	-0.19
296.284	3.18
296.497	4.56
296.71	4.06
296.923	3.79
297.136	3.55
297.349	4.18
297.562	5.67
297.775	4.54
297.988	4.68
298.201	3.91
298.414	6.97
298.626	7.68
298.839	4.13
299.052	6.04
299.265	4.08
299.478	4.41
299.691	3.2
299.903	2.92
300.116	4.28
300.329	7.19
300.542	9.3
300.755	7.29
300.967	6.36
301.18	6.62
301.393	5.78
301.605	11.47
301.818	10.32
302.031	10.83
302.243	9.35
302.456	9.12
302.669	8.09
302.881	4.34
303.094	3.47
303.307	3.37
303.519	5.58
303.732	5.19
303.944	1.23
304.157	0.48
304.37	1.73
304.582	2.49
304.795	-0.55
305.007	-1.92
305.22	2.17
305.432	1.28
305.645	0.15
305.857	0.06
306.069	0.47
306.282	3.78
306.494	8.37
306.707	9.7
306.919	8.19
307.132	7.48
307.344	5.61
307.556	3.88
307.769	4.45
307.981	5.36
308.193	6.13
308.406	5.11
308.618	3.54
308.83	0.95
309.043	1.47
309.255	2.2
309.467	1.47
309.679	2.99
309.892	2.91
310.104	3.6
310.316	2.52
310.528	1.54
310.74	3.82
310.953	3.81
311.165	2.39
311.377	1.89
311.589	1.27
311.801	2.49
312.013	1.87
312.225	3.87
312.437	1.29
312.649	1.07
312.862	1.34
313.074	-1.19
313.286	-1.06
313.498	1.19
313.71	-2.2
313.922	-1.91
314.134	-2.58
314.346	-2.55
314.558	-5.49
314.77	-1.04
314.982	1.6
315.193	1.33
315.405	-1.99
315.617	-4.11
315.829	-5.61
316.041	-0.1
316.253	2.15
316.465	5.14
316.677	6.17
316.888	4.89
317.1	7.42
317.312	4.97
317.524	3.94
317.736	4.82
317.947	4.15
318.159	5.03
318.371	4.83
318.583	4.81
318.794	4
319.006	3.19
319.218	5.91
319.43	2.68
319.641	2.66
319.853	3.71
320.064	6.24
320.276	8.45
320.488	8.92
320.699	6.33
320.911	5.21
321.123	1.94
321.334	1.29
321.546	-2.1
321.757	-0.41
321.969	2.11
322.18	1.39
322.392	1.01
322.603	-2.41
322.815	-3.87
323.026	-1.54
323.238	0
323.449	4.42
323.661	5.9
323.872	5.99
324.083	4.34
324.295	4.71
324.506	4.5
324.718	4.73
324.929	7.64
325.14	9.48
325.352	5.91
325.563	4.08
325.774	4.34
325.986	2.93
326.197	4
326.408	5.7
326.62	4.72
326.831	5
327.042	5.3
327.253	3.96
327.464	1.44
327.676	3.5
327.887	3.42
328.098	2.87
328.309	5.31
328.52	5.56
328.732	4.77
328.943	3.97
329.154	6.26
329.365	3.93
329.576	3.84
329.787	7.03
329.998	8.64
330.209	11.03
330.42	13.09
330.631	12.31
330.842	12.22
331.053	13.04
331.264	14.63
331.475	12.6
331.686	13.58
331.897	15.89
332.108	15.03
332.319	14.02
332.53	9.35
332.741	6.97
332.952	7.23
333.163	7.15
333.374	5.95
333.585	3.83
333.795	3.04
334.006	4.65
334.217	4.67
334.428	7.02
334.639	5.03
334.849	5.29
335.06	6.05
335.271	3.95
335.482	5.44
335.692	7.4
335.903	8.25
336.114	8.77
336.325	9.44
336.535	11.38
336.746	7.78
336.957	7.47
337.167	9.77
337.378	5.91
337.589	8.55
337.799	8.01
338.01	7.92
338.22	10.06
338.431	10.64
338.642	8.17
338.852	6.09
339.063	5.24
339.273	7.64
339.484	9.12
339.694	12.48
339.905	9.57
340.115	8.01
340.326	7.31
340.536	5.71
340.746	4.52
340.957	4.48
341.167	3.24
341.378	3.16
341.588	2.97
341.799	-0.11
342.009	-0.65
342.219	2.5
342.43	5.03
342.64	5.24
342.85	4.15
343.061	4.36
343.271	4.84
343.481	6.28
343.691	5.62
343.902	5.37
344.112	5.41
344.322	6.01
344.532	2.47
344.743	3.13
344.953	3.97
345.163	4.64
345.373	5.61
345.583	6.14
345.793	5.38
346.004	6.76
346.214	6.9
346.424	8.98
346.634	10.71
346.844	13.74
347.054	14.31
347.264	13.19
347.474	13.86
347.684	13.19
347.894	12.75
348.104	11.86
348.314	12.37
348.524	12.63
348.734	13.81
348.944	14.51
349.154	14.1
349.364	12.53
349.574	13.19
349.784	13.21
349.994	14.84
350.204	15.61
350.413	15.19
350.623	14.09
350.833	15.62
351.043	14.92
351.253	13.01
351.463	11.68
351.672	10.84
351.882	9.61
352.092	7.9
352.302	4.96
352.511	3.53
352.721	4.02
352.931	6.38
353.141	4.56
353.35	3.44
353.56	1.21
353.77	0.85
353.979	-0.16
354.189	-1.64
354.399	-0.67
354.608	-1.29
354.818	-0.74
355.027	0.15
355.237	-0.55
355.447	-1.46
355.656	-1.77
355.866	-0.86
356.075	0.82
356.285	2.08
356.494	3.42
356.704	3.87
356.913	5.77
357.123	5.38
357.332	5.49
357.542	5.61
357.751	6.55
357.96	6.39
358.17	7.3
358.379	7.77
358.589	6.72
358.798	6.54
359.007	6.21
359.217	6.21
359.426	6.26
359.635	5.59
359.845	5.67
360.054	5.32
360.263	5.51
360.472	6.03
360.682	5.69
360.891	7.22
361.1	8.71
361.309	10.82
361.519	11.75
361.728	11.5
361.937	11.45
362.146	10.99
362.355	12.29
362.564	12.78
362.774	12.02
362.983	11.47
363.192	10.55
363.401	7.53
363.61	4.2
363.819	2.3
364.028	3.07
364.237	3.29
364.446	3.51
364.655	1.93
364.864	1.42
365.073	2.85
365.282	3.15
365.491	3.37
365.7	4.55
365.909	5.78
366.118	7.45
366.327	8.11
366.536	8.77
366.745	8.98
366.954	9.24
367.162	9.43
367.371	9.21
367.58	9.38
367.789	9.86
367.998	10.91
368.207	9.61
368.415	7.7
368.624	7.69
368.833	6.51
369.042	5.93
369.25	7.71
369.459	8.08
369.668	6
369.877	5.68
370.085	5.79
370.294	4.98
370.503	6.4
370.711	6.86
370.92	6.56
371.129	7.1
371.337	7.58
371.546	6.25
371.754	6.87
371.963	7.14
372.171	8.36
372.38	7.95
372.589	7.92
372.797	7.41
373.006	6.88
373.214	5.58
373.423	6.96
373.631	7.69
373.84	9.03
374.048	7.9
374.256	8.83
374.465	7.69
374.673	7.31
374.882	7.61
375.09	7.04
375.298	8.13
375.507	9.84
375.715	8.08
375.923	7.9
376.132	5.91
376.34	7.18
376.548	6.57
376.757	6.32
376.965	6.81
377.173	7.49
377.381	7.93
377.59	7.02
377.798	5.79
378.006	6.31
378.214	5.29
378.423	5.98
378.631	5.47
378.839	5.17
379.047	6.07
379.255	6.1
379.463	6.9
379.671	5.49
379.879	6.56
380.088	7.97
380.296	8.7
380.504	8.9
380.712	9.33
380.92	8.35
381.128	9.28
381.336	8.38
381.544	8.35
381.752	6.32
381.96	8.13
382.168	8.34
382.376	6.39
382.584	5.04
382.791	4.86
382.999	4.05
383.207	3.85
383.415	4.56
383.623	4.17
383.831	4.31
384.039	3.96
384.247	3.83
384.454	4.1
384.662	5.41
384.87	7.48
385.078	7.27
385.285	7.71
385.493	8.41
385.701	8.39
385.909	9.37
386.116	8.92
386.324	9.54
386.532	9.91
386.739	8.89
386.947	8.03
387.155	5.58
387.362	6.15
387.57	6.4
387.778	5.72
387.985	5.01
388.193	4.47
388.4	4.56
388.608	4.4
388.816	3.04
389.023	3.71
389.231	3.87
389.438	3.98
389.646	3.34
389.853	2.77
390.061	3.05
390.268	2.76
390.475	3.64
390.683	3.68
390.89	3.77
391.098	4.79
391.305	4.2
391.512	4.97
391.72	5.55
391.927	6.71
392.135	6.44
392.342	6.8
392.549	7.33
392.756	7.4
392.964	7.79
393.171	7.24
393.378	6.18
393.586	6.57
393.793	6.07
394	6.92
394.207	6.97
394.414	7.55
394.622	6.56
394.829	5.55
395.036	4.16
395.243	2.93
395.45	4.51
395.657	4.7
395.864	4.21
396.072	3.92
396.279	3.71
396.486	2
396.693	1.24
396.9	2.12
397.107	2.98
397.314	3.57
397.521	4.81
397.728	3.34
397.935	3.03
398.142	2.62
398.349	2.94
398.556	2.59
398.763	4.95
398.97	5.11
399.177	5.85
399.383	5.09
399.59	6.57
399.797	6.73
400.004	7.93
400.211	7.86
400.418	8.27
400.625	8.08
400.831	8.53
401.038	6.63
401.245	5.76
401.452	4.65
401.658	4.8
401.865	3.4
402.072	2.69
402.279	1.47
402.485	1.48
402.692	0.95
402.899	0.86
403.105	1.01
403.312	1.19
403.519	1.73
403.725	1.61
403.932	1.44
404.138	1.01
404.345	1.42
404.552	1.63
404.758	1.67
404.965	1.95
405.171	1.84
405.378	0.83
405.584	0.92
405.791	1.73
405.997	1.81
406.204	1.77
406.41	1.92
406.617	2
406.823	1.65
407.029	2.25
407.236	1.69
407.442	1.67
407.649	1.36
407.855	1.03
408.061	-0.23
408.268	1.06
408.474	2.47
408.68	2.43
408.887	2.49
409.093	3.29
409.299	2.09
409.505	2.71
409.712	3.02
409.918	3.53
410.124	3.39
410.33	3.88
410.537	2.89
410.743	1.81
410.949	2.63
411.155	2.33
411.361	2.3
411.567	3.82
411.773	4.26
411.98	4.59
412.186	4.82
412.392	5.14
412.598	5.19
412.804	5.02
413.01	5.14
413.216	5.33
413.422	5.6
413.628	6.21
413.834	5.41
414.04	5.22
414.246	5.49
414.452	5.61
414.658	5.43
414.864	4.81
415.07	6.12
415.275	5.82
415.481	5.74
415.687	5.15
415.893	4.19
416.099	4.52
416.305	4.4
416.511	4.56
416.716	4.51
416.922	4.77
417.128	4.97
417.334	4.4
417.539	4.46
417.745	4.19
417.951	4.27
418.157	4.83
418.362	4.59
418.568	4.41
418.774	3.93
418.979	3.73
419.185	3.4
419.391	3.66
419.596	3.38
419.802	3.66
420.008	3.48
420.213	3.63
420.419	3.2
420.624	3.52
420.83	3.99
421.035	4.11
421.241	4.51
421.446	4.65
421.652	4.85
421.857	4.78
422.063	4.35
422.268	4.61
422.474	4.09
422.679	4.64
422.885	4.41
423.09	4.22
423.295	4.42
423.501	3.82
423.706	3.87
423.911	3.67
424.117	3.92
424.322	3.85
424.527	3.82
424.733	4.06
424.938	3.32
425.143	2.98
425.349	2.89
425.554	2.66
425.759	3.34
425.964	3.51
426.169	4.1
426.375	3.96
426.58	5.21
426.785	4.87
426.99	4.83
427.195	5.14
427.4	5.54
427.605	5.59
427.811	6.02
428.016	5.44
428.221	5.17
428.426	4.53
428.631	4.2
428.836	2.88
429.041	3.24
429.246	3.08
429.451	3.26
429.656	3.62
429.861	3.94
430.066	3.88
430.271	4.11
430.476	4.38
430.681	4.8
430.886	4.98
431.09	4.95
431.295	5.35
431.5	5.19
431.705	5.42
431.91	5.32
432.115	5.55
432.32	5.03
432.524	4.91
432.729	4.21
432.934	3.61
433.139	3.71
433.343	3.82
433.548	2.99
433.753	2.94
433.958	3.12
434.162	3.06
434.367	2.91
434.572	2.68
434.776	2.45
434.981	2.81
435.186	2.94
435.39	2.63
435.595	2.4
435.799	2.74
436.004	3.15
436.209	2.97
436.413	2.65
436.618	1.81
436.822	2.15
437.027	2.18
437.231	2.56
437.436	2.45
437.64	2.77
437.845	3.28
438.049	3.35
438.253	3.47
438.458	3.28
438.662	3.68
438.867	4.12
439.071	3.92
439.275	3.75
439.48	3.48
439.684	3.52
439.888	3.28
440.093	2.69
440.297	2.66
440.501	2.79
440.706	2.44
440.91	2.09
441.114	1.92
441.318	1.77
441.523	1.84
441.727	2.17
441.931	2.64
442.135	3.16
442.339	3.41
442.543	3.63
442.748	3.39
442.952	4.34
443.156	4.63
443.36	4.53
443.564	4.86
443.768	4.86
443.972	3.7
444.176	3.55
444.38	3.12
444.584	3.07
444.788	3.26
444.992	3.29
445.196	2.93
445.4	2.98
445.604	3.12
445.808	2.85
446.012	3.35
446.216	3.99
446.42	3.75
446.624	3.87
446.828	3.98
447.032	3.78
447.235	3.95
447.439	4.09
447.643	4.11
447.847	3.55
448.051	3.68
448.254	3.4
448.458	3.7
448.662	3.86
448.866	3.69
449.069	3.49
449.273	3.62
449.477	3
449.681	2.16
449.884	1.52
450.088	2.09
450.292	2.53
450.495	2.6
450.699	2.48
450.902	2.82
451.106	3.61
451.31	4.19
451.513	3.75
451.717	4.4
451.92	5.16
452.124	5.55
452.327	5.87
452.531	5.11
452.734	5.26
452.938	5.14
453.141	4.93
453.345	4.78
453.548	4.96
453.752	4.55
453.955	3.96
454.158	4.44
454.362	3.73
454.565	3.66
454.769	4.04
454.972	3.52
455.175	3.59
455.379	3.5
455.582	3.11
455.785	2.57
455.988	3.15
456.192	3.51
456.395	3.05
456.598	3.8
456.801	3.83
457.005	3.73
457.208	4.25
457.411	3.65
457.614	3.83
457.817	3.64
458.021	3.69
458.224	3.42
458.427	3.96
458.63	3.77
458.833	3.63
459.036	3.32
459.239	3.51
459.442	3.17
459.645	3.46
459.848	3.24
460.051	3.14
460.254	3.5
460.457	3.44
460.66	2.78
460.863	2.99
461.066	2.84
461.269	2.96
461.472	2.57
461.675	3.01
461.878	3.11
462.081	3.56
462.284	3.66
462.486	3.16
462.689	3.36
462.892	3.58
463.095	3.48
463.298	3.47
463.5	3.27
463.703	3.5
463.906	2.77
464.109	2.49
464.311	1.98
464.514	1.97
464.717	2.19
464.92	2.57
465.122	2.47
465.325	2.61
465.528	3.37
465.73	3.56
465.933	4.14
466.135	3.95
466.338	4.11
466.541	4.49
466.743	4.8
466.946	4.75
467.148	4.83
467.351	5.12
467.553	4.34
467.756	3.7
467.958	3.88
468.161	3.69
468.363	3.91
468.566	3.49
468.768	3.24
468.971	3.38
469.173	3.55
469.375	3.56
469.578	2.93
469.78	3.13
469.983	2.99
470.185	2.76
470.387	2.28
470.59	2.8
470.792	3.25
470.994	3
471.196	2.31
471.399	1.75
471.601	1.21
471.803	1.75
472.005	1.68
472.208	2
472.41	2.23
472.612	2.25
472.814	1.58
473.016	1.41
473.218	1.93
473.421	2.66
473.623	3.07
473.825	3.74
474.027	3.97
474.229	4.49
474.431	4.23
474.633	4.38
474.835	4.37
475.037	4.74
475.239	4.71
475.441	4.7
475.643	3.56
475.845	3.43
476.047	3.41
476.249	3
476.451	3.31
476.653	3.75
476.855	3.59
477.057	4.11
477.258	4.28
477.46	4.4
477.662	4.54
477.864	5.4
478.066	5.45
478.268	5.17
478.469	5.21
478.671	5.06
478.873	4.77
479.075	4.74
479.276	4.73
479.478	4.91
479.68	4.51
479.882	3.96
480.083	4.04
480.285	4.12
480.487	3.99
480.688	3.85
480.89	3.59
481.091	3.59
481.293	3.67
481.495	3.51
481.696	3.17
481.898	3.7
482.099	3.84
482.301	3.74
482.502	3.82
482.704	3.9
482.905	3.98
483.107	4.16
483.308	4.18
483.51	4.05
483.711	4.01
483.913	4.09
484.114	4.06
484.315	4.08
484.517	4.16
484.718	4.21
484.92	4.28
485.121	4.2
485.322	4
485.524	4.3
485.725	4.12
485.926	4.1
486.127	4.04
486.329	3.88
486.53	3.8
486.731	3.63
486.932	3.55
487.134	3.55
487.335	3.88
487.536	3.97
487.737	3.84
487.938	4.06
488.139	3.9
488.341	4.04
488.542	3.83
488.743	3.79
488.944	3.89
489.145	3.8
489.346	3.54
489.547	3.37
489.748	3.34
489.949	3.3
490.15	3.5
490.351	3.83
490.552	3.93
490.753	4.27
490.954	4.22
491.155	4.36
491.356	4.38
491.557	4.6
491.758	4.44
491.959	4.51
492.159	4.4
492.36	4.09
492.561	3.94
492.762	3.57
492.963	3.45
493.164	3.53
493.364	3.17
493.565	2.95
493.766	2.9
493.967	3.16
494.167	3.09
494.368	3.21
494.569	3.51
494.769	3.32
494.97	3.5
495.171	3.57
495.371	3.4
495.572	3.44
495.773	3.37
495.973	3.19
496.174	2.7
496.375	2.88
496.575	3.22
496.776	3.43
496.976	3.84
497.177	4.36
497.377	4.03
497.578	4.16
497.778	4.16
497.979	4.18
498.179	4.54
498.38	4.82
498.58	4.38
498.78	4.24
498.981	4.23
499.181	4.35
499.382	3.82
499.582	4.01
499.782	4.01
499.983	3.92
500.183	4.45
500.383	4.45
500.584	4.53
500.784	4.66
500.984	4.51
501.184	4.44
501.385	3.88
501.585	4.1
501.785	4.5
501.985	4.8
502.185	4.85
502.386	4.83
502.586	4.54
502.786	4.94
502.986	4.75
503.186	4.57
503.386	4.02
503.586	4.32
503.786	4.17
503.987	3.54
504.187	3.41
504.387	4.17
504.587	3.97
504.787	4.15
504.987	3.82
505.187	4.08
505.387	4.24
505.587	4.45
505.786	4.7
505.986	4.49
506.186	4.99
506.386	5
506.586	4.48
506.786	4.93
506.986	5.14
507.186	5.21
507.386	4.75
507.585	4.78
507.785	5.53
507.985	5.66
508.185	5.72
508.384	5.33
508.584	5.13
508.784	5.2
508.984	4.76
509.183	4.24
509.383	4.6
509.583	5.1
509.782	5.5
509.982	5.25
510.182	5.26
510.381	5.5
510.581	5.5
510.781	5.77
510.98	6.16
511.18	6.26
511.379	6.86
511.579	6.52
511.778	6.73
511.978	6.4
512.177	6.61
512.377	5.95
512.576	6.14
512.776	6.32
512.975	6.32
513.175	6.07
513.374	6.4
513.573	6.28
513.773	6.22
513.972	6.44
514.172	6.54
514.371	6.42
514.57	7.08
514.77	6.75
514.969	7.37
515.168	7.58
515.367	7.84
515.567	7.81
515.766	7.69
515.965	7.95
516.164	7.73
516.364	7.67
516.563	7.5
516.762	7.86
516.961	8.35
517.16	8.18
517.359	8.38
517.559	8.24
517.758	8.12
517.957	8.43
518.156	8.54
518.355	8.9
518.554	9.18
518.753	9.27
518.952	8.97
519.151	9.05
519.35	9.09
519.549	9.01
519.748	9.59
519.947	9.72
520.146	9.84
520.345	9.45
520.544	9.4
520.743	9.38
520.942	9.45
521.141	9.5
521.339	9.43
521.538	9.23
521.737	8.99
521.936	8.53
522.135	9.06
522.333	8.95
522.532	9.57
522.731	10.09
522.93	10.05
523.129	10.05
523.327	10.52
523.526	10.63
523.725	11.39
523.923	11.69
524.122	11.54
524.321	11.26
524.519	11.49
524.718	11.41
524.917	10.74
525.115	10.78
525.314	11
525.512	10.81
525.711	10.68
525.909	10.58
526.108	10.45
526.306	10.62
526.505	10.87
526.703	10.84
526.902	10.92
527.1	11.14
527.299	11.2
527.497	11.2
527.696	11.38
527.894	11.55
528.092	11.57
528.291	11.79
528.489	11.82
528.688	11.83
528.886	11.84
529.084	11.92
529.283	12.07
529.481	12.15
529.679	12.3
529.877	12.28
530.076	12.19
530.274	12.33
530.472	12.27
530.67	12.32
530.869	12.18
531.067	12.5
531.265	12.35
531.463	12.08
531.661	12.24
531.859	12.22
532.057	12.42
532.255	12.6
532.454	12.71
532.652	12.84
532.85	12.95
533.048	13.16
533.246	12.99
533.444	13.06
533.642	13.46
533.84	13.62
534.038	13.47
534.236	13.47
534.434	13.59
534.632	13.74
534.83	13.85
535.027	14.05
535.225	14.18
535.423	14.15
535.621	14.47
535.819	14.32
536.017	14.13
536.215	14.27
536.412	14.17
536.61	13.88
536.808	13.97
537.006	14.13
537.203	14.23
537.401	14.02
537.599	14.66
537.797	14.86
537.994	15.2
538.192	15.28
538.39	15.41
538.587	15.34
538.785	15.54
538.983	15.09
539.18	15.11
539.378	15.03
539.575	15.21
539.773	14.52
539.97	14.67
540.168	14.58
540.366	14.59
540.563	14.9
540.761	15.07
540.958	15.04
541.155	15.05
541.353	14.87
541.55	14.98
541.748	15.01
541.945	15.41
542.143	15.09
542.34	15.03
542.537	15.32
542.735	14.9
542.932	14.57
543.129	14.83
543.327	15.09
543.524	15.27
543.721	15.16
543.919	14.84
544.116	14.57
544.313	14.67
544.51	14.93
544.708	14.51
544.905	14.81
545.102	15.2
545.299	15.03
545.496	14.9
545.693	14.8
545.891	14.92
546.088	15.42
546.285	15.7
546.482	15.6
546.679	15.38
546.876	15.49
547.073	15.74
547.27	15.8
547.467	15.9
547.664	16.12
547.861	16.35
548.058	16.83
548.255	16.87
548.452	17.13
548.649	17.89
548.846	18.01
549.043	18.09
549.24	18.09
549.437	18.3
549.633	18.33
549.83	17.85
550.027	17.73
550.224	17.57
550.421	17.13
550.618	16.83
550.814	16.3
551.011	16.67
551.208	16.83
551.405	17.04
551.601	16.42
551.798	16.21
551.995	16.15
552.191	15.68
552.388	14.86
552.585	14.9
552.781	15.46
552.978	15.58
553.175	15.35
553.371	15.28
553.568	15.24
553.764	15.97
553.961	16.27
554.157	16.17
554.354	16.83
554.55	17.17
554.747	18.06
554.943	17.4
555.14	17.26
555.336	17.34
555.533	17.52
555.729	17.43
555.926	17.17
556.122	17.51
556.318	18.3
556.515	18.55
556.711	19.17
556.907	18.44
557.104	18.44
557.3	18.7
557.496	18.93
557.693	19.06
557.889	18.64
558.085	18.85
558.281	19.28
558.478	18.51
558.674	18.75
558.87	18.33
559.066	18.58
559.262	18.88
559.459	19.04
559.655	19.23
559.851	19.1
560.047	19.07
560.243	19.26
560.439	18.72
560.635	18.85
560.831	18.54
561.027	18.98
561.223	18.57
561.419	18.75
561.615	18.44
561.811	17.97
562.007	18.63
562.203	19.19
562.399	18.63
562.595	18.53
562.791	19.22
562.987	20.06
563.183	20.21
563.379	20.85
563.575	20.54
563.771	20.85
563.966	20.91
564.162	20.34
564.358	20.29
564.554	20.63
564.75	20.88
564.945	21.19
565.141	20.47
565.337	20.11
565.533	19.84
565.728	19.87
565.924	20.12
566.12	19.91
566.315	19.62
566.511	19.58
566.707	19.69
566.902	19.73
567.098	19.15
567.293	19.08
567.489	19.45
567.684	19.57
567.88	19.16
568.076	18.91
568.271	19.3
568.467	20.35
568.662	20.03
568.858	20.21
569.053	19.7
569.248	19.75
569.444	19.99
569.639	19.71
569.835	19.67
570.03	20.43
570.225	20.17
570.421	20.37
570.616	20.16
570.812	20.25
571.007	20.19
571.202	20.54
571.397	20.39
571.593	20.12
571.788	20
571.983	19.9
572.178	19.83
572.374	20.36
572.569	19.99
572.764	19.88
572.959	19.94
573.154	19.86
573.35	19.91
573.545	20.21
573.74	20.62
573.935	20.67
574.13	20.4
574.325	20.5
574.52	20.1
574.715	20.29
574.91	20.41
575.105	20.73
575.3	20.64
575.495	20.96
575.69	20.88
575.885	20.56
576.08	20.72
576.275	21.73
576.47	21.54
576.665	21.72
576.86	21
577.055	20.59
577.25	20.97
577.444	21.07
577.639	20.48
577.834	20.45
578.029	20.9
578.224	20.57
578.418	20.82
578.613	20.47
578.808	20.82
579.003	21.92
579.197	22.43
579.392	22.23
579.587	22.28
579.781	22.41
579.976	22.47
580.171	22.6
580.365	22.97
580.56	22.35
580.755	22.07
580.949	21.92
581.144	21.58
581.338	20.76
581.533	20.53
581.727	20.33
581.922	20.77
582.116	21.5
582.311	21.86
582.505	21.97
582.7	22.09
582.894	22.47
583.089	22.4
583.283	21.99
583.478	22.08
583.672	21.73
583.866	21.24
584.061	20.44
584.255	20.01
584.449	19.42
584.644	19.51
584.838	19.26
585.032	19.02
585.226	18.74
585.421	19.47
585.615	20.06
585.809	20.35
586.003	20.85
586.198	21.34
586.392	21.34
586.586	21.43
586.78	21.47
586.974	20.78
587.168	21.5
587.363	21.81
587.557	21.72
587.751	21.27
587.945	21.49
588.139	22.16
588.333	22.54
588.527	23.14
588.721	22.91
588.915	22.78
589.109	23.26
589.303	23.04
589.497	23.14
589.691	22.92
589.885	23.72
590.079	24.41
590.273	24.56
590.466	24.27
590.66	23.28
590.854	23.13
591.048	22.65
591.242	23.05
591.436	22.74
591.629	22.48
591.823	22.98
592.017	22.53
592.211	21.35
592.404	20.76
592.598	20.06
592.792	20.53
592.986	20.8
593.179	21.42
593.373	22.09
593.567	22.84
593.76	22.77
593.954	22.45
594.147	22.83
594.341	23.03
594.535	23.39
594.728	23.65
594.922	23.73
595.115	23.73
595.309	23.46
595.502	23.02
595.696	22.7
595.889	22.97
596.083	22.99
596.276	22.73
596.47	22.76
596.663	23
596.856	23.37
597.05	23.3
597.243	23.11
597.437	22.63
597.63	21.55
597.823	21.47
598.017	21.79
598.21	22.1
598.403	22.56
598.596	22.83
598.79	22.46
598.983	22.95
599.176	22.71
599.369	22.88
599.563	23.88
599.756	24.25
599.949	24.93
600.142	24.36
600.335	24.56
600.528	24.03
600.722	23.43
600.915	23.49
601.108	22.73
601.301	23.68
601.494	23.95
601.687	23.22
601.88	23.39
602.073	22.52
602.266	22.35
602.459	22.39
602.652	22.54
602.845	22.63
603.038	22.86
603.231	22.95
603.424	21.87
603.617	21.7
603.809	21.93
604.002	22.15
604.195	22.55
604.388	22.84
604.581	22.75
604.774	22.5
604.966	22.71
605.159	22.06
605.352	22.09
605.545	22.51
605.737	22.24
605.93	21.9
606.123	21.66
606.316	21.57
606.508	20.97
606.701	20.23
606.894	21.06
607.086	21.64
607.279	21.9
607.471	23.05
607.664	23.26
607.857	23.25
608.049	23.63
608.242	23.75
608.434	24.34
608.627	25.27
608.819	25.94
609.012	24.97
609.204	24.8
609.397	24.98
609.589	24.34
609.782	24.92
609.974	25.04
610.166	25.27
610.359	25.12
610.551	24.79
610.743	24.57
610.936	24.69
611.128	25.08
611.32	25.17
611.513	25.08
611.705	24.89
611.897	24.57
612.09	24.87
612.282	25.29
612.474	26.28
612.666	27.09
612.858	26.57
613.051	26.22
613.243	25.62
613.435	24.72
613.627	25.26
613.819	25.91
614.011	25.61
614.203	25.6
614.395	24.88
614.588	24.56
614.78	23.61
614.972	24.2
615.164	23.86
615.356	24.8
615.548	25.63
615.74	24.58
615.932	23.33
616.124	23.65
616.315	23.9
616.507	23.53
616.699	23.29
616.891	22.42
617.083	22.18
617.275	22.17
617.467	21.28
617.659	21.29
617.85	21.62
618.042	21.43
618.234	20.85
618.426	21.61
618.618	22.78
618.809	22.62
619.001	22.92
619.193	22.9
619.384	23.5
619.576	24.25
619.768	24.2
619.959	23
620.151	23.86
620.343	24.35
620.534	22.87
620.726	22.48
620.917	22.08
621.109	22.69
621.301	22.41
621.492	21.62
621.684	21.82
621.875	21.46
622.067	22.88
622.258	21.99
622.45	21.65
622.641	22.52
622.832	22.47
623.024	22.48
623.215	22.64
623.407	23.55
623.598	23.99
623.789	24.14
623.981	24.23
624.172	24.31
624.363	25.26
624.555	24.78
624.746	24.73
624.937	25.25
625.129	25.66
625.32	24.98
625.511	25.01
625.702	25.26
625.893	25.54
626.085	26.15
626.276	26.62
626.467	26.37
626.658	27.05
626.849	26.6
627.04	26.5
627.231	26.44
627.422	26.96
627.614	26.27
627.805	26.17
627.996	25.62
628.187	25.7
628.378	24.76
628.569	24.56
628.76	24.22
628.951	23.99
629.142	24.2
629.332	24.25
629.523	23.53
629.714	23.35
629.905	24.14
630.096	24.33
630.287	23.67
630.478	23.62
630.669	23.77
630.859	23.19
631.05	23.58
631.241	23.07
631.432	23.35
631.623	24.55
631.813	25.57
632.004	25.08
632.195	25.59
632.385	25.84
632.576	26.34
632.767	27.63
632.957	28.34
633.148	28.63
633.339	28.53
633.529	28.14
633.72	27.82
633.91	27.62
634.101	28.03
634.292	28.1
634.482	28.04
634.673	28.98
634.863	27.82
635.054	27.53
635.244	27.28
635.435	27.67
635.625	28.29
635.815	28.37
636.006	27.87
636.196	26.87
636.387	26.09
636.577	25.56
636.767	24.69
636.958	25.17
637.148	26.5
637.338	26.95
637.529	26.77
637.719	26.76
637.909	26.1
638.099	25.68
638.29	26.26
638.48	24.95
638.67	25.02
638.86	25.1
639.05	24.69
639.241	22.11
639.431	21.75
639.621	21.97
639.811	20.75
640.001	21.64
640.191	22.48
640.381	21.49
640.571	23.15
640.761	23.16
640.951	22.14
641.141	22.68
641.331	24.1
641.521	24.15
641.711	24
641.901	25.13
642.091	24.12
642.281	23.32
642.471	24.57
642.661	24.62
642.851	25.49
643.041	25.93
643.231	25.11
643.42	24.83
643.61	23.73
643.8	23.15
643.99	22.46
644.18	23.32
644.369	24.01
644.559	24.18
644.749	23.5
644.939	23.17
645.128	24.28
645.318	24.72
645.508	24.86
645.697	25.97
645.887	27.15
646.076	27.28
646.266	26.59
646.456	26.56
646.645	25.87
646.835	27.03
647.024	26.27
647.214	25.13
647.403	24.21
647.593	25.13
647.782	25.32
647.972	24.53
648.161	24.3
648.351	25.3
648.54	25.55
648.73	26.05
648.919	23.53
649.108	24.39
649.298	23.99
649.487	24.3
649.677	23.28
649.866	23.18
650.055	23.96
650.244	24.83
650.434	25.65
650.623	26.34
650.812	25.89
651.002	27.21
651.191	26.73
651.38	27.84
651.569	27.49
651.758	26.71
651.947	27.55
652.137	27.17
652.326	26.87
652.515	24.88
652.704	24.13
652.893	24.37
653.082	25.12
653.271	25.91
653.46	26.25
653.649	28.41
653.838	28.92
654.027	27.75
654.216	27.79
654.405	29.05
654.594	29.7
654.783	29.67
654.972	29.52
655.161	29.79
655.35	28.81
655.539	28.47
655.728	27.45
655.916	27.99
656.105	29.66
656.294	29.77
656.483	28.23
656.672	29.18
656.86	29.23
657.049	28.74
657.238	28.29
657.427	29.07
657.615	28.64
657.804	27.56
657.993	26.7
658.181	25.27
658.37	25.43
658.559	24.99
658.747	24.5
658.936	24.09
659.125	24.8
659.313	24.42
659.502	23.51
659.69	23.09
659.879	24.02
660.067	24.28
660.256	25.18
660.444	24.78
660.633	25.12
660.821	24.96
661.01	23.53
661.198	21.81
661.387	23.04
661.575	23.63
661.763	24.38
661.952	24.21
662.14	23.9
662.328	23.76
662.517	23.12
662.705	24
662.893	23.9
663.082	24.9
663.27	26.24
663.458	25.4
663.646	25.13
663.834	24.47
664.023	24.44
664.211	26.16
664.399	25.12
664.587	25.56
664.775	25.17
664.963	25.27
665.152	26.63
665.34	27.25
665.528	27.33
665.716	27.79
665.904	27.2
666.092	27.94
666.28	26.66
666.468	27.41
666.656	26.97
666.844	27.43
667.032	27.84
667.22	28.49
667.408	27.41
667.596	27.24
667.784	26.74
667.971	27.96
668.159	26.52
668.347	27.47
668.535	27.55
668.723	28.32
668.911	28.95
669.098	28.1
669.286	27.37
669.474	28.59
669.662	29.04
669.849	28.99
670.037	27.12
670.225	27.09
670.413	27.82
670.6	26.36
670.788	27.29
670.976	26.81
671.163	27.25
671.351	26.46
671.538	26.31
671.726	26.63
671.913	26.73
672.101	28.21
672.289	31.17
672.476	30.03
672.664	31
672.851	29.27
673.039	28.24
673.226	28.19
673.413	28.58
673.601	28.41
673.788	27.7
673.976	28.72
674.163	29.44
674.35	27
674.538	27.01
674.725	26.63
674.912	26.37
675.1	26.31
675.287	25.86
675.474	25.44
675.662	24.23
675.849	24.33
676.036	23.97
676.223	22.87
676.411	24.04
676.598	24.12
676.785	24.56
676.972	25.84
677.159	26.82
677.346	26.7
677.533	27.86
677.721	28.33
677.908	29.32
678.095	28.7
678.282	28.79
678.469	27.4
678.656	27
678.843	27.97
679.03	27.69
679.217	27.49
679.404	28.07
679.591	27.76
679.778	28.04
679.964	27.17
680.151	27.73
680.338	29.09
680.525	28.15
680.712	28.42
680.899	27.9
681.086	27.05
681.272	26.61
681.459	26.31
681.646	26.21
681.833	26.28
682.02	24.84
682.206	24.22
682.393	22.5
682.58	24.11
682.766	24.42
682.953	22.68
683.14	23.95
683.326	23.75
683.513	23.95
683.7	24.78
683.886	23.59
684.073	25
684.259	25.61
684.446	26.77
684.632	27.55
684.819	27.6
685.005	28.97
685.192	29.21
685.378	29.54
685.565	29.41
685.751	29.06
685.938	29.93
686.124	29.95
686.31	31.03
686.497	30.17
686.683	28.71
686.87	27.68
687.056	27.5
687.242	27.56
687.429	27.62
687.615	26.12
687.801	25.37
687.987	25.24
688.174	26.77
688.36	25.2
688.546	25.32
688.732	25.3
688.918	25.3
689.105	25.88
689.291	25.6
689.477	24.32
689.663	25.77
689.849	26.22
690.035	26
690.221	24.35
690.407	26.02
690.593	25.33
690.779	25.31
690.965	24.44
691.151	24.71
691.337	24.24
691.523	24.66
691.709	24.02
691.895	24.34
692.081	25.45
692.267	24.93
692.453	23.11
692.639	24.59
692.825	24.33
693.011	27.32
693.196	26
693.382	25.64
693.568	26.39
693.754	27.09
693.94	26.98
694.125	25.96
694.311	27.27
694.497	26.7
694.682	27.62
694.868	28.73
695.054	28.47
695.239	29.03
695.425	29.53
695.611	29.95
695.796	30.32
695.982	29.99
696.168	30.26
696.353	29
696.539	30.3
696.724	29.64
696.91	30.52
697.095	29.4
697.281	28.89
697.466	29.2
697.652	29.65
697.837	29.57
698.023	28.48
698.208	28.49
698.393	28.26
698.579	27.71
698.764	26.41
698.949	26.05
699.135	26.78
699.32	26.04
699.505	25.17
699.691	24.01
699.876	24.2
700.061	25.57
700.246	24.99
700.432	26.47
700.617	26.3
700.802	27.23
700.987	26.62
701.172	25.7
701.358	28.79
701.543	28.84
701.728	28.93
701.913	27.54
702.098	26.07
702.283	25.84
702.468	22.75
702.653	24.28
702.838	23.48
703.023	22.23
703.208	23.96
703.393	21.98
703.578	21.48
703.763	22.35
703.948	24.67
704.133	27.26
704.318	27.79
704.503	28.74
704.688	27.07
704.873	28.64
705.057	30.93
705.242	29.69
705.427	29.96
705.612	29.95
705.797	30.46
705.981	31.38
706.166	28.93
706.351	29.16
706.536	30.98
706.72	30.76
706.905	30.24
707.09	29.01
707.274	29.55
707.459	29.35
707.644	30.25
707.828	29.51
708.013	27.91
708.197	28.65
708.382	28.4
708.567	26.37
708.751	26.98
708.936	28.86
709.12	29.32
709.305	29.3
709.489	28.23
709.673	28.71
709.858	29.6
710.042	29.68
710.227	28.77
710.411	28.48
710.596	29.81
710.78	31.33
710.964	29.74
711.149	29.24
711.333	29.01
711.517	30.69
711.702	29.41
711.886	27.89
712.07	27.3
712.254	29.65
712.438	29.21
712.623	28.49
712.807	28.09
712.991	28.6
713.175	30.26
713.359	31.02
713.544	30.19
713.728	29
713.912	31.97
714.096	30.75
714.28	28.09
714.464	27.99
714.648	28.16
714.832	26.75
715.016	26.77
715.2	25.36
715.384	24.59
715.568	24.58
715.752	26.48
715.936	25.26
716.12	25.84
716.304	26.7
716.488	27.88
716.671	27.57
716.855	26.94
717.039	26.59
717.223	24.99
717.407	25.19
717.59	25.41
717.774	25.85
717.958	24.99
718.142	26.41
718.325	29.23
718.509	27.03
718.693	27.93
718.877	29.03
719.06	28.35
719.244	31.03
719.428	33.69
719.611	33.92
719.795	31.73
719.978	32.93
720.162	33.88
720.345	33
720.529	34.2
720.713	37.31
720.896	37.48
721.08	37.08
721.263	35.39
721.446	31.66
721.63	31.72
721.813	34.13
721.997	33.51
722.18	31.54
722.364	29.8
722.547	30.9
722.73	28.92
722.914	27.98
723.097	29.54
723.28	30.57
723.464	30.24
723.647	29.84
723.83	30.64
724.013	29.12
724.197	28.34
724.38	28.18
724.563	29.66
724.746	28.2
724.929	26.69
725.112	25.36
725.296	25.39
725.479	26.05
725.662	26.89
725.845	27.35
726.028	27.93
726.211	27.59
726.394	26.56
726.577	26.63
726.76	29.43
726.943	31.74
727.126	33
727.309	33.73
727.492	32.03
727.675	31.96
727.858	28.06
728.041	27.83
728.224	27.71
728.407	30.87
728.589	28.99
728.772	26.1
728.955	26.56
729.138	26.52
729.321	25.17
729.503	27.34
729.686	28.13
729.869	30
730.052	29.6
730.234	31.53
730.417	28.78
730.6	29.53
730.782	29.91
730.965	30.87
731.148	29.73
731.33	30.48
731.513	29.56
731.695	29.12
731.878	28.12
732.061	27.74
732.243	26.98
732.426	26.5
732.608	24.89
732.791	26.4
732.973	27.37
733.156	27.56
733.338	25.5
733.52	27.51
733.703	25.56
733.885	26.1
734.068	29.71
734.25	28.91
734.432	31.75
734.615	33.87
734.797	32.83
734.979	31.59
735.162	32.54
735.344	32.44
735.526	32.04
735.708	35.8
735.891	37.42
736.073	35.06
736.255	35.04
736.437	33.28
736.619	33.31
736.802	31.39
736.984	29.44
737.166	28.59
737.348	29.78
737.53	29.42
737.712	23.94
737.894	20.84
738.076	17.35
738.258	17.38
738.44	19.49
738.622	16.27
738.804	18.78
738.986	19.94
739.168	20.24
739.35	21.04
739.532	18.42
739.714	21.59
739.896	27.44
740.078	28.81
740.259	31.61
740.441	30.64
740.623	33.46
740.805	35.56
740.987	34.35
741.168	36.03
741.35	35.79
741.532	36.19
741.714	36.85
741.895	36.2
742.077	39.16
742.259	37.38
742.44	38.34
742.622	40
742.804	37.3
742.985	37.22
743.167	35.06
743.348	37.46
743.53	38.79
743.711	38.95
743.893	38.7
744.075	38.53
744.256	42.17
744.438	39.96
744.619	38.54
744.8	38.93
744.982	41.59
745.163	40.23
745.345	37.85
745.526	38.75
745.707	36.66
745.889	28.46
746.07	30.78
746.252	29.39
746.433	32.23
746.614	31.68
746.795	29.08
746.977	27.13
747.158	27.72
747.339	26.88
747.52	26.76
747.702	28.76
747.883	35.64
748.064	33.8
748.245	32.61
748.426	31.04
748.607	30.24
748.788	28.46
748.97	28.22
749.151	25.65
749.332	24.62
749.513	24.18
749.694	23.48
749.875	21.39
750.056	24.37
750.237	24.01
750.418	27.03
750.599	25.96
750.78	30.27
750.96	28.88
751.141	32.2
751.322	32.47
751.503	30
751.684	29.43
751.865	30.79
752.046	27.64
752.226	28.23
752.407	28.47
752.588	32.8
752.769	36.48
752.949	38.36
753.13	38.06
753.311	39.59
753.492	41.84
753.672	41.69
753.853	42.58
754.034	41.53
754.214	40.24
754.395	36.02
754.575	33.22
754.756	26.15
754.937	24.75
755.117	27.85
755.298	27.92
755.478	27.88
755.659	29.99
755.839	27.64
756.02	30.44
756.2	30.32
756.381	32.11
756.561	33.17
756.741	35.68
756.922	37.5
757.102	37.7
757.283	37.05
757.463	37.72
757.643	35.26
757.823	34.71
758.004	33.21
758.184	32.01
758.364	28.25
758.545	28.51
758.725	27.21
758.905	27.14
759.085	26.45
759.265	25.24
759.446	23.07
759.626	23.93
759.806	22.37
759.986	22.14
760.166	22.67
760.346	22.58
760.526	24.21
760.706	25.28
760.886	23.6
761.066	20.12
761.246	19.75
761.426	23.92
761.606	22.67
761.786	27.12
761.966	27.6
762.146	28.56
762.326	29.15
762.506	29.87
762.686	30.36
762.866	30.07
763.046	33.14
763.225	33.72
763.405	31.18
763.585	32.57
763.765	30.5
763.945	29.7
764.124	30.47
764.304	31.44
764.484	28.5
764.664	26.98
764.843	28.14
765.023	27.31
765.203	28.34
765.382	28.82
765.562	29.35
765.741	29.85
765.921	29.41
766.101	28.1
766.28	29.91
766.46	32.14
766.639	32.54
766.819	33.59
766.998	34.27
767.178	35.64
767.357	41.84
767.537	40.68
767.716	40.49
767.896	41.85
768.075	42.11
768.254	44.14
768.434	43.38
768.613	46.38
768.792	42.7
768.972	41.95
769.151	39.72
769.33	36.41
769.51	35.33
769.689	41.54
769.868	44.37
770.047	44.11
770.226	40.23
770.406	38.7
770.585	34.66
770.764	36.57
770.943	37.09
771.122	33.09
771.301	30.73
771.48	32.83
771.66	27.1
771.839	27.91
772.018	26.68
772.197	28.22
772.376	30.16
772.555	32.16
772.734	30.94
772.913	29.33
773.092	29.32
773.271	28.51
773.449	29.7
773.628	30.16
773.807	30
773.986	34.47
774.165	35.82
774.344	33.83
774.523	32.96
774.701	41.12
774.88	44.82
775.059	49.34
775.238	49.34
775.417	47.61
775.595	49.33
775.774	48.18
775.953	46.05
776.131	41.94
776.31	40.72
776.489	43.66
776.667	34.24
776.846	27.35
777.025	24.01
777.203	22.81
777.382	20.4
777.56	19.78
777.739	17.06
777.917	14.89
778.096	15.79
778.274	14.81
778.453	15.97
778.631	22.02
778.81	28.79
778.988	33.03
779.166	32.51
779.345	33.37
779.523	34.8
779.702	35.04
779.88	34.54
780.058	35.02
780.237	33.71
780.415	36.72
780.593	40.81
780.771	40.41
780.95	43.56
781.128	46.33
781.306	46.92
781.484	47.16
781.662	47.86
781.841	53.94
782.019	49.47
782.197	53.6
782.375	46.7
782.553	45.41
782.731	43.03
782.909	37.5
783.087	32.94
783.265	35.72
783.443	29.49
783.621	28.66
783.799	23.93
783.977	34.06
784.155	32.91
784.333	32.09
784.511	31.79
784.689	32.72
784.867	31.65
785.045	33.43
785.223	30.89
785.4	33.73
785.578	30.16
785.756	31.85
785.934	29.58
786.112	31.57
786.289	36.07
786.467	31.69
786.645	31.45
786.823	36.16
787	40.1
787.178	36.29
787.356	36.58
787.533	39.07
787.711	41.76
787.889	40.36
788.066	35.71
788.244	36.45
788.421	37.63
788.599	34.21
788.776	32.9
788.954	29.93
789.131	33.91
789.309	29.78
789.486	23.6
789.664	19.62
789.841	18.5
790.019	19.28
790.196	14.14
790.373	17.75
790.551	23.2
790.728	24.26
790.906	21.28
791.083	24.69
791.26	32.43
791.437	35.47
791.615	38.82
791.792	40.47
791.969	41.07
792.146	43.2
792.324	41.81
792.501	36.57
792.678	31.97
792.855	29.54
793.032	27.67
793.209	21.39
793.387	20.85
793.564	26.83
793.741	30.34
793.918	32.87
794.095	32.22
794.272	32.09
794.449	35.19
794.626	36.72
794.803	38.21
794.98	37.65
795.157	41.79
795.334	42.76
795.511	34.62
795.688	28.64
795.864	29.68
796.041	28.7
796.218	26.55
796.395	27.09
796.572	27.47
796.749	27.38
796.925	27.32
797.102	21.71
797.279	23.88
797.456	23
797.632	27.62
797.809	20.88
797.986	21.91
798.162	23.47
798.339	20.8
798.516	20.02
798.692	20.21
798.869	18.42
799.046	25.38
799.222	22.13
799.399	26.45
799.575	22.85
799.752	19.62
799.928	18.96
800.105	16.66
800.281	20.23
800.458	21.48
800.634	27.96
800.811	29.23
800.987	29
801.163	35.28
801.34	33.69
801.516	33.45
801.692	38.26
801.869	37.12
802.045	39.92
802.221	37.94
802.398	39.55
802.574	30.83
802.75	30.45
802.926	30.37
803.103	25.99
803.279	21.56
803.455	27.34
803.631	24.4
803.807	30.12
803.983	25.17
804.16	14.31
804.336	9.21
804.512	15.83
804.688	10.2
804.864	1.67
805.04	3.08
805.216	11.04
805.392	5.96
805.568	21.29
805.744	14.52
805.92	15.36
806.096	20.71
806.272	23.36
806.448	22.91
806.623	34.38
806.799	41.19
806.975	38.56
807.151	31.2
807.327	33
807.503	26.7
807.678	26.62
807.854	30.73
808.03	37.43
808.206	36.49
808.381	35.75
808.557	31.81
808.733	35.6
808.908	42.77
809.084	52.92
809.26	46.52
809.435	48.5
809.611	46.57
809.787	42.24
809.962	39.46
810.138	40.33
810.313	40.74
810.489	39.34
810.664	33.14
810.84	27.78
811.015	26.88
811.191	36.51
811.366	34.2
811.542	37.35
811.717	42.29
811.892	43.7
812.068	47.31
812.243	46.08
812.419	43.49
812.594	36.75
812.769	43.3
812.944	42
813.12	35.87
813.295	43.14
813.47	46.51
813.645	43.12
813.821	32.53
813.996	23.31
814.171	24.75
814.346	31.08
814.521	39.04
814.697	31.58
814.872	28.07
815.047	31.7
815.222	34.94
815.397	26.93
815.572	29.74
815.747	33.83
815.922	39
816.097	44.14
816.272	41.17
816.447	44.47
816.622	51.7
816.797	52.04
816.972	48.76
817.147	40.09
817.322	40.17
817.496	40.73
817.671	28.07
817.846	22.47
818.021	14.63
818.196	22.51
818.371	13.92
818.545	13.32
818.72	1.25
818.895	-2.34
819.069	-2.9
819.244	1.24
819.419	1.72
819.594	16.72
819.768	20.03
819.943	20.42
820.117	17.5
820.292	17.78
820.467	18.13
820.641	22.48
820.816	23.27
820.99	25.23
821.165	25.81
821.339	25.37
821.514	24.28
821.688	25.19
821.863	25.67
822.037	26.37
822.212	27.04
822.386	27.32
822.56	27.85
822.735	27.64
822.909	27.66
823.084	27.3
823.258	26.43
823.432	27.77
823.606	27.17
823.781	27.19
823.955	26.19
824.129	27.23
824.303	26.23
824.478	25.44
824.652	26.88
824.826	27.19
825	27.35
825.174	30.14
825.348	28.92
825.523	29.84
825.697	30.18
825.871	31.31
826.045	29.53
826.219	29.96
826.393	28.44
826.567	27.42
826.741	25.99
826.915	27.66
827.089	28.01
827.263	28.46
827.437	28.64
827.611	27.73
827.784	27.71
827.958	27.62
828.132	27.82
828.306	29.64
828.48	30.65
828.654	32.69
828.827	30.74
829.001	27.08
829.175	25.74
829.349	25.2
829.522	19.55
829.696	18.4
829.87	16.04
830.044	21.56
830.217	22.84
830.391	17.63
830.565	15.29
830.738	12.36
830.912	12.38
831.085	13.13
831.259	6.98
831.432	17.12
831.606	12.13
831.779	15.82
831.953	10.9
832.126	19.89
832.3	20.07
832.473	12.82
832.647	14.85
832.82	17.07
832.994	16
833.167	20.61
833.34	17.94
833.514	23.2
833.687	25.68
833.86	22.12
834.034	14.59
834.207	18.35
834.38	24.03
834.553	23.26
834.727	23.18
834.9	24.57
835.073	23.89
835.246	26.96
835.419	25.56
835.593	24.72
835.766	27.56
835.939	30.38
836.112	27.82
836.285	30.5
836.458	32.67
836.631	36.28
836.804	39.36
836.977	39.96
837.15	40.78
837.323	38.35
837.496	31.13
837.669	28.83
837.842	31.57
838.015	43.32
838.188	44.76
838.361	39.24
838.533	31.06
838.706	32.99
838.879	44.39
839.052	39.1
839.225	41.23
839.398	45.24
839.57	40.75
839.743	41.66
839.916	35.46
840.088	31.66
840.261	40.47
840.434	44.21
840.607	41.56
840.779	41.95
840.952	43.54
841.124	48.11
841.297	52.24
841.47	57.37
841.642	60.23
841.815	63.36
841.987	65.66
842.16	65.67
842.332	64.83
842.505	64.58
842.677	71.36
842.85	73.39
843.022	67.46
843.194	60.67
843.367	69.22
843.539	45.68
843.712	55.37
843.884	45.11
844.056	47.29
844.229	51.98
844.401	78.16
844.573	63
844.745	75.28
844.918	76.68
845.09	94.21
845.262	104.19
845.434	148.71
845.606	175.16
845.779	237.2
845.951	447.77
846.123	449.95
846.295	307.41
846.467	232.9
846.639	195.98
846.811	401.64
846.983	322.63
847.155	383.08
847.327	167.29
847.499	148.08
847.671	177.01
847.843	149.44
848.015	162.97
848.187	161.32
848.359	359.98
848.531	-444.77
848.703	527.22
848.875	-1115.05
849.047	1177.94
849.218	-474.59
849.39	-9.04
849.562	-12.45
849.734	13.01
849.905	32.89
850.077	33.36
850.249	176.42
850.421	3.86
850.592	437.1
850.764	-111.87
850.936	-134.13
851.107	-37.16
851.279	-35.31
851.451	-14.59
851.622	-8.4
851.794	0.85
851.965	-2.83
852.137	-10
852.308	4.42
852.48	11.07
852.651	-15.17
852.823	-1.58
852.994	-17.49
853.166	-21.11
853.337	-36.26
853.509	5.28
853.68	1523.75
853.851	38.33
854.023	29.56
854.194	30.2
854.365	30.48
854.537	148.95
854.708	109.62
854.879	112.4
855.05	114.55
855.222	131.52
855.393	295.37
855.564	649.68
855.735	-286.73
855.906	-1369.39
856.078	-295.68
856.249	-637.5
856.42	-5675
856.591	256.95
856.762	1047.37
856.933	257.56
857.104	406.64
857.275	86.47
857.446	66.78
857.617	81.23
857.788	73.02
857.959	53.6
858.13	52.61
858.301	64.66
858.472	95.09
858.643	54.49
858.814	15
858.985	-0.44
859.155	-75.27
859.326	-166.92
859.497	-426.23
859.668	345.34
859.839	127.07
860.009	92.01
860.18	141.04
860.351	114.23
860.522	16.19
860.692	6.97
860.863	-28.77
861.034	-109.82
861.204	-40.05
861.375	-19.68
861.546	-161
861.716	-50.21
861.887	-104.16
862.057	6350
862.228	200.21
862.398	334.34
862.569	225.04
862.739	311.63
862.91	194.47
863.08	124.49
863.251	97.46
863.421	48.09
863.592	60.02
863.762	68.38
863.932	81.57
864.103	33.74
864.273	-24.71
864.443	-310.71
864.614	-82.37
864.784	-134.65
864.954	-83.63
865.125	-287.09
865.295	-136.41
865.465	-595.05
865.635	-303.85
865.805	-137.38
865.976	-73.76
866.146	-37.79
866.316	-19.81
866.486	-34.06
866.656	-43.58
866.826	-92.3
866.996	-14.32
867.166	-391.13
867.336	-201.17
867.506	-369.72
867.676	162.79
867.846	89.34
868.016	52.21
868.186	24.02
868.356	24.25
868.526	28.98
868.696	16.53
868.866	65.77
869.036	15.81
869.206	50.85
869.376	143.23
869.545	83.24
869.715	73.48
869.885	38.82
870.055	0.04
870.224	26.6
870.394	23.83
870.564	-1.66
870.734	21.84
870.903	15.46
871.073	30.8
871.243	34.23
871.412	15.8
871.582	-12.4
871.751	17.57
871.921	68.06
872.091	36.85
872.26	96.1
872.43	162.34
872.599	126.8
872.769	115.24
872.938	124.63
873.108	112.51
873.277	86.36
873.446	61.45
873.616	66.85
873.785	58.29
873.955	83.8
874.124	69.58
874.293	79.26
874.463	90.43
874.632	68.85
874.801	99.84
874.971	72.38
875.14	159.47
875.309	193.8
875.478	103.14
875.647	136.94
875.817	75.79
875.986	81.71
876.155	61.31
876.324	57.95
876.493	78.46
876.662	62.04
876.831	93.61
877	79.99
877.17	67.36
877.339	78.86
877.508	84.53
877.677	71.15
877.846	78.35
878.015	85.47
878.184	70.86
878.352	38.16
878.521	28.8
878.69	27.78
878.859	61.18
879.028	68.32
879.197	62.98
879.366	47.37
879.534	44.99
879.703	31.81
879.872	30.64
880.041	31.31
880.21	34.08
880.378	32.79
880.547	28.08
880.716	21.28
880.884	21.41
881.053	24.93
881.222	23.32
881.39	27.79
881.559	31.26
881.727	29.2
881.896	33.55
882.065	32.6
882.233	32.58
882.402	33.94
882.57	32.69
882.739	28.65
882.907	26.39
883.076	28.73
883.244	26.86
883.412	22.94
883.581	25.21
883.749	20.25
883.918	15.91
884.086	10.02
884.254	12.07
884.423	13.94
884.591	18.11
884.759	14.17
884.927	4.39
885.096	6.65
885.264	14.25
885.432	18.45
885.6	23.49
885.769	39.51
885.937	47.76
886.105	34.56
886.273	30.99
886.441	33.81
886.609	28.63
886.777	35.65
886.945	40.69
887.113	25.48
887.281	1.52
887.449	-17.48
887.617	-26.77
887.785	-41.2
887.953	-23.32
888.121	-81.89
888.289	-121.46
888.457	-106.02
888.625	-107.09
888.793	-189.48
888.961	-273.99
889.129	-45.5
889.296	-26.44
889.464	-41.29
889.632	-25.3
889.8	-49.12
889.967	18.48
890.135	28.7
