Data from JASIL_2934_Reflection_2.txt Node
Date: Sat Nov 07 20:57:52 EST 2015
User: Geneva
Spectrometer: USB4E03002
Autoset integration time: false
Trigger mode: 4
Integration Time (sec): 1.000000E-1
Scans to average: 10
Electric dark correction enabled: true
Nonlinearity correction enabled: false
Boxcar width: 5
Stray light correction enabled: false
XAxis mode: Wavelengths
Stop averaging: false
Number of Pixels in Spectrum: 3648
>>>>>Begin Spectral Data<<<<<
177.575	-447.12
177.794	-152.92
178.014	-186.63
178.233	88.9
178.452	85.37
178.672	88.79
178.891	61.84
179.11	0
179.33	919.38
179.549	-972.31
179.768	378.96
179.987	155.98
180.207	81.06
180.426	60.76
180.645	87.33
180.864	80.82
181.084	80.7
181.303	71.12
181.522	75.89
181.741	67.62
181.96	74.57
182.179	81.66
182.398	67.6
182.618	52.79
182.837	53.99
183.056	34.77
183.275	43.01
183.494	32.28
183.713	45.1
183.932	47.2
184.151	69.45
184.37	58.61
184.589	39.57
184.808	43.27
185.027	59.61
185.246	60.37
185.465	58.73
185.684	63.57
185.903	80.73
186.122	76.22
186.341	78.24
186.56	73.97
186.779	78.01
186.998	76.04
187.216	76.8
187.435	74.09
187.654	68.68
187.873	93.14
188.092	58.22
188.311	46.25
188.53	52.73
188.748	49.66
188.967	26.32
189.186	29.79
189.405	30.6
189.623	9.74
189.842	31.5
190.061	30.65
190.28	17.93
190.498	25.95
190.717	16.43
190.936	13.59
191.154	-9.89
191.373	13.03
191.592	-9.03
191.81	-25.1
192.029	-0.4
192.248	-1.73
192.466	28.72
192.685	45.73
192.904	48.85
193.122	33.83
193.341	30.55
193.559	37.63
193.778	28.82
193.996	42.92
194.215	58.78
194.433	59.46
194.652	66.04
194.87	56.36
195.089	48.41
195.307	46.79
195.526	59.07
195.744	65.49
195.963	77.79
196.181	89.52
196.399	87.16
196.618	99.15
196.836	88.94
197.055	68.75
197.273	76.96
197.491	86.78
197.71	86.96
197.928	87.18
198.146	64.75
198.365	60.37
198.583	65.52
198.801	58.71
199.019	39.28
199.238	39.79
199.456	40.99
199.674	50.56
199.892	40.71
200.111	17.58
200.329	29.09
200.547	24.05
200.765	32.13
200.983	31.42
201.202	35.23
201.42	43.89
201.638	30.33
201.856	19.93
202.074	12.77
202.292	23.06
202.51	34.37
202.728	19.54
202.946	3.96
203.165	-18.58
203.383	-25.38
203.601	-18.83
203.819	-27
204.037	-7.05
204.255	5.62
204.473	13.64
204.691	4.57
204.909	-8.54
205.127	11.77
205.345	35.68
205.562	45.04
205.78	46.96
205.998	42.17
206.216	37.41
206.434	31.14
206.652	32.18
206.87	32.78
207.088	44.05
207.306	53.61
207.523	54.75
207.741	46.19
207.959	44.12
208.177	43.84
208.395	37.54
208.612	33.08
208.83	26.97
209.048	25.35
209.266	6.32
209.483	1.11
209.701	-5.71
209.919	-16.18
210.136	-26.34
210.354	9.35
210.572	19.96
210.79	23.72
211.007	25.94
211.225	32.86
211.442	28.17
211.66	31.71
211.878	28.48
212.095	73.65
212.313	70.97
212.53	67.89
212.748	62.27
212.966	52.72
213.183	48.52
213.401	52.17
213.618	62.19
213.836	67.9
214.053	66.83
214.271	69.5
214.488	25.48
214.705	28.39
214.923	39.79
215.14	29.77
215.358	34.11
215.575	34.89
215.793	39.08
216.01	30.73
216.227	30.26
216.445	30.02
216.662	25.16
216.879	26.3
217.097	25.85
217.314	23.77
217.531	25.77
217.749	21.37
217.966	27.35
218.183	24.9
218.4	24.64
218.618	22.17
218.835	25.6
219.052	26.42
219.269	19.87
219.487	18.01
219.704	12.42
219.921	15.95
220.138	22.5
220.355	18.08
220.572	18.21
220.79	14.25
221.007	19.8
221.224	18.94
221.441	17.09
221.658	16.94
221.875	15.76
222.092	15.63
222.309	13.67
222.526	10.21
222.743	10.81
222.96	7.07
223.177	7.11
223.394	3.97
223.611	3.36
223.828	2.3
224.045	4.2
224.262	5.58
224.479	6.21
224.696	7.75
224.913	7.29
225.13	8.59
225.347	10.49
225.564	10.58
225.781	9.75
225.997	9.39
226.214	10.4
226.431	10.56
226.648	11.28
226.865	11.44
227.082	11.08
227.298	11.52
227.515	10.89
227.732	10.32
227.949	9.98
228.165	9.35
228.382	9.07
228.599	8.94
228.816	8.45
229.032	7.61
229.249	7.54
229.466	6.66
229.682	6.12
229.899	6.84
230.116	7.2
230.332	7.71
230.549	9.55
230.765	10.71
230.982	11.4
231.199	11.9
231.415	12.13
231.632	12.29
231.848	14.09
232.065	15.46
232.281	14.97
232.498	14.44
232.714	14.42
232.931	13.26
233.147	13.41
233.364	12.85
233.58	13.88
233.797	13.9
234.013	13.16
234.23	12.33
234.446	11.54
234.662	11.56
234.879	13.22
235.095	12.88
235.312	13.27
235.528	13.2
235.744	12.87
235.961	11.81
236.177	11.61
236.393	12.36
236.61	13.21
236.826	12.23
237.042	13.37
237.258	12.03
237.475	12.79
237.691	12.76
237.907	12.86
238.123	13.15
238.339	12.74
238.556	13.07
238.772	13.63
238.988	13.45
239.204	14.15
239.42	13.25
239.636	13.44
239.853	13.12
240.069	12.85
240.285	12.73
240.501	12.46
240.717	12.35
240.933	12.3
241.149	11.82
241.365	11.8
241.581	11.7
241.797	11.79
242.013	11.65
242.229	11.78
242.445	11.69
242.661	11.32
242.877	11.3
243.093	11.63
243.309	11.68
243.525	11.67
243.741	11.3
243.957	11.29
244.173	11.01
244.388	10.55
244.604	10.33
244.82	10.25
245.036	10.25
245.252	9.95
245.468	9.72
245.683	9.66
245.899	9.77
246.115	9.76
246.331	9.63
246.547	9.52
246.762	9.47
246.978	9.36
247.194	9.23
247.409	9.13
247.625	8.99
247.841	8.81
248.057	8.77
248.272	8.58
248.488	8.56
248.703	8.45
248.919	8.42
249.135	8.22
249.35	8.03
249.566	8.12
249.782	7.63
249.997	8.42
250.213	8.91
250.428	8.92
250.644	9.02
250.859	8.6
251.075	8.66
251.29	8.53
251.506	8.54
251.721	8.43
251.937	8.33
252.152	9.11
252.368	8.79
252.583	8.45
252.798	8.17
253.014	7.64
253.229	8.03
253.445	7.45
253.66	7.59
253.875	7.68
254.091	7.61
254.306	7.92
254.521	7.21
254.737	7.42
254.952	7.05
255.167	7.01
255.383	7.58
255.598	7.9
255.813	8.02
256.028	7.71
256.244	7.93
256.459	7.78
256.674	7.4
256.889	7.35
257.104	7.16
257.32	7.31
257.535	7.29
257.75	6.91
257.965	6.61
258.18	6.69
258.395	6.6
258.61	6.53
258.826	6.54
259.041	6.63
259.256	6.7
259.471	6.69
259.686	6.84
259.901	6.83
260.116	6.98
260.331	7.11
260.546	7.18
260.761	7.33
260.976	7.48
261.191	7.57
261.406	7.48
261.621	7.28
261.836	7.19
262.05	6.91
262.265	7.06
262.48	7.01
262.695	6.7
262.91	6.71
263.125	6.45
263.34	6.35
263.555	6.48
263.769	6.43
263.984	6.49
264.199	6.51
264.414	6.58
264.629	6.02
264.843	5.84
265.058	5.84
265.273	6.03
265.488	6.25
265.702	5.91
265.917	6.09
266.132	6.19
266.346	6.25
266.561	6.18
266.776	6.13
266.99	6.44
267.205	6.52
267.42	6.44
267.634	6.32
267.849	6.27
268.063	6.45
268.278	6.18
268.492	6.04
268.707	6.12
268.922	6.14
269.136	6.28
269.351	6.34
269.565	6.19
269.78	6.33
269.994	6.13
270.209	6.01
270.423	6.28
270.637	6.25
270.852	6.23
271.066	6.08
271.281	6.2
271.495	6.14
271.709	5.94
271.924	6.05
272.138	5.91
272.353	5.95
272.567	5.87
272.781	5.68
272.996	5.64
273.21	5.66
273.424	5.66
273.638	5.52
273.853	5.45
274.067	5.45
274.281	5.41
274.495	5.6
274.71	5.64
274.924	5.77
275.138	5.64
275.352	5.74
275.566	5.73
275.781	5.87
275.995	6.13
276.209	6.24
276.423	6.17
276.637	6.06
276.851	6.15
277.065	6.04
277.279	6.02
277.493	6.44
277.707	6.34
277.921	6.53
278.135	6.48
278.349	6.15
278.563	5.96
278.777	5.84
278.991	6.03
279.205	5.89
279.419	6.12
279.633	6.13
279.847	5.74
280.061	5.97
280.275	5.89
280.489	5.89
280.703	5.91
280.917	5.85
281.131	6.18
281.344	6.01
281.558	5.88
281.772	5.64
281.986	5.67
282.2	5.72
282.414	5.61
282.627	5.57
282.841	5.54
283.055	5.44
283.269	5.28
283.482	5.12
283.696	5.31
283.91	5.51
284.123	5.55
284.337	5.43
284.551	5.44
284.764	5.33
284.978	5.44
285.192	5.43
285.405	5.52
285.619	5.83
285.833	5.68
286.046	5.39
286.26	5.33
286.473	5.25
286.687	5.44
286.9	5.58
287.114	5.53
287.327	5.63
287.541	5.81
287.754	5.93
287.968	5.7
288.181	5.85
288.395	6.1
288.608	6.04
288.822	6.08
289.035	6.02
289.248	5.99
289.462	6.29
289.675	6.08
289.889	6
290.102	6.04
290.315	6.1
290.529	6.11
290.742	6.02
290.955	6.01
291.169	5.97
291.382	5.66
291.595	5.46
291.808	5.2
292.022	5.36
292.235	5.31
292.448	5.39
292.661	5.5
292.875	5.57
293.088	5.46
293.301	5.44
293.514	5.5
293.727	5.7
293.94	5.84
294.153	5.91
294.367	5.84
294.58	5.68
294.793	5.34
295.006	5.18
295.219	5.23
295.432	5.2
295.645	5.39
295.858	5.3
296.071	5.4
296.284	5.18
296.497	5.17
296.71	5.19
296.923	5.23
297.136	5.39
297.349	5.39
297.562	5.27
297.775	5.35
297.988	5.33
298.201	5.42
298.414	5.42
298.626	5.65
298.839	5.74
299.052	5.73
299.265	5.64
299.478	5.52
299.691	5.48
299.903	5.57
300.116	5.63
300.329	5.56
300.542	5.57
300.755	5.43
300.967	5.48
301.18	5.54
301.393	5.45
301.605	5.39
301.818	5.52
302.031	5.79
302.243	5.7
302.456	5.77
302.669	5.68
302.881	5.83
303.094	6.02
303.307	6.01
303.519	5.93
303.732	6.06
303.944	6.49
304.157	6.34
304.37	6.21
304.582	6.38
304.795	6.36
305.007	6.44
305.22	6.54
305.432	6.45
305.645	6.46
305.857	6.49
306.069	6.54
306.282	6.26
306.494	6.5
306.707	6.37
306.919	6.5
307.132	6.4
307.344	6.27
307.556	6.13
307.769	6.03
307.981	5.98
308.193	6.07
308.406	5.82
308.618	5.92
308.83	5.8
309.043	6
309.255	5.93
309.467	5.99
309.679	6.25
309.892	6.2
310.104	6.26
310.316	6.36
310.528	6.26
310.74	6.56
310.953	6.66
311.165	6.79
311.377	6.67
311.589	6.76
311.801	6.78
312.013	6.71
312.225	6.8
312.437	6.99
312.649	6.91
312.862	6.98
313.074	6.95
313.286	6.7
313.498	6.55
313.71	7.08
313.922	6.89
314.134	6.95
314.346	6.99
314.558	7.13
314.77	6.91
314.982	6.85
315.193	6.89
315.405	6.76
315.617	7.01
315.829	7.15
316.041	6.86
316.253	6.97
316.465	6.98
316.677	6.95
316.888	6.82
317.1	6.99
317.312	7.41
317.524	7.66
317.736	7.75
317.947	8.11
318.159	8.37
318.371	8.56
318.583	8.84
318.794	9.15
319.006	9.65
319.218	9.83
319.43	9.82
319.641	9.75
319.853	9.81
320.064	9.99
320.276	9.89
320.488	9.86
320.699	9.8
320.911	9.78
321.123	9.79
321.334	9.56
321.546	9.48
321.757	9.6
321.969	9.63
322.18	9.56
322.392	9.54
322.603	9.62
322.815	9.78
323.026	9.95
323.238	10.08
323.449	10.29
323.661	10.32
323.872	10.78
324.083	10.99
324.295	11.12
324.506	11.31
324.718	11.58
324.929	11.89
325.14	12.19
325.352	12.48
325.563	12.83
325.774	12.96
325.986	13.24
326.197	13.26
326.408	13.43
326.62	13.79
326.831	14.1
327.042	14.38
327.253	14.56
327.464	14.7
327.676	14.84
327.887	15.05
328.098	15.25
328.309	15.56
328.52	15.99
328.732	16.64
328.943	17.05
329.154	17.53
329.365	17.8
329.576	18.17
329.787	18.6
329.998	18.95
330.209	19.39
330.42	19.8
330.631	20.24
330.842	20.65
331.053	20.83
331.264	20.95
331.475	21.06
331.686	21.45
331.897	21.67
332.108	21.79
332.319	22.11
332.53	22.33
332.741	22.48
332.952	22.48
333.163	22.53
333.374	22.93
333.585	22.95
333.795	23.12
334.006	23.26
334.217	23.29
334.428	23.62
334.639	23.71
334.849	23.71
335.06	23.92
335.271	24.12
335.482	24.31
335.692	24.17
335.903	24.29
336.114	24.34
336.325	24.51
336.535	24.68
336.746	24.53
336.957	24.59
337.167	24.73
337.378	24.76
337.589	25
337.799	25.06
338.01	25.21
338.22	25.47
338.431	25.55
338.642	25.59
338.852	25.57
339.063	25.71
339.273	25.68
339.484	25.76
339.694	25.73
339.905	25.38
340.115	25.39
340.326	25.28
340.536	25.3
340.746	25.46
340.957	25.42
341.167	25.47
341.378	25.51
341.588	25.74
341.799	25.7
342.009	25.64
342.219	25.92
342.43	25.82
342.64	25.9
342.85	25.82
343.061	25.67
343.271	25.74
343.481	25.92
343.691	25.88
343.902	25.84
344.112	25.81
344.322	25.89
344.532	25.73
344.743	25.91
344.953	25.69
345.163	25.78
345.373	25.89
345.583	25.61
345.793	25.42
346.004	25.35
346.214	25.3
346.424	25.3
346.634	25.47
346.844	25.55
347.054	25.39
347.264	25.75
347.474	25.59
347.684	25.62
347.894	25.64
348.104	25.59
348.314	25.58
348.524	25.6
348.734	25.63
348.944	25.46
349.154	25.34
349.364	25.38
349.574	25.23
349.784	25.3
349.994	25.11
350.204	25.27
350.413	25.31
350.623	25.42
350.833	25.15
351.043	25
351.253	24.99
351.463	24.95
351.672	24.75
351.882	24.58
352.092	24.52
352.302	24.54
352.511	24.29
352.721	24.33
352.931	24.29
353.141	24.39
353.35	24.35
353.56	24.35
353.77	24.44
353.979	24.65
354.189	24.68
354.399	24.8
354.608	24.77
354.818	24.79
355.027	24.82
355.237	24.68
355.447	24.68
355.656	24.69
355.866	24.69
356.075	24.7
356.285	24.51
356.494	24.6
356.704	24.5
356.913	24.44
357.123	24.37
357.332	24.34
357.542	24.5
357.751	24.46
357.96	24.41
358.17	24.43
358.379	24.43
358.589	24.43
358.798	24.27
359.007	24.2
359.217	24.14
359.426	24.26
359.635	24.07
359.845	23.93
360.054	23.77
360.263	23.73
360.472	23.55
360.682	23.46
360.891	23.49
361.1	23.55
361.309	23.56
361.519	23.69
361.728	23.7
361.937	23.79
362.146	23.82
362.355	23.94
362.564	24
362.774	24.06
362.983	24
363.192	23.95
363.401	23.87
363.61	23.77
363.819	23.7
364.028	23.67
364.237	23.51
364.446	23.46
364.655	23.41
364.864	23.33
365.073	23.29
365.282	23.31
365.491	23.25
365.7	23.24
365.909	23.19
366.118	23.1
366.327	22.96
366.536	22.98
366.745	22.9
366.954	22.86
367.162	22.75
367.371	22.79
367.58	22.79
367.789	22.61
367.998	22.55
368.207	22.59
368.415	22.5
368.624	22.49
368.833	22.48
369.042	22.53
369.25	22.51
369.459	22.53
369.668	22.48
369.877	22.44
370.085	22.48
370.294	22.47
370.503	22.45
370.711	22.51
370.92	22.38
371.129	22.36
371.337	22.31
371.546	22.14
371.754	22.13
371.963	22.03
372.171	21.98
372.38	21.89
372.589	21.83
372.797	21.72
373.006	21.57
373.214	21.5
373.423	21.41
373.631	21.2
373.84	21.35
374.048	21.18
374.256	21.14
374.465	21.04
374.673	21.01
374.882	20.94
375.09	20.87
375.298	20.82
375.507	20.86
375.715	20.88
375.923	20.89
376.132	20.68
376.34	20.6
376.548	20.52
376.757	20.57
376.965	20.64
377.173	20.64
377.381	20.63
377.59	20.57
377.798	20.53
378.006	20.4
378.214	20.35
378.423	20.44
378.631	20.5
378.839	20.48
379.047	20.38
379.255	20.27
379.463	20.14
379.671	20.03
379.879	20.05
380.088	20.01
380.296	20.03
380.504	20.08
380.712	19.99
380.92	20.01
381.128	19.91
381.336	20.01
381.544	20.04
381.752	20.03
381.96	20.03
382.168	20.06
382.376	19.88
382.584	19.85
382.791	19.73
382.999	19.59
383.207	19.42
383.415	19.39
383.623	19.2
383.831	19.07
384.039	18.99
384.247	19.04
384.454	19.02
384.662	19.09
384.87	19.02
385.078	18.97
385.285	19.04
385.493	19.06
385.701	19.12
385.909	19.09
386.116	19.01
386.324	19.05
386.532	18.94
386.739	18.74
386.947	18.7
387.155	18.63
387.362	18.64
387.57	18.67
387.778	18.58
387.985	18.52
388.193	18.55
388.4	18.69
388.608	18.55
388.816	18.42
389.023	18.44
389.231	18.41
389.438	18.38
389.646	18.24
389.853	18.03
390.061	17.97
390.268	17.81
390.475	17.59
390.683	17.37
390.89	17.4
391.098	17.4
391.305	17.34
391.512	17.22
391.72	17.19
391.927	17.14
392.135	17.14
392.342	17.14
392.549	17.1
392.756	17.11
392.964	17.14
393.171	17.16
393.378	17.1
393.586	17.08
393.793	17.12
394	17.01
394.207	17.06
394.414	17.07
394.622	17.09
394.829	17.01
395.036	16.89
395.243	16.85
395.45	16.68
395.657	16.64
395.864	16.53
396.072	16.5
396.279	16.49
396.486	16.39
396.693	16.36
396.9	16.32
397.107	16.34
397.314	16.44
397.521	16.31
397.728	16.26
397.935	16.25
398.142	16.22
398.349	16.14
398.556	16.16
398.763	16.12
398.97	15.96
399.177	15.89
399.383	15.86
399.59	15.79
399.797	15.77
400.004	15.76
400.211	15.61
400.418	15.6
400.625	15.48
400.831	15.33
401.038	15.22
401.245	15.21
401.452	15.08
401.658	14.96
401.865	14.94
402.072	14.95
402.279	14.91
402.485	14.92
402.692	14.86
402.899	14.88
403.105	14.9
403.312	14.92
403.519	14.91
403.725	14.96
403.932	15.03
404.138	14.99
404.345	14.93
404.552	14.91
404.758	14.99
404.965	14.91
405.171	14.84
405.378	14.78
405.584	14.78
405.791	14.69
405.997	14.64
406.204	14.55
406.41	14.54
406.617	14.58
406.823	14.54
407.029	14.45
407.236	14.52
407.442	14.57
407.649	14.69
407.855	14.65
408.061	14.7
408.268	14.64
408.474	14.64
408.68	14.58
408.887	14.46
409.093	14.42
409.299	14.41
409.505	14.32
409.712	14.31
409.918	14.14
410.124	14.14
410.33	13.99
410.537	13.96
410.743	14.02
410.949	14.03
411.155	14.14
411.361	14.11
411.567	14
411.773	13.9
411.98	13.81
412.186	13.8
412.392	13.69
412.598	13.79
412.804	13.73
413.01	13.56
413.216	13.44
413.422	13.38
413.628	13.4
413.834	13.38
414.04	13.39
414.246	13.34
414.452	13.25
414.658	13.24
414.864	13.21
415.07	13.2
415.275	13.19
415.481	13.18
415.687	13.02
415.893	12.96
416.099	12.97
416.305	13
416.511	13
416.716	12.94
416.922	12.9
417.128	12.82
417.334	12.79
417.539	12.72
417.745	12.72
417.951	12.74
418.157	12.74
418.362	12.72
418.568	12.68
418.774	12.6
418.979	12.59
419.185	12.55
419.391	12.55
419.596	12.54
419.802	12.55
420.008	12.47
420.213	12.79
420.419	12.73
420.624	12.69
420.83	12.67
421.035	12.73
421.241	12.75
421.446	12.76
421.652	12.71
421.857	12.67
422.063	12.61
422.268	12.59
422.474	12.24
422.679	12.2
422.885	12.15
423.09	12.12
423.295	12.06
423.501	12.04
423.706	11.99
423.911	12.02
424.117	12
424.322	12.05
424.527	12.09
424.733	12.05
424.938	12.06
425.143	12.09
425.349	12.06
425.554	12.07
425.759	12.08
425.964	12.09
426.169	12.06
426.375	12.05
426.58	11.97
426.785	11.9
426.99	11.94
427.195	11.94
427.4	11.89
427.605	11.88
427.811	11.85
428.016	11.8
428.221	11.78
428.426	11.74
428.631	11.73
428.836	11.69
429.041	11.71
429.246	11.71
429.451	11.72
429.656	11.75
429.861	11.77
430.066	11.78
430.271	11.75
430.476	11.73
430.681	11.71
430.886	11.7
431.09	11.75
431.295	11.7
431.5	11.67
431.705	11.66
431.91	11.64
432.115	11.62
432.32	11.62
432.524	11.6
432.729	11.58
432.934	11.6
433.139	11.66
433.343	11.69
433.548	11.72
433.753	11.73
433.958	11.71
434.162	11.7
434.367	11.75
434.572	11.73
434.776	11.77
434.981	11.79
435.186	11.73
435.39	11.69
435.595	11.69
435.799	11.67
436.004	11.61
436.209	11.63
436.413	11.61
436.618	11.52
436.822	11.47
437.027	11.43
437.231	11.41
437.436	11.45
437.64	11.42
437.845	11.39
438.049	11.36
438.253	11.36
438.458	11.34
438.662	11.35
438.867	11.37
439.071	11.42
439.275	11.43
439.48	11.44
439.684	11.43
439.888	11.4
440.093	11.37
440.297	11.41
440.501	11.42
440.706	11.38
440.91	11.42
441.114	11.4
441.318	11.39
441.523	11.38
441.727	11.4
441.931	11.44
442.135	11.47
442.339	11.48
442.543	11.45
442.748	11.47
442.952	11.49
443.156	11.42
443.36	11.4
443.564	11.39
443.768	11.39
443.972	11.31
444.176	11.25
444.38	11.24
444.584	11.25
444.788	11.2
444.992	11.15
445.196	11.11
445.4	11.12
445.604	11.12
445.808	11.07
446.012	11.05
446.216	11.05
446.42	11.01
446.624	10.97
446.828	10.93
447.032	10.96
447.235	10.94
447.439	10.99
447.643	10.96
447.847	10.99
448.051	10.97
448.254	10.99
448.458	10.99
448.662	11.04
448.866	11
449.069	11.04
449.273	11.06
449.477	11.09
449.681	11.05
449.884	11.05
450.088	10.98
450.292	11.04
450.495	11.02
450.699	11.08
450.902	11.07
451.106	11.1
451.31	11.07
451.513	11.01
451.717	10.94
451.92	10.91
452.124	10.9
452.327	10.92
452.531	10.87
452.734	10.85
452.938	10.76
453.141	10.72
453.345	10.75
453.548	10.73
453.752	10.73
453.955	10.8
454.158	10.75
454.362	10.74
454.565	10.7
454.769	10.69
454.972	10.68
455.175	10.67
455.379	10.65
455.582	10.57
455.785	10.59
455.988	10.56
456.192	10.51
456.395	10.51
456.598	10.48
456.801	10.49
457.005	10.52
457.208	10.49
457.411	10.51
457.614	10.5
457.817	10.55
458.021	10.51
458.224	10.53
458.427	10.54
458.63	10.54
458.833	10.53
459.036	10.54
459.239	10.53
459.442	10.53
459.645	10.52
459.848	10.54
460.051	10.51
460.254	10.51
460.457	10.51
460.66	10.51
460.863	10.54
461.066	10.61
461.269	10.64
461.472	10.67
461.675	10.73
461.878	10.78
462.081	10.79
462.284	10.85
462.486	10.92
462.689	10.93
462.892	10.95
463.095	10.95
463.298	10.91
463.5	10.92
463.703	10.91
463.906	10.89
464.109	10.89
464.311	10.92
464.514	10.93
464.717	10.98
464.92	11.02
465.122	11.05
465.325	11.12
465.528	11.11
465.73	11.14
465.933	11.12
466.135	11.17
466.338	11.18
466.541	11.16
466.743	11.15
466.946	11.11
467.148	11.14
467.351	11.1
467.553	11.06
467.756	11.14
467.958	11.15
468.161	11.18
468.363	11.14
468.566	11.12
468.768	11.12
468.971	11.09
469.173	11.11
469.375	11.07
469.578	11.15
469.78	11.17
469.983	11.14
470.185	11.1
470.387	11.11
470.59	11.12
470.792	11.17
470.994	11.2
471.196	11.26
471.399	11.26
471.601	11.28
471.803	11.25
472.005	11.24
472.208	11.27
472.41	11.31
472.612	11.32
472.814	11.33
473.016	11.31
473.218	11.3
473.421	11.26
473.623	11.26
473.825	11.24
474.027	11.28
474.229	11.21
474.431	11.16
474.633	11.13
474.835	11.14
475.037	11.09
475.239	11.1
475.441	11.12
475.643	11.12
475.845	11.12
476.047	11.14
476.249	11.09
476.451	11.17
476.653	11.2
476.855	11.19
477.057	11.17
477.258	11.21
477.46	11.21
477.662	11.21
477.864	11.23
478.066	11.2
478.268	11.22
478.469	11.28
478.671	11.24
478.873	11.14
479.075	11.14
479.276	11.11
479.478	11.06
479.68	11
479.882	11.02
480.083	11.02
480.285	11.03
480.487	10.98
480.688	10.92
480.89	10.92
481.091	10.96
481.293	10.94
481.495	10.9
481.696	10.85
481.898	10.81
482.099	10.76
482.301	10.71
482.502	10.68
482.704	10.67
482.905	10.66
483.107	10.64
483.308	10.63
483.51	10.63
483.711	10.66
483.913	10.68
484.114	10.7
484.315	10.71
484.517	10.76
484.718	10.78
484.92	10.78
485.121	10.8
485.322	10.82
485.524	10.83
485.725	10.82
485.926	10.8
486.127	10.78
486.329	10.77
486.53	10.78
486.731	10.75
486.932	10.74
487.134	10.75
487.335	10.74
487.536	10.75
487.737	10.75
487.938	10.77
488.139	10.78
488.341	10.81
488.542	10.84
488.743	10.85
488.944	10.87
489.145	10.9
489.346	10.93
489.547	10.93
489.748	10.94
489.949	10.96
490.15	10.96
490.351	10.97
490.552	10.96
490.753	10.96
490.954	10.96
491.155	10.96
491.356	10.96
491.557	10.98
491.758	11.02
491.959	11.04
492.159	11.02
492.36	11.06
492.561	11.07
492.762	11.12
492.963	11.15
493.164	11.2
493.364	11.24
493.565	11.28
493.766	11.32
493.967	11.33
494.167	11.36
494.368	11.42
494.569	11.42
494.769	11.46
494.97	11.46
495.171	11.5
495.371	11.5
495.572	11.54
495.773	11.59
495.973	11.6
496.174	11.61
496.375	11.66
496.575	11.7
496.776	11.74
496.976	11.78
497.177	11.86
497.377	11.86
497.578	11.91
497.778	11.92
497.979	11.94
498.179	11.99
498.38	12.01
498.58	12.05
498.78	12.09
498.981	12.14
499.181	12.19
499.382	12.21
499.582	12.27
499.782	12.34
499.983	12.39
500.183	12.44
500.383	12.45
500.584	12.52
500.784	12.55
500.984	12.61
501.184	12.63
501.385	12.67
501.585	12.72
501.785	12.8
501.985	12.84
502.185	12.86
502.386	12.92
502.586	13.01
502.786	13.11
502.986	13.18
503.186	13.23
503.386	13.28
503.586	13.33
503.786	13.36
503.987	13.4
504.187	13.46
504.387	13.61
504.587	13.7
504.787	13.75
504.987	13.76
505.187	13.82
505.387	13.85
505.587	13.93
505.786	14.02
505.986	14.08
506.186	14.14
506.386	14.2
506.586	14.2
506.786	14.24
506.986	14.3
507.186	14.39
507.386	14.49
507.585	14.59
507.785	14.61
507.985	14.72
508.185	14.79
508.384	14.84
508.584	14.89
508.784	14.94
508.984	15
509.183	15.06
509.383	15.15
509.583	15.19
509.782	15.28
509.982	15.39
510.182	15.38
510.381	15.46
510.581	15.56
510.781	15.65
510.98	15.76
511.18	15.81
511.379	15.9
511.579	15.96
511.778	15.99
511.978	16.01
512.177	16.08
512.377	16.22
512.576	16.29
512.776	16.38
512.975	16.46
513.175	16.57
513.374	16.71
513.573	16.84
513.773	16.94
513.972	17.08
514.172	17.2
514.371	17.33
514.57	17.41
514.77	17.5
514.969	17.55
515.168	17.65
515.367	17.73
515.567	17.76
515.766	17.79
515.965	17.83
516.164	17.92
516.364	17.98
516.563	18.02
516.762	18.07
516.961	18.13
517.16	18.21
517.359	18.28
517.559	18.33
517.758	18.44
517.957	18.5
518.156	18.61
518.355	18.68
518.554	18.73
518.753	18.79
518.952	18.83
519.151	18.94
519.35	19.02
519.549	19.1
519.748	19.19
519.947	19.23
520.146	19.33
520.345	19.41
520.544	19.51
520.743	19.62
520.942	19.73
521.141	19.84
521.339	19.88
521.538	19.95
521.737	20.05
521.936	20.12
522.135	20.22
522.333	20.27
522.532	20.29
522.731	20.32
522.93	20.35
523.129	20.43
523.327	20.51
523.526	20.55
523.725	20.61
523.923	20.63
524.122	20.67
524.321	20.72
524.519	20.76
524.718	20.79
524.917	20.84
525.115	20.9
525.314	20.94
525.512	20.96
525.711	21.05
525.909	21.09
526.108	21.1
526.306	21.15
526.505	21.16
526.703	21.2
526.902	21.26
527.1	21.28
527.299	21.29
527.497	21.32
527.696	21.37
527.894	21.39
528.092	21.44
528.291	21.48
528.489	21.53
528.688	21.59
528.886	21.66
529.084	21.7
529.283	21.79
529.481	21.87
529.679	21.91
529.877	21.97
530.076	22.04
530.274	22.12
530.472	22.22
530.67	22.29
530.869	22.33
531.067	22.36
531.265	22.4
531.463	22.46
531.661	22.49
531.859	22.55
532.057	22.61
532.255	22.62
532.454	22.64
532.652	22.66
532.85	22.67
533.048	22.72
533.246	22.76
533.444	22.82
533.642	22.83
533.84	22.88
534.038	22.92
534.236	23
534.434	23.07
534.632	23.11
534.83	23.15
535.027	23.2
535.225	23.21
535.423	23.29
535.621	23.32
535.819	23.37
536.017	23.42
536.215	23.44
536.412	23.43
536.61	23.49
536.808	23.54
537.006	23.61
537.203	23.66
537.401	23.76
537.599	23.76
537.797	23.81
537.994	23.87
538.192	23.9
538.39	24.01
538.587	24.01
538.785	24.07
538.983	24.09
539.18	24.09
539.378	24.13
539.575	24.12
539.773	24.16
539.97	24.15
540.168	24.14
540.366	24.16
540.563	24.16
540.761	24.2
540.958	24.19
541.155	24.22
541.353	24.26
541.55	24.26
541.748	24.31
541.945	24.34
542.143	24.39
542.34	24.41
542.537	24.47
542.735	24.51
542.932	24.55
543.129	24.58
543.327	24.67
543.524	24.74
543.721	24.83
543.919	24.89
544.116	24.93
544.313	25.01
544.51	25.08
544.708	25.12
544.905	25.21
545.102	25.23
545.299	25.27
545.496	25.24
545.693	25.25
545.891	25.23
546.088	25.25
546.285	25.26
546.482	25.26
546.679	25.29
546.876	25.31
547.073	25.32
547.27	25.42
547.467	25.46
547.664	25.49
547.861	25.56
548.058	25.58
548.255	25.65
548.452	25.72
548.649	25.73
548.846	25.78
549.043	25.72
549.24	25.77
549.437	25.72
549.633	25.78
549.83	25.86
550.027	25.88
550.224	25.89
550.421	25.9
550.618	25.91
550.814	25.97
551.011	26.01
551.208	26.13
551.405	26.12
551.601	26.21
551.798	26.21
551.995	26.17
552.191	26.16
552.388	26.23
552.585	26.28
552.781	26.31
552.978	26.39
553.175	26.37
553.371	26.39
553.568	26.42
553.764	26.41
553.961	26.44
554.157	26.55
554.354	26.6
554.55	26.73
554.747	26.69
554.943	26.73
555.14	26.73
555.336	26.79
555.533	26.81
555.729	26.87
555.926	26.85
556.122	26.87
556.318	26.91
556.515	26.9
556.711	26.84
556.907	26.92
557.104	26.96
557.3	26.96
557.496	27
557.693	27
557.889	26.97
558.085	27.06
558.281	27.16
558.478	27.15
558.674	27.26
558.87	27.23
559.066	27.21
559.262	27.24
559.459	27.29
559.655	27.28
559.851	27.31
560.047	27.29
560.243	27.33
560.439	27.28
560.635	27.31
560.831	27.22
561.027	27.31
561.223	27.38
561.419	27.45
561.615	27.43
561.811	27.42
562.007	27.43
562.203	27.47
562.399	27.52
562.595	27.5
562.791	27.47
562.987	27.53
563.183	27.53
563.379	27.49
563.575	27.47
563.771	27.54
563.966	27.54
564.162	27.56
564.358	27.62
564.554	27.55
564.75	27.56
564.945	27.62
565.141	27.64
565.337	27.58
565.533	27.64
565.728	27.62
565.924	27.59
566.12	27.67
566.315	27.73
566.511	27.77
566.707	27.85
566.902	27.88
567.098	27.92
567.293	27.94
567.489	27.98
567.684	27.98
567.88	27.96
568.076	28.02
568.271	28
568.467	27.97
568.662	27.97
568.858	27.99
569.053	27.98
569.248	27.99
569.444	27.97
569.639	28
569.835	28.02
570.03	28.11
570.225	28.07
570.421	28.11
570.616	28.15
570.812	28.16
571.007	28.15
571.202	28.18
571.397	28.22
571.593	28.28
571.788	28.3
571.983	28.33
572.178	28.32
572.374	28.32
572.569	28.39
572.764	28.32
572.959	28.32
573.154	28.31
573.35	28.35
573.545	28.3
573.74	28.32
573.935	28.34
574.13	28.36
574.325	28.37
574.52	28.41
574.715	28.31
574.91	28.39
575.105	28.44
575.3	28.51
575.495	28.51
575.69	28.56
575.885	28.56
576.08	28.54
576.275	28.55
576.47	28.59
576.665	28.61
576.86	28.7
577.055	28.77
577.25	28.79
577.444	28.81
577.639	28.85
577.834	28.85
578.029	28.91
578.224	28.95
578.418	28.94
578.613	28.97
578.808	29.04
579.003	29.09
579.197	29.09
579.392	29.04
579.587	29.05
579.781	29.01
579.976	29.03
580.171	28.98
580.365	29
580.56	29.01
580.755	28.98
580.949	28.95
581.144	28.94
581.338	28.92
581.533	28.92
581.727	28.94
581.922	29.05
582.116	29.07
582.311	29.08
582.505	29.11
582.7	29.14
582.894	29.23
583.089	29.26
583.283	29.25
583.478	29.27
583.672	29.32
583.866	29.34
584.061	29.3
584.255	29.34
584.449	29.41
584.644	29.42
584.838	29.45
585.032	29.44
585.226	29.49
585.421	29.52
585.615	29.47
585.809	29.51
586.003	29.48
586.198	29.55
586.392	29.51
586.586	29.52
586.78	29.55
586.974	29.55
587.168	29.54
587.363	29.51
587.557	29.5
587.751	29.55
587.945	29.54
588.139	29.53
588.333	29.49
588.527	29.54
588.721	29.55
588.915	29.52
589.109	29.53
589.303	29.49
589.497	29.52
589.691	29.54
589.885	29.61
590.079	29.62
590.273	29.67
590.466	29.71
590.66	29.7
590.854	29.73
591.048	29.7
591.242	29.67
591.436	29.7
591.629	29.69
591.823	29.75
592.017	29.71
592.211	29.69
592.404	29.71
592.598	29.66
592.792	29.67
592.986	29.66
593.179	29.73
593.373	29.79
593.567	29.78
593.76	29.78
593.954	29.67
594.147	29.71
594.341	29.73
594.535	29.76
594.728	29.8
594.922	29.81
595.115	29.76
595.309	29.73
595.502	29.73
595.696	29.72
595.889	29.72
596.083	29.79
596.276	29.73
596.47	29.73
596.663	29.73
596.856	29.71
597.05	29.72
597.243	29.79
597.437	29.86
597.63	29.83
597.823	29.92
598.017	29.97
598.21	29.9
598.403	29.99
598.596	30.01
598.79	29.99
598.983	30.1
599.176	30.12
599.369	30.11
599.563	30.08
599.756	30.11
599.949	30.01
600.142	29.99
600.335	30.06
600.528	29.99
600.722	30.01
600.915	30.02
601.108	29.96
601.301	29.93
601.494	29.95
601.687	29.98
601.88	30
602.073	30.05
602.266	30.07
602.459	30.05
602.652	30.04
602.845	30.03
603.038	30.02
603.231	29.99
603.424	29.99
603.617	29.94
603.809	29.94
604.002	29.97
604.195	29.98
604.388	29.98
604.581	29.95
604.774	30.04
604.966	30.09
605.159	30.1
605.352	30.15
605.545	30.19
605.737	30.29
605.93	30.26
606.123	30.25
606.316	30.28
606.508	30.23
606.701	30.38
606.894	30.4
607.086	30.41
607.279	30.35
607.471	30.41
607.664	30.4
607.857	30.34
608.049	30.45
608.242	30.5
608.434	30.51
608.627	30.61
608.819	30.61
609.012	30.59
609.204	30.62
609.397	30.78
609.589	30.81
609.782	30.9
609.974	31.02
610.166	31.06
610.359	31.1
610.551	31.1
610.743	31.19
610.936	31.17
611.128	31.2
611.32	31.13
611.513	31.05
611.705	31.07
611.897	31
612.09	30.96
612.282	30.9
612.474	30.82
612.666	30.85
612.858	30.7
613.051	30.74
613.243	30.68
613.435	30.76
613.627	30.79
613.819	30.73
614.011	30.72
614.203	30.59
614.395	30.49
614.588	30.47
614.78	30.47
614.972	30.52
615.164	30.49
615.356	30.5
615.548	30.46
615.74	30.45
615.932	30.44
616.124	30.41
616.315	30.48
616.507	30.53
616.699	30.56
616.891	30.45
617.083	30.45
617.275	30.47
617.467	30.46
617.659	30.43
617.85	30.44
618.042	30.44
618.234	30.44
618.426	30.44
618.618	30.5
618.809	30.49
619.001	30.57
619.193	30.6
619.384	30.57
619.576	30.6
619.768	30.71
619.959	30.65
620.151	30.61
620.343	30.66
620.534	30.69
620.726	30.72
620.917	30.81
621.109	30.83
621.301	30.75
621.492	30.66
621.684	30.58
621.875	30.51
622.067	30.55
622.258	30.55
622.45	30.5
622.641	30.54
622.832	30.46
623.024	30.42
623.215	30.33
623.407	30.34
623.598	30.38
623.789	30.41
623.981	30.37
624.172	30.5
624.363	30.48
624.555	30.52
624.746	30.47
624.937	30.4
625.129	30.41
625.32	30.48
625.511	30.52
625.702	30.55
625.893	30.57
626.085	30.61
626.276	30.51
626.467	30.49
626.658	30.49
626.849	30.53
627.04	30.59
627.231	30.59
627.422	30.62
627.614	30.63
627.805	30.69
627.996	30.69
628.187	30.71
628.378	30.74
628.569	30.82
628.76	30.78
628.951	30.78
629.142	30.78
629.332	30.79
629.523	30.74
629.714	30.77
629.905	30.72
630.096	30.72
630.287	30.75
630.478	30.71
630.669	30.75
630.859	30.84
631.05	30.77
631.241	30.81
631.432	30.77
631.623	30.83
631.813	30.71
632.004	30.66
632.195	30.71
632.385	30.59
632.576	30.6
632.767	30.53
632.957	30.49
633.148	30.57
633.339	30.58
633.529	30.64
633.72	30.59
633.91	30.57
634.101	30.67
634.292	30.6
634.482	30.62
634.673	30.66
634.863	30.66
635.054	30.59
635.244	30.53
635.435	30.54
635.625	30.47
635.815	30.49
636.006	30.61
636.196	30.6
636.387	30.69
636.577	30.75
636.767	30.72
636.958	30.75
637.148	30.76
637.338	30.78
637.529	30.8
637.719	30.75
637.909	30.7
638.099	30.73
638.29	30.75
638.48	30.84
638.67	30.87
638.86	30.8
639.05	30.75
639.241	30.81
639.431	30.81
639.621	30.69
639.811	30.83
640.001	30.79
640.191	30.72
640.381	30.66
640.571	30.5
640.761	30.48
640.951	30.56
641.141	30.59
641.331	30.58
641.521	30.53
641.711	30.63
641.901	30.53
642.091	30.59
642.281	30.59
642.471	30.57
642.661	30.61
642.851	30.69
643.041	30.64
643.231	30.66
643.42	30.67
643.61	30.71
643.8	30.7
643.99	30.8
644.18	30.81
644.369	30.84
644.559	30.94
644.749	30.91
644.939	30.78
645.128	30.73
645.318	30.78
645.508	30.75
645.697	30.76
645.887	30.71
646.076	30.69
646.266	30.73
646.456	30.8
646.645	30.74
646.835	30.72
647.024	30.7
647.214	30.73
647.403	30.67
647.593	30.82
647.782	30.9
647.972	30.92
648.161	30.88
648.351	30.87
648.54	30.77
648.73	30.81
648.919	30.94
649.108	30.96
649.298	30.92
649.487	30.86
649.677	30.71
649.866	30.56
650.055	30.6
650.244	30.57
650.434	30.53
650.623	30.59
650.812	30.51
651.002	30.41
651.191	30.38
651.38	30.46
651.569	30.54
651.758	30.52
651.947	30.56
652.137	30.48
652.326	30.39
652.515	30.41
652.704	30.34
652.893	30.44
653.082	30.47
653.271	30.68
653.46	30.65
653.649	30.69
653.838	30.76
654.027	30.82
654.216	30.9
654.405	31.03
654.594	31
654.783	30.96
654.972	30.97
655.161	30.94
655.35	30.8
655.539	30.76
655.728	30.72
655.916	30.65
656.105	30.61
656.294	30.51
656.483	30.46
656.672	30.54
656.86	30.68
657.049	30.61
657.238	30.6
657.427	30.53
657.615	30.61
657.804	30.54
657.993	30.54
658.181	30.54
658.37	30.56
658.559	30.63
658.747	30.57
658.936	30.48
659.125	30.35
659.313	30.4
659.502	30.44
659.69	30.35
659.879	30.37
660.067	30.46
660.256	30.53
660.444	30.66
660.633	30.68
660.821	30.62
661.01	30.7
661.198	30.86
661.387	30.79
661.575	30.79
661.763	30.9
661.952	30.91
662.14	30.86
662.328	30.82
662.517	30.69
662.705	30.63
662.893	30.73
663.082	30.67
663.27	30.64
663.458	30.65
663.646	30.63
663.834	30.66
664.023	30.64
664.211	30.72
664.399	30.76
664.587	30.81
664.775	30.73
664.963	30.79
665.152	30.71
665.34	30.75
665.528	30.79
665.716	30.92
665.904	30.8
666.092	30.86
666.28	30.85
666.468	30.75
666.656	30.74
666.844	30.9
667.032	30.8
667.22	30.87
667.408	30.81
667.596	30.86
667.784	30.76
667.971	30.87
668.159	30.88
668.347	30.89
668.535	30.88
668.723	30.9
668.911	30.9
669.098	30.93
669.286	30.98
669.474	31.11
669.662	31.03
669.849	31.1
670.037	31.05
670.225	30.97
670.413	30.94
670.6	31.09
670.788	31.11
670.976	31.03
671.163	31.08
671.351	31.03
671.538	30.97
671.726	31.07
671.913	31.05
672.101	30.99
672.289	31.08
672.476	31.06
672.664	31.03
672.851	31.01
673.039	31.01
673.226	30.91
673.413	30.93
673.601	30.97
673.788	30.86
673.976	30.81
674.163	30.83
674.35	30.68
674.538	30.76
674.725	30.74
674.912	30.72
675.1	30.76
675.287	30.84
675.474	30.89
675.662	30.92
675.849	30.99
676.036	30.99
676.223	30.92
676.411	30.93
676.598	30.89
676.785	30.83
676.972	30.87
677.159	30.84
677.346	30.84
677.533	30.82
677.721	30.79
677.908	30.77
678.095	30.82
678.282	30.96
678.469	31.02
678.656	30.95
678.843	31.05
679.03	31
679.217	31.11
679.404	31
679.591	30.93
679.778	30.85
679.964	30.82
680.151	30.83
680.338	30.71
680.525	30.74
680.712	30.75
680.899	30.69
681.086	30.77
681.272	30.63
681.459	30.77
681.646	30.86
681.833	30.92
682.02	30.92
682.206	30.84
682.393	30.81
682.58	30.76
682.766	30.64
682.953	30.52
683.14	30.44
683.326	30.48
683.513	30.42
683.7	30.4
683.886	30.47
684.073	30.56
684.259	30.58
684.446	30.69
684.632	30.74
684.819	30.77
685.005	31.08
685.192	31.1
685.378	31.13
685.565	31.03
685.751	31.02
685.938	30.97
686.124	30.9
686.31	30.99
686.497	31.02
686.683	31.23
686.87	31.34
687.056	31.02
687.242	31
687.429	30.85
687.615	30.9
687.801	30.93
687.987	30.94
688.174	30.88
688.36	30.92
688.546	30.87
688.732	30.58
688.918	30.6
689.105	30.94
689.291	30.86
689.477	30.98
689.663	31.11
689.849	31.04
690.035	31.1
690.221	31.16
690.407	31.1
690.593	31.06
690.779	31.25
690.965	31.24
691.151	31.16
691.337	31.31
691.523	31.34
691.709	31.17
691.895	31.36
692.081	31.29
692.267	31.4
692.453	31.39
692.639	31.52
692.825	31.34
693.011	31.38
693.196	31.31
693.382	31.39
693.568	31.31
693.754	31.26
693.94	31.01
694.125	31.11
694.311	31.02
694.497	31.03
694.682	30.86
694.868	31.03
695.054	31
695.239	30.92
695.425	30.73
695.611	30.84
695.796	30.96
695.982	31.09
696.168	30.92
696.353	30.84
696.539	30.78
696.724	30.77
696.91	30.72
697.095	30.54
697.281	30.53
697.466	30.59
697.652	30.42
697.837	30.43
698.023	30.39
698.208	30.49
698.393	30.59
698.579	30.63
698.764	30.69
698.949	30.67
699.135	30.82
699.32	30.93
699.505	30.85
699.691	30.99
699.876	30.97
700.061	30.93
700.246	30.84
700.432	30.8
700.617	30.75
700.802	30.82
700.987	30.84
701.172	30.85
701.358	30.65
701.543	30.8
701.728	30.84
701.913	30.8
702.098	30.87
702.283	30.91
702.468	31.05
702.653	30.93
702.838	30.91
703.023	30.85
703.208	30.73
703.393	30.83
703.578	30.82
703.763	30.81
703.948	30.81
704.133	30.81
704.318	30.7
704.503	30.64
704.688	30.75
704.873	30.76
705.057	31.07
705.242	31.18
705.427	31.29
705.612	31.28
705.797	31.42
705.981	31.57
706.166	31.66
706.351	31.75
706.536	31.76
706.72	31.81
706.905	31.84
707.09	31.64
707.274	31.62
707.459	31.49
707.644	31.5
707.828	31.39
708.013	31.37
708.197	31.3
708.382	31.36
708.567	31.29
708.751	31.28
708.936	31.2
709.12	31.25
709.305	31.24
709.489	31.43
709.673	31.38
709.858	31.44
710.042	31.55
710.227	31.58
710.411	31.44
710.596	31.47
710.78	31.37
710.964	31.43
711.149	31.43
711.333	31.4
711.517	31.31
711.702	31.42
711.886	31.34
712.07	31.15
712.254	31.19
712.438	31.18
712.623	31.16
712.807	31.29
712.991	31.16
713.175	31.09
713.359	31.14
713.544	31.1
713.728	31.1
713.912	30.99
714.096	31.1
714.28	30.94
714.464	31.07
714.648	30.98
714.832	31.11
715.016	31.18
715.2	31.24
715.384	31.13
715.568	31.21
715.752	31.08
715.936	31.16
716.12	31.13
716.304	31.25
716.488	31.07
716.671	31.09
716.855	30.99
717.039	30.87
717.223	30.7
717.407	30.64
717.59	30.6
717.774	30.63
717.958	30.62
718.142	30.65
718.325	30.52
718.509	30.62
718.693	30.52
718.877	30.37
719.06	30.48
719.244	30.57
719.428	30.74
719.611	30.75
719.795	30.64
719.978	30.8
720.162	30.66
720.345	30.7
720.529	30.65
720.713	30.87
720.896	30.98
721.08	31.07
721.263	31.02
721.446	30.98
721.63	30.99
721.813	31.07
721.997	30.91
722.18	30.95
722.364	31.02
722.547	31.23
722.73	31.22
722.914	31.06
723.097	31.16
723.28	31.38
723.464	31.49
723.647	31.45
723.83	31.38
724.013	31.26
724.197	31.21
724.38	31.22
724.563	31.15
724.746	31.2
724.929	31.33
725.112	31.43
725.296	31.28
725.479	31.17
725.662	31.12
725.845	31.23
726.028	31.22
726.211	31.23
726.394	31.24
726.577	31.25
726.76	31.07
726.943	30.98
727.126	30.82
727.309	30.75
727.492	30.81
727.675	30.84
727.858	30.78
728.041	30.81
728.224	31
728.407	30.98
728.589	31.01
728.772	31.21
728.955	31.28
729.138	31.36
729.321	31.36
729.503	31.52
729.686	31.52
729.869	31.7
730.052	31.74
730.234	31.74
730.417	31.78
730.6	31.67
730.782	31.48
730.965	31.55
731.148	31.27
731.33	31.42
731.513	31.12
731.695	30.88
731.878	30.75
732.061	30.79
732.243	30.66
732.426	30.58
732.608	30.82
732.791	30.85
732.973	30.72
733.156	30.96
733.338	30.94
733.52	31.09
733.703	31.32
733.885	31.34
734.068	31.33
734.25	31.26
734.432	31.39
734.615	31.31
734.797	31.37
734.979	31.3
735.162	31.23
735.344	31.01
735.526	30.94
735.708	31.08
735.891	31.11
736.073	31.16
736.255	31.24
736.437	31.18
736.619	30.91
736.802	30.8
736.984	31.06
737.166	31.18
737.348	31.25
737.53	31.22
737.712	30.96
737.894	31.05
738.076	31.06
738.258	31.08
738.44	31.04
738.622	31.13
738.804	31.18
738.986	31.15
739.168	30.93
739.35	31.07
739.532	31.15
739.714	31.2
739.896	31.08
740.078	31.16
740.259	31.32
740.441	31.4
740.623	31.5
740.805	31.63
740.987	31.65
741.168	31.52
741.35	31.62
741.532	31.66
741.714	31.56
741.895	31.61
742.077	31.4
742.259	31.13
742.44	31.08
742.622	31.06
742.804	31.1
742.985	30.95
743.167	31.4
743.348	31.32
743.53	31.24
743.711	31.33
743.893	31.34
744.075	31.32
744.256	31.45
744.438	31.55
744.619	31.5
744.8	31.17
744.982	31.23
745.163	31.08
745.345	30.91
745.526	30.91
745.707	31.32
745.889	31.12
746.07	31.28
746.252	31.12
746.433	30.78
746.614	30.91
746.795	31.21
746.977	31.31
747.158	31.12
747.339	31.15
747.52	31.3
747.702	31.22
747.883	31.27
748.064	31.06
748.245	31.09
748.426	31.24
748.607	31.2
748.788	31.08
748.97	31.02
749.151	31.31
749.332	31.37
749.513	31.48
749.694	31.33
749.875	31.44
750.056	31.55
750.237	31.48
750.418	31.36
750.599	30.98
750.78	30.89
750.96	30.71
751.141	30.61
751.322	30.83
751.503	30.62
751.684	30.58
751.865	30.76
752.046	30.9
752.226	31.18
752.407	31.45
752.588	31.69
752.769	32.22
752.949	32.28
753.13	31.97
753.311	31.69
753.492	31.51
753.672	31.54
753.853	31.14
754.034	31.1
754.214	31.23
754.395	31.07
754.575	31.4
754.756	31.04
754.937	30.98
755.117	31.31
755.298	31.45
755.478	31.9
755.659	32.06
755.839	32.11
756.02	32.27
756.2	31.89
756.381	31.6
756.561	31.3
756.741	31.82
756.922	32.01
757.102	31.9
757.283	31.81
757.463	31.45
757.643	31.26
757.823	31.24
758.004	30.92
758.184	31.16
758.364	31.94
758.545	31.88
758.725	31.26
758.905	31.1
759.085	31.33
759.265	31.52
759.446	31.45
759.626	31.47
759.806	31.6
759.986	31.68
760.166	31.28
760.346	30.84
760.526	30.73
760.706	30.91
760.886	31.06
761.066	30.99
761.246	30.89
761.426	31.05
761.606	30.84
761.786	30.75
761.966	30.88
762.146	31.19
762.326	31.35
762.506	31.54
762.686	31.62
762.866	31.56
763.046	31.43
763.225	31.52
763.405	31.35
763.585	31.41
763.765	31.49
763.945	31.44
764.124	31.23
764.304	31.3
764.484	31.26
764.664	31.11
764.843	31.19
765.023	31.3
765.203	31.15
765.382	31.54
765.562	31.71
765.741	31.74
765.921	31.82
766.101	32.04
766.28	31.82
766.46	31.71
766.639	31.98
766.819	31.64
766.998	31.69
767.178	32
767.357	32.07
767.537	32.04
767.716	32.29
767.896	32
768.075	31.97
768.254	32.08
768.434	32.21
768.613	32.09
768.792	32.41
768.972	32.54
769.151	32.09
769.33	31.84
769.51	32.08
769.689	32.12
769.868	32.57
770.047	32.8
770.226	32.76
770.406	32.93
770.585	32.62
770.764	32.36
770.943	32.08
771.122	32.55
771.301	32.61
771.48	32.87
771.66	32.56
771.839	32.42
772.018	32.48
772.197	32.43
772.376	32.24
772.555	32.29
772.734	32.7
772.913	32.51
773.092	32.32
773.271	32.31
773.449	31.82
773.628	31.71
773.807	31.6
773.986	31.09
774.165	31.24
774.344	31.45
774.523	31.57
774.701	31.28
774.88	31.4
775.059	31.13
775.238	31.04
775.417	30.87
775.595	30.84
775.774	31.17
775.953	31.51
776.131	31.19
776.31	30.96
776.489	30.9
776.667	30.98
776.846	31.11
777.025	31.34
777.203	31.51
777.382	31.68
777.56	31.71
777.739	31.27
777.917	31.29
778.096	31.21
778.274	31.41
778.453	31.57
778.631	31.36
778.81	31.53
778.988	31.28
779.166	31.21
779.345	31.11
779.523	31.22
779.702	31.34
779.88	31.21
780.058	31.7
780.237	31.51
780.415	31.44
780.593	31.59
780.771	31.26
780.95	31.29
781.128	31.52
781.306	32
781.484	32.06
781.662	32.15
781.841	32.2
782.019	31.81
782.197	31.97
782.375	31.91
782.553	32.08
782.731	32.66
782.909	32.87
783.087	32.93
783.265	32.95
783.443	32.79
783.621	32.68
783.799	32.86
783.977	32.88
784.155	32.7
784.333	32.58
784.511	32.81
784.689	32.54
784.867	32.89
785.045	31.97
785.223	31.85
785.4	31.33
785.578	31.51
785.756	31.44
785.934	31.54
786.112	31.63
786.289	31.86
786.467	31.51
786.645	31.58
786.823	31.08
787	31.39
787.178	31.58
787.356	31.89
787.533	31.74
787.711	31.81
787.889	31.85
788.066	31.77
788.244	31.83
788.421	31.88
788.599	31.74
788.776	31.72
788.954	31.77
789.131	31.64
789.309	32.07
789.486	31.96
789.664	31.97
789.841	31.85
790.019	31.6
790.196	31.42
790.373	31.38
790.551	31.15
790.728	31.38
790.906	31.44
791.083	30.14
791.26	29.54
791.437	29.34
791.615	29.18
791.792	29
791.969	29.28
792.146	29.04
792.324	29.18
792.501	29.68
792.678	29.45
792.855	29.47
793.032	30.36
793.209	30.69
793.387	31.21
793.564	30.91
793.741	31.08
793.918	31.22
794.095	31.68
794.272	32.17
794.449	31.87
794.626	31.68
794.803	31.52
794.98	31.42
795.157	31.79
795.334	31.74
795.511	31.97
795.688	31.74
795.864	31.52
796.041	31.65
796.218	31.38
796.395	31.63
796.572	32.07
796.749	32.34
796.925	32.64
797.102	32.63
797.279	32.64
797.456	33.03
797.632	33.28
797.809	33.54
797.986	33.01
798.162	33.23
798.339	33.17
798.516	33.13
798.692	33.56
798.869	33.77
799.046	33.04
799.222	33.11
799.399	32.58
799.575	33.37
799.752	32.81
799.928	32.92
800.105	32.46
800.281	31.97
800.458	32.06
800.634	31.41
800.811	31.33
800.987	31.84
801.163	31.63
801.34	31.99
801.516	31.82
801.692	32.41
801.869	32.97
802.045	32.92
802.221	33.65
802.398	33.27
802.574	33.65
802.75	33.4
802.926	33.12
803.103	32.62
803.279	32.83
803.455	32.34
803.631	32.88
803.807	32.3
803.983	32.72
804.16	32.47
804.336	32.31
804.512	31.78
804.688	33
804.864	33.48
805.04	34.3
805.216	33.83
805.392	33.71
805.568	33.13
805.744	33.74
805.92	33.38
806.096	32.9
806.272	33.15
806.448	33.15
806.623	31.1
806.799	30.64
806.975	30.43
807.151	30.31
807.327	30.35
807.503	30.54
807.678	30.07
807.854	30.12
808.03	30.22
808.206	29.76
808.381	30.3
808.557	30.78
808.733	30.9
808.908	30.49
809.084	31.06
809.26	31.26
809.435	31.26
809.611	31.16
809.787	30.81
809.962	30.18
810.138	30.34
810.313	30.53
810.489	30.61
810.664	30.57
810.84	30.51
811.015	30.34
811.191	29.57
811.366	29.08
811.542	29.42
811.717	29.81
811.892	31.48
812.068	32.31
812.243	31.31
812.419	31.33
812.594	31.72
812.769	32.63
812.944	32.14
813.12	32.26
813.295	32.77
813.47	33.25
813.645	33.49
813.821	32.98
813.996	32.28
814.171	32.47
814.346	33.11
814.521	33.24
814.697	32.96
814.872	33.17
815.047	33.44
815.222	33.1
815.397	32.44
815.572	32.17
815.747	32.42
815.922	32.46
816.097	32.48
816.272	32.06
816.447	31.56
816.622	31.63
816.797	31.29
816.972	31.85
817.147	32.01
817.322	31.96
817.496	32.04
817.671	31.72
817.846	31.97
818.021	32.03
818.196	31.91
818.371	32.28
818.545	33.04
818.72	33.04
818.895	32.34
819.069	32.16
819.244	32.39
819.419	32
819.594	31.74
819.768	31.46
819.943	31.69
820.117	31.74
820.292	31.63
820.467	31.2
820.641	31.36
820.816	31.77
820.99	31.76
821.165	31.66
821.339	31.83
821.514	31.86
821.688	31.98
821.863	31.95
822.037	31.87
822.212	31.93
822.386	31.99
822.56	31.9
822.735	31.7
822.909	31.72
823.084	31.78
823.258	31.88
823.432	31.98
823.606	32.12
823.781	32.13
823.955	32.34
824.129	32.1
824.303	32.2
824.478	32.26
824.652	32.36
824.826	32.35
825	32.34
825.174	31.92
825.348	31.52
825.523	31.44
825.697	31.4
825.871	31.31
826.045	31.55
826.219	31.56
826.393	31.62
826.567	31.94
826.741	32.18
826.915	32.18
827.089	32.29
827.263	32.7
827.437	32.52
827.611	32.82
827.784	32.76
827.958	32.77
828.132	32.72
828.306	32.75
828.48	32.58
828.654	32.26
828.827	32.13
829.001	32.17
829.175	31.98
829.349	32.37
829.522	32.25
829.696	32.36
829.87	32.68
830.044	32.73
830.217	33.47
830.391	32.94
830.565	33.58
830.738	33.43
830.912	33.76
831.085	33.73
831.259	34.27
831.432	33.67
831.606	33.77
831.779	33.59
831.953	33.33
832.126	32.59
832.3	32.92
832.473	32.6
832.647	32.62
832.82	32.6
832.994	32.64
833.167	31.88
833.34	32.13
833.514	31.88
833.687	31.8
833.86	31.85
834.034	32.15
834.207	31.88
834.38	31.74
834.553	31.84
834.727	31.57
834.9	31.4
835.073	31.5
835.246	30.95
835.419	31.19
835.593	31.77
835.766	31.6
835.939	31.71
836.112	31.88
836.285	31.76
836.458	31.56
836.631	31.96
836.804	31.44
836.977	31.97
837.15	32.57
837.323	32.86
837.496	31.78
837.669	32.33
837.842	32.15
838.015	32.1
838.188	32.02
838.361	32.6
838.533	32.42
838.706	33.14
838.879	32.1
839.052	32.26
839.225	32.07
839.398	32.5
839.57	32.2
839.743	31.27
839.916	32.15
840.088	32.35
840.261	32.55
840.434	31.96
840.607	31.6
840.779	32.64
840.952	32.7
841.124	32.02
841.297	32.31
841.47	32.53
841.642	33.42
841.815	31.44
841.987	31.13
842.16	31.09
842.332	31.87
842.505	32.2
842.677	31.68
842.85	31.62
843.022	31.57
843.194	31.9
843.367	31.4
843.539	31.82
843.712	33.76
843.884	34.7
844.056	33.98
844.229	34.55
844.401	35.04
844.573	35.66
844.745	35.17
844.918	37.08
845.09	37.04
845.262	37.34
845.434	37.5
845.606	38.14
845.779	38.05
845.951	39.13
846.123	37.69
846.295	36.97
846.467	36.83
846.639	37.73
846.811	36.94
846.983	35.83
847.155	36.2
847.327	37.59
847.499	36.87
847.671	36.3
847.843	35.51
848.015	34.31
848.187	36.34
848.359	34.81
848.531	34.55
848.703	33.29
848.875	34.8
849.047	34.09
849.218	32.2
849.39	31.53
849.562	32.63
849.734	30.65
849.905	33.57
850.077	33.03
850.249	34.57
850.421	34.48
850.592	34.63
850.764	34.51
850.936	34.75
851.107	33.63
851.279	35.42
851.451	34.78
851.622	36.86
851.794	36.06
851.965	35.54
852.137	34.83
852.308	33.28
852.48	34
852.651	31.88
852.823	32.92
852.994	35.28
853.166	35.5
853.337	37.46
853.509	37.03
853.68	37.85
853.851	37.59
854.023	37.75
854.194	38.57
854.365	39.59
854.537	42.04
854.708	41.06
854.879	36.93
855.05	35.35
855.222	33.69
855.393	32.13
855.564	30.65
855.735	30.11
855.906	30.25
856.078	31.59
856.249	32.47
856.42	30.04
856.591	30.68
856.762	35.89
856.933	35.32
857.104	34.49
857.275	37.36
857.446	38.7
857.617	36.37
857.788	35.36
857.959	32.05
858.13	32.74
858.301	32.3
858.472	32.3
858.643	30.73
858.814	30.36
858.985	30.67
859.155	31.35
859.326	31.14
859.497	33.02
859.668	33.52
859.839	36.77
860.009	34.21
860.18	32.36
860.351	32.66
860.522	33.14
860.692	35.34
860.863	35.06
861.034	34.23
861.204	34.18
861.375	34.02
861.546	35.1
861.716	31.74
861.887	32.73
862.057	35.85
862.228	35.03
862.398	33.92
862.569	33.05
862.739	34.61
862.91	32.94
863.08	33.44
863.251	32.64
863.421	30.28
863.592	33.19
863.762	33.42
863.932	33.45
864.103	32
864.273	30.5
864.443	30.31
864.614	29.07
864.784	29.75
864.954	29.82
865.125	30.63
865.295	33.55
865.465	33.36
865.635	31.21
865.805	32.68
865.976	32.07
866.146	32.64
866.316	32.47
866.486	33.84
866.656	34.7
866.826	33.13
866.996	31.85
867.166	29.66
867.336	28.1
867.506	31.3
867.676	29.54
867.846	31.23
868.016	30.93
868.186	28.26
868.356	28.55
868.526	28.89
868.696	27.81
868.866	31.6
869.036	31.06
869.206	31.26
869.376	28.63
869.545	29.03
869.715	30.22
869.885	30.1
870.055	32.96
870.224	31.86
870.394	30.76
870.564	32.85
870.734	29.99
870.903	31.62
871.073	32.36
871.243	35.72
871.412	35.53
871.582	35.85
871.751	37.29
871.921	37.02
872.091	34.97
872.26	35.41
872.43	33.58
872.599	33.01
872.769	32.14
872.938	32.51
873.108	29.94
873.277	27.57
873.446	27.78
873.616	26.85
873.785	27.26
873.955	30.04
874.124	29.32
874.293	31.26
874.463	31.65
874.632	31.25
874.801	31.5
874.971	31.42
875.14	34.64
875.309	34.53
875.478	35.5
875.647	36.28
875.817	34.93
875.986	34.66
876.155	35.12
876.324	35.97
876.493	37.04
876.662	36.82
876.831	38.68
877	38.96
877.17	40.08
877.339	40.55
877.508	41.31
877.677	43.71
877.846	42.51
878.015	42.51
878.184	40.07
878.352	39.52
878.521	39.85
878.69	39.02
878.859	40.14
879.028	38.55
879.197	37.61
879.366	36.03
879.534	34.28
879.703	34.9
879.872	34.24
880.041	34.95
880.21	34.2
880.378	33.28
880.547	32.89
880.716	31.89
880.884	31.82
881.053	31.86
881.222	31.82
881.39	32.1
881.559	31.96
881.727	31.66
881.896	32.25
882.065	32.61
882.233	32.89
882.402	32.81
882.57	33.19
882.739	33.17
882.907	33.1
883.076	33.21
883.244	33.17
883.412	33.05
883.581	33.08
883.749	32.17
883.918	32.1
884.086	32.23
884.254	32.57
884.423	31.58
884.591	31.78
884.759	30.72
884.927	30.61
885.096	29.64
885.264	30.09
885.432	29.81
885.6	30.28
885.769	29.62
885.937	28.73
886.105	27.93
886.273	28.16
886.441	27.37
886.609	30.59
886.777	29.79
886.945	31.45
887.113	31.41
887.281	32.89
887.449	32.67
887.617	33.35
887.785	32.83
887.953	34.16
888.121	34.57
888.289	35.61
888.457	34.02
888.625	35.33
888.793	34.89
888.961	34.23
889.129	31.92
889.296	32.43
889.464	32.17
889.632	33.34
889.8	32.25
889.967	32.96
890.135	32.35
