Data from JASIL_2910_Reflection_1.txt Node
Date: Sat Nov 07 20:26:46 EST 2015
User: Geneva
Spectrometer: USB4E03002
Autoset integration time: false
Trigger mode: 4
Integration Time (sec): 1.000000E-1
Scans to average: 10
Electric dark correction enabled: true
Nonlinearity correction enabled: false
Boxcar width: 5
Stray light correction enabled: false
XAxis mode: Wavelengths
Stop averaging: false
Number of Pixels in Spectrum: 3648
>>>>>Begin Spectral Data<<<<<
177.575	147.12
177.794	176.19
178.014	137.35
178.233	121.47
178.452	100.1
178.672	124.58
178.891	-1258.14
179.11	224.19
179.33	173.57
179.549	167.72
179.768	159.14
179.987	131.81
180.207	139
180.426	126.51
180.645	125.27
180.864	124.93
181.084	127.03
181.303	122.18
181.522	112.04
181.741	126.01
181.96	112.9
182.179	124.34
182.398	152.65
182.618	139.18
182.837	139.56
183.056	125.98
183.275	126.16
183.494	108
183.713	98.77
183.932	118.41
184.151	96.15
184.37	96.05
184.589	79.91
184.808	66.65
185.027	78.22
185.246	76.97
185.465	79.24
185.684	70.34
185.903	82.92
186.122	90.33
186.341	80.18
186.56	85.75
186.779	91.74
186.998	105.79
187.216	111.26
187.435	99.07
187.654	94.82
187.873	96.1
188.092	109.28
188.311	94.65
188.53	95.99
188.748	96.94
188.967	99.23
189.186	98.1
189.405	101.47
189.623	106.89
189.842	106.76
190.061	108.88
190.28	104.74
190.498	91.01
190.717	93.64
190.936	92.39
191.154	85.96
191.373	86.16
191.592	84.42
191.81	71.04
192.029	69.09
192.248	61.64
192.466	66.17
192.685	68.3
192.904	79.39
193.122	85.53
193.341	86.03
193.559	84.72
193.778	86.77
193.996	77.73
194.215	89.61
194.433	93.92
194.652	98.53
194.87	97.27
195.089	99.77
195.307	95.54
195.526	91.01
195.744	91.99
195.963	103.11
196.181	88.99
196.399	98.37
196.618	92.88
196.836	91.71
197.055	88.34
197.273	87.83
197.491	81.64
197.71	83.53
197.928	81.07
198.146	77.66
198.365	64.97
198.583	68.04
198.801	62.18
199.019	54.6
199.238	54.8
199.456	45.91
199.674	52.18
199.892	56.84
200.111	65.07
200.329	61.72
200.547	54.2
200.765	60.18
200.983	60.35
201.202	62.69
201.42	80.38
201.638	72.79
201.856	77.59
202.074	73.07
202.292	72.14
202.51	66.5
202.728	76.55
202.946	80.44
203.165	82.17
203.383	80.29
203.601	78.24
203.819	69.04
204.037	72.35
204.255	73.07
204.473	72.51
204.691	74.08
204.909	74.78
205.127	74.97
205.345	74.92
205.562	80.53
205.78	85.38
205.998	85.16
206.216	92.66
206.434	86.54
206.652	84.98
206.87	95.48
207.088	92.88
207.306	91.6
207.523	85.52
207.741	85.75
207.959	82.59
208.177	78.28
208.395	75.7
208.612	67.06
208.83	69.96
209.048	72.17
209.266	62.9
209.483	60.06
209.701	60.23
209.919	66.19
210.136	69.38
210.354	72.58
210.572	79.07
210.79	81.77
211.007	83.57
211.225	77.12
211.442	77.56
211.66	80.11
211.878	81.19
212.095	135.88
212.313	132.37
212.53	129.58
212.748	124.9
212.966	122.12
213.183	113.94
213.401	120.32
213.618	124.62
213.836	126.3
214.053	124.15
214.271	120.44
214.488	73.98
214.705	66.94
214.923	67.41
215.14	64.55
215.358	61.84
215.575	60.32
215.793	54.66
216.01	63.34
216.227	54.74
216.445	59.6
216.662	54.35
216.879	54.16
217.097	56.61
217.314	55.86
217.531	55.76
217.749	60.8
217.966	68.18
218.183	68.71
218.4	55.82
218.618	62.33
218.835	54.74
219.052	55.93
219.269	54.21
219.487	51.37
219.704	48.2
219.921	45.96
220.138	45.71
220.355	37.92
220.572	35.61
220.79	41.29
221.007	42.68
221.224	43.66
221.441	47.7
221.658	47.4
221.875	45.06
222.092	44.87
222.309	44.57
222.526	40.53
222.743	45.93
222.96	48.55
223.177	45.73
223.394	40.77
223.611	41.36
223.828	37.18
224.045	36.51
224.262	36.09
224.479	35.74
224.696	37.13
224.913	34.48
225.13	30.46
225.347	28.58
225.564	27.42
225.781	26.02
225.997	24.93
226.214	23.04
226.431	19.97
226.648	18.89
226.865	18.3
227.082	17.54
227.298	16.99
227.515	17.01
227.732	17.02
227.949	16.97
228.165	16.68
228.382	16.01
228.599	16.17
228.816	16.9
229.032	17.36
229.249	17.29
229.466	17.16
229.682	17.65
229.899	17.58
230.116	17.11
230.332	16.38
230.549	17.6
230.765	18.77
230.982	18.51
231.199	18.33
231.415	18.4
231.632	18.46
231.848	19.14
232.065	19.15
232.281	19.58
232.498	20.72
232.714	21.67
232.931	21.53
233.147	21.48
233.364	21.25
233.58	21.05
233.797	20.76
234.013	21.79
234.23	21.05
234.446	20.71
234.662	20.79
234.879	20.2
235.095	19.42
235.312	18.58
235.528	17.95
235.744	18.24
235.961	18.81
236.177	18.14
236.393	17.29
236.61	17.27
236.826	17.8
237.042	18.28
237.258	18.81
237.475	19.41
237.691	19.41
237.907	18.46
238.123	18.55
238.339	17.2
238.556	17.56
238.772	17.45
238.988	16.59
239.204	16.31
239.42	16.11
239.636	15.77
239.853	15.29
240.069	15.14
240.285	15.39
240.501	14.98
240.717	15.17
240.933	14.89
241.149	14.61
241.365	14.57
241.581	14.36
241.797	14.16
242.013	13.66
242.229	13.69
242.445	13.51
242.661	13.46
242.877	14.08
243.093	14.12
243.309	14.06
243.525	14.37
243.741	14.72
243.957	14.81
244.173	14.16
244.388	14.08
244.604	13.46
244.82	12.85
245.036	12.16
245.252	11.79
245.468	11.43
245.683	11.61
245.899	11.03
246.115	11.06
246.331	10.84
246.547	10.82
246.762	10.88
246.978	11.13
247.194	11.13
247.409	11.3
247.625	11.25
247.841	11.36
248.057	11.3
248.272	11.24
248.488	11.09
248.703	11.02
248.919	11.4
249.135	11.24
249.35	10.92
249.566	11.12
249.782	11.04
249.997	10.88
250.213	10.93
250.428	10.28
250.644	11.34
250.859	11.36
251.075	11.61
251.29	10.84
251.506	10.9
251.721	10.72
251.937	10.93
252.152	10.97
252.368	10.89
252.583	11.3
252.798	11.71
253.014	10.95
253.229	10.54
253.445	10.16
253.66	10.75
253.875	11.04
254.091	11.21
254.306	11
254.521	10.77
254.737	10.93
254.952	10.24
255.167	9.81
255.383	9.96
255.598	10.13
255.813	9.56
256.028	9.48
256.244	9.07
256.459	9.17
256.674	8.57
256.889	8.08
257.104	7.81
257.32	8.05
257.535	8.42
257.75	8.21
257.965	8.4
258.18	8.76
258.395	8.48
258.61	8.45
258.826	8.28
259.041	8.49
259.256	8.67
259.471	8.73
259.686	8.64
259.901	8.61
260.116	8.77
260.331	8.47
260.546	8.41
260.761	8.61
260.976	8.74
261.191	8.88
261.406	8.89
261.621	8.81
261.836	8.85
262.05	8.8
262.265	8.34
262.48	8.04
262.695	8.49
262.91	8.51
263.125	8.82
263.34	9.09
263.555	9.29
263.769	9.46
263.984	9.53
264.199	9.26
264.414	9.35
264.629	9.91
264.843	10.07
265.058	10.02
265.273	9.84
265.488	9.22
265.702	8.88
265.917	8.75
266.132	8.72
266.346	8.85
266.561	9.17
266.776	9.08
266.99	8.69
267.205	8.86
267.42	8.73
267.634	8.47
267.849	8.7
268.063	8.97
268.278	9.11
268.492	8.88
268.707	8.8
268.922	8.69
269.136	8.58
269.351	8.57
269.565	8.5
269.78	8.51
269.994	8.6
270.209	8.58
270.423	8.45
270.637	8.24
270.852	8.11
271.066	8.07
271.281	7.93
271.495	8.01
271.709	8.19
271.924	8.09
272.138	8.11
272.353	8.38
272.567	8.26
272.781	8.06
272.996	8.18
273.21	8.32
273.424	8.35
273.638	8.22
273.853	8.35
274.067	8.19
274.281	8.12
274.495	8.18
274.71	8.03
274.924	8.16
275.138	8.16
275.352	8.16
275.566	8.16
275.781	8.07
275.995	8.48
276.209	8.66
276.423	8.6
276.637	8.58
276.851	8.29
277.065	8.2
277.279	8.07
277.493	7.96
277.707	7.78
277.921	7.75
278.135	7.55
278.349	7.12
278.563	6.74
278.777	6.84
278.991	6.85
279.205	7.08
279.419	7.06
279.633	7.28
279.847	7.49
280.061	7.58
280.275	7.4
280.489	7.73
280.703	7.63
280.917	7.67
281.131	7.83
281.344	7.96
281.558	7.65
281.772	7.6
281.986	7.35
282.2	7.29
282.414	7.26
282.627	7.28
282.841	7.35
283.055	7.83
283.269	7.66
283.482	7.38
283.696	7.2
283.91	7.34
284.123	7.25
284.337	7.5
284.551	7.31
284.764	7.31
284.978	7.29
285.192	7.16
285.405	6.73
285.619	6.91
285.833	6.99
286.046	6.95
286.26	6.92
286.473	6.92
286.687	6.51
286.9	6.69
287.114	6.59
287.327	6.72
287.541	6.61
287.754	6.89
287.968	6.77
288.181	6.79
288.395	6.8
288.608	6.98
288.822	6.97
289.035	7.06
289.248	7.05
289.462	7.21
289.675	7.07
289.889	7.06
290.102	6.83
290.315	6.83
290.529	6.88
290.742	7.09
290.955	7.04
291.169	7.18
291.382	7.21
291.595	7.35
291.808	7.17
292.022	6.99
292.235	7.15
292.448	7.17
292.661	6.94
292.875	6.72
293.088	6.57
293.301	6.47
293.514	6.4
293.727	6.46
293.94	6.42
294.153	6.42
294.367	6.61
294.58	6.43
294.793	6.49
295.006	6.63
295.219	6.7
295.432	6.64
295.645	6.67
295.858	6.62
296.071	6.45
296.284	6.36
296.497	6.41
296.71	6.44
296.923	6.57
297.136	6.5
297.349	6.68
297.562	6.69
297.775	6.71
297.988	6.76
298.201	6.87
298.414	7.12
298.626	7.13
298.839	6.99
299.052	7.08
299.265	7.13
299.478	7.05
299.691	7.09
299.903	7.07
300.116	7.17
300.329	6.99
300.542	6.93
300.755	7.04
300.967	7
301.18	7.01
301.393	6.92
301.605	6.8
301.818	6.96
302.031	6.79
302.243	6.85
302.456	7.02
302.669	7.15
302.881	7.32
303.094	7.28
303.307	7.17
303.519	7.25
303.732	7.32
303.944	7.49
304.157	7.54
304.37	7.64
304.582	7.65
304.795	7.4
305.007	7.53
305.22	7.73
305.432	7.72
305.645	8.06
305.857	8.19
306.069	8.02
306.282	8.02
306.494	8.04
306.707	8.12
306.919	8.06
307.132	7.89
307.344	7.74
307.556	7.68
307.769	7.81
307.981	7.63
308.193	7.51
308.406	7.6
308.618	7.51
308.83	7.45
309.043	7.17
309.255	7.22
309.467	7.37
309.679	7.47
309.892	7.35
310.104	7.19
310.316	7.23
310.528	7.36
310.74	7.34
310.953	7.28
311.165	7.33
311.377	7.37
311.589	7.52
311.801	7.66
312.013	7.67
312.225	7.74
312.437	8
312.649	8.17
312.862	8.11
313.074	8.29
313.286	8.42
313.498	8.46
313.71	8.69
313.922	8.61
314.134	8.56
314.346	8.56
314.558	8.74
314.77	8.73
314.982	8.71
315.193	8.66
315.405	8.7
315.617	8.67
315.829	8.75
316.041	8.94
316.253	8.97
316.465	9
316.677	8.95
316.888	8.65
317.1	8.47
317.312	8.52
317.524	8.86
317.736	8.93
317.947	9.04
318.159	9.25
318.371	9.13
318.583	9.04
318.794	9.04
319.006	9.14
319.218	9.38
319.43	9.33
319.641	9.56
319.853	9.72
320.064	9.76
320.276	9.84
320.488	9.65
320.699	9.66
320.911	9.93
321.123	10.34
321.334	10.57
321.546	10.76
321.757	11.2
321.969	11.06
322.18	10.93
322.392	11
322.603	10.92
322.815	11.09
323.026	11.22
323.238	11.11
323.449	10.88
323.661	10.98
323.872	11.07
324.083	11.25
324.295	11.4
324.506	11.52
324.718	11.64
324.929	11.77
325.14	12.04
325.352	12.21
325.563	12.66
325.774	12.8
325.986	12.94
326.197	12.98
326.408	12.96
326.62	13.01
326.831	13.18
327.042	13.32
327.253	13.62
327.464	13.77
327.676	14.07
327.887	14.14
328.098	14.46
328.309	14.66
328.52	15.02
328.732	15.15
328.943	15.47
329.154	15.65
329.365	16.09
329.576	16.21
329.787	16.33
329.998	16.21
330.209	16.38
330.42	16.6
330.631	16.89
330.842	16.91
331.053	17.14
331.264	17.29
331.475	17.67
331.686	17.57
331.897	17.92
332.108	17.95
332.319	18.24
332.53	18.43
332.741	18.42
332.952	18.5
333.163	18.61
333.374	18.62
333.585	18.79
333.795	18.69
334.006	18.91
334.217	18.91
334.428	19.14
334.639	19.26
334.849	19.01
335.06	19.1
335.271	18.99
335.482	19.1
335.692	19.26
335.903	19.14
336.114	19.36
336.325	19.24
336.535	19.28
336.746	19.47
336.957	19.4
337.167	19.55
337.378	19.64
337.589	19.83
337.799	19.73
338.01	19.71
338.22	19.86
338.431	19.68
338.642	19.92
338.852	19.87
339.063	19.53
339.273	19.45
339.484	19.49
339.694	19.53
339.905	19.46
340.115	19.43
340.326	19.4
340.536	19.31
340.746	19.33
340.957	19.2
341.167	19.39
341.378	19.58
341.588	19.72
341.799	19.7
342.009	19.57
342.219	19.36
342.43	19.34
342.64	19.11
342.85	19.04
343.061	18.85
343.271	18.84
343.481	18.57
343.691	18.33
343.902	18.32
344.112	18.26
344.322	18.18
344.532	18.33
344.743	18.24
344.953	18.31
345.163	18.29
345.373	18.36
345.583	18.44
345.793	18.51
346.004	18.76
346.214	18.74
346.424	18.55
346.634	18.6
346.844	18.72
347.054	18.9
347.264	19.14
347.474	19.31
347.684	19.39
347.894	19.26
348.104	19.18
348.314	19.2
348.524	19.09
348.734	19.16
348.944	19.03
349.154	18.91
349.364	18.63
349.574	18.41
349.784	18.26
349.994	18.15
350.204	18.02
350.413	18.03
350.623	17.87
350.833	17.85
351.043	17.76
351.253	17.99
351.463	17.86
351.672	17.93
351.882	17.92
352.092	17.93
352.302	17.88
352.511	17.96
352.721	17.94
352.931	17.9
353.141	17.94
353.35	18.23
353.56	17.97
353.77	18.07
353.979	18.1
354.189	18.08
354.399	18.01
354.608	17.93
354.818	17.88
355.027	17.88
355.237	17.8
355.447	17.72
355.656	17.49
355.866	17.58
356.075	17.53
356.285	17.6
356.494	17.63
356.704	17.62
356.913	17.62
357.123	17.53
357.332	17.53
357.542	17.64
357.751	17.64
357.96	17.71
358.17	17.62
358.379	17.61
358.589	17.61
358.798	17.53
359.007	17.68
359.217	17.74
359.426	17.73
359.635	17.76
359.845	17.71
360.054	17.61
360.263	17.66
360.472	17.74
360.682	17.68
360.891	17.56
361.1	17.54
361.309	17.36
361.519	17.38
361.728	17.32
361.937	17.21
362.146	17.08
362.355	17.1
362.564	16.9
362.774	16.8
362.983	16.73
363.192	16.86
363.401	16.91
363.61	16.84
363.819	16.73
364.028	16.8
364.237	16.71
364.446	16.72
364.655	16.76
364.864	16.87
365.073	16.88
365.282	16.91
365.491	16.7
365.7	16.69
365.909	16.88
366.118	16.75
366.327	16.67
366.536	16.7
366.745	16.83
366.954	16.85
367.162	16.86
367.371	16.85
367.58	16.84
367.789	16.85
367.998	16.83
368.207	16.64
368.415	16.81
368.624	16.85
368.833	16.83
369.042	16.72
369.25	16.82
369.459	16.84
369.668	16.84
369.877	16.86
370.085	16.87
370.294	16.75
370.503	16.75
370.711	16.69
370.92	16.7
371.129	16.66
371.337	16.55
371.546	16.35
371.754	16.39
371.963	16.31
372.171	16.15
372.38	16.11
372.589	16.19
372.797	16.26
373.006	16.25
373.214	16.18
373.423	16.18
373.631	16.19
373.84	16.17
374.048	16.04
374.256	15.93
374.465	15.97
374.673	15.93
374.882	15.76
375.09	15.56
375.298	15.56
375.507	15.48
375.715	15.51
375.923	15.47
376.132	15.5
376.34	15.47
376.548	15.55
376.757	15.59
376.965	15.67
377.173	15.74
377.381	15.92
377.59	15.93
377.798	15.9
378.006	15.76
378.214	15.68
378.423	15.52
378.631	15.44
378.839	15.47
379.047	15.37
379.255	15.24
379.463	15.24
379.671	15
379.879	15.02
380.088	15.08
380.296	15.14
380.504	15.18
380.712	15.25
380.92	15.25
381.128	15.09
381.336	15.03
381.544	15.02
381.752	14.93
381.96	15.03
382.168	14.91
382.376	14.91
382.584	14.87
382.791	14.93
382.999	14.88
383.207	14.88
383.415	14.96
383.623	15.03
383.831	15.01
384.039	15.02
384.247	14.97
384.454	14.84
384.662	14.69
384.87	14.65
385.078	14.59
385.285	14.56
385.493	14.45
385.701	14.4
385.909	14.31
386.116	14.25
386.324	14.11
386.532	14.08
386.739	14.13
386.947	14.13
387.155	14.12
387.362	14.11
387.57	14.1
387.778	14.13
387.985	14.14
388.193	14.13
388.4	14.27
388.608	14.37
388.816	14.33
389.023	14.19
389.231	14.14
389.438	14.13
389.646	13.95
389.853	13.89
390.061	13.78
390.268	13.63
390.475	13.51
390.683	13.45
390.89	13.35
391.098	13.34
391.305	13.46
391.512	13.39
391.72	13.28
391.927	13.37
392.135	13.33
392.342	13.34
392.549	13.35
392.756	13.38
392.964	13.26
393.171	13.24
393.378	13.18
393.586	13.09
393.793	13.11
394	13.11
394.207	13.06
394.414	13.11
394.622	13.16
394.829	13.12
395.036	13.15
395.243	13.1
395.45	13.05
395.657	13
395.864	12.99
396.072	12.92
396.279	12.99
396.486	12.9
396.693	12.81
396.9	12.78
397.107	12.65
397.314	12.55
397.521	12.5
397.728	12.51
397.935	12.62
398.142	12.53
398.349	12.48
398.556	12.33
398.763	12.25
398.97	12.27
399.177	12.09
399.383	12.15
399.59	12.11
399.797	12.1
400.004	11.99
400.211	11.88
400.418	11.89
400.625	11.94
400.831	12.03
401.038	12.02
401.245	11.96
401.452	11.97
401.658	11.93
401.865	11.91
402.072	11.92
402.279	11.95
402.485	11.83
402.692	11.79
402.899	11.68
403.105	11.61
403.312	11.69
403.519	11.66
403.725	11.64
403.932	11.65
404.138	11.6
404.345	11.55
404.552	11.55
404.758	11.65
404.965	11.57
405.171	11.56
405.378	11.52
405.584	11.48
405.791	11.32
405.997	11.33
406.204	11.35
406.41	11.33
406.617	11.31
406.823	11.23
407.029	11.2
407.236	11.26
407.442	11.32
407.649	11.32
407.855	11.18
408.061	11.3
408.268	11.3
408.474	11.17
408.68	11.18
408.887	11.21
409.093	11.25
409.299	11.17
409.505	11.13
409.712	11.03
409.918	11
410.124	11.05
410.33	11.05
410.537	10.95
410.743	11.06
410.949	11.03
411.155	11
411.361	10.98
411.567	11
411.773	11.06
411.98	11.11
412.186	11.16
412.392	11.19
412.598	11.13
412.804	11.12
413.01	11.01
413.216	10.99
413.422	10.95
413.628	10.92
413.834	10.83
414.04	10.74
414.246	10.71
414.452	10.65
414.658	10.62
414.864	10.56
415.07	10.57
415.275	10.63
415.481	10.57
415.687	10.58
415.893	10.55
416.099	10.52
416.305	10.4
416.511	10.38
416.716	10.33
416.922	10.25
417.128	10.3
417.334	10.28
417.539	10.25
417.745	10.2
417.951	10.13
418.157	10.08
418.362	10.05
418.568	10.1
418.774	10.06
418.979	10.06
419.185	10.06
419.391	9.99
419.596	9.98
419.802	9.92
420.008	9.92
420.213	9.64
420.419	9.65
420.624	9.6
420.83	9.6
421.035	9.57
421.241	9.55
421.446	9.53
421.652	9.52
421.857	9.49
422.063	9.43
422.268	9.44
422.474	9.65
422.679	9.64
422.885	9.67
423.09	9.64
423.295	9.63
423.501	9.6
423.706	9.56
423.911	9.53
424.117	9.51
424.322	9.54
424.527	9.54
424.733	9.52
424.938	9.5
425.143	9.48
425.349	9.46
425.554	9.48
425.759	9.45
425.964	9.48
426.169	9.52
426.375	9.53
426.58	9.55
426.785	9.53
426.99	9.61
427.195	9.63
427.4	9.65
427.605	9.69
427.811	9.7
428.016	9.76
428.221	9.78
428.426	9.72
428.631	9.7
428.836	9.66
429.041	9.64
429.246	9.61
429.451	9.6
429.656	9.65
429.861	9.55
430.066	9.51
430.271	9.46
430.476	9.41
430.681	9.47
430.886	9.48
431.09	9.47
431.295	9.38
431.5	9.35
431.705	9.27
431.91	9.21
432.115	9.26
432.32	9.22
432.524	9.22
432.729	9.17
432.934	9.08
433.139	9.11
433.343	9.05
433.548	9.13
433.753	9.15
433.958	9.18
434.162	9.22
434.367	9.22
434.572	9.23
434.776	9.21
434.981	9.26
435.186	9.32
435.39	9.26
435.595	9.35
435.799	9.28
436.004	9.26
436.209	9.23
436.413	9.14
436.618	9.1
436.822	9.13
437.027	9.09
437.231	9.09
437.436	9.09
437.64	9.08
437.845	9.03
438.049	9.09
438.253	9.06
438.458	9.03
438.662	9.07
438.867	9.1
439.071	9.1
439.275	9.07
439.48	9.07
439.684	9.05
439.888	9.03
440.093	9.03
440.297	9.02
440.501	9.07
440.706	9.13
440.91	9.14
441.114	9.13
441.318	9.08
441.523	9.14
441.727	9.11
441.931	9.11
442.135	9.13
442.339	9.13
442.543	9.18
442.748	9.12
442.952	9.03
443.156	9
443.36	8.99
443.564	9.02
443.768	8.96
443.972	8.97
444.176	8.97
444.38	8.99
444.584	8.97
444.788	8.91
444.992	8.88
445.196	8.88
445.4	8.85
445.604	8.85
445.808	8.85
446.012	8.88
446.216	8.85
446.42	8.83
446.624	8.76
446.828	8.76
447.032	8.76
447.235	8.8
447.439	8.82
447.643	8.86
447.847	8.9
448.051	8.94
448.254	8.94
448.458	8.99
448.662	9.05
448.866	9.07
449.069	9.04
449.273	9.07
449.477	9.07
449.681	9.1
449.884	9.09
450.088	9.06
450.292	8.96
450.495	8.91
450.699	8.91
450.902	8.83
451.106	8.84
451.31	8.89
451.513	8.79
451.717	8.79
451.92	8.77
452.124	8.74
452.327	8.73
452.531	8.81
452.734	8.9
452.938	8.87
453.141	8.91
453.345	8.94
453.548	8.92
453.752	8.98
453.955	9.01
454.158	9.03
454.362	9.06
454.565	9.04
454.769	9
454.972	8.99
455.175	8.98
455.379	8.96
455.582	8.91
455.785	8.91
455.988	8.86
456.192	8.83
456.395	8.77
456.598	8.77
456.801	8.72
457.005	8.64
457.208	8.63
457.411	8.62
457.614	8.59
457.817	8.59
458.021	8.55
458.224	8.54
458.427	8.52
458.63	8.53
458.833	8.52
459.036	8.48
459.239	8.55
459.442	8.55
459.645	8.54
459.848	8.57
460.051	8.59
460.254	8.65
460.457	8.66
460.66	8.68
460.863	8.74
461.066	8.73
461.269	8.8
461.472	8.85
461.675	8.84
461.878	8.88
462.081	8.86
462.284	8.89
462.486	8.85
462.689	8.9
462.892	8.89
463.095	8.87
463.298	8.94
463.5	8.96
463.703	8.89
463.906	8.9
464.109	8.91
464.311	8.89
464.514	8.94
464.717	8.97
464.92	8.94
465.122	8.93
465.325	8.98
465.528	8.96
465.73	8.93
465.933	8.94
466.135	8.85
466.338	8.83
466.541	8.84
466.743	8.78
466.946	8.78
467.148	8.81
467.351	8.86
467.553	8.8
467.756	8.79
467.958	8.8
468.161	8.79
468.363	8.86
468.566	8.83
468.768	8.82
468.971	8.84
469.173	8.88
469.375	8.85
469.578	8.72
469.78	8.73
469.983	8.7
470.185	8.71
470.387	8.75
470.59	8.79
470.792	8.85
470.994	8.91
471.196	8.9
471.399	8.87
471.601	8.9
471.803	8.98
472.005	8.96
472.208	9.03
472.41	9.04
472.612	8.98
472.814	8.99
473.016	9
473.218	9
473.421	8.97
473.623	8.95
473.825	8.92
474.027	8.94
474.229	8.91
474.431	8.9
474.633	8.92
474.835	8.93
475.037	8.89
475.239	8.9
475.441	8.83
475.643	8.86
475.845	8.87
476.047	8.9
476.249	8.89
476.451	8.9
476.653	8.85
476.855	8.85
477.057	8.85
477.258	8.84
477.46	8.84
477.662	8.89
477.864	8.87
478.066	8.84
478.268	8.83
478.469	8.8
478.671	8.83
478.873	8.85
479.075	8.82
479.276	8.82
479.478	8.86
479.68	8.83
479.882	8.83
480.083	8.84
480.285	8.85
480.487	8.87
480.688	8.87
480.89	8.85
481.091	8.81
481.293	8.78
481.495	8.76
481.696	8.71
481.898	8.71
482.099	8.68
482.301	8.64
482.502	8.6
482.704	8.57
482.905	8.56
483.107	8.54
483.308	8.54
483.51	8.53
483.711	8.54
483.913	8.55
484.114	8.53
484.315	8.52
484.517	8.54
484.718	8.55
484.92	8.57
485.121	8.57
485.322	8.57
485.524	8.57
485.725	8.56
485.926	8.55
486.127	8.55
486.329	8.56
486.53	8.59
486.731	8.56
486.932	8.56
487.134	8.55
487.335	8.56
487.536	8.58
487.737	8.58
487.938	8.6
488.139	8.61
488.341	8.62
488.542	8.63
488.743	8.62
488.944	8.67
489.145	8.67
489.346	8.7
489.547	8.7
489.748	8.69
489.949	8.7
490.15	8.7
490.351	8.67
490.552	8.67
490.753	8.65
490.954	8.63
491.155	8.63
491.356	8.65
491.557	8.64
491.758	8.65
491.959	8.67
492.159	8.68
492.36	8.72
492.561	8.74
492.762	8.79
492.963	8.82
493.164	8.88
493.364	8.9
493.565	8.93
493.766	8.95
493.967	8.99
494.167	9.01
494.368	9
494.569	8.98
494.769	8.99
494.97	8.99
495.171	8.99
495.371	8.97
495.572	8.97
495.773	8.93
495.973	8.94
496.174	8.95
496.375	8.96
496.575	8.97
496.776	9
496.976	9.04
497.177	9.02
497.377	9.02
497.578	9.05
497.778	9.05
497.979	9.09
498.179	9.09
498.38	9.09
498.58	9.13
498.78	9.16
498.981	9.19
499.181	9.19
499.382	9.19
499.582	9.21
499.782	9.23
499.983	9.3
500.183	9.32
500.383	9.36
500.584	9.36
500.784	9.36
500.984	9.38
501.184	9.38
501.385	9.4
501.585	9.46
501.785	9.45
501.985	9.49
502.185	9.51
502.386	9.48
502.586	9.5
502.786	9.55
502.986	9.6
503.186	9.66
503.386	9.69
503.586	9.74
503.786	9.73
503.987	9.77
504.187	9.78
504.387	9.79
504.587	9.82
504.787	9.84
504.987	9.85
505.187	9.88
505.387	9.84
505.587	9.86
505.786	9.87
505.986	9.9
506.186	9.93
506.386	9.96
506.586	9.97
506.786	10.02
506.986	10.03
507.186	10.04
507.386	10.03
507.585	10.06
507.785	10.1
507.985	10.1
508.185	10.15
508.384	10.15
508.584	10.11
508.784	10.14
508.984	10.15
509.183	10.22
509.383	10.23
509.583	10.22
509.782	10.25
509.982	10.28
510.182	10.33
510.381	10.34
510.581	10.43
510.781	10.54
510.98	10.6
511.18	10.7
511.379	10.68
511.579	10.77
511.778	10.85
511.978	10.92
512.177	10.98
512.377	11.03
512.576	11.09
512.776	11.15
512.975	11.21
513.175	11.22
513.374	11.26
513.573	11.34
513.773	11.38
513.972	11.45
514.172	11.54
514.371	11.6
514.57	11.68
514.77	11.79
514.969	11.8
515.168	11.87
515.367	11.94
515.567	12
515.766	12.05
515.965	12.1
516.164	12.16
516.364	12.19
516.563	12.19
516.762	12.22
516.961	12.24
517.16	12.27
517.359	12.29
517.559	12.33
517.758	12.34
517.957	12.38
518.156	12.43
518.355	12.48
518.554	12.52
518.753	12.59
518.952	12.63
519.151	12.68
519.35	12.76
519.549	12.8
519.748	12.89
519.947	12.98
520.146	13.04
520.345	13.08
520.544	13.15
520.743	13.19
520.942	13.25
521.141	13.36
521.339	13.45
521.538	13.53
521.737	13.57
521.936	13.61
522.135	13.68
522.333	13.76
522.532	13.86
522.731	13.93
522.93	14
523.129	14.06
523.327	14.1
523.526	14.16
523.725	14.22
523.923	14.3
524.122	14.39
524.321	14.42
524.519	14.5
524.718	14.56
524.917	14.6
525.115	14.68
525.314	14.74
525.512	14.82
525.711	14.87
525.909	14.94
526.108	14.99
526.306	15.05
526.505	15.12
526.703	15.16
526.902	15.22
527.1	15.27
527.299	15.28
527.497	15.32
527.696	15.36
527.894	15.39
528.092	15.41
528.291	15.46
528.489	15.5
528.688	15.54
528.886	15.58
529.084	15.62
529.283	15.69
529.481	15.76
529.679	15.83
529.877	15.91
530.076	16
530.274	16.09
530.472	16.18
530.67	16.25
530.869	16.33
531.067	16.4
531.265	16.48
531.463	16.53
531.661	16.58
531.859	16.62
532.057	16.67
532.255	16.69
532.454	16.72
532.652	16.75
532.85	16.82
533.048	16.88
533.246	16.93
533.444	16.99
533.642	17.04
533.84	17.13
534.038	17.2
534.236	17.27
534.434	17.34
534.632	17.42
534.83	17.51
535.027	17.57
535.225	17.6
535.423	17.66
535.621	17.7
535.819	17.74
536.017	17.74
536.215	17.75
536.412	17.77
536.61	17.85
536.808	17.91
537.006	17.92
537.203	17.95
537.401	18.02
537.599	18.06
537.797	18.12
537.994	18.14
538.192	18.22
538.39	18.29
538.587	18.35
538.785	18.39
538.983	18.41
539.18	18.48
539.378	18.51
539.575	18.53
539.773	18.56
539.97	18.54
540.168	18.61
540.366	18.64
540.563	18.66
540.761	18.65
540.958	18.66
541.155	18.68
541.353	18.71
541.55	18.75
541.748	18.79
541.945	18.84
542.143	18.89
542.34	18.92
542.537	18.94
542.735	18.99
542.932	19.05
543.129	19.12
543.327	19.17
543.524	19.22
543.721	19.25
543.919	19.32
544.116	19.34
544.313	19.44
544.51	19.47
544.708	19.53
544.905	19.55
545.102	19.62
545.299	19.64
545.496	19.68
545.693	19.7
545.891	19.74
546.088	19.75
546.285	19.81
546.482	19.78
546.679	19.83
546.876	19.89
547.073	19.97
547.27	20
547.467	20.04
547.664	20.09
547.861	20.12
548.058	20.17
548.255	20.17
548.452	20.19
548.649	20.28
548.846	20.34
549.043	20.37
549.24	20.37
549.437	20.32
549.633	20.36
549.83	20.37
550.027	20.45
550.224	20.49
550.421	20.57
550.618	20.58
550.814	20.59
551.011	20.57
551.208	20.52
551.405	20.53
551.601	20.6
551.798	20.61
551.995	20.65
552.191	20.64
552.388	20.64
552.585	20.64
552.781	20.67
552.978	20.72
553.175	20.81
553.371	20.92
553.568	21.01
553.764	21.05
553.961	21.09
554.157	21.15
554.354	21.17
554.55	21.18
554.747	21.26
554.943	21.28
555.14	21.26
555.336	21.24
555.533	21.24
555.729	21.26
555.926	21.37
556.122	21.45
556.318	21.46
556.515	21.5
556.711	21.52
556.907	21.47
557.104	21.52
557.3	21.58
557.496	21.65
557.693	21.65
557.889	21.66
558.085	21.64
558.281	21.67
558.478	21.76
558.674	21.81
558.87	21.86
559.066	21.92
559.262	21.92
559.459	21.94
559.655	21.99
559.851	22.02
560.047	22.06
560.243	22.02
560.439	21.98
560.635	21.94
560.831	21.94
561.027	21.98
561.223	21.98
561.419	22.03
561.615	22.05
561.811	21.99
562.007	21.95
562.203	21.97
562.399	22
562.595	22.04
562.791	22.05
562.987	22.07
563.183	22.06
563.379	22.14
563.575	22.15
563.771	22.14
563.966	22.2
564.162	22.28
564.358	22.28
564.554	22.26
564.75	22.24
564.945	22.25
565.141	22.28
565.337	22.32
565.533	22.3
565.728	22.29
565.924	22.3
566.12	22.27
566.315	22.31
566.511	22.31
566.707	22.35
566.902	22.4
567.098	22.4
567.293	22.41
567.489	22.42
567.684	22.4
567.88	22.41
568.076	22.5
568.271	22.56
568.467	22.54
568.662	22.57
568.858	22.58
569.053	22.56
569.248	22.57
569.444	22.55
569.639	22.54
569.835	22.53
570.03	22.56
570.225	22.52
570.421	22.53
570.616	22.52
570.812	22.51
571.007	22.53
571.202	22.57
571.397	22.56
571.593	22.52
571.788	22.56
571.983	22.62
572.178	22.64
572.374	22.65
572.569	22.64
572.764	22.66
572.959	22.67
573.154	22.64
573.35	22.62
573.545	22.66
573.74	22.7
573.935	22.73
574.13	22.69
574.325	22.68
574.52	22.71
574.715	22.72
574.91	22.75
575.105	22.78
575.3	22.8
575.495	22.86
575.69	22.9
575.885	22.94
576.08	22.95
576.275	23.03
576.47	23.03
576.665	22.98
576.86	22.95
577.055	22.91
577.25	22.91
577.444	22.95
577.639	22.97
577.834	22.97
578.029	23.03
578.224	22.95
578.418	23.02
578.613	23.07
578.808	23.07
579.003	23.09
579.197	23.14
579.392	23.13
579.587	23.18
579.781	23.18
579.976	23.19
580.171	23.16
580.365	23.24
580.56	23.15
580.755	23.19
580.949	23.26
581.144	23.31
581.338	23.35
581.533	23.48
581.727	23.44
581.922	23.36
582.116	23.33
582.311	23.3
582.505	23.27
582.7	23.3
582.894	23.26
583.089	23.24
583.283	23.2
583.478	23.21
583.672	23.15
583.866	23.09
584.061	23.17
584.255	23.16
584.449	23.18
584.644	23.17
584.838	23.19
585.032	23.27
585.226	23.31
585.421	23.36
585.615	23.34
585.809	23.41
586.003	23.51
586.198	23.51
586.392	23.58
586.586	23.65
586.78	23.67
586.974	23.76
587.168	23.62
587.363	23.62
587.557	23.63
587.751	23.65
587.945	23.6
588.139	23.64
588.333	23.58
588.527	23.63
588.721	23.61
588.915	23.64
589.109	23.58
589.303	23.67
589.497	23.64
589.691	23.63
589.885	23.67
590.079	23.64
590.273	23.64
590.466	23.75
590.66	23.68
590.854	23.69
591.048	23.62
591.242	23.62
591.436	23.59
591.629	23.65
591.823	23.66
592.017	23.62
592.211	23.64
592.404	23.58
592.598	23.52
592.792	23.57
592.986	23.58
593.179	23.6
593.373	23.57
593.567	23.57
593.76	23.54
593.954	23.57
594.147	23.63
594.341	23.61
594.535	23.62
594.728	23.64
594.922	23.62
595.115	23.61
595.309	23.59
595.502	23.63
595.696	23.63
595.889	23.64
596.083	23.61
596.276	23.59
596.47	23.58
596.663	23.57
596.856	23.58
597.05	23.56
597.243	23.52
597.437	23.58
597.63	23.54
597.823	23.55
598.017	23.53
598.21	23.6
598.403	23.56
598.596	23.59
598.79	23.6
598.983	23.57
599.176	23.55
599.369	23.58
599.563	23.53
599.756	23.61
599.949	23.68
600.142	23.64
600.335	23.59
600.528	23.64
600.722	23.68
600.915	23.71
601.108	23.72
601.301	23.79
601.494	23.84
601.687	23.85
601.88	23.84
602.073	23.76
602.266	23.81
602.459	23.8
602.652	23.79
602.845	23.8
603.038	23.72
603.231	23.73
603.424	23.66
603.617	23.63
603.809	23.63
604.002	23.6
604.195	23.68
604.388	23.7
604.581	23.7
604.774	23.68
604.966	23.64
605.159	23.72
605.352	23.69
605.545	23.79
605.737	23.78
605.93	23.84
606.123	23.89
606.316	23.85
606.508	23.89
606.701	23.92
606.894	23.95
607.086	24.01
607.279	24
607.471	23.99
607.664	23.94
607.857	23.97
608.049	24.05
608.242	24.09
608.434	24.07
608.627	24.06
608.819	24.06
609.012	24.08
609.204	24.13
609.397	24.17
609.589	24.22
609.782	24.26
609.974	24.32
610.166	24.31
610.359	24.31
610.551	24.3
610.743	24.31
610.936	24.38
611.128	24.29
611.32	24.3
611.513	24.26
611.705	24.33
611.897	24.38
612.09	24.38
612.282	24.35
612.474	24.33
612.666	24.38
612.858	24.41
613.051	24.39
613.243	24.54
613.435	24.49
613.627	24.56
613.819	24.57
614.011	24.64
614.203	24.57
614.395	24.52
614.588	24.54
614.78	24.58
614.972	24.57
615.164	24.52
615.356	24.45
615.548	24.43
615.74	24.49
615.932	24.48
616.124	24.34
616.315	24.46
616.507	24.54
616.699	24.53
616.891	24.44
617.083	24.45
617.275	24.44
617.467	24.45
617.659	24.45
617.85	24.36
618.042	24.31
618.234	24.25
618.426	24.27
618.618	24.24
618.809	24.21
619.001	24.27
619.193	24.25
619.384	24.33
619.576	24.33
619.768	24.38
619.959	24.34
620.151	24.37
620.343	24.53
620.534	24.42
620.726	24.46
620.917	24.46
621.109	24.4
621.301	24.43
621.492	24.35
621.684	24.37
621.875	24.35
622.067	24.35
622.258	24.34
622.45	24.25
622.641	24.28
622.832	24.17
623.024	24.18
623.215	24.23
623.407	24.14
623.598	24.18
623.789	24.2
623.981	24.2
624.172	24.29
624.363	24.24
624.555	24.25
624.746	24.27
624.937	24.27
625.129	24.26
625.32	24.22
625.511	24.28
625.702	24.25
625.893	24.15
626.085	24.17
626.276	24.15
626.467	24.18
626.658	24.11
626.849	24.1
627.04	24.13
627.231	24.16
627.422	24.13
627.614	24.08
627.805	24.12
627.996	24.17
628.187	24.09
628.378	24.05
628.569	24.04
628.76	24.18
628.951	24.13
629.142	24.09
629.332	24.07
629.523	24.15
629.714	24.21
629.905	24.21
630.096	24.24
630.287	24.32
630.478	24.35
630.669	24.38
630.859	24.26
631.05	24.31
631.241	24.35
631.432	24.28
631.623	24.37
631.813	24.44
632.004	24.43
632.195	24.4
632.385	24.35
632.576	24.29
632.767	24.21
632.957	24.21
633.148	24.27
633.339	24.19
633.529	24.24
633.72	24.12
633.91	24.03
634.101	23.98
634.292	24.04
634.482	24.06
634.673	24.15
634.863	24.19
635.054	24.25
635.244	24.16
635.435	24.27
635.625	24.21
635.815	24.16
636.006	24.21
636.196	24.27
636.387	24.2
636.577	24.23
636.767	24.24
636.958	24.32
637.148	24.31
637.338	24.31
637.529	24.25
637.719	24.41
637.909	24.49
638.099	24.44
638.29	24.33
638.48	24.43
638.67	24.36
638.86	24.32
639.05	24.33
639.241	24.24
639.431	24.28
639.621	24.33
639.811	24.23
640.001	24.17
640.191	24.18
640.381	24.25
640.571	24.18
640.761	24.18
640.951	24.21
641.141	24.16
641.331	24.17
641.521	24.16
641.711	24.09
641.901	24.11
642.091	24.12
642.281	24.07
642.471	24.05
642.661	24.12
642.851	24.31
643.041	24.36
643.231	24.28
643.42	24.42
643.61	24.46
643.8	24.49
643.99	24.49
644.18	24.54
644.369	24.63
644.559	24.63
644.749	24.49
644.939	24.36
645.128	24.23
645.318	24.25
645.508	24.17
645.697	24.1
645.887	24.14
646.076	24.14
646.266	24.12
646.456	24.14
646.645	24.16
646.835	24.25
647.024	24.22
647.214	24.33
647.403	24.35
647.593	24.32
647.782	24.4
647.972	24.38
648.161	24.36
648.351	24.45
648.54	24.43
648.73	24.45
648.919	24.41
649.108	24.39
649.298	24.33
649.487	24.39
649.677	24.43
649.866	24.41
650.055	24.34
650.244	24.33
650.434	24.25
650.623	24.28
650.812	24.28
651.002	24.28
651.191	24.35
651.38	24.33
651.569	24.34
651.758	24.3
651.947	24.39
652.137	24.48
652.326	24.5
652.515	24.56
652.704	24.57
652.893	24.58
653.082	24.68
653.271	24.59
653.46	24.6
653.649	24.64
653.838	24.74
654.027	24.61
654.216	24.68
654.405	24.63
654.594	24.62
654.783	24.6
654.972	24.49
655.161	24.41
655.35	24.47
655.539	24.39
655.728	24.35
655.916	24.28
656.105	24.29
656.294	24.23
656.483	24.21
656.672	24.22
656.86	24.14
657.049	24.14
657.238	24.11
657.427	24.14
657.615	24.17
657.804	24.13
657.993	24.19
658.181	24.2
658.37	24.15
658.559	24.21
658.747	24.16
658.936	24.18
659.125	24.42
659.313	24.37
659.502	24.35
659.69	24.39
659.879	24.41
660.067	24.39
660.256	24.39
660.444	24.45
660.633	24.4
660.821	24.48
661.01	24.55
661.198	24.43
661.387	24.54
661.575	24.51
661.763	24.55
661.952	24.54
662.14	24.57
662.328	24.62
662.517	24.61
662.705	24.65
662.893	24.61
663.082	24.73
663.27	24.62
663.458	24.67
663.646	24.71
663.834	24.7
664.023	24.73
664.211	24.7
664.399	24.58
664.587	24.67
664.775	24.6
664.963	24.59
665.152	24.54
665.34	24.63
665.528	24.6
665.716	24.57
665.904	24.58
666.092	24.56
666.28	24.63
666.468	24.77
666.656	24.7
666.844	24.83
667.032	24.83
667.22	24.72
667.408	24.65
667.596	24.62
667.784	24.65
667.971	24.61
668.159	24.52
668.347	24.4
668.535	24.33
668.723	24.27
668.911	24.19
669.098	24.22
669.286	24.21
669.474	24.24
669.662	24.21
669.849	24.22
670.037	24.16
670.225	24.28
670.413	24.31
670.6	24.25
670.788	24.26
670.976	24.31
671.163	24.34
671.351	24.29
671.538	24.15
671.726	24.21
671.913	24.28
672.101	24.31
672.289	24.26
672.476	24.14
672.664	24.27
672.851	24.31
673.039	24.32
673.226	24.3
673.413	24.25
673.601	24.42
673.788	24.29
673.976	24.19
674.163	24.21
674.35	24.28
674.538	24.42
674.725	24.31
674.912	24.29
675.1	24.22
675.287	24.32
675.474	24.4
675.662	24.39
675.849	24.5
676.036	24.38
676.223	24.29
676.411	24.24
676.598	24.18
676.785	24.32
676.972	24.34
677.159	24.39
677.346	24.22
677.533	24.27
677.721	24.28
677.908	24.26
678.095	24.41
678.282	24.47
678.469	24.46
678.656	24.55
678.843	24.45
679.03	24.5
679.217	24.58
679.404	24.58
679.591	24.53
679.778	24.53
679.964	24.59
680.151	24.58
680.338	24.61
680.525	24.53
680.712	24.5
680.899	24.57
681.086	24.51
681.272	24.36
681.459	24.46
681.646	24.48
681.833	24.42
682.02	24.35
682.206	24.43
682.393	24.37
682.58	24.51
682.766	24.53
682.953	24.64
683.14	24.62
683.326	24.77
683.513	24.71
683.7	24.66
683.886	24.69
684.073	24.67
684.259	24.57
684.446	24.72
684.632	24.7
684.819	24.54
685.005	24.32
685.192	24.34
685.378	24.2
685.565	24.18
685.751	24.19
685.938	24.19
686.124	24.41
686.31	24.4
686.497	24.2
686.683	24.22
686.87	24.36
687.056	24.36
687.242	24.32
687.429	24.34
687.615	24.34
687.801	24.39
687.987	24.4
688.174	24.28
688.36	24.27
688.546	24.47
688.732	24.4
688.918	24.22
689.105	24.31
689.291	24.37
689.477	24.53
689.663	24.6
689.849	24.55
690.035	24.59
690.221	24.58
690.407	24.76
690.593	24.79
690.779	24.85
690.965	25.1
691.151	25.18
691.337	25.1
691.523	25.06
691.709	25.17
691.895	25.31
692.081	25.38
692.267	25.34
692.453	25.22
692.639	25.19
692.825	25.06
693.011	24.89
693.196	24.82
693.382	24.87
693.568	24.73
693.754	24.59
693.94	24.45
694.125	24.42
694.311	24.33
694.497	24.27
694.682	24.16
694.868	24.31
695.054	24.39
695.239	24.37
695.425	24.38
695.611	24.45
695.796	24.35
695.982	24.36
696.168	24.37
696.353	24.43
696.539	24.42
696.724	24.33
696.91	24.32
697.095	24.39
697.281	24.32
697.466	24.28
697.652	24.26
697.837	24.32
698.023	24.35
698.208	24.25
698.393	24.33
698.579	24.34
698.764	24.35
698.949	24.31
699.135	24.24
699.32	24.22
699.505	24.27
699.691	24.16
699.876	23.99
700.061	23.98
700.246	24.05
700.432	23.95
700.617	23.82
700.802	23.74
700.987	23.86
701.172	23.83
701.358	23.86
701.543	23.99
701.728	24.11
701.913	24.35
702.098	24.38
702.283	24.48
702.468	24.45
702.653	24.6
702.838	24.79
703.023	24.69
703.208	24.76
703.393	24.8
703.578	24.75
703.763	24.81
703.948	24.8
704.133	24.66
704.318	24.62
704.503	24.75
704.688	24.74
704.873	24.58
705.057	24.46
705.242	24.48
705.427	24.45
705.612	24.4
705.797	24.55
705.981	24.5
706.166	24.73
706.351	24.52
706.536	24.39
706.72	24.48
706.905	24.64
707.09	24.72
707.274	24.66
707.459	24.67
707.644	24.74
707.828	24.61
708.013	24.49
708.197	24.35
708.382	24.57
708.567	24.52
708.751	24.41
708.936	24.26
709.12	24.25
709.305	24.21
709.489	24.17
709.673	24.08
709.858	23.89
710.042	24.16
710.227	24.19
710.411	24.27
710.596	24.25
710.78	24.3
710.964	24.51
711.149	24.59
711.333	24.64
711.517	24.71
711.702	24.93
711.886	25.03
712.07	24.95
712.254	24.98
712.438	24.74
712.623	24.78
712.807	24.88
712.991	24.8
713.175	24.75
713.359	24.75
713.544	24.76
713.728	24.64
713.912	24.74
714.096	24.71
714.28	24.64
714.464	24.7
714.648	24.65
714.832	24.57
715.016	24.61
715.2	24.6
715.384	24.6
715.568	24.59
715.752	24.32
715.936	24.27
716.12	24.29
716.304	24.28
716.488	24.2
716.671	24.26
716.855	24.26
717.039	24.26
717.223	24.34
717.407	24.36
717.59	24.56
717.774	24.77
717.958	24.66
718.142	24.75
718.325	24.75
718.509	24.97
718.693	24.96
718.877	25.01
719.06	24.84
719.244	24.79
719.428	24.75
719.611	24.53
719.795	24.62
719.978	24.92
720.162	24.79
720.345	24.95
720.529	24.92
720.713	25.18
720.896	25.01
721.08	25.18
721.263	25.31
721.446	25.44
721.63	25.52
721.813	25.28
721.997	25.16
722.18	25.24
722.364	25.01
722.547	24.99
722.73	24.66
722.914	24.7
723.097	24.61
723.28	24.59
723.464	24.51
723.647	24.56
723.83	24.67
724.013	24.76
724.197	24.79
724.38	24.9
724.563	24.89
724.746	24.9
724.929	25.23
725.112	25.36
725.296	25.27
725.479	25.33
725.662	25.02
725.845	25.02
726.028	24.63
726.211	24.59
726.394	24.68
726.577	24.51
726.76	24.63
726.943	24.43
727.126	24.33
727.309	24.36
727.492	24.31
727.675	24.54
727.858	24.52
728.041	24.83
728.224	24.9
728.407	24.62
728.589	24.91
728.772	24.99
728.955	24.99
729.138	25.15
729.321	25.05
729.503	25.16
729.686	25.24
729.869	25.29
730.052	25.17
730.234	24.97
730.417	25.31
730.6	25.16
730.782	25.18
730.965	25.18
731.148	25.22
731.33	25.28
731.513	25.08
731.695	24.82
731.878	24.76
732.061	24.72
732.243	24.92
732.426	24.7
732.608	24.65
732.791	24.73
732.973	24.72
733.156	24.59
733.338	24.48
733.52	24.48
733.703	24.62
733.885	24.63
734.068	24.76
734.25	24.88
734.432	24.93
734.615	24.76
734.797	24.58
734.979	24.59
735.162	24.44
735.344	24.67
735.526	24.75
735.708	24.69
735.891	24.85
736.073	24.8
736.255	24.47
736.437	24.42
736.619	24.62
736.802	24.74
736.984	24.69
737.166	24.97
737.348	24.8
737.53	24.88
737.712	24.82
737.894	24.89
738.076	24.85
738.258	24.83
738.44	25.03
738.622	25.08
738.804	24.83
738.986	24.82
739.168	24.78
739.35	24.89
739.532	24.83
739.714	25.16
739.896	24.92
740.078	25.02
740.259	24.98
740.441	24.96
740.623	24.91
740.805	25.17
740.987	25.18
741.168	24.82
741.35	24.81
741.532	24.86
741.714	24.56
741.895	24.71
742.077	24.63
742.259	24.75
742.44	24.67
742.622	24.79
742.804	24.64
742.985	24.77
743.167	24.95
743.348	24.96
743.53	24.95
743.711	25.06
743.893	25.13
744.075	24.98
744.256	25.08
744.438	24.93
744.619	25.02
744.8	25.16
744.982	25.03
745.163	24.85
745.345	24.91
745.526	25.15
745.707	25.06
745.889	24.86
746.07	25.27
746.252	25.23
746.433	25.24
746.614	25.01
746.795	24.38
746.977	24.43
747.158	24.66
747.339	24.75
747.52	24.57
747.702	24.52
747.883	24.46
748.064	24.25
748.245	24.24
748.426	24.27
748.607	24.32
748.788	24.79
748.97	24.98
749.151	25
749.332	24.84
749.513	24.79
749.694	25.03
749.875	25.33
750.056	25.35
750.237	25.21
750.418	25.46
750.599	25.5
750.78	25.84
750.96	25.55
751.141	25.48
751.322	25.61
751.503	25.61
751.684	25.52
751.865	25.14
752.046	24.91
752.226	25.04
752.407	25.02
752.588	25.06
752.769	24.78
752.949	24.37
753.13	24.49
753.311	24.29
753.492	24.15
753.672	24.41
753.853	24.87
754.034	24.92
754.214	25.23
754.395	24.76
754.575	24.49
754.756	24.72
754.937	24.98
755.117	24.88
755.298	25.09
755.478	25.2
755.659	24.88
755.839	24.21
756.02	24.45
756.2	23.99
756.381	24.09
756.561	24.22
756.741	24.2
756.922	24.4
757.102	24.53
757.283	24.43
757.463	24.48
757.643	24.64
757.823	24.9
758.004	24.82
758.184	24.93
758.364	25.48
758.545	25.63
758.725	25.16
758.905	25.1
759.085	25.12
759.265	25.11
759.446	25.02
759.626	24.75
759.806	24.73
759.986	24.7
760.166	24.87
760.346	24.47
760.526	24.45
760.706	24.82
760.886	24.66
761.066	24.5
761.246	24.39
761.426	24.49
761.606	24.5
761.786	24.57
761.966	24.37
762.146	24.33
762.326	24.33
762.506	24.32
762.686	24.13
762.866	24.11
763.046	24.27
763.225	24.32
763.405	24.11
763.585	23.98
763.765	23.96
763.945	24.01
764.124	23.93
764.304	23.99
764.484	23.76
764.664	23.74
764.843	23.99
765.023	23.71
765.203	23.81
765.382	23.85
765.562	24.11
765.741	23.94
765.921	24.13
766.101	24.17
766.28	24.39
766.46	24.76
766.639	24.79
766.819	24.94
766.998	25.41
767.178	25.05
767.357	25.07
767.537	25.18
767.716	25.76
767.896	25.44
768.075	25.51
768.254	25.05
768.434	25.06
768.613	25.53
768.792	25.22
768.972	24.99
769.151	25.22
769.33	24.97
769.51	25.18
769.689	25.02
769.868	25.43
770.047	25.62
770.226	25.8
770.406	25.55
770.585	25.19
770.764	25.3
770.943	25.2
771.122	24.81
771.301	25.81
771.48	25.23
771.66	25.25
771.839	25.04
772.018	24.74
772.197	24.76
772.376	25.11
772.555	25.36
772.734	25.37
772.913	25.61
773.092	26.08
773.271	25.16
773.449	25.68
773.628	25.81
773.807	26.01
773.986	25.94
774.165	25.79
774.344	25.77
774.523	25.39
774.701	25.29
774.88	25.29
775.059	24.71
775.238	25.3
775.417	24.94
775.595	24.69
775.774	24.39
775.953	24.41
776.131	24.65
776.31	24.23
776.489	24.48
776.667	24.52
776.846	24.21
777.025	24.5
777.203	24.08
777.382	24.52
777.56	24.05
777.739	24.04
777.917	24.13
778.096	23.94
778.274	24.09
778.453	24.23
778.631	24.3
778.81	24.53
778.988	24.79
779.166	24.79
779.345	24.43
779.523	24.79
779.702	25.35
779.88	25.4
780.058	25.45
780.237	25.81
780.415	25.72
780.593	25.47
780.771	25.36
780.95	25.6
781.128	25.64
781.306	25.93
781.484	26.05
781.662	25.36
781.841	25.33
782.019	25.54
782.197	25.27
782.375	25.36
782.553	25.78
782.731	25.66
782.909	25.29
783.087	25.68
783.265	25.79
783.443	25.65
783.621	26
783.799	25.85
783.977	26.06
784.155	25.97
784.333	26.37
784.511	26.12
784.689	26.31
784.867	26.57
785.045	26.24
785.223	25.87
785.4	25.62
785.578	25.29
785.756	25.17
785.934	24.73
786.112	24.54
786.289	24.31
786.467	24.33
786.645	24.09
786.823	23.98
787	24.28
787.178	23.99
787.356	24.5
787.533	24.67
787.711	24.88
787.889	25.01
788.066	25.16
788.244	24.85
788.421	24.97
788.599	24.88
788.776	24.99
788.954	24.86
789.131	24.93
789.309	24.91
789.486	24.89
789.664	25.33
789.841	25.54
790.019	25.76
790.196	25.79
790.373	25.5
790.551	25.89
790.728	25.26
790.906	25.48
791.083	25.4
791.26	25.45
791.437	25.89
791.615	25.18
791.792	25.01
791.969	24.72
792.146	24.25
792.324	24.58
792.501	25.17
792.678	25.64
792.855	25.3
793.032	25.82
793.209	25.95
793.387	25.39
793.564	25.77
793.741	25.78
793.918	25.88
794.095	26.15
794.272	25.99
794.449	25.28
794.626	25.9
794.803	25.84
794.98	25.21
795.157	24.97
795.334	25.14
795.511	24.86
795.688	24.61
795.864	24.46
796.041	24.62
796.218	25.07
796.395	25.38
796.572	24.72
796.749	24.63
796.925	25.12
797.102	25.03
797.279	24.86
797.456	25.2
797.632	25.33
797.809	26.09
797.986	26.15
798.162	25.45
798.339	24.69
798.516	25.37
798.692	25.81
798.869	25.39
799.046	25.2
799.222	25.49
799.399	25.42
799.575	25.6
799.752	25.2
799.928	25.55
800.105	25.98
800.281	26.2
800.458	26.12
800.634	25.61
800.811	26.23
800.987	26.54
801.163	26.69
801.34	26.71
801.516	26.6
801.692	26.72
801.869	26.4
802.045	26.36
802.221	26.26
802.398	25.71
802.574	26.23
802.75	26.33
802.926	26.48
803.103	26.68
803.279	26.55
803.455	26.75
803.631	26.52
803.807	26.46
803.983	26.97
804.16	27.83
804.336	28.12
804.512	27.94
804.688	27.63
804.864	27.44
805.04	26.89
805.216	27.34
805.392	27.5
805.568	27.7
805.744	27.97
805.92	27.74
806.096	27.2
806.272	27.2
806.448	27.53
806.623	27.85
806.799	27.68
806.975	28.03
807.151	27.56
807.327	27.34
807.503	26.92
807.678	26.7
807.854	26.33
808.03	26.13
808.206	25.83
808.381	25.24
808.557	24.81
808.733	24.98
808.908	24.8
809.084	25.17
809.26	25.85
809.435	25.73
809.611	25.71
809.787	25.21
809.962	25.33
810.138	25.58
810.313	26.11
810.489	26.25
810.664	26.02
810.84	25.76
811.015	25.62
811.191	24.59
811.366	25.7
811.542	26.46
811.717	26.71
811.892	27.57
812.068	27.75
812.243	27.27
812.419	27.76
812.594	27.96
812.769	28.34
812.944	28.32
813.12	28.73
813.295	27.92
813.47	27.48
813.645	28.34
813.821	27.97
813.996	28.08
814.171	28.49
814.346	27.94
814.521	28.84
814.697	29.87
814.872	30.06
815.047	30.22
815.222	31.17
815.397	30.43
815.572	30.17
815.747	30.19
815.922	29.77
816.097	29.97
816.272	30.26
816.447	29.53
816.622	28.83
816.797	28.28
816.972	27.97
817.147	27.07
817.322	27.22
817.496	26.79
817.671	26.54
817.846	26.59
818.021	26.17
818.196	25.93
818.371	25.92
818.545	24.84
818.72	25.12
818.895	25.45
819.069	25.23
819.244	25.59
819.419	25.82
819.594	25.47
819.768	25.23
819.943	25.23
820.117	25.06
820.292	24.45
820.467	24.58
820.641	24.3
820.816	24.11
820.99	24.01
821.165	23.75
821.339	23.57
821.514	23.64
821.688	23.47
821.863	23.21
822.037	23.09
822.212	23.25
822.386	23.2
822.56	23.14
822.735	23.11
822.909	23.06
823.084	23.02
823.258	23.06
823.432	22.95
823.606	23.03
823.781	23.37
823.955	23.54
824.129	23.39
824.303	23.34
824.478	23.49
824.652	23.43
824.826	23.41
825	23.43
825.174	23.23
825.348	23.07
825.523	22.99
825.697	22.63
825.871	22.61
826.045	22.97
826.219	23.12
826.393	23.31
826.567	23.32
826.741	23.6
826.915	23.7
827.089	23.94
827.263	24.21
827.437	24.39
827.611	24.45
827.784	24.46
827.958	24.26
828.132	24.51
828.306	24.4
828.48	24.66
828.654	24.58
828.827	24.75
829.001	24.67
829.175	25.09
829.349	25.49
829.522	25.75
829.696	26.52
829.87	26.86
830.044	27.15
830.217	27.2
830.391	26.91
830.565	27.08
830.738	27.79
830.912	27.67
831.085	27.03
831.259	27.42
831.432	27.84
831.606	27.09
831.779	26.65
831.953	25.53
832.126	25.59
832.3	25.32
832.473	24.97
832.647	24.38
832.82	24.4
832.994	24.33
833.167	23.8
833.34	23.72
833.514	23.49
833.687	23.75
833.86	24.28
834.034	24.3
834.207	24.54
834.38	24.81
834.553	25
834.727	25.37
834.9	25.22
835.073	25.14
835.246	24.91
835.419	25.45
835.593	25.47
835.766	25.46
835.939	25.27
836.112	25.1
836.285	25.36
836.458	25.14
836.631	24.98
836.804	25.25
836.977	25.18
837.15	24.99
837.323	24.07
837.496	23.87
837.669	22.91
837.842	23.5
838.015	24.71
838.188	24.39
838.361	24.72
838.533	23.97
838.706	24.7
838.879	25.15
839.052	25.77
839.225	26.49
839.398	26.23
839.57	27.66
839.743	27.28
839.916	25.86
840.088	25.45
840.261	25.53
840.434	26
840.607	26.2
840.779	26.99
840.952	27.28
841.124	26.77
841.297	27.45
841.47	28.13
841.642	27.85
841.815	28.95
841.987	29.06
842.16	28.71
842.332	29.4
842.505	28.95
842.677	28.03
842.85	26.95
843.022	28.34
843.194	28.67
843.367	28.48
843.539	28.66
843.712	28.52
843.884	29.44
844.056	30.83
844.229	32.69
844.401	33.33
844.573	34.82
844.745	38.05
844.918	36.62
845.09	35.26
845.262	32.62
845.434	34.18
845.606	33.1
845.779	33.68
845.951	34.23
846.123	32.42
846.295	32.69
846.467	32.97
846.639	31.42
846.811	32.32
846.983	32.33
847.155	34.1
847.327	32.84
847.499	34.89
847.671	35.07
847.843	33.91
848.015	33.74
848.187	33.64
848.359	31.84
848.531	31.03
848.703	29.97
848.875	30.29
849.047	30.71
849.218	32.43
849.39	30.68
849.562	29.44
849.734	29.53
849.905	30.81
850.077	29.61
850.249	30.45
850.421	29.9
850.592	29.36
850.764	30.11
850.936	29.92
851.107	29.34
851.279	30.19
851.451	31.42
851.622	32.7
851.794	31.43
851.965	31.92
852.137	31.7
852.308	32.61
852.48	34.87
852.651	34.65
852.823	36.34
852.994	34.76
853.166	36.79
853.337	38.19
853.509	35
853.68	35.16
853.851	35.25
854.023	35.29
854.194	35.86
854.365	35.97
854.537	36.67
854.708	33.49
854.879	36.21
855.05	34.85
855.222	33.79
855.393	35.12
855.564	32.86
855.735	31.55
855.906	29.92
856.078	28.81
856.249	30.81
856.42	31.54
856.591	33.6
856.762	31.28
856.933	31.59
857.104	29.57
857.275	29.73
857.446	31.66
857.617	33.06
857.788	35.23
857.959	35.39
858.13	33.6
858.301	34.51
858.472	33.11
858.643	34.54
858.814	34.38
858.985	35.53
859.155	36.3
859.326	36.98
859.497	39.55
859.668	40.3
859.839	43.28
860.009	43.44
860.18	41.66
860.351	40.58
860.522	39.57
860.692	38.96
860.863	39.48
861.034	40.72
861.204	42.55
861.375	41
861.546	41.16
861.716	37.92
861.887	38.77
862.057	38.26
862.228	38.4
862.398	37.82
862.569	37.49
862.739	39.32
862.91	38.81
863.08	38.2
863.251	37.57
863.421	37.18
863.592	39.19
863.762	38.74
863.932	38.43
864.103	40.79
864.273	41.8
864.443	42.9
864.614	41.55
864.784	40.97
864.954	38.49
865.125	40.21
865.295	40.9
865.465	39.31
865.635	37.41
865.805	40.23
865.976	40.17
866.146	39.9
866.316	38.76
866.486	39.48
866.656	40.88
866.826	40.79
866.996	39.51
867.166	39.14
867.336	40.2
867.506	40.94
867.676	39.43
867.846	38.3
868.016	37.81
868.186	37.85
868.356	36.22
868.526	33.28
868.696	33.83
868.866	32.13
869.036	33.27
869.206	32.25
869.376	33.21
869.545	32.58
869.715	33.39
869.885	34.48
870.055	35.5
870.224	37.34
870.394	38.58
870.564	41.48
870.734	42.48
870.903	40.51
871.073	40.23
871.243	38.64
871.412	39.48
871.582	38.38
871.751	37.84
871.921	38.17
872.091	36.27
872.26	36.82
872.43	33.28
872.599	34.3
872.769	34.76
872.938	36.06
873.108	36.85
873.277	34.27
873.446	31.9
873.616	30.17
873.785	30.3
873.955	29.52
874.124	26.47
874.293	27.71
874.463	27.54
874.632	29.13
874.801	27.63
874.971	26.23
875.14	26.38
875.309	27.65
875.478	29.75
875.647	27.08
875.817	29.49
875.986	30.62
876.155	31.32
876.324	30.44
876.493	29.09
876.662	29.85
876.831	28.72
877	31.56
877.17	33.35
877.339	31.96
877.508	34.35
877.677	32.34
877.846	33.53
878.015	33.42
878.184	33.7
878.352	31.91
878.521	32.16
878.69	34.5
878.859	33.86
879.028	32.58
879.197	32.18
879.366	29.67
879.534	29.35
879.703	28.01
879.872	26.9
880.041	26.62
880.21	26.44
880.378	26.08
880.547	24.99
880.716	24.34
880.884	24
881.053	23.71
881.222	24.05
881.39	24.13
881.559	23.99
881.727	24.12
881.896	23.51
882.065	23.46
882.233	23.38
882.402	23.58
882.57	23.65
882.739	23.37
882.907	23.41
883.076	22.93
883.244	22.7
883.412	23.26
883.581	23.12
883.749	23.92
883.918	24.05
884.086	24.1
884.254	24.26
884.423	25.25
884.591	25.92
884.759	27.23
884.927	28.43
885.096	29.11
885.264	29.78
885.432	31.02
885.6	29.84
885.769	29.63
885.937	29.96
886.105	30.42
886.273	29.3
886.441	29.5
886.609	29.08
886.777	30.83
886.945	31.65
887.113	31.51
887.281	28.81
887.449	29.44
887.617	31.49
887.785	31.12
887.953	31.84
888.121	31.48
888.289	32.67
888.457	33.1
888.625	29
888.793	31.57
888.961	31.63
889.129	33.53
889.296	37.71
889.464	37.23
889.632	38.69
889.8	37.99
889.967	40.02
890.135	41.49
