Data from JASIL_3139_Reflection_2.txt Node
Date: Thu Nov 12 20:53:15 EST 2015
User: Geneva
Spectrometer: USB4E03002
Autoset integration time: false
Trigger mode: 4
Integration Time (sec): 1.000000E-1
Scans to average: 10
Electric dark correction enabled: true
Nonlinearity correction enabled: false
Boxcar width: 5
Stray light correction enabled: false
XAxis mode: Wavelengths
Stop averaging: false
Number of Pixels in Spectrum: 3648
>>>>>Begin Spectral Data<<<<<
177.575	575.8
177.794	415.76
178.014	492.67
178.233	103.09
178.452	154.85
178.672	2794.87
178.891	-341.54
179.11	74.01
179.33	64.59
179.549	62.9
179.768	424.87
179.987	41.26
180.207	2773.08
180.426	-62.98
180.645	-36.87
180.864	-97.3
181.084	-77.94
181.303	-118.24
181.522	-27.19
181.741	-57.11
181.96	-178.82
182.179	-228.01
182.398	-261.19
182.618	-59.21
182.837	-15.73
183.056	10.58
183.275	-401.35
183.494	439.58
183.713	228.98
183.932	274.72
184.151	404.01
184.37	269.03
184.589	209.79
184.808	279.16
185.027	323.48
185.246	138.27
185.465	-120.77
185.684	101.87
185.903	-29.84
186.122	9.52
186.341	2.95
186.56	11.38
186.779	13.48
186.998	18.77
187.216	-15.76
187.435	-49
187.654	-31.2
187.873	-9076.92
188.092	-111.72
188.311	165.29
188.53	210.49
188.748	196.28
188.967	169.01
189.186	292.49
189.405	-238.84
189.623	-130.28
189.842	230.28
190.061	89.42
190.28	79.87
190.498	109.66
190.717	78.12
190.936	53.74
191.154	44.37
191.373	29.14
191.592	121.87
191.81	85.51
192.029	39.28
192.248	-98.79
192.466	438.26
192.685	6538.46
192.904	1852.99
193.122	294.82
193.341	264.19
193.559	162.36
193.778	166.71
193.996	245.53
194.215	299.85
194.433	318.78
194.652	338.97
194.87	327.31
195.089	357.37
195.307	187.9
195.526	116.79
195.744	194.85
195.963	-1032.58
196.181	256.38
196.399	170.8
196.618	-3.59
196.836	-29.38
197.055	-13.7
197.273	52.44
197.491	57.19
197.71	94.05
197.928	70.79
198.146	63.84
198.365	54.93
198.583	61.99
198.801	55.39
199.019	64.44
199.238	46.07
199.456	70.37
199.674	37.97
199.892	66.07
200.111	64.35
200.329	89.84
200.547	100.09
200.765	145.48
200.983	117.11
201.202	116.34
201.42	112.2
201.638	102.26
201.856	62.17
202.074	14.67
202.292	373.76
202.51	49.62
202.728	38.35
202.946	61.99
203.165	48.77
203.383	54.17
203.601	73.51
203.819	85.21
204.037	71.06
204.255	56.35
204.473	-13.63
204.691	402.52
204.909	-80.18
205.127	-16.95
205.345	-39.01
205.562	-94.84
205.78	-1236.39
205.998	1059.13
206.216	-24.91
206.434	82.64
206.652	106.32
206.87	110.74
207.088	92.13
207.306	138.26
207.523	462.17
207.741	-935.53
207.959	522
208.177	-3946.15
208.395	-79.63
208.612	-64.42
208.83	-0.85
209.048	51.06
209.266	26.36
209.483	42.61
209.701	56.6
209.919	54.57
210.136	65.82
210.354	80.44
210.572	74.96
210.79	111.79
211.007	153.56
211.225	112.2
211.442	166.21
211.66	689.9
211.878	-1491.79
212.095	-198.75
212.313	-172.45
212.53	-283.8
212.748	-510.54
212.966	-313.73
213.183	-162.97
213.401	-18.12
213.618	-42.32
213.836	-51.58
214.053	-80.8
214.271	-71.68
214.488	-190.83
214.705	-153.07
214.923	-1212.82
215.14	149.21
215.358	128.24
215.575	114.23
215.793	178.48
216.01	173.73
216.227	293.09
216.445	144.09
216.662	87.21
216.879	91.49
217.097	-289.19
217.314	-456.41
217.531	-35.44
217.749	-12.4
217.966	-8.94
218.183	-31.9
218.4	-873.08
218.618	94.67
218.835	81.82
219.052	111.05
219.269	110.23
219.487	85.23
219.704	112.82
219.921	107.85
220.138	81.72
220.355	83.36
220.572	84.43
220.79	92.92
221.007	140.26
221.224	147.97
221.441	130.69
221.658	135.94
221.875	135.64
222.092	124.02
222.309	131.18
222.526	127.83
222.743	118.68
222.96	104
223.177	80.6
223.394	86.54
223.611	119.79
223.828	10953.85
224.045	72.76
224.262	197.93
224.479	74.56
224.696	688.76
224.913	-100.43
225.13	-64.12
225.347	-14.86
225.564	-241.03
225.781	-180.51
225.997	-103.48
226.214	-115.38
226.431	-23.01
226.648	-50.95
226.865	-42.24
227.082	-40.99
227.298	-41.29
227.515	-42.2
227.732	-51.19
227.949	-29.15
228.165	-23.67
228.382	-27.43
228.599	-20.75
228.816	-12.57
229.032	-14.31
229.249	-16.77
229.466	-10.39
229.682	-16.74
229.899	-28.26
230.116	-14.1
230.332	-8.95
230.549	-28.75
230.765	-15.19
230.982	-19.15
231.199	-55.49
231.415	-45.11
231.632	-24.51
231.848	-26.38
232.065	-11.72
232.281	2.69
232.498	-3.05
232.714	5.12
232.931	8.93
233.147	-1.61
233.364	-23.44
233.58	-1.89
233.797	-6.56
234.013	4.7
234.23	-5.14
234.446	-24.8
234.662	-28.85
234.879	-42.02
235.095	-50.19
235.312	-25.16
235.528	-55.54
235.744	-19.41
235.961	-27.06
236.177	-12.13
236.393	-69.71
236.61	-33.26
236.826	-44.82
237.042	-3.76
237.258	9.65
237.475	-0.62
237.691	-6.11
237.907	17.55
238.123	-2.75
238.339	16.17
238.556	1.95
238.772	23
238.988	2.46
239.204	21.84
239.42	9.63
239.636	-14.98
239.853	-6.69
240.069	-4.51
240.285	11.42
240.501	5.53
240.717	-4.49
240.933	1.35
241.149	-1.08
241.365	9.65
241.581	3.63
241.797	2.35
242.013	9.47
242.229	10.91
242.445	14.47
242.661	6.26
242.877	17.2
243.093	22.79
243.309	21.44
243.525	27.58
243.741	24.81
243.957	25.54
244.173	20.95
244.388	21.43
244.604	19.76
244.82	17.25
245.036	14.64
245.252	4.17
245.468	2.24
245.683	-5.02
245.899	-7.54
246.115	-8.91
246.331	-7.32
246.547	-4.9
246.762	-7.08
246.978	-6.71
247.194	-9.91
247.409	-9.57
247.625	-3.28
247.841	-4.11
248.057	2.58
248.272	-0.09
248.488	2.43
248.703	3.12
248.919	-1.49
249.135	-4.44
249.35	-4.73
249.566	-4.42
249.782	-2.51
249.997	-3.28
250.213	-1.73
250.428	-2.18
250.644	4.87
250.859	5.79
251.075	8.75
251.29	14.1
251.506	15.71
251.721	13.68
251.937	10.97
252.152	11.7
252.368	11.32
252.583	9.95
252.798	11.49
253.014	11.72
253.229	7.95
253.445	10.68
253.66	11.31
253.875	10.56
254.091	7.85
254.306	6.77
254.521	11.33
254.737	7.94
254.952	6.49
255.167	0.63
255.383	-3.1
255.598	0.96
255.813	-0.88
256.028	-5.78
256.244	-7.6
256.459	-7.57
256.674	-7.61
256.889	-11.69
257.104	-13.31
257.32	-12.06
257.535	-5.88
257.75	-1.67
257.965	1.37
258.18	5.21
258.395	7.81
258.61	10.84
258.826	11.14
259.041	13.6
259.256	12.66
259.471	13.61
259.686	13.66
259.901	11.94
260.116	12.7
260.331	11.53
260.546	8.41
260.761	6.25
260.976	3.08
261.191	2.67
261.406	-0.76
261.621	-0.99
261.836	-2.2
262.05	-0.43
262.265	-0.2
262.48	-2.95
262.695	-5.41
262.91	-0.12
263.125	0.68
263.34	2.25
263.555	10.57
263.769	11.92
263.984	16.6
264.199	14.3
264.414	14.06
264.629	14.57
264.843	13.06
265.058	14.96
265.273	10.55
265.488	12.28
265.702	13.07
265.917	9.49
266.132	10.9
266.346	8.08
266.561	8.46
266.776	10.36
266.99	10.87
267.205	8.46
267.42	6.48
267.634	6.19
267.849	5.8
268.063	6.82
268.278	4.08
268.492	1.36
268.707	2.44
268.922	4.11
269.136	1.35
269.351	-1.64
269.565	0.75
269.78	-3.05
269.994	-2.46
270.209	-4.36
270.423	-6.93
270.637	-2.77
270.852	-5.03
271.066	-6.41
271.281	-2.46
271.495	-1.86
271.709	0.6
271.924	0.23
272.138	3.48
272.353	2.51
272.567	3.17
272.781	3.48
272.996	0.18
273.21	3.07
273.424	3.86
273.638	4.05
273.853	3.87
274.067	0.97
274.281	1.96
274.495	1.33
274.71	-2.26
274.924	0.6
275.138	1.81
275.352	0.86
275.566	-0.6
275.781	-4.02
275.995	-6.63
276.209	-9.55
276.423	-8.22
276.637	-11.67
276.851	-8.7
277.065	-4.98
277.279	-7.75
277.493	-2.86
277.707	1.1
277.921	-2.61
278.135	-1.64
278.349	-2.28
278.563	1.71
278.777	0.64
278.991	1.06
279.205	-2.62
279.419	-2.19
279.633	-2
279.847	-8.16
280.061	-9.96
280.275	-6.25
280.489	-5.01
280.703	-4.65
280.917	-7.01
281.131	-4.1
281.344	-1.66
281.558	-1.95
281.772	-5.39
281.986	-2.4
282.2	-0.84
282.414	-2.04
282.627	-1.47
282.841	0.61
283.055	-0.21
283.269	-0.49
283.482	-1.59
283.696	-1.19
283.91	-2.31
284.123	-2.32
284.337	-3.25
284.551	-3.92
284.764	-2.64
284.978	-1.76
285.192	-4.15
285.405	-2.17
285.619	-2.45
285.833	-0.37
286.046	-0.14
286.26	4.48
286.473	4.54
286.687	2.87
286.9	4.04
287.114	6.03
287.327	4.12
287.541	4.33
287.754	2.02
287.968	4.08
288.181	4.07
288.395	3.39
288.608	-2.26
288.822	1.59
289.035	4.1
289.248	6.13
289.462	5.89
289.675	5.4
289.889	6.84
290.102	6.68
290.315	5.36
290.529	3.09
290.742	3.14
290.955	5.35
291.169	5.08
291.382	3.6
291.595	-2.77
291.808	-2.64
292.022	-1.08
292.235	-0.09
292.448	0.78
292.661	1.43
292.875	1.19
293.088	-0.34
293.301	0.88
293.514	1.51
293.727	3.79
293.94	10.23
294.153	9.74
294.367	8.61
294.58	6.67
294.793	7.66
295.006	7.99
295.219	9.28
295.432	10.1
295.645	10.81
295.858	11.67
296.071	10.06
296.284	7.38
296.497	6.52
296.71	6.51
296.923	7.84
297.136	7.54
297.349	8.18
297.562	8.23
297.775	10.16
297.988	9.52
298.201	6.62
298.414	5.85
298.626	8.93
298.839	10.74
299.052	15.01
299.265	16.14
299.478	16.31
299.691	16.45
299.903	16.61
300.116	15.11
300.329	18.24
300.542	20.21
300.755	21.73
300.967	20.45
301.18	19.02
301.393	14.15
301.605	12.5
301.818	11.31
302.031	10.24
302.243	11.89
302.456	9.37
302.669	6.95
302.881	6.25
303.094	7.49
303.307	8.57
303.519	9.3
303.732	11.52
303.944	11.82
304.157	14.5
304.37	14.68
304.582	13.99
304.795	16.86
305.007	17.7
305.22	17.15
305.432	16.39
305.645	13.35
305.857	13.88
306.069	15.77
306.282	12.29
306.494	10.21
306.707	11.7
306.919	9.84
307.132	8.95
307.344	5.94
307.556	7.21
307.769	7.52
307.981	9.28
308.193	7.82
308.406	6.81
308.618	10.77
308.83	13.97
309.043	14.82
309.255	17.69
309.467	19.16
309.679	22.02
309.892	20.64
310.104	23.55
310.316	24.86
310.528	26.09
310.74	25.27
310.953	23.75
311.165	22.82
311.377	23.1
311.589	23.14
311.801	23.94
312.013	23.72
312.225	23.8
312.437	19.08
312.649	18.18
312.862	19.54
313.074	21.14
313.286	24.11
313.498	22.84
313.71	20.75
313.922	19.35
314.134	18.04
314.346	17.43
314.558	18
314.77	20.65
314.982	21.35
315.193	19.85
315.405	19.41
315.617	17.38
315.829	20.48
316.041	19.76
316.253	17.28
316.465	12.78
316.677	13.41
316.888	15.37
317.1	16.92
317.312	13.83
317.524	12.23
317.736	13.93
317.947	15.48
318.159	11.63
318.371	14.06
318.583	15.64
318.794	20.74
319.006	18.94
319.218	19.08
319.43	16.21
319.641	16.37
319.853	19.2
320.064	17.14
320.276	15.23
320.488	18.39
320.699	17.98
320.911	18.13
321.123	17.73
321.334	14.88
321.546	14.09
321.757	16.21
321.969	18.05
322.18	17.34
322.392	17.04
322.603	18.47
322.815	19.31
323.026	20.23
323.238	20.2
323.449	21.71
323.661	25
323.872	23.03
324.083	22.13
324.295	23.09
324.506	21.99
324.718	24.86
324.929	22.22
325.14	18.85
325.352	19
325.563	18.26
325.774	17.64
325.986	19.99
326.197	19.92
326.408	20.62
326.62	18.36
326.831	18.08
327.042	16.65
327.253	18.1
327.464	18.02
327.676	17.2
327.887	19.1
328.098	20.17
328.309	16.03
328.52	19.28
328.732	15.3
328.943	17.4
329.154	17.16
329.365	18.61
329.576	19.57
329.787	20.64
329.998	21.41
330.209	20.76
330.42	18.52
330.631	19.34
330.842	20.86
331.053	25.02
331.264	23.27
331.475	24.61
331.686	22.52
331.897	23.34
332.108	23.27
332.319	22.91
332.53	22.33
332.741	23.56
332.952	26.21
333.163	23.3
333.374	22.3
333.585	23.15
333.795	22.3
334.006	21.99
334.217	21.2
334.428	22.99
334.639	23.14
334.849	21.87
335.06	19.78
335.271	17.67
335.482	17.29
335.692	15.74
335.903	18.07
336.114	19.74
336.325	18.46
336.535	18.56
336.746	15.98
336.957	16.86
337.167	18.46
337.378	20.65
337.589	21.76
337.799	22.78
338.01	23.97
338.22	19.17
338.431	19.53
338.642	20.01
338.852	19.39
339.063	21.58
339.273	21.47
339.484	22.28
339.694	21.89
339.905	21.14
340.115	20.57
340.326	20.05
340.536	24.14
340.746	24.04
340.957	24.6
341.167	24.71
341.378	25.88
341.588	23.64
341.799	24.4
342.009	21.91
342.219	23.12
342.43	21.81
342.64	23
342.85	21.43
343.061	20.97
343.271	21.35
343.481	22.25
343.691	20.46
343.902	21.39
344.112	20.71
344.322	21.5
344.532	20.16
344.743	21.95
344.953	21.64
345.163	21.27
345.373	21.83
345.583	22.6
345.793	22.65
346.004	22.09
346.214	22.11
346.424	21.68
346.634	21.76
346.844	23.22
347.054	22.6
347.264	21.82
347.474	21.02
347.684	19.28
347.894	18.63
348.104	15.67
348.314	16.03
348.524	15.9
348.734	14.78
348.944	16.41
349.154	15.17
349.364	15.48
349.574	14.9
349.784	16.33
349.994	17.35
350.204	17.99
350.413	18.71
350.623	20.7
350.833	21.09
351.043	21.8
351.253	21.13
351.463	20.49
351.672	20.46
351.882	21.76
352.092	20.68
352.302	21.51
352.511	20.34
352.721	22.02
352.931	20.64
353.141	20.26
353.35	20.07
353.56	19.34
353.77	21.07
353.979	21.45
354.189	20.46
354.399	21.12
354.608	20.25
354.818	21.43
355.027	21.17
355.237	20.83
355.447	21.87
355.656	24.03
355.866	25.55
356.075	23.31
356.285	22.91
356.494	22.59
356.704	21.69
356.913	21.37
357.123	20.31
357.332	20.45
357.542	20.32
357.751	19.39
357.96	18.29
358.17	17.23
358.379	18.16
358.589	18.11
358.798	18.43
359.007	18.85
359.217	19.19
359.426	20.55
359.635	20.73
359.845	20.46
360.054	20.9
360.263	20.51
360.472	21.2
360.682	21.46
360.891	21.14
361.1	21.04
361.309	21.29
361.519	21.53
361.728	21.3
361.937	20.35
362.146	20.31
362.355	20.95
362.564	20.9
362.774	19.57
362.983	19.84
363.192	20.05
363.401	20.28
363.61	19.63
363.819	20.28
364.028	19.68
364.237	21.2
364.446	20.99
364.655	19.6
364.864	20.17
365.073	20.52
365.282	19.65
365.491	20.66
365.7	21.06
365.909	21.45
366.118	20.25
366.327	21.08
366.536	19.42
366.745	19.7
366.954	20.46
367.162	20
367.371	20.49
367.58	20.27
367.789	18.47
367.998	18.95
368.207	20.59
368.415	22.2
368.624	21.36
368.833	22.39
369.042	22.64
369.25	22.55
369.459	22.29
369.668	22.19
369.877	21.02
370.085	22.35
370.294	21.01
370.503	20.63
370.711	18.78
370.92	18.17
371.129	18.59
371.337	19.48
371.546	18.85
371.754	18.08
371.963	17.92
372.171	19.15
372.38	18.89
372.589	20.48
372.797	19.47
373.006	21.01
373.214	21.7
373.423	20.63
373.631	19.95
373.84	19.55
374.048	20.6
374.256	20.29
374.465	21.94
374.673	22.5
374.882	20.84
375.09	20.52
375.298	19.17
375.507	18.39
375.715	18.54
375.923	17.61
376.132	19.63
376.34	19.27
376.548	18.98
376.757	17.49
376.965	16.57
377.173	17.48
377.381	17.27
377.59	16.02
377.798	16.05
378.006	15.66
378.214	16.87
378.423	14.98
378.631	14.38
378.839	14.39
379.047	15.24
379.255	14.7
379.463	14.99
379.671	14.84
379.879	15.41
380.088	16.37
380.296	16.44
380.504	15.28
380.712	15.31
380.92	15.8
381.128	16.79
381.336	16.42
381.544	17.28
381.752	16.22
381.96	16.39
382.168	17.24
382.376	16.94
382.584	17.46
382.791	18.12
382.999	18.8
383.207	19.95
383.415	19.41
383.623	19.46
383.831	19.29
384.039	18.6
384.247	18.26
384.454	18.05
384.662	18.05
384.87	18.05
385.078	17.83
385.285	18
385.493	17.91
385.701	17.96
385.909	17.65
386.116	18.65
386.324	20.41
386.532	21.56
386.739	21.65
386.947	21.13
387.155	21.06
387.362	21.07
387.57	19.64
387.778	20.23
387.985	19.51
388.193	19.72
388.4	17.43
388.608	16.79
388.816	17.05
389.023	15.68
389.231	15.55
389.438	15.08
389.646	15.73
389.853	16.17
390.061	14.85
390.268	15.54
390.475	15.86
390.683	17.4
390.89	17.19
391.098	17.07
391.305	17.48
391.512	17.71
391.72	17.24
391.927	16.96
392.135	17.55
392.342	17.62
392.549	18.04
392.756	18
392.964	19.33
393.171	19.55
393.378	18.93
393.586	20
393.793	20.35
394	21.06
394.207	21.3
394.414	21.24
394.622	20.9
394.829	20.73
395.036	19.2
395.243	17.23
395.45	16.27
395.657	16.31
395.864	15.63
396.072	15.16
396.279	15.04
396.486	14.66
396.693	14.21
396.9	13.18
397.107	13.42
397.314	15.23
397.521	15.3
397.728	16.47
397.935	14.96
398.142	14.93
398.349	15.68
398.556	15.73
398.763	14.93
398.97	15.7
399.177	17.74
399.383	16.71
399.59	14.48
399.797	14.98
400.004	15.06
400.211	16.63
400.418	16.27
400.625	15.69
400.831	15.73
401.038	18.08
401.245	17.87
401.452	16.85
401.658	17.34
401.865	19.26
402.072	18.9
402.279	19.53
402.485	18.98
402.692	19.79
402.899	20.17
403.105	20.02
403.312	18.18
403.519	17.7
403.725	17.16
403.932	16.51
404.138	17.2
404.345	16.88
404.552	16.24
404.758	16.79
404.965	16.4
405.171	15.83
405.378	16.22
405.584	16.56
405.791	16.35
405.997	17.43
406.204	18.88
406.41	17.53
406.617	18.09
406.823	18.08
407.029	18.02
407.236	18.39
407.442	18.57
407.649	18.3
407.855	17.53
408.061	18.14
408.268	18.15
408.474	17.62
408.68	18.62
408.887	17.9
409.093	18.13
409.299	17.83
409.505	16.76
409.712	17.08
409.918	16.63
410.124	17.43
410.33	17.25
410.537	16.18
410.743	15.82
410.949	14.63
411.155	14.21
411.361	12.85
411.567	13.36
411.773	13.98
411.98	13.54
412.186	13.04
412.392	13.27
412.598	14.22
412.804	15.13
413.01	14.37
413.216	15.98
413.422	17.5
413.628	18.75
413.834	17.81
414.04	17.85
414.246	17.94
414.452	18.95
414.658	18.92
414.864	18.68
415.07	18.94
415.275	20.27
415.481	19.28
415.687	18.29
415.893	18.01
416.099	17.86
416.305	18.1
416.511	17.49
416.716	17.32
416.922	17.53
417.128	17.43
417.334	17.73
417.539	17.03
417.745	16.91
417.951	17.56
418.157	17.93
418.362	19.13
418.568	19.01
418.774	19.14
418.979	19.13
419.185	18.89
419.391	18.59
419.596	18.65
419.802	18.92
420.008	19.26
420.213	23.41
420.419	23.22
420.624	22.49
420.83	22.68
421.035	22.91
421.241	22.71
421.446	22.48
421.652	22.22
421.857	21.87
422.063	21.7
422.268	21.47
422.474	16.86
422.679	16.85
422.885	17.01
423.09	16.73
423.295	16.8
423.501	17.01
423.706	17.47
423.911	17.76
424.117	18.03
424.322	17.98
424.527	18.19
424.733	18.26
424.938	18.33
425.143	18.11
425.349	18.11
425.554	18.14
425.759	17.89
425.964	17.27
426.169	17.26
426.375	16.64
426.58	16.64
426.785	16.31
426.99	16.18
427.195	15.68
427.4	15.88
427.605	16.34
427.811	15.74
428.016	15.34
428.221	15.86
428.426	16.11
428.631	16.28
428.836	16.53
429.041	16.62
429.246	17.02
429.451	17.54
429.656	17.77
429.861	17.68
430.066	17.81
430.271	18.34
430.476	17.4
430.681	17.7
430.886	17.77
431.09	17.45
431.295	17.17
431.5	17.23
431.705	16.4
431.91	15.71
432.115	15.59
432.32	16.21
432.524	15.85
432.729	16.44
432.934	16.04
433.139	16.37
433.343	16.65
433.548	17.03
433.753	16.85
433.958	17.45
434.162	18.04
434.367	17.57
434.572	17.12
434.776	17.82
434.981	17.93
435.186	17.67
435.39	17.22
435.595	16.85
435.799	16.52
436.004	16.47
436.209	16.76
436.413	16.26
436.618	16.75
436.822	16.73
437.027	16.98
437.231	16.33
437.436	16.08
437.64	16.88
437.845	17.14
438.049	17.22
438.253	17.68
438.458	17.95
438.662	18.19
438.867	18.22
439.071	18.64
439.275	18.13
439.48	18.79
439.684	19.35
439.888	18.66
440.093	18.7
440.297	19.01
440.501	18.87
440.706	17.95
440.91	17.68
441.114	17.31
441.318	17.37
441.523	17.77
441.727	17.27
441.931	16.66
442.135	17.09
442.339	16.37
442.543	15.79
442.748	15.65
442.952	15.89
443.156	16.48
443.36	16.93
443.564	16.39
443.768	15.96
443.972	16.26
444.176	16.58
444.38	16.43
444.584	17.2
444.788	17.33
444.992	17.32
445.196	17.77
445.4	17.83
445.604	17.66
445.808	17.56
446.012	17.72
446.216	17.89
446.42	18.02
446.624	18.24
446.828	17.97
447.032	17.9
447.235	17.94
447.439	17.31
447.643	16.88
447.847	17.19
448.051	17.13
448.254	16.48
448.458	15.8
448.662	16
448.866	15.62
449.069	16.42
449.273	16.6
449.477	16.7
449.681	16.18
449.884	16.12
450.088	15.52
450.292	15.4
450.495	15.71
450.699	16.17
450.902	15.62
451.106	15.25
451.31	14.7
451.513	14.51
451.717	13.94
451.92	14.88
452.124	14.94
452.327	15.48
452.531	15.48
452.734	15.73
452.938	15.83
453.141	16.38
453.345	16.45
453.548	15.9
453.752	16.57
453.955	17.26
454.158	17.18
454.362	16.81
454.565	16.54
454.769	16.54
454.972	16.32
455.175	15.7
455.379	14.99
455.582	15.61
455.785	15.65
455.988	14.73
456.192	14.58
456.395	14.22
456.598	14.45
456.801	13.9
457.005	14.23
457.208	14.42
457.411	14.75
457.614	14.94
457.817	14.36
458.021	14.78
458.224	15.25
458.427	15.65
458.63	16.31
458.833	16.56
459.036	16.73
459.239	16.75
459.442	16.68
459.645	16.71
459.848	16.69
460.051	16.85
460.254	16.69
460.457	16.48
460.66	15.77
460.863	15.49
461.066	15.82
461.269	15.79
461.472	15.99
461.675	16.07
461.878	16.1
462.081	15.93
462.284	16.25
462.486	16.34
462.689	16.21
462.892	16.82
463.095	16.43
463.298	15.93
463.5	15.72
463.703	15.62
463.906	15.38
464.109	15.03
464.311	15.55
464.514	15.14
464.717	15.18
464.92	15.72
465.122	15.32
465.325	16.09
465.528	15.62
465.73	16.38
465.933	16.08
466.135	15.28
466.338	15.43
466.541	15.07
466.743	14.96
466.946	15.09
467.148	15
467.351	14.95
467.553	14.32
467.756	14.66
467.958	13.28
468.161	13.13
468.363	14.58
468.566	14.75
468.768	14.45
468.971	14.18
469.173	14.07
469.375	14.04
469.578	13.48
469.78	13.36
469.983	13.71
470.185	14.59
470.387	15.04
470.59	14.75
470.792	15.1
470.994	15.68
471.196	16.47
471.399	16.5
471.601	16.15
471.803	17.03
472.005	16.84
472.208	16.99
472.41	17.54
472.612	17.66
472.814	17.62
473.016	17.49
473.218	17.24
473.421	17.05
473.623	17.35
473.825	17.06
474.027	16.86
474.229	16.71
474.431	15.73
474.633	14.68
474.835	14.14
475.037	14.46
475.239	14.6
475.441	14.5
475.643	14.68
475.845	14.05
476.047	14.31
476.249	14.47
476.451	14.85
476.653	15.49
476.855	16.16
477.057	17.05
477.258	16.78
477.46	16.39
477.662	16.55
477.864	16.05
478.066	16.37
478.268	16.45
478.469	16.29
478.671	16.6
478.873	16.44
479.075	16.51
479.276	16.02
479.478	16.48
479.68	16.66
479.882	16.91
480.083	17.55
480.285	17.64
480.487	17.95
480.688	17.91
480.89	17.88
481.091	17.81
481.293	18.11
481.495	18.17
481.696	17.92
481.898	18.06
482.099	17.91
482.301	17.8
482.502	17.97
482.704	17.86
482.905	18
483.107	18
483.308	18.22
483.51	18.04
483.711	17.99
483.913	18.16
484.114	18.12
484.315	18.32
484.517	18.54
484.718	18.38
484.92	18.5
485.121	18.36
485.322	18.4
485.524	18.47
485.725	18.56
485.926	18.62
486.127	18.39
486.329	18.34
486.53	18.3
486.731	17.94
486.932	17.78
487.134	17.89
487.335	17.93
487.536	17.98
487.737	17.67
487.938	17.49
488.139	17.46
488.341	17.45
488.542	17.33
488.743	17.25
488.944	17.35
489.145	17.65
489.346	17.11
489.547	17.2
489.748	16.94
489.949	17.1
490.15	17.38
490.351	17.64
490.552	17.78
490.753	17.99
490.954	17.76
491.155	17.89
491.356	17.65
491.557	17.94
491.758	17.81
491.959	17.63
492.159	17.66
492.36	17.7
492.561	17.31
492.762	17.05
492.963	16.9
493.164	16.91
493.364	16.45
493.565	16.24
493.766	16.76
493.967	17.07
494.167	17.33
494.368	17.33
494.569	16.85
494.769	16.9
494.97	17.39
495.171	17.25
495.371	17.62
495.572	17.75
495.773	17.85
495.973	17.17
496.174	16.93
496.375	16.88
496.575	16.93
496.776	16.76
496.976	16.91
497.177	16.26
497.377	16.26
497.578	15.88
497.778	16.18
497.979	16.51
498.179	16.49
498.38	16.71
498.58	16.74
498.78	16.49
498.981	16.78
499.181	16.82
499.382	16.77
499.582	16.71
499.782	16.9
499.983	16.15
500.183	15.88
500.383	16.13
500.584	15.32
500.784	15.88
500.984	15.66
501.184	15.42
501.385	15.27
501.585	15.52
501.785	15.69
501.985	15.63
502.185	15.87
502.386	16.45
502.586	15.85
502.786	16.55
502.986	16.29
503.186	16.49
503.386	17.24
503.586	17.17
503.786	17.43
503.987	17.5
504.187	16.85
504.387	17.41
504.587	16.63
504.787	17.54
504.987	17.41
505.187	17.4
505.387	17.77
505.587	17.48
505.786	17.63
505.986	17.96
506.186	17.7
506.386	18.58
506.586	18.45
506.786	18.73
506.986	18.43
507.186	18.63
507.386	18.54
507.585	18.12
507.785	17.85
507.985	17.95
508.185	17.29
508.384	17.64
508.584	17.58
508.784	17.34
508.984	17.51
509.183	17.11
509.383	17.21
509.583	17.49
509.782	18
509.982	18.7
510.182	18.68
510.381	19.15
510.581	19.04
510.781	19.06
510.98	18.94
511.18	18.82
511.379	19.03
511.579	19.08
511.778	18.83
511.978	18.68
512.177	18.51
512.377	18.11
512.576	18.17
512.776	18.79
512.975	19
513.175	19.3
513.374	19.29
513.573	19.48
513.773	19.31
513.972	19.7
514.172	19.51
514.371	19.1
514.57	19.34
514.77	19.13
514.969	18.47
515.168	17.99
515.367	17.96
515.567	18.23
515.766	18.07
515.965	18.38
516.164	17.84
516.364	17.87
516.563	18.37
516.762	18.97
516.961	19.06
517.16	18.97
517.359	19.28
517.559	19.36
517.758	19.4
517.957	19.83
518.156	19.75
518.355	20.37
518.554	20.93
518.753	20.82
518.952	20.9
519.151	20.98
519.35	20.93
519.549	20.75
519.748	20.89
519.947	20.7
520.146	20.5
520.345	20.4
520.544	19.93
520.743	19.33
520.942	19.35
521.141	18.99
521.339	19.14
521.538	19.53
521.737	19.84
521.936	20.03
522.135	20.61
522.333	20.91
522.532	20.86
522.731	21.06
522.93	21.31
523.129	21.14
523.327	21.35
523.526	21.32
523.725	21.64
523.923	21.59
524.122	21.25
524.321	21.3
524.519	21.55
524.718	21.63
524.917	21.66
525.115	21.77
525.314	22.02
525.512	22.15
525.711	22.41
525.909	22.78
526.108	22.79
526.306	23.23
526.505	23.3
526.703	23.25
526.902	23.58
527.1	23.8
527.299	23.9
527.497	24.02
527.696	24.18
527.894	23.99
528.092	23.87
528.291	23.82
528.489	23.42
528.688	23.31
528.886	23.09
529.084	23.1
529.283	23.13
529.481	22.87
529.679	22.72
529.877	22.27
530.076	22.3
530.274	22.01
530.472	22.38
530.67	22.98
530.869	23.01
531.067	23.16
531.265	23.21
531.463	23.23
531.661	23.69
531.859	23.87
532.057	24.21
532.255	24.24
532.454	24.14
532.652	24.08
532.85	24.21
533.048	24.31
533.246	24.53
533.444	24.39
533.642	24.4
533.84	24.38
534.038	24.16
534.236	24.15
534.434	24.32
534.632	24.84
534.83	24.94
535.027	24.78
535.225	24.5
535.423	24.49
535.621	24.48
535.819	24.29
536.017	24.52
536.215	24.71
536.412	24.51
536.61	24.43
536.808	24.31
537.006	24.16
537.203	24.01
537.401	24.67
537.599	24.72
537.797	24.8
537.994	24.78
538.192	24.67
538.39	24.62
538.587	24.69
538.785	24.89
538.983	25.14
539.18	25.16
539.378	25.44
539.575	25.42
539.773	25.54
539.97	25.79
540.168	26.13
540.366	26.27
540.563	26.64
540.761	26.83
540.958	26.96
541.155	26.86
541.353	27.18
541.55	27.25
541.748	27.34
541.945	27.46
542.143	27.52
542.34	27.67
542.537	27.4
542.735	27.46
542.932	27.37
543.129	27.12
543.327	27.13
543.524	27.27
543.721	27.11
543.919	26.9
544.116	26.84
544.313	26.6
544.51	26.21
544.708	26.41
544.905	26.32
545.102	26.55
545.299	26.72
545.496	26.56
545.693	26.08
545.891	26.31
546.088	26.69
546.285	26.65
546.482	26.67
546.679	27.04
546.876	27.28
547.073	26.95
547.27	26.82
547.467	26.75
547.664	26.88
547.861	26.9
548.058	27.18
548.255	26.95
548.452	26.98
548.649	27.58
548.846	27.36
549.043	26.94
549.24	26.97
549.437	27.26
549.633	27.29
549.83	27.68
550.027	27.7
550.224	27.97
550.421	27.49
550.618	28.05
550.814	27.66
551.011	28.05
551.208	28.03
551.405	28.53
551.601	28.35
551.798	28.7
551.995	28.59
552.191	29.12
552.388	28.89
552.585	29.31
552.781	28.87
552.978	28.66
553.175	28.34
553.371	28.4
553.568	27.98
553.764	28.1
553.961	27.89
554.157	27.83
554.354	26.71
554.55	26.25
554.747	26.25
554.943	26.58
555.14	26.78
555.336	26.44
555.533	26.81
555.729	27.5
555.926	27.63
556.122	27.85
556.318	28.1
556.515	28.98
556.711	29.84
556.907	29.94
557.104	29.92
557.3	30.32
557.496	30.89
557.693	30.39
557.889	30.51
558.085	30.39
558.281	30.85
558.478	30.65
558.674	31.06
558.87	30.6
559.066	30.91
559.262	31.02
559.459	30.81
559.655	31.23
559.851	31.38
560.047	30.86
560.243	30.92
560.439	30.59
560.635	31.25
560.831	31.45
561.027	31.8
561.223	31.53
561.419	31.38
561.615	31.37
561.811	31.16
562.007	31.3
562.203	31.24
562.399	31.71
562.595	31.31
562.791	31.12
562.987	31.22
563.183	31.16
563.379	31.94
563.575	32.72
563.771	33.27
563.966	32.86
564.162	33.58
564.358	33.9
564.554	33.47
564.75	33.15
564.945	33.27
565.141	32.93
565.337	32.63
565.533	32.29
565.728	31.96
565.924	31.95
566.12	32.53
566.315	33.04
566.511	32.87
566.707	33.45
566.902	34.12
567.098	33.23
567.293	33.77
567.489	34.05
567.684	34.34
567.88	33.97
568.076	33.35
568.271	33.47
568.467	32.64
568.662	33.04
568.858	32.63
569.053	32.53
569.248	33.21
569.444	33.02
569.639	32.29
569.835	31.86
570.03	32.5
570.225	33.05
570.421	32.73
570.616	32.77
570.812	32.7
571.007	32.89
571.202	33.14
571.397	32.72
571.593	32.78
571.788	34.14
571.983	34.47
572.178	33.92
572.374	34.08
572.569	33.93
572.764	34.39
572.959	34.29
573.154	34.08
573.35	34.39
573.545	34.8
573.74	34.66
573.935	34.08
574.13	33.91
574.325	34.06
574.52	33.61
574.715	34.12
574.91	33.53
575.105	33.78
575.3	33.68
575.495	33.38
575.69	34.13
575.885	33.88
576.08	33.76
576.275	34.59
576.47	34.92
576.665	35.03
576.86	34.89
577.055	34.99
577.25	35.39
577.444	35.79
577.639	36.39
577.834	35.6
578.029	35.43
578.224	35.48
578.418	35.03
578.613	34.69
578.808	34.76
579.003	34.25
579.197	34.27
579.392	33.73
579.587	33.18
579.781	33.25
579.976	33.48
580.171	34.3
580.365	34.22
580.56	34.55
580.755	34.4
580.949	34.41
581.144	35.1
581.338	35.62
581.533	36.02
581.727	36.54
581.922	35.72
582.116	35.5
582.311	35.05
582.505	35.3
582.7	34.23
582.894	34.37
583.089	34.95
583.283	34.52
583.478	33.97
583.672	32.99
583.866	33.05
584.061	32.7
584.255	33.02
584.449	33.41
584.644	33.92
584.838	34.61
585.032	35.22
585.226	35.16
585.421	35.6
585.615	36.65
585.809	37.52
586.003	37.55
586.198	39.06
586.392	39.02
586.586	38.84
586.78	37.51
586.974	37.83
587.168	38.15
587.363	37.65
587.557	37.59
587.751	36.84
587.945	36.9
588.139	36.95
588.333	35.59
588.527	35.26
588.721	35.51
588.915	35.82
589.109	34.81
589.303	34.06
589.497	34.38
589.691	33.96
589.885	34.08
590.079	33.22
590.273	33.03
590.466	33.31
590.66	33.73
590.854	33.15
591.048	34.08
591.242	35.03
591.436	34.85
591.629	34.9
591.823	35.36
592.017	36.09
592.211	36.44
592.404	36.45
592.598	36.27
592.792	36.02
592.986	36.29
593.179	36.07
593.373	36.07
593.567	36.49
593.76	36.55
593.954	36.95
594.147	36.56
594.341	37.42
594.535	37.63
594.728	38.47
594.922	38.92
595.115	39.06
595.309	38.72
595.502	38.65
595.696	39.01
595.889	39.07
596.083	38.32
596.276	38.41
596.47	38.04
596.663	38.29
596.856	38.03
597.05	37.17
597.243	37.25
597.437	37.9
597.63	38.08
597.823	37.68
598.017	37.53
598.21	37.92
598.403	37.14
598.596	37.37
598.79	36.98
598.983	36.55
599.176	38.07
599.369	37.61
599.563	36.56
599.756	36.1
599.949	36.99
600.142	37.27
600.335	37.22
600.528	37.66
600.722	37.21
600.915	37.49
601.108	38.23
601.301	37.69
601.494	38.36
601.687	38.64
601.88	38.81
602.073	37.88
602.266	38.34
602.459	37.6
602.652	37.82
602.845	37.81
603.038	36.97
603.231	36.65
603.424	37.31
603.617	37.28
603.809	37.75
604.002	37.54
604.195	37.7
604.388	37.27
604.581	38.11
604.774	38.26
604.966	38.32
605.159	39.15
605.352	39.44
605.545	39.02
605.737	39.28
605.93	38.94
606.123	38.62
606.316	38.81
606.508	38.6
606.701	38.22
606.894	37.98
607.086	38.77
607.279	38.27
607.471	38.54
607.664	38.7
607.857	38.47
608.049	38.99
608.242	39.58
608.434	39.32
608.627	39.44
608.819	39.56
609.012	39.35
609.204	39.47
609.397	39.5
609.589	39.88
609.782	40.38
609.974	40.45
610.166	40.24
610.359	40.24
610.551	40.4
610.743	41.26
610.936	41.69
611.128	42.29
611.32	41.38
611.513	41.69
611.705	40.17
611.897	38.81
612.09	38.34
612.282	37.69
612.474	37.32
612.666	37.96
612.858	36.75
613.051	36.8
613.243	36.19
613.435	36.85
613.627	36.7
613.819	36.65
614.011	36.94
614.203	37.65
614.395	38.01
614.588	38.38
614.78	37.74
614.972	38.5
615.164	38.34
615.356	38.47
615.548	37.88
615.74	38.56
615.932	39.32
616.124	39.58
616.315	39.54
616.507	39.56
616.699	39.88
616.891	40.37
617.083	39.86
617.275	40.05
617.467	41.16
617.659	41.72
617.85	41.29
618.042	41.37
618.234	41.46
618.426	40.09
618.618	39.84
618.809	39.52
619.001	38.95
619.193	38.94
619.384	38.95
619.576	38.21
619.768	37.67
619.959	38.69
620.151	39.12
620.343	38.84
620.534	40.16
620.726	40.32
620.917	39.8
621.109	41.14
621.301	41.35
621.492	41.68
621.684	41.72
621.875	41.81
622.067	41.43
622.258	41.57
622.45	41.85
622.641	42.01
622.832	42.81
623.024	43.34
623.215	41.83
623.407	41.3
623.598	40.43
623.789	41.07
623.981	41.34
624.172	40.77
624.363	40.41
624.555	41.19
624.746	40.67
624.937	40.17
625.129	40.83
625.32	41.61
625.511	42.6
625.702	42.91
625.893	42.47
626.085	42.09
626.276	42.63
626.467	42.61
626.658	42.24
626.849	42.72
627.04	42.57
627.231	41.94
627.422	41.22
627.614	39.9
627.805	39.88
627.996	40.09
628.187	40.08
628.378	39.79
628.569	39.63
628.76	39.38
628.951	38.4
629.142	39.28
629.332	39.25
629.523	39.94
629.714	40.11
629.905	41.29
630.096	40.5
630.287	40.83
630.478	40.51
630.669	41.24
630.859	40.9
631.05	41.91
631.241	41.45
631.432	40.89
631.623	41.28
631.813	42.28
632.004	41.01
632.195	41.05
632.385	40.83
632.576	40.48
632.767	39.81
632.957	39.87
633.148	39.68
633.339	39.56
633.529	39.82
633.72	39.46
633.91	38.99
634.101	38.59
634.292	38.74
634.482	38.99
634.673	39.24
634.863	39.39
635.054	40.49
635.244	39.72
635.435	39.81
635.625	40.2
635.815	40.94
636.006	41.41
636.196	42.13
636.387	42.38
636.577	43.09
636.767	43.6
636.958	43.57
637.148	42.39
637.338	43.22
637.529	42.81
637.719	42.84
637.909	41.42
638.099	41.97
638.29	42.57
638.48	43.06
638.67	42.49
638.86	42.46
639.05	43.19
639.241	44.01
639.431	43.52
639.621	43.85
639.811	44.45
640.001	45.28
640.191	45.08
640.381	45.18
640.571	44.87
640.761	44.75
640.951	44.7
641.141	43.32
641.331	42.35
641.521	41.47
641.711	41.79
641.901	41.7
642.091	41.1
642.281	39.4
642.471	37.34
642.661	37.81
642.851	37.75
643.041	38.8
643.231	40.13
643.42	40.67
643.61	40.76
643.8	40.09
643.99	40.27
644.18	41.68
644.369	42.89
644.559	44.37
644.749	44.88
644.939	45.19
645.128	44.44
645.318	44.24
645.508	43.86
645.697	45.11
645.887	45.58
646.076	45.33
646.266	44.41
646.456	44.57
646.645	44.95
646.835	44.61
647.024	45.04
647.214	44.83
647.403	44.27
647.593	44.44
647.782	44.48
647.972	44.77
648.161	44.83
648.351	44.37
648.54	44.28
648.73	44.72
648.919	44.56
649.108	43.69
649.298	43.51
649.487	44.26
649.677	45.41
649.866	44.28
650.055	44.07
650.244	44.71
650.434	45.5
650.623	45.84
650.812	45.24
651.002	44.82
651.191	44.94
651.38	44.53
651.569	43.67
651.758	43.73
651.947	45.02
652.137	45.1
652.326	43.52
652.515	43.02
652.704	42.38
652.893	41.77
653.082	42.31
653.271	42.3
653.46	42.96
653.649	44.17
653.838	43
654.027	42.33
654.216	42.99
654.405	43.53
654.594	43.96
654.783	45.07
654.972	45.7
655.161	45.01
655.35	45.41
655.539	44.91
655.728	44.47
655.916	43.82
656.105	43.77
656.294	42.81
656.483	43.15
656.672	44.03
656.86	42.67
657.049	43.04
657.238	44.47
657.427	44.58
657.615	45.41
657.804	45.38
657.993	46.76
658.181	46.84
658.37	46.65
658.559	46.26
658.747	45.43
658.936	45.54
659.125	45.02
659.313	44.07
659.502	44.07
659.69	43.29
659.879	43.8
660.067	43.35
660.256	43.76
660.444	44.09
660.633	44.9
660.821	46.43
661.01	46.62
661.198	46.41
661.387	47.07
661.575	47.27
661.763	47.61
661.952	47.44
662.14	46.62
662.328	46.74
662.517	46.69
662.705	46.72
662.893	44.64
663.082	45.37
663.27	46.03
663.458	44.69
663.646	44.06
663.834	44.85
664.023	44.26
664.211	44.54
664.399	45.01
664.587	45.72
664.775	45.43
664.963	46.18
665.152	45.71
665.34	44.78
665.528	46.97
665.716	47.09
665.904	47.61
666.092	47.58
666.28	47.72
666.468	47.24
666.656	46.62
666.844	46.52
667.032	46.34
667.22	46.51
667.408	46.2
667.596	44.69
667.784	44.52
667.971	43.15
668.159	42.6
668.347	41.43
668.535	40.06
668.723	41.01
668.911	41.39
669.098	41
669.286	41.85
669.474	43.82
669.662	43.71
669.849	43.99
670.037	45.07
670.225	45.13
670.413	45.62
670.6	46.89
670.788	46.34
670.976	45.49
671.163	47.21
671.351	46.35
671.538	46.45
671.726	47.14
671.913	47.99
672.101	46.54
672.289	46.63
672.476	47.97
672.664	48.73
672.851	49.83
673.039	50.88
673.226	48.72
673.413	49.04
673.601	48.46
673.788	48.07
673.976	47.36
674.163	47.81
674.35	48.01
674.538	47.05
674.725	47.49
674.912	46.07
675.1	45.93
675.287	48.24
675.474	47.25
675.662	46.08
675.849	46.38
676.036	45.64
676.223	45.48
676.411	45.43
676.598	46.16
676.785	44.54
676.972	44.93
677.159	45.01
677.346	42.86
677.533	43.22
677.721	44.03
677.908	43.37
678.095	43.78
678.282	44.49
678.469	44.97
678.656	44.72
678.843	45.17
679.03	44.45
679.217	44.57
679.404	46.05
679.591	45.95
679.778	45.55
679.964	45.39
680.151	45.02
680.338	43.66
680.525	43.1
680.712	43.07
680.899	42.78
681.086	44.02
681.272	43.21
681.459	42.73
681.646	43.18
681.833	42.14
682.02	42.73
682.206	43.59
682.393	44.44
682.58	45.24
682.766	44.54
682.953	44.13
683.14	43.1
683.326	43.3
683.513	42.45
683.7	43
683.886	43.94
684.073	43.46
684.259	44.48
684.446	44.63
684.632	44.39
684.819	45.36
685.005	46.18
685.192	47.14
685.378	48.94
685.565	49.02
685.751	48.38
685.938	49.64
686.124	50.08
686.31	48.87
686.497	47.8
686.683	46.96
686.87	47.78
687.056	46.3
687.242	45.03
687.429	43.91
687.615	45.24
687.801	44.76
687.987	44.81
688.174	45.26
688.36	44.71
688.546	46.47
688.732	47.64
688.918	46.76
689.105	50.01
689.291	50.31
689.477	48.71
689.663	48.74
689.849	47.86
690.035	48.4
690.221	47.86
690.407	48.29
690.593	47.79
690.779	47.95
690.965	48.72
691.151	48.22
691.337	51.13
691.523	53.18
691.709	52.59
691.895	54.56
692.081	51.9
692.267	50.84
692.453	50.74
692.639	50.38
692.825	48.92
693.011	47.53
693.196	45.4
693.382	43.19
693.568	42.77
693.754	42.52
693.94	41.3
694.125	41.41
694.311	43.19
694.497	42.4
694.682	42.17
694.868	43.38
695.054	44.96
695.239	46
695.425	45.74
695.611	46.28
695.796	45.29
695.982	46.46
696.168	46.58
696.353	46.09
696.539	47.14
696.724	47.85
696.91	47.15
697.095	46.48
697.281	46.21
697.466	46.39
697.652	46.11
697.837	46.97
698.023	45.6
698.208	46.06
698.393	46.41
698.579	47.08
698.764	46.15
698.949	45.39
699.135	44.99
699.32	45.39
699.505	45.65
699.691	45.14
699.876	44.54
700.061	45.16
700.246	44.12
700.432	44.46
700.617	43.1
700.802	44.89
700.987	46.58
701.172	48.01
701.358	48.38
701.543	48.79
701.728	49.44
701.913	49.34
702.098	49.47
702.283	51.52
702.468	50.44
702.653	50.75
702.838	50.67
703.023	51.07
703.208	50.13
703.393	49.72
703.578	49.73
703.763	48.02
703.948	48.16
704.133	48.06
704.318	47.69
704.503	50.54
704.688	50.18
704.873	49.27
705.057	50.11
705.242	50.11
705.427	47.99
705.612	46.15
705.797	46.98
705.981	46.71
706.166	47.27
706.351	45.45
706.536	44.42
706.72	42.34
706.905	43.43
707.09	41.91
707.274	41.72
707.459	43.51
707.644	46.26
707.828	46.88
708.013	48.02
708.197	47.36
708.382	49.92
708.567	49.95
708.751	51.94
708.936	52.23
709.12	53.6
709.305	54.34
709.489	56.55
709.673	54.91
709.858	56.49
710.042	56.02
710.227	56.76
710.411	53.53
710.596	50.87
710.78	51.7
710.964	50.26
711.149	49.43
711.333	49.85
711.517	48.99
711.702	48.64
711.886	47.72
712.07	47.6
712.254	47.61
712.438	49.59
712.623	51.35
712.807	49.55
712.991	50.43
713.175	49.73
713.359	49.33
713.544	47.57
713.728	46.46
713.912	46.17
714.096	46.16
714.28	46.26
714.464	46.58
714.648	45.95
714.832	46.07
715.016	45.76
715.2	45.32
715.384	47.41
715.568	48.41
715.752	48.59
715.936	46.65
716.12	48.51
716.304	48.01
716.488	47.84
716.671	48.3
716.855	52.51
717.039	51.82
717.223	54.22
717.407	51.3
717.59	49
717.774	51.21
717.958	51.89
718.142	50.17
718.325	50.65
718.509	52.53
718.693	52.24
718.877	48.02
719.06	49.63
719.244	48.84
719.428	48
719.611	46.53
719.795	44.49
719.978	46.74
720.162	45.72
720.345	45.59
720.529	43.09
720.713	44.79
720.896	45.03
721.08	46.19
721.263	43.46
721.446	44.91
721.63	47.18
721.813	48.28
721.997	46.97
722.18	49.25
722.364	49.92
722.547	50.13
722.73	48.02
722.914	49.4
723.097	47.9
723.28	50.27
723.464	51.81
723.647	52.21
723.83	50.97
724.013	51.07
724.197	49
724.38	47.34
724.563	46.88
724.746	48.39
724.929	46.64
725.112	47.32
725.296	47.6
725.479	46.75
725.662	46.52
725.845	47.43
726.028	47.93
726.211	50.42
726.394	51.55
726.577	52.96
726.76	51.4
726.943	53.81
727.126	53.28
727.309	53.36
727.492	50.76
727.675	50.63
727.858	52.09
728.041	51.02
728.224	48.15
728.407	49.08
728.589	49.83
728.772	50.7
728.955	50.13
729.138	51.03
729.321	49.98
729.503	50.41
729.686	51.68
729.869	49.16
730.052	51.77
730.234	51.8
730.417	50.17
730.6	48.29
730.782	47.13
730.965	45.32
731.148	42.64
731.33	43.58
731.513	44.95
731.695	43.2
731.878	44.54
732.061	43.15
732.243	43.27
732.426	43.2
732.608	42.73
732.791	43.62
732.973	44.62
733.156	44.11
733.338	43.45
733.52	42.55
733.703	43.16
733.885	42.53
734.068	42.83
734.25	42.07
734.432	42.75
734.615	44.51
734.797	44.11
734.979	42.03
735.162	44.15
735.344	45.23
735.526	44.78
735.708	45.74
735.891	48
736.073	46.26
736.255	46.11
736.437	44.76
736.619	45.34
736.802	44.21
736.984	44.6
737.166	43.18
737.348	44.05
737.53	45.75
737.712	45.29
737.894	46.04
738.076	47.86
738.258	48.39
738.44	48.17
738.622	48.18
738.804	48.08
738.986	49.88
739.168	50.73
739.35	48.69
739.532	46.24
739.714	46.75
739.896	44.81
740.078	44.21
740.259	44.6
740.441	46.58
740.623	46.05
740.805	47.71
740.987	47.39
741.168	46.2
741.35	47.1
741.532	46.56
741.714	46.6
741.895	45.07
742.077	45.17
742.259	44.32
742.44	46.09
742.622	44.68
742.804	45.64
742.985	46.14
743.167	46.49
743.348	47.34
743.53	50.32
743.711	52.47
743.893	52.26
744.075	49.98
744.256	51.93
744.438	52.04
744.619	52.99
744.8	50.62
744.982	51.23
745.163	53.11
745.345	52.72
745.526	50.9
745.707	46.59
745.889	47.32
746.07	48.16
746.252	47.66
746.433	43.59
746.614	42.77
746.795	45.65
746.977	45.18
747.158	46.42
747.339	46.38
747.52	47.93
747.702	50.15
747.883	50.13
748.064	49.32
748.245	49.94
748.426	51.92
748.607	51.45
748.788	51.06
748.97	50.8
749.151	50.41
749.332	50.91
749.513	50.09
749.694	49.24
749.875	49.98
750.056	52.23
750.237	51.87
750.418	50.74
750.599	50.88
750.78	48.88
750.96	51.16
751.141	51.17
751.322	47.37
751.503	47.98
751.684	46.25
751.865	47.77
752.046	47.93
752.226	46.44
752.407	48.29
752.588	48.32
752.769	44.29
752.949	41.42
753.13	43.71
753.311	48.74
753.492	50.52
753.672	53.97
753.853	52.17
754.034	48.87
754.214	51.93
754.395	51.87
754.575	54.27
754.756	57.26
754.937	59.34
755.117	55.32
755.298	53.69
755.478	52.36
755.659	49.14
755.839	47.82
756.02	52.58
756.2	48.34
756.381	49.69
756.561	46.4
756.741	49.88
756.922	46.34
757.102	45.88
757.283	44.23
757.463	43.55
757.643	44.3
757.823	45.19
758.004	43.26
758.184	41.15
758.364	40.03
758.545	42.21
758.725	40.57
758.905	41.51
759.085	43.39
759.265	40.75
759.446	39.84
759.626	42.38
759.806	42.47
759.986	44.95
760.166	50.43
760.346	49.94
760.526	51.37
760.706	51.11
760.886	53.25
761.066	53.14
761.246	55.16
761.426	56.78
761.606	53.24
761.786	54.8
761.966	51.02
762.146	48.79
762.326	48.97
762.506	48.66
762.686	47.33
762.866	44.38
763.046	45.07
763.225	45.43
763.405	43.31
763.585	46.22
763.765	47.16
763.945	47.79
764.124	45.66
764.304	44.91
764.484	45.78
764.664	49.4
764.843	53.07
765.023	50.89
765.203	50.42
765.382	51.61
765.562	49.69
765.741	47.58
765.921	47.47
766.101	53.97
766.28	55.57
766.46	52.28
766.639	50.09
766.819	48.93
766.998	53.98
767.178	55.95
767.357	53.35
767.537	53.64
767.716	53.21
767.896	56.21
768.075	55.18
768.254	54.98
768.434	55.84
768.613	52.83
768.792	49.5
768.972	43.83
769.151	45.6
769.33	49.41
769.51	50.06
769.689	52.79
769.868	51.45
770.047	51.86
770.226	50.71
770.406	54.62
770.585	61.78
770.764	63.43
770.943	68.36
771.122	65.14
771.301	65.08
771.48	66.17
771.66	64.31
771.839	68.59
772.018	63.26
772.197	64.97
772.376	62.25
772.555	56.86
772.734	59.74
772.913	59.63
773.092	60.83
773.271	57.65
773.449	58.6
773.628	56.95
773.807	54.25
773.986	56.35
774.165	57.78
774.344	55.09
774.523	53.15
774.701	51.74
774.88	52.42
775.059	52.21
775.238	58.69
775.417	59.59
775.595	61.89
775.774	65.36
775.953	62.36
776.131	61.93
776.31	62.55
776.489	67.24
776.667	67.52
776.846	63.67
777.025	64.15
777.203	66.21
777.382	67.59
777.56	67
777.739	63.57
777.917	64.03
778.096	61.93
778.274	62.62
778.453	62.15
778.631	61.27
778.81	57.98
778.988	58.95
779.166	57.49
779.345	56.97
779.523	55.82
779.702	58.69
779.88	61.39
780.058	60.76
780.237	61.48
780.415	59.75
780.593	60.96
780.771	64.54
780.95	62.5
781.128	60.49
781.306	59.57
781.484	60.99
781.662	57.42
781.841	56.16
782.019	59.27
782.197	60.99
782.375	64.25
782.553	63.42
782.731	65.02
782.909	66.26
783.087	62.11
783.265	59.73
783.443	62.5
783.621	65.23
783.799	60.64
783.977	58.36
784.155	47.57
784.333	47.08
784.511	50.45
784.689	47.18
784.867	47.84
785.045	50.49
785.223	49.44
785.4	45.03
785.578	42.21
785.756	48.91
785.934	47.79
786.112	54.64
786.289	56.34
786.467	54.18
786.645	53.01
786.823	53.08
787	51.59
787.178	50.03
787.356	53.61
787.533	52
787.711	50.87
787.889	50.58
788.066	50.61
788.244	47.99
788.421	46.86
788.599	47.51
788.776	46.92
788.954	49.27
789.131	52.18
789.309	50.49
789.486	57.85
789.664	59.04
789.841	61.23
790.019	61.72
790.196	62.55
790.373	62.32
790.551	73.6
790.728	78.68
790.906	76.75
791.083	76.9
791.26	72.12
791.437	64.75
791.615	61.06
791.792	56.03
791.969	52.76
792.146	59.01
792.324	62.85
792.501	51.61
792.678	44.45
792.855	40.55
793.032	42.2
793.209	45.9
793.387	44.52
793.564	49.41
793.741	58.85
793.918	62.36
794.095	62.74
794.272	61.17
794.449	62.46
794.626	67.5
794.803	69.36
794.98	69.21
795.157	76.36
795.334	85.38
795.511	79.9
795.688	77.98
795.864	77.8
796.041	75.21
796.218	74.83
796.395	72.59
796.572	66.33
796.749	64.4
796.925	59.99
797.102	54.78
797.279	52.23
797.456	55.46
797.632	45.69
797.809	42.8
797.986	35.23
798.162	37.15
798.339	39.93
798.516	46.59
798.692	49.82
798.869	50.22
799.046	53.02
799.222	53.56
799.399	51.76
799.575	60.94
799.752	60.5
799.928	63.4
800.105	63.76
800.281	62.21
800.458	59.01
800.634	54.26
800.811	54.32
800.987	51.16
801.163	49.85
801.34	50.86
801.516	42.8
801.692	45.17
801.869	50.63
802.045	49.11
802.221	53.24
802.398	57.78
802.574	61.01
802.75	67.3
802.926	68.97
803.103	70.13
803.279	61.07
803.455	67.07
803.631	67.07
803.807	63.92
803.983	61.25
804.16	54.28
804.336	45.66
804.512	37.38
804.688	31.69
804.864	35.18
805.04	26.78
805.216	34.55
805.392	41.85
805.568	35.17
805.744	40.2
805.92	41.29
806.096	47.24
806.272	50.54
806.448	59.86
806.623	57.23
806.799	49.01
806.975	63.55
807.151	79.48
807.327	60.11
807.503	57.11
807.678	53.55
807.854	60.58
808.03	58.25
808.206	55.35
808.381	48.81
808.557	52.75
808.733	56.26
808.908	47.87
809.084	39.05
809.26	52.59
809.435	60.25
809.611	57.87
809.787	50.83
809.962	55.54
810.138	54.31
810.313	58.55
810.489	57.12
810.664	56.14
810.84	53.99
811.015	55.75
811.191	48.37
811.366	48.33
811.542	54.13
811.717	54.47
811.892	59.74
812.068	56.96
812.243	57.13
812.419	62.86
812.594	60.61
812.769	68.29
812.944	62.39
813.12	64.66
813.295	62.98
813.47	62.4
813.645	61.09
813.821	55.21
813.996	61.55
814.171	64.45
814.346	61.35
814.521	66.5
814.697	65.55
814.872	70.92
815.047	73.49
815.222	72.02
815.397	58.91
815.572	62.39
815.747	59.89
815.922	59.5
816.097	56.66
816.272	57.59
816.447	55.67
816.622	53.13
816.797	56.46
816.972	53.6
817.147	53.31
817.322	58.36
817.496	52.6
817.671	52.12
817.846	53.62
818.021	52.76
818.196	51.94
818.371	52.63
818.545	54.57
818.72	51.86
818.895	43.87
819.069	42.61
819.244	40.84
819.419	42.59
819.594	41.82
819.768	36.5
819.943	34.82
820.117	32.73
820.292	33.49
820.467	31.11
820.641	32.24
820.816	34.68
820.99	32.88
821.165	33.63
821.339	33.55
821.514	33.4
821.688	33.83
821.863	33.76
822.037	33.17
822.212	33.04
822.386	33.32
822.56	33
822.735	33.05
822.909	34.12
823.084	34.17
823.258	33.68
823.432	33
823.606	32.29
823.781	32.84
823.955	34.75
824.129	33.59
824.303	32.65
824.478	30.21
824.652	29.71
824.826	28.9
825	29.41
825.174	28.05
825.348	29.17
825.523	30.68
825.697	29.15
825.871	28.23
826.045	29.71
826.219	31.29
826.393	34.33
826.567	36.28
826.741	38.07
826.915	36.75
827.089	39.79
827.263	39.25
827.437	38.74
827.611	40.68
827.784	39.94
827.958	40.14
828.132	39.72
828.306	36.09
828.48	34.04
828.654	34.43
828.827	34.82
829.001	32.01
829.175	33.69
829.349	36.17
829.522	37.64
829.696	40.21
829.87	37.48
830.044	39.29
830.217	49.23
830.391	45.49
830.565	40.28
830.738	39.38
830.912	35.89
831.085	37.13
831.259	36.81
831.432	28.91
831.606	29.33
831.779	32.7
831.953	32.85
832.126	29.96
832.3	30.96
832.473	28.44
832.647	31.16
832.82	32.83
832.994	33.63
833.167	29.22
833.34	33.56
833.514	32.64
833.687	33.4
833.86	29.45
834.034	29.2
834.207	29.71
834.38	31.49
834.553	31.49
834.727	32.11
834.9	28.94
835.073	30.84
835.246	25.9
835.419	21.35
835.593	14.51
835.766	20.8
835.939	21.72
836.112	25.47
836.285	26.28
836.458	18.15
836.631	19.08
836.804	12.58
836.977	27.5
837.15	38.06
837.323	44.62
837.496	56
837.669	60.69
837.842	69.36
838.015	61.8
838.188	55.27
838.361	55.84
838.533	57.43
838.706	59.47
838.879	51.39
839.052	37.85
839.225	38.87
839.398	26.01
839.57	19.95
839.743	18.91
839.916	27.36
840.088	27.28
840.261	37.63
840.434	31.84
840.607	38.74
840.779	29.91
840.952	32.32
841.124	31.09
841.297	31.32
841.47	32.96
841.642	28.69
841.815	29.29
841.987	39.86
842.16	31.65
842.332	37.98
842.505	28.89
842.677	33.86
842.85	45.09
843.022	51.46
843.194	75.35
843.367	85.13
843.539	87.36
843.712	78.43
843.884	45.3
844.056	36.44
844.229	25.39
844.401	44.49
844.573	63.43
844.745	62.61
844.918	47.82
845.09	-31.97
845.262	-103.82
845.434	-214.6
845.606	-45.09
845.779	-4.1
845.951	-40.15
846.123	38.29
846.295	1.42
846.467	-14.33
846.639	-16.9
846.811	2.76
846.983	29.78
847.155	-6.2
847.327	8.42
847.499	25.11
847.671	32.76
847.843	15.14
848.015	-20.08
848.187	-21.88
848.359	-36.32
848.531	-20.37
848.703	-37.83
848.875	-102.69
849.047	-27.97
849.218	-9.18
849.39	-65.81
849.562	-85.84
849.734	-89.17
849.905	-117.96
850.077	-136.74
850.249	-173.85
850.421	-24.33
850.592	-28.9
850.764	24.24
850.936	2.89
851.107	-11.29
851.279	2.77
851.451	40.73
851.622	67.41
851.794	77.54
851.965	104.31
852.137	85.7
852.308	106.55
852.48	115.42
852.651	132.89
852.823	132.89
852.994	166.4
853.166	171.67
853.337	237.81
853.509	149.24
853.68	143
853.851	134.72
854.023	185.69
854.194	158.98
854.365	161.16
854.537	124.99
854.708	117.26
854.879	93.33
855.05	76.99
855.222	64.54
855.393	76.63
855.564	83.14
855.735	66
855.906	47.11
856.078	44.98
856.249	59.62
856.42	66.48
856.591	83.84
856.762	87.66
856.933	146.59
857.104	161.31
857.275	106.81
857.446	66.31
857.617	72.08
857.788	66.78
857.959	82.45
858.13	70.75
858.301	56.38
858.472	57.29
858.643	50.88
858.814	29.22
858.985	31.14
859.155	41.85
859.326	71.16
859.497	72.77
859.668	89.65
859.839	94.85
860.009	86.64
860.18	83.52
860.351	63.74
860.522	61.34
860.692	78.12
860.863	73.83
861.034	80.39
861.204	81.76
861.375	60.72
861.546	44.53
861.716	28.25
861.887	52.06
862.057	37.8
862.228	49.07
862.398	39.24
862.569	30.7
862.739	37.71
862.91	12.79
863.08	-22.75
863.251	19.97
863.421	21.17
863.592	36.5
863.762	23.09
863.932	46.47
864.103	57.26
864.273	59.79
864.443	48.08
864.614	37.12
864.784	30.06
864.954	3.5
865.125	13.28
865.295	-4.05
865.465	-65.66
865.635	-83.47
865.805	-221.31
865.976	-431.46
866.146	-243.39
866.316	-98.63
866.486	-46.92
866.656	-200.49
866.826	-24.36
866.996	-41.81
867.166	-4.96
867.336	35.32
867.506	48.21
867.676	44.35
867.846	31.93
868.016	43.08
868.186	43.59
868.356	41.08
868.526	48.71
868.696	55.93
868.866	79.81
869.036	87.77
869.206	46.95
869.376	-2.78
869.545	32.95
869.715	64.47
869.885	27.56
870.055	29.49
870.224	-39.66
870.394	-24.74
870.564	-2.16
870.734	-22.16
870.903	-30.96
871.073	2.61
871.243	22.2
871.412	29.56
871.582	11.84
871.751	22.95
871.921	41.57
872.091	49.99
872.26	39.21
872.43	37.88
872.599	82.57
872.769	66.17
872.938	72.67
873.108	77.25
873.277	-9.34
873.446	0.42
873.616	-11.74
873.785	-15.26
873.955	13.29
874.124	13.99
874.293	19.44
874.463	-63.15
874.632	-51.49
874.801	-163.09
874.971	-158.81
875.14	-41.34
875.309	-33.03
875.478	-41.14
875.647	-34.59
875.817	-44.37
875.986	-34.23
876.155	-63.21
876.324	-59.69
876.493	-133.27
876.662	-94.02
876.831	-70.88
877	-94.51
877.17	-196.28
877.339	-3.24
877.508	-33.77
877.677	-21.92
877.846	-103.51
878.015	-56.69
878.184	67.41
878.352	42.18
878.521	72.19
878.69	48.52
878.859	56.53
879.028	15.42
879.197	15.45
879.366	13.38
879.534	19.65
879.703	34.98
879.872	30.39
880.041	25.15
880.21	33.23
880.378	31.73
880.547	35.99
880.716	35.52
880.884	37.7
881.053	35.75
881.222	35.41
881.39	35.05
881.559	30.38
881.727	31.31
881.896	30.33
882.065	30.4
882.233	30.92
882.402	30
882.57	29.14
882.739	31.27
882.907	30.23
883.076	29.04
883.244	28.33
883.412	29.19
883.581	30.88
883.749	29.1
883.918	26.53
884.086	26.97
884.254	23.49
884.423	22.81
884.591	19.27
884.759	13.39
884.927	18.46
885.096	17.2
885.264	15.49
885.432	0.65
885.6	8.9
885.769	19.79
885.937	18.88
886.105	25.68
886.273	38.68
886.441	47.45
886.609	61.24
886.777	47.94
886.945	49.55
887.113	56.18
887.281	79.59
887.449	62.74
887.617	34.23
887.785	40.01
887.953	43.66
888.121	9.9
888.289	1.46
888.457	3.23
888.625	23.67
888.793	47.85
888.961	65.51
889.129	63.99
889.296	66.62
889.464	103.89
889.632	103.25
889.8	111.98
889.967	128.02
890.135	76.95
